##NAMES=Aegirine
##RRUFFID=R070253
##IDEAL CHEMISTRY=NaFe^3+^Si_2_O_6_
##LOCALITY=Lovozero Massif, Kola Peninsula, Murmanskaya Oblast'; Northern Region, Russia
##OWNER=RRUFF
##SOURCE=Michael Scott
##DESCRIPTION=Dark green to black prismatic aegirine associated with a brown mica and microcline
##STATUS=The identification of this mineral has been confirmed by single-crystal X-ray diffraction
##URL=https://www.rruff.net/odr/rruff_sample/R070253
##DIFFRACTION SAMPLE DESCRIPTION=Single crystal, powder profile is calculated
##CELL PARAMETERS=a: 9.66 b: 8.802 c: 5.286 alpha: 90 beta: 107.31 gamma: 90 volume: 429.1 crystal system: monoclinic
##FILETYPE=Raman RAW
##RAMAN WAVELENGTH=532

126.9392, 33.42888
128.8677, 35.62164
130.7961, 40.39624
132.7246, 46.10801
134.6531, 55.10495
136.5815, 70.59480
138.5100, 92.82601
140.4385, 118.6396
142.3669, 146.2346
144.2954, 175.1154
146.2239, 210.2088
148.1523, 252.4726
150.0808, 300.1645
152.0093, 351.7500
153.9377, 412.1607
155.8662, 469.0063
157.7947, 517.9113
159.7231, 557.4592
161.6516, 594.5259
163.5801, 625.4830
165.5085, 651.4037
167.4370, 658.2054
169.3655, 661.2479
171.2939, 668.7764
173.2224, 682.6530
175.1509, 701.7963
177.0793, 722.9157
179.0078, 743.2435
180.9363, 766.0670
182.8647, 796.5790
184.7932, 839.0351
186.7217, 879.6943
188.6501, 918.6583
190.5786, 959.2653
192.5071, 984.4368
194.4355, 990.0807
196.3640, 982.5867
198.2925, 967.7522
200.2209, 937.9879
202.1494, 911.9185
204.0779, 900.5507
206.0063, 907.8600
207.9348, 916.0035
209.8633, 932.7361
211.7917, 946.7483
213.7202, 946.9964
215.6487, 927.5799
217.5772, 896.8568
219.5056, 850.7997
221.4341, 788.9599
223.3626, 729.1884
225.2910, 675.2862
227.2195, 626.6130
229.1480, 584.0641
231.0764, 548.4724
233.0049, 518.4459
234.9334, 495.3816
236.8618, 478.1174
238.7903, 464.0121
240.7188, 453.2487
242.6472, 444.6437
244.5757, 437.6224
246.5042, 432.0854
248.4326, 427.8019
250.3611, 423.9818
252.2896, 420.4580
254.2180, 419.6413
256.1465, 422.7730
258.0750, 427.7770
260.0034, 433.4963
261.9319, 440.0457
263.8604, 446.5169
265.7888, 452.1104
267.7173, 457.0628
269.6458, 462.7137
271.5742, 468.9986
273.5027, 475.8886
275.4312, 483.3583
277.3596, 491.3663
279.2881, 500.8914
281.2166, 512.4579
283.1450, 524.6901
285.0735, 535.1229
287.0020, 542.9335
288.9304, 551.1774
290.8589, 560.4945
292.7874, 570.4833
294.7158, 582.6273
296.6443, 597.5628
298.5728, 614.8583
300.5012, 633.6857
302.4297, 655.2900
304.3582, 676.6874
306.2866, 698.9131
308.2151, 721.7048
310.1436, 738.7794
312.0720, 746.5413
314.0005, 748.5222
315.9290, 747.2714
317.8574, 736.9241
319.7859, 728.0707
321.7144, 719.8389
323.6428, 717.5436
325.5713, 728.5408
327.4998, 759.3074
329.4282, 803.7869
331.3567, 861.7109
333.2852, 944.6218
335.2136, 1018.704
337.1421, 1080.961
339.0706, 1124.345
340.9991, 1144.832
342.9275, 1125.180
344.8560, 1088.482
346.7845, 1035.359
348.7129, 969.7275
350.6414, 909.7314
352.5699, 863.8989
354.4983, 831.6567
356.4268, 810.8919
358.3553, 809.2761
360.2837, 813.8932
362.2122, 825.7754
364.1407, 841.1523
366.0691, 855.4391
367.9976, 863.7927
369.9261, 869.4628
371.8545, 872.2829
373.7830, 870.5115
375.7115, 873.1695
377.6399, 885.1913
379.5684, 906.0668
381.4969, 933.9804
383.4253, 979.5468
385.3538, 1015.697
387.2823, 1039.292
389.2107, 1042.983
391.1392, 1027.968
393.0677, 982.9070
394.9961, 920.1452
396.9246, 846.0224
398.8531, 759.1695
400.7815, 676.6858
402.7100, 600.4296
404.6385, 536.3483
406.5669, 484.5341
408.4954, 446.8936
410.4239, 417.4601
412.3523, 395.0131
414.2808, 378.0268
416.2093, 363.7684
418.1377, 351.7058
420.0662, 340.9625
421.9947, 331.1488
423.9231, 322.0734
425.8516, 314.0299
427.7801, 306.9971
429.7085, 301.0336
431.6370, 295.7949
433.5655, 291.7870
435.4939, 289.1042
437.4224, 287.7501
439.3509, 286.9674
441.2793, 285.5363
443.2078, 283.4342
445.1363, 281.9943
447.0647, 282.1095
448.9932, 282.6589
450.9217, 283.5310
452.8501, 285.3285
454.7786, 287.7998
456.7071, 290.3548
458.6355, 293.2584
460.5640, 295.9366
462.4925, 298.2042
464.4209, 299.1557
466.3494, 298.8575
468.2779, 297.1490
470.2063, 296.1844
472.1348, 296.4691
474.0633, 298.1869
475.9917, 301.1220
477.9202, 304.5750
479.8487, 309.7087
481.7771, 316.9192
483.7056, 325.4476
485.6341, 340.4656
487.5625, 363.4926
489.4910, 393.7023
491.4195, 428.7480
493.3479, 472.9006
495.2764, 513.6173
497.2049, 550.5580
499.1333, 578.1596
501.0618, 591.6089
502.9903, 584.4550
504.9187, 565.7142
506.8472, 535.6941
508.7757, 501.8291
510.7041, 474.1073
512.6326, 450.9321
514.5610, 436.4254
516.4895, 435.1544
518.4180, 445.8393
520.3464, 465.7152
522.2749, 494.3601
524.2034, 532.0373
526.1318, 580.5139
528.0603, 637.2836
529.9888, 705.4131
531.9172, 787.1638
533.8457, 884.5332
535.7742, 993.3506
537.7026, 1127.996
539.6311, 1256.510
541.5596, 1373.809
543.4880, 1468.536
545.4165, 1531.163
547.3450, 1555.715
549.2734, 1546.607
551.2019, 1506.993
553.1304, 1440.841
555.0588, 1376.139
556.9873, 1314.809
558.9158, 1258.942
560.8442, 1209.337
562.7727, 1167.746
564.7012, 1123.443
566.6296, 1072.109
568.5581, 1014.939
570.4866, 958.1664
572.4150, 901.8474
574.3435, 848.7018
576.2720, 799.6246
578.2004, 753.9884
580.1289, 709.8816
582.0574, 667.1595
583.9858, 626.6117
585.9144, 588.8366
587.8428, 553.8331
589.7713, 519.4854
591.6998, 485.1535
593.6282, 451.7650
595.5567, 419.8344
597.4852, 389.3970
599.4136, 360.8009
601.3421, 333.1553
603.2706, 307.2831
605.1990, 284.8412
607.1275, 267.6487
609.0560, 252.5482
610.9844, 239.0768
612.9129, 227.0519
614.8414, 217.8119
616.7698, 212.7723
618.6983, 209.0550
620.6268, 205.9156
622.5552, 203.0921
624.4837, 200.7830
626.4122, 199.2552
628.3406, 198.2208
630.2691, 197.1668
632.1976, 195.8770
634.1260, 196.1056
636.0545, 199.0716
637.9830, 202.8014
639.9114, 206.0716
641.8399, 208.6077
643.7684, 211.6058
645.6968, 215.8291
647.6253, 220.2081
649.5538, 223.6363
651.4822, 225.0096
653.4107, 228.0950
655.3392, 233.0395
657.2676, 239.7665
659.1961, 247.7242
661.1246, 256.2501
663.0530, 268.1387
664.9815, 283.8861
666.9100, 303.5470
668.8384, 327.4357
670.7669, 363.0804
672.6954, 393.9120
674.6238, 422.2146
676.5523, 443.0156
678.4808, 449.9219
680.4092, 439.2584
682.3377, 420.4242
684.2662, 393.6933
686.1946, 360.8799
688.1231, 331.5574
690.0516, 304.7480
691.9800, 281.7744
693.9085, 264.1289
695.8370, 251.0727
697.7654, 240.3881
699.6939, 232.3861
701.6224, 226.4138
703.5508, 222.6011
705.4793, 221.0990
707.4078, 219.8394
709.3362, 218.9838
711.2647, 218.3661
713.1932, 217.6870
715.1216, 216.7699
717.0501, 215.9651
718.9786, 215.2270
720.9070, 214.9586
722.8355, 215.2527
724.7640, 216.1956
726.6924, 217.2739
728.6209, 218.4360
730.5494, 219.7443
732.4778, 221.2299
734.4063, 222.9538
736.3348, 225.0515
738.2632, 227.1231
740.1917, 229.5797
742.1202, 232.7744
744.0486, 236.6446
745.9771, 242.9028
747.9056, 253.3323
749.8340, 264.7907
751.7625, 276.4151
753.6910, 290.1494
755.6194, 297.8148
757.5479, 297.3242
759.4764, 291.8690
761.4048, 281.9430
763.3333, 264.1932
765.2618, 248.2385
767.1902, 235.6189
769.1187, 226.0726
771.0472, 219.1360
772.9756, 215.5906
774.9041, 213.0089
776.8326, 210.8464
778.7610, 209.2361
780.6895, 208.6459
782.6180, 209.2081
784.5464, 209.7766
786.4749, 210.0096
788.4034, 210.4906
790.3318, 211.2168
792.2603, 212.1144
794.1888, 212.8840
796.1172, 213.4444
798.0457, 214.4899
799.9742, 216.0395
801.9026, 217.9151
803.8311, 220.4104
805.7596, 223.6735
807.6880, 227.4960
809.6165, 231.9104
811.5450, 236.6044
813.4734, 243.3657
815.4019, 252.7461
817.3304, 263.5429
819.2589, 275.0258
821.1873, 287.4086
823.1158, 300.7727
825.0443, 314.5926
826.9727, 329.3976
828.9012, 346.1881
830.8297, 364.9994
832.7581, 386.9533
834.6866, 411.8735
836.6151, 439.2646
838.5435, 468.8288
840.4720, 500.6219
842.4005, 536.2307
844.3289, 577.4830
846.2574, 620.6731
848.1859, 664.0551
850.1143, 708.0552
852.0428, 749.9645
853.9713, 788.2773
855.8997, 826.3793
857.8282, 864.6900
859.7567, 902.3389
861.6851, 933.5782
863.6136, 958.6983
865.5421, 973.9551
867.4705, 978.1330
869.3990, 973.8047
871.3275, 959.5597
873.2559, 930.5895
875.1844, 892.8903
877.1129, 850.9310
879.0413, 803.3641
880.9698, 756.6486
882.8983, 711.0133
884.8267, 670.3691
886.7552, 637.0536
888.6837, 609.6716
890.6121, 584.9286
892.5406, 561.9817
894.4691, 541.4462
896.3975, 524.4891
898.3260, 511.5104
900.2545, 500.9452
902.1829, 492.7454
904.1114, 486.3641
906.0399, 481.0189
907.9683, 474.0755
909.8968, 468.5208
911.8253, 465.4037
913.7537, 465.4132
915.6822, 466.7310
917.6107, 469.2100
919.5391, 473.7623
921.4676, 480.6366
923.3961, 488.7899
925.3245, 497.2217
927.2530, 506.4085
929.1815, 519.2542
931.1099, 535.4249
933.0384, 554.9815
934.9669, 577.8593
936.8953, 605.7170
938.8238, 638.1225
940.7523, 674.7106
942.6807, 717.6209
944.6092, 768.9160
946.5377, 826.4012
948.4661, 885.5204
950.3946, 943.7289
952.3231, 994.3943
954.2515, 1036.465
956.1800, 1069.125
958.1085, 1087.991
960.0369, 1093.791
961.9654, 1090.099
963.8939, 1077.236
965.8223, 1056.145
967.7508, 1029.285
969.6793, 998.3266
971.6077, 961.6382
973.5362, 917.8355
975.4647, 871.1783
977.3931, 827.2012
979.3216, 785.4930
981.2501, 747.1329
983.1785, 712.6871
985.1070, 682.8650
987.0355, 657.5876
988.9639, 635.6945
990.8924, 614.1188
992.8209, 593.3934
994.7493, 576.4816
996.6778, 565.3697
998.6063, 559.0089
1000.535, 553.4092
1002.463, 547.7809
1004.392, 543.7369
1006.320, 543.0314
1008.249, 546.4600
1010.177, 552.6319
1012.106, 559.7307
1014.034, 567.5488
1015.962, 576.2766
1017.891, 586.0952
1019.819, 596.8250
1021.748, 609.3090
1023.676, 623.1938
1025.605, 638.6868
1027.533, 656.9848
1029.462, 679.8688
1031.390, 707.8810
1033.319, 742.6915
1035.247, 782.6036
1037.176, 825.2854
1039.104, 868.0491
1041.032, 905.4999
1042.961, 923.2032
1044.889, 921.3084
1046.818, 899.7134
1048.746, 858.2763
1050.675, 797.7331
1052.603, 739.2834
1054.532, 685.9224
1056.460, 639.4682
1058.389, 601.5504
1060.317, 572.4671
1062.246, 549.4544
1064.174, 531.8554
1066.103, 518.5905
1068.031, 507.0854
1069.959, 496.0107
1071.888, 485.5726
1073.816, 477.8705
1075.745, 472.6023
1077.673, 467.4581
1079.602, 461.8384
1081.530, 456.1368
1083.459, 451.0760
1085.387, 445.2955
1087.316, 437.6402
1089.244, 430.0729
1091.173, 423.5918
1093.101, 418.0298
1095.030, 413.0825
1096.958, 409.2673
1098.887, 405.7835
1100.815, 402.0680
1102.744, 397.9616
1104.672, 393.9449
1106.600, 390.2642
1108.529, 388.7129
1110.457, 388.1441
1112.386, 386.8102
1114.314, 385.3065
1116.243, 384.7571
1118.171, 385.2946
1120.100, 385.4340
1122.028, 384.8384
1123.957, 384.8962
1125.885, 385.8808
1127.814, 386.2377
1129.742, 384.7512
1131.671, 381.8758
1133.599, 377.8932
1135.527, 372.0858
1137.456, 364.2373
1139.384, 354.8448
1141.313, 343.1964
1143.241, 327.8414
1145.170, 310.4248
1147.098, 293.7011
1149.027, 278.2754
1150.955, 263.7795
1152.884, 249.2554
1154.812, 236.2427
1156.741, 225.8332
1158.669, 218.0878
1160.598, 212.4155
1162.526, 209.2209
1164.454, 205.8427
1166.383, 201.6334
1168.311, 198.3349
1170.240, 196.9443
1172.168, 197.5092
1174.097, 196.6795
1176.025, 193.2509
1177.954, 190.6068
1179.882, 189.6493
1181.811, 189.7066
1183.739, 189.1926
1185.668, 187.7272
1187.596, 185.9429
1189.525, 184.8252
1191.453, 184.8145
1193.381, 185.5729
1195.310, 187.3638
1197.238, 188.2722
1199.167, 186.7694
1201.095, 185.2826
1203.024, 184.7370
1204.952, 184.6927
1206.881, 184.8490
1208.809, 185.7130
1210.738, 186.0198
1212.666, 184.8905
1214.595, 183.9340
1216.523, 183.9774
1218.452, 184.8355
1220.380, 185.3652
1222.308, 185.2117
1224.237, 184.8424
1226.165, 185.1206
1228.094, 186.1449
1230.022, 187.0881
1231.951, 187.9271
1233.879, 188.3598
1235.808, 188.0585
1237.736, 187.3428
1239.665, 186.8174
1241.593, 186.5072
1243.522, 186.3354
1245.450, 186.1004
1247.379, 186.4978
1249.307, 187.7139
1251.235, 188.8674
1253.164, 189.7258
1255.092, 190.3088
1257.021, 190.4994
1258.949, 190.1120
1260.878, 189.5918
1262.806, 188.6940
1264.735, 187.5300
1266.663, 187.1647
1268.592, 187.9737
1270.520, 189.0542
1272.449, 190.5417
1274.377, 192.0326
1276.306, 192.6873
1278.234, 192.2730
1280.162, 192.2170
1282.091, 192.8450
1284.019, 193.4858
1285.948, 194.6729
1287.876, 196.0751
1289.805, 195.7363
1291.733, 193.5172
1293.662, 191.9255
1295.590, 191.2482
1297.519, 191.1127
1299.447, 192.2405
1301.376, 194.2451
1303.304, 195.5422
1305.233, 195.9119
1307.161, 195.9328
1309.089, 195.2537
1311.018, 194.7481
1312.946, 195.4754
1314.875, 197.4122
1316.803, 197.7910
1318.732, 195.1853
1320.660, 192.8035
1322.589, 190.4298
1324.517, 188.9297
1326.446, 189.8694
1328.374, 193.8402
1330.303, 195.7131
1332.231, 193.4866
1334.160, 191.5900
1336.088, 192.2576
1338.016, 194.1288
1339.945, 194.8871
1341.873, 194.3719
1343.802, 194.1878
1345.730, 194.8939
1347.659, 195.6672
1349.587, 195.9478
1351.516, 195.9966
1353.444, 196.6501
1355.373, 198.4661
1357.301, 199.2146
1359.230, 196.9915
1361.158, 195.1152
1363.087, 195.7900
1365.015, 198.6213
1366.943, 200.9903
1368.872, 203.5258
1370.800, 204.6859
1372.729, 203.7118
1374.657, 201.8836
1376.586, 199.7336
1378.514, 197.3962
1380.443, 196.3045
1382.371, 196.9606
1384.300, 197.7850
1386.228, 198.2783
1388.157, 198.8251
1390.085, 200.0077
1392.014, 201.6381
1393.942, 202.4475
1395.870, 202.1214
1397.799, 201.4023
1399.727, 199.9617
1401.656, 198.7439
1403.584, 198.7307
1405.513, 199.8531
1407.441, 200.7022
1409.370, 201.2473
1411.298, 201.6669
1413.227, 201.7287
1415.155, 201.5880
1417.084, 201.5567
1419.012, 201.7720
1420.941, 202.3804
1422.869, 203.2436
1424.797, 204.4979
1426.726, 207.0830
1428.654, 209.6482
1430.583, 210.3258
1432.511, 208.7491
1434.440, 207.3556
1436.368, 206.0435
1438.297, 205.1406
1440.225, 204.9172
1442.154, 205.0372
1444.082, 205.0654
1446.011, 204.9796
1447.939, 205.1647
1449.868, 205.8613
1451.796, 206.6680
1453.724, 208.0220
1455.653, 208.7617
1457.581, 207.6467
1459.510, 204.8131
1461.438, 202.5778
1463.367, 201.1484
1465.295, 200.5204
1467.224, 201.0122
1469.152, 201.9654
1471.081, 203.0876
1473.009, 204.4929
1474.938, 204.7914
1476.866, 202.8665
1478.795, 201.3025
1480.723, 201.0846
1482.651, 201.1524
1484.580, 200.2030
1486.508, 198.4189
1488.437, 198.0899
1490.365, 201.3332
1492.294, 203.0058
1494.222, 200.9161
1496.151, 198.5439
1498.079, 198.9656
1500.008, 201.6806
1501.936, 202.5014
1503.865, 199.9333
1505.793, 199.0675
1507.722, 202.6138
1509.650, 205.4837
1511.578, 203.8517
1513.507, 199.8037
1515.435, 198.3723
1517.364, 200.2118
1519.292, 201.3027
1521.221, 199.9893
1523.149, 199.0468
1525.078, 200.4418
1527.006, 202.6789
1528.935, 203.6908
1530.863, 203.4148
1532.792, 202.9725
1534.720, 202.3799
1536.649, 202.3235
1538.577, 203.2899
1540.505, 204.5227
1542.434, 205.7910
1544.362, 207.3233
1546.291, 207.9843
1548.219, 207.0007
1550.148, 205.9048
1552.076, 204.8988
1554.005, 204.4965
1555.933, 205.2759
1557.862, 206.8624
1559.790, 207.6174
1561.719, 207.3071
1563.647, 206.7170
1565.576, 205.6004
1567.504, 204.7727
1569.432, 204.5956
1571.361, 204.8809
1573.289, 205.4440
1575.218, 206.5342
1577.146, 207.1983
1579.075, 206.8407
1581.003, 206.8560
1582.932, 207.8523
1584.860, 209.1113
1586.789, 210.1549
1588.717, 210.8253
1590.646, 210.2304
1592.574, 206.5013
1594.503, 204.5779
1596.431, 206.1400
1598.359, 208.2238
1600.288, 209.0685
1602.216, 209.0477
1604.145, 209.3457
1606.073, 210.3811
1608.002, 210.5993
1609.930, 209.3550
1611.859, 208.2455
1613.787, 207.8815
1615.716, 207.7102
1617.644, 207.0938
1619.573, 206.0700
1621.501, 205.2986
1623.430, 204.5942
1625.358, 204.5755
1627.286, 205.9355
1629.215, 207.3266
1631.143, 208.1489
1633.072, 208.4150
1635.000, 208.1438
1636.929, 207.3777
1638.857, 205.7779
1640.786, 202.0861
1642.714, 199.3756
1644.643, 199.5170
1646.571, 200.3311
1648.500, 199.4021
1650.428, 197.2425
1652.357, 196.7860
1654.285, 198.7982
1656.214, 199.6254
1658.142, 198.0568
1660.070, 195.9089
1661.999, 193.4325
1663.927, 191.1851
1665.856, 190.2162
1667.784, 190.3882
1669.713, 189.9886
1671.641, 188.7955
1673.570, 187.3738
1675.498, 185.4353
1677.427, 183.7623
1679.355, 183.3167
1681.284, 183.3156
1683.212, 181.9072
1685.141, 178.9990
1687.069, 177.1788
1688.997, 176.9604
1690.926, 177.3164
1692.854, 178.5469
1694.783, 179.6347
1696.711, 180.2359
1698.640, 180.0019
1700.568, 177.3118
1702.497, 171.6159
1704.425, 168.5983
1706.354, 170.5235
1708.282, 172.5989
1710.211, 173.2789
1712.139, 173.0476
1714.068, 172.3499
1715.996, 171.1268
1717.924, 168.5630
1719.853, 164.0412
1721.781, 162.2224
1723.710, 165.7544
1725.638, 169.1129
1727.567, 169.8575
1729.495, 169.3626
1731.424, 168.7857
1733.352, 168.1232
1735.281, 167.3886
1737.209, 166.5043
1739.138, 165.9686
1741.066, 166.2939
1742.995, 166.3978
1744.923, 165.4402
1746.851, 164.3904
1748.780, 164.4071
1750.708, 165.2368
1752.637, 165.6363
1754.565, 165.4124
1756.494, 165.5674
1758.422, 167.0092
1760.351, 167.7231
1762.279, 166.3463
1764.208, 164.3576
1766.136, 162.9495
1768.065, 162.1796
1769.993, 162.5234
1771.922, 164.5032
1773.850, 165.1111
1775.778, 162.3673
1777.707, 160.5515
1779.635, 161.6075
1781.564, 163.5550
1783.492, 165.2507
1785.421, 166.4107
1787.349, 165.7691
1789.278, 162.6457
1791.206, 160.9861
1793.135, 162.0621
1795.063, 162.9792
1796.992, 162.7505
1798.920, 162.5564
1800.849, 163.7475
1802.777, 165.4238
1804.705, 165.4595
1806.634, 163.5624
1808.562, 162.0456
1810.491, 160.0354
1812.419, 159.7257
1814.348, 163.2716
1816.276, 166.3134
1818.205, 165.6878
1820.133, 163.7536
1822.062, 164.1996
1823.990, 166.9232
1825.919, 168.2734
1827.847, 167.3932
1829.776, 166.9397
1831.704, 167.2544
1833.632, 167.7620
1835.561, 168.6546
1837.489, 169.3608
1839.418, 169.2153
1841.346, 168.4484
1843.275, 167.8517
1845.203, 167.4012
1847.132, 167.2018
1849.060, 167.2225
1850.989, 167.5359
1852.917, 168.8921
1854.846, 169.7183
1856.774, 168.1449
1858.703, 166.1742
1860.631, 167.7716
1862.559, 172.2229
1864.488, 172.7829
1866.416, 168.0737
1868.345, 165.4067
1870.273, 167.1440
1872.202, 169.1150
1874.130, 170.1512
1876.059, 170.2234
1877.987, 168.0892
1879.916, 165.4136
1881.844, 166.3174
1883.773, 170.6447
1885.701, 172.7914
1887.630, 171.6568
1889.558, 170.3355
1891.486, 169.3359
1893.415, 168.6222
1895.343, 168.2347
1897.272, 168.0996
1899.200, 168.0222
1901.129, 168.1502
1903.057, 169.1561
1904.986, 171.2950
1906.914, 172.8946
1908.843, 173.9411
1910.771, 174.3832
1912.700, 173.2367
1914.628, 172.6120
1916.557, 174.4550
1918.485, 176.7458
1920.413, 176.4483
1922.342, 174.2124
1924.270, 174.0434
1926.199, 177.0228
1928.127, 178.5438
1930.056, 177.0869
1931.984, 176.7036
1933.913, 179.6504
1935.841, 181.9520
1937.770, 180.9539
1939.698, 178.8412
1941.627, 178.2159
1943.555, 178.7295
1945.484, 178.9008
1947.412, 178.7166
1949.340, 178.1167
1951.269, 176.8175
1953.197, 175.9857
1955.126, 175.8679
1957.054, 176.4376
1958.983, 178.0360
1960.911, 180.0377
1962.840, 182.1764
1964.768, 184.1193
1966.697, 184.7592
1968.625, 184.0115
1970.554, 183.5218
1972.482, 183.4883
1974.411, 183.4244
1976.339, 182.9415
1978.267, 182.8238
1980.196, 183.8548
1982.124, 184.9455
1984.053, 185.1879
1985.981, 184.8113
1987.910, 184.0454
1989.838, 182.8426
1991.767, 182.8146
1993.695, 184.7085
1995.624, 185.6087
1997.552, 184.1742
1999.481, 183.5524
2001.409, 185.9736
2003.338, 187.8392
2005.266, 185.9992
2007.194, 183.3724
2009.123, 184.2425
2011.051, 187.3665
2012.980, 188.3920
2014.908, 187.1921
2016.837, 185.8654
2018.765, 184.4349
2020.694, 183.5883
2022.622, 183.6324
2024.551, 184.1147
2026.479, 185.3825
2028.408, 186.5033
2030.336, 186.3203
2032.265, 185.6769
2034.193, 186.5503
2036.121, 188.6601
2038.050, 188.5643
2039.978, 184.8796
2041.907, 182.8363
2043.835, 183.5555
2045.764, 184.0512
2047.692, 183.5438
2049.621, 183.2669
2051.549, 184.2108
2053.478, 185.1056
2055.406, 184.3820
2057.334, 183.0593
2059.263, 183.3992
2061.191, 185.0255
2063.120, 185.6736
2065.048, 185.1069
2066.977, 185.1180
2068.906, 186.1180
2070.834, 187.2611
2072.762, 189.0562
2074.691, 190.0238
2076.619, 188.7879
2078.548, 187.2678
2080.476, 187.2669
2082.405, 187.9736
2084.333, 187.8699
2086.262, 187.0938
2088.190, 186.8759
2090.119, 187.3719
2092.047, 187.8304
2093.976, 188.6557
2095.904, 188.2045
2097.833, 184.7484
2099.761, 182.4908
2101.689, 184.4441
2103.618, 186.2864
2105.546, 184.4295
2107.475, 181.4529
2109.403, 180.5009
2111.332, 180.9190
2113.260, 181.0369
2115.189, 180.8670
2117.117, 180.0615
2119.046, 178.1940
2120.974, 176.9023
2122.903, 176.3959
2124.831, 176.2478
2126.760, 175.8124
2128.688, 176.4460
2130.616, 180.6785
2132.545, 184.2276
2134.473, 182.4420
2136.402, 178.4523
2138.330, 177.5607
2140.259, 178.8410
2142.187, 178.6242
2144.116, 176.8868
2146.044, 175.5923
2147.973, 175.0827
2149.901, 174.0019
2151.830, 171.3369
2153.758, 169.6882
2155.687, 170.5358
2157.615, 171.5626
2159.543, 171.8288
2161.472, 171.6605
2163.400, 171.3702
2165.329, 170.7471
2167.257, 169.2745
2169.186, 167.1611
2171.114, 165.4133
2173.043, 164.0470
2174.971, 163.1163
2176.900, 162.7175
2178.828, 162.3295
2180.757, 161.8766
2182.685, 161.4583
2184.614, 160.4540
2186.542, 160.4382
2188.470, 163.8203
2190.399, 166.3263
2192.327, 163.7715
2194.256, 159.7956
2196.184, 158.7322
2198.113, 159.6562
2200.041, 160.7893
2201.970, 162.0138
2203.898, 160.8665
2205.827, 157.0312
2207.755, 155.7513
2209.684, 158.0950
2211.612, 159.4164
2213.541, 158.5506
2215.469, 157.4309
2217.397, 155.9175
2219.326, 155.3628
2221.254, 157.4670
2223.183, 159.5129
2225.111, 159.3353
2227.040, 158.0632
2228.968, 156.9307
2230.897, 155.8797
2232.825, 154.7152
2234.754, 153.4731
2236.682, 152.3898
2238.611, 151.4497
2240.539, 151.8507
2242.468, 154.0044
2244.396, 155.4638
2246.324, 155.8922
2248.253, 155.4125
2250.181, 153.3086
2252.110, 151.4010
2254.038, 150.1311
2255.967, 149.5241
2257.895, 150.1937
2259.824, 150.9601
2261.752, 150.3911
2263.681, 149.3250
2265.609, 149.2286
2267.538, 149.7839
2269.466, 149.9734
2271.395, 149.8339
2273.323, 149.8845
2275.251, 150.2036
2277.180, 149.4655
2279.108, 146.4522
2281.037, 145.7903
2282.965, 150.7947
2284.894, 153.7247
2286.822, 151.7333
2288.751, 149.7620
2290.679, 149.4850
2292.608, 149.5934
2294.536, 150.5894
2296.465, 150.4305
2298.393, 145.4818
2300.322, 139.9251
2302.250, 139.6653
2304.178, 142.6755
2306.107, 144.4007
2308.035, 145.0594
2309.964, 146.3306
2311.892, 148.4560
2313.821, 148.6294
2315.749, 146.0735
2317.678, 144.5657
2319.606, 144.2934
2321.535, 145.1113
2323.463, 147.3462
2325.392, 149.7988
2327.320, 153.1991
2329.249, 154.8692
2331.177, 152.2959
2333.105, 149.4361
2335.034, 149.0606
2336.962, 148.8534
2338.891, 145.8614
2340.819, 142.6176
2342.748, 142.9258
2344.676, 145.1508
2346.605, 146.1811
2348.533, 146.1327
2350.462, 144.8357
2352.390, 142.6481
2354.319, 142.4728
2356.247, 144.6686
2358.176, 146.1085
2360.104, 146.3679
2362.032, 146.5712
2363.961, 147.0622
2365.889, 146.6861
2367.818, 144.2643
2369.746, 143.3302
2371.675, 145.8028
2373.603, 147.8085
2375.532, 147.1409
2377.460, 146.5166
2379.389, 147.7756
2381.317, 149.2301
2383.246, 149.7760
2385.174, 149.6718
2387.103, 148.9349
2389.031, 147.8953
2390.959, 147.0163
2392.888, 146.2826
2394.816, 145.5876
2396.745, 145.0348
2398.673, 144.9613
2400.602, 145.3653
2402.530, 146.1594
2404.459, 147.4509
2406.387, 148.0452
2408.316, 147.2292
2410.244, 147.8325
2412.173, 150.8929
2414.101, 152.0706
2416.030, 149.9862
2417.958, 149.0520
2419.886, 151.2078
2421.815, 152.2510
2423.743, 150.1023
2425.672, 147.5647
2427.600, 144.6170
2429.529, 143.0216
2431.457, 144.8332
2433.386, 146.9688
2435.314, 147.6838
2437.243, 147.3395
2439.171, 144.7478
2441.100, 142.5839
2443.028, 144.7676
2444.957, 148.6880
2446.885, 150.2868
2448.813, 150.2715
2450.742, 150.3020
2452.670, 150.3609
2454.599, 150.1235
2456.527, 149.6992
2458.456, 150.8807
2460.384, 153.4712
2462.313, 153.0959
2464.241, 149.3900
2466.170, 147.4874
2468.098, 148.4363
2470.027, 148.3489
2471.955, 145.0186
2473.884, 144.4193
2475.812, 148.2797
2477.740, 150.8533
2479.669, 151.1984
2481.597, 150.6647
2483.526, 149.3436
2485.454, 147.8679
2487.383, 145.9491
2489.311, 144.7484
2491.240, 144.9688
2493.168, 145.6660
2495.097, 146.7344
2497.025, 147.6525
2498.954, 147.5236
2500.882, 147.7490
2502.811, 150.2681
2504.739, 152.5231
2506.667, 151.7107
2508.596, 149.7775
2510.524, 148.6707
2512.453, 148.2534
2514.381, 148.3719
2516.310, 149.0208
2518.238, 151.0567
2520.167, 153.2291
2522.095, 151.6871
2524.024, 147.8491
2525.952, 146.1758
2527.881, 146.3789
2529.809, 147.0391
2531.738, 148.1104
2533.666, 148.7377
2535.594, 148.9286
2537.523, 149.6921
2539.451, 151.0194
2541.380, 150.5474
2543.308, 147.9499
2545.237, 146.3400
2547.165, 146.1620
2549.094, 146.2927
2551.022, 146.8294
2552.951, 147.3247
2554.879, 147.8226
2556.808, 147.9950
2558.736, 147.7096
2560.665, 147.4390
2562.593, 147.0181
2564.521, 147.2881
2566.450, 149.2489
2568.378, 150.5152
2570.307, 150.3335
2572.235, 149.9265
2574.164, 149.2905
2576.092, 149.0356
2578.021, 150.1306
2579.949, 150.2267
2581.878, 147.3398
2583.806, 144.7448
2585.735, 143.0966
2587.663, 143.1372
2589.592, 146.8523
2591.520, 150.1260
2593.448, 151.0002
2595.377, 150.7348
2597.305, 149.7461
2599.234, 148.3670
2601.162, 146.2324
2603.091, 144.5217
2605.019, 144.1441
2606.948, 144.6628
2608.876, 146.4662
2610.805, 148.1895
2612.733, 148.5982
2614.662, 148.3963
2616.590, 148.0813
2618.519, 147.7545
2620.447, 147.6713
2622.375, 147.4932
2624.304, 146.0015
2626.232, 144.7705
2628.161, 146.7130
2630.089, 149.7666
2632.018, 151.5518
2633.946, 152.1143
2635.875, 150.7528
2637.803, 148.7262
2639.732, 148.6898
2641.660, 149.6485
2643.589, 149.7144
2645.517, 149.0861
2647.446, 147.6663
2649.374, 146.1518
2651.302, 146.6626
2653.231, 148.1628
2655.159, 147.2155
2657.088, 145.0423
2659.016, 145.9402
2660.945, 148.6503
2662.873, 150.0933
2664.802, 150.2135
2666.730, 148.1917
2668.659, 144.9005
2670.587, 143.5750
2672.516, 143.9725
2674.444, 145.7120
2676.373, 148.0606
2678.301, 148.1844
2680.229, 146.5374
2682.158, 144.6880
2684.086, 142.9946
2686.015, 143.9394
2687.943, 146.7857
2689.872, 146.7144
2691.800, 144.5281
2693.729, 143.3259
2695.657, 143.1075
2697.586, 143.7924
2699.514, 145.0791
2701.443, 144.9664
2703.371, 143.7582
2705.300, 143.2328
2707.228, 143.4474
2709.156, 145.3285
2711.085, 148.1549
2713.013, 148.2744
2714.942, 146.1384
2716.870, 143.8095
2718.799, 141.6278
2720.727, 142.7483
2722.656, 145.7666
2724.584, 144.2986
2726.513, 139.8036
2728.441, 138.7286
2730.370, 140.3390
2732.298, 141.4786
2734.227, 142.2418
2736.155, 142.9722
2738.083, 143.7248
2740.012, 145.0790
2741.940, 146.5051
2743.869, 146.1667
2745.797, 144.5217
2747.726, 142.4844
2749.654, 140.6201
2751.583, 140.9286
2753.511, 142.6893
2755.440, 145.0087
2757.368, 146.8853
2759.297, 145.2866
2761.225, 141.7511
2763.154, 139.3367
2765.082, 138.0740
2767.010, 138.5958
2768.939, 139.9339
2770.867, 140.5487
2772.796, 140.7359
2774.724, 140.8701
2776.653, 141.0234
2778.581, 141.6385
2780.510, 142.0409
2782.438, 141.1052
2784.367, 139.6608
2786.295, 138.4439
2788.224, 137.6172
2790.152, 137.6285
2792.081, 137.8742
2794.009, 137.2323
2795.938, 137.0417
2797.866, 138.9532
2799.794, 141.3263
2801.723, 143.2396
2803.651, 144.2683
2805.580, 144.0051
2807.508, 142.7442
2809.437, 139.6958
2811.365, 137.1962
2813.294, 136.9907
2815.222, 137.4767
2817.151, 137.6792
2819.079, 138.4704
2821.008, 141.1965
2822.936, 142.7696
2824.865, 140.7456
2826.793, 138.9027
2828.721, 138.6713
2830.650, 138.9381
2832.578, 139.7830
2834.507, 140.2034
2836.435, 139.9070
2838.364, 139.2979
2840.292, 137.4283
2842.221, 137.4451
2844.149, 141.8143
2846.078, 143.1735
2848.006, 139.8796
2849.935, 137.9297
2851.863, 138.4797
2853.792, 139.5327
2855.720, 141.5993
2857.648, 141.8821
2859.577, 140.1253
2861.505, 138.7557
2863.434, 137.9219
2865.362, 138.5131
2867.291, 140.6953
2869.219, 141.7180
2871.148, 141.5767
2873.076, 140.6376
2875.005, 139.1449
2876.933, 138.5427
2878.862, 138.6455
2880.790, 138.4366
2882.719, 138.1770
2884.647, 139.1408
2886.575, 140.4683
2888.504, 139.8069
2890.432, 138.3484
2892.361, 136.9188
2894.289, 136.9185
2896.218, 142.7289
2898.146, 148.5631
2900.075, 147.0672
2902.003, 143.6290
2903.932, 142.1028
2905.860, 141.2471
2907.789, 139.9068
2909.717, 139.2835
2911.646, 140.4623
2913.574, 141.7367
2915.502, 142.6383
2917.431, 142.9605
2919.359, 142.4135
2921.288, 141.5859
2923.216, 140.0717
2925.145, 139.9209
2927.073, 142.1269
2929.002, 143.6670
2930.930, 143.3432
2932.859, 143.6593
2934.787, 144.8884
2936.716, 144.9497
2938.644, 143.6703
2940.573, 143.7742
2942.501, 145.4862
2944.429, 145.8451
2946.358, 144.9123
2948.286, 143.1565
2950.215, 141.0866
2952.143, 140.7715
2954.072, 141.5221
2956.000, 141.4302
2957.929, 141.2475
2959.857, 143.4202
2961.786, 145.3308
2963.714, 142.0548
2965.643, 139.0846
2967.571, 144.0767
2969.500, 148.8080
2971.428, 145.9135
2973.356, 142.4973
2975.285, 141.8696
2977.213, 142.1134
2979.142, 143.3574
2981.070, 143.6526
2982.999, 142.1943
2984.927, 140.8692
2986.856, 139.7896
2988.784, 139.9023
2990.713, 141.9702
2992.641, 143.9016
2994.570, 145.7545
2996.498, 146.3468
2998.427, 145.6782
3000.355, 145.0491
3002.283, 144.5063
3004.212, 143.9865
3006.140, 143.6299
3008.069, 144.5574
3009.997, 145.5776
3011.926, 143.6124
3013.854, 141.2563
3015.783, 143.2070
3017.711, 145.3702
3019.640, 142.9675
3021.568, 140.8085
3023.497, 143.1651
3025.425, 145.0603
3027.354, 142.5095
3029.282, 141.9736
3031.210, 146.4477
3033.139, 149.1082
3035.067, 147.0403
3036.996, 145.3078
3038.924, 144.1651
3040.853, 143.7077
3042.781, 143.9376
3044.710, 144.1387
3046.638, 144.2586
3048.567, 144.1337
3050.495, 143.8372
3052.424, 143.9066
3054.352, 143.9390
3056.281, 142.4895
3058.209, 141.1167
3060.137, 142.8792
3062.066, 144.8016
3063.994, 143.5257
3065.923, 142.4522
3067.851, 144.4523
3069.780, 146.0264
3071.708, 145.7947
3073.637, 144.7473
3075.565, 142.4760
3077.494, 141.7629
3079.422, 144.5806
3081.351, 145.4368
3083.279, 144.1552
3085.208, 143.6391
3087.136, 143.9070
3089.064, 143.5990
3090.993, 143.0282
3092.921, 143.6599
3094.850, 145.0060
3096.778, 146.1128
3098.707, 147.2381
3100.635, 149.7890
3102.564, 151.0249
3104.492, 147.2242
3106.421, 143.6280
3108.349, 142.5453
3110.278, 142.3351
3112.206, 142.7792
3114.135, 143.4994
3116.063, 144.5867
3117.991, 145.1081
3119.920, 144.9383
3121.848, 143.6372
3123.777, 141.3145
3125.705, 141.5466
3127.634, 143.5606
3129.562, 145.4173
3131.491, 146.6927
3133.419, 146.2700
3135.348, 145.2901
3137.276, 144.9246
3139.205, 144.5982
3141.133, 143.7701
3143.062, 143.1814
3144.990, 143.2237
3146.918, 143.3143
3148.847, 143.2500
3150.775, 143.7310
3152.704, 145.3779
3154.632, 145.2345
3156.561, 143.4329
3158.489, 141.8457
3160.418, 140.7704
3162.346, 141.2764
3164.275, 142.6138
3166.203, 143.8746
3168.132, 144.4555
3170.060, 143.4424
3171.989, 142.0872
3173.917, 140.7522
3175.845, 140.2007
3177.774, 140.9147
3179.702, 141.6118
3181.631, 141.9026
3183.559, 142.3734
3185.488, 143.0566
3187.416, 143.4047
3189.345, 143.4008
3191.273, 143.4498
3193.202, 143.1972
3195.130, 140.8800
3197.059, 138.5470
3198.987, 139.2449
3200.916, 140.3364
3202.844, 139.4149
3204.772, 138.9382
3206.701, 139.7235
3208.629, 141.4151
3210.558, 145.2266
3212.486, 145.6772
3214.415, 142.0381
3216.343, 140.0897
3218.272, 139.8678
3220.200, 140.5120
3222.129, 141.4798
3224.057, 141.5126
3225.986, 140.8983
3227.914, 139.1573
3229.843, 138.2593
3231.771, 141.4935
3233.699, 142.4986
3235.628, 137.8855
3237.556, 135.6755
3239.485, 139.3436
3241.413, 139.6750
3243.342, 136.2207
3245.270, 137.4680
3247.199, 142.1528
3249.127, 144.2916
3251.056, 144.4534
3252.984, 143.1481
3254.913, 141.1412
3256.841, 137.9547
3258.770, 136.2303
3260.698, 138.8408
3262.626, 140.4310
3264.555, 139.6974
3266.483, 139.4906
3268.412, 140.5240
3270.340, 139.9886
3272.269, 138.1876
3274.197, 136.3770
3276.126, 135.6230
3278.054, 139.8013
3279.983, 144.1516
3281.911, 143.1521
3283.840, 141.0421
3285.768, 138.8273
3287.697, 138.5984
3289.625, 141.8563
3291.553, 142.5146
3293.482, 139.7481
3295.410, 137.3050
3297.339, 135.4963
3299.267, 136.0982
3301.196, 137.8211
3303.124, 138.4561
3305.053, 138.6018
3306.981, 138.9144
3308.910, 138.7583
3310.838, 137.3522
3312.767, 136.8345
3314.695, 138.5540
3316.624, 139.2116
3318.552, 138.7753
3320.480, 137.7573
3322.409, 136.7253
3324.337, 138.1680
3326.266, 140.4028
3328.194, 141.0662
3330.123, 141.1136
3332.051, 141.3383
3333.980, 140.7390
3335.908, 138.5539
3337.837, 137.7361
3339.765, 139.2776
3341.694, 139.8581
3343.622, 139.3966
3345.551, 136.0710
3347.479, 132.5337
3349.407, 134.7658
3351.336, 138.2545
3353.264, 139.5661
3355.193, 139.1545
3357.121, 135.0760
3359.050, 133.9769
3360.978, 137.2549
3362.907, 138.7464
3364.835, 138.1682
3366.764, 137.3703
3368.692, 136.8110
3370.621, 138.1255
3372.549, 139.7290
3374.478, 140.4188
3376.406, 140.1856
3378.334, 138.3654
3380.263, 137.5528
3382.191, 138.5203
3384.120, 139.0022
3386.048, 138.9015
3387.977, 140.9039
3389.905, 143.0352
3391.834, 139.8630
3393.762, 135.8641
3395.691, 135.6232
3397.619, 136.5466
3399.548, 138.3248
3401.476, 139.2749
3403.405, 138.9901
3405.333, 139.7267
3407.261, 141.2822
3409.190, 140.8680
3411.118, 139.5672
3413.047, 139.0853
3414.975, 139.9000
3416.904, 144.6703
3418.832, 146.5250
3420.761, 142.2185
3422.689, 138.8618
3424.618, 137.5679
3426.546, 137.1570
3428.475, 137.6225
3430.403, 139.9932
3432.332, 142.5046
3434.260, 142.6065
3436.188, 141.9961
3438.117, 141.4509
3440.045, 141.1124
3441.974, 140.9815
3443.902, 141.7075
3445.831, 143.0937
3447.759, 140.6854
3449.688, 136.7947
3451.616, 136.6090
3453.545, 138.3731
3455.473, 142.0988
3457.402, 143.8126
3459.330, 139.6120
3461.259, 138.3323
3463.187, 140.6562
3465.115, 141.4578
3467.044, 140.8296
3468.972, 139.2850
3470.901, 138.0706
3472.829, 138.7219
3474.758, 139.9919
3476.686, 142.1389
3478.615, 142.2947
3480.543, 139.6920
3482.472, 138.3439
3484.400, 138.3933
3486.329, 140.3313
3488.257, 142.1939
3490.186, 140.3377
3492.114, 138.3641
3494.042, 138.6937
3495.971, 138.9306
3497.899, 138.2778
3499.828, 138.2895
3501.756, 138.8926
3503.685, 138.4917
3505.613, 138.3826
3507.542, 142.5463
3509.470, 145.4180
3511.399, 142.6367
3513.327, 140.2278
3515.256, 139.8268
3517.184, 141.2719
3519.113, 144.1180
3521.041, 145.1597
3522.969, 144.6634
3524.898, 141.4281
3526.826, 139.5984
3528.755, 143.7823
3530.683, 146.0637
3532.612, 144.2343
3534.540, 145.0252
3536.469, 148.1518
3538.397, 145.6762
3540.326, 141.5153
3542.254, 143.2778
3544.183, 145.1078
3546.111, 142.5712
3548.040, 140.5935
3549.968, 139.8875
3551.896, 141.1973
3553.825, 143.8794
3555.753, 143.8538
3557.682, 142.8487
3559.610, 143.2238
3561.539, 143.4045
3563.467, 142.0254
3565.396, 142.6099
3567.324, 146.3917
3569.253, 146.2553
3571.181, 143.6048
3573.110, 144.5630
3575.038, 146.1578
3576.967, 144.9984
3578.895, 144.1970
3580.823, 145.2042
3582.752, 144.6098
3584.680, 142.0276
3586.609, 140.6042
3588.537, 140.1994
3590.466, 140.7724
3592.394, 141.6225
3594.323, 142.4568
3596.251, 142.8447
3598.180, 141.7915
3600.108, 144.2121
3602.037, 148.5550
3603.965, 145.7189
3605.894, 141.5999
3607.822, 145.1501
3609.750, 148.7361
3611.679, 149.3335
3613.607, 148.4645
3615.536, 146.3743
3617.464, 146.1823
3619.393, 146.8576
3621.321, 145.3474
3623.250, 144.4089
3625.178, 147.0481
3627.107, 147.5728
3629.035, 143.7473
3630.964, 143.3732
3632.892, 145.6402
3634.821, 145.2148
3636.749, 144.2972
3638.677, 145.9601
3640.606, 146.9419
3642.534, 145.1431
3644.463, 144.0787
3646.391, 143.8107
3648.320, 143.5034
3650.248, 143.2853
3652.177, 143.0944
3654.105, 143.7653
3656.034, 146.6770
3657.962, 148.5931
3659.891, 149.1984
3661.819, 148.8780
3663.748, 147.7753
3665.676, 144.8892
3667.604, 143.0853
3669.533, 145.6651
3671.461, 147.1369
3673.390, 146.4763
3675.318, 145.6849
3677.247, 145.2927
3679.175, 148.3037
3681.104, 150.1994
3683.032, 144.9189
3684.961, 141.7600
3686.889, 143.4556
3688.818, 145.4344
3690.746, 147.4104
3692.675, 150.4681
3694.603, 152.4595
3696.531, 150.1579
3698.460, 148.1271
3700.388, 148.2124
3702.317, 147.2666
3704.245, 145.4361
3706.174, 146.1040
3708.102, 146.9596
3710.031, 144.0677
3711.959, 142.2268
3713.888, 143.9895
3715.816, 144.9788
3717.745, 145.0093
3719.673, 144.8253
3721.602, 144.9561
3723.530, 146.8488
3725.458, 147.8045
3727.387, 145.6594
3729.315, 145.8866
3731.244, 148.2084
3733.172, 147.0811
3735.101, 145.0902
3737.029, 146.0777
3738.958, 147.2391
3740.886, 147.1167
3742.815, 148.2412
3744.743, 150.3105
3746.672, 149.4732
3748.600, 148.3383
3750.529, 151.1613
3752.457, 153.0365
3754.385, 151.9329
3756.314, 148.5691
3758.242, 144.0833
3760.171, 144.6575
3762.099, 147.5509
3764.028, 151.5233
3765.956, 151.9892
3767.885, 145.3383
3769.813, 143.7678
3771.742, 146.2987
3773.670, 146.6602
3775.599, 147.0215
3777.527, 150.4429
3779.456, 151.1680
3781.384, 146.5533
3783.313, 146.7267
3785.241, 150.0070
3787.169, 151.5266
3789.098, 151.5552
3791.026, 149.9123
3792.955, 148.4583
3794.883, 147.5353
3796.812, 147.1776
3798.740, 147.2305
3800.669, 147.4757
3802.597, 147.7957
3804.526, 148.2483
3806.454, 148.0366
3808.383, 147.1931
3810.311, 148.7812
3812.240, 150.8213
3814.168, 150.1738
3816.096, 149.9456
3818.025, 151.5256
3819.953, 151.2842
3821.882, 149.5965
3823.810, 149.9453
3825.739, 150.0996
3827.667, 146.7381
3829.596, 145.4616
3831.524, 147.7109
3833.453, 149.6438
3835.381, 150.3744
3837.310, 146.1776
3839.238, 143.8903
3841.167, 148.2811
3843.095, 151.0064
3845.023, 151.1354
3846.952, 151.3668
3848.880, 151.0741
3850.809, 148.4303
3852.737, 147.8989
3854.666, 151.0295
3856.594, 150.3669
3858.523, 147.2517
3860.451, 147.3231
3862.380, 148.7923
3864.308, 151.6600
3866.237, 151.8448
3868.165, 149.4017
3870.094, 152.4681
3872.022, 156.4127
3873.950, 152.7931
3875.879, 150.4243
3877.807, 153.6007
3879.736, 154.0256
3881.664, 152.6325
3883.593, 152.9402
3885.521, 154.0983
3887.450, 156.4845
3889.378, 155.0859
3891.307, 149.5844
3893.235, 151.9221
3895.164, 156.8464
3897.092, 157.1436
3899.021, 157.1164
3900.949, 157.9511
3902.877, 157.8008
3904.806, 156.7024
3906.734, 157.5585
3908.663, 159.0805
3910.591, 158.7901
3912.520, 158.4911
3914.448, 159.0562
3916.377, 159.8719
3918.305, 160.2803
3920.234, 157.1110
3922.162, 155.2340
3924.091, 157.4192
3926.019, 159.8044
3927.948, 161.6441
3929.876, 161.3330
3931.804, 161.6539
3933.733, 165.5701
3935.661, 164.6018
3937.590, 160.3854
3939.518, 160.8098
3941.447, 163.3962
3943.375, 164.2666
3945.304, 163.5054
3947.232, 162.4548
3949.161, 163.0167
3951.089, 165.0204
3953.018, 167.0291
3954.946, 167.0752
3956.875, 165.3478
3958.803, 165.9723
3960.731, 166.9194
3962.660, 165.6411
3964.588, 164.5721
3966.517, 164.9616
3968.445, 165.6361
3970.374, 165.2607
3972.302, 168.0006
3974.231, 170.6035
3976.159, 169.9091
3978.088, 169.9687
3980.016, 170.5250
3981.945, 171.1886
3983.873, 172.1086
3985.802, 172.6787
3987.730, 172.8952
3989.658, 172.7163
3991.587, 173.5358
3993.515, 174.2324
3995.444, 174.6112
3997.372, 172.8941
3999.301, 169.9304
4001.229, 172.1703
4003.158, 174.9885
4005.086, 175.0359
4007.015, 175.4894
4008.943, 176.4957
4010.872, 177.1034
4012.800, 177.1680
4014.729, 175.8748
4016.657, 175.2752
4018.585, 175.6320
4020.514, 175.9895
4022.442, 178.1543
4024.371, 180.5361
4026.299, 179.4049
4028.228, 176.3741
4030.156, 176.1126
4032.085, 176.4140
4034.013, 178.5983
4035.942, 182.2806
4037.870, 183.4952
4039.799, 183.3219
4041.727, 183.6942
4043.656, 184.4316
4045.584, 184.1541
4047.512, 182.7886
4049.441, 181.8734
4051.369, 182.5877
4053.298, 183.0111
4055.226, 183.3463
4057.155, 185.8134
4059.083, 187.1860
4061.012, 186.9848
4062.940, 186.7596
4064.869, 185.7946
4066.797, 184.3073
4068.726, 186.9092
4070.654, 190.0091
4072.583, 186.8498
4074.511, 185.4133
4076.439, 188.1850
4078.368, 187.6665
4080.296, 186.4784
4082.225, 189.4722
4084.153, 191.0147
4086.082, 187.8208
4088.010, 188.9100
4089.939, 191.2762
4091.867, 189.7895
4093.796, 190.3616
4095.724, 194.0569
4097.653, 195.6500
4099.581, 195.0737
4101.510, 191.5962
4103.438, 189.6414
4105.367, 191.0542
4107.295, 191.4980
4109.224, 191.1208
4111.152, 190.7632
4113.081, 191.9900
4115.009, 196.8717
4116.938, 197.3589
4118.866, 193.9514
4120.794, 195.8626
4122.723, 198.0683
4124.651, 196.0938
4126.580, 196.5941
4128.508, 199.4763
4130.437, 201.3823
4132.365, 201.7948
4134.293, 198.5791
4136.222, 199.4048
4138.150, 203.5629
4140.079, 204.5120
4142.007, 203.6444
4143.936, 201.6250
4145.864, 201.5344
4147.793, 203.0350
4149.721, 205.4101
4151.650, 207.1818
4153.578, 207.8633
4155.507, 205.6745
4157.435, 201.9669
4159.364, 205.7111
4161.292, 208.9200
4163.221, 205.3738
4165.149, 204.6086
4167.078, 207.6756
4169.006, 210.4028
4170.935, 211.8067
4172.863, 211.2940
4174.792, 211.4992
4176.720, 212.6824
4178.648, 216.2714
4180.577, 218.1043
4182.505, 214.5820
4184.434, 213.9466
4186.362, 215.6931
4188.291, 216.3967
4190.219, 216.1947
4192.147, 216.0641
4194.076, 215.3944
4196.004, 214.2671
4197.933, 214.2141
4199.861, 215.7279
4201.790, 219.8895
4203.718, 220.4597
4205.647, 219.4716
4207.575, 222.2237
4209.504, 222.9418
4211.432, 218.7509
4213.361, 219.2109
4215.289, 223.0560
4217.218, 227.2360
4219.146, 227.9157
4221.075, 224.3342
4223.003, 224.5114
4224.932, 226.9245
4226.860, 228.2197
4228.789, 229.3979
4230.717, 231.1121
4232.646, 232.3897
4234.574, 232.7953
4236.502, 231.4651
4238.431, 230.3537
4240.359, 230.0451
4242.288, 233.7849
4244.216, 235.4836
4246.145, 228.0136
4248.073, 228.4582
4250.001, 235.5802
4251.930, 234.5391
4253.858, 233.1690
4255.787, 236.4836
4257.715, 233.1206
4259.644, 226.7210
4261.572, 229.5511
4263.501, 235.0766
4265.429, 241.1704
4267.358, 240.3482
4269.286, 235.7860
4271.215, 230.3314
4273.143, 231.7032
4275.072, 240.4211
4277.000, 240.7722
4278.929, 239.0403
4280.857, 243.3187
4282.786, 243.1199
4284.714, 238.4454
4286.643, 236.1770
4288.571, 237.2137
4290.500, 242.8472
4292.428, 245.5285
4294.356, 245.6575
4296.285, 246.8523
4298.213, 245.7883
4300.142, 241.1323
4302.070, 243.4726
4303.999, 248.7321
4305.927, 251.4317
4307.855, 249.5289
4309.784, 243.8714
4311.712, 246.7144
4313.641, 250.7377
4315.569, 249.6029
4317.498, 246.7590
4319.426, 243.6067
4321.355, 243.3163
4323.283, 244.4397
4325.212, 246.4650
4327.140, 247.8125
4329.069, 247.8993
4330.997, 243.9645
4332.926, 244.5273
4334.854, 251.1861
4336.783, 255.4787
4338.711, 256.3780
4340.640, 250.4859
4342.568, 250.1948
4344.497, 254.2128
4346.425, 252.7515
4348.354, 250.3625
4350.282, 249.0003
4352.210, 249.2145
4354.139, 250.1370
4356.067, 249.9331
4357.996, 251.0001
4359.924, 253.6685
4361.853, 254.2541
4363.781, 254.4557
4365.709, 255.7705
4367.638, 257.2579
4369.566, 257.4683
4371.495, 249.9328
4373.423, 244.6989
4375.352, 245.0542
4377.280, 249.3617
4379.209, 254.4198
4381.137, 257.6053
4383.066, 257.3116
4384.994, 254.4828
4386.923, 253.8562
4388.851, 255.5815
4390.780, 260.1569
4392.708, 255.2790
4394.637, 247.9917
4396.565, 249.9998
4398.494, 253.7078
4400.422, 257.1051
4402.351, 257.1267
4404.279, 255.4430
4406.208, 252.5693
4408.136, 251.4949
4410.064, 252.1024
4411.993, 255.6891
4413.921, 254.3584
4415.850, 246.9216
4417.778, 254.4085
4419.707, 262.0096
4421.635, 256.0104
4423.563, 255.7766
4425.492, 258.4664
4427.420, 253.8181
4429.349, 250.5493
4431.277, 250.8735
4433.206, 254.9437
4435.134, 257.2918
4437.063, 253.3934
4438.991, 249.5419
4440.920, 247.8236
4442.848, 253.4551
4444.777, 257.2593
4446.705, 257.0266
4448.634, 252.9561
4450.562, 249.9191
4452.491, 253.1325
4454.419, 252.3832
4456.348, 250.2079
4458.276, 254.5978
4460.205, 257.0324
4462.133, 255.4518
4464.062, 253.5547
4465.990, 251.7852
4467.918, 250.0410
4469.847, 251.4683
4471.775, 255.0948
4473.704, 261.3939
4475.632, 260.0429
4477.561, 251.6317
4479.489, 252.9462
4481.417, 254.3127
4483.346, 250.2839
4485.274, 249.4946
4487.203, 251.4673
4489.131, 256.1153
4491.060, 258.8809
4492.988, 258.8121
4494.917, 252.8025
4496.845, 249.1463
4498.774, 251.7920
4500.702, 255.2598
4502.631, 256.6841
4504.559, 251.9919
4506.488, 252.5322
4508.416, 256.5952
4510.345, 257.8595
4512.273, 255.9587
4514.202, 251.7467
4516.130, 253.6961
4518.059, 256.3204
4519.987, 255.8711
4521.916, 252.4892
4523.844, 249.2494
4525.772, 252.6030
4527.701, 253.3738
4529.629, 251.2687
4531.558, 250.6167
4533.486, 252.6833
4535.415, 257.6762
4537.343, 254.2553
4539.271, 250.8713
4541.200, 255.6115
4543.128, 258.7232
4545.057, 259.3160
4546.985, 257.1501
4548.914, 253.4706
4550.842, 249.3382
4552.771, 252.3070
4554.699, 253.2067
4556.628, 247.5470
4558.556, 249.1178
4560.485, 251.5074
4562.413, 247.7129
4564.342, 249.0486
4566.270, 252.7107
4568.199, 248.8836
4570.127, 250.3721
4572.056, 257.6483
4573.984, 252.9531
4575.913, 249.9422
4577.841, 255.5910
4579.770, 256.7566
4581.698, 254.5384
4583.626, 248.9744
4585.555, 248.3237
4587.483, 250.6730
4589.412, 251.2938
4591.340, 252.9059
4593.269, 255.1994
4595.197, 253.8072
4597.125, 252.8817
4599.054, 254.0987
4600.982, 255.1868
4602.911, 254.8831
4604.839, 252.0954
4606.768, 250.0702
4608.696, 249.6321
4610.625, 252.8327
4612.553, 252.6989
4614.482, 250.3399
4616.410, 251.3664
4618.339, 252.2358
4620.267, 252.1150
4622.196, 252.4177
4624.124, 251.4122
4626.053, 248.4299
4627.981, 248.9326
4629.910, 249.9054
4631.838, 247.6862
4633.767, 249.2256
4635.695, 252.5571
4637.624, 254.6268
4639.552, 254.9646
4641.480, 253.6394
4643.409, 249.8391
4645.337, 247.8368
4647.266, 248.0885
4649.194, 246.2376
4651.123, 247.9100
4653.051, 257.0501
4654.979, 256.0965
4656.908, 251.7180
4658.836, 248.4553
4660.765, 248.9918
4662.693, 248.9895
4664.622, 240.2662
4666.550, 242.5431
4668.479, 251.1958
4670.407, 252.1655
4672.336, 250.0435
4674.264, 246.6855
4676.193, 246.3548
4678.121, 247.7885
4680.050, 250.0720
4681.978, 248.3237
4683.907, 246.8753
4685.835, 248.5264
4687.764, 241.9004
4689.692, 237.6444
4691.621, 245.6659
4693.549, 252.6267
4695.478, 256.2096
4697.406, 254.1690
4699.334, 248.9204
4701.263, 243.8596
4703.191, 245.5364
4705.120, 247.0938
4707.048, 247.2388
4708.977, 244.1667
4710.905, 244.1170
4712.833, 247.0806
4714.762, 244.2209
4716.690, 241.9222
4718.619, 242.7922
4720.547, 245.8746
4722.476, 245.7648
4724.404, 239.1408
4726.333, 241.6053
4728.261, 246.3732
4730.190, 247.8532
4732.118, 251.1364
4734.047, 252.3131
4735.975, 244.3109
4737.904, 241.6920
4739.832, 242.4277
4741.761, 241.5493
4743.689, 243.3816
4745.618, 245.9001
4747.546, 241.5820
4749.475, 243.0964
4751.403, 249.1598
4753.332, 245.7327
4755.260, 241.9621
4757.188, 240.3787
4759.117, 242.5995
4761.045, 245.1493
4762.974, 246.6799
4764.902, 244.4722
4766.831, 243.8719
4768.759, 246.7184
4770.688, 243.6027
4772.616, 241.4022
4774.544, 244.6310
4776.473, 243.2661
4778.401, 242.3756
4780.330, 246.2476
4782.258, 242.3446
4784.187, 239.9798
4786.115, 249.9048
4788.044, 248.5141
4789.972, 243.3039
4791.901, 244.8481
4793.829, 244.6045
4795.758, 243.5231
4797.686, 243.9723
4799.615, 244.4548
4801.543, 243.8747
4803.472, 239.0793
4805.400, 238.2535
4807.329, 240.5339
4809.257, 243.1812
4811.186, 243.2963
4813.114, 241.5086
4815.042, 239.3694
4816.971, 241.1554
4818.899, 245.0266
4820.828, 242.0198
4822.756, 238.7655
4824.685, 237.3441
4826.613, 240.6867
4828.542, 242.4226
4830.470, 241.4692
4832.398, 239.6840
4834.327, 240.1706
4836.255, 242.6012
4838.184, 241.4841
4840.112, 239.6780
4842.041, 238.4166
4843.969, 241.1700
4845.898, 243.1260
4847.826, 243.1673
4849.755, 244.4571
4851.683, 244.6994
4853.612, 243.1365
4855.540, 240.4417
4857.469, 240.3187
4859.397, 243.2614
4861.326, 242.3263
4863.254, 241.3449
4865.183, 241.9848
4867.111, 247.1762
4869.040, 248.7240
4870.968, 244.0527
4872.896, 237.8719
4874.825, 236.4916
4876.753, 241.8857
4878.682, 239.6182
4880.610, 239.5580
4882.539, 244.9966
4884.467, 243.2314
4886.396, 240.5688
4888.324, 239.7997
4890.252, 243.3542
4892.181, 244.6092
4894.109, 241.1782
4896.038, 240.2687
4897.966, 240.8726
4899.895, 242.1633
4901.823, 239.2107
4903.752, 237.8568
4905.680, 240.0726
4907.609, 242.1077
4909.537, 242.5035
4911.466, 241.0614
4913.394, 239.2864
4915.323, 238.3695
4917.251, 238.8413
4919.180, 243.5658
4921.108, 244.3696
4923.037, 239.7798
4924.965, 229.5428
4926.894, 229.3335
4928.822, 239.5335
4930.750, 240.9105
4932.679, 240.1337
4934.607, 239.5874
4936.536, 242.5525
4938.464, 242.1252
4940.393, 238.8620
4942.321, 238.5556
4944.250, 241.4732
4946.178, 244.7017
4948.106, 239.2556
4950.035, 238.8552
4951.963, 242.0683
4953.892, 242.3711
4955.820, 240.5897
4957.749, 239.0293
4959.677, 242.5692
4961.606, 236.1291
4963.534, 228.6601
4965.463, 236.8624
4967.391, 241.3429
4969.320, 241.9431
4971.248, 239.5093
4973.177, 237.4090
4975.105, 236.5674
4977.034, 237.6691
4978.962, 240.1810
4980.891, 240.5847
4982.819, 236.3042
4984.748, 232.3257
4986.676, 233.4761
4988.604, 241.4052
4990.533, 240.9010
4992.461, 240.7828
4994.390, 244.8111
4996.318, 241.3658
4998.247, 238.4148
5000.175, 238.2283
5002.104, 239.8314
5004.032, 239.8561
5005.960, 238.3410
5007.889, 238.9242
5009.817, 239.2531
5011.746, 238.9369
5013.674, 237.9018
5015.603, 237.5246
5017.531, 238.3255
5019.460, 242.1754
5021.388, 240.6501
5023.317, 237.4627
5025.245, 237.4926
5027.174, 238.9088
5029.102, 239.4050
5031.031, 236.9921
5032.959, 238.8251
5034.888, 238.8440
5036.816, 233.3814
5038.745, 233.8971
5040.673, 234.4390
5042.602, 233.1791
5044.530, 232.8951
5046.458, 236.1808
5048.387, 241.9745
5050.315, 243.7492
5052.244, 242.3898
5054.172, 239.4206
5056.101, 237.1714
5058.029, 236.1006
5059.958, 237.0773
5061.886, 244.1075
5063.814, 237.8561
5065.743, 232.1062
5067.671, 239.6154
5069.600, 237.8982
5071.528, 235.3186
5073.457, 237.3304
5075.385, 235.1073
5077.314, 231.2391
5079.242, 227.6966
5081.171, 230.7642
5083.099, 232.2586
5085.028, 232.9462
5086.956, 241.9388
5088.885, 245.0121
5090.813, 243.1802
5092.742, 241.1977
5094.670, 235.5893
5096.599, 232.1439
5098.527, 236.4106
5100.456, 237.5810
5102.384, 236.6588
5104.313, 234.6323
5106.241, 236.1759
5108.169, 235.6667
5110.098, 232.9188
5112.026, 238.3577
5113.955, 237.5328
5115.883, 233.3934
5117.812, 239.2491
5119.740, 243.1609
5121.668, 243.4159
5123.597, 239.1990
5125.525, 235.6233
5127.454, 235.8038
5129.382, 240.9795
5131.311, 240.8967
5133.239, 241.6885
5135.168, 244.7668
5137.096, 242.0866
5139.025, 238.5857
5140.953, 236.0921
5142.882, 236.0938
5144.810, 237.3841
5146.739, 237.6317
5148.667, 233.0748
5150.596, 233.4595
5152.524, 236.1364
5154.453, 239.1500
5156.381, 235.9858
5158.310, 237.2852
5160.238, 242.8578
5162.167, 237.2152
5164.095, 235.8286
5166.023, 238.6020
5167.952, 241.1830
5169.880, 239.8294
5171.809, 238.9541
5173.737, 242.2322
5175.666, 239.5063
5177.594, 238.9480
5179.522, 243.0969
5181.451, 238.9226
5183.379, 237.2381
5185.308, 238.7869
5187.236, 239.9235
5189.165, 238.1715
5191.093, 235.4738
5193.022, 234.0577
5194.950, 230.8998
5196.879, 231.4905
5198.807, 237.6942
5200.736, 237.9682
5202.664, 241.1612
5204.593, 245.7571
5206.521, 241.9927
5208.450, 242.0734
5210.378, 242.9228
5212.307, 239.5476
5214.235, 236.0040
5216.164, 234.4529
5218.092, 235.2175
5220.021, 232.2019
5221.949, 232.9155
5223.877, 235.5611
5225.806, 230.9573
5227.734, 235.4314
5229.663, 239.7953
5231.591, 234.0619
5233.520, 231.1149
5235.448, 236.2490
5237.376, 246.2299
5239.305, 234.5169
5241.233, 233.7796
5243.162, 240.8228
5245.090, 240.3183
5247.019, 237.9895
5248.947, 235.7886
5250.876, 234.8071
5252.804, 235.8897
5254.733, 236.1241
5256.661, 235.7418
5258.590, 238.1255
5260.518, 241.4437
5262.447, 242.7628
5264.375, 238.5898
5266.304, 237.1103
5268.232, 236.8122
5270.161, 237.0392
5272.089, 239.8559
5274.018, 238.5291
5275.946, 234.4246
5277.875, 231.3258
5279.803, 228.6897
5281.731, 229.7018
5283.660, 235.7044
5285.588, 234.0839
5287.517, 234.3466
5289.445, 236.9347
5291.374, 237.7390
5293.302, 235.3553
5295.230, 234.2770
5297.159, 238.6758
5299.087, 239.9056
5301.016, 238.0079
5302.944, 235.0379
5304.873, 237.4907
5306.801, 236.0257
5308.730, 232.4187
5310.658, 229.5883
5312.587, 229.4502
5314.515, 229.4554
5316.444, 229.4748
5318.372, 234.8301
5320.301, 234.4191
5322.229, 230.3165
5324.158, 226.6308
5326.086, 228.7343
5328.015, 231.5707
5329.943, 232.8830
5331.872, 232.5439
5333.800, 235.9057
5335.729, 237.4574
5337.657, 229.5246
5339.585, 232.5388
5341.514, 233.3414
5343.442, 228.4544
5345.371, 227.1233
5347.299, 226.6340
5349.228, 227.4226
5351.156, 231.2666
5353.084, 231.3245
5355.013, 229.7473
5356.941, 228.3975
5358.870, 231.4637
5360.798, 229.2756
5362.727, 227.9478
5364.655, 234.4718
5366.584, 232.7635
5368.512, 231.2037
5370.441, 231.7300
5372.369, 229.6228
5374.298, 228.9201
5376.226, 229.2730
5378.155, 229.9621
5380.083, 230.4876
5382.012, 230.5896
5383.940, 231.7969
5385.869, 240.3591
5387.797, 233.8958
5389.726, 228.9098
5391.654, 235.2627
5393.583, 233.9971
5395.511, 229.8713
5397.439, 227.0371
5399.368, 229.8180
5401.296, 230.2131
5403.225, 228.5596
5405.153, 226.4067
5407.082, 228.5513
5409.010, 229.2953
5410.938, 230.1250
5412.867, 233.5292
5414.795, 235.7409
5416.724, 237.0066
5418.652, 235.0442
5420.581, 223.0149
5422.509, 223.6984
5424.438, 225.6736
5426.366, 221.6816
5428.295, 228.2285
5430.223, 231.4931
5432.152, 230.5229
5434.080, 227.8290
5436.009, 226.6358
5437.937, 227.5702
5439.866, 229.3387
5441.794, 227.3527
5443.723, 228.7664
5445.651, 230.0547
5447.580, 228.2521
5449.508, 225.9979
5451.437, 227.4341
5453.365, 230.1696
5455.293, 229.0244
5457.222, 233.4148
5459.150, 230.5116
5461.079, 221.6267
5463.007, 227.4586
5464.936, 225.0049
5466.864, 222.9315
5468.792, 228.2963
5470.721, 229.2690
5472.649, 228.1281
5474.578, 226.8353
5476.506, 227.4416
5478.435, 223.3254
5480.363, 222.6673
5482.292, 226.3021
5484.220, 229.8291
5486.149, 228.2940
5488.077, 228.7126
5490.006, 233.2273
5491.934, 228.4691
5493.863, 224.6098
5495.791, 223.7250
5497.720, 226.2908
5499.648, 224.3800
5501.577, 222.4194
5503.505, 223.4923
5505.434, 230.4841
5507.362, 228.8646
5509.291, 225.8516
5511.219, 224.5726
5513.147, 224.3516
5515.076, 220.5962
5517.004, 219.9571
5518.933, 225.1551
5520.861, 226.2352
5522.790, 225.6011
5524.718, 225.2926
5526.646, 226.3154
5528.575, 221.3173
5530.503, 222.1224
5532.432, 225.7061
5534.360, 224.7658
5536.289, 223.0024
5538.217, 223.5839
5540.146, 225.6787
5542.074, 225.5463
5544.003, 224.8719
5545.931, 221.7269
5547.860, 218.0827
5549.788, 223.5742
5551.717, 227.5958
5553.645, 228.8796
5555.574, 227.6976
5557.502, 224.9676
5559.431, 218.0933
5561.359, 215.9176
5563.288, 224.1157
5565.216, 222.3194
5567.145, 218.9499
5569.073, 218.2937
5571.001, 223.0923
5572.930, 221.7529
5574.858, 219.8831
5576.787, 219.1918
5578.715, 219.7939
5580.644, 218.9160
5582.572, 221.0253
5584.500, 224.1311
5586.429, 222.5405
5588.357, 220.4320
5590.286, 219.1174
5592.214, 219.6041
5594.143, 225.2799
5596.071, 218.7241
5598.000, 218.6535
5599.928, 226.4112
5601.857, 221.4377
5603.785, 223.7920
5605.714, 226.1759
5607.642, 224.9551
5609.571, 224.7227
5611.499, 221.7402
5613.428, 219.6592
5615.356, 220.5842
5617.285, 225.0413
5619.213, 221.5812
5621.142, 218.1527
5623.070, 219.2877
5624.999, 217.7488
5626.927, 221.5111
5628.855, 222.8265
5630.784, 217.9035
5632.712, 219.2524
5634.641, 218.4525
5636.569, 216.6321
5638.498, 215.9023
5640.426, 218.3933
5642.354, 219.9315
5644.283, 220.9198
5646.211, 221.9512
5648.140, 221.4948
5650.068, 221.7873
5651.997, 221.7856
5653.925, 220.4457
5655.854, 216.3119
5657.782, 216.5258
5659.711, 218.6008
5661.639, 219.5355
5663.568, 217.5071
5665.496, 215.3522
5667.425, 214.1759
5669.353, 214.3927
5671.282, 216.5925
5673.210, 215.1682
5675.139, 217.0035
5677.067, 223.9743
5678.996, 219.8198
5680.924, 216.7318
5682.853, 217.9846
5684.781, 221.7171
5686.709, 216.6350
5688.638, 212.8605
5690.566, 213.5781
5692.495, 217.9217
5694.423, 221.2090
5696.352, 214.9615
5698.280, 212.6760
5700.208, 216.0481
5702.137, 212.2350
5704.065, 214.2924
5705.994, 216.8530
5707.922, 216.7804
5709.851, 212.1175
5711.779, 211.6968
5713.708, 213.6021
5715.636, 215.5859
5717.565, 215.5149
5719.493, 211.6989
5721.422, 212.7063
5723.350, 215.8679
5725.279, 215.2825
5727.207, 216.2116
5729.136, 212.3995
5731.064, 209.7530
5732.993, 214.0120
5734.921, 219.1401
5736.850, 213.4758
5738.778, 209.4782
5740.707, 214.9628
5742.635, 217.2249
5744.563, 214.3734
5746.492, 209.8860
5748.420, 207.0458
5750.349, 210.5764
5752.277, 213.9221
5754.206, 216.0621
5756.134, 215.8895
5758.063, 211.2696
5759.991, 216.1881
5761.919, 218.6108
5763.848, 215.3738
5765.776, 208.5282
5767.705, 209.4769
5769.633, 212.1009
5771.562, 211.5396
5773.490, 206.6259
5775.419, 208.6905
5777.347, 210.1692
5779.276, 210.0481
5781.204, 208.9076
5783.133, 207.8200
5785.061, 210.2766
5786.990, 213.8501
5788.918, 214.8450
5790.847, 206.7774
5792.775, 209.7599
5794.704, 207.4210
5796.632, 204.5794
5798.561, 211.3346
5800.489, 205.2277
5802.417, 210.8546
5804.346, 214.9824
5806.274, 208.6522
5808.203, 210.4341
5810.131, 209.1645
5812.060, 209.0373
5813.988, 210.0890
5815.917, 206.9818
5817.845, 208.2410
5819.773, 207.6020
5821.702, 206.5529
5823.630, 208.6743
5825.559, 206.6573
5827.487, 206.9500
5829.416, 209.6157
5831.344, 211.9179
5833.273, 203.5132
5835.201, 209.9446
5837.130, 210.5647
5839.058, 204.6062
5840.987, 206.2238
5842.915, 206.0231
5844.844, 202.7561
5846.772, 202.6701
5848.701, 209.3462
5850.629, 211.9677
5852.558, 211.3601
5854.486, 207.9326
5856.415, 203.5220
5858.343, 201.2211
5860.271, 202.5087
5862.200, 205.1144
5864.128, 205.5281
5866.057, 202.5894
5867.985, 209.0356
5869.914, 208.0811
5871.842, 206.8058
5873.771, 208.5963
5875.699, 209.0197
5877.627, 205.0168
5879.556, 205.6992
5881.484, 208.7409
5883.413, 208.8456
5885.341, 208.7449
5887.270, 205.8721
5889.198, 201.7903
5891.127, 199.7057
5893.055, 204.7701
5894.984, 206.4241
5896.912, 205.5779
5898.841, 203.4327
5900.769, 201.7201
5902.698, 206.7607
5904.626, 204.6824
5906.555, 204.5949
5908.483, 206.6606
5910.412, 202.3058
5912.340, 199.6484
5914.269, 200.6317
5916.197, 201.2409
5918.125, 198.9493
5920.054, 195.8697
5921.982, 202.5550
5923.911, 206.3788
5925.839, 203.9617
5927.768, 198.7510
5929.696, 198.8001
5931.625, 201.1535
5933.553, 201.6121
5935.481, 199.2996
5937.410, 195.9816
5939.338, 204.2571
5941.267, 202.1515
5943.195, 197.2917
5945.124, 199.2540
5947.052, 192.7554
5948.981, 196.2364
5950.909, 203.0400
5952.838, 204.8120
5954.766, 195.0659
5956.695, 192.0253
5958.623, 199.8437
5960.552, 203.7995
5962.480, 195.9212
5964.409, 201.3231
5966.337, 204.2660
5968.266, 204.8817
5970.194, 196.2007
5972.123, 199.5245
5974.051, 198.0374
5975.979, 196.3530
5977.908, 201.3665
5979.836, 194.0377
5981.765, 198.9449
5983.693, 198.9678
5985.622, 201.2261
5987.550, 198.6438
5989.479, 197.5564
5991.407, 201.3115
5993.335, 202.3854
5995.264, 199.2457
5997.192, 201.6462
5999.121, 191.9093
6001.049, 193.4909
6002.978, 196.0591
6004.906, 198.9182
6006.835, 195.1041
6008.763, 187.5390
6010.692, 189.9603
6012.620, 195.0833
6014.549, 196.5016
6016.477, 193.8452
6018.406, 190.0651
6020.334, 191.2850
6022.263, 196.2704
6024.191, 190.5410
6026.120, 187.2613
6028.048, 193.3440
6029.977, 190.1296
6031.905, 190.6712
6033.833, 188.8019
6035.762, 187.2473
6037.690, 189.0110
6039.619, 192.3122
6041.547, 193.6910
6043.476, 191.9554
6045.404, 192.0725
6047.333, 195.2022
6049.261, 187.7024
6051.189, 190.8831
6053.118, 192.0654
6055.046, 190.4996
6056.975, 189.5195
6058.903, 191.1672
6060.832, 186.7358
6062.760, 186.8209
6064.689, 191.3774
6066.617, 195.0258
6068.546, 187.6074
6070.474, 187.3029
6072.403, 186.0983
6074.331, 185.3488
6076.260, 186.7670
6078.188, 186.6634
6080.117, 189.1717
6082.045, 183.2498
6083.974, 181.4140
6085.902, 186.6887
6087.831, 180.7674
6089.759, 180.0205
6091.688, 183.5595
6093.616, 185.0367
6095.544, 182.5848
6097.473, 179.4590
6099.401, 182.7944
6101.330, 180.9267
6103.258, 179.3766
6105.187, 181.0833
6107.115, 183.8962
6109.043, 180.4055
6110.972, 180.7213
6112.900, 181.9867
6114.829, 182.1502
6116.757, 181.1238
6118.686, 179.2690
6120.614, 177.3997
6122.543, 178.4723
6124.471, 181.5259
6126.400, 183.6080
6128.328, 180.6574
6130.257, 177.0228
6132.185, 176.8554
6134.114, 179.8530
6136.042, 182.7914
6137.971, 180.8511
6139.899, 175.3860
6141.828, 179.1127
6143.756, 180.9139
6145.685, 179.8558
6147.613, 183.7167
6149.542, 173.8728
6151.470, 177.9377
6153.398, 180.7612
6155.327, 178.1713
6157.255, 175.2177
6159.184, 179.6087
6161.112, 176.5811
6163.041, 179.0430
6164.969, 179.8627
6166.897, 176.4053
6168.826, 178.3812
6170.754, 170.3384
6172.683, 171.3980
6174.611, 177.6379
6176.540, 181.6836
6178.468, 179.4294
6180.397, 175.1243
6182.325, 169.7684
6184.254, 170.4502
6186.182, 174.5344
6188.111, 176.7962
6190.039, 173.0802
6191.968, 178.5819
6193.896, 172.2231
6195.825, 171.7378
6197.753, 177.1744
6199.682, 176.3916
6201.610, 174.9280
6203.539, 173.7444
6205.467, 172.3131
6207.396, 172.0843
6209.324, 172.9974
6211.252, 172.6028
6213.181, 169.9498
6215.109, 167.5098
6217.038, 169.3338
6218.966, 170.1970
6220.895, 165.6647
6222.823, 166.2145
6224.751, 168.1119
6226.680, 165.0264
6228.608, 169.9904
6230.537, 177.5100
6232.465, 169.6580
6234.394, 171.4575
6236.322, 165.3581
6238.251, 169.2393
6240.179, 172.2522
6242.108, 167.6349
6244.036, 168.4051
6245.965, 175.8912
6247.893, 165.6860
6249.822, 164.6225
6251.750, 169.2133
6253.679, 168.6128
6255.607, 174.2073
6257.536, 172.3291
6259.464, 171.9759
6261.393, 174.8592
6263.321, 174.5485
6265.250, 166.4520
6267.178, 159.1340
6269.106, 163.5265
6271.035, 163.9060
6272.963, 162.6669
6274.892, 165.7223
6276.820, 172.5070
6278.749, 166.8094
6280.677, 170.0593
6282.605, 166.7252
6284.534, 164.3238
6286.462, 165.4344
6288.391, 164.1729
6290.319, 165.4267
6292.248, 164.0626
6294.176, 169.5428
6296.105, 169.7395
6298.033, 164.2504
6299.962, 165.3555
6301.890, 168.0548
6303.819, 165.4078
6305.747, 162.3679
6307.676, 162.4365
6309.604, 164.1207
6311.533, 164.0297
6313.461, 168.2978
6315.390, 158.9373
6317.318, 160.9070
6319.247, 163.9803
6321.175, 163.3237
6323.104, 165.1323
6325.032, 165.5277
6326.960, 160.7785
6328.889, 160.1715
6330.817, 165.4392
6332.746, 165.4983
6334.674, 156.3643
6336.603, 166.1157
6338.531, 167.7466
6340.459, 163.5611
6342.388, 161.2391
6344.316, 159.5807
6346.245, 156.1394
6348.173, 155.4306
6350.102, 155.4802
6352.030, 158.2108
6353.959, 154.6146
6355.887, 155.2602
6357.816, 162.2982
6359.744, 159.3623
6361.673, 162.7167
6363.601, 159.1760
6365.530, 157.0226
6367.458, 156.8775
6369.387, 156.4725
6371.315, 155.6730
6373.244, 162.3004
6375.172, 157.3490
6377.101, 164.7001
6379.029, 160.6506
6380.958, 153.5074
6382.886, 157.6112
6384.814, 155.2422
6386.743, 158.5734
6388.671, 161.9394
6390.600, 156.7717
6392.528, 154.2848
6394.457, 158.5222
6396.385, 160.1870
6398.313, 154.4344
6400.242, 155.2262
6402.170, 155.0956
6404.099, 153.5973
6406.027, 153.1911
6407.956, 154.4981
6409.884, 154.3476
6411.813, 144.5930
6413.741, 144.9251
6415.670, 150.3667
6417.598, 154.7911
6419.527, 154.7811
6421.455, 150.8124
6423.384, 151.4871
6425.312, 154.1208
6427.241, 150.6800
6429.169, 148.2273
6431.098, 148.9527
6433.026, 150.8397
6434.955, 151.8946
6436.883, 152.4598
6438.812, 151.0803
6440.740, 154.4033
6442.668, 151.5801
6444.597, 148.1593
6446.525, 150.9386
6448.454, 154.0166
6450.382, 153.0293
6452.311, 151.1249
6454.239, 155.1456
6456.167, 150.9994
6458.096, 143.8880
6460.024, 144.9914
6461.953, 153.3769
6463.881, 148.0733
6465.810, 146.2693
6467.738, 146.7296
6469.667, 148.2755
6471.595, 146.5461
6473.524, 143.5702
6475.452, 149.3937
6477.381, 143.7039
6479.309, 148.1731
6481.238, 145.2621
6483.166, 142.8667
6485.095, 142.4240
6487.023, 141.9509
6488.952, 145.0656
6490.880, 150.5777
6492.809, 153.0520
6494.737, 152.4818
6496.666, 146.8897
6498.594, 144.0652
6500.522, 146.4517
6502.451, 146.9349
6504.379, 143.4277
6506.308, 140.9914
6508.236, 142.7901
6510.165, 141.6864
6512.093, 141.5869
6514.021, 141.9224
6515.950, 139.9550
6517.878, 144.9228
6519.807, 140.3022
6521.735, 139.4176
6523.664, 142.3311
6525.592, 143.7055
6527.521, 141.6041
6529.449, 140.4057
6531.378, 147.9433
6533.306, 147.8657
6535.235, 144.4553
6537.163, 141.4680
6539.092, 137.5577
6541.020, 134.4183
6542.949, 135.3523
6544.877, 140.7362
6546.806, 145.7486
6548.734, 138.4594
6550.663, 138.5283
6552.591, 139.5383
6554.520, 139.1430
6556.448, 140.6695
6558.376, 141.9016
6560.305, 135.8264
6562.233, 139.5001
6564.162, 144.0195
6566.090, 136.7905
6568.019, 139.2644
6569.947, 142.3239
6571.875, 140.0689
6573.804, 136.4140
6575.732, 132.3410
6577.661, 132.2579
6579.589, 140.1340
6581.518, 133.9284
6583.446, 136.9129
6585.375, 139.3695
6587.303, 135.7383
6589.232, 134.8774
6591.160, 141.6280
6593.089, 135.3316
6595.017, 136.8090
6596.946, 142.6559
6598.874, 140.5275
6600.803, 136.5525
6602.731, 135.8037
6604.660, 135.9274
6606.588, 134.9734
6608.517, 136.3509
6610.445, 144.9912
6612.374, 143.7381
6614.302, 133.6810
6616.230, 136.2155
6618.159, 142.5491
6620.087, 139.2522
6622.016, 135.1354
6623.944, 138.3768
6625.873, 133.7077
6627.801, 133.7289
6629.729, 132.6950
##END=



