##NAMES=Agardite-(Y)
##RRUFFID=R060924
##IDEAL CHEMISTRY=YCu^2+^_6_(AsO_4_)_3_(OH)_6_·3H_2_O
##LOCALITY=Bou Skour mine, Djebel Sarhro, Morocco
##OWNER=RRUFF
##SOURCE=Bob Jenkins
##DESCRIPTION=Light bluish-green flexible fibers
##STATUS=The identification of this mineral has been confirmed by X-ray diffraction and chemical analysis
##URL=https://www.rruff.net/odr/rruff_sample/R060924
##MEASURED CHEMISTRY=(Cu_5.81_Ca_0.11_Fe_0.02_)(Y_0.51_Nd_0.05_Gd_0.04_La_0.03_Sm_0.02_Pr_0.01_Ca_0.34_)[(AsO_4_)_0.85_(PO_4_)_0.03_(SiO_4_)_0.01_]_3_(OH)_6_·4.04H_2_O
##DIFFRACTION SAMPLE DESCRIPTION=Powder, using Mo radiation
##CELL PARAMETERS=a: 13.547 b: 13.547 c: 5.92 alpha: 90 beta: 90 gamma: 120 volume: 940.9 crystal system: hexagonal
##FILETYPE=Raman Processed
##RAMAN WAVELENGTH=532

104.8142, 536.3350
106.7427, 583.8557
108.6711, 621.8187
110.5996, 647.2701
112.5281, 664.1439
114.4565, 670.3382
116.3850, 660.5771
118.3135, 646.0234
120.2419, 630.5988
122.1704, 612.5140
124.0989, 598.7596
126.0273, 590.3053
127.9558, 587.1262
129.8843, 587.4858
131.8127, 593.5250
133.7412, 601.4820
135.6697, 608.1673
137.5981, 612.2501
139.5266, 615.5048
141.4551, 617.1710
143.3835, 616.8865
145.3120, 619.2542
147.2405, 626.4670
149.1689, 636.8672
151.0974, 648.3865
153.0259, 661.5895
154.9543, 675.6408
156.8828, 690.3398
158.8113, 705.5280
160.7397, 721.6672
162.6682, 738.5753
164.5967, 756.2159
166.5251, 775.0482
168.4536, 797.5901
170.3821, 818.7245
172.3105, 836.1537
174.2390, 848.7908
176.1675, 859.2183
178.0959, 867.4821
180.0244, 873.6512
181.9529, 879.5245
183.8813, 887.1442
185.8098, 893.0018
187.7383, 895.0126
189.6667, 891.7305
191.5952, 885.8771
193.5237, 877.0297
195.4521, 865.5685
197.3806, 852.7871
199.3091, 837.0261
201.2375, 820.9709
203.1660, 806.8399
205.0945, 794.4310
207.0229, 783.9529
208.9514, 775.6761
210.8799, 769.3598
212.8083, 764.6491
214.7368, 760.9894
216.6653, 758.9091
218.5938, 759.1991
220.5222, 762.1765
222.4507, 766.5823
224.3792, 772.7136
226.3076, 781.8347
228.2361, 787.6395
230.1646, 791.5624
232.0930, 791.5997
234.0215, 786.1395
235.9500, 772.1689
237.8784, 756.9111
239.8069, 741.9512
241.7354, 726.8796
243.6638, 714.8395
245.5923, 707.2648
247.5208, 702.4610
249.4492, 698.3270
251.3777, 694.5383
253.3062, 691.9033
255.2346, 691.1947
257.1631, 692.5892
259.0916, 693.5680
261.0200, 693.6519
262.9485, 693.2585
264.8770, 692.8383
266.8054, 692.0309
268.7339, 691.5533
270.6624, 691.7120
272.5908, 692.4297
274.5193, 693.1812
276.4478, 693.6974
278.3762, 694.1930
280.3047, 694.9999
282.2332, 697.1868
284.1616, 698.4282
286.0901, 697.9417
288.0186, 695.9211
289.9470, 693.0720
291.8755, 688.2048
293.8040, 683.1634
295.7324, 680.0791
297.6609, 678.7859
299.5894, 679.2226
301.5178, 681.4924
303.4463, 685.5370
305.3748, 690.7423
307.3032, 697.1395
309.2317, 704.4846
311.1602, 712.4182
313.0886, 720.5240
315.0171, 730.0785
316.9456, 742.5292
318.8740, 757.7523
320.8025, 769.9144
322.7310, 782.1054
324.6594, 789.2565
326.5879, 787.8284
328.5164, 776.1578
330.4448, 761.5448
332.3733, 743.9691
334.3018, 724.4110
336.2302, 707.9084
338.1587, 695.0061
340.0872, 684.5447
342.0156, 676.1237
343.9441, 670.4436
345.8726, 664.8779
347.8010, 658.6517
349.7295, 652.4238
351.6580, 647.5320
353.5864, 644.0750
355.5149, 641.6650
357.4434, 639.7712
359.3718, 637.9435
361.3003, 637.9873
363.2288, 640.6658
365.1572, 644.7145
367.0857, 648.4897
369.0142, 651.4871
370.9426, 655.2894
372.8711, 660.2792
374.7996, 666.5657
376.7280, 673.7075
378.6565, 681.5655
380.5850, 690.4046
382.5134, 700.5960
384.4419, 712.8140
386.3704, 724.4372
388.2988, 734.9498
390.2273, 744.4727
392.1558, 753.8001
394.0842, 764.9695
396.0127, 773.8411
397.9412, 778.7004
399.8696, 779.2273
401.7981, 777.0970
403.7266, 771.0887
405.6550, 763.1063
407.5835, 755.7277
409.5120, 747.6107
411.4404, 742.3016
413.3689, 740.5761
415.2974, 742.2458
417.2258, 748.2472
419.1543, 760.8527
421.0828, 775.8046
423.0112, 790.9854
424.9397, 807.4172
426.8682, 820.6234
428.7966, 830.6720
430.7251, 837.1445
432.6536, 837.1527
434.5820, 825.7377
436.5105, 813.2297
438.4390, 801.8741
440.3674, 791.4271
442.2959, 785.5358
444.2244, 784.6396
446.1528, 788.4567
448.0813, 797.5709
450.0098, 812.3738
451.9382, 831.2352
453.8667, 854.4767
455.7952, 881.6973
457.7236, 912.6059
459.6521, 950.3645
461.5806, 989.6846
463.5090, 1028.578
465.4375, 1066.706
467.3660, 1107.215
469.2944, 1151.298
471.2229, 1197.979
473.1514, 1247.229
475.0798, 1312.709
477.0083, 1360.469
478.9368, 1388.238
480.8652, 1391.639
482.7937, 1366.243
484.7222, 1295.025
486.6506, 1211.352
488.5791, 1130.551
490.5076, 1049.884
492.4360, 981.7457
494.3645, 928.3039
496.2930, 886.6057
498.2214, 852.7945
500.1499, 827.5923
502.0784, 807.7237
504.0068, 793.0760
505.9353, 782.9796
507.8638, 773.4929
509.7922, 764.6320
511.7207, 756.0657
513.6492, 747.0609
515.5776, 737.5729
517.5061, 730.4838
519.4346, 727.0762
521.3630, 726.1353
523.2915, 726.9349
525.2200, 730.8790
527.1484, 734.8256
529.0769, 739.3898
531.0054, 743.6195
532.9338, 745.7355
534.8623, 745.6610
536.7908, 742.9136
538.7192, 736.6304
540.6477, 726.0882
542.5762, 716.3225
544.5046, 707.5380
546.4331, 699.5040
548.3616, 691.8421
550.2900, 684.3533
552.2185, 678.3098
554.1470, 674.6512
556.0754, 672.3200
558.0039, 669.3608
559.9324, 665.6973
561.8608, 661.6257
563.7893, 656.7836
565.7178, 651.3551
567.6462, 646.3907
569.5747, 641.6839
571.5032, 637.5405
573.4316, 634.4195
575.3601, 632.5215
577.2886, 630.0844
579.2170, 626.4898
581.1455, 622.7977
583.0740, 619.8058
585.0024, 617.7108
586.9309, 616.2984
588.8594, 615.7040
590.7878, 615.7566
592.7163, 616.0456
594.6448, 616.4880
596.5732, 617.0916
598.5017, 617.9798
600.4302, 619.0230
602.3586, 619.3840
604.2871, 618.1287
606.2156, 616.9589
608.1440, 616.7149
610.0725, 617.4230
612.0010, 618.1777
613.9294, 619.0153
615.8579, 619.9496
617.7864, 621.0130
619.7148, 622.3941
621.6433, 623.6935
623.5718, 624.7696
625.5002, 625.7605
627.4287, 626.7379
629.3572, 627.3795
631.2856, 628.5259
633.2141, 630.9094
635.1426, 633.9755
637.0710, 635.9230
638.9995, 635.8318
640.9280, 635.6270
642.8564, 636.0618
644.7849, 636.9708
646.7134, 637.2600
648.6418, 636.0975
650.5703, 635.2022
652.4988, 635.5109
654.4272, 637.5299
656.3557, 639.1117
658.2842, 639.9608
660.2126, 640.6071
662.1411, 641.5094
664.0696, 642.7247
665.9980, 643.9000
667.9265, 644.4590
669.8550, 645.2077
671.7834, 647.0384
673.7119, 651.3640
675.6404, 655.1293
677.5688, 657.8224
679.4973, 659.8121
681.4258, 661.8485
683.3542, 663.8506
685.2827, 665.8552
687.2112, 668.0134
689.1396, 670.2267
691.0681, 671.9090
692.9966, 673.2076
694.9250, 673.9952
696.8535, 674.0770
698.7820, 673.6226
700.7104, 673.2469
702.6389, 673.3958
704.5674, 673.2102
706.4958, 672.1059
708.4243, 669.6926
710.3528, 667.7991
712.2813, 666.8084
714.2097, 665.8864
716.1382, 664.0195
718.0667, 661.1028
719.9951, 659.6560
721.9236, 662.4171
723.8521, 665.5582
725.7805, 666.2620
727.7090, 662.0936
729.6375, 659.4385
731.5659, 659.0216
733.4944, 659.8279
735.4229, 660.6231
737.3513, 661.2322
739.2798, 662.4504
741.2083, 664.9561
743.1367, 667.9872
745.0652, 670.4880
746.9937, 671.2991
748.9221, 672.8403
750.8506, 675.3252
752.7791, 678.6765
754.7075, 682.7658
756.6360, 688.1035
758.5645, 693.1328
760.4929, 696.7983
762.4214, 699.8107
764.3499, 704.3882
766.2783, 712.2387
768.2068, 719.7401
770.1353, 725.8832
772.0637, 730.8939
773.9922, 736.0179
775.9207, 741.7083
777.8491, 746.4575
779.7776, 749.7390
781.7061, 751.6358
783.6345, 752.6907
785.5630, 752.0679
787.4915, 751.7277
789.4199, 752.0353
791.3484, 753.1941
793.2769, 755.6119
795.2053, 758.8609
797.1338, 764.1046
799.0623, 771.8619
800.9907, 782.0868
802.9192, 793.2448
804.8477, 803.2498
806.7761, 816.1642
808.7046, 834.1360
810.6331, 857.2537
812.5615, 882.1373
814.4900, 908.9525
816.4185, 937.5765
818.3469, 968.4322
820.2754, 1001.620
822.2039, 1033.595
824.1323, 1067.656
826.0608, 1096.965
827.9893, 1119.150
829.9177, 1133.344
831.8462, 1139.100
833.7747, 1131.650
835.7031, 1120.679
837.6316, 1108.290
839.5601, 1094.891
841.4885, 1089.423
843.4170, 1092.386
845.3455, 1104.113
847.2739, 1124.923
849.2024, 1155.475
851.1309, 1195.491
853.0593, 1248.088
854.9878, 1306.701
856.9163, 1371.641
858.8447, 1441.446
860.7732, 1506.627
862.7017, 1571.155
864.6301, 1624.853
866.5586, 1670.003
868.4871, 1705.850
870.4155, 1705.400
872.3440, 1656.322
874.2725, 1587.786
876.2009, 1501.019
878.1294, 1401.508
880.0579, 1308.071
881.9863, 1218.630
883.9148, 1141.499
885.8433, 1080.085
887.7717, 1033.497
889.7002, 993.9312
891.6287, 961.9670
893.5571, 935.4852
895.4856, 915.5223
897.4141, 901.0527
899.3425, 888.6252
901.2710, 878.7705
903.1995, 870.0346
905.1279, 861.9880
907.0564, 854.6326
908.9849, 847.9691
910.9133, 841.9160
912.8418, 836.5617
914.7703, 832.3763
916.6987, 828.6915
918.6272, 824.1661
920.5557, 818.5665
922.4841, 812.8271
924.4126, 806.7979
926.3411, 801.0668
928.2695, 796.4491
930.1980, 793.2963
932.1265, 790.7523
934.0549, 789.0141
935.9834, 787.6339
937.9119, 785.9617
939.8403, 783.6151
941.7688, 782.1402
943.6973, 782.5992
945.6257, 783.2819
947.5542, 782.7741
949.4827, 780.9357
951.4111, 779.3946
953.3396, 778.6973
955.2681, 778.1390
957.1965, 777.2657
959.1250, 775.9553
961.0535, 775.2121
962.9819, 775.0471
964.9104, 775.3829
966.8389, 776.4826
968.7673, 778.1252
970.6958, 779.3741
972.6243, 779.9218
974.5527, 780.4008
976.4812, 780.8878
978.4097, 781.4831
980.3381, 782.6334
982.2666, 785.0248
984.1951, 787.2521
986.1235, 789.2682
988.0520, 790.9852
989.9805, 792.2992
991.9089, 793.3952
993.8374, 793.5712
995.7659, 791.9420
997.6943, 789.5722
999.6228, 787.6959
1001.551, 786.6622
1003.480, 784.6751
1005.408, 780.6554
1007.337, 776.3361
1009.265, 773.0063
1011.194, 770.9613
1013.122, 768.8518
1015.051, 766.4246
1016.979, 764.3119
1018.907, 762.9851
1020.836, 762.3311
1022.764, 761.8745
1024.693, 761.5566
1026.621, 761.4758
1028.550, 761.6819
1030.478, 762.0577
1032.407, 762.3128
1034.335, 761.9662
1036.264, 761.8673
1038.192, 762.2881
1040.121, 762.8230
1042.049, 762.9459
1043.978, 762.6691
1045.906, 761.9802
1047.834, 760.0892
1049.763, 758.5366
1051.691, 758.8561
1053.620, 761.4001
1055.548, 762.6744
1057.477, 761.4577
1059.405, 760.0363
1061.334, 759.2668
1063.262, 759.1693
1065.191, 759.4092
1067.119, 760.1158
1069.048, 760.9114
1070.976, 761.7281
1072.905, 762.3903
1074.833, 762.5460
1076.761, 761.8425
1078.690, 761.4393
1080.618, 761.8965
1082.547, 762.5644
1084.475, 763.0206
1086.404, 763.4124
1088.332, 763.3995
1090.261, 762.6552
1092.189, 762.0804
1094.118, 762.2040
1096.046, 762.9935
1097.975, 763.8245
1099.903, 764.7790
1101.832, 765.5228
1103.760, 765.7674
1105.688, 765.7291
1107.617, 765.7208
1109.545, 765.6876
1111.474, 765.8783
1113.402, 766.1876
1115.331, 766.8372
1117.259, 768.1983
1119.188, 770.6072
1121.116, 772.0311
1123.045, 771.7288
1124.973, 771.1907
1126.902, 771.3710
1128.830, 771.9229
1130.759, 771.4225
1132.687, 769.2366
1134.615, 767.7054
1136.544, 768.1221
1138.472, 769.4789
1140.401, 770.6429
1142.329, 771.5007
1144.258, 772.4482
1146.186, 773.2890
1148.115, 774.2470
1150.043, 775.6808
1151.972, 777.5508
1153.900, 778.4515
1155.829, 777.8236
1157.757, 777.0371
1159.686, 776.2104
1161.614, 775.5948
1163.542, 775.5231
1165.471, 776.0402
1167.399, 777.0878
1169.328, 779.0461
1171.256, 781.2433
1173.185, 783.3885
1175.113, 785.5443
1177.042, 787.1627
1178.970, 787.6126
1180.899, 788.2327
1182.827, 789.1764
1184.756, 790.4543
1186.684, 792.2053
1188.613, 794.5110
1190.541, 796.6943
1192.469, 798.9512
1194.398, 800.7413
1196.326, 801.5908
1198.255, 801.6701
1200.183, 801.5793
1202.112, 801.2387
1204.040, 801.3685
1205.969, 802.5783
1207.897, 804.4387
1209.826, 805.9783
1211.754, 806.8514
1213.683, 807.9821
1215.611, 809.1841
1217.540, 810.6429
1219.468, 812.6982
1221.396, 815.3221
1223.325, 817.1456
1225.253, 817.7255
1227.182, 818.2164
1229.110, 818.9667
1231.039, 819.9242
1232.967, 821.0355
1234.896, 822.3799
1236.824, 823.6648
1238.753, 824.8559
1240.681, 826.0113
1242.610, 826.8404
1244.538, 827.4882
1246.467, 829.3060
1248.395, 833.1328
1250.323, 836.6567
1252.252, 839.2979
1254.180, 841.3640
1256.109, 843.1201
1258.037, 844.3906
1259.966, 845.7922
1261.894, 847.7753
1263.823, 849.4070
1265.751, 850.3760
1267.680, 850.7698
1269.608, 850.6736
1271.537, 849.9074
1273.465, 849.7839
1275.394, 850.9836
1277.322, 852.7410
1279.250, 854.6349
1281.179, 856.6566
1283.107, 858.6097
1285.036, 860.3712
1286.964, 862.0711
1288.893, 863.6285
1290.821, 865.0245
1292.750, 866.0912
1294.678, 866.2982
1296.607, 867.9058
1298.535, 873.2871
1300.464, 877.4166
1302.392, 877.3453
1304.321, 874.8253
1306.249, 874.1270
1308.177, 875.5663
1310.106, 877.1554
1312.034, 878.6668
1313.963, 879.9773
1315.891, 881.0856
1317.820, 881.9803
1319.748, 882.4644
1321.677, 882.3912
1323.605, 882.7032
1325.534, 884.0801
1327.462, 885.8470
1329.391, 887.3395
1331.319, 888.4258
1333.248, 890.0557
1335.176, 892.2203
1337.104, 894.5588
1339.033, 897.4715
1340.961, 900.0255
1342.890, 900.8364
1344.818, 899.2717
1346.747, 898.1135
1348.675, 898.0047
1350.604, 897.8966
1352.532, 897.1741
1354.461, 896.5052
1356.389, 897.3333
1358.318, 900.0548
1360.246, 902.0891
1362.175, 902.2799
1364.103, 902.4349
1366.031, 903.5290
1367.960, 905.2106
1369.888, 906.3458
1371.817, 905.9249
1373.745, 908.4667
1375.674, 919.0486
1377.602, 929.0012
1379.531, 933.4724
1381.459, 932.9333
1383.388, 930.5580
1385.316, 923.9225
1387.245, 919.7751
1389.173, 920.7185
1391.102, 922.7310
1393.030, 922.8245
1394.958, 921.1301
1396.887, 920.0259
1398.815, 919.6003
1400.744, 919.6990
1402.672, 920.8727
1404.601, 922.1406
1406.529, 922.4001
1408.458, 921.7468
1410.386, 921.6067
1412.315, 922.1482
1414.243, 922.6788
1416.172, 923.0495
1418.100, 923.2890
1420.029, 923.4874
1421.957, 923.7296
1423.885, 923.9717
1425.814, 923.9360
1427.742, 924.8856
1429.671, 928.5590
1431.599, 932.4495
1433.528, 934.3268
1435.456, 934.1546
1437.385, 933.6570
1439.313, 932.1822
1441.242, 931.3998
1443.170, 931.7367
1445.099, 932.7422
1447.027, 934.2894
1448.956, 936.4304
1450.884, 937.7982
1452.813, 937.8494
1454.741, 937.9004
1456.669, 938.1208
1458.598, 938.4254
1460.526, 938.6848
1462.455, 938.8858
1464.383, 939.2727
1466.312, 939.8867
1468.240, 940.4793
1470.169, 941.6262
1472.097, 942.2911
1474.026, 941.4044
1475.954, 939.3712
1477.883, 937.8508
1479.811, 936.9254
1481.740, 936.8029
1483.668, 937.6012
1485.596, 939.1608
1487.525, 941.5537
1489.453, 944.3728
1491.382, 946.8293
1493.310, 948.8019
1495.239, 949.9601
1497.167, 949.7565
1499.096, 949.2325
1501.024, 949.1302
1502.953, 949.3070
1504.881, 949.2979
1506.810, 949.2607
1508.738, 949.0112
1510.667, 948.0723
1512.595, 947.5562
1514.523, 947.9685
1516.452, 948.9511
1518.380, 949.9528
1520.309, 950.9495
1522.237, 951.7354
1524.166, 952.6246
1526.094, 952.8309
1528.023, 951.4011
1529.951, 949.7471
1531.880, 949.6879
1533.808, 951.4520
1535.737, 953.0373
1537.665, 953.9386
1539.594, 955.4249
1541.522, 957.9473
1543.450, 960.8392
1545.379, 963.5703
1547.307, 966.0939
1549.236, 968.5326
1551.164, 971.4322
1553.093, 973.0856
1555.021, 973.0086
1556.950, 972.0668
1558.878, 970.1375
1560.807, 967.9039
1562.735, 966.9769
1564.664, 967.4602
1566.592, 968.4764
1568.521, 970.2077
1570.449, 971.8916
1572.377, 973.1203
1574.306, 974.0452
1576.234, 974.9373
1578.163, 975.7637
1580.091, 976.1476
1582.020, 975.9627
1583.948, 975.9053
1585.877, 976.5934
1587.805, 977.3789
1589.734, 977.5137
1591.662, 977.4319
1593.591, 978.4229
1595.519, 980.7198
1597.448, 982.3613
1599.376, 982.1990
1601.304, 982.1876
1603.233, 983.6413
1605.161, 985.5980
1607.090, 986.8734
1609.018, 987.5197
1610.947, 987.9934
1612.875, 988.3431
1614.804, 988.7146
1616.732, 989.0152
1618.661, 989.4730
1620.589, 990.1833
1622.518, 991.1086
1624.446, 992.3045
1626.375, 993.8438
1628.303, 995.0930
1630.231, 996.0534
1632.160, 996.6349
1634.088, 996.2823
1636.017, 995.9682
1637.945, 997.1058
1639.874, 999.6371
1641.802, 1001.792
1643.731, 1003.453
1645.659, 1004.480
1647.588, 1004.389
1649.516, 1003.979
1651.445, 1003.555
1653.373, 1003.260
1655.302, 1003.558
1657.230, 1004.741
1659.158, 1005.387
1661.087, 1005.036
1663.015, 1004.716
1664.944, 1004.232
1666.872, 1004.193
1668.801, 1005.380
1670.729, 1007.576
1672.658, 1009.246
1674.586, 1010.190
1676.515, 1011.472
1678.443, 1013.798
1680.372, 1016.039
1682.300, 1017.922
1684.229, 1019.435
1686.157, 1019.972
1688.085, 1019.349
1690.014, 1021.331
1691.942, 1027.835
1693.871, 1032.191
1695.799, 1031.741
1697.728, 1030.529
1699.656, 1030.365
1701.585, 1030.759
1703.513, 1030.911
1705.442, 1030.875
1707.370, 1031.057
1709.299, 1031.641
1711.227, 1032.426
1713.156, 1033.821
1715.084, 1034.993
1717.012, 1035.184
1718.941, 1034.870
1720.869, 1035.070
1722.798, 1035.801
1724.726, 1036.476
1726.655, 1036.987
1728.583, 1037.527
1730.512, 1038.355
1732.440, 1039.076
1734.369, 1039.268
1736.297, 1039.253
1738.226, 1039.860
1740.154, 1041.193
1742.083, 1042.061
1744.011, 1042.118
1745.939, 1042.094
1747.868, 1042.296
1749.796, 1042.337
1751.725, 1041.710
1753.653, 1040.969
1755.582, 1041.467
1757.510, 1043.379
1759.439, 1044.749
1761.367, 1045.014
1763.296, 1045.572
1765.224, 1046.856
1767.153, 1048.189
1769.081, 1049.093
1771.010, 1049.701
1772.938, 1050.551
1774.866, 1051.672
1776.795, 1051.760
1778.723, 1050.359
1780.652, 1049.451
1782.580, 1049.679
1784.509, 1050.519
1786.437, 1052.122
1788.366, 1053.861
1790.294, 1054.552
1792.223, 1054.355
1794.151, 1055.133
1796.080, 1057.273
1798.008, 1058.965
1799.937, 1059.596
1801.865, 1059.988
1803.793, 1060.514
1805.722, 1061.010
1807.650, 1061.153
1809.579, 1061.136
1811.507, 1061.727
1813.436, 1063.048
1815.364, 1064.486
1817.293, 1066.548
1819.221, 1067.749
1821.150, 1066.528
1823.078, 1065.260
1825.007, 1065.975
1826.935, 1068.005
1828.864, 1069.836
1830.792, 1071.400
1832.720, 1072.576
1834.649, 1073.006
1836.577, 1073.474
1838.506, 1073.476
1840.434, 1074.234
1842.363, 1077.771
1844.291, 1081.668
1846.220, 1082.177
1848.148, 1079.596
1850.077, 1077.710
1852.005, 1076.653
1853.934, 1076.088
1855.862, 1076.245
1857.791, 1076.761
1859.719, 1077.744
1861.647, 1079.045
1863.576, 1080.527
1865.504, 1082.260
1867.433, 1084.428
1869.361, 1087.093
1871.290, 1089.240
1873.218, 1090.519
1875.147, 1091.345
1877.075, 1091.458
1879.004, 1091.269
1880.932, 1090.757
1882.861, 1090.328
1884.789, 1090.491
1886.718, 1091.283
1888.646, 1092.630
1890.574, 1094.825
1892.503, 1095.944
1894.431, 1095.100
1896.360, 1094.573
1898.288, 1095.199
1900.217, 1095.870
1902.145, 1095.824
1904.074, 1095.555
1906.002, 1096.246
1907.931, 1097.444
1909.859, 1096.248
1911.788, 1092.072
1913.716, 1090.424
1915.645, 1093.524
1917.573, 1096.185
1919.501, 1096.030
1921.430, 1095.333
1923.358, 1095.129
1925.287, 1095.473
1927.215, 1096.840
1929.144, 1099.045
1931.072, 1100.264
1933.001, 1100.308
1934.929, 1100.278
1936.858, 1099.876
1938.786, 1100.087
1940.715, 1101.488
1942.643, 1103.175
1944.572, 1104.798
1946.500, 1106.182
1948.428, 1106.909
1950.357, 1107.035
1952.285, 1107.453
1954.214, 1108.055
1956.142, 1109.136
1958.071, 1111.389
1959.999, 1112.730
1961.928, 1112.387
1963.856, 1111.319
1965.785, 1109.405
1967.713, 1107.609
1969.642, 1106.975
1971.570, 1107.559
1973.499, 1109.918
1975.427, 1114.231
1977.355, 1116.075
1979.284, 1113.883
1981.212, 1112.805
1983.141, 1114.790
1985.069, 1116.916
1986.998, 1117.604
1988.926, 1117.687
1990.855, 1117.690
1992.783, 1117.697
1994.712, 1118.317
1996.640, 1119.664
1998.569, 1119.619
2000.497, 1117.859
2002.426, 1115.963
2004.354, 1113.131
2006.282, 1111.676
2008.211, 1112.982
2010.139, 1114.864
2012.068, 1115.977
2013.996, 1116.779
2015.925, 1117.990
2017.853, 1119.478
2019.782, 1120.531
2021.710, 1121.158
2023.639, 1121.660
2025.567, 1122.017
2027.496, 1122.413
2029.424, 1122.763
2031.353, 1123.203
2033.281, 1123.716
2035.209, 1124.284
2037.138, 1124.904
2039.066, 1125.584
2040.995, 1126.518
2042.923, 1127.610
2044.852, 1127.990
2046.780, 1127.479
2048.709, 1127.210
2050.637, 1127.658
2052.566, 1127.615
2054.494, 1126.115
2056.423, 1125.211
2058.351, 1126.383
2060.280, 1127.917
2062.208, 1128.317
2064.136, 1128.289
2066.065, 1129.387
2067.993, 1131.301
2069.922, 1131.078
2071.850, 1128.322
2073.779, 1127.592
2075.707, 1129.957
2077.636, 1131.626
2079.564, 1131.535
2081.493, 1130.786
2083.421, 1129.665
2085.350, 1128.459
2087.278, 1127.398
2089.207, 1126.530
2091.135, 1125.648
2093.063, 1124.993
2094.992, 1125.734
2096.920, 1128.245
2098.849, 1129.166
2100.777, 1126.783
2102.706, 1126.148
2104.634, 1129.839
2106.563, 1131.745
2108.491, 1128.661
2110.420, 1125.784
2112.348, 1126.206
2114.277, 1127.639
2116.205, 1127.808
2118.134, 1127.392
2120.062, 1127.877
2121.990, 1129.024
2123.919, 1129.435
2125.847, 1128.922
2127.776, 1128.513
2129.704, 1128.000
2131.633, 1128.135
2133.561, 1129.619
2135.490, 1130.761
2137.418, 1131.052
2139.347, 1130.706
2141.275, 1129.682
2143.204, 1128.408
2145.132, 1127.252
2147.061, 1126.488
2148.989, 1127.074
2150.917, 1128.810
2152.846, 1128.651
2154.774, 1126.159
2156.703, 1125.223
2158.631, 1126.473
2160.560, 1127.895
2162.488, 1129.343
2164.417, 1130.023
2166.345, 1129.874
2168.274, 1128.772
2170.202, 1125.814
2172.131, 1122.992
2174.059, 1123.224
2175.988, 1124.990
2177.916, 1124.204
2179.844, 1121.295
2181.773, 1121.652
2183.701, 1125.418
2185.630, 1127.752
2187.558, 1127.899
2189.487, 1127.900
2191.415, 1127.920
2193.344, 1128.173
2195.272, 1129.839
2197.201, 1130.344
2199.129, 1126.929
2201.058, 1123.765
2202.986, 1125.203
2204.915, 1128.214
2206.843, 1128.587
2208.771, 1127.183
2210.700, 1126.243
2212.628, 1125.775
2214.557, 1126.391
2216.485, 1128.123
2218.414, 1129.647
2220.342, 1130.732
2222.271, 1131.420
2224.199, 1131.458
2226.128, 1131.486
2228.056, 1132.591
2229.985, 1132.743
2231.913, 1129.850
2233.842, 1127.250
2235.770, 1128.341
2237.698, 1130.632
2239.627, 1130.539
2241.555, 1129.168
2243.484, 1129.393
2245.412, 1130.910
2247.341, 1132.307
2249.269, 1133.529
2251.198, 1133.445
2253.126, 1131.775
2255.055, 1130.403
2256.983, 1129.380
2258.912, 1129.439
2260.840, 1132.047
2262.769, 1133.839
2264.697, 1133.233
2266.625, 1132.077
2268.554, 1130.570
2270.482, 1129.775
2272.411, 1131.331
2274.339, 1133.635
2276.268, 1134.503
2278.196, 1134.327
2280.125, 1133.727
2282.053, 1132.920
2283.982, 1133.250
2285.910, 1134.901
2287.839, 1135.423
2289.767, 1133.951
2291.696, 1133.516
2293.624, 1133.620
2295.552, 1135.718
2297.481, 1142.908
2299.409, 1147.017
2301.338, 1143.940
2303.266, 1140.430
2305.195, 1139.285
2307.123, 1139.131
2309.052, 1139.422
2310.980, 1139.849
2312.909, 1139.833
2314.837, 1139.838
2316.766, 1140.298
2318.694, 1141.556
2320.623, 1144.815
2322.551, 1150.096
2324.479, 1158.127
2326.408, 1169.540
2328.336, 1172.324
2330.265, 1164.704
2332.193, 1156.982
2334.122, 1149.654
2336.050, 1145.327
2337.979, 1146.689
2339.907, 1147.143
2341.836, 1143.472
2343.764, 1140.760
2345.693, 1141.653
2347.621, 1143.325
2349.550, 1144.578
2351.478, 1145.451
2353.406, 1146.098
2355.335, 1146.178
2357.263, 1144.505
2359.192, 1142.359
2361.120, 1142.230
2363.049, 1143.524
2364.977, 1144.385
2366.906, 1144.828
2368.834, 1144.984
2370.763, 1144.885
2372.691, 1144.640
2374.620, 1144.343
2376.548, 1143.946
2378.477, 1143.491
2380.405, 1143.128
2382.333, 1142.743
2384.262, 1142.980
2386.190, 1144.463
2388.119, 1145.767
2390.047, 1146.310
2391.976, 1146.621
2393.904, 1146.343
2395.833, 1146.554
2397.761, 1148.394
2399.690, 1150.441
2401.618, 1151.476
2403.547, 1152.106
2405.475, 1153.141
2407.404, 1154.038
2409.332, 1153.443
2411.260, 1152.252
2413.189, 1153.113
2415.117, 1155.657
2417.046, 1157.558
2418.974, 1158.921
2420.903, 1159.313
2422.831, 1158.748
2424.760, 1158.659
2426.688, 1158.990
2428.617, 1160.277
2430.545, 1162.908
2432.474, 1164.671
2434.402, 1165.252
2436.331, 1164.950
2438.259, 1162.939
2440.188, 1161.947
2442.116, 1163.374
2444.044, 1164.572
2445.973, 1164.376
2447.901, 1164.318
2449.830, 1164.548
2451.758, 1165.584
2453.687, 1168.659
2455.615, 1171.204
2457.544, 1171.016
2459.472, 1169.474
2461.401, 1167.536
2463.329, 1165.688
2465.258, 1164.893
2467.186, 1164.617
2469.115, 1163.700
2471.043, 1162.727
2472.971, 1162.990
2474.900, 1164.109
2476.828, 1164.691
2478.757, 1164.703
2480.685, 1165.173
2482.614, 1165.987
2484.542, 1164.534
2486.471, 1160.894
2488.399, 1160.359
2490.328, 1163.626
2492.256, 1166.490
2494.185, 1168.959
2496.113, 1169.752
2498.042, 1167.320
2499.970, 1166.247
2501.898, 1167.274
2503.827, 1167.803
2505.755, 1167.217
2507.684, 1166.771
2509.612, 1167.451
2511.541, 1167.293
2513.469, 1164.697
2515.398, 1163.009
2517.326, 1163.844
2519.255, 1165.139
2521.183, 1166.017
2523.112, 1166.856
2525.040, 1168.118
2526.969, 1168.705
2528.897, 1167.050
2530.825, 1165.541
2532.754, 1166.372
2534.682, 1168.088
2536.611, 1169.884
2538.539, 1171.358
2540.468, 1171.811
2542.396, 1171.702
2544.325, 1171.027
2546.253, 1170.511
2548.182, 1171.695
2550.110, 1173.545
2552.039, 1174.188
2553.967, 1174.046
2555.896, 1174.049
2557.824, 1174.149
2559.752, 1173.911
2561.681, 1173.469
2563.609, 1173.388
2565.538, 1173.645
2567.466, 1174.279
2569.395, 1175.286
2571.323, 1176.719
2573.252, 1178.670
2575.180, 1179.479
2577.109, 1179.181
2579.037, 1179.403
2580.966, 1180.163
2582.894, 1180.833
2584.823, 1181.362
2586.751, 1181.416
2588.679, 1180.956
2590.608, 1180.115
2592.536, 1178.750
2594.465, 1177.608
2596.393, 1176.557
2598.322, 1177.391
2600.250, 1180.978
2602.179, 1183.202
2604.107, 1182.922
2606.036, 1182.181
2607.964, 1180.050
2609.893, 1179.995
2611.821, 1183.299
2613.750, 1185.661
2615.678, 1185.986
2617.606, 1186.390
2619.535, 1187.837
2621.463, 1188.506
2623.392, 1187.104
2625.320, 1186.212
2627.249, 1186.385
2629.177, 1186.860
2631.106, 1187.877
2633.034, 1188.248
2634.963, 1187.349
2636.891, 1186.343
2638.820, 1185.039
2640.748, 1184.752
2642.677, 1187.014
2644.605, 1188.529
2646.533, 1188.125
2648.462, 1186.849
2650.390, 1183.768
2652.319, 1182.055
2654.247, 1184.698
2656.176, 1186.811
2658.104, 1186.318
2660.033, 1185.087
2661.961, 1183.262
2663.890, 1182.130
2665.818, 1182.486
2667.747, 1183.225
2669.675, 1183.715
2671.604, 1184.236
2673.532, 1185.127
2675.460, 1185.688
2677.389, 1185.219
2679.317, 1184.924
2681.246, 1186.078
2683.174, 1186.689
2685.103, 1185.115
2687.031, 1183.452
2688.960, 1182.841
2690.888, 1182.722
2692.817, 1182.482
2694.745, 1183.232
2696.674, 1186.224
2698.602, 1189.361
2700.531, 1191.297
2702.459, 1192.797
2704.387, 1194.474
2706.316, 1195.269
2708.244, 1193.459
2710.173, 1192.186
2712.101, 1194.471
2714.030, 1196.085
2715.958, 1194.155
2717.887, 1191.805
2719.815, 1189.974
2721.744, 1189.428
2723.672, 1191.735
2725.601, 1193.369
2727.529, 1191.722
2729.458, 1190.003
2731.386, 1189.916
2733.314, 1190.186
2735.243, 1190.213
2737.171, 1190.500
2739.100, 1191.686
2741.028, 1192.475
2742.957, 1191.833
2744.885, 1191.453
2746.814, 1192.534
2748.742, 1193.558
2750.671, 1193.801
2752.599, 1194.174
2754.528, 1194.755
2756.456, 1195.855
2758.385, 1197.756
2760.313, 1199.528
2762.241, 1200.677
2764.170, 1201.474
2766.098, 1201.907
2768.027, 1201.962
2769.955, 1201.533
2771.884, 1201.150
2773.812, 1201.633
2775.741, 1201.359
2777.669, 1199.987
2779.598, 1198.098
2781.526, 1195.486
2783.455, 1193.536
2785.383, 1192.328
2787.312, 1192.557
2789.240, 1195.490
2791.168, 1197.307
2793.097, 1197.131
2795.025, 1197.057
2796.954, 1197.334
2798.882, 1197.092
2800.811, 1196.151
2802.739, 1195.319
2804.668, 1194.808
2806.596, 1194.536
2808.525, 1194.641
2810.453, 1193.850
2812.382, 1191.956
2814.310, 1191.665
2816.239, 1193.519
2818.167, 1194.228
2820.095, 1193.750
2822.024, 1192.254
2823.952, 1189.970
2825.881, 1190.433
2827.809, 1193.270
2829.738, 1194.324
2831.666, 1193.681
2833.595, 1192.728
2835.523, 1191.615
2837.452, 1191.642
2839.380, 1192.194
2841.309, 1190.521
2843.237, 1188.180
2845.166, 1189.371
2847.094, 1192.433
2849.022, 1193.889
2850.951, 1194.204
2852.879, 1193.530
2854.808, 1192.743
2856.736, 1193.333
2858.665, 1194.253
2860.593, 1194.418
2862.522, 1194.211
2864.450, 1193.872
2866.379, 1193.618
2868.307, 1193.622
2870.236, 1193.790
2872.164, 1194.049
2874.093, 1194.539
2876.021, 1195.908
2877.949, 1196.646
2879.878, 1195.284
2881.806, 1194.531
2883.735, 1196.328
2885.663, 1197.214
2887.592, 1195.518
2889.520, 1194.375
2891.449, 1194.361
2893.377, 1195.144
2895.306, 1197.271
2897.234, 1199.070
2899.163, 1200.621
2901.091, 1201.700
2903.020, 1202.365
2904.948, 1201.730
2906.876, 1199.317
2908.805, 1197.823
2910.733, 1197.207
2912.662, 1198.264
2914.590, 1200.646
2916.519, 1201.007
2918.447, 1199.754
2920.376, 1198.961
2922.304, 1198.695
2924.233, 1198.908
2926.161, 1199.638
2928.090, 1201.466
2930.018, 1203.321
2931.947, 1203.389
2933.875, 1202.634
2935.803, 1202.213
2937.732, 1201.790
2939.660, 1200.986
2941.589, 1200.334
2943.517, 1200.727
2945.446, 1200.769
2947.374, 1198.880
2949.303, 1197.712
2951.231, 1198.623
2953.160, 1199.409
2955.088, 1199.094
2957.017, 1199.029
2958.945, 1200.114
2960.874, 1200.242
2962.802, 1198.900
2964.730, 1198.661
2966.659, 1200.033
2968.587, 1200.652
2970.516, 1200.109
2972.444, 1200.040
2974.373, 1200.379
2976.301, 1201.091
2978.230, 1201.831
2980.158, 1200.221
2982.087, 1197.402
2984.015, 1197.215
2985.944, 1198.162
2987.872, 1197.078
2989.801, 1195.478
2991.729, 1195.004
2993.657, 1195.349
2995.586, 1197.072
2997.514, 1198.364
2999.443, 1198.137
3001.371, 1196.989
3003.300, 1193.368
3005.228, 1191.944
3007.157, 1195.937
3009.085, 1198.071
3011.014, 1196.439
3012.942, 1194.781
3014.871, 1194.165
3016.799, 1192.961
3018.728, 1190.977
3020.656, 1190.220
3022.584, 1190.733
3024.513, 1192.846
3026.441, 1196.053
3028.370, 1197.570
3030.298, 1197.753
3032.227, 1197.478
3034.155, 1197.242
3036.084, 1198.932
3038.012, 1200.026
3039.941, 1195.350
3041.869, 1191.238
3043.798, 1193.818
3045.726, 1196.538
3047.655, 1195.042
3049.583, 1193.771
3051.511, 1195.038
3053.440, 1195.397
3055.368, 1193.876
3057.297, 1192.969
3059.225, 1193.477
3061.154, 1193.881
3063.082, 1194.114
3065.011, 1194.848
3066.939, 1195.945
3068.868, 1196.127
3070.796, 1195.612
3072.725, 1195.519
3074.653, 1195.627
3076.582, 1195.719
3078.510, 1195.599
3080.438, 1194.898
3082.367, 1194.194
3084.295, 1193.967
3086.224, 1194.082
3088.152, 1194.632
3090.081, 1195.115
3092.009, 1194.941
3093.938, 1195.366
3095.866, 1196.899
3097.795, 1197.225
3099.723, 1196.008
3101.652, 1194.359
3103.580, 1192.359
3105.509, 1192.595
3107.437, 1194.515
3109.365, 1195.569
3111.294, 1195.989
3113.222, 1195.877
3115.151, 1195.963
3117.079, 1197.542
3119.008, 1199.533
3120.936, 1201.553
3122.865, 1203.024
3124.793, 1203.632
3126.722, 1203.333
3128.650, 1201.569
3130.579, 1200.636
3132.507, 1201.029
3134.436, 1202.754
3136.364, 1206.197
3138.292, 1206.242
3140.221, 1203.733
3142.149, 1205.362
3144.078, 1209.332
3146.006, 1209.997
3147.935, 1209.120
3149.863, 1209.826
3151.792, 1210.067
3153.720, 1206.995
3155.649, 1204.535
3157.577, 1205.142
3159.506, 1206.601
3161.434, 1208.920
3163.363, 1210.152
3165.291, 1209.453
3167.219, 1208.714
3169.148, 1208.004
3171.076, 1208.987
3173.005, 1211.312
3174.933, 1211.916
3176.862, 1211.532
3178.790, 1211.620
3180.719, 1212.066
3182.647, 1212.635
3184.576, 1213.422
3186.504, 1214.514
3188.433, 1215.958
3190.361, 1218.617
3192.290, 1219.891
3194.218, 1217.662
3196.146, 1217.761
3198.075, 1220.509
3200.003, 1221.361
3201.932, 1220.284
3203.860, 1220.706
3205.789, 1221.772
3207.717, 1220.566
3209.646, 1219.059
3211.574, 1219.773
3213.503, 1221.178
3215.431, 1222.241
3217.360, 1223.028
3219.288, 1223.192
3221.217, 1223.641
3223.145, 1224.801
3225.073, 1225.964
3227.002, 1227.242
3228.930, 1226.754
3230.859, 1224.889
3232.787, 1223.381
3234.716, 1222.608
3236.644, 1223.798
3238.573, 1225.588
3240.501, 1226.974
3242.430, 1227.580
3244.358, 1225.966
3246.287, 1225.560
3248.215, 1227.642
3250.144, 1229.447
3252.072, 1230.851
3254.000, 1230.106
3255.929, 1227.703
3257.857, 1228.714
3259.786, 1231.705
3261.714, 1232.419
3263.643, 1232.260
3265.571, 1232.911
3267.500, 1233.895
3269.428, 1235.069
3271.357, 1236.064
3273.285, 1236.214
3275.214, 1237.995
3277.142, 1242.195
3279.071, 1244.896
3280.999, 1245.844
3282.927, 1247.696
3284.856, 1249.586
3286.784, 1248.233
3288.713, 1246.785
3290.641, 1251.023
3292.570, 1254.890
3294.498, 1253.623
3296.427, 1253.307
3298.355, 1257.466
3300.284, 1259.681
3302.212, 1259.119
3304.141, 1261.409
3306.069, 1266.432
3307.998, 1270.504
3309.926, 1273.516
3311.854, 1274.821
3313.783, 1275.835
3315.711, 1277.805
3317.640, 1280.726
3319.568, 1285.154
3321.497, 1289.247
3323.425, 1291.745
3325.354, 1296.617
3327.282, 1304.027
3329.211, 1309.829
3331.139, 1314.004
3333.068, 1316.692
3334.996, 1319.110
3336.925, 1323.086
3338.853, 1327.966
3340.781, 1334.322
3342.710, 1339.596
3344.638, 1342.386
3346.567, 1345.933
3348.495, 1350.639
3350.424, 1355.109
3352.352, 1359.227
3354.281, 1362.655
3356.209, 1365.604
3358.138, 1368.137
3360.066, 1370.902
3361.995, 1375.179
3363.923, 1378.805
3365.852, 1381.506
3367.780, 1382.146
3369.708, 1379.835
3371.637, 1380.620
3373.565, 1384.002
3375.494, 1385.696
3377.422, 1386.981
3379.351, 1391.570
3381.279, 1395.465
3383.208, 1393.830
3385.136, 1393.282
3387.065, 1397.876
3388.993, 1399.849
3390.922, 1398.254
3392.850, 1398.062
3394.779, 1399.064
3396.707, 1397.929
3398.635, 1395.370
3400.564, 1392.170
3402.492, 1389.054
3404.421, 1385.478
3406.349, 1384.980
3408.278, 1390.077
3410.206, 1392.201
3412.135, 1389.843
3414.063, 1388.659
3415.992, 1388.281
3417.920, 1387.696
3419.849, 1386.976
3421.777, 1386.741
3423.706, 1385.698
3425.634, 1382.879
3427.563, 1379.861
3429.491, 1376.904
3431.419, 1374.525
3433.348, 1372.628
3435.276, 1370.225
3437.205, 1367.303
3439.133, 1363.683
3441.062, 1359.872
3442.990, 1355.734
3444.919, 1352.688
3446.847, 1351.304
3448.776, 1350.917
3450.704, 1351.572
3452.633, 1351.361
3454.561, 1350.752
3456.490, 1352.134
3458.418, 1354.346
3460.346, 1356.455
3462.275, 1358.295
3464.203, 1359.654
3466.132, 1361.671
3468.060, 1365.011
3469.989, 1368.035
3471.917, 1370.467
3473.846, 1370.662
3475.774, 1369.367
3477.703, 1367.186
3479.631, 1364.882
3481.560, 1364.159
3483.488, 1360.547
3485.417, 1351.296
3487.345, 1345.891
3489.273, 1343.883
3491.202, 1338.899
3493.130, 1331.973
3495.059, 1324.857
3496.987, 1317.645
3498.916, 1310.973
3500.844, 1303.121
3502.773, 1293.431
3504.701, 1284.712
3506.630, 1277.306
3508.558, 1272.098
3510.487, 1267.492
3512.415, 1258.549
3514.344, 1250.835
3516.272, 1250.066
3518.200, 1249.046
3520.129, 1246.344
3522.057, 1242.151
3523.986, 1236.608
3525.914, 1231.079
3527.843, 1226.872
3529.771, 1227.580
3531.700, 1228.389
3533.628, 1225.264
3535.557, 1222.592
3537.485, 1221.798
3539.414, 1219.986
3541.342, 1217.360
3543.271, 1216.539
3545.199, 1216.869
3547.127, 1217.393
3549.056, 1218.263
3550.984, 1219.851
3552.913, 1220.140
3554.841, 1217.746
3556.770, 1217.186
3558.698, 1217.495
3560.627, 1214.216
3562.555, 1210.044
3564.484, 1208.524
3566.412, 1207.891
3568.341, 1208.389
3570.269, 1207.289
3572.198, 1204.394
3574.126, 1202.685
3576.054, 1202.112
3577.983, 1202.695
3579.911, 1203.367
3581.840, 1202.937
3583.768, 1202.766
3585.697, 1203.935
3587.625, 1202.701
3589.554, 1199.400
3591.482, 1198.238
3593.411, 1197.967
3595.339, 1196.662
3597.268, 1194.596
3599.196, 1191.290
3601.125, 1188.464
3603.053, 1186.256
3604.981, 1185.055
3606.910, 1184.693
3608.838, 1185.457
3610.767, 1186.000
3612.695, 1185.041
3614.624, 1183.863
3616.552, 1182.704
3618.481, 1182.760
3620.409, 1183.885
3622.338, 1183.518
3624.266, 1182.703
3626.195, 1183.089
3628.123, 1183.878
3630.052, 1185.257
3631.980, 1185.426
3633.908, 1184.150
3635.837, 1182.618
3637.765, 1180.737
3639.694, 1177.422
3641.622, 1174.732
3643.551, 1174.872
3645.479, 1175.515
3647.408, 1176.541
3649.336, 1175.953
3651.265, 1174.278
3653.193, 1173.691
3655.122, 1173.852
3657.050, 1174.177
3658.979, 1175.276
3660.907, 1177.604
3662.835, 1177.007
3664.764, 1173.800
3666.692, 1174.325
3668.621, 1178.065
3670.549, 1188.153
3672.478, 1192.824
3674.406, 1185.861
3676.335, 1178.073
3678.263, 1171.012
3680.192, 1170.429
3682.120, 1173.082
3684.049, 1173.594
3685.977, 1173.785
3687.906, 1174.471
3689.834, 1175.433
3691.762, 1176.557
3693.691, 1175.561
3695.619, 1173.996
3697.548, 1176.504
3699.476, 1178.035
3701.405, 1174.024
3703.333, 1171.521
3705.262, 1171.542
3707.190, 1171.116
3709.119, 1170.576
3711.047, 1170.978
3712.976, 1171.495
3714.904, 1171.391
3716.833, 1171.705
3718.761, 1172.507
3720.689, 1170.975
3722.618, 1168.627
3724.546, 1170.397
3726.475, 1172.248
3728.403, 1170.952
3730.332, 1170.549
3732.260, 1171.576
3734.189, 1172.581
3736.117, 1173.432
3738.046, 1173.692
3739.974, 1174.154
3741.903, 1175.708
3743.831, 1176.688
3745.760, 1176.944
3747.688, 1176.186
3749.616, 1175.253
3751.545, 1176.200
3753.473, 1177.061
3755.402, 1175.951
3757.330, 1176.712
3759.259, 1179.375
3761.187, 1179.508
3763.116, 1178.570
3765.044, 1179.239
3766.973, 1179.885
3768.901, 1179.252
3770.830, 1180.047
3772.758, 1181.918
3774.687, 1180.738
3776.615, 1178.555
3778.543, 1177.891
3780.472, 1177.655
3782.400, 1177.847
3784.329, 1176.650
3786.257, 1174.466
3788.186, 1172.881
3790.114, 1172.457
3792.043, 1174.409
3793.971, 1175.658
3795.900, 1175.269
3797.828, 1173.682
3799.757, 1171.697
3801.685, 1172.195
3803.614, 1172.477
3805.542, 1170.697
3807.470, 1168.928
3809.399, 1167.582
3811.327, 1167.177
3813.256, 1167.067
3815.184, 1165.638
3817.113, 1165.004
3819.041, 1166.407
3820.970, 1167.028
3822.898, 1166.638
3824.827, 1164.203
3826.755, 1163.154
3828.684, 1170.986
3830.612, 1173.082
3832.541, 1164.545
3834.469, 1161.597
3836.397, 1163.217
3838.326, 1166.405
3840.254, 1167.919
3842.183, 1164.224
3844.111, 1163.046
3846.040, 1165.373
3847.968, 1166.557
3849.897, 1166.895
3851.825, 1166.570
3853.754, 1166.242
3855.682, 1165.998
3857.611, 1167.289
3859.539, 1169.332
3861.468, 1168.513
3863.396, 1166.912
3865.324, 1165.261
3867.253, 1165.730
3869.181, 1168.329
3871.110, 1169.401
3873.038, 1169.331
3874.967, 1168.333
3876.895, 1167.586
3878.824, 1167.559
3880.752, 1168.711
3882.681, 1169.887
3884.609, 1165.434
3886.538, 1162.344
3888.466, 1166.859
3890.395, 1168.302
3892.323, 1165.042
3894.251, 1164.734
3896.180, 1166.135
3898.108, 1168.569
3900.037, 1169.665
3901.965, 1168.298
3903.894, 1168.637
3905.822, 1170.113
3907.751, 1170.269
3909.679, 1170.627
3911.608, 1172.525
3913.536, 1172.558
3915.465, 1170.633
3917.393, 1170.295
3919.322, 1170.982
3921.250, 1172.718
3923.178, 1174.185
3925.107, 1175.178
3927.035, 1172.197
3928.964, 1168.497
3930.892, 1170.734
3932.821, 1173.668
3934.749, 1175.205
3936.678, 1176.320
3938.606, 1176.949
3940.535, 1176.623
3942.463, 1176.583
3944.392, 1177.798
3946.320, 1179.228
3948.249, 1180.646
3950.177, 1180.044
3952.105, 1179.582
3954.034, 1182.231
3955.962, 1183.517
3957.891, 1182.276
3959.819, 1180.717
3961.748, 1179.513
3963.676, 1180.524
3965.605, 1180.325
3967.533, 1177.881
3969.462, 1177.809
3971.390, 1179.460
3973.319, 1180.854
3975.247, 1182.217
3977.176, 1183.623
3979.104, 1184.495
3981.032, 1184.928
3982.961, 1186.600
3984.889, 1186.704
3986.818, 1182.110
3988.746, 1179.965
3990.675, 1180.610
3992.603, 1181.494
3994.532, 1182.847
3996.460, 1184.969
3998.389, 1187.544
4000.317, 1190.432
4002.246, 1188.881
4004.174, 1186.179
4006.103, 1186.669
4008.031, 1186.909
4009.959, 1186.292
4011.888, 1186.402
4013.816, 1186.835
4015.745, 1186.288
4017.673, 1186.867
4019.602, 1189.042
4021.530, 1190.292
4023.459, 1190.358
4025.387, 1188.211
4027.316, 1186.341
4029.244, 1185.741
4031.173, 1187.194
4033.101, 1189.072
4035.030, 1186.006
4036.958, 1184.770
4038.886, 1188.633
4040.815, 1189.169
4042.743, 1187.625
4044.672, 1190.297
4046.600, 1191.606
4048.529, 1188.744
4050.457, 1187.115
4052.386, 1187.384
4054.314, 1191.855
4056.243, 1194.998
4058.171, 1192.344
4060.100, 1190.356
4062.028, 1189.353
4063.957, 1189.701
4065.885, 1190.980
4067.813, 1193.704
4069.742, 1194.011
4071.670, 1192.373
4073.599, 1190.448
4075.527, 1189.866
4077.456, 1191.887
4079.384, 1192.244
4081.313, 1191.607
4083.241, 1191.108
4085.170, 1198.422
4087.098, 1224.618
4089.027, 1232.298
4090.955, 1223.657
4092.884, 1213.162
4094.812, 1205.589
4096.740, 1204.506
4098.669, 1205.620
4100.598, 1208.004
4102.526, 1210.464
4104.454, 1210.701
4106.383, 1207.103
4108.312, 1208.264
4110.240, 1211.881
4112.168, 1207.632
4114.097, 1206.441
4116.025, 1213.697
4117.954, 1215.112
4119.882, 1212.890
4121.811, 1213.625
4123.739, 1216.001
4125.667, 1219.954
4127.596, 1222.140
4129.524, 1223.448
4131.453, 1226.106
4133.381, 1228.232
4135.310, 1228.842
4137.238, 1232.723
4139.167, 1236.973
4141.095, 1236.615
4143.023, 1236.220
4144.952, 1237.041
4146.881, 1241.887
4148.809, 1247.623
4150.737, 1249.820
4152.666, 1253.406
4154.595, 1258.632
4156.523, 1260.289
4158.451, 1261.963
4160.380, 1267.759
4162.309, 1270.465
4164.237, 1270.035
4166.165, 1273.889
4168.094, 1277.721
4170.022, 1278.295
4171.951, 1280.140
4173.879, 1283.461
4175.808, 1288.274
4177.736, 1292.437
4179.665, 1294.341
4181.593, 1297.379
4183.521, 1301.272
4185.450, 1305.655
4187.378, 1309.050
4189.307, 1310.436
4191.235, 1314.054
4193.164, 1318.171
4195.092, 1320.300
4197.021, 1322.827
4198.949, 1326.213
4200.878, 1327.208
4202.806, 1328.855
4204.734, 1334.634
4206.663, 1338.984
4208.592, 1341.961
4210.520, 1347.539
4212.448, 1352.033
4214.377, 1353.001
4216.306, 1357.018
4218.234, 1363.277
4220.162, 1369.696
4222.091, 1373.642
4224.020, 1374.381
4225.948, 1376.886
4227.876, 1380.420
4229.805, 1383.533
4231.733, 1388.159
4233.662, 1394.257
4235.590, 1395.212
4237.519, 1396.502
##END=



