##NAMES=Aheylite
##RRUFFID=R070171
##IDEAL CHEMISTRY=Fe^2+^Al_6_(PO_4_)_4_(OH)_8_·4H_2_O
##LOCALITY=Bali Lo, Ashburton Downs, Western Australia, Australia
##OWNER=Michael Scott
##SOURCE=Michael Scott
##DESCRIPTION=Green radial aggregate around a bronze red core
##STATUS=The identification of this mineral is not yet confirmed
##URL=https://www.rruff.net/odr/rruff_sample/R070171
##FILETYPE=Raman RAW
##RAMAN WAVELENGTH=532

86.29395, 195.5339
88.22241, 206.6129
90.15088, 217.3489
92.07935, 220.7569
94.00781, 231.2404
95.93628, 251.5320
97.86475, 280.7832
99.79321, 317.4525
101.7217, 352.7507
103.6501, 397.1768
105.5786, 469.4462
107.5071, 567.0582
109.4355, 688.7611
111.3640, 830.1271
113.2925, 986.0540
115.2209, 1180.602
117.1494, 1415.374
119.0779, 1689.755
121.0063, 1990.053
122.9348, 2325.036
124.8633, 2678.728
126.7917, 3041.117
128.7202, 3411.214
130.6487, 3796.594
132.5771, 4211.938
134.5056, 4642.080
136.4341, 5059.424
138.3625, 5472.222
140.2910, 5861.902
142.2195, 6210.375
144.1479, 6511.750
146.0764, 6808.007
148.0049, 7111.039
149.9333, 7418.720
151.8618, 7719.802
153.7903, 8029.702
155.7188, 8321.406
157.6472, 8577.774
159.5757, 8789.586
161.5042, 8998.205
163.4326, 9207.139
165.3611, 9418.501
167.2896, 9639.983
169.2180, 9861.375
171.1465, 10105.04
173.0750, 10380.20
175.0034, 10695.29
176.9319, 11036.59
178.8604, 11409.53
180.7888, 11811.65
182.7173, 12227.36
184.6458, 12651.13
186.5742, 13090.39
188.5027, 13562.54
190.4312, 14096.29
192.3596, 14608.68
194.2881, 15070.99
196.2166, 15494.70
198.1450, 15917.31
200.0735, 16366.96
202.0020, 16796.94
203.9304, 17171.90
205.8589, 17496.01
207.7874, 17773.64
209.7158, 18021.73
211.6443, 18236.94
213.5727, 18366.13
215.5012, 18395.29
217.4297, 18350.95
219.3581, 18259.10
221.2866, 18115.14
223.2151, 17930.61
225.1435, 17714.47
227.0720, 17459.88
229.0005, 17155.43
230.9289, 16779.21
232.8574, 16369.30
234.7859, 15950.40
236.7143, 15510.68
238.6428, 15077.59
240.5713, 14641.60
242.4997, 14215.47
244.4282, 13823.01
246.3567, 13491.63
248.2851, 13179.57
250.2136, 12866.82
252.1421, 12544.63
254.0705, 12246.33
255.9990, 11970.80
257.9275, 11722.31
259.8560, 11517.26
261.7844, 11376.17
263.7129, 11261.75
265.6414, 11164.80
267.5698, 11083.46
269.4983, 11019.32
271.4268, 10957.91
273.3552, 10914.65
275.2837, 10927.63
277.2122, 11018.06
279.1406, 11136.43
281.0691, 11265.87
282.9976, 11403.44
284.9260, 11590.19
286.8545, 11852.78
288.7830, 12155.04
290.7114, 12458.28
292.6399, 12759.35
294.5684, 13063.74
296.4968, 13379.33
298.4253, 13709.14
300.3538, 14018.83
302.2822, 14303.72
304.2107, 14573.00
306.1392, 14839.74
308.0676, 15113.17
309.9961, 15353.63
311.9246, 15552.42
313.8530, 15711.95
315.7815, 15841.27
317.7100, 15975.64
319.6384, 16051.34
321.5669, 16033.60
323.4954, 15908.46
325.4238, 15770.79
327.3523, 15655.77
329.2808, 15530.14
331.2092, 15339.41
333.1377, 15058.45
335.0661, 14762.51
336.9946, 14481.88
338.9231, 14216.93
340.8515, 13939.48
342.7800, 13637.62
344.7085, 13340.10
346.6369, 13063.99
348.5654, 12806.86
350.4939, 12573.40
352.4223, 12356.50
354.3508, 12166.77
356.2793, 12019.18
358.2077, 11935.85
360.1362, 11858.22
362.0647, 11764.95
363.9931, 11649.36
365.9216, 11556.46
367.8501, 11482.15
369.7785, 11430.87
371.7070, 11412.80
373.6355, 11438.21
375.5639, 11469.32
377.4924, 11488.44
379.4209, 11492.68
381.3493, 11532.60
383.2778, 11622.11
385.2063, 11739.46
387.1347, 11855.11
389.0632, 11963.41
390.9917, 12078.29
392.9201, 12221.86
394.8486, 12378.43
396.7771, 12507.68
398.7055, 12597.26
400.6340, 12682.17
402.5625, 12774.35
404.4909, 12872.89
406.4194, 12935.11
408.3479, 12942.86
410.2763, 12925.01
412.2048, 12906.16
414.1333, 12894.69
416.0617, 12846.74
417.9902, 12744.39
419.9187, 12610.27
421.8471, 12486.26
423.7756, 12358.95
425.7041, 12246.58
427.6325, 12174.57
429.5610, 12141.74
431.4895, 12120.66
433.4179, 12094.32
435.3464, 12073.52
437.2749, 12071.11
439.2033, 12096.88
441.1318, 12136.63
443.0603, 12174.86
444.9887, 12212.31
446.9172, 12256.42
448.8457, 12323.14
450.7741, 12385.94
452.7026, 12436.13
454.6311, 12471.29
456.5595, 12497.87
458.4880, 12519.50
460.4165, 12534.05
462.3449, 12538.80
464.2734, 12534.39
466.2019, 12504.81
468.1303, 12442.12
470.0588, 12361.81
471.9873, 12290.39
473.9157, 12239.94
475.8442, 12184.17
477.7727, 12111.07
479.7011, 12022.27
481.6296, 11940.82
483.5581, 11868.95
485.4865, 11800.17
487.4150, 11733.15
489.3435, 11669.53
491.2719, 11615.69
493.2004, 11556.76
495.1289, 11507.33
497.0573, 11487.99
498.9858, 11515.21
500.9143, 11548.23
502.8427, 11569.02
504.7712, 11581.22
506.6997, 11597.15
508.6281, 11620.92
510.5566, 11651.90
512.4851, 11693.96
514.4136, 11738.88
516.3420, 11760.87
518.2705, 11758.74
520.1990, 11754.32
522.1274, 11754.39
524.0559, 11742.78
525.9844, 11731.96
527.9128, 11749.03
529.8413, 11770.51
531.7698, 11766.85
533.6982, 11732.82
535.6267, 11701.49
537.5552, 11677.20
539.4836, 11645.91
541.4121, 11589.58
543.3406, 11506.33
545.2690, 11425.30
547.1975, 11357.70
549.1260, 11300.04
551.0544, 11234.52
552.9829, 11156.96
554.9114, 11081.33
556.8398, 11005.69
558.7683, 10933.63
560.6968, 10895.45
562.6252, 10900.02
564.5537, 10931.87
566.4822, 10985.46
568.4106, 11065.12
570.3391, 11126.92
572.2676, 11159.91
574.1960, 11171.08
576.1245, 11177.00
578.0530, 11181.58
579.9814, 11175.59
581.9099, 11166.50
583.8383, 11142.12
585.7668, 11071.45
587.6953, 10923.73
589.6237, 10769.66
591.5522, 10629.94
593.4807, 10502.84
595.4091, 10359.66
597.3376, 10197.13
599.2661, 10025.88
601.1945, 9844.593
603.1230, 9651.834
605.0515, 9472.729
606.9799, 9305.976
608.9084, 9161.488
610.8369, 9046.700
612.7653, 8949.124
614.6938, 8860.585
616.6223, 8785.617
618.5507, 8722.373
620.4792, 8667.977
622.4077, 8614.475
624.3361, 8552.626
626.2646, 8477.078
628.1931, 8398.675
630.1215, 8325.416
632.0500, 8259.722
633.9785, 8177.637
635.9069, 8074.297
637.8354, 7956.538
639.7639, 7827.877
641.6923, 7685.670
643.6208, 7538.405
645.5493, 7385.551
647.4777, 7232.894
649.4062, 7081.723
651.3347, 6927.493
653.2631, 6775.904
655.1916, 6631.253
657.1201, 6493.334
659.0485, 6353.911
660.9770, 6209.574
662.9055, 6069.633
664.8339, 5937.407
666.7624, 5807.976
668.6909, 5686.441
670.6193, 5576.265
672.5478, 5470.697
674.4763, 5363.253
676.4047, 5254.954
678.3332, 5153.122
680.2617, 5058.397
682.1901, 4971.351
684.1186, 4893.045
686.0471, 4822.028
687.9755, 4757.564
689.9040, 4696.820
691.8325, 4645.127
693.7609, 4607.036
695.6894, 4584.909
697.6179, 4560.859
699.5463, 4529.371
701.4748, 4494.701
703.4033, 4461.901
705.3317, 4429.886
707.2602, 4403.746
709.1887, 4389.965
711.1171, 4380.427
713.0456, 4364.460
714.9741, 4338.534
716.9025, 4313.375
718.8310, 4286.647
720.7595, 4263.776
722.6879, 4255.363
724.6164, 4271.905
726.5449, 4284.895
728.4733, 4287.899
730.4018, 4281.721
732.3303, 4271.002
734.2587, 4246.641
736.1872, 4235.385
738.1157, 4254.230
740.0441, 4297.210
741.9726, 4313.270
743.9011, 4283.556
745.8295, 4254.060
747.7580, 4249.629
749.6865, 4262.321
751.6149, 4263.905
753.5434, 4233.919
755.4719, 4214.865
757.4003, 4224.981
759.3288, 4264.673
761.2573, 4298.955
763.1857, 4323.768
765.1142, 4343.173
767.0427, 4362.846
768.9711, 4388.131
770.8996, 4415.610
772.8281, 4441.885
774.7565, 4468.819
776.6850, 4499.021
778.6135, 4533.435
780.5419, 4576.080
782.4704, 4631.764
784.3989, 4689.009
786.3273, 4742.258
788.2558, 4791.442
790.1843, 4832.249
792.1127, 4860.826
794.0412, 4881.107
795.9697, 4894.516
797.8981, 4913.367
799.8266, 4937.324
801.7551, 4965.903
803.6835, 4978.291
805.6120, 4975.738
807.5405, 4973.716
809.4689, 4981.881
811.3974, 5002.334
813.3259, 5019.032
815.2543, 5038.617
817.1828, 5068.013
819.1113, 5097.832
821.0397, 5125.811
822.9682, 5143.877
824.8967, 5147.530
826.8251, 5151.574
828.7536, 5164.698
830.6821, 5194.332
832.6105, 5211.672
834.5390, 5211.593
836.4675, 5203.900
838.3959, 5213.038
840.3244, 5248.290
842.2529, 5281.147
844.1813, 5279.375
846.1098, 5253.856
848.0383, 5238.963
849.9667, 5245.485
851.8952, 5263.773
853.8237, 5284.607
855.7521, 5300.943
857.6806, 5312.651
859.6091, 5320.270
861.5375, 5337.098
863.4660, 5374.402
865.3945, 5421.693
867.3229, 5466.927
869.2514, 5510.578
871.1799, 5555.864
873.1083, 5594.436
875.0368, 5618.437
876.9653, 5639.675
878.8937, 5668.731
880.8222, 5701.328
882.7507, 5713.951
884.6791, 5697.933
886.6076, 5678.973
888.5361, 5665.189
890.4645, 5654.318
892.3930, 5641.084
894.3215, 5625.833
896.2499, 5596.515
898.1784, 5548.635
900.1069, 5503.750
902.0353, 5487.276
903.9638, 5495.667
905.8923, 5510.940
907.8207, 5530.211
909.7492, 5558.122
911.6777, 5598.398
913.6061, 5646.574
915.5346, 5697.272
917.4631, 5749.458
919.3915, 5806.082
921.3200, 5871.693
923.2485, 5936.167
925.1769, 5981.600
927.1054, 6028.624
929.0339, 6094.847
930.9623, 6182.193
932.8908, 6254.965
934.8193, 6307.607
936.7477, 6352.367
938.6762, 6394.776
940.6047, 6438.654
942.5331, 6487.740
944.4616, 6542.423
946.3901, 6603.359
948.3185, 6671.885
950.2470, 6744.429
952.1755, 6814.892
954.1039, 6878.508
956.0324, 6950.735
957.9609, 7046.488
959.8893, 7155.063
961.8178, 7247.806
963.7463, 7314.060
965.6747, 7406.384
967.6032, 7534.633
969.5317, 7690.233
971.4601, 7866.602
973.3886, 8065.100
975.3171, 8270.001
977.2455, 8474.565
979.1740, 8701.070
981.1025, 8961.181
983.0309, 9254.117
984.9594, 9567.957
986.8879, 9901.597
988.8163, 10257.78
990.7448, 10647.13
992.6733, 11043.35
994.6017, 11416.80
996.5302, 11779.49
998.4587, 12181.73
1000.387, 12635.69
1002.316, 13084.55
1004.244, 13495.79
1006.173, 13852.55
1008.101, 14187.71
1010.029, 14509.30
1011.958, 14813.34
1013.886, 15092.99
1015.815, 15332.20
1017.743, 15549.36
1019.672, 15778.74
1021.600, 16001.63
1023.529, 16196.51
1025.457, 16384.09
1027.386, 16605.68
1029.314, 16828.67
1031.243, 17008.25
1033.171, 17144.98
1035.100, 17240.17
1037.028, 17295.68
1038.957, 17312.21
1040.885, 17254.62
1042.813, 17096.00
1044.742, 16866.52
1046.670, 16600.97
1048.599, 16301.21
1050.527, 15925.20
1052.456, 15460.31
1054.384, 14958.76
1056.313, 14420.16
1058.241, 13857.70
1060.170, 13266.29
1062.098, 12662.04
1064.027, 12101.35
1065.955, 11586.52
1067.884, 11109.17
1069.812, 10678.09
1071.740, 10294.41
1073.669, 9940.847
1075.597, 9604.912
1077.526, 9323.356
1079.454, 9113.087
1081.383, 8950.924
1083.311, 8822.048
1085.240, 8724.261
1087.168, 8661.100
1089.097, 8642.846
1091.025, 8655.467
1092.953, 8694.281
1094.882, 8752.921
1096.810, 8781.220
1098.739, 8760.413
1100.667, 8730.375
1102.596, 8707.992
1104.524, 8686.979
1106.453, 8634.075
1108.381, 8541.626
1110.310, 8429.576
1112.238, 8292.423
1114.167, 8144.743
1116.095, 7995.272
1118.024, 7844.157
1119.952, 7691.832
1121.880, 7537.102
1123.809, 7381.552
1125.737, 7224.118
1127.666, 7065.537
1129.594, 6917.375
1131.523, 6781.383
1133.451, 6655.092
1135.380, 6543.398
1137.308, 6439.771
1139.237, 6330.991
1141.165, 6212.260
1143.094, 6099.844
1145.022, 5996.300
1146.951, 5900.617
1148.879, 5815.272
1150.807, 5738.102
1152.736, 5649.979
1154.664, 5535.895
1156.593, 5431.506
1158.521, 5358.518
1160.450, 5303.283
1162.378, 5230.614
1164.307, 5124.454
1166.235, 5031.982
1168.164, 4972.200
1170.092, 4913.053
1172.021, 4829.392
1173.949, 4722.349
1175.878, 4624.376
1177.806, 4534.737
1179.734, 4453.362
1181.663, 4385.527
1183.591, 4327.979
1185.520, 4268.709
1187.448, 4205.344
1189.377, 4144.870
1191.305, 4089.291
1193.234, 4037.762
1195.162, 3990.044
1197.091, 3942.875
1199.019, 3897.179
1200.948, 3850.537
1202.876, 3813.075
1204.805, 3790.196
1206.733, 3776.150
1208.661, 3761.629
1210.590, 3743.205
1212.518, 3729.227
1214.447, 3725.870
1216.375, 3729.320
1218.304, 3726.157
1220.232, 3713.894
1222.161, 3707.849
1224.089, 3716.941
1226.018, 3724.380
1227.946, 3721.504
1229.875, 3710.300
1231.803, 3698.854
1233.732, 3691.738
1235.660, 3688.479
1237.589, 3688.495
1239.517, 3681.503
1241.445, 3663.021
1243.374, 3639.235
1245.302, 3633.453
1247.231, 3653.683
1249.159, 3676.130
1251.088, 3691.087
1253.016, 3698.890
1254.945, 3698.628
1256.873, 3682.610
1258.802, 3671.104
1260.730, 3670.198
1262.659, 3676.207
1264.587, 3689.743
1266.516, 3712.711
1268.444, 3719.422
1270.372, 3694.702
1272.301, 3674.540
1274.229, 3677.746
1276.158, 3694.128
1278.086, 3698.901
1280.015, 3693.819
1281.943, 3691.156
1283.872, 3688.159
1285.800, 3684.336
1287.729, 3682.353
1289.657, 3682.973
1291.586, 3680.970
1293.514, 3687.192
1295.443, 3693.686
1297.371, 3689.994
1299.299, 3679.813
1301.228, 3680.588
1303.156, 3693.702
1305.085, 3703.154
1307.013, 3708.956
1308.942, 3709.530
1310.870, 3702.755
1312.799, 3693.216
1314.727, 3686.676
1316.656, 3678.137
1318.584, 3677.858
1320.513, 3701.808
1322.441, 3726.145
1324.370, 3728.382
1326.298, 3706.532
1328.226, 3690.483
1330.155, 3673.189
1332.083, 3656.905
1334.012, 3655.274
1335.940, 3666.164
1337.869, 3676.410
1339.797, 3679.874
1341.726, 3683.427
1343.654, 3680.567
1345.583, 3670.575
1347.511, 3652.769
1349.440, 3635.419
1351.368, 3637.793
1353.297, 3668.487
1355.225, 3686.407
1357.153, 3671.929
1359.082, 3654.812
1361.010, 3654.806
1362.939, 3665.700
1364.867, 3668.916
1366.796, 3661.637
1368.724, 3653.160
1370.653, 3651.096
1372.581, 3656.708
1374.510, 3665.061
1376.438, 3672.623
1378.367, 3676.259
1380.295, 3679.466
1382.224, 3677.208
1384.152, 3664.646
1386.080, 3651.199
1388.009, 3651.244
1389.937, 3673.049
1391.866, 3683.595
1393.794, 3674.370
1395.723, 3664.922
1397.651, 3655.057
1399.580, 3647.568
1401.508, 3654.775
1403.437, 3688.300
1405.365, 3705.108
1407.294, 3685.176
1409.222, 3668.945
1411.151, 3679.467
1413.079, 3704.676
1415.007, 3719.949
1416.936, 3726.881
1418.864, 3729.072
1420.793, 3710.981
1422.721, 3689.537
1424.650, 3693.507
1426.578, 3718.955
1428.507, 3739.626
1430.435, 3751.351
1432.364, 3749.105
1434.292, 3721.829
1436.221, 3700.310
1438.149, 3702.542
1440.078, 3720.697
1442.006, 3728.971
1443.934, 3722.558
1445.863, 3722.945
1447.791, 3745.599
1449.720, 3763.642
1451.648, 3755.143
1453.577, 3725.800
1455.505, 3712.738
1457.434, 3725.263
1459.362, 3737.657
1461.291, 3749.881
1463.219, 3759.732
1465.148, 3764.737
1467.076, 3766.084
1469.005, 3765.972
1470.933, 3762.846
1472.861, 3758.657
1474.790, 3755.643
1476.718, 3755.364
1478.647, 3748.588
1480.575, 3736.180
1482.504, 3741.252
1484.432, 3775.677
1486.361, 3798.864
1488.289, 3797.600
1490.218, 3788.207
1492.146, 3779.353
1494.075, 3775.850
1496.003, 3774.470
1497.932, 3773.185
1499.860, 3775.849
1501.788, 3786.928
1503.717, 3799.783
1505.645, 3811.288
1507.574, 3820.812
1509.502, 3827.216
1511.431, 3830.160
1513.359, 3832.908
1515.288, 3836.709
1517.216, 3839.648
1519.145, 3835.703
1521.073, 3832.086
1523.002, 3844.299
1524.930, 3874.294
1526.859, 3894.109
1528.787, 3890.711
1530.715, 3891.587
1532.644, 3914.787
1534.572, 3944.075
1536.501, 3958.388
1538.429, 3957.048
1540.358, 3955.517
1542.286, 3954.643
1544.215, 3954.290
1546.143, 3946.204
1548.072, 3944.663
1550.000, 3970.173
1551.929, 4022.976
1553.857, 4051.832
1555.786, 4043.837
1557.714, 4034.762
1559.642, 4025.059
1561.571, 4021.282
1563.499, 4031.879
1565.428, 4053.345
1567.356, 4067.949
1569.285, 4077.433
1571.213, 4076.388
1573.142, 4046.011
1575.070, 4026.374
1576.999, 4046.666
1578.927, 4086.447
1580.856, 4105.166
1582.784, 4092.919
1584.713, 4091.420
1586.641, 4111.237
1588.569, 4128.560
1590.498, 4129.230
1592.426, 4128.370
1594.355, 4150.262
1596.283, 4196.564
1598.212, 4217.992
1600.140, 4186.931
1602.069, 4171.899
1603.997, 4199.753
1605.926, 4227.239
1607.854, 4213.902
1609.783, 4176.106
1611.711, 4173.638
1613.640, 4227.669
1615.568, 4256.893
1617.496, 4239.634
1619.425, 4220.291
1621.353, 4209.875
1623.282, 4209.864
1625.210, 4230.885
1627.139, 4277.247
1629.067, 4292.945
1630.996, 4248.479
1632.924, 4219.126
1634.853, 4228.333
1636.781, 4249.839
1638.710, 4267.983
1640.638, 4282.145
1642.567, 4289.270
1644.495, 4287.012
1646.423, 4287.640
1648.352, 4302.032
1650.280, 4306.082
1652.209, 4278.365
1654.137, 4242.459
1656.066, 4231.077
1657.994, 4244.556
1659.923, 4252.581
1661.851, 4254.787
1663.780, 4251.974
1665.708, 4241.375
1667.637, 4228.725
1669.565, 4217.242
1671.494, 4206.511
1673.422, 4195.141
1675.350, 4182.608
1677.279, 4172.577
1679.207, 4164.666
1681.136, 4160.189
1683.064, 4164.980
1684.993, 4169.052
1686.921, 4160.417
1688.850, 4141.803
1690.778, 4129.308
1692.707, 4122.982
1694.635, 4122.299
1696.564, 4135.643
1698.492, 4144.436
1700.421, 4133.260
1702.349, 4117.679
1704.277, 4123.646
1706.206, 4151.039
1708.134, 4156.571
1710.063, 4127.593
1711.991, 4102.482
1713.920, 4084.670
1715.848, 4074.610
1717.777, 4075.983
1719.705, 4083.917
1721.634, 4091.430
1723.562, 4099.498
1725.491, 4098.255
1727.419, 4070.977
1729.348, 4059.210
1731.276, 4083.720
1733.204, 4110.694
1735.133, 4115.784
1737.061, 4107.582
1738.990, 4107.262
1740.918, 4118.704
1742.847, 4120.486
1744.775, 4099.440
1746.704, 4088.006
1748.632, 4098.495
1750.561, 4114.294
1752.489, 4126.998
1754.418, 4135.292
1756.346, 4134.804
1758.275, 4122.712
1760.203, 4111.711
1762.131, 4095.470
1764.060, 4089.260
1765.988, 4102.489
1767.917, 4120.272
1769.845, 4135.139
1771.774, 4145.775
1773.702, 4146.820
1775.631, 4132.957
1777.559, 4129.422
1779.488, 4142.699
1781.416, 4156.855
1783.345, 4169.329
1785.273, 4181.363
1787.202, 4200.470
1789.130, 4217.937
1791.058, 4207.166
1792.987, 4161.859
1794.915, 4143.525
1796.844, 4170.487
1798.772, 4192.067
1800.701, 4189.708
1802.629, 4185.705
1804.558, 4197.144
1806.486, 4212.207
1808.415, 4205.611
1810.343, 4178.622
1812.272, 4165.060
1814.200, 4168.268
1816.129, 4182.027
1818.057, 4217.729
1819.985, 4245.726
1821.914, 4239.718
1823.842, 4224.505
1825.771, 4231.517
1827.699, 4256.035
1829.628, 4276.132
1831.556, 4293.168
1833.485, 4290.060
1835.413, 4244.991
1837.342, 4210.778
1839.270, 4216.457
1841.199, 4238.111
1843.127, 4256.697
1845.056, 4273.138
1846.984, 4292.108
1848.912, 4315.093
1850.841, 4327.496
1852.769, 4324.847
1854.698, 4317.070
1856.626, 4294.481
1858.555, 4280.434
1860.483, 4300.231
1862.412, 4333.807
1864.340, 4342.428
1866.269, 4324.695
1868.197, 4321.234
1870.126, 4349.934
1872.054, 4363.699
1873.983, 4342.231
1875.911, 4330.222
1877.839, 4354.010
1879.768, 4386.494
1881.696, 4399.538
1883.625, 4398.498
1885.553, 4407.853
1887.482, 4433.333
1889.410, 4438.800
1891.339, 4406.513
1893.267, 4386.180
1895.196, 4393.039
1897.124, 4410.772
1899.053, 4442.557
1900.981, 4473.092
1902.910, 4477.546
1904.838, 4460.723
1906.766, 4450.030
1908.695, 4448.063
1910.623, 4439.885
1912.552, 4414.571
1914.480, 4400.958
1916.409, 4424.958
1918.337, 4449.109
1920.266, 4443.562
1922.194, 4422.356
1924.123, 4405.845
1926.051, 4394.570
1927.980, 4400.376
1929.908, 4430.783
1931.837, 4456.440
1933.765, 4466.169
1935.693, 4481.137
1937.622, 4519.727
1939.550, 4554.425
1941.479, 4558.751
1943.407, 4544.946
1945.336, 4537.379
1947.264, 4536.021
1949.193, 4542.932
1951.121, 4566.706
1953.050, 4578.379
1954.978, 4570.567
1956.907, 4556.932
1958.835, 4527.485
1960.764, 4508.016
1962.692, 4528.197
1964.620, 4566.709
1966.549, 4581.570
1968.477, 4574.937
1970.406, 4563.637
1972.334, 4545.262
1974.263, 4544.284
1976.191, 4578.241
1978.120, 4603.660
1980.048, 4593.619
1981.977, 4580.435
1983.905, 4582.450
1985.834, 4597.573
1987.762, 4633.126
1989.691, 4684.096
1991.619, 4697.667
1993.547, 4655.683
1995.476, 4626.353
1997.404, 4614.673
1999.333, 4608.931
2001.261, 4605.779
2003.190, 4609.747
2005.118, 4630.101
2007.047, 4653.404
2008.975, 4662.192
2010.904, 4660.672
2012.832, 4668.391
2014.761, 4686.160
2016.689, 4688.417
2018.618, 4666.389
2020.546, 4655.814
2022.474, 4670.978
2024.403, 4687.205
2026.331, 4698.022
2028.260, 4701.101
2030.188, 4689.010
2032.117, 4670.841
2034.045, 4661.489
2035.974, 4660.465
2037.902, 4662.191
2039.831, 4665.326
2041.759, 4675.463
2043.688, 4697.423
2045.616, 4719.123
2047.545, 4751.876
2049.473, 4767.406
2051.402, 4733.940
2053.330, 4694.857
2055.259, 4697.845
2057.187, 4724.663
2059.115, 4725.099
2061.044, 4703.156
2062.972, 4712.490
2064.901, 4762.106
2066.829, 4794.164
2068.758, 4797.612
2070.686, 4787.502
2072.615, 4754.388
2074.543, 4726.898
2076.471, 4719.406
2078.400, 4724.821
2080.328, 4743.715
2082.257, 4767.575
2084.185, 4773.920
2086.114, 4762.522
2088.042, 4753.734
2089.971, 4745.902
2091.899, 4745.735
2093.828, 4761.723
2095.756, 4769.618
2097.685, 4754.556
2099.613, 4743.988
2101.542, 4755.953
2103.470, 4771.734
2105.398, 4777.177
2107.327, 4775.545
2109.255, 4772.748
2111.184, 4767.982
2113.112, 4752.504
2115.041, 4721.574
2116.969, 4715.875
2118.898, 4760.251
2120.826, 4787.799
2122.755, 4779.762
2124.683, 4768.651
2126.612, 4764.005
2128.540, 4760.861
2130.469, 4751.140
2132.397, 4744.670
2134.325, 4759.374
2136.254, 4786.975
2138.182, 4801.102
2140.111, 4802.241
2142.039, 4796.950
2143.968, 4785.352
2145.896, 4767.208
2147.825, 4729.886
2149.753, 4716.006
2151.682, 4759.290
2153.610, 4798.197
2155.539, 4803.875
2157.467, 4798.176
2159.396, 4793.575
2161.324, 4791.531
2163.252, 4795.616
2165.181, 4804.172
2167.109, 4809.938
2169.038, 4812.920
2170.966, 4817.482
2172.895, 4824.647
2174.823, 4826.711
2176.752, 4818.248
2178.680, 4817.271
2180.609, 4840.851
2182.537, 4855.481
2184.466, 4837.813
2186.394, 4816.141
2188.323, 4809.606
2190.251, 4812.124
2192.179, 4818.903
2194.108, 4827.516
2196.036, 4830.731
2197.965, 4828.581
2199.893, 4821.845
2201.822, 4809.133
2203.750, 4806.027
2205.679, 4815.637
2207.607, 4828.859
2209.536, 4845.142
2211.464, 4861.663
2213.393, 4884.696
2215.321, 4898.332
2217.250, 4890.545
2219.178, 4872.946
2221.106, 4849.748
2223.035, 4827.906
2224.963, 4822.920
2226.892, 4829.722
2228.820, 4821.383
2230.749, 4798.940
2232.677, 4800.682
2234.606, 4831.934
2236.534, 4846.500
2238.463, 4830.979
2240.391, 4824.446
2242.320, 4841.517
2244.248, 4860.202
2246.177, 4878.332
2248.105, 4890.239
2250.033, 4888.986
2251.962, 4884.228
2253.890, 4885.742
2255.819, 4888.070
2257.747, 4881.206
2259.676, 4868.866
2261.604, 4860.923
2263.533, 4857.713
2265.461, 4861.855
2267.390, 4873.736
2269.318, 4889.231
2271.247, 4914.559
2273.175, 4923.463
2275.104, 4896.501
2277.032, 4878.876
2278.960, 4892.813
2280.889, 4896.951
2282.817, 4858.123
2284.746, 4827.878
2286.674, 4842.413
2288.603, 4873.035
2290.531, 4902.759
2292.460, 4926.156
2294.388, 4930.576
2296.317, 4923.015
2298.245, 4925.524
2300.174, 4937.278
2302.102, 4941.404
2304.031, 4937.038
2305.959, 4927.761
2307.887, 4908.963
2309.816, 4902.067
2311.744, 4913.526
2313.673, 4924.520
2315.601, 4934.278
2317.530, 4935.517
2319.458, 4912.068
2321.387, 4897.116
2323.315, 4915.461
2325.244, 4939.718
2327.172, 4951.326
2329.101, 4954.860
2331.029, 4951.747
2332.958, 4946.560
2334.886, 4951.413
2336.814, 4961.551
2338.743, 4958.551
2340.671, 4944.107
2342.600, 4931.642
2344.528, 4921.917
2346.457, 4911.588
2348.385, 4900.568
2350.314, 4888.496
2352.242, 4865.239
2354.171, 4858.902
2356.099, 4886.169
2358.028, 4904.420
2359.956, 4897.534
2361.885, 4890.144
2363.813, 4891.145
2365.741, 4897.137
2367.670, 4913.388
2369.598, 4925.855
2371.527, 4914.918
2373.455, 4899.030
2375.384, 4908.048
2377.312, 4926.881
2379.241, 4918.302
2381.169, 4892.261
2383.098, 4894.369
2385.026, 4919.236
2386.955, 4933.524
2388.883, 4935.990
2390.812, 4922.914
2392.740, 4884.607
2394.668, 4873.240
2396.597, 4925.250
2398.525, 4942.372
2400.454, 4894.935
2402.382, 4869.376
2404.311, 4893.130
2406.239, 4911.377
2408.168, 4904.933
2410.096, 4892.318
2412.025, 4873.478
2413.953, 4862.631
2415.882, 4872.902
2417.810, 4889.682
2419.739, 4902.123
2421.667, 4913.372
2423.595, 4930.762
2425.524, 4946.644
2427.452, 4944.884
2429.381, 4934.143
2431.309, 4932.362
2433.238, 4938.159
2435.166, 4950.246
2437.095, 4966.825
2439.023, 4956.326
2440.952, 4912.156
2442.880, 4903.287
2444.809, 4935.848
2446.737, 4956.991
2448.666, 4962.375
2450.594, 4961.169
2452.522, 4948.753
2454.451, 4951.633
2456.379, 4995.858
2458.308, 5020.032
2460.236, 5000.568
2462.165, 4979.340
2464.093, 4960.989
2466.022, 4951.452
2467.950, 4953.065
2469.879, 4963.556
2471.807, 4988.652
2473.736, 5013.574
2475.664, 5040.501
2477.593, 5049.533
2479.521, 5000.563
2481.449, 4945.465
2483.378, 4948.794
2485.306, 4979.865
2487.235, 5005.066
2489.163, 5018.782
2491.092, 4998.197
2493.020, 4962.242
2494.949, 4964.528
2496.877, 4994.967
2498.806, 5005.001
2500.734, 4996.085
2502.663, 4990.390
2504.591, 4987.881
2506.520, 4985.899
2508.448, 4984.468
2510.376, 4998.180
2512.305, 5031.327
2514.233, 5052.700
2516.162, 5058.050
2518.090, 5054.292
2520.019, 5034.358
2521.947, 5024.614
2523.876, 5029.939
2525.804, 5036.350
2527.733, 5040.263
2529.661, 5047.963
2531.590, 5069.520
2533.518, 5080.700
2535.447, 5064.461
2537.375, 5053.007
2539.303, 5056.002
2541.232, 5067.050
2543.160, 5093.752
2545.089, 5112.115
2547.017, 5101.156
2548.946, 5089.472
2550.874, 5093.193
2552.803, 5103.950
2554.731, 5128.733
2556.660, 5143.151
2558.588, 5104.423
2560.517, 5067.755
2562.445, 5104.025
2564.374, 5154.030
2566.302, 5153.349
2568.230, 5128.067
2570.159, 5098.988
2572.087, 5080.474
2574.016, 5115.204
2575.944, 5168.226
2577.873, 5154.196
2579.801, 5107.355
2581.730, 5112.895
2583.658, 5148.780
2585.587, 5146.012
2587.515, 5118.006
2589.444, 5124.678
2591.372, 5159.600
2593.301, 5180.272
2595.229, 5187.893
2597.157, 5188.431
2599.086, 5183.139
2601.014, 5180.999
2602.943, 5182.327
2604.871, 5183.402
2606.800, 5184.255
2608.728, 5184.570
2610.657, 5184.357
2612.585, 5180.572
2614.514, 5172.649
2616.442, 5183.729
2618.371, 5220.512
2620.299, 5243.815
2622.228, 5248.151
2624.156, 5248.447
2626.084, 5242.114
2628.013, 5244.392
2629.941, 5256.645
2631.870, 5279.305
2633.798, 5321.257
2635.727, 5337.425
2637.655, 5302.231
2639.584, 5277.597
2641.512, 5264.805
2643.441, 5263.853
2645.369, 5275.699
2647.298, 5296.868
2649.226, 5332.945
2651.155, 5359.185
2653.083, 5374.235
2655.011, 5370.681
2656.940, 5327.379
2658.868, 5312.728
2660.797, 5345.982
2662.725, 5381.607
2664.654, 5412.983
2666.582, 5434.157
2668.511, 5442.045
2670.439, 5441.874
2672.368, 5424.767
2674.296, 5418.012
2676.225, 5427.293
2678.153, 5446.836
2680.082, 5490.391
2682.010, 5510.162
2683.938, 5465.654
2685.867, 5438.004
2687.795, 5456.440
2689.724, 5480.536
2691.652, 5513.490
2693.581, 5522.626
2695.509, 5475.423
2697.438, 5446.334
2699.366, 5461.988
2701.295, 5495.748
2703.223, 5562.972
2705.152, 5608.324
2707.080, 5616.416
2709.009, 5605.548
2710.937, 5559.915
2712.865, 5537.610
2714.794, 5581.102
2716.722, 5611.137
2718.651, 5593.383
2720.579, 5585.968
2722.508, 5611.267
2724.436, 5629.724
2726.365, 5613.773
2728.293, 5613.199
2730.222, 5661.888
2732.150, 5693.639
2734.079, 5682.478
2736.007, 5680.417
2737.936, 5710.531
2739.864, 5725.987
2741.792, 5685.340
2743.721, 5673.208
2745.649, 5730.537
2747.578, 5780.961
2749.506, 5815.575
2751.435, 5832.983
2753.363, 5824.955
2755.292, 5821.588
2757.220, 5836.223
2759.149, 5846.487
2761.077, 5844.393
2763.006, 5849.231
2764.934, 5865.187
2766.863, 5882.109
2768.791, 5896.457
2770.719, 5915.746
2772.648, 5950.905
2774.576, 5971.102
2776.505, 5968.882
2778.433, 5972.117
2780.362, 5982.503
2782.290, 6010.393
2784.219, 6072.783
2786.147, 6100.417
2788.076, 6074.224
2790.004, 6061.857
2791.933, 6066.648
2793.861, 6080.038
2795.790, 6103.125
2797.718, 6113.729
2799.646, 6103.012
2801.575, 6113.908
2803.503, 6149.436
2805.432, 6174.495
2807.360, 6188.295
2809.289, 6205.561
2811.217, 6227.303
2813.146, 6257.167
2815.074, 6295.488
2817.003, 6312.114
2818.931, 6308.777
2820.860, 6288.633
2822.788, 6262.087
2824.717, 6296.726
2826.645, 6375.390
2828.573, 6401.145
2830.502, 6391.579
2832.430, 6429.207
2834.359, 6487.835
2836.287, 6488.024
2838.216, 6462.862
2840.144, 6495.353
2842.073, 6551.748
2844.001, 6562.170
2845.930, 6551.856
2847.858, 6539.986
2849.787, 6552.500
2851.715, 6659.711
2853.644, 6772.285
2855.572, 6771.993
2857.500, 6738.641
2859.429, 6735.076
2861.357, 6749.193
2863.286, 6782.523
2865.214, 6815.497
2867.143, 6833.076
2869.071, 6846.854
2871.000, 6860.186
2872.928, 6876.747
2874.857, 6895.335
2876.785, 6922.394
2878.714, 6978.330
2880.642, 7011.602
2882.571, 6991.009
2884.499, 6988.813
2886.427, 7029.683
2888.356, 7072.170
2890.284, 7102.770
2892.213, 7139.169
2894.141, 7181.192
2896.070, 7239.710
2897.998, 7322.381
2899.927, 7368.152
2901.855, 7358.874
2903.784, 7358.710
2905.712, 7366.915
2907.641, 7410.151
2909.569, 7484.405
2911.498, 7515.998
2913.426, 7510.104
2915.354, 7556.959
2917.283, 7643.608
2919.211, 7690.934
2921.140, 7715.406
2923.068, 7775.757
2924.997, 7845.335
2926.925, 7859.564
2928.854, 7854.999
2930.782, 7893.484
2932.711, 7948.402
2934.639, 7998.601
2936.568, 8036.291
2938.496, 8035.838
2940.425, 8043.979
2942.353, 8105.965
2944.281, 8175.018
2946.210, 8230.145
2948.138, 8280.560
2950.067, 8338.304
2951.995, 8379.092
2953.924, 8380.878
2955.852, 8391.861
2957.781, 8416.008
2959.709, 8467.766
2961.638, 8568.232
2963.566, 8640.952
2965.495, 8672.359
2967.423, 8713.783
2969.352, 8767.253
2971.280, 8835.822
2973.208, 8918.955
2975.137, 8965.261
2977.065, 8981.024
2978.994, 9031.685
2980.922, 9100.894
2982.851, 9127.908
2984.779, 9138.313
2986.708, 9184.666
2988.636, 9249.401
2990.565, 9304.099
2992.493, 9364.093
2994.422, 9448.393
2996.350, 9538.645
2998.279, 9638.863
3000.207, 9711.450
3002.135, 9705.632
3004.064, 9727.234
3005.992, 9845.366
3007.921, 9941.747
3009.849, 9959.264
3011.778, 9991.837
3013.706, 10049.18
3015.635, 10123.27
3017.563, 10216.34
3019.492, 10303.28
3021.420, 10382.06
3023.349, 10458.72
3025.277, 10532.96
3027.206, 10604.40
3029.134, 10669.22
3031.063, 10699.59
3032.991, 10720.52
3034.919, 10808.13
3036.848, 10911.50
3038.776, 10955.48
3040.705, 10983.01
3042.633, 11019.51
3044.562, 11081.55
3046.490, 11197.06
3048.419, 11314.21
3050.347, 11422.67
3052.276, 11505.01
3054.204, 11537.16
3056.133, 11577.15
3058.061, 11631.53
3059.990, 11695.67
3061.918, 11770.84
3063.846, 11840.10
3065.775, 11900.05
3067.703, 12003.37
3069.632, 12132.75
3071.560, 12176.64
3073.489, 12171.05
3075.417, 12220.60
3077.346, 12293.78
3079.274, 12325.82
3081.203, 12359.98
3083.131, 12452.97
3085.060, 12547.76
3086.988, 12598.11
3088.917, 12644.22
3090.845, 12711.97
3092.773, 12755.79
3094.702, 12710.95
3096.630, 12748.78
3098.559, 12920.00
3100.487, 13001.30
3102.416, 12972.25
3104.344, 13014.52
3106.273, 13132.54
3108.201, 13253.94
3110.130, 13360.54
3112.058, 13336.85
3113.987, 13272.73
3115.915, 13332.83
3117.844, 13437.92
3119.772, 13503.97
3121.700, 13558.85
3123.629, 13618.76
3125.557, 13678.03
3127.486, 13748.50
3129.414, 13785.89
3131.343, 13765.62
3133.271, 13781.74
3135.200, 13860.62
3137.128, 13926.31
3139.057, 13973.98
3140.985, 14027.01
3142.914, 14081.00
3144.842, 14106.73
3146.771, 14122.21
3148.699, 14177.34
3150.627, 14242.87
3152.556, 14283.53
3154.484, 14310.38
3156.413, 14299.80
3158.341, 14331.40
3160.270, 14487.58
3162.198, 14588.05
3164.127, 14560.30
3166.055, 14570.55
3167.984, 14668.80
3169.912, 14717.52
3171.841, 14720.91
3173.769, 14812.79
3175.698, 14959.47
3177.626, 14976.40
3179.554, 14936.64
3181.483, 15002.60
3183.411, 15091.18
3185.340, 15110.32
3187.268, 15128.55
3189.197, 15193.18
3191.125, 15268.44
3193.054, 15348.73
3194.982, 15423.36
3196.911, 15487.07
3198.839, 15549.89
3200.768, 15611.90
3202.696, 15674.45
3204.625, 15740.56
3206.553, 15836.41
3208.481, 15940.88
3210.410, 15994.08
3212.338, 16034.48
3214.267, 16111.62
3216.195, 16181.68
3218.124, 16213.48
3220.052, 16226.39
3221.981, 16199.14
3223.909, 16238.39
3225.838, 16422.84
3227.766, 16504.83
3229.695, 16486.55
3231.623, 16524.63
3233.552, 16613.28
3235.480, 16722.67
3237.408, 16822.44
3239.337, 16831.79
3241.265, 16827.63
3243.194, 16880.85
3245.122, 16939.65
3247.051, 16973.11
3248.979, 17018.13
3250.908, 17090.69
3252.836, 17147.09
3254.765, 17175.34
3256.693, 17231.99
3258.622, 17311.73
3260.550, 17384.80
3262.479, 17444.69
3264.407, 17448.99
3266.335, 17464.69
3268.264, 17591.52
3270.192, 17714.71
3272.121, 17761.89
3274.049, 17789.78
3275.978, 17807.25
3277.906, 17827.96
3279.835, 17846.61
3281.763, 17941.83
3283.692, 18101.98
3285.620, 18151.25
3287.549, 18141.61
3289.477, 18176.33
3291.406, 18240.89
3293.334, 18361.72
3295.262, 18437.46
3297.191, 18356.80
3299.119, 18326.40
3301.048, 18416.42
3302.976, 18495.31
3304.905, 18550.31
3306.833, 18687.18
3308.762, 18880.26
3310.690, 18927.91
3312.619, 18907.19
3314.547, 18935.88
3316.476, 19002.04
3318.404, 19128.28
3320.333, 19228.58
3322.261, 19245.87
3324.189, 19306.39
3326.118, 19480.34
3328.046, 19593.71
3329.975, 19649.19
3331.903, 19697.48
3333.832, 19738.40
3335.760, 19747.41
3337.689, 19766.69
3339.617, 19873.73
3341.546, 19968.61
3343.474, 19967.70
3345.403, 19986.55
3347.331, 20052.75
3349.260, 20121.18
3351.188, 20186.45
3353.116, 20242.79
3355.045, 20290.88
3356.973, 20334.20
3358.902, 20371.23
3360.830, 20411.61
3362.759, 20424.09
3364.687, 20359.03
3366.616, 20333.16
3368.544, 20407.77
3370.473, 20490.40
3372.401, 20576.97
3374.330, 20610.68
3376.258, 20600.65
3378.187, 20583.48
3380.115, 20575.19
3382.043, 20596.68
3383.972, 20644.93
3385.900, 20747.45
3387.829, 20819.73
3389.757, 20836.21
3391.686, 20852.66
3393.614, 20876.06
3395.543, 20924.41
3397.471, 20981.71
3399.400, 20950.68
3401.328, 20912.66
3403.257, 20983.96
3405.185, 21066.89
3407.114, 21111.22
3409.042, 21144.56
3410.970, 21154.23
3412.899, 21221.99
3414.827, 21344.84
3416.756, 21449.60
3418.684, 21535.30
3420.613, 21584.98
3422.541, 21643.27
3424.470, 21746.23
3426.398, 21884.49
3428.327, 22089.84
3430.255, 22242.73
3432.184, 22325.20
3434.112, 22484.57
3436.041, 22702.05
3437.969, 22777.77
3439.897, 22829.40
3441.826, 23059.83
3443.754, 23315.35
3445.683, 23501.53
3447.611, 23655.11
3449.540, 23777.71
3451.468, 23899.03
3453.397, 24021.52
3455.325, 24213.74
3457.254, 24421.26
3459.182, 24520.07
3461.111, 24577.93
3463.039, 24692.40
3464.968, 24724.90
3466.896, 24598.45
3468.824, 24464.78
3470.753, 24342.79
3472.681, 24206.19
3474.610, 24008.61
3476.538, 23587.93
3478.467, 23062.19
3480.395, 22546.88
3482.324, 22022.51
3484.252, 21488.79
3486.181, 20915.61
3488.109, 20297.34
3490.038, 19643.81
3491.966, 18981.70
3493.895, 18451.04
3495.823, 17973.66
3497.751, 17437.35
3499.680, 16933.43
3501.608, 16529.65
3503.537, 16137.54
3505.465, 15744.31
3507.394, 15416.21
3509.322, 15141.50
3511.251, 14843.14
3513.179, 14543.52
3515.108, 14258.06
3517.036, 14005.52
3518.965, 13802.44
3520.893, 13608.43
3522.822, 13421.75
3524.750, 13202.56
3526.678, 12957.14
3528.607, 12699.21
3530.535, 12454.86
3532.464, 12271.96
3534.392, 12087.09
3536.321, 11865.84
3538.249, 11662.94
3540.178, 11491.69
3542.106, 11304.62
3544.035, 11105.13
3545.963, 10903.67
3547.892, 10705.43
3549.820, 10509.04
3551.749, 10334.66
3553.677, 10214.94
3555.605, 10053.97
3557.534, 9849.486
3559.462, 9684.060
3561.391, 9547.303
3563.319, 9414.796
3565.248, 9288.392
3567.176, 9169.126
3569.105, 9057.396
3571.033, 8955.962
3572.962, 8848.854
3574.890, 8737.824
3576.819, 8638.771
3578.747, 8550.882
3580.676, 8482.189
3582.604, 8407.405
3584.532, 8296.234
3586.461, 8214.963
3588.389, 8172.537
3590.318, 8098.229
3592.246, 8005.571
3594.175, 7966.179
3596.103, 7928.222
3598.032, 7833.819
3599.960, 7742.330
3601.889, 7672.506
3603.817, 7605.185
3605.746, 7538.570
3607.674, 7469.652
3609.603, 7408.530
3611.531, 7380.603
3613.459, 7351.766
3615.388, 7297.599
3617.316, 7250.649
3619.245, 7216.882
3621.173, 7136.341
3623.102, 7036.103
3625.030, 7029.090
3626.959, 7038.235
3628.887, 7004.701
3630.816, 6947.910
3632.744, 6865.776
3634.673, 6828.729
3636.601, 6829.325
3638.530, 6770.075
3640.458, 6697.181
3642.386, 6668.943
3644.315, 6649.361
3646.243, 6626.032
3648.172, 6599.042
3650.100, 6568.645
3652.029, 6554.544
3653.957, 6540.982
3655.886, 6503.294
3657.814, 6449.870
3659.743, 6369.687
3661.671, 6334.922
3663.600, 6369.794
3665.528, 6344.306
3667.457, 6284.532
3669.385, 6249.774
3671.313, 6229.672
3673.242, 6221.102
3675.170, 6216.593
3677.099, 6216.534
3679.027, 6208.712
3680.956, 6188.480
3682.884, 6123.015
3684.813, 6062.286
3686.741, 6061.850
3688.670, 6059.708
3690.598, 6041.819
3692.527, 6023.827
3694.455, 6005.604
3696.384, 5978.881
3698.312, 5953.261
3700.240, 5934.801
3702.169, 5930.238
3704.097, 5945.608
3706.026, 5935.789
3707.954, 5905.996
3709.883, 5900.197
3711.811, 5898.868
3713.740, 5880.357
3715.668, 5863.712
3717.597, 5852.997
3719.525, 5858.150
3721.454, 5871.973
3723.382, 5839.438
3725.311, 5808.793
3727.239, 5853.334
3729.167, 5860.645
3731.096, 5798.018
3733.024, 5740.432
3734.953, 5696.005
3736.881, 5679.643
3738.810, 5684.218
3740.738, 5721.095
3742.667, 5738.604
3744.595, 5723.059
3746.524, 5733.585
3748.452, 5752.354
3750.381, 5663.941
3752.309, 5586.014
3754.238, 5653.044
3756.166, 5669.667
3758.094, 5598.453
3760.023, 5586.022
3761.951, 5614.110
3763.880, 5617.594
3765.808, 5616.068
3767.737, 5625.962
3769.665, 5624.276
3771.594, 5608.540
3773.522, 5594.571
3775.451, 5587.129
3777.379, 5603.519
3779.308, 5614.988
3781.236, 5598.241
3783.165, 5590.163
3785.093, 5593.064
3787.021, 5604.060
3788.950, 5614.532
3790.878, 5620.627
3792.807, 5602.865
3794.735, 5532.449
3796.664, 5521.663
3798.592, 5561.203
3800.521, 5581.222
3802.449, 5585.562
3804.378, 5576.303
3806.306, 5558.101
3808.235, 5527.847
3810.163, 5544.437
3812.092, 5572.120
3814.020, 5493.284
3815.948, 5422.570
3817.877, 5427.085
3819.805, 5460.335
3821.734, 5512.515
3823.662, 5523.531
3825.591, 5516.521
3827.519, 5529.479
3829.448, 5527.365
3831.376, 5489.991
3833.305, 5478.570
3835.233, 5489.409
3837.162, 5491.979
3839.090, 5493.344
3841.019, 5506.050
3842.947, 5499.667
3844.875, 5463.656
3846.804, 5463.941
3848.732, 5479.537
3850.661, 5473.615
3852.589, 5456.651
3854.518, 5422.583
3856.446, 5433.178
3858.375, 5481.217
3860.303, 5488.827
3862.232, 5474.773
3864.160, 5448.574
3866.089, 5427.255
3868.017, 5411.305
3869.946, 5411.665
3871.874, 5419.960
3873.802, 5418.567
3875.731, 5407.301
3877.659, 5376.686
3879.588, 5367.088
3881.516, 5371.714
3883.445, 5345.528
3885.373, 5328.529
3887.302, 5353.125
3889.230, 5373.561
3891.159, 5385.834
3893.087, 5346.948
3895.016, 5299.030
3896.944, 5288.513
3898.873, 5288.970
3900.801, 5316.202
3902.729, 5329.794
3904.658, 5322.403
3906.586, 5317.722
3908.515, 5307.598
3910.443, 5277.678
3912.372, 5256.160
3914.300, 5252.071
3916.229, 5248.390
3918.157, 5246.896
3920.086, 5257.417
3922.014, 5268.903
3923.943, 5279.703
3925.871, 5272.238
3927.800, 5250.174
3929.728, 5199.196
3931.656, 5167.010
3933.585, 5186.617
3935.513, 5196.800
3937.442, 5195.576
3939.370, 5176.859
3941.299, 5167.029
3943.227, 5178.932
3945.156, 5172.472
3947.084, 5156.922
3949.013, 5137.887
3950.941, 5126.508
3952.870, 5130.102
3954.798, 5134.785
3956.727, 5147.073
3958.655, 5167.242
3960.583, 5172.513
3962.512, 5134.824
3964.440, 5108.473
3966.369, 5116.375
3968.297, 5140.958
3970.226, 5152.966
3972.154, 5113.906
3974.083, 5088.398
3976.011, 5101.253
3977.940, 5055.541
3979.868, 4988.835
3981.797, 4996.922
3983.725, 5028.451
3985.654, 5077.786
3987.582, 5091.083
3989.510, 5066.116
3991.439, 5047.273
3993.367, 5026.794
3995.296, 5002.462
3997.224, 4989.792
3999.153, 4999.051
4001.081, 5015.396
4003.010, 5025.385
4004.938, 5038.001
4006.867, 5014.451
4008.795, 4962.554
4010.724, 4963.752
4012.652, 4972.101
4014.581, 4950.017
4016.509, 4941.556
4018.438, 4949.295
4020.366, 4964.682
4022.294, 4980.057
4024.223, 4973.727
4026.151, 4965.708
4028.080, 4966.778
4030.008, 4949.113
4031.937, 4926.425
4033.865, 4925.968
4035.794, 4924.633
4037.722, 4914.724
4039.651, 4895.298
4041.579, 4876.723
4043.508, 4891.743
4045.436, 4904.319
4047.365, 4894.710
4049.293, 4895.732
4051.221, 4905.889
4053.150, 4862.633
4055.078, 4825.177
4057.007, 4843.687
4058.935, 4858.772
4060.864, 4859.184
4062.792, 4846.403
4064.721, 4837.323
4066.649, 4849.074
4068.578, 4842.926
4070.506, 4815.124
4072.435, 4792.777
4074.363, 4778.769
4076.292, 4776.513
4078.220, 4766.527
4080.148, 4754.859
4082.077, 4755.966
4084.005, 4748.193
4085.934, 4750.375
4087.862, 4754.415
4089.791, 4735.866
4091.719, 4760.512
4093.648, 4805.684
4095.576, 4783.615
4097.504, 4759.151
4099.433, 4760.580
4101.361, 4749.701
4103.290, 4735.988
4105.218, 4761.178
4107.147, 4762.532
4109.075, 4704.373
4111.004, 4694.897
4112.932, 4732.654
4114.861, 4741.111
4116.789, 4720.611
4118.718, 4702.217
4120.646, 4685.400
4122.575, 4669.792
4124.503, 4655.077
4126.432, 4649.777
4128.360, 4690.193
4130.289, 4713.592
4132.217, 4681.439
4134.146, 4632.999
4136.074, 4624.977
4138.002, 4638.507
4139.931, 4632.625
4141.859, 4625.201
4143.788, 4614.844
4145.716, 4617.996
4147.645, 4641.402
4149.573, 4650.177
4151.501, 4629.571
4153.430, 4598.742
4155.358, 4584.415
4157.287, 4615.270
4159.215, 4630.208
4161.144, 4580.710
4163.072, 4553.116
4165.001, 4569.302
4166.929, 4565.496
4168.858, 4566.187
4170.786, 4612.028
4172.715, 4618.211
4174.643, 4601.848
4176.572, 4593.538
4178.500, 4589.699
4180.429, 4597.730
4182.357, 4578.522
4184.286, 4543.330
4186.214, 4521.795
4188.143, 4514.573
4190.071, 4508.249
4192.000, 4512.611
4193.928, 4532.910
4195.856, 4544.903
4197.785, 4559.950
4199.713, 4581.620
4201.642, 4566.305
4203.570, 4542.651
4205.499, 4560.153
4207.427, 4534.396
4209.355, 4447.229
4211.284, 4481.339
4213.212, 4556.800
4215.141, 4536.475
4217.069, 4518.335
4218.998, 4522.670
4220.926, 4503.198
4222.855, 4478.734
4224.783, 4472.296
4226.712, 4471.349
4228.640, 4472.949
4230.569, 4443.396
4232.497, 4419.291
4234.426, 4440.890
4236.354, 4483.911
4238.283, 4535.918
4240.211, 4497.340
4242.140, 4447.812
4244.068, 4456.682
4245.997, 4459.803
4247.925, 4452.716
4249.854, 4445.523
4251.782, 4443.323
4253.710, 4449.291
4255.639, 4465.319
4257.567, 4483.072
4259.496, 4469.485
4261.424, 4449.677
4263.353, 4431.638
4265.281, 4447.305
4267.209, 4479.923
4269.138, 4497.344
4271.066, 4494.848
4272.995, 4469.676
4274.923, 4493.123
4276.852, 4524.392
4278.780, 4485.392
4280.709, 4483.240
4282.637, 4533.969
4284.566, 4520.751
4286.494, 4488.971
4288.423, 4489.777
4290.351, 4450.345
4292.280, 4382.292
4294.208, 4429.138
4296.137, 4488.612
4298.065, 4501.994
4299.994, 4470.305
4301.922, 4423.755
4303.851, 4464.493
4305.779, 4479.404
4307.708, 4424.860
4309.636, 4421.079
4311.564, 4450.559
4313.493, 4494.373
4315.421, 4491.919
4317.350, 4439.294
4319.278, 4452.261
4321.207, 4471.063
4323.135, 4416.927
4325.063, 4417.250
4326.992, 4465.741
4328.920, 4476.024
4330.849, 4475.354
4332.777, 4477.520
4334.706, 4493.861
4336.634, 4505.826
4338.563, 4456.077
4340.491, 4436.062
4342.420, 4479.384
4344.348, 4472.626
4346.277, 4454.313
4348.205, 4479.415
4350.134, 4478.266
4352.062, 4450.616
4353.991, 4468.716
4355.919, 4478.855
4357.848, 4431.902
4359.776, 4438.170
4361.705, 4483.977
4363.633, 4545.790
4365.562, 4585.650
4367.490, 4592.928
4369.418, 4559.013
4371.347, 4511.938
4373.275, 4467.038
4375.204, 4473.092
4377.132, 4519.344
4379.061, 4525.733
4380.989, 4533.931
4382.917, 4565.004
4384.846, 4558.582
4386.774, 4537.125
4388.703, 4551.829
4390.631, 4537.362
4392.560, 4491.373
4394.488, 4513.569
4396.417, 4540.807
4398.345, 4515.651
4400.274, 4504.561
4402.202, 4508.633
4404.131, 4535.455
4406.059, 4527.275
4407.988, 4455.617
4409.916, 4472.594
4411.845, 4511.886
4413.773, 4494.664
4415.702, 4521.033
4417.630, 4574.113
4419.559, 4515.989
4421.487, 4469.363
4423.416, 4483.031
4425.344, 4491.928
4427.272, 4497.288
4429.201, 4509.716
4431.129, 4491.783
4433.058, 4458.693
4434.986, 4532.140
4436.915, 4559.998
4438.843, 4454.071
4440.771, 4484.760
4442.700, 4556.256
4444.628, 4493.416
4446.557, 4463.087
4448.485, 4485.092
4450.414, 4497.427
4452.342, 4504.296
4454.271, 4507.715
4456.199, 4501.074
4458.128, 4499.648
4460.056, 4543.122
4461.985, 4537.064
4463.913, 4478.395
4465.842, 4436.512
4467.770, 4429.248
4469.699, 4468.098
4471.627, 4451.231
4473.556, 4426.076
4475.484, 4485.235
4477.413, 4497.042
4479.341, 4456.716
4481.270, 4460.009
4483.198, 4458.850
4485.126, 4421.042
4487.055, 4427.400
4488.983, 4452.384
4490.912, 4468.030
4492.840, 4472.410
4494.769, 4471.039
4496.697, 4490.569
4498.625, 4505.540
4500.554, 4507.064
4502.482, 4471.041
4504.411, 4432.951
4506.339, 4419.332
4508.268, 4456.941
4510.196, 4516.067
4512.125, 4507.709
4514.053, 4496.301
4515.982, 4499.486
4517.910, 4502.248
4519.839, 4486.323
4521.767, 4433.177
4523.696, 4417.605
4525.624, 4433.627
4527.553, 4479.192
4529.481, 4492.765
4531.410, 4474.540
4533.338, 4486.205
4535.267, 4487.623
4537.195, 4453.309
4539.124, 4414.448
4541.052, 4413.383
4542.980, 4525.935
4544.909, 4531.413
4546.837, 4464.616
4548.766, 4473.939
4550.694, 4493.189
4552.623, 4501.906
4554.551, 4465.166
4556.479, 4435.339
4558.408, 4453.613
4560.336, 4462.210
4562.265, 4465.488
4564.193, 4469.171
4566.122, 4477.786
4568.050, 4489.893
4569.979, 4506.328
4571.907, 4497.410
4573.836, 4461.875
4575.764, 4476.922
4577.693, 4503.133
4579.621, 4520.296
4581.550, 4484.418
4583.478, 4432.921
4585.407, 4425.711
4587.335, 4408.460
4589.264, 4387.638
4591.192, 4426.748
4593.121, 4452.142
4595.049, 4446.263
4596.978, 4443.675
4598.906, 4437.660
4600.834, 4417.583
4602.763, 4419.342
4604.691, 4430.971
4606.620, 4439.312
4608.548, 4436.899
4610.477, 4428.181
4612.405, 4429.132
4614.333, 4425.929
4616.262, 4415.058
4618.190, 4378.229
4620.119, 4375.780
4622.047, 4462.123
4623.976, 4451.131
4625.904, 4412.891
4627.833, 4409.753
4629.761, 4411.984
4631.690, 4418.841
4633.618, 4439.971
4635.547, 4449.704
4637.475, 4449.590
4639.404, 4479.941
4641.332, 4458.574
4643.261, 4358.375
4645.189, 4382.895
4647.118, 4419.583
4649.046, 4407.896
4650.975, 4429.144
4652.903, 4452.072
4654.832, 4431.580
4656.760, 4434.607
4658.688, 4445.050
4660.617, 4411.870
4662.545, 4408.375
4664.474, 4430.954
4666.402, 4411.727
4668.331, 4394.054
4670.259, 4390.821
4672.188, 4403.862
4674.116, 4411.925
4676.044, 4399.573
4677.973, 4411.677
4679.901, 4422.330
4681.830, 4410.910
4683.758, 4368.490
4685.687, 4336.168
4687.615, 4393.949
4689.544, 4384.209
4691.472, 4333.646
4693.401, 4365.917
4695.329, 4388.852
4697.258, 4389.606
4699.186, 4408.527
4701.115, 4409.574
4703.043, 4383.099
4704.972, 4362.427
4706.900, 4366.873
4708.829, 4413.218
4710.757, 4399.248
4712.686, 4378.201
4714.614, 4394.411
4716.542, 4405.319
4718.471, 4401.742
4720.399, 4357.865
4722.328, 4375.620
4724.256, 4420.644
4726.185, 4401.915
4728.113, 4398.517
4730.042, 4412.969
4731.970, 4415.190
4733.898, 4408.215
4735.827, 4394.019
4737.755, 4377.072
4739.684, 4364.074
4741.612, 4357.698
4743.541, 4369.646
4745.469, 4368.686
4747.398, 4332.651
4749.326, 4356.295
4751.255, 4386.778
4753.183, 4385.254
4755.112, 4369.274
4757.040, 4359.592
4758.969, 4383.768
4760.897, 4380.667
4762.826, 4353.696
4764.754, 4299.545
4766.683, 4289.877
4768.611, 4316.811
4770.540, 4369.382
4772.468, 4382.117
4774.396, 4360.399
4776.325, 4335.578
4778.253, 4340.151
4780.182, 4371.108
4782.110, 4395.104
4784.039, 4391.608
4785.967, 4361.160
4787.896, 4329.379
4789.824, 4326.814
4791.752, 4361.456
4793.681, 4341.240
4795.609, 4320.008
4797.538, 4320.966
4799.466, 4361.250
4801.395, 4369.688
4803.323, 4296.316
4805.252, 4302.377
4807.180, 4327.589
4809.109, 4332.001
4811.037, 4294.620
4812.966, 4264.430
4814.894, 4289.792
4816.823, 4310.730
4818.751, 4326.500
4820.680, 4342.171
4822.608, 4327.467
4824.537, 4302.038
4826.465, 4290.497
4828.394, 4291.137
4830.322, 4302.018
4832.250, 4326.826
4834.179, 4332.794
4836.107, 4328.256
4838.036, 4331.385
4839.964, 4341.276
4841.893, 4353.917
4843.821, 4367.416
4845.750, 4362.041
4847.678, 4339.328
4849.606, 4296.661
4851.535, 4285.615
4853.463, 4300.583
4855.392, 4320.382
4857.320, 4304.555
4859.249, 4268.687
4861.177, 4275.813
4863.106, 4305.652
4865.034, 4336.644
4866.963, 4303.960
4868.891, 4285.813
4870.820, 4294.595
4872.748, 4330.080
4874.677, 4315.971
4876.605, 4262.432
4878.534, 4247.994
4880.462, 4257.862
4882.391, 4282.817
4884.319, 4303.133
4886.248, 4335.333
4888.176, 4362.093
4890.104, 4296.266
4892.033, 4252.205
4893.961, 4246.099
4895.890, 4216.979
4897.818, 4227.214
4899.747, 4267.877
4901.675, 4249.553
4903.604, 4247.635
4905.532, 4266.724
4907.460, 4252.197
4909.389, 4229.301
4911.317, 4211.571
4913.246, 4230.480
4915.174, 4248.182
4917.103, 4252.661
4919.031, 4219.630
4920.960, 4206.653
4922.888, 4222.590
4924.817, 4276.684
4926.745, 4262.015
4928.674, 4202.782
4930.602, 4209.583
4932.531, 4208.751
4934.459, 4202.706
4936.388, 4239.529
4938.316, 4250.834
4940.245, 4237.738
4942.173, 4228.370
4944.102, 4195.095
4946.030, 4157.372
4947.958, 4151.838
4949.887, 4194.165
4951.815, 4245.761
4953.744, 4242.567
4955.672, 4221.192
4957.601, 4205.285
4959.529, 4226.822
4961.458, 4240.471
4963.386, 4226.388
4965.314, 4157.896
4967.243, 4155.065
4969.171, 4172.982
4971.100, 4152.242
4973.028, 4157.721
4974.957, 4164.762
4976.885, 4151.037
4978.814, 4154.513
4980.742, 4159.463
4982.671, 4154.409
4984.599, 4136.541
4986.528, 4126.156
4988.456, 4135.211
4990.385, 4145.450
4992.313, 4153.159
4994.242, 4152.326
4996.170, 4081.217
4998.099, 4076.150
5000.027, 4161.551
5001.956, 4129.262
5003.884, 4099.627
5005.813, 4109.978
5007.741, 4201.010
5009.669, 4199.140
5011.598, 4132.854
5013.526, 4177.332
5015.455, 4169.538
5017.383, 4123.036
5019.312, 4111.745
5021.240, 4107.489
5023.168, 4112.619
5025.097, 4140.757
5027.025, 4147.783
5028.954, 4139.700
5030.882, 4117.137
5032.811, 4138.001
5034.739, 4159.182
5036.668, 4149.690
5038.596, 4079.586
5040.525, 4060.864
5042.453, 4146.868
5044.382, 4129.363
5046.310, 4084.966
5048.239, 4051.732
5050.167, 4099.032
5052.096, 4110.544
5054.024, 4081.748
5055.953, 4091.712
5057.881, 4085.968
5059.810, 4066.137
5061.738, 4054.236
5063.667, 4053.773
5065.595, 4050.862
5067.523, 4022.643
5069.452, 4044.651
5071.380, 4073.039
5073.309, 4061.275
5075.237, 4043.938
5077.166, 4038.405
5079.094, 4051.181
5081.022, 4028.267
5082.951, 4018.722
5084.879, 4032.007
5086.808, 4009.698
5088.736, 4004.401
5090.665, 4022.856
5092.593, 4050.856
5094.522, 4063.490
5096.450, 4058.039
5098.379, 4034.374
5100.307, 4005.643
5102.236, 3985.365
5104.164, 3985.777
5106.093, 4002.912
5108.021, 4020.913
5109.950, 4030.817
5111.878, 4043.096
5113.807, 4030.325
5115.735, 3990.011
5117.664, 3945.491
5119.592, 3953.126
5121.521, 3995.383
5123.449, 4002.860
5125.377, 3977.716
5127.306, 3940.582
5129.234, 3912.238
5131.163, 3953.547
5133.091, 3986.699
5135.020, 3941.619
5136.948, 3940.901
5138.876, 3950.706
5140.805, 3951.171
5142.733, 3885.822
5144.662, 3887.782
5146.590, 3937.010
5148.519, 3880.438
5150.447, 3891.789
5152.376, 3940.961
5154.304, 3959.419
5156.233, 3957.716
5158.161, 3945.377
5160.090, 3929.709
5162.018, 3930.898
5163.947, 3935.599
5165.875, 3937.930
5167.804, 3945.423
5169.732, 3924.898
5171.661, 3892.483
5173.589, 3900.427
5175.518, 3908.518
5177.446, 3913.501
5179.375, 3918.912
5181.303, 3892.499
5183.231, 3864.363
5185.160, 3852.896
5187.088, 3888.136
5189.017, 3887.079
5190.945, 3851.536
5192.874, 3864.188
5194.802, 3859.849
5196.730, 3848.160
5198.659, 3856.155
5200.587, 3860.810
5202.516, 3866.187
5204.444, 3875.726
5206.373, 3848.689
5208.301, 3820.761
5210.230, 3807.661
5212.158, 3829.616
5214.087, 3847.412
5216.015, 3841.702
5217.944, 3769.604
5219.872, 3796.200
5221.801, 3846.172
5223.729, 3866.715
5225.658, 3884.654
5227.586, 3868.016
5229.515, 3828.168
5231.443, 3837.261
5233.372, 3815.959
5235.300, 3791.676
5237.229, 3824.706
5239.157, 3837.723
5241.085, 3820.320
5243.014, 3776.653
5244.942, 3784.362
5246.871, 3791.605
5248.799, 3786.496
5250.728, 3775.116
5252.656, 3765.630
5254.584, 3763.400
5256.513, 3774.838
5258.441, 3755.722
5260.370, 3792.268
5262.298, 3880.381
5264.227, 3790.975
5266.155, 3757.036
5268.084, 3777.829
5270.012, 3786.435
5271.941, 3734.197
5273.869, 3703.459
5275.798, 3747.343
5277.726, 3741.654
5279.655, 3755.551
5281.583, 3777.684
5283.512, 3711.292
5285.440, 3701.241
5287.369, 3722.946
5289.297, 3739.641
5291.226, 3746.199
5293.154, 3734.324
5295.083, 3703.597
5297.011, 3658.251
5298.939, 3636.907
5300.868, 3651.912
5302.796, 3716.338
5304.725, 3696.963
5306.653, 3656.837
5308.582, 3637.863
5310.510, 3685.499
5312.438, 3703.412
5314.367, 3695.533
5316.295, 3703.059
5318.224, 3708.141
5320.152, 3689.737
5322.081, 3644.179
5324.009, 3629.812
5325.938, 3633.633
5327.866, 3637.226
5329.795, 3597.735
5331.723, 3636.554
5333.652, 3671.489
5335.580, 3648.171
5337.509, 3638.398
5339.437, 3622.068
5341.366, 3603.486
5343.294, 3603.539
5345.223, 3600.869
5347.151, 3602.411
5349.080, 3613.899
5351.008, 3643.208
5352.937, 3628.500
5354.865, 3596.031
5356.793, 3633.898
5358.722, 3605.553
5360.650, 3578.931
5362.579, 3601.085
5364.507, 3606.374
5366.436, 3597.261
5368.364, 3582.932
5370.292, 3577.782
5372.221, 3568.757
5374.149, 3575.090
5376.078, 3600.465
5378.006, 3583.218
5379.935, 3571.945
5381.863, 3566.758
5383.792, 3553.256
5385.720, 3541.036
5387.649, 3519.837
5389.577, 3493.387
5391.506, 3528.731
5393.434, 3502.609
5395.363, 3467.823
5397.291, 3505.199
5399.220, 3487.344
5401.148, 3476.562
5403.077, 3485.631
5405.005, 3465.460
5406.934, 3476.483
5408.862, 3488.797
5410.791, 3472.693
5412.719, 3459.964
5414.647, 3463.066
5416.576, 3473.487
5418.504, 3467.097
5420.433, 3490.234
5422.361, 3494.890
5424.290, 3463.032
5426.218, 3464.560
5428.146, 3418.139
5430.075, 3379.466
5432.003, 3445.785
5433.932, 3458.246
5435.860, 3459.483
5437.789, 3457.414
5439.717, 3420.513
5441.646, 3413.407
5443.574, 3412.885
5445.503, 3398.746
5447.431, 3392.658
5449.360, 3359.982
5451.288, 3336.947
5453.217, 3399.767
5455.145, 3394.331
5457.074, 3381.469
5459.002, 3386.677
5460.931, 3406.447
5462.859, 3394.872
5464.788, 3375.630
5466.716, 3371.301
5468.645, 3386.450
5470.573, 3399.372
5472.501, 3400.213
5474.430, 3384.198
5476.358, 3327.667
5478.287, 3298.043
5480.215, 3313.908
5482.144, 3360.426
5484.072, 3360.638
5486.000, 3342.515
5487.929, 3332.140
5489.857, 3342.075
5491.786, 3361.484
5493.714, 3355.403
5495.643, 3291.090
5497.571, 3294.752
5499.500, 3301.063
5501.428, 3294.678
5503.357, 3291.280
5505.285, 3301.514
5507.214, 3327.625
5509.142, 3358.117
5511.071, 3343.621
5512.999, 3312.126
5514.928, 3304.144
5516.856, 3336.161
5518.785, 3334.646
5520.713, 3272.714
5522.642, 3222.974
5524.570, 3277.430
5526.499, 3228.594
5528.427, 3215.776
5530.355, 3251.377
5532.284, 3267.262
5534.212, 3264.002
5536.141, 3250.057
5538.069, 3232.328
5539.998, 3214.253
5541.926, 3252.818
5543.854, 3269.554
5545.783, 3228.566
5547.711, 3241.232
5549.640, 3203.477
5551.568, 3161.277
5553.497, 3168.239
5555.425, 3160.094
5557.354, 3166.969
5559.282, 3180.101
5561.211, 3179.924
5563.139, 3152.166
5565.068, 3154.932
5566.996, 3160.143
5568.925, 3090.079
5570.853, 3184.786
5572.782, 3236.034
5574.710, 3192.140
5576.639, 3140.005
5578.567, 3149.676
5580.496, 3146.900
5582.424, 3112.713
5584.353, 3130.950
5586.281, 3144.109
5588.209, 3140.090
5590.138, 3120.919
5592.066, 3111.760
5593.995, 3095.952
5595.923, 3094.706
5597.852, 3117.366
5599.780, 3117.383
5601.708, 3089.576
5603.637, 3083.519
5605.565, 3131.424
5607.494, 3103.219
5609.422, 3123.906
5611.351, 3144.115
5613.279, 3084.242
5615.208, 3052.811
5617.136, 3036.858
5619.065, 3039.922
5620.993, 3069.020
5622.922, 3078.688
5624.850, 3082.222
5626.779, 3070.752
5628.707, 3030.859
5630.636, 3018.702
5632.564, 3036.623
5634.493, 3046.484
5636.421, 2997.402
5638.350, 3036.418
5640.278, 3048.561
5642.207, 3026.951
5644.135, 3020.696
5646.063, 3017.568
5647.992, 3003.289
5649.920, 2993.791
5651.849, 3021.185
5653.777, 3035.192
5655.706, 3024.447
5657.634, 2994.432
5659.563, 2957.564
5661.491, 2973.654
5663.419, 2993.801
5665.348, 2984.527
5667.276, 2923.067
5669.205, 2956.770
5671.133, 2986.611
5673.062, 2988.338
5674.990, 2979.251
5676.919, 2917.834
5678.847, 2898.063
5680.776, 2926.640
5682.704, 2977.792
5684.633, 2943.844
5686.561, 2953.661
5688.490, 2969.192
5690.418, 2909.087
5692.347, 2864.029
5694.275, 2857.767
5696.204, 2870.732
5698.132, 2879.403
5700.061, 2900.392
5701.989, 2918.240
5703.917, 2906.844
5705.846, 2855.692
5707.774, 2861.580
5709.703, 2881.306
5711.631, 2898.838
5713.560, 2905.346
5715.488, 2856.714
5717.417, 2859.650
5719.345, 2867.301
5721.273, 2848.979
5723.202, 2855.471
5725.130, 2847.252
5727.059, 2836.155
5728.987, 2836.088
5730.916, 2861.433
5732.844, 2846.281
5734.773, 2834.484
5736.701, 2839.263
5738.630, 2840.850
5740.558, 2830.618
5742.487, 2804.564
5744.415, 2768.041
5746.344, 2727.199
5748.272, 2768.221
5750.201, 2789.138
5752.129, 2784.668
5754.058, 2782.508
5755.986, 2806.170
5757.915, 2799.240
5759.843, 2779.483
5761.771, 2771.572
5763.700, 2774.065
5765.628, 2784.899
5767.557, 2797.338
5769.485, 2799.091
5771.414, 2764.186
5773.342, 2722.230
5775.271, 2734.839
5777.199, 2771.211
5779.127, 2730.649
5781.056, 2748.681
5782.984, 2756.633
5784.913, 2750.998
5786.841, 2755.747
5788.770, 2711.856
5790.698, 2721.105
5792.627, 2728.119
5794.555, 2689.440
5796.484, 2771.028
5798.412, 2745.711
5800.341, 2691.715
5802.269, 2678.152
5804.198, 2752.672
5806.126, 2708.846
5808.055, 2676.475
5809.983, 2673.081
5811.912, 2647.905
5813.840, 2626.478
5815.769, 2643.469
5817.697, 2670.825
5819.625, 2679.350
5821.554, 2690.773
5823.482, 2659.386
5825.411, 2644.316
5827.339, 2660.312
5829.268, 2653.427
5831.196, 2634.491
5833.125, 2646.499
5835.053, 2647.915
5836.981, 2577.500
5838.910, 2588.036
5840.838, 2592.400
5842.767, 2584.971
5844.695, 2579.962
5846.624, 2596.141
5848.552, 2627.072
5850.481, 2646.401
5852.409, 2634.112
5854.338, 2560.436
5856.266, 2582.001
5858.195, 2568.140
5860.123, 2537.013
5862.052, 2537.324
5863.980, 2558.004
5865.909, 2587.764
5867.837, 2574.616
5869.766, 2532.883
5871.694, 2540.000
5873.623, 2577.759
5875.551, 2571.702
5877.479, 2562.925
5879.408, 2592.190
5881.336, 2525.361
5883.265, 2523.774
5885.193, 2549.911
5887.122, 2554.387
5889.050, 2509.904
5890.979, 2500.656
5892.907, 2508.629
5894.835, 2520.677
5896.764, 2531.700
5898.692, 2550.758
5900.621, 2527.341
5902.549, 2503.796
5904.478, 2495.270
5906.406, 2483.047
5908.335, 2477.731
5910.263, 2503.298
5912.192, 2529.374
5914.120, 2528.708
5916.049, 2508.547
5917.977, 2482.941
5919.906, 2439.993
5921.834, 2413.224
5923.763, 2465.822
5925.691, 2468.498
5927.620, 2449.413
5929.548, 2433.740
5931.477, 2430.087
5933.405, 2428.105
5935.333, 2446.768
5937.262, 2468.712
5939.190, 2462.592
5941.119, 2417.929
5943.047, 2447.653
5944.976, 2443.264
5946.904, 2443.695
5948.833, 2455.735
5950.761, 2451.783
5952.689, 2416.355
5954.618, 2393.621
5956.546, 2379.562
5958.475, 2376.738
5960.403, 2411.417
5962.332, 2429.924
5964.260, 2351.141
5966.189, 2321.037
5968.117, 2423.559
5970.046, 2375.790
5971.974, 2364.487
5973.903, 2369.865
5975.831, 2373.159
5977.760, 2370.468
5979.688, 2332.299
5981.617, 2384.161
5983.545, 2393.901
5985.474, 2352.862
5987.402, 2373.112
5989.331, 2360.119
5991.259, 2368.573
5993.188, 2368.945
5995.116, 2350.266
5997.044, 2351.012
5998.973, 2327.385
6000.901, 2310.165
6002.830, 2322.846
6004.758, 2358.850
6006.687, 2354.008
6008.615, 2338.797
6010.543, 2310.953
6012.472, 2291.972
6014.400, 2292.685
6016.329, 2253.404
6018.257, 2286.063
6020.186, 2321.079
6022.114, 2352.616
6024.043, 2389.749
6025.971, 2284.590
6027.900, 2257.907
6029.828, 2272.800
6031.757, 2289.747
6033.685, 2292.024
6035.614, 2301.480
6037.542, 2242.612
6039.471, 2240.021
6041.399, 2270.479
6043.328, 2240.107
6045.256, 2255.668
6047.185, 2245.719
6049.113, 2243.391
6051.042, 2240.599
6052.970, 2207.601
6054.898, 2238.770
6056.827, 2273.739
6058.755, 2242.929
6060.684, 2200.725
6062.612, 2241.765
6064.541, 2198.677
6066.469, 2180.827
6068.397, 2212.059
6070.326, 2240.592
6072.254, 2204.032
6074.183, 2157.818
6076.111, 2168.799
6078.040, 2170.901
6079.968, 2163.145
6081.897, 2173.315
6083.825, 2168.667
6085.754, 2191.449
6087.682, 2193.882
6089.611, 2162.077
6091.539, 2113.050
6093.468, 2098.781
6095.396, 2163.597
6097.325, 2162.148
6099.253, 2138.917
6101.182, 2156.394
6103.110, 2166.897
6105.039, 2120.708
6106.967, 2093.118
6108.896, 2122.919
6110.824, 2178.438
6112.752, 2153.140
6114.681, 2118.700
6116.609, 2131.287
6118.538, 2161.185
6120.466, 2163.303
6122.395, 2095.454
6124.323, 2108.747
6126.251, 2098.941
6128.180, 2105.566
6130.108, 2120.213
6132.037, 2102.953
6133.965, 2106.095
6135.894, 2091.122
6137.822, 2074.719
6139.751, 2082.919
6141.679, 2112.113
6143.608, 2069.859
6145.536, 2115.695
6147.465, 2115.226
6149.393, 2082.669
6151.322, 2064.870
6153.250, 2094.223
6155.179, 2063.348
6157.107, 2055.564
6159.036, 2052.032
6160.964, 2041.519
6162.893, 2030.992
6164.821, 2013.348
6166.750, 2040.634
6168.678, 2054.442
6170.606, 2036.719
6172.535, 2009.093
6174.463, 2035.274
6176.392, 2009.818
6178.320, 2043.298
6180.249, 2055.467
6182.177, 2022.432
6184.105, 1998.570
6186.034, 1976.872
6187.962, 1970.191
6189.891, 1979.290
6191.819, 1994.153
6193.748, 2001.341
6195.676, 1984.567
6197.605, 1995.379
6199.533, 1980.935
6201.462, 1955.332
6203.390, 1956.698
6205.319, 1998.805
6207.247, 1956.714
6209.176, 1955.106
6211.104, 1960.580
6213.033, 1955.140
6214.961, 1943.499
6216.890, 1939.707
6218.818, 1946.444
6220.747, 1949.714
6222.675, 1938.234
6224.604, 1938.700
6226.532, 1970.928
6228.460, 1973.508
6230.389, 1910.470
6232.317, 1910.860
6234.246, 1917.584
6236.174, 1916.571
6238.103, 1966.434
6240.031, 1947.827
6241.959, 1929.496
6243.888, 1911.561
6245.816, 1903.682
6247.745, 1899.625
6249.673, 1862.991
6251.602, 1890.845
6253.530, 1857.289
6255.459, 1855.019
6257.387, 1880.482
6259.316, 1881.654
6261.244, 1859.428
6263.173, 1816.729
6265.101, 1831.675
6267.030, 1882.421
6268.958, 1907.270
6270.887, 1871.539
6272.815, 1843.903
6274.744, 1856.679
6276.672, 1872.705
6278.601, 1860.194
6280.529, 1822.047
6282.458, 1785.749
6284.386, 1798.432
6286.314, 1809.118
6288.243, 1839.881
6290.171, 1832.337
6292.100, 1806.659
6294.028, 1829.728
6295.957, 1847.365
6297.885, 1804.306
6299.813, 1784.190
6301.742, 1807.237
6303.670, 1835.315
6305.599, 1822.858
6307.527, 1790.918
6309.456, 1768.112
6311.384, 1809.744
6313.313, 1827.487
6315.241, 1808.654
6317.170, 1806.435
6319.098, 1779.811
6321.027, 1802.736
6322.955, 1828.614
6324.884, 1778.865
6326.812, 1717.417
6328.741, 1743.245
6330.669, 1770.286
6332.598, 1769.283
6334.526, 1772.566
6336.455, 1780.237
6338.383, 1761.334
6340.312, 1721.111
6342.240, 1775.954
6344.168, 1734.983
6346.097, 1747.503
6348.025, 1742.792
6349.954, 1731.570
6351.882, 1743.793
6353.811, 1753.394
6355.739, 1756.902
6357.667, 1720.227
6359.596, 1754.888
6361.524, 1751.751
6363.453, 1703.226
6365.381, 1727.163
6367.310, 1723.312
6369.238, 1716.776
6371.167, 1725.648
6373.095, 1707.660
6375.024, 1693.892
6376.952, 1718.315
6378.881, 1694.121
6380.809, 1761.714
6382.738, 1708.890
6384.666, 1680.605
6386.595, 1687.935
6388.523, 1694.410
6390.452, 1711.404
6392.380, 1694.967
6394.309, 1683.229
6396.237, 1664.893
6398.166, 1640.827
6400.094, 1652.123
6402.022, 1704.320
6403.951, 1698.903
6405.879, 1671.756
6407.808, 1627.041
6409.736, 1628.947
6411.665, 1642.269
6413.593, 1640.961
6415.521, 1646.742
6417.450, 1652.462
6419.378, 1639.763
6421.307, 1635.289
6423.235, 1653.698
6425.164, 1671.232
6427.092, 1663.005
6429.021, 1626.048
6430.949, 1646.632
6432.878, 1617.443
6434.806, 1619.036
6436.735, 1651.326
6438.663, 1654.260
6440.592, 1614.465
6442.520, 1618.265
6444.449, 1627.410
6446.377, 1620.914
6448.306, 1628.009
6450.234, 1606.318
6452.163, 1573.900
6454.091, 1586.475
6456.020, 1628.409
6457.948, 1639.792
6459.876, 1577.610
6461.805, 1584.730
6463.733, 1603.418
6465.662, 1587.114
6467.590, 1570.179
6469.519, 1609.639
6471.447, 1557.315
6473.375, 1593.262
6475.304, 1597.917
6477.232, 1568.560
6479.161, 1549.025
6481.089, 1569.781
6483.018, 1640.970
6484.946, 1599.940
6486.875, 1549.663
6488.803, 1541.452
6490.732, 1555.630
6492.660, 1561.761
6494.589, 1557.120
6496.517, 1570.325
6498.446, 1573.531
6500.374, 1562.371
6502.303, 1554.595
6504.231, 1512.774
6506.160, 1500.859
6508.088, 1539.190
6510.017, 1537.300
6511.945, 1562.980
6513.874, 1534.214
6515.802, 1497.416
6517.730, 1501.035
6519.659, 1520.044
6521.587, 1536.971
6523.516, 1551.739
6525.444, 1517.467
6527.373, 1534.629
6529.301, 1488.180
6531.229, 1483.243
6533.158, 1503.388
6535.086, 1500.224
6537.015, 1483.806
6538.943, 1510.562
6540.872, 1544.865
6542.800, 1511.486
6544.729, 1472.244
6546.657, 1495.261
6548.586, 1490.507
6550.514, 1459.838
6552.443, 1482.856
6554.371, 1494.634
6556.300, 1509.477
6558.228, 1514.608
6560.157, 1478.537
6562.085, 1467.331
6564.014, 1469.264
6565.942, 1468.436
6567.871, 1490.932
6569.799, 1512.261
6571.728, 1499.507
6573.656, 1455.477
6575.584, 1453.971
6577.513, 1445.413
6579.441, 1446.156
6581.370, 1476.742
6583.298, 1490.652
6585.227, 1463.048
6587.155, 1437.184
6589.083, 1456.621
6591.012, 1442.633
6592.940, 1440.781
6594.869, 1446.147
6596.797, 1440.592
6598.726, 1446.742
6600.654, 1449.476
6602.583, 1414.426
6604.511, 1408.983
6606.440, 1426.435
6608.368, 1402.153
6610.297, 1400.270
6612.225, 1425.804
6614.154, 1403.675
6616.082, 1418.426
6618.011, 1442.139
6619.939, 1418.072
6621.868, 1395.617
6623.796, 1407.475
6625.725, 1410.693
##END=



