##NAMES=Alfredopetrovite
##RRUFFID=R210014
##IDEAL CHEMISTRY=Al_2_(Se^4+^O_3_)_3_·6H_2_O
##LOCALITY=El Dragon mine, Potosi, Bolivia
##OWNER=RRUFF
##SOURCE=Bob Jenkins
##DESCRIPTION=Colorless irregular crystals, intergrown with blue chalcomenite, and colorless massive anglesite, on the matrix of krut'aite.
##STATUS=The identification of this mineral has been confirmed by X-ray diffraction
##URL=https://www.rruff.net/odr/rruff_sample/R210014
##DIFFRACTION SAMPLE DESCRIPTION=Single crystal, powder profile is calculated
##CELL PARAMETERS=a: 8.848 b: 8.848 c: 10.774 alpha: 90 beta: 90 gamma: 120 volume: 730.5 crystal system: hexagonal
##FILETYPE=Raman RAW
##RAMAN WAVELENGTH=780

7.084375e+001, 1.193607e+003
7.277222e+001, 1.084463e+003
7.470068e+001, 1.070976e+003
7.662915e+001, 1.146610e+003
7.855762e+001, 1.315774e+003
8.048608e+001, 1.655539e+003
8.241455e+001, 2.022699e+003
8.434302e+001, 2.355546e+003
8.627148e+001, 2.647159e+003
8.819995e+001, 2.714754e+003
9.012842e+001, 2.485469e+003
9.205688e+001, 2.273539e+003
9.398535e+001, 2.134929e+003
9.591382e+001, 1.968578e+003
9.784229e+001, 1.833747e+003
9.977075e+001, 1.837372e+003
1.016992e+002, 1.802027e+003
1.036277e+002, 1.735264e+003
1.055562e+002, 1.654803e+003
1.074846e+002, 1.503290e+003
1.094131e+002, 1.394428e+003
1.113416e+002, 1.439584e+003
1.132700e+002, 1.602862e+003
1.151985e+002, 1.644960e+003
1.171270e+002, 1.553147e+003
1.190554e+002, 1.424899e+003
1.209839e+002, 1.237315e+003
1.229124e+002, 1.068173e+003
1.248408e+002, 9.739587e+002
1.267693e+002, 9.450830e+002
1.286978e+002, 9.270290e+002
1.306262e+002, 9.245231e+002
1.325547e+002, 9.095195e+002
1.344832e+002, 8.642856e+002
1.364116e+002, 8.137328e+002
1.383401e+002, 7.685313e+002
1.402686e+002, 7.292953e+002
1.421970e+002, 6.955849e+002
1.441255e+002, 6.666014e+002
1.460540e+002, 6.475596e+002
1.479824e+002, 6.450655e+002
1.499109e+002, 6.469597e+002
1.518394e+002, 6.520021e+002
1.537678e+002, 6.565513e+002
1.556963e+002, 6.527186e+002
1.576248e+002, 6.399613e+002
1.595532e+002, 6.278127e+002
1.614817e+002, 6.125311e+002
1.634102e+002, 6.049974e+002
1.653386e+002, 6.076960e+002
1.672671e+002, 6.213329e+002
1.691956e+002, 6.522786e+002
1.711240e+002, 6.991035e+002
1.730525e+002, 7.308116e+002
1.749810e+002, 7.414017e+002
1.769094e+002, 7.370923e+002
1.788379e+002, 7.059490e+002
1.807664e+002, 6.697576e+002
1.826948e+002, 6.481970e+002
1.846233e+002, 6.391526e+002
1.865518e+002, 6.354302e+002
1.884802e+002, 6.358604e+002
1.904087e+002, 6.436071e+002
1.923372e+002, 6.582557e+002
1.942656e+002, 6.806662e+002
1.961941e+002, 7.105438e+002
1.981226e+002, 7.489796e+002
2.000510e+002, 8.006069e+002
2.019795e+002, 8.695791e+002
2.039080e+002, 9.417805e+002
2.058364e+002, 1.029329e+003
2.077649e+002, 1.104501e+003
2.096934e+002, 1.146590e+003
2.116218e+002, 1.176465e+003
2.135503e+002, 1.214157e+003
2.154788e+002, 1.258549e+003
2.174072e+002, 1.322521e+003
2.193357e+002, 1.431890e+003
2.212642e+002, 1.516780e+003
2.231926e+002, 1.580878e+003
2.251211e+002, 1.596112e+003
2.270496e+002, 1.532676e+003
2.289780e+002, 1.409073e+003
2.309065e+002, 1.297688e+003
2.328350e+002, 1.198498e+003
2.347634e+002, 1.113790e+003
2.366919e+002, 1.047219e+003
2.386204e+002, 9.899742e+002
2.405488e+002, 9.396481e+002
2.424773e+002, 8.950486e+002
2.444058e+002, 8.540331e+002
2.463342e+002, 8.165810e+002
2.482627e+002, 7.901049e+002
2.501912e+002, 7.738490e+002
2.521196e+002, 7.690920e+002
2.540481e+002, 7.806680e+002
2.559766e+002, 7.993232e+002
2.579050e+002, 8.247761e+002
2.598335e+002, 8.519807e+002
2.617620e+002, 8.694144e+002
2.636904e+002, 8.776625e+002
2.656189e+002, 8.686244e+002
2.675474e+002, 8.349399e+002
2.694758e+002, 7.988578e+002
2.714043e+002, 7.635416e+002
2.733328e+002, 7.342729e+002
2.752612e+002, 7.155604e+002
2.771897e+002, 7.072366e+002
2.791182e+002, 7.060782e+002
2.810466e+002, 7.112314e+002
2.829751e+002, 7.277941e+002
2.849036e+002, 7.548721e+002
2.868320e+002, 7.979948e+002
2.887605e+002, 8.584808e+002
2.906890e+002, 9.354827e+002
2.926174e+002, 1.038059e+003
2.945459e+002, 1.159124e+003
2.964744e+002, 1.264310e+003
2.984028e+002, 1.355020e+003
3.003313e+002, 1.418031e+003
3.022598e+002, 1.442302e+003
3.041882e+002, 1.446437e+003
3.061167e+002, 1.433837e+003
3.080452e+002, 1.406423e+003
3.099736e+002, 1.365093e+003
3.119021e+002, 1.311180e+003
3.138306e+002, 1.245572e+003
3.157590e+002, 1.164277e+003
3.176875e+002, 1.084211e+003
3.196160e+002, 9.985687e+002
3.215445e+002, 9.267872e+002
3.234729e+002, 8.723090e+002
3.254014e+002, 8.413280e+002
3.273299e+002, 8.386561e+002
3.292583e+002, 8.640830e+002
3.311868e+002, 9.251115e+002
3.331153e+002, 1.043584e+003
3.350437e+002, 1.148851e+003
3.369722e+002, 1.264633e+003
3.389007e+002, 1.327540e+003
3.408291e+002, 1.287554e+003
3.427576e+002, 1.190827e+003
3.446861e+002, 1.079040e+003
3.466145e+002, 9.573485e+002
3.485430e+002, 8.640148e+002
3.504715e+002, 8.046048e+002
3.523999e+002, 7.687841e+002
3.543284e+002, 7.697975e+002
3.562569e+002, 7.753340e+002
3.581853e+002, 7.819321e+002
3.601138e+002, 7.793388e+002
3.620423e+002, 7.553225e+002
3.639707e+002, 7.135055e+002
3.658992e+002, 6.768282e+002
3.678277e+002, 6.442487e+002
3.697561e+002, 6.204222e+002
3.716846e+002, 6.073500e+002
3.736131e+002, 5.994698e+002
3.755415e+002, 5.957837e+002
3.774700e+002, 5.961935e+002
3.793985e+002, 6.000699e+002
3.813269e+002, 6.076527e+002
3.832554e+002, 6.191127e+002
3.851839e+002, 6.339119e+002
3.871123e+002, 6.559462e+002
3.890408e+002, 6.821840e+002
3.909693e+002, 7.212155e+002
3.928977e+002, 7.592830e+002
3.948262e+002, 8.348281e+002
3.967547e+002, 9.740122e+002
3.986831e+002, 1.155864e+003
4.006116e+002, 1.390162e+003
4.025401e+002, 1.667747e+003
4.044685e+002, 1.779561e+003
4.063970e+002, 1.711097e+003
4.083255e+002, 1.591148e+003
4.102539e+002, 1.406250e+003
4.121824e+002, 1.240794e+003
4.141109e+002, 1.134687e+003
4.160393e+002, 1.057845e+003
4.179678e+002, 9.946131e+002
4.198963e+002, 9.423029e+002
4.218247e+002, 8.940068e+002
4.237532e+002, 8.496862e+002
4.256817e+002, 8.087716e+002
4.276101e+002, 7.700846e+002
4.295386e+002, 7.394622e+002
4.314671e+002, 7.214138e+002
4.333955e+002, 7.085225e+002
4.353240e+002, 6.986682e+002
4.372525e+002, 6.916968e+002
4.391809e+002, 6.873737e+002
4.411094e+002, 6.859928e+002
4.430379e+002, 6.888583e+002
4.449663e+002, 6.959910e+002
4.468948e+002, 7.014995e+002
4.488233e+002, 7.039108e+002
4.507517e+002, 7.063905e+002
4.526802e+002, 7.122629e+002
4.546087e+002, 7.153032e+002
4.565371e+002, 7.122792e+002
4.584656e+002, 7.048079e+002
4.603941e+002, 6.941512e+002
4.623225e+002, 6.807389e+002
4.642510e+002, 6.649962e+002
4.661795e+002, 6.466584e+002
4.681079e+002, 6.301510e+002
4.700364e+002, 6.159686e+002
4.719649e+002, 6.039652e+002
4.738933e+002, 5.946599e+002
4.758218e+002, 5.867899e+002
4.777503e+002, 5.795253e+002
4.796787e+002, 5.735924e+002
4.816072e+002, 5.697899e+002
4.835357e+002, 5.679487e+002
4.854641e+002, 5.676804e+002
4.873926e+002, 5.688893e+002
4.893211e+002, 5.725347e+002
4.912495e+002, 5.796178e+002
4.931780e+002, 5.878005e+002
4.951065e+002, 5.951012e+002
4.970349e+002, 6.058161e+002
4.989634e+002, 6.213025e+002
5.008919e+002, 6.415239e+002
5.028203e+002, 6.646675e+002
5.047488e+002, 6.928944e+002
5.066773e+002, 7.299991e+002
5.086057e+002, 7.755914e+002
5.105342e+002, 8.362421e+002
5.124626e+002, 9.157324e+002
5.143911e+002, 1.004603e+003
5.163196e+002, 1.113197e+003
5.182480e+002, 1.213887e+003
5.201765e+002, 1.312323e+003
5.221050e+002, 1.381843e+003
5.240334e+002, 1.406534e+003
5.259619e+002, 1.392575e+003
5.278904e+002, 1.335324e+003
5.298188e+002, 1.243063e+003
5.317473e+002, 1.158496e+003
5.336758e+002, 1.081444e+003
5.356042e+002, 1.016385e+003
5.375327e+002, 9.645498e+002
5.394612e+002, 9.208754e+002
5.413896e+002, 8.868586e+002
5.433181e+002, 8.562269e+002
5.452466e+002, 8.280892e+002
5.471750e+002, 8.000568e+002
5.491035e+002, 7.702012e+002
5.510320e+002, 7.396334e+002
5.529604e+002, 7.089594e+002
5.548889e+002, 6.788312e+002
5.568174e+002, 6.547825e+002
5.587458e+002, 6.368258e+002
5.606743e+002, 6.194875e+002
5.626028e+002, 6.019231e+002
5.645313e+002, 5.867534e+002
5.664598e+002, 5.746733e+002
5.683882e+002, 5.651019e+002
5.703167e+002, 5.590447e+002
5.722452e+002, 5.536802e+002
5.741736e+002, 5.468428e+002
5.761021e+002, 5.396140e+002
5.780306e+002, 5.334758e+002
5.799590e+002, 5.284228e+002
5.818875e+002, 5.246207e+002
5.838160e+002, 5.219859e+002
5.857444e+002, 5.182796e+002
5.876729e+002, 5.128011e+002
5.896014e+002, 5.090903e+002
5.915298e+002, 5.094490e+002
5.934583e+002, 5.089802e+002
5.953868e+002, 5.056449e+002
5.973152e+002, 5.021513e+002
5.992437e+002, 4.996763e+002
6.011722e+002, 4.979528e+002
6.031006e+002, 4.968329e+002
6.050291e+002, 4.961855e+002
6.069576e+002, 4.958009e+002
6.088860e+002, 4.956282e+002
6.108145e+002, 4.955966e+002
6.127430e+002, 4.957815e+002
6.146714e+002, 4.953946e+002
6.165999e+002, 4.946969e+002
6.185284e+002, 4.927191e+002
6.204568e+002, 4.875783e+002
6.223853e+002, 4.838997e+002
6.243138e+002, 4.840417e+002
6.262422e+002, 4.849360e+002
6.281707e+002, 4.852257e+002
6.300992e+002, 4.847995e+002
6.320276e+002, 4.829660e+002
6.339561e+002, 4.806263e+002
6.358846e+002, 4.798370e+002
6.378130e+002, 4.803717e+002
6.397415e+002, 4.794878e+002
6.416700e+002, 4.765592e+002
6.435984e+002, 4.743560e+002
6.455269e+002, 4.726974e+002
6.474554e+002, 4.721061e+002
6.493839e+002, 4.735617e+002
6.513123e+002, 4.744189e+002
6.532408e+002, 4.736806e+002
6.551693e+002, 4.725833e+002
6.570977e+002, 4.712330e+002
6.590262e+002, 4.704984e+002
6.609547e+002, 4.712196e+002
6.628831e+002, 4.728515e+002
6.648116e+002, 4.745793e+002
6.667401e+002, 4.764719e+002
6.686685e+002, 4.787808e+002
6.705970e+002, 4.814603e+002
6.725255e+002, 4.848526e+002
6.744539e+002, 4.889072e+002
6.763824e+002, 4.938028e+002
6.783109e+002, 4.997595e+002
6.802393e+002, 5.058169e+002
6.821678e+002, 5.118013e+002
6.840963e+002, 5.178467e+002
6.860247e+002, 5.231490e+002
6.879532e+002, 5.298817e+002
6.898817e+002, 5.396348e+002
6.918101e+002, 5.505488e+002
6.937386e+002, 5.602675e+002
6.956671e+002, 5.709147e+002
6.975955e+002, 5.852363e+002
6.995240e+002, 6.030414e+002
7.014525e+002, 6.247258e+002
7.033809e+002, 6.497928e+002
7.053094e+002, 6.721091e+002
7.072379e+002, 6.918354e+002
7.091663e+002, 7.206972e+002
7.110948e+002, 7.612710e+002
7.130233e+002, 7.990338e+002
7.149517e+002, 8.336569e+002
7.168802e+002, 8.587404e+002
7.188087e+002, 8.735947e+002
7.207371e+002, 8.764775e+002
7.226656e+002, 8.633392e+002
7.245941e+002, 8.429567e+002
7.265225e+002, 8.148898e+002
7.284510e+002, 7.869995e+002
7.303795e+002, 7.658276e+002
7.323079e+002, 7.489987e+002
7.342364e+002, 7.336890e+002
7.361649e+002, 7.201158e+002
7.380933e+002, 7.084408e+002
7.400218e+002, 6.987019e+002
7.419503e+002, 6.915883e+002
7.438787e+002, 6.869313e+002
7.458072e+002, 6.816763e+002
7.477357e+002, 6.753945e+002
7.496641e+002, 6.702740e+002
7.515926e+002, 6.667845e+002
7.535211e+002, 6.639951e+002
7.554495e+002, 6.612314e+002
7.573780e+002, 6.601420e+002
7.593065e+002, 6.611174e+002
7.612349e+002, 6.635868e+002
7.631634e+002, 6.670571e+002
7.650919e+002, 6.722832e+002
7.670203e+002, 6.810170e+002
7.689488e+002, 6.900898e+002
7.708773e+002, 6.967849e+002
7.728057e+002, 7.026859e+002
7.747342e+002, 7.083481e+002
7.766627e+002, 7.150988e+002
7.785911e+002, 7.268899e+002
7.805196e+002, 7.413431e+002
7.824481e+002, 7.500295e+002
7.843765e+002, 7.534449e+002
7.863050e+002, 7.576949e+002
7.882335e+002, 7.629601e+002
7.901619e+002, 7.672278e+002
7.920904e+002, 7.701884e+002
7.940189e+002, 7.728047e+002
7.959473e+002, 7.744395e+002
7.978758e+002, 7.776734e+002
7.998043e+002, 7.823945e+002
8.017327e+002, 7.899969e+002
8.036612e+002, 8.012122e+002
8.055897e+002, 8.145512e+002
8.075181e+002, 8.312723e+002
8.094466e+002, 8.466417e+002
8.113751e+002, 8.581595e+002
8.133035e+002, 8.681043e+002
8.152320e+002, 8.767282e+002
8.171605e+002, 8.853512e+002
8.190889e+002, 8.937047e+002
8.210174e+002, 9.037228e+002
8.229459e+002, 9.179891e+002
8.248743e+002, 9.347832e+002
8.268028e+002, 9.511891e+002
8.287313e+002, 9.684992e+002
8.306597e+002, 9.892904e+002
8.325882e+002, 1.013272e+003
8.345167e+002, 1.038667e+003
8.364451e+002, 1.066197e+003
8.383736e+002, 1.099625e+003
8.403021e+002, 1.138904e+003
8.422305e+002, 1.183559e+003
8.441590e+002, 1.233575e+003
8.460875e+002, 1.288821e+003
8.480159e+002, 1.349071e+003
8.499444e+002, 1.417433e+003
8.518729e+002, 1.493069e+003
8.538013e+002, 1.583635e+003
8.557298e+002, 1.690065e+003
8.576583e+002, 1.812804e+003
8.595867e+002, 1.952452e+003
8.615152e+002, 2.107843e+003
8.634437e+002, 2.304544e+003
8.653721e+002, 2.475064e+003
8.673006e+002, 2.643016e+003
8.692291e+002, 2.720884e+003
8.711575e+002, 2.671451e+003
8.730860e+002, 2.529770e+003
8.750145e+002, 2.268390e+003
8.769429e+002, 1.977698e+003
8.788714e+002, 1.687240e+003
8.807999e+002, 1.424414e+003
8.827283e+002, 1.208717e+003
8.846568e+002, 1.033654e+003
8.865853e+002, 9.004799e+002
8.885137e+002, 7.975040e+002
8.904422e+002, 7.164625e+002
8.923707e+002, 6.527690e+002
8.942991e+002, 6.036249e+002
8.962276e+002, 5.657509e+002
8.981561e+002, 5.347271e+002
9.000845e+002, 5.095735e+002
9.020130e+002, 4.877401e+002
9.039415e+002, 4.694901e+002
9.058699e+002, 4.565287e+002
9.077984e+002, 4.482484e+002
9.097269e+002, 4.400201e+002
9.116553e+002, 4.319478e+002
9.135838e+002, 4.261634e+002
9.155123e+002, 4.227437e+002
9.174407e+002, 4.195307e+002
9.193692e+002, 4.165057e+002
9.212977e+002, 4.134583e+002
9.232261e+002, 4.101031e+002
9.251546e+002, 4.083688e+002
9.270831e+002, 4.087060e+002
9.290115e+002, 4.078682e+002
9.309400e+002, 4.053861e+002
9.328685e+002, 4.038488e+002
9.347969e+002, 4.037369e+002
9.367254e+002, 4.031906e+002
9.386539e+002, 4.018056e+002
9.405823e+002, 4.010560e+002
9.425108e+002, 4.013412e+002
9.444393e+002, 4.017426e+002
9.463677e+002, 4.024410e+002
9.482962e+002, 4.015353e+002
9.502247e+002, 3.977795e+002
9.521531e+002, 3.950079e+002
9.540816e+002, 3.945654e+002
9.560101e+002, 3.943101e+002
9.579385e+002, 3.939464e+002
9.598670e+002, 3.929546e+002
9.617955e+002, 3.905477e+002
9.637239e+002, 3.886839e+002
9.656524e+002, 3.881104e+002
9.675809e+002, 3.879481e+002
9.695093e+002, 3.883001e+002
9.714378e+002, 3.884196e+002
9.733663e+002, 3.877669e+002
9.752947e+002, 3.872451e+002
9.772232e+002, 3.875022e+002
9.791517e+002, 3.875403e+002
9.810801e+002, 3.868521e+002
9.830086e+002, 3.859285e+002
9.849371e+002, 3.847184e+002
9.868655e+002, 3.837597e+002
9.887940e+002, 3.837100e+002
9.907225e+002, 3.835081e+002
9.926509e+002, 3.823895e+002
9.945794e+002, 3.811736e+002
9.965079e+002, 3.800504e+002
9.984363e+002, 3.794323e+002
1.000365e+003, 3.795521e+002
1.002293e+003, 3.802885e+002
1.004222e+003, 3.823737e+002
1.006150e+003, 3.839310e+002
1.008079e+003, 3.832023e+002
1.010007e+003, 3.819571e+002
1.011936e+003, 3.811204e+002
1.013864e+003, 3.807337e+002
1.015793e+003, 3.809727e+002
1.017721e+003, 3.815477e+002
1.019649e+003, 3.823262e+002
1.021578e+003, 3.832854e+002
1.023506e+003, 3.848594e+002
1.025435e+003, 3.860078e+002
1.027363e+003, 3.851115e+002
1.029292e+003, 3.845037e+002
1.031220e+003, 3.865096e+002
1.033149e+003, 3.887548e+002
1.035077e+003, 3.898315e+002
1.037006e+003, 3.899469e+002
1.038934e+003, 3.881254e+002
1.040863e+003, 3.868798e+002
1.042791e+003, 3.884183e+002
1.044719e+003, 3.907495e+002
1.046648e+003, 3.932708e+002
1.048576e+003, 3.951148e+002
1.050505e+003, 3.952624e+002
1.052433e+003, 3.950755e+002
1.054362e+003, 3.951202e+002
1.056290e+003, 3.956155e+002
1.058219e+003, 3.964483e+002
1.060147e+003, 3.981385e+002
1.062076e+003, 4.021083e+002
1.064004e+003, 4.055650e+002
1.065933e+003, 4.066307e+002
1.067861e+003, 4.068515e+002
1.069790e+003, 4.059113e+002
1.071718e+003, 4.060510e+002
1.073647e+003, 4.098196e+002
1.075575e+003, 4.130959e+002
1.077504e+003, 4.133171e+002
1.079432e+003, 4.131596e+002
1.081360e+003, 4.137901e+002
1.083289e+003, 4.145963e+002
1.085217e+003, 4.152742e+002
1.087146e+003, 4.161609e+002
1.089074e+003, 4.178473e+002
1.091003e+003, 4.190450e+002
1.092931e+003, 4.184853e+002
1.094860e+003, 4.185884e+002
1.096788e+003, 4.207708e+002
1.098717e+003, 4.226375e+002
1.100645e+003, 4.235153e+002
1.102574e+003, 4.239710e+002
1.104502e+003, 4.238009e+002
1.106431e+003, 4.238582e+002
1.108359e+003, 4.246655e+002
1.110287e+003, 4.251321e+002
1.112216e+003, 4.247562e+002
1.114144e+003, 4.246263e+002
1.116073e+003, 4.247172e+002
1.118001e+003, 4.253099e+002
1.119930e+003, 4.265577e+002
1.121858e+003, 4.280035e+002
1.123787e+003, 4.305116e+002
1.125715e+003, 4.309412e+002
1.127644e+003, 4.277922e+002
1.129572e+003, 4.263599e+002
1.131501e+003, 4.277018e+002
1.133429e+003, 4.277035e+002
1.135358e+003, 4.254412e+002
1.137286e+003, 4.257615e+002
1.139214e+003, 4.292517e+002
1.141143e+003, 4.317596e+002
1.143071e+003, 4.333028e+002
1.145000e+003, 4.333819e+002
1.146928e+003, 4.320261e+002
1.148857e+003, 4.322096e+002
1.150785e+003, 4.337308e+002
1.152714e+003, 4.344151e+002
1.154642e+003, 4.347271e+002
1.156571e+003, 4.376431e+002
1.158499e+003, 4.422021e+002
1.160428e+003, 4.453398e+002
1.162356e+003, 4.473470e+002
1.164285e+003, 4.481502e+002
1.166213e+003, 4.489044e+002
1.168141e+003, 4.525130e+002
1.170070e+003, 4.567151e+002
1.171998e+003, 4.578576e+002
1.173927e+003, 4.579443e+002
1.175855e+003, 4.586549e+002
1.177784e+003, 4.602534e+002
1.179712e+003, 4.634469e+002
1.181641e+003, 4.670485e+002
1.183569e+003, 4.707282e+002
1.185498e+003, 4.738109e+002
1.187426e+003, 4.754395e+002
1.189355e+003, 4.771235e+002
1.191283e+003, 4.792638e+002
1.193212e+003, 4.819885e+002
1.195140e+003, 4.855168e+002
1.197068e+003, 4.892279e+002
1.198997e+003, 4.931093e+002
1.200925e+003, 4.969179e+002
1.202854e+003, 5.008987e+002
1.204782e+003, 5.039076e+002
1.206711e+003, 5.056340e+002
1.208639e+003, 5.071687e+002
1.210568e+003, 5.083816e+002
1.212496e+003, 5.130227e+002
1.214425e+003, 5.213223e+002
1.216353e+003, 5.284501e+002
1.218282e+003, 5.339301e+002
1.220210e+003, 5.356603e+002
1.222139e+003, 5.348329e+002
1.224067e+003, 5.380538e+002
1.225995e+003, 5.440076e+002
1.227924e+003, 5.482381e+002
1.229852e+003, 5.516984e+002
1.231781e+003, 5.566385e+002
1.233709e+003, 5.620667e+002
1.235638e+003, 5.667069e+002
1.237566e+003, 5.708696e+002
1.239495e+003, 5.749637e+002
1.241423e+003, 5.786022e+002
1.243352e+003, 5.809105e+002
1.245280e+003, 5.835161e+002
1.247209e+003, 5.882557e+002
1.249137e+003, 5.920028e+002
1.251066e+003, 5.924174e+002
1.252994e+003, 5.934757e+002
1.254922e+003, 5.961683e+002
1.256851e+003, 6.002623e+002
1.258779e+003, 6.067213e+002
1.260708e+003, 6.112840e+002
1.262636e+003, 6.128522e+002
1.264565e+003, 6.152684e+002
1.266493e+003, 6.189392e+002
1.268422e+003, 6.222052e+002
1.270350e+003, 6.250815e+002
1.272279e+003, 6.277243e+002
1.274207e+003, 6.302043e+002
1.276136e+003, 6.328406e+002
1.278064e+003, 6.358597e+002
1.279993e+003, 6.405884e+002
1.281921e+003, 6.456014e+002
1.283849e+003, 6.481428e+002
1.285778e+003, 6.503673e+002
1.287706e+003, 6.548771e+002
1.289635e+003, 6.597870e+002
1.291563e+003, 6.636799e+002
1.293492e+003, 6.678077e+002
1.295420e+003, 6.730847e+002
1.297349e+003, 6.778300e+002
1.299277e+003, 6.814523e+002
1.301206e+003, 6.845052e+002
1.303134e+003, 6.869464e+002
1.305063e+003, 6.889562e+002
1.306991e+003, 6.904551e+002
1.308920e+003, 6.944296e+002
1.310848e+003, 7.008202e+002
1.312776e+003, 7.058531e+002
1.314705e+003, 7.095909e+002
1.316633e+003, 7.124114e+002
1.318562e+003, 7.151073e+002
1.320490e+003, 7.203119e+002
1.322419e+003, 7.256546e+002
1.324347e+003, 7.255800e+002
1.326276e+003, 7.264503e+002
1.328204e+003, 7.377352e+002
1.330133e+003, 7.473679e+002
1.332061e+003, 7.451398e+002
1.333990e+003, 7.437044e+002
1.335918e+003, 7.489169e+002
1.337847e+003, 7.540045e+002
1.339775e+003, 7.560850e+002
1.341703e+003, 7.616069e+002
1.343632e+003, 7.724850e+002
1.345560e+003, 7.784103e+002
1.347489e+003, 7.789707e+002
1.349417e+003, 7.826868e+002
1.351346e+003, 7.889095e+002
1.353274e+003, 7.923179e+002
1.355203e+003, 7.957275e+002
1.357131e+003, 8.064113e+002
1.359060e+003, 8.195563e+002
1.360988e+003, 8.298332e+002
1.362917e+003, 8.396282e+002
1.364845e+003, 8.504979e+002
1.366774e+003, 8.611771e+002
1.368702e+003, 8.700203e+002
1.370630e+003, 8.814865e+002
1.372559e+003, 8.976454e+002
1.374487e+003, 9.131600e+002
1.376416e+003, 9.269637e+002
1.378344e+003, 9.426094e+002
1.380273e+003, 9.601992e+002
1.382201e+003, 9.771419e+002
1.384130e+003, 9.939832e+002
1.386058e+003, 1.012442e+003
1.387987e+003, 1.032885e+003
1.389915e+003, 1.059131e+003
1.391844e+003, 1.083640e+003
1.393772e+003, 1.094204e+003
1.395701e+003, 1.107167e+003
1.397629e+003, 1.134084e+003
1.399557e+003, 1.158759e+003
1.401486e+003, 1.174962e+003
1.403414e+003, 1.196918e+003
1.405343e+003, 1.228134e+003
1.407271e+003, 1.250240e+003
1.409200e+003, 1.262802e+003
1.411128e+003, 1.283434e+003
1.413057e+003, 1.309797e+003
1.414985e+003, 1.330149e+003
1.416914e+003, 1.347012e+003
1.418842e+003, 1.363307e+003
1.420771e+003, 1.380466e+003
1.422699e+003, 1.402265e+003
1.424628e+003, 1.421690e+003
1.426556e+003, 1.433858e+003
1.428484e+003, 1.444836e+003
1.430413e+003, 1.455943e+003
1.432341e+003, 1.466490e+003
1.434270e+003, 1.476386e+003
1.436198e+003, 1.487012e+003
1.438127e+003, 1.497973e+003
1.440055e+003, 1.506097e+003
1.441984e+003, 1.511650e+003
1.443912e+003, 1.514457e+003
1.445841e+003, 1.516325e+003
1.447769e+003, 1.518616e+003
1.449698e+003, 1.521644e+003
1.451626e+003, 1.526280e+003
1.453555e+003, 1.530280e+003
1.455483e+003, 1.533202e+003
1.457411e+003, 1.534608e+003
1.459340e+003, 1.535184e+003
1.461268e+003, 1.530563e+003
1.463197e+003, 1.521311e+003
1.465125e+003, 1.520972e+003
1.467054e+003, 1.525335e+003
1.468982e+003, 1.522956e+003
1.470911e+003, 1.516894e+003
1.472839e+003, 1.507181e+003
1.474768e+003, 1.501035e+003
1.476696e+003, 1.504940e+003
1.478625e+003, 1.506088e+003
1.480553e+003, 1.500396e+003
1.482482e+003, 1.490498e+003
1.484410e+003, 1.476154e+003
1.486339e+003, 1.467061e+003
1.488267e+003, 1.462202e+003
1.490195e+003, 1.452506e+003
1.492124e+003, 1.441342e+003
1.494052e+003, 1.436252e+003
1.495981e+003, 1.431936e+003
1.497909e+003, 1.423139e+003
1.499838e+003, 1.414098e+003
1.501766e+003, 1.406578e+003
1.503695e+003, 1.398351e+003
1.505623e+003, 1.388981e+003
1.507552e+003, 1.377973e+003
1.509480e+003, 1.365607e+003
1.511409e+003, 1.353591e+003
1.513337e+003, 1.344276e+003
1.515266e+003, 1.348021e+003
1.517194e+003, 1.351942e+003
1.519122e+003, 1.339930e+003
1.521051e+003, 1.325142e+003
1.522979e+003, 1.313053e+003
1.524908e+003, 1.303511e+003
1.526836e+003, 1.297140e+003
1.528765e+003, 1.290114e+003
1.530693e+003, 1.282146e+003
1.532622e+003, 1.272406e+003
1.534550e+003, 1.262160e+003
1.536479e+003, 1.253974e+003
1.538407e+003, 1.247738e+003
1.540336e+003, 1.245499e+003
1.542264e+003, 1.241365e+003
1.544193e+003, 1.230562e+003
1.546121e+003, 1.220081e+003
1.548049e+003, 1.210872e+003
1.549978e+003, 1.202312e+003
1.551906e+003, 1.194474e+003
1.553835e+003, 1.191383e+003
1.555763e+003, 1.190206e+003
1.557692e+003, 1.183714e+003
1.559620e+003, 1.176237e+003
1.561549e+003, 1.172116e+003
1.563477e+003, 1.166514e+003
1.565406e+003, 1.155221e+003
1.567334e+003, 1.148973e+003
1.569263e+003, 1.151280e+003
1.571191e+003, 1.146850e+003
1.573120e+003, 1.137293e+003
1.575048e+003, 1.133246e+003
1.576976e+003, 1.130812e+003
1.578905e+003, 1.122779e+003
1.580833e+003, 1.115840e+003
1.582762e+003, 1.114393e+003
1.584690e+003, 1.113141e+003
1.586619e+003, 1.110819e+003
1.588547e+003, 1.107026e+003
1.590476e+003, 1.101903e+003
1.592404e+003, 1.100272e+003
1.594333e+003, 1.100185e+003
1.596261e+003, 1.098229e+003
1.598190e+003, 1.094060e+003
1.600118e+003, 1.085727e+003
1.602047e+003, 1.078127e+003
1.603975e+003, 1.072354e+003
1.605903e+003, 1.069763e+003
1.607832e+003, 1.070308e+003
1.609760e+003, 1.069448e+003
1.611689e+003, 1.067472e+003
1.613617e+003, 1.064739e+003
1.615546e+003, 1.063192e+003
1.617474e+003, 1.067859e+003
1.619403e+003, 1.068938e+003
1.621331e+003, 1.060308e+003
1.623260e+003, 1.053392e+003
1.625188e+003, 1.049334e+003
1.627117e+003, 1.046976e+003
1.629045e+003, 1.045273e+003
1.630974e+003, 1.041122e+003
1.632902e+003, 1.036169e+003
1.634830e+003, 1.030972e+003
1.636759e+003, 1.027771e+003
1.638687e+003, 1.030463e+003
1.640616e+003, 1.027853e+003
1.642544e+003, 1.018167e+003
1.644473e+003, 1.017134e+003
1.646401e+003, 1.021113e+003
1.648330e+003, 1.017090e+003
1.650258e+003, 1.011032e+003
1.652187e+003, 1.007992e+003
1.654115e+003, 1.006107e+003
1.656044e+003, 1.005340e+003
1.657972e+003, 1.003892e+003
1.659901e+003, 1.001679e+003
1.661829e+003, 9.992860e+002
1.663757e+003, 9.967131e+002
1.665686e+003, 9.935954e+002
1.667614e+003, 9.906586e+002
1.669543e+003, 9.878318e+002
1.671471e+003, 9.869167e+002
1.673400e+003, 9.890118e+002
1.675328e+003, 9.900832e+002
1.677257e+003, 9.897314e+002
1.679185e+003, 9.866453e+002
1.681114e+003, 9.814997e+002
1.683042e+003, 9.729109e+002
1.684971e+003, 9.672010e+002
1.686899e+003, 9.688604e+002
1.688828e+003, 9.682482e+002
1.690756e+003, 9.633848e+002
1.692684e+003, 9.604164e+002
1.694613e+003, 9.586649e+002
1.696541e+003, 9.543389e+002
1.698470e+003, 9.494044e+002
1.700398e+003, 9.450158e+002
1.702327e+003, 9.431200e+002
1.704255e+003, 9.451898e+002
1.706184e+003, 9.432472e+002
1.708112e+003, 9.371733e+002
1.710041e+003, 9.321592e+002
1.711969e+003, 9.291765e+002
1.713898e+003, 9.322745e+002
1.715826e+003, 9.336527e+002
1.717755e+003, 9.267203e+002
1.719683e+003, 9.208548e+002
1.721611e+003, 9.171678e+002
1.723540e+003, 9.126991e+002
1.725468e+003, 9.073235e+002
1.727397e+003, 8.998611e+002
1.729325e+003, 8.936578e+002
1.731254e+003, 8.926938e+002
1.733182e+003, 8.916583e+002
1.735111e+003, 8.893439e+002
1.737039e+003, 8.866078e+002
1.738968e+003, 8.828571e+002
1.740896e+003, 8.727681e+002
1.742825e+003, 8.620807e+002
1.744753e+003, 8.565970e+002
1.746682e+003, 8.533952e+002
1.748610e+003, 8.523978e+002
1.750538e+003, 8.503279e+002
1.752467e+003, 8.470392e+002
1.754395e+003, 8.426389e+002
1.756324e+003, 8.378457e+002
1.758252e+003, 8.339046e+002
1.760181e+003, 8.292697e+002
1.762109e+003, 8.219633e+002
1.764038e+003, 8.209445e+002
1.765966e+003, 8.268185e+002
1.767895e+003, 8.240906e+002
1.769823e+003, 8.161741e+002
1.771752e+003, 8.069878e+002
1.773680e+003, 7.992482e+002
1.775609e+003, 7.945990e+002
1.777537e+003, 7.892615e+002
1.779465e+003, 7.829225e+002
1.781394e+003, 7.801808e+002
1.783322e+003, 7.791518e+002
1.785251e+003, 7.761157e+002
1.787179e+003, 7.733307e+002
1.789108e+003, 7.721086e+002
1.791036e+003, 7.694530e+002
1.792965e+003, 7.650103e+002
1.794893e+003, 7.606305e+002
1.796822e+003, 7.563751e+002
1.798750e+003, 7.523343e+002
1.800679e+003, 7.484967e+002
1.802607e+003, 7.449379e+002
1.804536e+003, 7.419902e+002
1.806464e+003, 7.395477e+002
1.808392e+003, 7.350475e+002
1.810321e+003, 7.307141e+002
1.812249e+003, 7.308668e+002
1.814178e+003, 7.305320e+002
1.816106e+003, 7.269297e+002
1.818035e+003, 7.235004e+002
1.819963e+003, 7.202894e+002
1.821892e+003, 7.156198e+002
1.823820e+003, 7.109854e+002
1.825749e+003, 7.079287e+002
1.827677e+003, 7.060564e+002
1.829606e+003, 7.054818e+002
1.831534e+003, 7.060776e+002
1.833463e+003, 7.069420e+002
1.835391e+003, 7.015495e+002
1.837319e+003, 6.953820e+002
1.839248e+003, 6.933435e+002
1.841176e+003, 6.921942e+002
1.843105e+003, 6.916295e+002
1.845033e+003, 6.884686e+002
1.846962e+003, 6.841800e+002
1.848890e+003, 6.834459e+002
1.850819e+003, 6.834502e+002
1.852747e+003, 6.825568e+002
1.854676e+003, 6.815986e+002
1.856604e+003, 6.806997e+002
1.858533e+003, 6.785553e+002
1.860461e+003, 6.757213e+002
1.862390e+003, 6.715255e+002
1.864318e+003, 6.708900e+002
1.866246e+003, 6.767371e+002
1.868175e+003, 6.771115e+002
1.870103e+003, 6.722172e+002
1.872032e+003, 6.696695e+002
1.873960e+003, 6.693641e+002
1.875889e+003, 6.728705e+002
1.877817e+003, 6.750016e+002
1.879746e+003, 6.747992e+002
1.881674e+003, 6.730201e+002
1.883603e+003, 6.704498e+002
1.885531e+003, 6.677925e+002
1.887460e+003, 6.664782e+002
1.889388e+003, 6.671427e+002
1.891317e+003, 6.708569e+002
1.893245e+003, 6.761653e+002
1.895173e+003, 6.716440e+002
1.897102e+003, 6.652823e+002
1.899030e+003, 6.663812e+002
1.900959e+003, 6.685292e+002
1.902887e+003, 6.704299e+002
1.904816e+003, 6.703995e+002
1.906744e+003, 6.697471e+002
1.908673e+003, 6.719138e+002
1.910601e+003, 6.737943e+002
1.912530e+003, 6.729814e+002
1.914458e+003, 6.729216e+002
1.916387e+003, 6.734166e+002
1.918315e+003, 6.699497e+002
1.920244e+003, 6.670880e+002
1.922172e+003, 6.707676e+002
1.924100e+003, 6.722440e+002
1.926029e+003, 6.687047e+002
1.927957e+003, 6.716567e+002
1.929886e+003, 6.766439e+002
1.931814e+003, 6.754044e+002
1.933743e+003, 6.721579e+002
1.935671e+003, 6.678759e+002
1.937600e+003, 6.661740e+002
1.939528e+003, 6.662335e+002
1.941457e+003, 6.636949e+002
1.943385e+003, 6.616356e+002
1.945314e+003, 6.619180e+002
1.947242e+003, 6.638771e+002
1.949171e+003, 6.668165e+002
1.951099e+003, 6.621700e+002
1.953027e+003, 6.573149e+002
1.954956e+003, 6.626085e+002
1.956884e+003, 6.656725e+002
1.958813e+003, 6.639061e+002
1.960741e+003, 6.588304e+002
1.962670e+003, 6.537963e+002
1.964598e+003, 6.557205e+002
1.966527e+003, 6.574775e+002
1.968455e+003, 6.570070e+002
1.970384e+003, 6.515863e+002
1.972312e+003, 6.435605e+002
1.974241e+003, 6.398778e+002
1.976169e+003, 6.359446e+002
1.978098e+003, 6.287609e+002
1.980026e+003, 6.233893e+002
1.981954e+003, 6.200481e+002
1.983883e+003, 6.181354e+002
1.985811e+003, 6.162883e+002
1.987740e+003, 6.144523e+002
1.989668e+003, 6.087043e+002
1.991597e+003, 5.993627e+002
1.993525e+003, 5.912924e+002
1.995454e+003, 5.851578e+002
1.997382e+003, 5.829550e+002
1.999311e+003, 5.796019e+002
2.001239e+003, 5.744384e+002
2.003168e+003, 5.685504e+002
2.005096e+003, 5.625543e+002
2.007025e+003, 5.569382e+002
2.008953e+003, 5.518329e+002
2.010881e+003, 5.472855e+002
2.012810e+003, 5.425872e+002
2.014738e+003, 5.373978e+002
2.016667e+003, 5.309515e+002
2.018595e+003, 5.251007e+002
2.020524e+003, 5.208759e+002
2.022452e+003, 5.120441e+002
2.024381e+003, 5.020448e+002
2.026309e+003, 4.974882e+002
2.028238e+003, 4.937511e+002
2.030166e+003, 4.894993e+002
2.032095e+003, 4.855729e+002
2.034023e+003, 4.809693e+002
2.035952e+003, 4.716646e+002
2.037880e+003, 4.653729e+002
2.039808e+003, 4.647496e+002
2.041737e+003, 4.600020e+002
2.043665e+003, 4.529854e+002
2.045594e+003, 4.491191e+002
2.047522e+003, 4.431361e+002
2.049451e+003, 4.331713e+002
2.051379e+003, 4.290818e+002
2.053308e+003, 4.272106e+002
2.055236e+003, 4.173126e+002
2.057165e+003, 4.102760e+002
2.059093e+003, 4.096601e+002
2.061022e+003, 4.073993e+002
2.062950e+003, 4.034108e+002
2.064879e+003, 3.977547e+002
2.066807e+003, 3.929187e+002
2.068736e+003, 3.898456e+002
2.070664e+003, 3.841890e+002
2.072593e+003, 3.775932e+002
2.074521e+003, 3.731960e+002
2.076449e+003, 3.688948e+002
2.078378e+003, 3.639510e+002
2.080306e+003, 3.608239e+002
2.082235e+003, 3.585986e+002
2.084163e+003, 3.570441e+002
2.086092e+003, 3.525692e+002
2.088020e+003, 3.437511e+002
2.089949e+003, 3.381831e+002
2.091877e+003, 3.351724e+002
2.093806e+003, 3.350372e+002
2.095734e+003, 3.324753e+002
2.097663e+003, 3.264059e+002
2.099591e+003, 3.229709e+002
2.101520e+003, 3.201051e+002
2.103448e+003, 3.155969e+002
2.105376e+003, 3.120431e+002
2.107305e+003, 3.097488e+002
2.109233e+003, 3.076569e+002
2.111162e+003, 3.052656e+002
2.113090e+003, 3.022761e+002
2.115019e+003, 2.991462e+002
2.116947e+003, 2.957950e+002
2.118876e+003, 2.900254e+002
2.120804e+003, 2.870382e+002
2.122733e+003, 2.899360e+002
2.124661e+003, 2.887780e+002
2.126590e+003, 2.845462e+002
2.128518e+003, 2.814506e+002
2.130447e+003, 2.797275e+002
2.132375e+003, 2.794807e+002
2.134303e+003, 2.771411e+002
2.136232e+003, 2.738946e+002
2.138160e+003, 2.712922e+002
2.140089e+003, 2.711074e+002
2.142017e+003, 2.732104e+002
2.143946e+003, 2.679108e+002
2.145874e+003, 2.614715e+002
2.147803e+003, 2.615652e+002
2.149731e+003, 2.603647e+002
2.151660e+003, 2.575479e+002
2.153588e+003, 2.575582e+002
2.155517e+003, 2.573975e+002
2.157445e+003, 2.546296e+002
2.159374e+003, 2.514201e+002
2.161302e+003, 2.483491e+002
2.163230e+003, 2.468007e+002
2.165159e+003, 2.457261e+002
2.167087e+003, 2.449869e+002
2.169016e+003, 2.434520e+002
2.170944e+003, 2.411862e+002
2.172873e+003, 2.378518e+002
2.174801e+003, 2.353359e+002
2.176730e+003, 2.339535e+002
2.178658e+003, 2.318317e+002
2.180587e+003, 2.307532e+002
2.182515e+003, 2.326070e+002
2.184444e+003, 2.320829e+002
2.186372e+003, 2.298342e+002
2.188301e+003, 2.300012e+002
2.190229e+003, 2.304157e+002
2.192157e+003, 2.303631e+002
2.194086e+003, 2.264892e+002
2.196014e+003, 2.219861e+002
2.197943e+003, 2.224472e+002
2.199871e+003, 2.219367e+002
2.201800e+003, 2.197542e+002
2.203728e+003, 2.202130e+002
2.205657e+003, 2.209049e+002
2.207585e+003, 2.202217e+002
2.209514e+003, 2.187818e+002
2.211442e+003, 2.169505e+002
2.213371e+003, 2.154946e+002
2.215299e+003, 2.137517e+002
2.217228e+003, 2.115648e+002
2.219156e+003, 2.095719e+002
2.221084e+003, 2.087377e+002
2.223013e+003, 2.117727e+002
2.224941e+003, 2.112309e+002
2.226870e+003, 2.078852e+002
2.228798e+003, 2.075062e+002
2.230727e+003, 2.071909e+002
2.232655e+003, 2.054087e+002
2.234584e+003, 2.045949e+002
2.236512e+003, 2.038242e+002
2.238441e+003, 2.009711e+002
2.240369e+003, 2.000065e+002
2.242298e+003, 2.010223e+002
2.244226e+003, 2.005033e+002
2.246155e+003, 1.994544e+002
2.248083e+003, 1.983246e+002
2.250011e+003, 1.975894e+002
2.251940e+003, 1.967773e+002
2.253868e+003, 1.947224e+002
2.255797e+003, 1.936410e+002
2.257725e+003, 1.938887e+002
2.259654e+003, 1.944056e+002
2.261582e+003, 1.944510e+002
2.263511e+003, 1.935231e+002
2.265439e+003, 1.928765e+002
2.267368e+003, 1.922112e+002
2.269296e+003, 1.906410e+002
2.271225e+003, 1.892845e+002
2.273153e+003, 1.884502e+002
2.275082e+003, 1.887086e+002
2.277010e+003, 1.888090e+002
2.278938e+003, 1.880850e+002
2.280867e+003, 1.867901e+002
2.282795e+003, 1.856454e+002
2.284724e+003, 1.860022e+002
2.286652e+003, 1.866831e+002
2.288581e+003, 1.871891e+002
2.290509e+003, 1.857907e+002
2.292438e+003, 1.843670e+002
2.294366e+003, 1.838737e+002
2.296295e+003, 1.820873e+002
2.298223e+003, 1.804837e+002
2.300152e+003, 1.824155e+002
2.302080e+003, 1.806035e+002
2.304009e+003, 1.764221e+002
2.305937e+003, 1.786891e+002
2.307865e+003, 1.801687e+002
2.309794e+003, 1.780050e+002
2.311722e+003, 1.778369e+002
2.313651e+003, 1.784233e+002
2.315579e+003, 1.785650e+002
2.317508e+003, 1.788018e+002
2.319436e+003, 1.786939e+002
2.321365e+003, 1.765902e+002
2.323293e+003, 1.754989e+002
2.325222e+003, 1.760257e+002
2.327150e+003, 1.747417e+002
2.329079e+003, 1.732434e+002
2.331007e+003, 1.725333e+002
2.332936e+003, 1.714745e+002
2.334864e+003, 1.703838e+002
2.336792e+003, 1.694831e+002
2.338721e+003, 1.702309e+002
2.340649e+003, 1.720642e+002
2.342578e+003, 1.721897e+002
2.344506e+003, 1.717531e+002
2.346435e+003, 1.710465e+002
2.348363e+003, 1.686999e+002
2.350292e+003, 1.668025e+002
2.352220e+003, 1.668107e+002
2.354149e+003, 1.671068e+002
2.356077e+003, 1.674106e+002
2.358006e+003, 1.678133e+002
2.359934e+003, 1.671433e+002
2.361863e+003, 1.657003e+002
2.363791e+003, 1.652851e+002
2.365719e+003, 1.652599e+002
2.367648e+003, 1.653065e+002
2.369576e+003, 1.640134e+002
2.371505e+003, 1.634776e+002
2.373433e+003, 1.658796e+002
2.375362e+003, 1.651714e+002
2.377290e+003, 1.629897e+002
2.379219e+003, 1.615554e+002
2.381147e+003, 1.627755e+002
2.383076e+003, 1.649626e+002
2.385004e+003, 1.612672e+002
2.386933e+003, 1.598261e+002
2.388861e+003, 1.625410e+002
2.390790e+003, 1.636640e+002
2.392718e+003, 1.634810e+002
2.394646e+003, 1.618781e+002
2.396575e+003, 1.591591e+002
2.398503e+003, 1.572514e+002
2.400432e+003, 1.584829e+002
2.402360e+003, 1.588924e+002
2.404289e+003, 1.582623e+002
2.406217e+003, 1.563062e+002
2.408146e+003, 1.563914e+002
2.410074e+003, 1.580165e+002
2.412003e+003, 1.549790e+002
2.413931e+003, 1.524642e+002
2.415860e+003, 1.522201e+002
2.417788e+003, 1.524071e+002
2.419717e+003, 1.531073e+002
2.421645e+003, 1.543670e+002
2.423573e+003, 1.539759e+002
2.425502e+003, 1.529891e+002
2.427430e+003, 1.525228e+002
2.429359e+003, 1.521338e+002
2.431287e+003, 1.518208e+002
2.433216e+003, 1.516832e+002
2.435144e+003, 1.518445e+002
2.437073e+003, 1.519026e+002
2.439001e+003, 1.506707e+002
2.440930e+003, 1.483219e+002
2.442858e+003, 1.455869e+002
2.444787e+003, 1.463997e+002
2.446715e+003, 1.480517e+002
2.448644e+003, 1.493400e+002
2.450572e+003, 1.474336e+002
2.452500e+003, 1.455515e+002
2.454429e+003, 1.465182e+002
2.456357e+003, 1.447548e+002
2.458286e+003, 1.425873e+002
2.460214e+003, 1.428129e+002
2.462143e+003, 1.438005e+002
2.464071e+003, 1.448581e+002
2.466000e+003, 1.454773e+002
2.467928e+003, 1.441515e+002
2.469857e+003, 1.419362e+002
2.471785e+003, 1.420778e+002
2.473714e+003, 1.426382e+002
2.475642e+003, 1.429291e+002
2.477571e+003, 1.414054e+002
2.479499e+003, 1.397492e+002
2.481427e+003, 1.384803e+002
2.483356e+003, 1.372059e+002
2.485284e+003, 1.367376e+002
2.487213e+003, 1.373651e+002
2.489141e+003, 1.358588e+002
2.491070e+003, 1.344989e+002
2.492998e+003, 1.346234e+002
2.494927e+003, 1.357283e+002
2.496855e+003, 1.362977e+002
2.498784e+003, 1.351037e+002
2.500712e+003, 1.341571e+002
2.502641e+003, 1.332956e+002
2.504569e+003, 1.319136e+002
2.506498e+003, 1.321761e+002
2.508426e+003, 1.324493e+002
2.510354e+003, 1.284935e+002
2.512283e+003, 1.277549e+002
2.514211e+003, 1.292990e+002
2.516140e+003, 1.293568e+002
2.518068e+003, 1.295887e+002
2.519997e+003, 1.297681e+002
2.521925e+003, 1.281372e+002
2.523854e+003, 1.275361e+002
2.525782e+003, 1.279490e+002
2.527711e+003, 1.270843e+002
2.529639e+003, 1.261907e+002
2.531568e+003, 1.254782e+002
2.533496e+003, 1.231636e+002
2.535425e+003, 1.232315e+002
2.537353e+003, 1.264681e+002
2.539281e+003, 1.231472e+002
2.541210e+003, 1.208022e+002
2.543138e+003, 1.223710e+002
2.545067e+003, 1.227197e+002
2.546995e+003, 1.229306e+002
2.548924e+003, 1.235209e+002
2.550852e+003, 1.208805e+002
2.552781e+003, 1.198389e+002
2.554709e+003, 1.228962e+002
2.556638e+003, 1.220776e+002
2.558566e+003, 1.209882e+002
2.560495e+003, 1.217945e+002
2.562423e+003, 1.210593e+002
2.564352e+003, 1.199330e+002
2.566280e+003, 1.192618e+002
2.568208e+003, 1.170353e+002
2.570137e+003, 1.146675e+002
2.572065e+003, 1.131485e+002
2.573994e+003, 1.146204e+002
2.575922e+003, 1.159899e+002
2.577851e+003, 1.147709e+002
2.579779e+003, 1.140133e+002
2.581708e+003, 1.129743e+002
2.583636e+003, 1.106051e+002
2.585565e+003, 1.101680e+002
2.587493e+003, 1.103033e+002
2.589422e+003, 1.093526e+002
2.591350e+003, 1.111459e+002
2.593279e+003, 1.123959e+002
2.595207e+003, 1.085268e+002
2.597135e+003, 1.081043e+002
2.599064e+003, 1.086736e+002
2.600992e+003, 1.071711e+002
2.602921e+003, 1.084492e+002
2.604849e+003, 1.095807e+002
2.606778e+003, 1.074854e+002
2.608706e+003, 1.059372e+002
2.610635e+003, 1.050878e+002
2.612563e+003, 1.050630e+002
2.614492e+003, 1.038528e+002
2.616420e+003, 1.026046e+002
2.618349e+003, 1.022525e+002
2.620277e+003, 1.026548e+002
2.622206e+003, 1.029347e+002
2.624134e+003, 1.025020e+002
2.626063e+003, 1.033427e+002
2.627991e+003, 1.033680e+002
2.629919e+003, 1.013213e+002
2.631848e+003, 1.011953e+002
2.633776e+003, 1.009122e+002
2.635705e+003, 9.926151e+001
2.637633e+003, 9.830451e+001
2.639562e+003, 9.845576e+001
2.641490e+003, 9.961538e+001
2.643419e+003, 9.861102e+001
2.645347e+003, 9.757401e+001
2.647276e+003, 9.738731e+001
2.649204e+003, 9.603782e+001
2.651133e+003, 9.551801e+001
2.653061e+003, 9.627629e+001
2.654990e+003, 9.596013e+001
2.656918e+003, 9.379963e+001
2.658846e+003, 9.049722e+001
2.660775e+003, 9.175709e+001
2.662703e+003, 9.313289e+001
2.664632e+003, 9.354082e+001
2.666560e+003, 9.439793e+001
2.668489e+003, 9.390845e+001
2.670417e+003, 9.237531e+001
2.672346e+003, 9.202923e+001
2.674274e+003, 9.157922e+001
2.676203e+003, 9.110323e+001
2.678131e+003, 9.144408e+001
2.680060e+003, 9.205544e+001
2.681988e+003, 9.230424e+001
2.683917e+003, 9.115070e+001
2.685845e+003, 9.073715e+001
2.687773e+003, 9.063380e+001
2.689702e+003, 8.994023e+001
2.691630e+003, 9.021522e+001
2.693559e+003, 9.006828e+001
2.695487e+003, 8.808223e+001
2.697416e+003, 8.835145e+001
2.699344e+003, 8.845509e+001
2.701273e+003, 8.673810e+001
2.703201e+003, 8.636176e+001
2.705130e+003, 8.666640e+001
2.707058e+003, 8.706072e+001
2.708987e+003, 8.593944e+001
2.710915e+003, 8.562566e+001
2.712844e+003, 8.633131e+001
2.714772e+003, 8.454948e+001
2.716700e+003, 8.383845e+001
2.718629e+003, 8.447392e+001
2.720557e+003, 8.419904e+001
2.722486e+003, 8.478969e+001
2.724414e+003, 8.586977e+001
2.726343e+003, 8.649626e+001
2.728271e+003, 8.497453e+001
2.730200e+003, 8.264024e+001
2.732128e+003, 8.099222e+001
2.734057e+003, 8.234736e+001
2.735985e+003, 8.403234e+001
2.737914e+003, 8.339081e+001
2.739842e+003, 8.316943e+001
2.741771e+003, 8.282822e+001
2.743699e+003, 8.203168e+001
2.745627e+003, 8.225848e+001
2.747556e+003, 8.207369e+001
2.749484e+003, 8.097857e+001
2.751413e+003, 7.849372e+001
2.753341e+003, 7.852792e+001
2.755270e+003, 8.055143e+001
2.757198e+003, 8.092468e+001
2.759127e+003, 8.011367e+001
2.761055e+003, 7.905806e+001
2.762984e+003, 7.914655e+001
2.764912e+003, 7.684850e+001
2.766841e+003, 7.540913e+001
2.768769e+003, 7.755397e+001
2.770698e+003, 7.626448e+001
2.772626e+003, 7.530589e+001
2.774554e+003, 7.631438e+001
2.776483e+003, 7.670473e+001
2.778411e+003, 7.580938e+001
2.780340e+003, 7.414680e+001
2.782268e+003, 7.343038e+001
2.784197e+003, 7.410389e+001
2.786125e+003, 7.540367e+001
2.788054e+003, 7.604926e+001
2.789982e+003, 7.616053e+001
2.791911e+003, 7.590561e+001
2.793839e+003, 7.553739e+001
2.795768e+003, 7.354112e+001
2.797696e+003, 7.270222e+001
2.799625e+003, 7.437923e+001
2.801553e+003, 7.476721e+001
2.803481e+003, 7.436342e+001
2.805410e+003, 7.326694e+001
2.807338e+003, 7.069182e+001
2.809267e+003, 7.109258e+001
2.811195e+003, 7.255509e+001
2.813124e+003, 7.161433e+001
2.815052e+003, 7.167793e+001
2.816981e+003, 7.122961e+001
2.818909e+003, 6.929283e+001
2.820838e+003, 7.074161e+001
2.822766e+003, 7.133720e+001
2.824695e+003, 6.996913e+001
2.826623e+003, 7.002898e+001
2.828552e+003, 6.961646e+001
2.830480e+003, 6.879243e+001
2.832408e+003, 6.822192e+001
2.834337e+003, 6.916733e+001
2.836265e+003, 6.984351e+001
2.838194e+003, 6.874394e+001
2.840122e+003, 6.786314e+001
2.842051e+003, 6.732020e+001
2.843979e+003, 6.705143e+001
2.845908e+003, 6.678353e+001
2.847836e+003, 6.688435e+001
2.849765e+003, 6.722598e+001
2.851693e+003, 6.779671e+001
2.853622e+003, 6.653291e+001
2.855550e+003, 6.500290e+001
2.857479e+003, 6.471864e+001
2.859407e+003, 6.423754e+001
2.861335e+003, 6.413429e+001
2.863264e+003, 6.444892e+001
2.865192e+003, 6.450019e+001
2.867121e+003, 6.396376e+001
2.869049e+003, 6.284826e+001
2.870978e+003, 6.109000e+001
2.872906e+003, 6.103956e+001
2.874835e+003, 6.148214e+001
2.876763e+003, 6.161826e+001
2.878692e+003, 6.348185e+001
2.880620e+003, 6.264888e+001
2.882549e+003, 5.982316e+001
2.884477e+003, 6.054961e+001
2.886406e+003, 5.980408e+001
2.888334e+003, 5.896689e+001
2.890262e+003, 5.973671e+001
2.892191e+003, 5.931520e+001
2.894119e+003, 5.898838e+001
2.896048e+003, 5.912398e+001
2.897976e+003, 5.888092e+001
2.899905e+003, 5.859493e+001
2.901833e+003, 5.862093e+001
2.903762e+003, 5.967330e+001
2.905690e+003, 5.874638e+001
2.907619e+003, 5.781654e+001
2.909547e+003, 5.788514e+001
2.911476e+003, 5.842152e+001
2.913404e+003, 5.783268e+001
2.915333e+003, 5.647848e+001
2.917261e+003, 5.558942e+001
2.919189e+003, 5.370685e+001
2.921118e+003, 5.319481e+001
2.923046e+003, 5.552489e+001
2.924975e+003, 5.542864e+001
2.926903e+003, 5.599482e+001
2.928832e+003, 5.664302e+001
2.930760e+003, 5.453119e+001
2.932689e+003, 5.358775e+001
2.934617e+003, 5.340636e+001
2.936546e+003, 5.340253e+001
2.938474e+003, 5.401094e+001
2.940403e+003, 5.362685e+001
2.942331e+003, 5.268652e+001
2.944260e+003, 5.310549e+001
2.946188e+003, 5.314559e+001
2.948116e+003, 5.218394e+001
2.950045e+003, 5.027646e+001
2.951973e+003, 4.978603e+001
2.953902e+003, 5.031730e+001
2.955830e+003, 5.087043e+001
2.957759e+003, 4.955507e+001
2.959687e+003, 4.870017e+001
2.961616e+003, 4.862411e+001
2.963544e+003, 4.911156e+001
2.965473e+003, 4.773518e+001
2.967401e+003, 4.678586e+001
2.969330e+003, 4.700259e+001
2.971258e+003, 4.949343e+001
2.973187e+003, 4.749166e+001
2.975115e+003, 4.623638e+001
2.977043e+003, 4.798640e+001
2.978972e+003, 4.813697e+001
2.980900e+003, 4.841998e+001
2.982829e+003, 4.806719e+001
2.984757e+003, 4.570931e+001
2.986686e+003, 4.695629e+001
2.988614e+003, 4.707354e+001
2.990543e+003, 4.545971e+001
2.992471e+003, 4.709544e+001
2.994400e+003, 4.653870e+001
2.996328e+003, 4.570639e+001
2.998257e+003, 4.640677e+001
3.000185e+003, 4.582124e+001
3.002114e+003, 4.458294e+001
3.004042e+003, 4.376194e+001
3.005970e+003, 4.498434e+001
3.007899e+003, 4.540511e+001
3.009827e+003, 4.500060e+001
3.011756e+003, 4.423302e+001
3.013684e+003, 4.452877e+001
3.015613e+003, 4.454280e+001
3.017541e+003, 4.393862e+001
3.019470e+003, 4.263580e+001
3.021398e+003, 4.280590e+001
3.023327e+003, 4.361066e+001
3.025255e+003, 4.439358e+001
3.027184e+003, 4.444301e+001
3.029112e+003, 4.464246e+001
3.031041e+003, 4.416086e+001
3.032969e+003, 4.280519e+001
3.034897e+003, 4.292506e+001
3.036826e+003, 4.395287e+001
3.038754e+003, 4.402842e+001
3.040683e+003, 4.126173e+001
3.042611e+003, 4.103052e+001
3.044540e+003, 4.211129e+001
3.046468e+003, 4.325896e+001
3.048397e+003, 4.300037e+001
3.050325e+003, 4.204845e+001
3.052254e+003, 4.131062e+001
3.054182e+003, 4.098145e+001
3.056111e+003, 3.939269e+001
3.058039e+003, 4.207951e+001
3.059968e+003, 4.470536e+001
3.061896e+003, 4.376590e+001
3.063824e+003, 4.149955e+001
3.065753e+003, 4.048182e+001
3.067681e+003, 4.050094e+001
3.069610e+003, 4.051664e+001
3.071538e+003, 4.109120e+001
3.073467e+003, 4.059687e+001
3.075395e+003, 3.992864e+001
3.077324e+003, 4.284319e+001
3.079252e+003, 4.279316e+001
3.081181e+003, 4.276321e+001
3.083109e+003, 4.368906e+001
3.085038e+003, 4.182312e+001
3.086966e+003, 4.361573e+001
3.088895e+003, 4.508501e+001
3.090823e+003, 4.292102e+001
3.092751e+003, 4.127706e+001
3.094680e+003, 4.157458e+001
3.096608e+003, 4.299340e+001
3.098537e+003, 4.453751e+001
3.100465e+003, 4.177023e+001
3.102394e+003, 4.069906e+001
3.104322e+003, 4.143432e+001
3.106251e+003, 4.185960e+001
3.108179e+003, 4.155346e+001
3.110108e+003, 4.081998e+001
3.112036e+003, 4.068877e+001
3.113965e+003, 4.301419e+001
3.115893e+003, 4.144282e+001
3.117822e+003, 4.127285e+001
3.119750e+003, 4.324994e+001
3.121678e+003, 4.206340e+001
3.123607e+003, 4.083656e+001
3.125535e+003, 4.145347e+001
3.127464e+003, 4.337453e+001
3.129392e+003, 4.157247e+001
3.131321e+003, 4.219453e+001
3.133249e+003, 4.303041e+001
3.135178e+003, 4.264248e+001
3.137106e+003, 4.388326e+001
3.139035e+003, 4.309957e+001
3.140963e+003, 4.218211e+001
3.142892e+003, 4.268301e+001
3.144820e+003, 4.059750e+001
3.146749e+003, 3.967314e+001
3.148677e+003, 4.081486e+001
3.150605e+003, 4.390967e+001
3.152534e+003, 4.316838e+001
3.154462e+003, 4.224053e+001
3.156391e+003, 4.153745e+001
3.158319e+003, 4.086158e+001
3.160248e+003, 4.290966e+001
3.162176e+003, 4.224455e+001
3.164105e+003, 4.123083e+001
3.166033e+003, 4.265493e+001
3.167962e+003, 3.999845e+001
3.169890e+003, 3.993118e+001
3.171819e+003, 4.058559e+001
3.173747e+003, 3.901032e+001
3.175676e+003, 4.040307e+001
3.177604e+003, 3.940604e+001
3.179532e+003, 3.813284e+001
3.181461e+003, 3.963158e+001
3.183389e+003, 3.973678e+001
3.185318e+003, 3.821278e+001
3.187246e+003, 3.688746e+001
3.189175e+003, 3.744680e+001
3.191103e+003, 3.907065e+001
3.193032e+003, 3.884357e+001
3.194960e+003, 3.772466e+001
3.196889e+003, 3.717250e+001
3.198817e+003, 3.701703e+001
3.200746e+003, 3.691368e+001
3.202674e+003, 3.694744e+001
3.204603e+003, 3.718108e+001
3.206531e+003, 3.687682e+001
3.208459e+003, 3.603212e+001
3.210388e+003, 3.611977e+001
3.212316e+003, 3.782624e+001
3.214245e+003, 3.882659e+001
3.216173e+003, 3.652174e+001
3.218102e+003, 3.547687e+001
3.220030e+003, 3.759542e+001
3.221959e+003, 3.734392e+001
3.223887e+003, 3.885337e+001
3.225816e+003, 3.965493e+001
3.227744e+003, 3.874194e+001
3.229673e+003, 3.783103e+001
3.231601e+003, 3.623120e+001
3.233530e+003, 3.643187e+001
3.235458e+003, 3.833707e+001
3.237386e+003, 3.963823e+001
3.239315e+003, 3.927073e+001
3.241243e+003, 3.894895e+001
3.243172e+003, 3.853191e+001
3.245100e+003, 3.648342e+001
3.247029e+003, 3.824500e+001
3.248957e+003, 3.872598e+001
3.250886e+003, 3.828332e+001
3.252814e+003, 3.896138e+001
3.254743e+003, 3.748617e+001
3.256671e+003, 3.623618e+001
3.258600e+003, 3.589959e+001
3.260528e+003, 3.654553e+001
3.262457e+003, 3.781015e+001
3.264385e+003, 3.917159e+001
3.266313e+003, 3.947810e+001
3.268242e+003, 3.880449e+001
3.270170e+003, 3.928831e+001
3.272099e+003, 4.077169e+001
3.274027e+003, 4.192690e+001
3.275956e+003, 4.214978e+001
3.277884e+003, 4.144286e+001
3.279813e+003, 4.125268e+001
3.281741e+003, 4.243734e+001
3.283670e+003, 4.412424e+001
3.285598e+003, 4.505129e+001
3.287527e+003, 4.479425e+001
3.289455e+003, 4.565356e+001
3.291384e+003, 4.584893e+001
3.293312e+003, 4.469385e+001
3.295240e+003, 4.635778e+001
3.297169e+003, 4.719387e+001
3.299097e+003, 4.811199e+001
3.301026e+003, 4.902973e+001
3.302954e+003, 4.801550e+001
3.304883e+003, 4.928355e+001
3.306811e+003, 4.896567e+001
3.308740e+003, 4.918920e+001
3.310668e+003, 5.331850e+001
3.312597e+003, 5.195657e+001
3.314525e+003, 5.277418e+001
3.316454e+003, 5.376849e+001
3.318382e+003, 5.325715e+001
3.320311e+003, 5.323557e+001
3.322239e+003, 5.422960e+001
3.324167e+003, 5.311727e+001
3.326096e+003, 5.145494e+001
3.328024e+003, 5.321169e+001
3.329953e+003, 5.537582e+001
3.331881e+003, 5.693108e+001
3.333810e+003, 5.668936e+001
3.335738e+003, 5.494596e+001
3.337667e+003, 5.607371e+001
3.339595e+003, 5.646083e+001
3.341524e+003, 5.685289e+001
3.343452e+003, 5.797230e+001
3.345381e+003, 6.055725e+001
3.347309e+003, 5.549923e+001
3.349238e+003, 5.443139e+001
3.351166e+003, 5.677642e+001
3.353094e+003, 5.892309e+001
3.355023e+003, 5.728997e+001
3.356951e+003, 5.728753e+001
3.358880e+003, 5.789284e+001
3.360808e+003, 5.796520e+001
3.362737e+003, 5.697993e+001
3.364665e+003, 5.819631e+001
3.366594e+003, 5.724715e+001
3.368522e+003, 5.714747e+001
3.370451e+003, 5.879124e+001
3.372379e+003, 5.393111e+001
3.374308e+003, 5.308804e+001
3.376236e+003, 5.402868e+001
3.378165e+003, 5.501658e+001
3.380093e+003, 5.548320e+001
3.382021e+003, 5.483416e+001
3.383950e+003, 5.181829e+001
3.385878e+003, 5.173004e+001
3.387807e+003, 5.455447e+001
3.389735e+003, 5.269332e+001
3.391664e+003, 5.215934e+001
3.393592e+003, 5.168448e+001
3.395521e+003, 5.110580e+001
3.397449e+003, 5.063852e+001
3.399378e+003, 4.985715e+001
3.401306e+003, 4.966205e+001
3.403235e+003, 4.994219e+001
3.405163e+003, 4.977256e+001
3.407092e+003, 4.802379e+001
3.409020e+003, 4.670180e+001
3.410948e+003, 4.984272e+001
3.412877e+003, 5.155050e+001
3.414805e+003, 4.966516e+001
3.416734e+003, 4.782305e+001
3.418662e+003, 4.603732e+001
3.420591e+003, 4.677240e+001
3.422519e+003, 4.661407e+001
3.424448e+003, 4.445057e+001
3.426376e+003, 4.622335e+001
3.428305e+003, 4.562975e+001
3.430233e+003, 4.391396e+001
3.432162e+003, 4.266050e+001
3.434090e+003, 4.268615e+001
3.436019e+003, 4.398142e+001
3.437947e+003, 4.289257e+001
3.439875e+003, 4.115397e+001
3.441804e+003, 4.031063e+001
3.443732e+003, 4.079916e+001
3.445661e+003, 3.889828e+001
3.447589e+003, 3.956882e+001
3.449518e+003, 4.094482e+001
3.451446e+003, 4.098270e+001
##END=



