##NAMES=Allabogdanite
##RRUFFID=R070012
##IDEAL CHEMISTRY=(Fe,Ni)_2_P
##LOCALITY=Onello meteorite, Bol'shoy Dolguchan River, Onello River Basin, Aldan, Yakutia, Russia
##OWNER=Michael Scott
##SOURCE=Michael Scott
##DESCRIPTION=Black lath embedded in epoxy, co-type sample
##STATUS=The identification of this mineral has been confirmed only by single crystal X-ray diffraction
##URL=https://www.rruff.net/odr/rruff_sample/R070012
##DIFFRACTION SAMPLE DESCRIPTION=Single crystal, powder profile is calculated
##CELL PARAMETERS=a: 5.725 b: 3.538 c: 6.646 alpha: 90 beta: 90 gamma: 90 volume: 134.64 crystal system: orthorhombic
##FILETYPE=Raman RAW
##RAMAN WAVELENGTH=532

157.5196, 1447.237
159.4480, 1443.000
161.3765, 1433.939
163.3050, 1426.008
165.2334, 1424.281
167.1619, 1435.132
169.0904, 1443.598
171.0188, 1443.899
172.9473, 1435.939
174.8758, 1431.610
176.8042, 1432.782
178.7327, 1437.725
180.6612, 1445.294
182.5896, 1461.925
184.5181, 1475.714
186.4466, 1480.995
188.3750, 1476.525
190.3035, 1473.112
192.2320, 1476.096
194.1604, 1482.463
196.0889, 1485.094
198.0174, 1479.056
199.9458, 1474.686
201.8743, 1476.370
203.8028, 1485.754
205.7312, 1494.612
207.6597, 1502.364
209.5882, 1509.245
211.5166, 1515.283
213.4451, 1521.949
215.3736, 1529.128
217.3020, 1536.696
219.2305, 1541.925
221.1590, 1546.792
223.0874, 1551.818
225.0159, 1557.730
226.9444, 1563.744
228.8728, 1567.303
230.8013, 1571.486
232.7298, 1578.233
234.6582, 1588.852
236.5867, 1597.231
238.5152, 1600.105
240.4436, 1599.919
242.3721, 1600.642
244.3006, 1606.628
246.2290, 1611.081
248.1575, 1609.299
250.0860, 1603.568
252.0145, 1604.153
253.9429, 1616.645
255.8714, 1630.618
257.7999, 1637.705
259.7283, 1640.114
261.6568, 1642.171
263.5853, 1643.349
265.5137, 1641.377
267.4422, 1644.595
269.3707, 1657.996
271.2991, 1672.665
273.2276, 1680.487
275.1561, 1680.630
277.0845, 1681.753
279.0130, 1687.617
280.9415, 1696.412
282.8699, 1701.568
284.7984, 1701.747
286.7269, 1700.842
288.6553, 1700.463
290.5838, 1699.809
292.5123, 1700.827
294.4407, 1705.621
296.3692, 1712.380
298.2977, 1715.800
300.2261, 1714.880
302.1546, 1713.363
304.0831, 1712.492
306.0115, 1709.586
307.9400, 1709.528
309.8685, 1712.102
311.7969, 1718.647
313.7254, 1729.077
315.6539, 1746.166
317.5823, 1761.614
319.5108, 1773.728
321.4393, 1782.741
323.3677, 1786.620
325.2962, 1778.366
327.2247, 1770.171
329.1531, 1770.713
331.0816, 1786.117
333.0101, 1797.551
334.9385, 1800.992
336.8670, 1798.865
338.7955, 1797.208
340.7239, 1794.395
342.6524, 1793.788
344.5809, 1797.606
346.5093, 1810.755
348.4378, 1820.370
350.3663, 1825.530
352.2947, 1826.222
354.2232, 1824.313
356.1517, 1816.130
358.0801, 1810.906
360.0086, 1813.479
361.9371, 1826.959
363.8655, 1834.114
365.7940, 1824.148
367.7225, 1814.736
369.6509, 1820.045
371.5794, 1850.597
373.5079, 1875.850
375.4363, 1888.386
377.3648, 1889.193
379.2933, 1888.421
381.2217, 1882.915
383.1502, 1878.789
385.0787, 1880.045
387.0071, 1891.622
388.9356, 1896.472
390.8641, 1885.714
392.7925, 1870.930
394.7210, 1870.290
396.6495, 1892.904
398.5779, 1912.035
400.5064, 1918.301
402.4349, 1910.227
404.3633, 1903.632
406.2918, 1897.915
408.2203, 1894.297
410.1487, 1892.106
412.0772, 1890.590
414.0057, 1891.068
415.9341, 1896.063
417.8626, 1903.641
419.7911, 1908.906
421.7195, 1911.904
423.6480, 1913.792
425.5765, 1913.971
427.5049, 1912.846
429.4334, 1914.362
431.3619, 1922.429
433.2903, 1928.239
435.2188, 1925.551
437.1473, 1913.661
439.0757, 1906.517
441.0042, 1910.584
442.9327, 1919.169
444.8611, 1923.953
446.7896, 1924.042
448.7181, 1922.804
450.6465, 1920.439
452.5750, 1918.528
454.5035, 1916.412
456.4319, 1915.281
458.3604, 1912.796
460.2889, 1905.643
462.2173, 1886.698
464.1458, 1877.950
466.0743, 1895.161
468.0027, 1924.077
469.9312, 1939.086
471.8597, 1927.458
473.7881, 1915.201
475.7166, 1906.801
477.6451, 1900.744
479.5735, 1899.889
481.5020, 1910.474
483.4305, 1922.828
485.3589, 1930.004
487.2874, 1931.076
489.2159, 1931.808
491.1443, 1929.304
493.0728, 1925.083
495.0013, 1924.887
496.9297, 1929.484
498.8582, 1931.982
500.7867, 1932.435
502.7151, 1934.846
504.6436, 1938.382
506.5721, 1940.747
508.5005, 1939.298
510.4290, 1941.722
512.3575, 1949.170
514.2859, 1948.910
516.2144, 1923.000
518.1429, 1894.333
520.0714, 1882.177
521.9998, 1893.926
523.9283, 1906.839
525.8568, 1917.423
527.7852, 1923.140
529.7137, 1925.768
531.6422, 1925.077
533.5706, 1924.226
535.4991, 1920.206
537.4276, 1914.431
539.3560, 1913.255
541.2845, 1919.811
543.2130, 1925.515
545.1414, 1928.334
547.0699, 1929.507
548.9984, 1932.831
550.9268, 1933.796
552.8553, 1930.295
554.7838, 1927.316
556.7122, 1926.436
558.6407, 1926.581
560.5692, 1932.122
562.4976, 1940.843
564.4261, 1945.306
566.3546, 1933.794
568.2830, 1925.667
570.2115, 1928.916
572.1400, 1937.840
574.0684, 1940.185
575.9969, 1928.995
577.9254, 1917.553
579.8538, 1916.536
581.7823, 1926.877
583.7108, 1933.871
585.6392, 1929.648
587.5677, 1924.636
589.4962, 1925.504
591.4246, 1932.654
593.3531, 1938.633
595.2816, 1943.283
597.2100, 1949.372
599.1385, 1953.335
601.0670, 1949.941
602.9954, 1944.036
604.9239, 1945.445
606.8524, 1950.351
608.7808, 1952.500
610.7093, 1947.125
612.6378, 1944.856
614.5662, 1947.975
616.4947, 1954.597
618.4232, 1960.493
620.3516, 1965.573
622.2801, 1970.629
624.2086, 1971.234
626.1370, 1966.099
628.0655, 1956.959
629.9940, 1958.889
631.9224, 1970.326
633.8509, 1984.480
635.7794, 1992.822
637.7078, 1989.712
639.6363, 1979.878
641.5648, 1972.168
643.4932, 1966.883
645.4217, 1958.170
647.3502, 1954.105
649.2786, 1962.839
651.2071, 1976.624
653.1356, 1990.232
655.0640, 2001.968
656.9925, 2003.975
658.9210, 1986.382
660.8494, 1964.294
662.7779, 1950.407
664.7064, 1959.881
666.6348, 1973.524
668.5633, 1982.410
670.4918, 1984.115
672.4202, 1982.294
674.3487, 1983.441
676.2772, 1986.899
678.2056, 1993.671
680.1341, 2001.779
682.0626, 2008.537
683.9910, 1999.344
685.9195, 1994.338
687.8480, 2007.778
689.7764, 2031.228
691.7049, 2040.768
693.6334, 2022.887
695.5618, 2011.015
697.4903, 2019.119
699.4188, 2040.997
701.3472, 2045.130
703.2757, 2032.618
705.2042, 2025.367
707.1326, 2029.482
709.0611, 2032.289
710.9896, 2027.743
712.9180, 2028.365
714.8465, 2037.242
716.7750, 2058.108
718.7034, 2075.623
720.6319, 2077.403
722.5604, 2060.246
724.4888, 2045.677
726.4173, 2045.569
728.3458, 2056.915
730.2742, 2054.720
732.2027, 2033.721
734.1312, 2017.413
736.0596, 2019.325
737.9881, 2029.158
739.9166, 2035.634
741.8450, 2040.972
743.7735, 2045.699
745.7020, 2047.752
747.6304, 2047.231
749.5589, 2047.527
751.4874, 2048.845
753.4158, 2046.604
755.3443, 2037.895
757.2728, 2025.102
759.2012, 2010.601
761.1297, 1992.401
763.0582, 1981.653
764.9866, 1986.021
766.9151, 1999.602
768.8436, 2009.413
770.7720, 2014.707
772.7005, 2016.803
774.6290, 2014.870
776.5574, 2010.389
778.4859, 2004.922
780.4144, 1997.547
782.3428, 1990.592
784.2713, 1983.970
786.1998, 1980.742
788.1282, 1980.420
790.0567, 1984.632
791.9852, 1985.878
793.9136, 1978.128
795.8421, 1965.018
797.7706, 1957.737
799.6990, 1962.281
801.6275, 1967.165
803.5560, 1967.054
805.4844, 1960.252
807.4129, 1957.716
809.3414, 1963.573
811.2698, 1971.384
813.1983, 1974.414
815.1268, 1974.156
817.0552, 1976.846
818.9837, 1985.590
820.9122, 1991.448
822.8406, 1993.324
824.7691, 1994.563
826.6976, 1994.366
828.6260, 1990.713
830.5545, 1987.546
832.4830, 1986.538
834.4114, 1989.962
836.3399, 1995.263
838.2684, 2001.696
840.1968, 2007.060
842.1253, 2013.648
844.0538, 2024.115
845.9822, 2029.602
847.9107, 2025.676
849.8392, 2022.200
851.7676, 1999.029
853.6961, 2030.395
855.6246, 2047.817
857.5530, 2052.043
859.4815, 2003.554
861.4100, 2023.136
863.3384, 2015.438
865.2669, 2006.622
867.1954, 2035.785
869.1238, 1994.963
871.0523, 2008.434
872.9808, 2017.964
874.9092, 2024.651
876.8377, 2027.958
878.7662, 2029.531
880.6946, 2030.873
882.6231, 2031.003
884.5516, 2027.462
886.4800, 2014.454
888.4085, 2006.467
890.3370, 2010.032
892.2654, 2018.267
894.1939, 2018.031
896.1224, 2005.894
898.0508, 1995.858
899.9793, 1990.594
901.9078, 1989.521
903.8362, 1993.277
905.7647, 2005.281
907.6932, 2013.625
909.6216, 2013.579
911.5501, 2010.274
913.4786, 2012.308
915.4070, 2029.616
917.3355, 2039.788
919.2640, 2034.092
921.1924, 2021.979
923.1209, 2015.984
925.0494, 2017.690
926.9778, 2020.806
928.9063, 2020.328
930.8348, 2022.206
932.7632, 2033.628
934.6917, 2057.189
936.6202, 2070.804
938.5486, 2068.362
940.4771, 2064.757
942.4056, 2065.408
944.3341, 2067.764
946.2626, 2072.914
948.1910, 2083.639
950.1195, 2093.295
952.0480, 2098.526
953.9764, 2105.556
955.9049, 2114.191
957.8334, 2123.810
959.7618, 2129.357
961.6903, 2131.469
963.6188, 2135.512
965.5472, 2140.222
967.4757, 2146.545
969.4042, 2152.821
971.3326, 2159.221
973.2611, 2160.594
975.1896, 2160.297
977.1180, 2162.651
979.0465, 2168.578
980.9750, 2176.633
982.9034, 2179.327
984.8319, 2180.024
986.7604, 2180.963
988.6888, 2189.535
990.6173, 2212.718
992.5458, 2237.587
994.4742, 2250.115
996.4027, 2243.168
998.3312, 2238.770
1000.260, 2248.577
1002.188, 2269.410
1004.117, 2279.186
1006.045, 2266.200
1007.974, 2268.829
1009.902, 2299.571
1011.830, 2330.061
1013.759, 2338.937
1015.687, 2343.459
1017.616, 2352.311
1019.544, 2358.668
1021.473, 2359.976
1023.401, 2358.592
1025.330, 2363.686
1027.258, 2376.292
1029.187, 2395.287
1031.115, 2409.669
1033.044, 2416.238
1034.972, 2423.963
1036.901, 2433.525
1038.829, 2433.095
1040.757, 2440.143
1042.686, 2465.473
1044.614, 2493.449
1046.543, 2495.060
1048.471, 2483.921
1050.400, 2485.525
1052.328, 2504.239
1054.257, 2520.231
1056.185, 2524.476
1058.114, 2526.013
1060.042, 2539.011
1061.971, 2568.943
1063.899, 2595.384
1065.828, 2606.533
1067.756, 2601.815
1069.684, 2599.059
1071.613, 2605.897
1073.541, 2620.810
1075.470, 2644.303
1077.398, 2663.969
1079.327, 2675.419
1081.255, 2681.208
1083.184, 2687.493
1085.112, 2694.823
1087.041, 2704.508
1088.969, 2719.961
1090.898, 2746.332
1092.826, 2773.028
1094.755, 2787.145
1096.683, 2790.552
1098.611, 2789.929
1100.540, 2805.878
1102.468, 2830.698
1104.397, 2863.202
1106.325, 2890.603
1108.254, 2901.352
1110.182, 2896.353
1112.111, 2898.521
1114.039, 2913.217
1115.968, 2929.366
1117.896, 2945.699
1119.825, 2961.132
1121.753, 2970.212
1123.682, 2977.649
1125.610, 3003.522
1127.538, 3034.810
1129.467, 3056.436
1131.395, 3064.425
1133.324, 3082.656
1135.252, 3101.445
1137.181, 3097.018
1139.109, 3095.021
1141.038, 3115.666
1142.966, 3153.342
1144.895, 3181.775
1146.823, 3199.129
1148.752, 3208.629
1150.680, 3212.581
1152.609, 3216.523
1154.537, 3226.248
1156.465, 3236.802
1158.394, 3248.517
1160.322, 3273.083
1162.251, 3306.703
1164.179, 3336.024
1166.108, 3348.866
1168.036, 3354.227
1169.965, 3366.597
1171.893, 3382.008
1173.822, 3395.438
1175.750, 3410.309
1177.679, 3434.042
1179.607, 3465.837
1181.536, 3493.620
1183.464, 3517.013
1185.392, 3539.274
1187.321, 3561.383
1189.249, 3582.095
1191.178, 3594.716
1193.106, 3595.042
1195.035, 3596.599
1196.963, 3609.798
1198.892, 3636.505
1200.820, 3662.968
1202.749, 3675.736
1204.677, 3690.882
1206.606, 3725.016
1208.534, 3767.385
1210.463, 3793.330
1212.391, 3798.039
1214.319, 3807.147
1216.248, 3830.320
1218.176, 3851.188
1220.105, 3866.164
1222.033, 3881.865
1223.962, 3907.420
1225.890, 3942.754
1227.819, 3968.453
1229.747, 3980.537
1231.676, 3989.622
1233.604, 4009.324
1235.533, 4047.509
1237.461, 4074.406
1239.390, 4085.100
1241.318, 4092.843
1243.246, 4101.844
1245.175, 4110.568
1247.103, 4122.042
1249.032, 4134.855
1250.960, 4159.099
1252.889, 4201.086
1254.817, 4242.267
1256.746, 4264.778
1258.674, 4266.712
1260.603, 4273.794
1262.531, 4297.163
1264.460, 4328.845
1266.388, 4357.041
1268.317, 4378.794
1270.245, 4391.676
1272.173, 4388.099
1274.102, 4395.968
1276.030, 4425.070
1277.959, 4463.600
1279.887, 4497.121
1281.816, 4521.461
1283.744, 4545.936
1285.673, 4578.222
1287.601, 4608.369
1289.530, 4624.182
1291.458, 4631.390
1293.387, 4650.072
1295.315, 4685.826
1297.244, 4714.186
1299.172, 4721.759
1301.100, 4727.552
1303.029, 4743.140
1304.957, 4770.371
1306.886, 4803.244
1308.814, 4845.299
1310.743, 4874.221
1312.671, 4871.208
1314.600, 4868.021
1316.528, 4895.167
1318.457, 4959.550
1320.385, 5008.006
1322.314, 5023.078
1324.242, 5034.897
1326.171, 5059.352
1328.099, 5089.493
1330.027, 5105.039
1331.956, 5088.537
1333.884, 5089.785
1335.813, 5127.326
1337.741, 5166.598
1339.670, 5186.000
1341.598, 5189.573
1343.527, 5200.568
1345.455, 5220.754
1347.384, 5245.470
1349.312, 5276.770
1351.241, 5306.788
1353.169, 5330.278
1355.098, 5348.172
1357.026, 5367.351
1358.954, 5388.183
1360.883, 5411.363
1362.811, 5438.479
1364.740, 5466.979
1366.668, 5497.572
1368.597, 5532.845
1370.525, 5553.960
1372.454, 5537.905
1374.382, 5533.211
1376.311, 5564.248
1378.239, 5614.897
1380.168, 5652.791
1382.096, 5666.109
1384.025, 5688.236
1385.953, 5723.659
1387.881, 5762.160
1389.810, 5801.011
1391.738, 5839.619
1393.667, 5876.514
1395.595, 5917.383
1397.524, 5945.555
1399.452, 5937.576
1401.381, 5936.249
1403.309, 5975.356
1405.238, 6043.747
1407.166, 6102.288
1409.095, 6148.289
1411.023, 6191.397
1412.952, 6233.521
1414.880, 6272.463
1416.808, 6312.806
1418.737, 6353.234
1420.665, 6371.984
1422.594, 6347.197
1424.522, 6352.278
1426.451, 6441.555
1428.379, 6543.718
1430.308, 6602.586
1432.236, 6618.353
1434.165, 6643.336
1436.093, 6684.922
1438.022, 6728.018
1439.950, 6778.340
1441.879, 6822.996
1443.807, 6843.373
1445.735, 6835.087
1447.664, 6856.771
1449.592, 6943.854
1451.521, 7017.476
1453.449, 7048.071
1455.378, 7066.642
1457.306, 7109.641
1459.235, 7174.941
1461.163, 7229.036
1463.092, 7268.499
1465.020, 7314.656
1466.949, 7374.450
1468.877, 7436.156
1470.806, 7493.645
1472.734, 7550.825
1474.662, 7600.344
1476.591, 7634.327
1478.519, 7664.465
1480.448, 7687.126
1482.376, 7716.793
1484.305, 7773.906
1486.233, 7848.424
1488.162, 7897.624
1490.090, 7912.750
1492.019, 7924.678
1493.947, 7936.960
1495.876, 7955.142
1497.804, 7982.535
1499.733, 8018.082
1501.661, 8064.445
1503.589, 8132.884
1505.518, 8182.619
1507.446, 8189.765
1509.375, 8181.902
1511.303, 8176.042
1513.232, 8174.857
1515.160, 8180.125
1517.089, 8196.580
1519.017, 8212.694
1520.946, 8222.715
1522.874, 8230.751
1524.803, 8244.466
1526.731, 8262.007
1528.660, 8261.146
1530.588, 8222.348
1532.516, 8205.450
1534.445, 8238.146
1536.373, 8270.575
1538.302, 8282.388
1540.230, 8278.430
1542.159, 8267.084
1544.087, 8244.680
1546.016, 8216.713
1547.944, 8184.019
1549.873, 8145.115
1551.801, 8096.538
1553.730, 8045.613
1555.658, 8002.916
1557.587, 7972.169
1559.515, 7933.420
1561.443, 7870.201
1563.372, 7818.362
1565.300, 7798.728
1567.229, 7784.686
1569.157, 7748.438
1571.086, 7688.591
1573.014, 7623.575
1574.943, 7553.907
1576.871, 7476.673
1578.800, 7383.824
1580.728, 7295.503
1582.657, 7230.264
1584.585, 7179.840
1586.514, 7118.959
1588.442, 7049.045
1590.370, 6974.334
1592.299, 6893.583
1594.227, 6807.838
1596.156, 6708.177
1598.084, 6607.311
1600.013, 6528.367
1601.941, 6469.804
1603.870, 6398.865
1605.798, 6305.273
1607.727, 6216.946
1609.655, 6148.144
1611.584, 6085.967
1613.512, 6023.892
1615.441, 5960.022
1617.369, 5882.427
1619.297, 5786.727
1621.226, 5690.078
1623.154, 5585.497
1625.083, 5492.045
1627.011, 5425.811
1628.940, 5373.853
1630.868, 5314.224
1632.797, 5246.991
1634.725, 5175.829
1636.654, 5100.073
1638.582, 5023.912
1640.511, 4947.670
1642.439, 4872.672
1644.368, 4798.794
1646.296, 4726.908
1648.224, 4663.752
1650.153, 4614.161
1652.081, 4552.964
1654.010, 4461.148
1655.938, 4373.879
1657.867, 4315.263
1659.795, 4271.962
1661.724, 4223.478
1663.652, 4170.114
1665.581, 4115.372
1667.509, 4054.632
1669.438, 4003.220
1671.366, 3968.368
1673.295, 3942.675
1675.223, 3927.583
1677.151, 3916.479
1679.080, 3890.195
1681.008, 3846.346
1682.937, 3800.240
1684.865, 3751.209
1686.794, 3705.403
1688.722, 3672.410
1690.651, 3639.440
1692.579, 3585.177
1694.508, 3516.070
1696.436, 3471.164
1698.365, 3460.150
1700.293, 3446.686
1702.222, 3418.607
1704.150, 3390.465
1706.078, 3368.528
1708.007, 3352.324
1709.935, 3344.887
1711.864, 3345.285
1713.792, 3331.163
1715.721, 3291.661
1717.649, 3258.672
1719.578, 3245.678
1721.506, 3237.327
1723.435, 3225.894
1725.363, 3211.056
1727.292, 3191.815
1729.220, 3168.191
1731.149, 3143.961
1733.077, 3116.328
1735.005, 3094.905
1736.934, 3084.778
1738.862, 3080.360
1740.791, 3082.465
1742.719, 3086.204
1744.648, 3074.798
1746.576, 3044.689
1748.505, 3021.821
1750.433, 3012.152
1752.362, 3004.226
1754.290, 2995.547
1756.219, 2986.813
1758.147, 2977.091
1760.076, 2968.061
1762.004, 2966.040
1763.932, 2973.176
1765.861, 2979.410
1767.789, 2988.720
1769.718, 2990.938
1771.646, 2977.394
1773.575, 2960.475
1775.503, 2949.029
1777.432, 2942.822
1779.360, 2942.704
1781.289, 2953.975
1783.217, 2955.844
1785.146, 2939.850
1787.074, 2926.979
1789.003, 2924.655
1790.931, 2925.501
1792.859, 2923.617
1794.788, 2920.561
1796.716, 2919.534
1798.645, 2917.202
1800.573, 2927.814
1802.502, 2974.465
1804.430, 3000.063
1806.359, 2976.730
1808.287, 2946.709
1810.216, 2938.173
1812.144, 2942.850
1814.073, 2943.319
1816.001, 2939.501
1817.930, 2934.116
1819.858, 2925.975
1821.786, 2921.070
1823.715, 2921.620
1825.643, 2926.151
1827.572, 2938.346
1829.500, 2951.611
1831.429, 2951.114
1833.357, 2938.874
1835.286, 2944.054
1837.214, 2971.271
1839.143, 2999.344
1841.071, 3032.091
1843.000, 3050.590
1844.928, 3033.901
1846.857, 3009.355
1848.785, 3003.724
1850.714, 3012.227
1852.642, 3015.740
1854.570, 3012.011
1856.499, 3027.215
1858.427, 3084.329
1860.356, 3119.874
1862.284, 3097.487
1864.213, 3060.465
1866.141, 3033.804
1868.070, 3016.042
1869.998, 3003.420
1871.927, 2995.917
1873.855, 3002.963
1875.784, 3037.617
1877.712, 3059.846
1879.641, 3052.694
1881.569, 3046.651
1883.497, 3061.625
1885.426, 3078.612
1887.354, 3070.985
1889.283, 3045.918
1891.211, 3041.276
1893.140, 3069.687
1895.068, 3083.041
1896.997, 3066.867
1898.925, 3057.192
1900.854, 3064.087
1902.782, 3074.849
1904.711, 3085.541
1906.639, 3093.731
1908.568, 3091.676
1910.496, 3081.274
1912.424, 3087.643
1914.353, 3116.417
1916.281, 3136.738
1918.210, 3138.905
1920.138, 3141.019
1922.067, 3152.636
1923.995, 3163.431
1925.924, 3162.074
1927.852, 3155.824
1929.781, 3158.832
1931.709, 3170.163
1933.638, 3177.425
1935.566, 3179.761
1937.495, 3180.147
1939.423, 3178.661
1941.351, 3176.671
1943.280, 3173.209
1945.208, 3171.079
1947.137, 3172.327
1949.065, 3176.792
1950.994, 3183.900
1952.922, 3193.583
1954.851, 3207.299
1956.779, 3231.826
1958.708, 3248.054
1960.636, 3253.733
1962.565, 3251.891
1964.493, 3235.305
1966.422, 3218.554
1968.350, 3210.306
1970.278, 3211.502
1972.207, 3230.596
1974.135, 3266.103
1976.064, 3280.959
1977.992, 3268.199
1979.921, 3265.302
1981.849, 3289.084
1983.778, 3303.854
1985.706, 3276.670
1987.635, 3255.044
1989.563, 3285.829
1991.492, 3337.024
1993.420, 3355.214
1995.349, 3343.825
1997.277, 3338.112
1999.205, 3339.870
2001.134, 3340.891
2003.062, 3340.148
2004.991, 3339.335
2006.919, 3337.379
2008.848, 3337.140
2010.776, 3338.326
2012.705, 3343.393
2014.633, 3360.802
2016.562, 3385.166
2018.490, 3388.151
2020.419, 3366.412
2022.347, 3364.691
2024.276, 3396.602
2026.204, 3412.794
2028.132, 3396.955
2030.061, 3374.604
2031.989, 3336.603
2033.918, 3317.136
2035.846, 3367.381
2037.775, 3442.059
2039.703, 3455.277
2041.632, 3416.020
2043.560, 3401.362
2045.489, 3418.130
2047.417, 3435.856
2049.346, 3463.948
2051.274, 3475.315
2053.203, 3445.499
2055.131, 3422.651
2057.060, 3429.930
2058.988, 3454.277
2060.917, 3493.897
2062.845, 3537.604
2064.773, 3549.591
2066.702, 3532.373
2068.630, 3544.467
2070.559, 3597.912
2072.487, 3615.591
2074.416, 3566.543
2076.344, 3529.923
2078.273, 3537.357
2080.201, 3556.388
2082.130, 3576.344
2084.058, 3592.622
2085.987, 3598.343
2087.915, 3597.048
2089.844, 3597.764
2091.772, 3600.310
2093.700, 3600.535
2095.629, 3598.058
2097.557, 3593.086
2099.486, 3572.732
2101.414, 3572.574
2103.343, 3623.415
2105.271, 3665.575
2107.200, 3670.478
2109.128, 3661.682
2111.057, 3653.487
2112.985, 3648.204
2114.914, 3652.170
2116.842, 3662.650
2118.771, 3665.832
2120.699, 3660.060
2122.627, 3651.269
2124.556, 3638.314
2126.484, 3623.798
2128.413, 3598.636
2130.341, 3584.991
2132.270, 3598.158
2134.198, 3617.289
2136.127, 3634.018
2138.055, 3645.440
2139.984, 3644.430
2141.912, 3635.444
2143.841, 3635.474
2145.769, 3643.375
2147.698, 3640.538
2149.626, 3623.322
2151.554, 3613.430
2153.483, 3619.274
2155.411, 3619.890
2157.340, 3597.312
2159.268, 3584.348
2161.197, 3608.401
2163.125, 3633.139
2165.054, 3626.532
2166.982, 3604.538
2168.911, 3587.389
2170.839, 3575.825
2172.768, 3576.810
2174.696, 3590.468
2176.625, 3589.233
2178.553, 3570.127
2180.481, 3547.672
2182.410, 3519.096
2184.338, 3501.362
2186.267, 3508.441
2188.195, 3513.943
2190.124, 3505.355
2192.052, 3492.722
2193.981, 3483.854
2195.909, 3475.367
2197.838, 3454.241
2199.766, 3431.694
2201.695, 3448.633
2203.623, 3504.260
2205.552, 3538.523
2207.480, 3549.414
2209.408, 3544.895
2211.337, 3519.498
2213.265, 3500.679
2215.194, 3497.281
2217.122, 3495.578
2219.051, 3487.915
2220.979, 3484.745
2222.908, 3503.671
2224.836, 3518.832
2226.765, 3499.597
2228.693, 3465.205
2230.622, 3443.486
2232.550, 3434.687
2234.479, 3443.880
2236.407, 3469.875
2238.335, 3484.113
2240.264, 3484.113
2242.192, 3480.058
2244.121, 3467.310
2246.049, 3468.798
2247.978, 3507.247
2249.906, 3533.446
2251.835, 3521.416
2253.763, 3507.766
2255.692, 3520.415
2257.620, 3531.755
2259.549, 3505.881
2261.477, 3472.632
2263.406, 3483.596
2265.334, 3521.499
2267.262, 3535.372
2269.191, 3528.192
2271.119, 3522.307
2273.048, 3518.189
2274.976, 3519.466
2276.905, 3531.194
2278.833, 3535.401
2280.762, 3522.287
2282.690, 3514.423
2284.619, 3522.613
2286.547, 3526.848
2288.476, 3505.218
2290.404, 3495.393
2292.333, 3537.428
2294.261, 3582.620
2296.189, 3578.155
2298.118, 3555.311
2300.046, 3567.492
2301.975, 3599.614
2303.903, 3599.249
2305.832, 3568.428
2307.760, 3558.797
2309.689, 3576.773
2311.617, 3585.024
2313.546, 3578.551
2315.474, 3581.493
2317.403, 3599.638
2319.331, 3617.585
2321.260, 3625.148
2323.188, 3645.285
2325.116, 3708.611
2327.045, 3757.756
2328.973, 3753.721
2330.902, 3734.297
2332.830, 3726.659
2334.759, 3722.026
2336.687, 3709.672
2338.616, 3693.278
2340.544, 3678.017
2342.473, 3665.240
2344.401, 3657.268
2346.330, 3654.928
2348.258, 3668.608
2350.187, 3702.501
2352.115, 3715.613
2354.043, 3687.721
2355.972, 3679.892
2357.900, 3702.573
2359.829, 3725.874
2361.757, 3753.727
2363.686, 3766.206
2365.614, 3749.406
2367.543, 3730.432
2369.471, 3721.383
2371.400, 3715.122
2373.328, 3708.927
2375.257, 3702.435
2377.185, 3693.842
2379.114, 3686.350
2381.042, 3678.734
2382.970, 3678.018
2384.899, 3706.986
2386.827, 3754.506
2388.756, 3782.967
2390.684, 3792.207
2392.613, 3780.651
2394.541, 3746.634
2396.470, 3727.783
2398.398, 3726.877
2400.327, 3740.024
2402.255, 3781.333
2404.184, 3804.931
2406.112, 3799.574
2408.041, 3797.405
2409.969, 3807.344
2411.897, 3816.203
2413.826, 3819.191
2415.754, 3819.254
2417.683, 3812.899
2419.611, 3809.214
2421.540, 3811.491
2423.468, 3821.008
2425.397, 3845.227
2427.325, 3871.986
2429.254, 3897.653
2431.182, 3910.599
2433.111, 3878.030
2435.039, 3824.847
2436.968, 3805.840
2438.896, 3815.221
2440.824, 3830.354
2442.753, 3850.634
2444.681, 3869.029
2446.610, 3885.920
2448.538, 3889.428
2450.467, 3876.827
2452.395, 3887.107
2454.324, 3931.419
2456.252, 3953.570
2458.181, 3930.112
2460.109, 3921.005
2462.038, 3947.411
2463.966, 3969.339
2465.895, 3976.748
2467.823, 3983.996
2469.751, 3998.223
2471.680, 4005.948
2473.608, 3992.895
2475.537, 3983.679
2477.465, 3996.016
2479.394, 4012.781
2481.322, 4030.856
2483.251, 4038.718
2485.179, 4012.365
2487.108, 3982.931
2489.036, 3997.921
2490.965, 4025.671
2492.893, 4008.308
2494.822, 3973.717
2496.750, 3976.383
2498.678, 4006.078
2500.607, 4038.416
2502.535, 4070.414
2504.464, 4080.881
2506.392, 4071.652
2508.321, 4070.702
2510.249, 4078.036
2512.178, 4087.192
2514.106, 4097.830
2516.035, 4106.988
2517.963, 4114.593
2519.892, 4119.979
2521.820, 4123.655
2523.749, 4122.700
2525.677, 4111.961
2527.605, 4117.381
2529.534, 4150.502
2531.462, 4173.357
2533.391, 4169.596
2535.319, 4169.015
2537.248, 4183.758
2539.176, 4195.569
2541.105, 4198.232
2543.033, 4199.840
2544.962, 4198.353
2546.890, 4204.577
2548.819, 4230.005
2550.747, 4254.814
2552.676, 4274.371
2554.604, 4280.286
2556.532, 4242.783
2558.461, 4217.160
2560.389, 4272.049
2562.318, 4331.238
2564.246, 4319.334
2566.175, 4286.960
2568.103, 4275.684
2570.032, 4280.853
2571.960, 4302.883
2573.889, 4332.208
2575.817, 4361.007
2577.746, 4381.639
2579.674, 4366.920
2581.603, 4339.493
2583.531, 4352.332
2585.459, 4390.731
2587.388, 4421.785
2589.316, 4444.152
2591.245, 4447.127
2593.173, 4435.275
2595.102, 4440.334
2597.030, 4458.757
2598.959, 4470.868
2600.887, 4476.629
2602.816, 4476.779
2604.744, 4471.841
2606.673, 4478.562
2608.601, 4499.968
2610.530, 4501.486
2612.458, 4481.855
2614.386, 4464.346
2616.315, 4449.359
2618.243, 4462.546
2620.172, 4513.632
2622.100, 4542.993
2624.029, 4534.346
2625.957, 4546.000
2627.886, 4585.607
2629.814, 4605.722
2631.743, 4597.018
2633.671, 4604.498
2635.600, 4640.402
2637.528, 4670.971
2639.457, 4696.864
2641.385, 4706.367
2643.313, 4693.229
2645.242, 4680.174
2647.170, 4666.462
2649.099, 4668.134
2651.027, 4697.512
2652.956, 4717.130
2654.884, 4701.991
2656.813, 4706.929
2658.741, 4757.022
2660.670, 4786.711
2662.598, 4777.229
2664.527, 4767.145
2666.455, 4765.844
2668.384, 4767.393
2670.312, 4767.301
2672.240, 4774.976
2674.169, 4800.351
2676.097, 4821.382
2678.026, 4834.626
2679.954, 4841.850
2681.883, 4835.201
2683.811, 4838.717
2685.740, 4866.420
2687.668, 4894.403
2689.597, 4920.262
2691.525, 4934.020
2693.454, 4921.932
2695.382, 4919.819
2697.311, 4956.501
2699.239, 4981.321
2701.167, 4963.383
2703.096, 4952.257
2705.024, 4973.006
2706.953, 4990.286
2708.881, 4992.290
2710.810, 4992.069
2712.738, 4993.451
2714.667, 4995.523
2716.595, 4995.118
2718.524, 4999.232
2720.452, 5014.879
2722.381, 5026.487
2724.309, 5026.567
2726.238, 5027.180
2728.166, 5027.457
2730.094, 5039.516
2732.023, 5085.354
2733.951, 5114.945
2735.880, 5099.198
2737.808, 5095.175
2739.737, 5135.909
2741.665, 5162.530
2743.594, 5135.020
2745.522, 5117.449
2747.451, 5142.967
2749.379, 5159.148
2751.308, 5144.802
2753.236, 5141.535
2755.165, 5179.922
2757.093, 5197.220
2759.021, 5145.440
2760.950, 5118.149
2762.878, 5150.294
2764.807, 5178.542
2766.735, 5186.946
2768.664, 5197.732
2770.592, 5232.909
2772.521, 5241.382
2774.449, 5184.486
2776.378, 5150.918
2778.306, 5156.461
2780.235, 5171.454
2782.163, 5191.575
2784.092, 5214.956
2786.020, 5243.968
2787.948, 5270.577
2789.877, 5295.863
2791.805, 5313.570
2793.734, 5323.915
2795.662, 5319.172
2797.591, 5289.243
2799.519, 5279.739
2801.448, 5318.361
2803.376, 5316.803
2805.305, 5259.845
2807.233, 5258.127
2809.162, 5328.941
2811.090, 5375.941
2813.019, 5383.406
2814.947, 5385.725
2816.875, 5380.022
2818.804, 5387.968
2820.732, 5409.470
2822.661, 5428.127
2824.589, 5442.751
2826.518, 5444.358
2828.446, 5433.119
2830.375, 5443.005
2832.303, 5470.816
2834.232, 5476.935
2836.160, 5465.669
2838.089, 5464.910
2840.017, 5472.963
2841.946, 5483.191
2843.874, 5493.593
2845.802, 5491.369
2847.731, 5486.463
2849.659, 5512.998
2851.588, 5551.793
2853.516, 5557.520
2855.445, 5547.447
2857.373, 5560.273
2859.302, 5575.098
2861.230, 5543.165
2863.159, 5510.975
2865.087, 5554.009
2867.016, 5610.165
2868.944, 5600.092
2870.873, 5578.650
2872.801, 5600.679
2874.729, 5624.785
2876.658, 5613.875
2878.586, 5600.260
2880.515, 5597.181
2882.443, 5612.709
2884.372, 5672.453
2886.300, 5712.639
2888.229, 5687.860
2890.157, 5663.073
2892.086, 5663.719
2894.014, 5667.304
2895.943, 5669.500
2897.871, 5670.142
2899.800, 5670.052
2901.728, 5664.572
2903.656, 5638.303
2905.585, 5638.073
2907.513, 5676.290
2909.442, 5691.398
2911.370, 5672.873
2913.299, 5666.187
2915.227, 5678.517
2917.156, 5693.363
2919.084, 5711.698
2921.013, 5703.375
2922.941, 5674.645
2924.870, 5700.222
2926.798, 5768.706
2928.727, 5784.092
2930.655, 5761.370
2932.583, 5760.310
2934.512, 5774.372
2936.440, 5793.891
2938.369, 5811.424
2940.297, 5812.518
2942.226, 5805.075
2944.154, 5799.688
2946.083, 5794.570
2948.011, 5786.359
2949.940, 5781.821
2951.868, 5792.366
2953.797, 5801.629
2955.725, 5794.893
2957.654, 5789.672
2959.582, 5792.746
2961.510, 5799.309
2963.439, 5813.465
2965.367, 5817.263
2967.296, 5798.308
2969.224, 5797.724
2971.153, 5833.034
2973.081, 5851.626
2975.010, 5838.031
2976.938, 5818.472
2978.867, 5790.684
2980.795, 5790.875
2982.724, 5819.723
2984.652, 5811.096
2986.581, 5768.441
2988.509, 5762.773
2990.438, 5785.613
2992.366, 5800.169
2994.294, 5809.173
2996.223, 5819.417
2998.151, 5830.046
3000.080, 5842.404
3002.008, 5851.792
3003.937, 5855.183
3005.865, 5849.889
3007.794, 5820.919
3009.722, 5799.379
3011.651, 5812.554
3013.579, 5827.771
3015.508, 5836.409
3017.436, 5836.353
3019.365, 5817.909
3021.293, 5810.864
3023.221, 5827.982
3025.150, 5820.450
3027.078, 5772.694
3029.007, 5771.205
3030.935, 5838.977
3032.864, 5866.320
3034.792, 5854.706
3036.721, 5834.071
3038.649, 5808.818
3040.578, 5789.901
3042.506, 5780.810
3044.435, 5799.001
3046.363, 5825.872
3048.292, 5832.293
3050.220, 5825.728
3052.148, 5806.949
3054.077, 5787.639
3056.005, 5779.901
3057.934, 5771.592
3059.862, 5765.979
3061.791, 5741.922
3063.719, 5661.291
3065.648, 5619.579
3067.576, 5638.085
3069.505, 5670.086
3071.433, 5715.144
3073.362, 5730.072
3075.290, 5705.970
3077.219, 5707.570
3079.147, 5727.766
3081.075, 5699.305
3083.004, 5642.078
3084.932, 5631.054
3086.861, 5646.279
3088.789, 5656.087
3090.718, 5656.667
3092.646, 5631.395
3094.575, 5613.109
3096.503, 5651.356
3098.432, 5669.469
3100.360, 5612.243
3102.289, 5571.307
3104.217, 5593.776
3106.146, 5613.374
3108.074, 5625.079
3110.002, 5610.726
3111.931, 5566.083
3113.859, 5545.914
3115.788, 5554.606
3117.716, 5571.324
3119.645, 5591.635
3121.573, 5586.837
3123.502, 5567.206
3125.430, 5555.626
3127.359, 5541.119
3129.287, 5496.017
3131.216, 5457.170
3133.144, 5457.315
3135.073, 5465.266
3137.001, 5473.490
3138.929, 5469.256
3140.858, 5446.074
3142.786, 5424.882
3144.715, 5408.085
3146.643, 5406.144
3148.572, 5423.553
3150.500, 5402.084
3152.429, 5351.925
3154.357, 5354.562
3156.286, 5389.446
3158.214, 5396.884
3160.143, 5388.297
3162.071, 5376.756
3164.000, 5364.611
3165.928, 5356.378
3167.856, 5343.923
3169.785, 5317.946
3171.713, 5298.182
3173.642, 5292.328
3175.570, 5291.461
3177.499, 5293.073
3179.427, 5309.494
3181.356, 5340.834
3183.284, 5347.755
3185.213, 5331.067
3187.141, 5302.322
3189.070, 5268.366
3190.998, 5241.687
3192.927, 5227.996
3194.855, 5251.534
3196.783, 5268.506
3198.712, 5235.821
3200.640, 5203.067
3202.569, 5189.468
3204.497, 5181.389
3206.426, 5170.856
3208.354, 5187.459
3210.283, 5234.831
3212.211, 5242.417
3214.140, 5211.481
3216.068, 5221.146
3217.997, 5250.294
3219.925, 5230.281
3221.854, 5192.542
3223.782, 5170.173
3225.710, 5159.988
3227.639, 5173.202
3229.567, 5174.619
3231.496, 5138.364
3233.424, 5111.996
3235.353, 5104.187
3237.281, 5113.112
3239.210, 5138.663
3241.138, 5135.196
3243.067, 5108.585
3244.995, 5129.350
3246.924, 5165.412
3248.852, 5136.229
3250.781, 5087.951
3252.709, 5061.433
3254.637, 5053.286
3256.566, 5074.544
3258.494, 5082.109
3260.423, 5039.312
3262.351, 5028.975
3264.280, 5064.968
3266.208, 5067.875
3268.137, 5035.273
3270.065, 5013.571
3271.994, 5000.973
3273.922, 4986.252
3275.851, 4981.396
3277.779, 5018.755
3279.708, 5048.164
3281.636, 5024.984
3283.564, 4994.544
3285.493, 4963.790
3287.421, 4952.762
3289.350, 4970.144
3291.278, 4997.621
3293.207, 5031.015
3295.135, 5016.698
3297.064, 4975.961
3298.992, 4986.529
3300.921, 5010.001
3302.849, 4988.263
3304.778, 4965.799
3306.706, 4986.727
3308.635, 4991.174
3310.563, 4951.201
3312.491, 4939.770
3314.420, 4977.711
3316.348, 5018.957
3318.277, 5059.946
3320.205, 5064.000
3322.134, 5047.629
3324.062, 5046.884
3325.991, 5054.544
3327.919, 5079.597
3329.848, 5082.397
3331.776, 5011.544
3333.705, 4975.320
3335.633, 5007.215
3337.562, 5023.211
3339.490, 5014.067
3341.418, 4990.554
3343.347, 4960.406
3345.275, 4965.707
3347.204, 4985.677
3349.132, 4997.101
3351.061, 4998.938
3352.989, 4985.122
3354.918, 4970.973
3356.846, 4959.776
3358.775, 4952.018
3360.703, 4946.850
3362.632, 4945.454
3364.560, 4949.447
3366.489, 4976.071
3368.417, 5006.380
3370.345, 4995.108
3372.274, 4976.752
3374.202, 4980.968
3376.131, 4985.024
3378.059, 4980.817
3379.988, 4968.827
3381.916, 4946.261
3383.845, 4950.896
3385.773, 4979.703
3387.702, 4978.857
3389.630, 4964.651
3391.559, 4962.664
3393.487, 4970.957
3395.416, 5002.538
3397.344, 5016.732
3399.272, 4982.576
3401.201, 4975.164
3403.129, 5009.671
3405.058, 5025.862
3406.986, 5022.800
3408.915, 5009.341
3410.843, 4990.379
3412.772, 4974.263
3414.700, 4958.355
3416.629, 4927.859
3418.557, 4925.770
3420.486, 4977.376
3422.414, 5007.906
3424.343, 5006.606
3426.271, 4996.175
3428.199, 4981.859
3430.128, 4992.007
3432.056, 5007.458
3433.985, 5001.509
3435.913, 4995.339
3437.842, 5003.295
3439.770, 5008.833
3441.699, 5007.299
3443.627, 5005.977
3445.556, 5004.863
3447.484, 4998.399
3449.413, 4989.639
3451.341, 4987.168
3453.270, 4984.656
3455.198, 4971.428
3457.126, 4968.375
3459.055, 5000.860
3460.983, 5005.832
3462.912, 4978.753
3464.840, 4972.941
3466.769, 4990.274
3468.697, 5058.421
3470.626, 5118.928
3472.554, 5084.054
3474.483, 5048.708
3476.411, 5077.043
3478.340, 5083.421
3480.268, 5048.906
3482.197, 5032.694
3484.125, 5034.981
3486.053, 5029.407
3487.982, 5019.135
3489.910, 5002.051
3491.839, 4993.487
3493.767, 5004.040
3495.696, 5021.313
3497.624, 5053.290
3499.553, 5045.769
3501.481, 5005.486
3503.410, 5015.934
3505.338, 5048.304
3507.267, 5044.525
3509.195, 5039.332
3511.124, 5063.731
3513.052, 5078.125
3514.980, 5064.763
3516.909, 5068.753
3518.837, 5088.079
3520.766, 5071.880
3522.694, 5038.561
3524.623, 5020.465
3526.551, 5020.929
3528.480, 5060.511
3530.408, 5083.004
3532.337, 5071.674
3534.265, 5081.200
3536.194, 5113.134
3538.122, 5084.784
3540.051, 5042.600
3541.979, 5095.448
3543.907, 5143.593
3545.836, 5090.503
3547.764, 5061.503
3549.693, 5091.226
3551.621, 5079.848
3553.550, 5030.001
3555.478, 5043.876
3557.407, 5083.676
3559.335, 5095.208
3561.264, 5100.092
3563.192, 5113.288
3565.121, 5112.979
3567.049, 5085.786
3568.978, 5082.035
3570.906, 5096.134
3572.834, 5104.250
3574.763, 5110.328
3576.691, 5120.621
3578.620, 5127.232
3580.548, 5124.535
3582.477, 5120.414
3584.405, 5115.711
3586.334, 5116.107
3588.262, 5117.245
3590.191, 5103.517
3592.119, 5089.040
3594.048, 5077.761
3595.976, 5086.269
3597.905, 5127.655
3599.833, 5156.159
3601.761, 5170.508
3603.690, 5186.777
3605.618, 5196.434
3607.547, 5177.364
3609.475, 5158.199
3611.404, 5155.201
3613.332, 5157.110
3615.261, 5162.906
3617.189, 5157.631
3619.118, 5142.884
3621.046, 5110.872
3622.975, 5091.408
3624.903, 5126.940
3626.832, 5148.418
3628.760, 5134.445
3630.688, 5141.107
3632.617, 5169.055
3634.545, 5169.892
3636.474, 5165.003
3638.402, 5182.068
3640.331, 5208.339
3642.259, 5245.400
3644.188, 5261.166
3646.116, 5249.243
3648.045, 5227.179
3649.973, 5207.146
3651.902, 5231.514
3653.830, 5249.435
3655.759, 5204.055
3657.687, 5182.637
3659.615, 5204.168
3661.544, 5215.159
3663.472, 5217.585
3665.401, 5233.330
3667.329, 5248.818
3669.258, 5251.354
3671.186, 5249.368
3673.115, 5247.027
3675.043, 5229.922
3676.972, 5200.699
3678.900, 5170.743
3680.829, 5153.157
3682.757, 5161.876
3684.686, 5197.682
3686.614, 5274.291
3688.542, 5290.009
3690.471, 5240.409
3692.399, 5233.686
3694.328, 5233.827
3696.256, 5164.451
3698.185, 5124.538
3700.113, 5166.190
3702.042, 5184.833
3703.970, 5165.191
3705.899, 5176.272
3707.827, 5204.226
3709.756, 5243.234
3711.684, 5251.580
3713.613, 5197.569
3715.541, 5163.825
3717.469, 5163.101
3719.398, 5198.482
3721.326, 5243.698
3723.255, 5252.549
3725.183, 5247.422
3727.112, 5240.832
3729.040, 5225.209
3730.969, 5198.282
3732.897, 5197.930
3734.826, 5210.853
3736.754, 5207.223
3738.683, 5212.376
3740.611, 5247.122
3742.540, 5253.192
3744.468, 5219.342
3746.396, 5213.413
3748.325, 5227.046
3750.253, 5254.297
3752.182, 5274.604
3754.110, 5279.075
3756.039, 5272.153
3757.967, 5254.458
3759.896, 5238.206
3761.824, 5229.398
3763.753, 5248.912
3765.681, 5253.301
3767.610, 5216.096
3769.538, 5222.745
3771.467, 5276.558
3773.395, 5288.986
3775.323, 5280.589
3777.252, 5270.160
3779.180, 5264.576
3781.109, 5264.342
3783.037, 5286.688
3784.966, 5322.803
3786.894, 5303.021
3788.823, 5266.148
3790.751, 5240.841
3792.680, 5237.428
3794.608, 5260.750
3796.537, 5265.046
3798.465, 5256.350
3800.394, 5263.811
3802.322, 5281.240
3804.250, 5320.415
3806.179, 5326.923
3808.107, 5292.450
3810.036, 5295.960
3811.964, 5319.207
3813.893, 5321.111
3815.821, 5315.213
3817.750, 5303.440
3819.678, 5300.530
3821.607, 5307.134
3823.535, 5312.258
3825.464, 5318.923
3827.392, 5342.378
3829.321, 5342.450
3831.249, 5299.167
3833.177, 5294.811
3835.106, 5319.662
3837.034, 5309.123
3838.963, 5297.793
3840.891, 5316.550
3842.820, 5333.894
3844.748, 5344.806
3846.677, 5354.792
3848.605, 5364.222
3850.534, 5377.257
3852.462, 5387.257
3854.391, 5393.541
3856.319, 5394.482
3858.248, 5392.410
3860.176, 5419.049
3862.104, 5441.992
3864.033, 5425.318
3865.961, 5405.476
3867.890, 5384.899
3869.818, 5396.999
3871.747, 5421.529
3873.675, 5402.903
3875.604, 5405.664
3877.532, 5479.092
3879.461, 5511.432
3881.389, 5493.971
3883.318, 5465.004
3885.246, 5448.387
3887.175, 5479.403
3889.103, 5491.081
3891.031, 5468.740
3892.960, 5459.555
3894.888, 5463.458
3896.817, 5478.690
3898.745, 5508.153
3900.674, 5549.797
3902.602, 5552.000
3904.531, 5521.725
3906.459, 5526.430
3908.388, 5541.184
3910.316, 5546.063
3912.245, 5556.339
3914.173, 5555.987
3916.102, 5540.557
3918.030, 5535.616
3919.958, 5568.123
3921.887, 5591.426
3923.815, 5557.064
3925.744, 5551.464
3927.672, 5590.851
3929.601, 5594.763
3931.529, 5585.718
3933.458, 5609.627
3935.386, 5627.474
3937.315, 5628.738
3939.243, 5607.192
3941.172, 5592.230
3943.100, 5618.957
3945.029, 5648.718
3946.957, 5656.966
3948.885, 5657.634
3950.814, 5654.361
3952.742, 5663.554
3954.671, 5684.553
3956.599, 5685.954
3958.528, 5684.920
3960.456, 5705.037
3962.385, 5708.908
3964.313, 5688.817
3966.242, 5675.917
3968.170, 5697.907
3970.099, 5729.958
3972.027, 5738.482
3973.956, 5741.196
3975.884, 5737.134
3977.813, 5724.500
3979.741, 5726.508
3981.669, 5722.793
3983.598, 5713.360
3985.526, 5750.584
3987.455, 5769.431
3989.383, 5717.598
3991.312, 5721.663
3993.240, 5767.926
3995.169, 5757.913
3997.097, 5764.916
3999.026, 5819.270
4000.954, 5829.561
4002.883, 5820.999
4004.811, 5800.201
4006.740, 5797.224
4008.668, 5826.461
4010.596, 5821.696
4012.525, 5810.180
4014.453, 5834.455
4016.382, 5856.614
4018.310, 5866.444
4020.239, 5853.873
4022.167, 5828.214
4024.096, 5832.774
4026.024, 5841.984
4027.953, 5828.592
4029.881, 5860.343
4031.810, 5916.237
4033.738, 5911.955
4035.667, 5903.029
4037.595, 5925.989
4039.523, 5909.832
4041.452, 5860.176
4043.380, 5882.259
4045.309, 5938.686
4047.237, 6046.760
4049.166, 6055.426
4051.094, 5933.583
4053.023, 5920.310
4054.951, 5951.877
4056.880, 5944.139
4058.808, 5946.273
4060.737, 5975.278
4062.665, 5999.861
4064.594, 6003.020
4066.522, 5961.137
4068.450, 5949.780
4070.379, 6005.165
4072.307, 6010.717
4074.236, 5975.515
4076.164, 6020.835
4078.093, 6070.838
4080.021, 6049.277
4081.950, 6032.674
4083.878, 6041.983
4085.807, 6051.077
4087.735, 6059.150
4089.664, 6077.422
4091.592, 6074.669
4093.521, 6049.435
4095.449, 6062.198
4097.377, 6097.128
4099.306, 6113.503
4101.234, 6111.975
4103.163, 6105.368
4105.091, 6100.322
4107.020, 6100.695
4108.948, 6091.904
4110.877, 6107.752
4112.805, 6140.452
4114.734, 6143.899
4116.662, 6139.244
4118.591, 6135.869
4120.519, 6133.819
4122.448, 6124.543
4124.376, 6137.394
4126.305, 6164.361
4128.233, 6171.332
4130.162, 6157.570
4132.090, 6149.598
4134.019, 6144.954
4135.947, 6140.909
4137.875, 6133.849
4139.804, 6155.463
4141.732, 6205.049
4143.661, 6200.875
4145.589, 6180.993
4147.518, 6176.783
4149.446, 6177.326
4151.375, 6173.849
4153.303, 6186.697
4155.231, 6220.146
4157.160, 6217.161
4159.088, 6194.221
4161.017, 6171.668
4162.945, 6171.865
4164.874, 6208.705
4166.802, 6277.083
4168.731, 6300.041
4170.659, 6245.321
4172.588, 6259.511
4174.516, 6336.085
4176.445, 6327.523
4178.373, 6287.288
4180.302, 6285.241
4182.230, 6284.706
4184.159, 6270.611
4186.087, 6231.766
4188.016, 6227.478
4189.944, 6311.629
4191.873, 6351.267
4193.801, 6339.408
4195.729, 6350.722
4197.658, 6358.583
4199.586, 6305.303
4201.515, 6293.765
4203.443, 6340.277
4205.372, 6332.318
4207.300, 6320.014
4209.229, 6355.325
4211.157, 6363.829
4213.085, 6348.531
4215.014, 6364.784
4216.942, 6378.888
4218.871, 6360.059
4220.799, 6364.780
4222.728, 6389.961
4224.656, 6382.438
4226.585, 6382.296
4228.513, 6427.009
4230.442, 6452.132
4232.370, 6457.902
4234.299, 6471.734
4236.227, 6470.548
4238.156, 6414.218
4240.084, 6423.500
4242.013, 6478.452
4243.941, 6492.181
4245.870, 6483.610
4247.798, 6441.552
4249.727, 6452.747
4251.655, 6485.716
4253.583, 6440.771
4255.512, 6414.673
4257.440, 6460.871
4259.369, 6488.535
4261.297, 6491.500
4263.226, 6434.862
4265.154, 6414.934
4267.083, 6469.069
4269.011, 6518.663
4270.939, 6548.171
4272.868, 6507.229
4274.796, 6522.401
4276.725, 6613.798
4278.653, 6579.654
4280.582, 6518.443
4282.510, 6533.728
4284.439, 6541.412
4286.367, 6534.895
4288.296, 6532.581
4290.224, 6529.649
4292.153, 6516.130
4294.081, 6527.780
4296.010, 6549.588
4297.938, 6515.648
4299.867, 6490.013
4301.795, 6505.562
4303.724, 6534.428
4305.652, 6561.892
4307.581, 6540.549
4309.509, 6556.505
4311.438, 6644.734
4313.366, 6609.332
4315.294, 6545.995
4317.223, 6568.563
4319.151, 6581.663
4321.080, 6572.811
4323.008, 6559.388
4324.937, 6552.816
4326.865, 6561.664
4328.793, 6574.580
4330.722, 6590.138
4332.650, 6622.958
4334.579, 6622.934
4336.507, 6568.460
4338.436, 6547.781
4340.364, 6540.625
4342.293, 6491.474
4344.221, 6505.885
4346.150, 6587.158
4348.078, 6542.170
4350.007, 6489.102
4351.935, 6540.264
4353.864, 6546.196
4355.792, 6513.775
4357.721, 6519.096
4359.649, 6546.659
4361.578, 6595.368
4363.506, 6554.740
4365.435, 6501.141
4367.363, 6597.587
4369.292, 6635.529
4371.220, 6572.066
4373.148, 6523.893
4375.077, 6499.326
4377.005, 6512.439
4378.934, 6525.564
4380.862, 6543.581
4382.791, 6630.803
4384.719, 6651.952
4386.647, 6523.967
4388.576, 6497.581
4390.504, 6524.626
4392.433, 6547.587
4394.361, 6550.041
4396.290, 6534.986
4398.218, 6599.271
4400.147, 6618.985
4402.075, 6499.833
4404.004, 6512.515
4405.932, 6606.083
4407.861, 6646.605
4409.789, 6651.547
4411.718, 6627.656
4413.646, 6566.571
4415.575, 6516.118
4417.503, 6532.539
4419.432, 6526.052
4421.360, 6501.756
4423.289, 6507.779
4425.217, 6502.292
4427.146, 6457.507
4429.074, 6476.604
4431.002, 6519.340
4432.931, 6548.480
4434.859, 6540.385
4436.788, 6504.751
4438.716, 6513.718
4440.645, 6523.523
4442.573, 6517.303
4444.501, 6447.532
4446.430, 6386.925
4448.358, 6465.583
4450.287, 6490.447
4452.215, 6456.479
4454.144, 6501.861
4456.072, 6533.870
4458.001, 6490.382
4459.929, 6483.372
4461.858, 6497.228
4463.786, 6511.291
4465.715, 6510.585
4467.643, 6494.847
4469.572, 6471.316
4471.500, 6448.518
4473.429, 6429.063
4475.357, 6429.855
4477.286, 6430.030
4479.214, 6381.582
4481.143, 6380.055
4483.071, 6433.366
4485.000, 6554.708
4486.928, 6590.695
4488.856, 6442.413
4490.785, 6438.785
4492.713, 6491.201
4494.642, 6452.586
4496.570, 6453.373
4498.499, 6497.255
4500.427, 6530.292
4502.355, 6526.228
4504.284, 6471.530
4506.212, 6488.157
4508.141, 6509.658
4510.069, 6450.879
4511.998, 6449.390
4513.926, 6481.437
4515.855, 6410.177
4517.783, 6391.155
4519.712, 6478.730
4521.640, 6493.307
4523.569, 6485.386
4525.497, 6497.967
4527.426, 6498.417
4529.354, 6473.699
4531.283, 6369.807
4533.211, 6340.239
4535.140, 6396.737
4537.068, 6416.140
4538.997, 6435.224
4540.925, 6478.942
4542.854, 6456.240
4544.782, 6408.397
4546.710, 6387.742
4548.639, 6394.035
4550.567, 6414.062
4552.496, 6392.990
4554.424, 6375.182
4556.353, 6373.712
4558.281, 6386.396
4560.209, 6406.014
4562.138, 6427.283
4564.066, 6467.536
4565.995, 6495.927
4567.923, 6457.790
4569.852, 6384.845
4571.780, 6304.117
4573.709, 6354.227
4575.637, 6407.325
4577.566, 6415.141
4579.494, 6373.984
4581.423, 6330.510
4583.351, 6321.168
4585.280, 6338.463
4587.208, 6365.427
4589.137, 6372.539
4591.065, 6383.066
4592.994, 6395.808
4594.922, 6356.886
4596.851, 6333.724
4598.779, 6352.065
4600.708, 6361.257
4602.636, 6362.921
4604.564, 6357.088
4606.493, 6367.831
4608.421, 6383.662
4610.350, 6375.476
4612.278, 6393.521
4614.207, 6420.029
4616.135, 6278.668
4618.063, 6199.348
4619.992, 6250.532
4621.920, 6302.597
4623.849, 6310.859
4625.777, 6228.878
4627.706, 6220.803
4629.634, 6258.063
4631.563, 6307.638
4633.491, 6318.627
4635.420, 6291.750
4637.348, 6223.171
4639.277, 6195.456
4641.205, 6218.615
4643.134, 6244.984
4645.062, 6258.693
4646.991, 6252.310
4648.919, 6202.705
4650.848, 6178.826
4652.776, 6254.322
4654.705, 6281.622
4656.633, 6275.902
4658.562, 6283.818
4660.490, 6254.942
4662.418, 6205.383
4664.347, 6217.290
4666.275, 6215.417
4668.204, 6183.119
4670.132, 6207.356
4672.061, 6224.540
4673.989, 6207.305
4675.917, 6166.748
4677.846, 6163.869
4679.774, 6290.046
4681.703, 6320.042
4683.631, 6277.089
4685.560, 6185.209
4687.488, 6138.107
4689.417, 6129.125
4691.345, 6113.632
4693.274, 6111.622
4695.202, 6124.328
4697.131, 6147.910
4699.059, 6135.878
4700.988, 6073.660
4702.916, 6104.913
4704.845, 6136.573
4706.773, 6117.748
4708.702, 6080.901
4710.630, 6054.914
4712.559, 6070.730
4714.487, 6080.863
4716.416, 6100.439
4718.344, 6177.261
4720.272, 6150.211
4722.201, 6066.873
4724.129, 6074.466
4726.058, 6104.042
4727.986, 6134.146
4729.915, 6140.659
4731.843, 6113.878
4733.771, 6059.305
4735.700, 6029.473
4737.628, 6030.835
4739.557, 6071.500
4741.485, 6044.086
4743.414, 6019.965
4745.342, 6047.652
4747.271, 6054.751
4749.199, 6055.893
4751.128, 6067.669
4753.056, 6096.546
4754.985, 6109.645
4756.913, 6048.349
4758.842, 6015.559
4760.770, 5998.447
4762.699, 5920.068
4764.627, 5951.446
4766.556, 6052.182
4768.484, 5992.095
4770.413, 5978.412
4772.341, 6036.139
4774.270, 6060.365
4776.198, 6015.168
4778.126, 5915.701
4780.055, 5983.924
4781.983, 6043.872
4783.912, 6019.563
4785.840, 5983.228
4787.769, 5970.896
4789.697, 5999.745
4791.625, 6030.728
4793.554, 6016.336
4795.482, 5902.258
4797.411, 5917.956
4799.339, 5961.466
4801.268, 5934.297
4803.196, 5939.597
4805.125, 5948.562
4807.053, 5899.959
4808.982, 5917.314
4810.910, 5969.088
4812.839, 6015.651
4814.767, 5976.093
4816.696, 5898.715
4818.624, 5882.280
4820.553, 5917.237
4822.481, 5967.387
4824.410, 5942.874
4826.338, 5925.153
4828.267, 5924.550
4830.195, 5925.109
4832.124, 5946.968
4834.052, 5977.458
4835.980, 5937.258
4837.909, 5909.930
4839.837, 5910.295
4841.766, 5908.556
4843.694, 5902.707
4845.623, 5893.620
4847.551, 5891.187
4849.479, 5879.924
4851.408, 5858.075
4853.336, 5851.325
4855.265, 5878.488
4857.193, 5935.183
4859.122, 5909.315
4861.050, 5870.904
4862.979, 5851.678
4864.907, 5878.087
4866.836, 5919.621
4868.764, 5959.825
4870.693, 5953.656
4872.621, 5945.500
4874.550, 5961.979
4876.478, 5837.782
4878.407, 5771.238
4880.335, 5848.685
4882.264, 5888.205
4884.192, 5881.861
4886.121, 5815.240
4888.049, 5901.580
4889.978, 5930.841
4891.906, 5803.234
4893.834, 5789.368
4895.763, 5817.616
4897.691, 5840.961
4899.620, 5854.247
4901.548, 5849.662
4903.477, 5823.628
4905.405, 5811.852
4907.333, 5796.708
4909.262, 5767.782
4911.190, 5834.501
4913.119, 5873.920
4915.047, 5809.523
4916.976, 5766.773
4918.904, 5776.018
4920.833, 5846.431
4922.761, 5848.211
4924.690, 5829.516
4926.618, 5820.270
4928.547, 5760.545
4930.475, 5765.765
4932.404, 5870.395
4934.332, 5803.698
4936.261, 5748.961
4938.189, 5794.312
4940.118, 5808.823
4942.046, 5802.750
4943.975, 5782.247
4945.903, 5770.028
4947.832, 5744.053
4949.760, 5704.481
4951.688, 5722.434
4953.617, 5750.995
4955.545, 5771.331
4957.474, 5761.610
4959.402, 5760.960
4961.331, 5767.303
4963.259, 5694.893
4965.188, 5699.828
4967.116, 5786.198
4969.044, 5785.612
4970.973, 5773.606
4972.901, 5764.785
4974.830, 5728.686
4976.758, 5765.155
4978.687, 5834.972
4980.615, 5791.147
4982.544, 5719.105
4984.472, 5668.183
4986.401, 5718.719
4988.329, 5756.285
4990.258, 5763.703
4992.186, 5725.390
4994.115, 5725.012
4996.043, 5744.808
4997.972, 5761.125
4999.900, 5733.567
5001.829, 5693.053
5003.757, 5671.093
5005.686, 5688.901
5007.614, 5703.907
5009.542, 5670.364
5011.471, 5683.645
5013.399, 5692.076
5015.328, 5666.647
5017.256, 5639.044
5019.185, 5637.884
5021.113, 5671.623
5023.042, 5682.386
5024.970, 5663.836
5026.898, 5627.608
5028.827, 5693.517
5030.755, 5728.601
5032.684, 5715.163
5034.612, 5708.344
5036.541, 5712.378
5038.469, 5705.488
5040.398, 5606.758
5042.326, 5573.668
5044.255, 5597.844
5046.183, 5638.228
5048.112, 5626.815
5050.040, 5600.798
5051.969, 5620.409
5053.897, 5604.399
5055.826, 5579.150
5057.754, 5566.321
5059.683, 5576.628
5061.611, 5597.076
5063.540, 5619.737
5065.468, 5650.787
5067.396, 5636.759
5069.325, 5573.979
5071.253, 5648.565
5073.182, 5667.677
5075.110, 5607.154
5077.039, 5544.044
5078.967, 5556.345
5080.896, 5597.212
5082.824, 5530.735
5084.752, 5532.237
5086.681, 5575.592
5088.609, 5611.146
5090.538, 5596.755
5092.466, 5572.923
5094.395, 5573.302
5096.323, 5636.812
5098.252, 5652.648
5100.180, 5566.715
5102.109, 5583.901
5104.037, 5588.253
5105.966, 5557.511
5107.894, 5583.306
5109.823, 5518.679
5111.751, 5426.114
5113.680, 5541.449
5115.608, 5573.266
5117.537, 5571.319
5119.465, 5655.856
5121.394, 5620.812
5123.322, 5553.104
5125.250, 5530.687
5127.179, 5547.714
5129.107, 5535.977
5131.036, 5475.213
5132.964, 5553.569
5134.893, 5583.096
5136.821, 5551.061
5138.750, 5605.752
5140.678, 5586.313
5142.606, 5532.916
5144.535, 5564.673
5146.463, 5530.850
5148.392, 5494.530
5150.320, 5525.004
5152.249, 5483.773
5154.177, 5466.113
5156.106, 5510.349
5158.034, 5537.275
5159.963, 5542.374
5161.891, 5523.812
5163.820, 5459.719
5165.748, 5443.685
5167.677, 5461.128
5169.605, 5469.859
5171.534, 5465.346
5173.462, 5460.317
5175.391, 5464.922
5177.319, 5489.617
5179.248, 5517.990
5181.176, 5537.591
5183.104, 5501.163
5185.033, 5485.386
5186.961, 5493.151
5188.890, 5489.943
5190.818, 5469.970
5192.747, 5473.970
5194.675, 5566.926
5196.604, 5513.174
5198.532, 5452.707
5200.460, 5463.450
5202.389, 5441.654
5204.317, 5438.859
5206.246, 5456.701
5208.174, 5462.853
5210.103, 5451.892
5212.031, 5428.999
5213.960, 5385.578
5215.888, 5424.503
5217.817, 5470.005
5219.745, 5474.444
5221.674, 5450.481
5223.602, 5398.456
5225.531, 5352.072
5227.459, 5435.582
5229.388, 5444.806
5231.316, 5412.567
5233.245, 5423.170
5235.173, 5404.628
5237.102, 5406.479
5239.030, 5451.875
5240.958, 5474.444
5242.887, 5434.014
5244.815, 5360.399
5246.744, 5356.979
5248.672, 5376.710
5250.601, 5388.361
5252.529, 5359.119
5254.458, 5374.217
5256.386, 5343.865
5258.314, 5255.751
5260.243, 5334.381
5262.171, 5365.722
5264.100, 5343.583
5266.028, 5360.300
5267.957, 5336.405
5269.885, 5309.886
5271.814, 5315.320
5273.742, 5378.833
5275.671, 5377.434
5277.599, 5307.471
5279.528, 5311.301
5281.456, 5282.241
5283.385, 5263.873
5285.313, 5354.846
5287.242, 5298.738
5289.170, 5265.900
5291.099, 5332.769
5293.027, 5363.989
5294.956, 5370.552
5296.884, 5352.762
5298.813, 5300.758
5300.741, 5255.996
5302.669, 5254.062
5304.598, 5315.840
5306.526, 5246.483
5308.455, 5263.982
5310.383, 5353.664
5312.312, 5303.811
5314.240, 5196.820
5316.168, 5152.380
5318.097, 5254.209
5320.025, 5224.198
5321.954, 5194.558
5323.882, 5207.860
5325.811, 5217.389
5327.739, 5222.936
5329.668, 5223.262
5331.596, 5216.611
5333.525, 5251.835
5335.453, 5271.617
5337.382, 5263.185
5339.310, 5270.530
5341.239, 5293.832
5343.167, 5282.664
5345.096, 5146.892
5347.024, 5183.257
5348.953, 5242.602
5350.881, 5255.607
5352.810, 5206.044
5354.738, 5171.889
5356.667, 5182.192
5358.595, 5255.342
5360.523, 5190.474
5362.452, 5147.798
5364.380, 5184.110
5366.309, 5215.446
5368.237, 5205.920
5370.166, 5195.285
5372.094, 5234.858
5374.022, 5197.419
5375.951, 5126.317
5377.879, 5069.886
5379.808, 5137.826
5381.736, 5172.598
5383.665, 5152.803
5385.593, 5067.147
5387.522, 5137.571
5389.450, 5171.938
5391.379, 5138.965
5393.307, 5146.812
5395.236, 5119.425
5397.164, 5095.501
5399.093, 5103.082
5401.021, 5021.729
5402.950, 5015.013
5404.878, 5066.590
5406.807, 5037.967
5408.735, 5093.361
5410.664, 5155.946
5412.592, 5173.713
5414.521, 5107.630
5416.449, 5097.746
5418.377, 5113.718
5420.306, 5079.675
5422.234, 5073.775
5424.163, 5071.735
5426.091, 5065.743
5428.020, 5084.765
5429.948, 5051.349
5431.876, 5010.504
5433.805, 5008.111
5435.733, 5081.753
5437.662, 5070.708
5439.590, 5021.030
5441.519, 5115.106
5443.447, 5101.563
5445.376, 5037.785
5447.304, 4976.818
5449.233, 4939.579
5451.161, 4924.060
5453.090, 4931.529
5455.018, 4970.444
5456.947, 4984.642
5458.875, 4988.264
5460.804, 4990.061
5462.732, 4997.358
5464.661, 5021.437
5466.589, 5031.446
5468.518, 5009.907
5470.446, 4946.358
5472.375, 4955.742
5474.303, 4996.448
5476.231, 5002.602
5478.160, 4977.753
5480.088, 4924.156
5482.017, 4870.090
5483.945, 4873.201
5485.874, 4928.961
5487.802, 4977.612
5489.730, 4986.281
5491.659, 4947.778
5493.587, 4948.536
5495.516, 4948.390
5497.444, 4901.011
5499.373, 4922.854
5501.301, 4909.710
5503.230, 4868.754
5505.158, 4866.429
5507.087, 4886.912
5509.015, 4894.953
5510.944, 4891.941
5512.872, 4936.728
5514.801, 4933.639
5516.729, 4930.867
5518.658, 4958.390
5520.586, 4925.000
5522.515, 4947.167
5524.443, 4964.786
5526.372, 4890.061
5528.300, 4834.666
5530.229, 4860.349
5532.157, 4908.572
5534.085, 4833.103
5536.014, 4833.840
5537.942, 4872.414
5539.871, 4903.381
5541.799, 4864.557
5543.728, 4787.146
5545.656, 4740.679
5547.584, 4755.586
5549.513, 4789.296
5551.441, 4837.604
5553.370, 4863.380
5555.298, 4837.499
5557.227, 4798.840
5559.155, 4801.585
5561.084, 4818.741
5563.012, 4802.754
5564.941, 4760.135
5566.869, 4736.772
5568.798, 4726.017
5570.726, 4693.756
5572.655, 4705.599
5574.583, 4722.187
5576.512, 4736.035
5578.440, 4787.404
5580.369, 4775.355
5582.297, 4735.130
5584.226, 4700.852
5586.154, 4727.199
5588.083, 4707.902
5590.011, 4698.300
5591.939, 4727.282
5593.868, 4721.741
5595.796, 4678.636
5597.725, 4659.214
5599.653, 4696.104
5601.582, 4680.349
5603.510, 4674.803
5605.438, 4694.018
5607.367, 4732.923
5609.295, 4699.127
5611.224, 4668.844
5613.152, 4648.227
5615.081, 4621.236
5617.009, 4631.477
5618.938, 4641.718
5620.866, 4636.628
5622.795, 4610.399
5624.723, 4524.859
5626.652, 4542.914
5628.580, 4631.617
5630.509, 4678.364
5632.437, 4683.384
5634.366, 4702.602
5636.294, 4692.846
5638.223, 4555.628
5640.151, 4550.362
5642.080, 4609.974
5644.008, 4658.724
5645.937, 4593.611
5647.865, 4623.595
5649.793, 4613.664
5651.722, 4557.780
5653.650, 4542.164
5655.579, 4553.365
5657.507, 4557.244
5659.436, 4568.941
5661.364, 4640.749
5663.292, 4565.718
5665.221, 4539.823
5667.149, 4583.157
5669.078, 4592.771
5671.006, 4507.025
5672.935, 4509.898
5674.863, 4578.860
5676.792, 4539.396
5678.720, 4528.254
5680.649, 4509.555
5682.577, 4491.801
5684.506, 4520.245
5686.434, 4559.754
5688.363, 4514.895
5690.291, 4457.199
5692.220, 4544.344
5694.148, 4541.489
5696.077, 4533.447
5698.005, 4531.832
5699.934, 4513.318
5701.862, 4505.131
5703.791, 4452.008
5705.719, 4417.110
5707.647, 4480.306
5709.576, 4518.146
5711.504, 4473.330
5713.433, 4414.285
5715.361, 4417.041
5717.290, 4471.327
5719.218, 4499.928
5721.146, 4488.528
5723.075, 4447.405
5725.003, 4478.360
5726.932, 4408.960
5728.860, 4349.540
5730.789, 4380.491
5732.717, 4399.800
5734.646, 4427.339
5736.574, 4422.569
5738.503, 4384.213
5740.431, 4391.205
5742.360, 4336.796
5744.288, 4348.888
5746.217, 4421.022
5748.145, 4395.002
5750.074, 4347.296
5752.002, 4350.116
5753.931, 4393.660
5755.859, 4428.155
5757.788, 4358.396
5759.716, 4360.928
5761.645, 4392.430
5763.573, 4338.353
5765.501, 4353.762
5767.430, 4350.553
5769.358, 4338.361
5771.287, 4344.426
5773.215, 4400.067
5775.144, 4362.700
5777.072, 4300.836
5779.000, 4271.285
5780.929, 4272.567
5782.857, 4286.866
5784.786, 4284.271
5786.714, 4276.569
5788.643, 4306.652
5790.571, 4300.620
5792.500, 4289.608
5794.428, 4279.825
5796.357, 4263.678
5798.285, 4203.954
5800.214, 4225.319
5802.142, 4282.101
5804.071, 4310.643
5805.999, 4250.672
5807.928, 4217.021
5809.856, 4202.573
5811.785, 4193.396
5813.713, 4172.448
5815.642, 4255.788
5817.570, 4248.752
5819.499, 4184.603
5821.427, 4209.737
5823.355, 4241.152
5825.284, 4241.460
5827.212, 4223.696
5829.141, 4204.818
5831.069, 4173.104
5832.998, 4212.415
5834.926, 4230.643
5836.854, 4197.886
5838.783, 4171.030
5840.711, 4177.897
5842.640, 4191.853
5844.568, 4191.342
5846.497, 4166.255
5848.425, 4150.615
5850.354, 4132.123
5852.282, 4109.546
5854.211, 4094.839
5856.139, 4140.424
5858.068, 4155.060
5859.996, 4126.329
5861.925, 4089.318
5863.853, 4104.529
5865.782, 4116.202
5867.710, 4137.670
5869.639, 4125.207
5871.567, 4062.805
5873.496, 4065.833
5875.424, 4046.152
5877.353, 4062.099
5879.281, 4106.571
5881.209, 4111.783
5883.138, 4102.349
5885.066, 4087.933
5886.995, 4050.089
5888.923, 3991.523
5890.852, 4026.739
5892.780, 4018.566
5894.708, 4006.075
5896.637, 4014.557
5898.565, 4039.361
5900.494, 4053.184
5902.422, 4082.452
5904.351, 4078.130
5906.279, 4020.744
5908.208, 4014.715
5910.136, 4004.641
5912.065, 3998.944
5913.993, 4005.320
5915.922, 4022.299
5917.850, 4000.474
5919.779, 3962.236
5921.707, 3956.126
5923.636, 3989.026
5925.564, 3982.593
5927.493, 4002.056
5929.421, 4009.122
5931.350, 4005.090
5933.278, 4004.774
5935.207, 3929.885
5937.135, 3978.530
5939.063, 3979.841
5940.992, 3908.916
5942.920, 3949.793
5944.849, 3953.565
5946.777, 3920.282
5948.706, 3947.356
5950.634, 3960.490
5952.563, 3960.425
5954.491, 3907.646
5956.419, 3922.941
5958.348, 3910.951
5960.276, 3897.847
5962.205, 3922.719
5964.133, 3877.608
5966.062, 3901.878
5967.990, 3898.453
5969.919, 3907.703
5971.847, 3889.505
5973.776, 3879.785
5975.704, 3897.522
5977.633, 3900.056
5979.561, 3878.699
5981.490, 3888.753
5983.418, 3842.684
5985.347, 3845.864
5987.275, 3870.297
5989.204, 3850.318
5991.132, 3860.877
5993.061, 3859.804
5994.989, 3805.882
5996.917, 3843.874
5998.846, 3842.113
6000.774, 3799.541
6002.703, 3834.381
6004.631, 3797.436
6006.560, 3815.257
6008.488, 3786.806
6010.417, 3810.794
6012.345, 3792.814
6014.273, 3742.006
6016.202, 3793.040
6018.130, 3811.443
6020.059, 3813.890
6021.987, 3801.604
6023.916, 3776.398
6025.844, 3750.206
6027.773, 3713.616
6029.701, 3722.929
6031.630, 3739.127
6033.558, 3736.669
6035.487, 3755.084
6037.415, 3718.418
6039.344, 3706.989
6041.272, 3720.141
6043.201, 3729.217
6045.129, 3704.858
6047.058, 3722.663
6048.986, 3727.999
6050.915, 3704.759
6052.843, 3671.506
6054.771, 3686.081
6056.700, 3684.355
6058.628, 3684.585
6060.557, 3700.838
6062.485, 3710.620
6064.414, 3602.768
6066.342, 3679.466
6068.271, 3693.542
6070.199, 3636.172
6072.127, 3594.271
6074.056, 3655.012
6075.984, 3679.266
6077.913, 3640.803
6079.841, 3620.713
6081.770, 3638.671
6083.698, 3553.992
6085.627, 3596.125
6087.555, 3602.710
6089.484, 3608.749
6091.412, 3643.001
6093.341, 3631.289
6095.269, 3657.746
6097.198, 3635.090
6099.126, 3585.451
6101.055, 3554.881
6102.983, 3575.114
6104.912, 3579.868
6106.840, 3552.473
6108.769, 3541.695
6110.697, 3540.206
6112.625, 3500.697
6114.554, 3529.854
6116.482, 3548.872
6118.411, 3571.471
6120.339, 3596.143
6122.268, 3599.739
6124.196, 3528.305
6126.125, 3501.267
6128.053, 3513.771
6129.981, 3540.685
6131.910, 3543.492
6133.838, 3432.491
6135.767, 3471.255
6137.695, 3506.862
6139.624, 3531.210
6141.552, 3548.424
6143.481, 3497.035
6145.409, 3470.675
6147.338, 3459.421
6149.266, 3457.929
6151.195, 3473.164
6153.123, 3509.811
6155.052, 3513.225
6156.980, 3474.037
6158.909, 3429.006
6160.837, 3421.657
6162.766, 3456.181
6164.694, 3432.915
6166.623, 3422.484
6168.551, 3428.849
6170.479, 3444.272
6172.408, 3446.585
6174.336, 3403.969
6176.265, 3384.759
6178.193, 3425.178
6180.122, 3437.611
6182.050, 3408.859
6183.979, 3383.457
6185.907, 3362.324
6187.835, 3398.008
6189.764, 3410.946
6191.692, 3405.321
6193.621, 3408.074
6195.549, 3418.044
6197.478, 3370.768
6199.406, 3346.244
6201.335, 3373.993
6203.263, 3401.260
6205.192, 3363.898
6207.120, 3409.469
6209.049, 3408.568
6210.977, 3342.115
6212.906, 3294.109
6214.834, 3308.662
6216.763, 3342.262
6218.691, 3302.361
6220.620, 3312.143
6222.548, 3319.844
6224.477, 3314.713
6226.405, 3323.523
6228.333, 3361.466
6230.262, 3336.213
6232.190, 3297.279
6234.119, 3285.898
6236.047, 3291.261
6237.976, 3271.007
6239.904, 3246.714
6241.833, 3240.805
6243.761, 3246.737
6245.689, 3250.042
6247.618, 3246.744
6249.546, 3247.858
6251.475, 3207.836
6253.403, 3207.485
6255.332, 3242.847
6257.260, 3250.052
6259.189, 3203.372
6261.117, 3193.232
6263.046, 3254.188
6264.974, 3240.437
6266.903, 3216.060
6268.831, 3222.268
6270.760, 3241.708
6272.688, 3249.546
6274.617, 3209.836
6276.545, 3213.992
6278.474, 3212.636
6280.402, 3199.582
6282.331, 3209.712
6284.259, 3139.058
6286.188, 3146.833
6288.116, 3153.025
6290.044, 3198.459
6291.973, 3231.206
6293.901, 3126.237
6295.830, 3202.927
6297.758, 3127.813
6299.687, 3138.360
6301.615, 3180.210
6303.543, 3167.128
6305.472, 3107.024
6307.400, 3128.984
6309.329, 3191.623
6311.257, 3147.094
6313.186, 3103.209
6315.114, 3102.344
6317.043, 3071.072
6318.971, 3084.608
6320.900, 3074.923
6322.828, 3110.593
6324.757, 3126.207
6326.685, 3107.123
6328.614, 3100.241
6330.542, 3079.457
6332.471, 3046.902
6334.399, 3056.801
6336.328, 3051.511
6338.256, 3058.503
6340.185, 3116.810
6342.113, 3060.947
6344.042, 3034.907
6345.970, 3065.344
6347.898, 3081.838
6349.827, 3085.135
6351.755, 3035.718
6353.684, 3054.371
6355.612, 3045.745
6357.541, 3036.000
6359.469, 3064.235
6361.397, 3022.485
6363.326, 3050.116
6365.254, 3050.053
6367.183, 3062.664
6369.111, 3070.462
6371.040, 3045.868
6372.968, 3038.123
6374.897, 3051.200
6376.825, 3041.608
6378.754, 3001.503
6380.682, 2998.808
6382.611, 2987.404
6384.539, 2967.710
6386.468, 2978.558
6388.396, 3018.680
6390.325, 3004.007
6392.253, 2996.289
6394.182, 2897.892
6396.110, 2953.659
6398.039, 2980.168
6399.967, 2933.032
6401.896, 2993.493
6403.824, 2948.710
6405.752, 2974.568
6407.681, 2967.249
6409.609, 2960.078
6411.538, 2965.403
6413.466, 2960.942
6415.395, 2930.714
6417.323, 2943.521
6419.251, 2942.909
6421.180, 2888.332
6423.108, 2922.842
6425.037, 2974.101
6426.965, 2895.421
6428.894, 2861.365
6430.822, 2890.509
6432.751, 2838.986
6434.679, 2869.575
6436.608, 2908.296
6438.536, 2894.986
6440.465, 2887.092
6442.393, 2842.509
6444.322, 2849.759
6446.250, 2883.618
6448.179, 2889.101
6450.107, 2881.982
6452.036, 2861.425
6453.964, 2792.530
6455.893, 2803.670
6457.821, 2881.485
6459.750, 2870.473
6461.678, 2830.308
6463.606, 2815.968
6465.535, 2842.214
6467.463, 2887.910
6469.392, 2800.469
6471.320, 2735.221
6473.249, 2757.823
6475.177, 2829.383
6477.105, 2854.683
6479.034, 2810.827
6480.962, 2771.326
6482.891, 2796.346
6484.819, 2798.298
6486.748, 2809.997
6488.676, 2818.988
6490.605, 2783.197
6492.533, 2753.448
6494.462, 2811.563
6496.390, 2776.499
6498.319, 2769.723
6500.247, 2791.163
6502.176, 2766.770
6504.104, 2759.456
6506.033, 2767.651
6507.961, 2723.719
6509.890, 2741.152
6511.818, 2731.365
6513.747, 2753.704
6515.675, 2737.925
6517.604, 2738.510
6519.532, 2731.219
6521.460, 2689.053
6523.389, 2721.769
6525.317, 2709.893
6527.246, 2716.136
6529.174, 2737.301
6531.103, 2723.407
6533.031, 2716.713
6534.959, 2721.229
6536.888, 2679.815
6538.816, 2747.136
6540.745, 2678.988
6542.673, 2645.169
6544.602, 2645.631
6546.530, 2701.404
6548.459, 2723.662
6550.387, 2672.215
6552.316, 2709.839
6554.244, 2706.540
6556.173, 2693.587
6558.101, 2716.092
6560.030, 2710.203
6561.958, 2695.953
6563.887, 2701.909
6565.815, 2706.661
6567.744, 2670.440
6569.672, 2667.816
6571.601, 2625.857
##END=



