##NAMES=Allanite-(La)
##RRUFFID=R070246
##IDEAL CHEMISTRY=CaLa(Al_2_Fe^2+^)[Si_2_O_7_][SiO_4_]O(OH)
##LOCALITY=Nueva Vizcaya Mine, Burguillos del Cerro, Badajoz, Extremadura, Spain
##OWNER=Michael Scott
##SOURCE=Michael Scott
##DESCRIPTION=Dark green prismatic crystal asociated with lustrous magnetite and pale green epidote
##STATUS=The identification of this mineral has been confirmed only by single crystal X-ray diffraction
##URL=https://www.rruff.net/odr/rruff_sample/R070246
##DIFFRACTION SAMPLE DESCRIPTION=Single crystal, powder profile is calculated
##CELL PARAMETERS=a: 8.931 b: 5.7078 c: 10.186 alpha: 90 beta: 115.153 gamma: 90 volume: 470.1 crystal system: monoclinic
##FILETYPE=Raman RAW
##RAMAN WAVELENGTH=532

164.2798, 1675.032
166.2083, 1700.509
168.1367, 1725.886
170.0652, 1751.270
171.9937, 1775.469
173.9221, 1801.713
175.8506, 1826.028
177.7791, 1842.166
179.7075, 1845.366
181.6360, 1847.443
183.5645, 1852.818
185.4929, 1862.720
187.4214, 1874.367
189.3499, 1889.966
191.2783, 1907.208
193.2068, 1921.093
195.1353, 1927.830
197.0637, 1933.962
198.9922, 1943.103
200.9207, 1959.382
202.8491, 1972.496
204.7776, 1977.673
206.7061, 1977.796
208.6345, 1983.044
210.5630, 2001.324
212.4915, 2021.248
214.4199, 2034.102
216.3484, 2038.770
218.2769, 2040.348
220.2053, 2037.871
222.1338, 2031.128
224.0623, 2029.619
225.9907, 2038.887
227.9192, 2050.670
229.8477, 2055.404
231.7761, 2048.846
233.7046, 2044.311
235.6331, 2047.270
237.5615, 2061.200
239.4900, 2069.224
241.4185, 2066.581
243.3469, 2060.070
245.2754, 2058.240
247.2039, 2065.188
249.1323, 2071.023
251.0608, 2071.753
252.9893, 2064.325
254.9177, 2060.215
256.8462, 2059.930
258.7747, 2063.092
260.7031, 2068.853
262.6316, 2080.554
264.5601, 2091.630
266.4885, 2099.884
268.4170, 2104.748
270.3455, 2108.761
272.2739, 2110.047
274.2024, 2110.860
276.1309, 2114.955
278.0593, 2129.607
279.9878, 2141.433
281.9163, 2145.122
283.8447, 2140.233
285.7732, 2133.333
287.7017, 2123.088
289.6301, 2111.652
291.5586, 2103.097
293.4871, 2098.464
295.4155, 2095.625
297.3440, 2095.831
299.2725, 2099.502
301.2009, 2098.968
303.1294, 2087.843
305.0579, 2071.985
306.9863, 2062.825
308.9148, 2066.031
310.8433, 2069.940
312.7717, 2069.703
314.7002, 2065.066
316.6287, 2062.914
318.5571, 2067.213
320.4856, 2074.203
322.4141, 2076.907
324.3425, 2073.142
326.2710, 2068.427
328.1995, 2064.681
330.1279, 2062.015
332.0564, 2058.799
333.9849, 2053.187
335.9133, 2047.414
337.8418, 2044.908
339.7703, 2046.160
341.6987, 2049.254
343.6272, 2054.617
345.5557, 2062.862
347.4841, 2067.777
349.4126, 2067.190
351.3411, 2064.363
353.2695, 2062.689
355.1980, 2061.897
357.1265, 2062.588
359.0549, 2064.811
360.9834, 2068.486
362.9119, 2073.914
364.8403, 2083.771
366.7688, 2093.493
368.6973, 2098.334
370.6257, 2095.876
372.5542, 2096.582
374.4827, 2104.969
376.4111, 2120.062
378.3396, 2132.204
380.2681, 2138.026
382.1965, 2143.954
384.1250, 2153.963
386.0535, 2168.510
387.9819, 2183.592
389.9104, 2198.771
391.8389, 2213.829
393.7673, 2228.143
395.6958, 2237.640
397.6243, 2250.131
399.5527, 2270.028
401.4812, 2297.515
403.4097, 2324.209
405.3381, 2342.609
407.2666, 2361.157
409.1951, 2394.100
411.1235, 2451.445
413.0520, 2506.645
414.9805, 2552.149
416.9089, 2589.135
418.8374, 2620.224
420.7659, 2637.942
422.6943, 2654.635
424.6228, 2682.491
426.5513, 2729.449
428.4797, 2766.675
430.4082, 2780.161
432.3367, 2777.646
434.2651, 2779.740
436.1936, 2794.810
438.1221, 2808.143
440.0505, 2813.220
441.9790, 2809.435
443.9075, 2802.750
445.8359, 2790.919
447.7644, 2777.474
449.6929, 2766.782
451.6213, 2756.911
453.5498, 2752.222
455.4783, 2760.065
457.4067, 2777.940
459.3352, 2782.483
461.2637, 2764.584
463.1921, 2737.643
465.1206, 2710.963
467.0491, 2688.795
468.9775, 2659.662
470.9060, 2616.925
472.8345, 2567.186
474.7629, 2524.923
476.6914, 2492.368
478.6199, 2464.934
480.5483, 2441.566
482.4768, 2424.389
484.4053, 2403.226
486.3337, 2373.496
488.2622, 2342.684
490.1907, 2317.446
492.1191, 2298.427
494.0476, 2282.347
495.9761, 2270.036
497.9045, 2260.361
499.8330, 2247.776
501.7615, 2230.458
503.6899, 2212.267
505.6184, 2191.107
507.5469, 2166.710
509.4753, 2154.129
511.4038, 2169.967
513.3323, 2192.559
515.2607, 2202.180
517.1892, 2190.520
519.1177, 2175.781
521.0461, 2153.576
522.9746, 2129.337
524.9031, 2116.478
526.8315, 2124.299
528.7600, 2135.465
530.6885, 2142.344
532.6169, 2142.120
534.5454, 2147.059
536.4739, 2159.823
538.4023, 2176.401
540.3308, 2193.537
542.2593, 2212.385
544.1877, 2228.476
546.1162, 2239.968
548.0447, 2247.856
549.9731, 2256.167
551.9016, 2259.076
553.8301, 2267.673
555.7585, 2293.795
557.6870, 2335.334
559.6155, 2360.689
561.5439, 2346.372
563.4724, 2325.870
565.4009, 2323.883
567.3293, 2357.757
569.2578, 2378.425
571.1863, 2375.834
573.1147, 2358.070
575.0432, 2337.060
576.9717, 2305.810
578.9001, 2282.950
580.8286, 2278.235
582.7571, 2291.753
584.6855, 2295.930
586.6140, 2281.107
588.5425, 2265.475
590.4709, 2259.715
592.3994, 2264.765
594.3279, 2267.788
596.2563, 2263.315
598.1848, 2257.293
600.1133, 2256.733
602.0417, 2267.302
603.9702, 2273.958
605.8987, 2271.567
607.8271, 2263.773
609.7556, 2257.449
611.6841, 2250.590
613.6125, 2248.782
615.5410, 2257.846
617.4695, 2279.210
619.3979, 2288.442
621.3264, 2279.813
623.2549, 2264.025
625.1833, 2244.708
627.1118, 2220.629
629.0403, 2203.307
630.9688, 2197.383
632.8972, 2197.725
634.8257, 2199.812
636.7542, 2206.451
638.6826, 2210.458
640.6111, 2202.704
642.5396, 2193.250
644.4680, 2202.747
646.3965, 2257.164
648.3250, 2291.693
650.2534, 2275.180
652.1819, 2208.159
654.1104, 2166.481
656.0388, 2161.184
657.9673, 2168.689
659.8958, 2181.336
661.8242, 2198.814
663.7527, 2214.385
665.6812, 2222.319
667.6096, 2230.765
669.5381, 2245.757
671.4666, 2277.372
673.3950, 2299.742
675.3235, 2304.958
677.2520, 2303.738
679.1804, 2311.133
681.1089, 2333.080
683.0374, 2348.370
684.9658, 2347.199
686.8943, 2334.953
688.8228, 2328.129
690.7512, 2338.613
692.6797, 2341.498
694.6082, 2327.877
696.5366, 2300.400
698.4651, 2269.740
700.3936, 2231.881
702.3220, 2196.845
704.2505, 2170.311
706.1790, 2155.272
708.1074, 2134.586
710.0359, 2099.418
711.9644, 2065.838
713.8928, 2048.319
715.8213, 2047.504
717.7498, 2041.155
719.6782, 2018.825
721.6067, 1992.762
723.5352, 1972.478
725.4636, 1957.382
727.3921, 1950.122
729.3206, 1956.551
731.2490, 1968.733
733.1775, 1975.156
735.1060, 1975.141
737.0344, 1972.389
738.9629, 1964.613
740.8914, 1955.156
742.8198, 1951.103
744.7483, 1960.359
746.6768, 1965.860
748.6052, 1961.847
750.5337, 1950.866
752.4622, 1943.985
754.3906, 1940.729
756.3191, 1942.023
758.2476, 1950.934
760.1760, 1965.820
762.1045, 1977.008
764.0330, 1982.290
765.9614, 1985.062
767.8899, 1984.204
769.8184, 1979.305
771.7468, 1980.759
773.6753, 1995.163
775.6038, 2009.883
777.5322, 2017.816
779.4607, 2019.123
781.3892, 2021.039
783.3176, 2025.184
785.2461, 2029.752
787.1746, 2034.221
789.1030, 2039.373
791.0315, 2041.626
792.9600, 2039.954
794.8884, 2036.027
796.8169, 2029.344
798.7454, 2018.932
800.6738, 2014.348
802.6023, 2024.886
804.5308, 2037.604
806.4592, 2042.313
808.3877, 2031.371
810.3162, 2024.805
812.2446, 2023.822
814.1731, 2026.614
816.1016, 2032.326
818.0300, 2042.026
819.9585, 2049.061
821.8870, 2046.295
823.8154, 2042.574
825.7439, 2047.558
827.6724, 2068.931
829.6008, 2086.292
831.5293, 2098.708
833.4578, 2106.160
835.3862, 2106.438
837.3147, 2095.528
839.2432, 2091.350
841.1716, 2102.941
843.1001, 2122.328
845.0286, 2139.480
846.9570, 2152.041
848.8855, 2167.189
850.8140, 2188.074
852.7424, 2211.423
854.6709, 2231.874
856.5994, 2249.062
858.5278, 2264.668
860.4563, 2277.340
862.3848, 2289.237
864.3132, 2303.282
866.2417, 2320.697
868.1702, 2337.353
870.0986, 2351.633
872.0271, 2364.919
873.9556, 2379.259
875.8840, 2396.604
877.8125, 2412.319
879.7410, 2425.038
881.6694, 2436.268
883.5979, 2448.403
885.5264, 2461.924
887.4548, 2474.534
889.3833, 2485.107
891.3118, 2494.591
893.2402, 2504.030
895.1687, 2512.810
897.0972, 2522.600
899.0256, 2535.441
900.9541, 2548.527
902.8826, 2557.170
904.8110, 2559.811
906.7395, 2565.121
908.6680, 2580.823
910.5964, 2596.665
912.5249, 2601.890
914.4534, 2592.904
916.3818, 2584.950
918.3103, 2579.090
920.2388, 2575.849
922.1672, 2576.784
924.0957, 2585.533
926.0242, 2588.986
927.9526, 2578.794
929.8811, 2568.493
931.8096, 2570.095
933.7380, 2584.052
935.6665, 2596.914
937.5950, 2603.500
939.5234, 2610.461
941.4519, 2622.196
943.3804, 2640.586
945.3088, 2657.146
947.2373, 2670.738
949.1658, 2683.674
951.0942, 2696.217
953.0227, 2708.532
954.9512, 2724.858
956.8796, 2752.050
958.8081, 2775.184
960.7366, 2784.702
962.6650, 2782.165
964.5935, 2782.790
966.5220, 2792.517
968.4504, 2800.140
970.3789, 2805.033
972.3074, 2806.055
974.2358, 2795.392
976.1643, 2766.189
978.0928, 2735.623
980.0212, 2709.762
981.9497, 2685.478
983.8782, 2655.936
985.8066, 2617.771
987.7351, 2582.196
989.6636, 2552.762
991.5920, 2527.854
993.5205, 2505.588
995.4490, 2489.567
997.3774, 2470.549
999.3059, 2442.189
1001.234, 2413.596
1003.163, 2396.429
1005.091, 2391.912
1007.020, 2388.933
1008.948, 2389.522
1010.877, 2387.800
1012.805, 2377.961
1014.734, 2359.034
1016.662, 2345.831
1018.591, 2339.024
1020.519, 2339.890
1022.448, 2353.536
1024.376, 2380.968
1026.304, 2397.705
1028.233, 2393.906
1030.161, 2391.322
1032.090, 2398.746
1034.018, 2413.411
1035.947, 2426.946
1037.875, 2440.056
1039.804, 2449.907
1041.732, 2453.086
1043.661, 2453.058
1045.589, 2455.551
1047.518, 2461.238
1049.446, 2468.284
1051.375, 2477.543
1053.303, 2487.305
1055.231, 2496.904
1057.160, 2508.534
1059.088, 2511.846
1061.017, 2497.489
1062.945, 2481.803
1064.874, 2479.578
1066.802, 2488.163
1068.731, 2484.321
1070.659, 2457.325
1072.588, 2428.192
1074.516, 2406.562
1076.445, 2390.812
1078.373, 2371.184
1080.302, 2343.681
1082.230, 2316.922
1084.158, 2295.279
1086.087, 2274.230
1088.015, 2242.971
1089.944, 2194.879
1091.872, 2158.127
1093.801, 2148.433
1095.729, 2144.475
1097.658, 2126.787
1099.586, 2095.050
1101.515, 2071.394
1103.443, 2067.424
1105.372, 2063.583
1107.300, 2047.971
1109.229, 2021.639
1111.157, 2005.640
1113.085, 2009.348
1115.014, 2011.861
1116.942, 2009.211
1118.871, 2002.349
1120.799, 1992.050
1122.728, 1975.686
1124.656, 1964.367
1126.585, 1966.377
1128.513, 1970.135
1130.442, 1963.853
1132.370, 1947.061
1134.299, 1938.744
1136.227, 1952.852
1138.156, 1963.361
1140.084, 1955.260
1142.012, 1931.202
1143.941, 1915.654
1145.869, 1910.293
1147.798, 1911.479
1149.726, 1926.993
1151.655, 1945.965
1153.583, 1948.969
1155.512, 1933.067
1157.440, 1917.106
1159.369, 1894.621
1161.297, 1881.090
1163.226, 1895.105
1165.154, 1932.257
1167.083, 1949.757
1169.011, 1927.883
1170.939, 1908.395
1172.868, 1909.534
1174.796, 1924.019
1176.725, 1932.271
1178.653, 1928.021
1180.582, 1927.265
1182.510, 1936.550
1184.439, 1946.197
1186.367, 1944.492
1188.296, 1928.610
1190.224, 1923.465
1192.153, 1940.244
1194.081, 1956.506
1196.010, 1961.544
1197.938, 1958.542
1199.866, 1954.206
1201.795, 1947.321
1203.723, 1943.300
1205.652, 1943.378
1207.580, 1947.457
1209.509, 1958.295
1211.437, 1979.832
1213.366, 1989.349
1215.294, 1973.482
1217.223, 1958.632
1219.151, 1957.019
1221.080, 1965.837
1223.008, 1971.741
1224.937, 1976.690
1226.865, 1976.016
1228.793, 1959.667
1230.722, 1943.061
1232.650, 1946.664
1234.579, 1970.150
1236.507, 1983.681
1238.436, 1976.006
1240.364, 1967.712
1242.293, 1969.120
1244.221, 1977.594
1246.150, 1987.711
1248.078, 2003.879
1250.007, 2010.183
1251.935, 1993.751
1253.864, 1973.984
1255.792, 1967.062
1257.720, 1975.017
1259.649, 1984.112
1261.577, 1995.879
1263.506, 2006.892
1265.434, 2017.877
1267.363, 2027.041
1269.291, 2029.809
1271.220, 2025.204
1273.148, 2018.943
1275.077, 2003.778
1277.005, 1994.297
1278.934, 2006.534
1280.862, 2034.365
1282.791, 2049.506
1284.719, 2043.922
1286.647, 2038.372
1288.576, 2042.421
1290.504, 2049.045
1292.433, 2049.323
1294.361, 2041.305
1296.290, 2036.965
1298.218, 2039.685
1300.147, 2043.724
1302.075, 2048.843
1304.004, 2053.693
1305.932, 2053.772
1307.861, 2043.019
1309.789, 2036.513
1311.718, 2032.885
1313.646, 2035.233
1315.574, 2052.144
1317.503, 2081.410
1319.431, 2092.103
1321.360, 2072.018
1323.288, 2055.019
1325.217, 2054.379
1327.145, 2061.353
1329.074, 2066.104
1331.002, 2068.549
1332.931, 2072.717
1334.859, 2081.696
1336.788, 2088.723
1338.716, 2088.888
1340.645, 2085.500
1342.573, 2086.086
1344.501, 2091.733
1346.430, 2098.113
1348.358, 2110.285
1350.287, 2117.472
1352.215, 2109.623
1354.144, 2089.855
1356.072, 2079.387
1358.001, 2079.628
1359.929, 2087.454
1361.858, 2110.917
1363.786, 2135.512
1365.715, 2150.289
1367.643, 2154.851
1369.572, 2151.172
1371.500, 2129.551
1373.428, 2115.677
1375.357, 2124.128
1377.285, 2139.512
1379.214, 2143.623
1381.142, 2137.031
1383.071, 2133.589
1384.999, 2135.276
1386.928, 2139.629
1388.856, 2147.492
1390.785, 2156.542
1392.713, 2164.322
1394.642, 2171.144
1396.570, 2173.486
1398.499, 2165.489
1400.427, 2160.035
1402.355, 2166.007
1404.284, 2177.194
1406.212, 2178.735
1408.141, 2164.089
1410.069, 2158.584
1411.998, 2167.652
1413.926, 2182.023
1415.855, 2205.696
1417.783, 2231.346
1419.712, 2236.158
1421.640, 2197.813
1423.569, 2175.508
1425.497, 2180.346
1427.426, 2190.104
1429.354, 2191.708
1431.282, 2188.122
1433.211, 2190.532
1435.139, 2200.169
1437.068, 2211.559
1438.996, 2228.766
1440.925, 2242.835
1442.853, 2248.022
1444.782, 2245.447
1446.710, 2237.472
1448.639, 2221.408
1450.567, 2210.692
1452.496, 2208.854
1454.424, 2212.983
1456.353, 2225.973
1458.281, 2243.134
1460.209, 2248.767
1462.138, 2237.315
1464.066, 2234.495
1465.995, 2256.303
1467.923, 2277.865
1469.852, 2284.194
1471.780, 2278.248
1473.709, 2270.485
1475.637, 2258.521
1477.566, 2252.370
1479.494, 2259.359
1481.423, 2267.134
1483.351, 2267.837
1485.280, 2264.188
1487.208, 2266.611
1489.136, 2279.022
1491.065, 2288.507
1492.993, 2289.625
1494.922, 2292.588
1496.850, 2306.007
1498.779, 2324.711
1500.707, 2334.488
1502.636, 2331.574
1504.564, 2326.930
1506.493, 2316.433
1508.421, 2308.955
1510.350, 2308.373
1512.278, 2313.393
1514.207, 2323.611
1516.135, 2344.321
1518.063, 2351.286
1519.992, 2324.710
1521.920, 2307.880
1523.849, 2325.027
1525.777, 2356.298
1527.706, 2373.944
1529.634, 2377.753
1531.563, 2373.435
1533.491, 2351.885
1535.420, 2337.059
1537.348, 2337.627
1539.277, 2347.752
1541.205, 2366.100
1543.134, 2390.660
1545.062, 2403.535
1546.990, 2397.540
1548.919, 2395.492
1550.847, 2407.879
1552.776, 2423.435
1554.704, 2434.117
1556.633, 2441.030
1558.561, 2448.512
1560.490, 2458.631
1562.418, 2460.506
1564.347, 2445.011
1566.275, 2428.613
1568.204, 2418.728
1570.132, 2415.473
1572.061, 2422.424
1573.989, 2441.186
1575.917, 2452.040
1577.846, 2445.911
1579.774, 2441.388
1581.703, 2449.900
1583.631, 2462.586
1585.560, 2469.662
1587.488, 2471.264
1589.417, 2470.322
1591.345, 2464.667
1593.274, 2462.080
1595.202, 2467.314
1597.131, 2474.431
1599.059, 2479.761
1600.988, 2483.459
1602.916, 2485.781
1604.844, 2485.749
1606.773, 2488.122
1608.701, 2497.050
1610.630, 2504.480
1612.558, 2504.783
1614.487, 2502.062
1616.415, 2503.901
1618.344, 2510.833
1620.272, 2517.209
1622.201, 2523.542
1624.129, 2527.610
1626.058, 2528.804
1627.986, 2527.584
1629.915, 2521.512
1631.843, 2511.850
1633.771, 2513.002
1635.700, 2530.274
1637.628, 2543.826
1639.557, 2549.059
1641.485, 2551.306
1643.414, 2552.489
1645.342, 2552.254
1647.271, 2549.042
1649.199, 2541.931
1651.128, 2538.770
1653.056, 2541.624
1654.985, 2545.671
1656.913, 2549.672
1658.842, 2554.460
1660.770, 2562.105
1662.698, 2571.458
1664.627, 2575.757
1666.555, 2572.825
1668.484, 2571.612
1670.412, 2571.292
1672.341, 2575.223
1674.269, 2590.774
1676.198, 2607.347
1678.126, 2608.874
1680.055, 2594.483
1681.983, 2590.131
1683.912, 2601.561
1685.840, 2611.216
1687.769, 2614.589
1689.697, 2616.837
1691.625, 2620.570
1693.554, 2625.082
1695.482, 2629.207
1697.411, 2633.193
1699.339, 2634.982
1701.268, 2633.945
1703.196, 2631.590
1705.125, 2624.161
1707.053, 2619.538
1708.982, 2626.970
1710.910, 2641.835
1712.839, 2645.753
1714.767, 2635.349
1716.696, 2631.950
1718.624, 2642.839
1720.552, 2652.958
1722.481, 2657.895
1724.409, 2659.533
1726.338, 2657.176
1728.266, 2652.427
1730.195, 2655.315
1732.123, 2668.784
1734.052, 2675.400
1735.980, 2662.618
1737.909, 2658.146
1739.837, 2686.907
1741.766, 2718.608
1743.694, 2718.378
1745.623, 2693.277
1747.551, 2680.664
1749.479, 2683.523
1751.408, 2691.092
1753.336, 2706.157
1755.265, 2717.944
1757.193, 2718.431
1759.122, 2715.416
1761.050, 2718.093
1762.979, 2724.519
1764.907, 2723.273
1766.836, 2710.517
1768.764, 2709.150
1770.693, 2730.818
1772.621, 2753.039
1774.550, 2768.854
1776.478, 2777.114
1778.406, 2772.932
1780.335, 2760.063
1782.263, 2752.360
1784.192, 2749.893
1786.120, 2755.925
1788.049, 2778.375
1789.977, 2797.615
1791.906, 2802.575
1793.834, 2802.936
1795.763, 2808.064
1797.691, 2816.538
1799.620, 2823.186
1801.548, 2828.423
1803.477, 2829.428
1805.405, 2822.549
1807.333, 2816.285
1809.262, 2810.937
1811.190, 2809.180
1813.119, 2813.504
1815.047, 2823.107
1816.976, 2837.788
1818.904, 2861.612
1820.833, 2872.155
1822.761, 2856.742
1824.690, 2846.881
1826.618, 2851.323
1828.547, 2858.940
1830.475, 2864.460
1832.404, 2867.801
1834.332, 2867.876
1836.260, 2864.198
1838.189, 2863.800
1840.117, 2868.605
1842.046, 2873.147
1843.974, 2874.976
1845.903, 2878.862
1847.831, 2887.132
1849.760, 2898.123
1851.688, 2913.068
1853.617, 2930.190
1855.545, 2933.219
1857.474, 2916.944
1859.402, 2914.902
1861.331, 2946.143
1863.259, 2962.533
1865.188, 2925.837
1867.116, 2892.040
1869.044, 2907.086
1870.973, 2947.717
1872.901, 2972.191
1874.830, 2980.562
1876.758, 2977.558
1878.687, 2958.923
1880.615, 2946.685
1882.544, 2949.086
1884.472, 2954.741
1886.401, 2959.632
1888.329, 2963.766
1890.258, 2966.794
1892.186, 2969.042
1894.115, 2970.742
1896.043, 2970.740
1897.971, 2977.880
1899.900, 3001.302
1901.828, 3018.229
1903.757, 3022.608
1905.685, 3020.822
1907.614, 3011.469
1909.542, 3001.299
1911.471, 3001.536
1913.399, 3011.420
1915.328, 3018.273
1917.256, 3017.328
1919.185, 3024.838
1921.113, 3052.840
1923.042, 3073.115
1924.970, 3075.564
1926.898, 3072.488
1928.827, 3070.971
1930.755, 3069.711
1932.684, 3064.001
1934.612, 3055.004
1936.541, 3057.324
1938.469, 3073.806
1940.398, 3089.418
1942.326, 3102.692
1944.255, 3112.500
1946.183, 3116.116
1948.112, 3118.567
1950.040, 3124.925
1951.969, 3131.830
1953.897, 3131.301
1955.825, 3124.753
1957.754, 3128.209
1959.682, 3148.549
1961.611, 3155.313
1963.539, 3129.612
1965.468, 3111.770
1967.396, 3115.842
1969.325, 3127.700
1971.253, 3139.820
1973.182, 3152.347
1975.110, 3167.640
1977.039, 3184.959
1978.967, 3191.009
1980.896, 3179.801
1982.824, 3178.336
1984.752, 3195.256
1986.681, 3209.061
1988.609, 3216.769
1990.538, 3216.994
1992.466, 3197.836
1994.395, 3179.342
1996.323, 3189.564
1998.252, 3219.492
2000.180, 3243.373
2002.109, 3260.589
2004.037, 3261.388
2005.966, 3235.113
2007.894, 3221.016
2009.823, 3240.574
2011.751, 3258.194
2013.679, 3257.397
2015.608, 3250.135
2017.536, 3241.920
2019.465, 3236.931
2021.393, 3249.971
2023.322, 3281.763
2025.250, 3288.319
2027.179, 3250.303
2029.107, 3238.504
2031.036, 3277.774
2032.964, 3308.258
2034.893, 3308.264
2036.821, 3304.298
2038.750, 3310.221
2040.678, 3318.923
2042.606, 3321.419
2044.535, 3320.526
2046.463, 3324.641
2048.392, 3333.711
2050.320, 3340.236
2052.249, 3341.432
2054.177, 3348.370
2056.106, 3372.669
2058.034, 3389.136
2059.963, 3385.626
2061.891, 3376.911
2063.820, 3370.319
2065.748, 3366.088
2067.677, 3363.636
2069.605, 3363.716
2071.533, 3370.865
2073.462, 3386.269
2075.390, 3399.887
2077.319, 3411.262
2079.247, 3421.800
2081.176, 3434.037
2083.104, 3440.707
2085.033, 3432.336
2086.961, 3425.858
2088.890, 3437.470
2090.818, 3453.448
2092.747, 3454.710
2094.675, 3446.784
2096.604, 3448.621
2098.532, 3461.451
2100.460, 3469.057
2102.389, 3469.490
2104.317, 3468.553
2106.246, 3460.279
2108.174, 3459.771
2110.103, 3475.659
2112.031, 3493.352
2113.960, 3507.931
2115.888, 3518.673
2117.817, 3525.364
2119.745, 3527.472
2121.674, 3518.864
2123.602, 3503.214
2125.531, 3506.425
2127.459, 3532.207
2129.387, 3547.958
2131.316, 3545.461
2133.244, 3543.598
2135.173, 3542.971
2137.101, 3548.195
2139.030, 3571.374
2140.958, 3589.289
2142.887, 3576.132
2144.815, 3555.349
2146.744, 3562.082
2148.672, 3586.726
2150.601, 3593.377
2152.529, 3583.426
2154.458, 3585.871
2156.386, 3604.081
2158.314, 3618.094
2160.243, 3625.001
2162.171, 3627.580
2164.100, 3619.914
2166.028, 3617.522
2167.957, 3633.781
2169.885, 3649.634
2171.814, 3646.875
2173.742, 3638.570
2175.671, 3646.592
2177.599, 3662.977
2179.528, 3657.831
2181.456, 3631.490
2183.385, 3622.563
2185.313, 3633.343
2187.241, 3649.716
2189.170, 3674.428
2191.098, 3688.975
2193.027, 3683.294
2194.955, 3676.851
2196.884, 3677.476
2198.812, 3679.432
2200.741, 3681.424
2202.669, 3681.026
2204.598, 3670.786
2206.526, 3658.557
2208.455, 3661.122
2210.383, 3677.101
2212.312, 3699.176
2214.240, 3728.115
2216.168, 3734.593
2218.097, 3710.811
2220.025, 3702.295
2221.954, 3724.989
2223.882, 3740.537
2225.811, 3732.331
2227.739, 3722.115
2229.668, 3711.129
2231.596, 3709.542
2233.525, 3736.245
2235.453, 3765.870
2237.382, 3760.834
2239.310, 3740.279
2241.239, 3751.939
2243.167, 3788.445
2245.095, 3806.635
2247.024, 3806.081
2248.952, 3792.961
2250.881, 3762.537
2252.809, 3755.251
2254.738, 3790.473
2256.666, 3819.310
2258.595, 3829.872
2260.523, 3835.148
2262.452, 3836.001
2264.380, 3836.904
2266.309, 3841.199
2268.237, 3845.811
2270.166, 3846.416
2272.094, 3846.636
2274.022, 3853.822
2275.951, 3864.419
2277.879, 3868.249
2279.808, 3866.200
2281.736, 3869.243
2283.665, 3880.843
2285.593, 3878.187
2287.522, 3840.016
2289.450, 3826.811
2291.379, 3854.578
2293.307, 3878.650
2295.236, 3890.918
2297.164, 3900.439
2299.093, 3909.756
2301.021, 3917.970
2302.949, 3919.970
2304.878, 3925.471
2306.806, 3953.535
2308.735, 3981.776
2310.663, 3971.310
2312.592, 3940.073
2314.520, 3935.337
2316.449, 3953.123
2318.377, 3958.705
2320.306, 3951.692
2322.234, 3959.469
2324.163, 3984.483
2326.091, 4010.681
2328.020, 4039.445
2329.948, 4055.288
2331.876, 4046.280
2333.805, 4040.353
2335.733, 4046.330
2337.662, 4053.457
2339.590, 4061.778
2341.519, 4065.204
2343.447, 4055.717
2345.376, 4044.831
2347.304, 4046.407
2349.233, 4048.070
2351.161, 4029.285
2353.090, 4003.488
2355.018, 3996.392
2356.947, 4004.366
2358.875, 4014.340
2360.803, 4026.223
2362.732, 4036.833
2364.660, 4046.923
2366.589, 4048.447
2368.517, 4037.711
2370.446, 4041.139
2372.374, 4067.567
2374.303, 4085.313
2376.231, 4085.926
2378.160, 4080.622
2380.088, 4067.176
2382.017, 4056.387
2383.945, 4048.828
2385.874, 4049.266
2387.802, 4068.272
2389.730, 4087.132
2391.659, 4087.319
2393.587, 4084.942
2395.516, 4096.907
2397.444, 4115.573
2399.373, 4132.013
2401.301, 4145.763
2403.230, 4155.113
2405.158, 4160.790
2407.087, 4168.386
2409.015, 4177.970
2410.944, 4173.355
2412.872, 4154.053
2414.801, 4136.562
2416.729, 4121.079
2418.657, 4117.923
2420.586, 4132.804
2422.514, 4144.521
2424.443, 4146.420
2426.371, 4150.487
2428.300, 4155.914
2430.228, 4167.847
2432.157, 4197.408
2434.085, 4217.003
2436.014, 4209.773
2437.942, 4200.336
2439.871, 4204.411
2441.799, 4208.937
2443.728, 4206.207
2445.656, 4197.855
2447.584, 4175.862
2449.513, 4157.359
2451.441, 4172.824
2453.370, 4202.342
2455.298, 4204.643
2457.227, 4194.897
2459.155, 4216.119
2461.084, 4256.893
2463.012, 4265.995
2464.941, 4246.392
2466.869, 4243.492
2468.798, 4259.884
2470.726, 4263.726
2472.655, 4253.069
2474.583, 4253.017
2476.511, 4267.232
2478.440, 4270.965
2480.368, 4256.108
2482.297, 4250.353
2484.225, 4259.462
2486.154, 4275.970
2488.082, 4316.704
2490.011, 4334.237
2491.939, 4304.649
2493.868, 4283.696
2495.796, 4293.344
2497.725, 4305.333
2499.653, 4305.874
2501.582, 4306.826
2503.510, 4317.611
2505.438, 4326.535
2507.367, 4321.542
2509.295, 4316.741
2511.224, 4323.797
2513.152, 4335.779
2515.081, 4350.764
2517.009, 4362.961
2518.938, 4365.083
2520.866, 4360.761
2522.795, 4347.667
2524.723, 4336.725
2526.652, 4362.734
2528.580, 4404.980
2530.509, 4393.967
2532.437, 4350.300
2534.365, 4342.444
2536.294, 4364.649
2538.222, 4382.863
2540.151, 4397.020
2542.079, 4412.690
2544.008, 4430.827
2545.936, 4432.175
2547.865, 4416.013
2549.793, 4406.968
2551.722, 4406.475
2553.650, 4408.149
2555.579, 4412.122
2557.507, 4414.296
2559.436, 4411.239
2561.364, 4413.283
2563.292, 4422.693
2565.221, 4430.338
2567.149, 4435.336
2569.078, 4437.709
2571.006, 4434.939
2572.935, 4436.800
2574.863, 4451.145
2576.792, 4461.127
2578.720, 4455.885
2580.649, 4459.139
2582.577, 4482.013
2584.506, 4501.333
2586.434, 4513.280
2588.363, 4513.191
2590.291, 4485.569
2592.219, 4465.502
2594.148, 4475.823
2596.076, 4486.545
2598.005, 4474.763
2599.933, 4471.364
2601.862, 4503.468
2603.790, 4531.172
2605.719, 4521.498
2607.647, 4508.712
2609.576, 4519.027
2611.504, 4533.214
2613.433, 4537.266
2615.361, 4537.206
2617.290, 4533.318
2619.218, 4533.006
2621.146, 4547.767
2623.075, 4563.975
2625.003, 4569.140
2626.932, 4566.646
2628.860, 4551.093
2630.789, 4538.716
2632.717, 4557.166
2634.646, 4585.438
2636.574, 4600.192
2638.503, 4603.991
2640.431, 4595.396
2642.360, 4581.810
2644.288, 4573.220
2646.217, 4570.074
2648.145, 4577.423
2650.073, 4588.277
2652.002, 4586.995
2653.930, 4580.581
2655.859, 4580.722
2657.787, 4586.853
2659.716, 4600.857
2661.644, 4618.373
2663.573, 4629.448
2665.501, 4634.268
2667.430, 4626.990
2669.358, 4616.520
2671.287, 4631.665
2673.215, 4661.003
2675.144, 4666.332
2677.072, 4655.209
2679.000, 4654.341
2680.929, 4660.836
2682.857, 4663.462
2684.786, 4665.685
2686.714, 4687.138
2688.643, 4717.184
2690.571, 4705.412
2692.500, 4664.251
2694.428, 4649.775
2696.357, 4657.748
2698.285, 4681.900
2700.214, 4713.348
2702.142, 4713.884
2704.071, 4692.358
2705.999, 4692.097
2707.927, 4706.660
2709.856, 4697.001
2711.784, 4673.635
2713.713, 4678.520
2715.641, 4704.577
2717.570, 4725.542
2719.498, 4739.481
2721.427, 4730.824
2723.355, 4707.483
2725.284, 4710.180
2727.212, 4730.860
2729.141, 4744.678
2731.069, 4751.866
2732.998, 4750.635
2734.926, 4744.951
2736.854, 4752.943
2738.783, 4769.126
2740.711, 4770.387
2742.640, 4763.919
2744.568, 4770.409
2746.497, 4785.766
2748.425, 4799.761
2750.354, 4812.050
2752.282, 4826.265
2754.211, 4835.685
2756.139, 4807.252
2758.068, 4769.864
2759.996, 4799.376
2761.925, 4858.826
2763.853, 4864.354
2765.781, 4840.292
2767.710, 4831.645
2769.638, 4834.466
2771.567, 4846.016
2773.495, 4860.380
2775.424, 4870.094
2777.352, 4874.431
2779.281, 4868.259
2781.209, 4859.297
2783.138, 4860.419
2785.066, 4863.727
2786.995, 4852.667
2788.923, 4845.765
2790.852, 4878.277
2792.780, 4913.522
2794.708, 4902.280
2796.637, 4882.955
2798.565, 4888.267
2800.494, 4904.139
2802.422, 4933.179
2804.351, 4948.666
2806.279, 4912.619
2808.208, 4874.614
2810.136, 4864.112
2812.065, 4868.286
2813.993, 4886.948
2815.922, 4906.148
2817.850, 4920.131
2819.779, 4928.417
2821.707, 4930.982
2823.635, 4927.495
2825.564, 4908.975
2827.492, 4899.265
2829.421, 4919.279
2831.349, 4931.146
2833.278, 4907.065
2835.206, 4907.485
2837.135, 4962.916
2839.063, 5003.440
2840.992, 4998.158
2842.920, 4992.572
2844.849, 4996.138
2846.777, 4993.102
2848.706, 4975.592
2850.634, 4982.771
2852.563, 5036.939
2854.491, 5052.534
2856.419, 4988.516
2858.348, 4974.319
2860.276, 5020.654
2862.205, 5025.079
2864.133, 4977.395
2866.062, 4964.860
2867.990, 4995.958
2869.919, 5025.894
2871.847, 5054.501
2873.776, 5060.586
2875.704, 5047.619
2877.633, 5037.795
2879.561, 5031.406
2881.490, 5022.122
2883.418, 5015.950
2885.346, 5048.750
2887.275, 5096.348
2889.203, 5092.341
2891.132, 5067.255
2893.060, 5076.190
2894.989, 5100.185
2896.917, 5114.610
2898.846, 5121.784
2900.774, 5124.819
2902.703, 5121.917
2904.631, 5100.833
2906.560, 5086.451
2908.488, 5107.662
2910.417, 5130.509
2912.345, 5136.452
2914.273, 5137.645
2916.202, 5145.834
2918.130, 5142.163
2920.059, 5095.091
2921.987, 5079.320
2923.916, 5125.433
2925.844, 5165.082
2927.773, 5180.063
2929.701, 5184.685
2931.630, 5177.427
2933.558, 5168.732
2935.487, 5157.902
2937.415, 5159.412
2939.344, 5178.086
2941.272, 5173.895
2943.200, 5140.475
2945.129, 5147.702
2947.057, 5189.440
2948.986, 5209.808
2950.914, 5211.496
2952.843, 5215.236
2954.771, 5220.445
2956.700, 5228.931
2958.628, 5235.015
2960.557, 5222.789
2962.485, 5204.366
2964.414, 5191.241
2966.342, 5186.024
2968.271, 5193.974
2970.199, 5208.359
2972.127, 5230.122
2974.056, 5247.035
2975.984, 5251.599
2977.913, 5249.044
2979.841, 5234.652
2981.770, 5226.688
2983.698, 5231.798
2985.627, 5238.962
2987.555, 5244.883
2989.484, 5253.563
2991.412, 5267.192
2993.341, 5276.600
2995.269, 5281.835
2997.198, 5262.900
2999.126, 5214.465
3001.054, 5212.181
3002.983, 5252.460
3004.911, 5298.396
3006.840, 5341.746
3008.768, 5356.302
3010.697, 5349.369
3012.625, 5329.108
3014.554, 5306.394
3016.482, 5292.151
3018.411, 5291.995
3020.339, 5322.244
3022.268, 5355.341
3024.196, 5373.423
3026.125, 5382.097
3028.053, 5385.218
3029.981, 5377.657
3031.910, 5340.950
3033.838, 5324.840
3035.767, 5344.954
3037.695, 5366.212
3039.624, 5386.875
3041.552, 5388.067
3043.481, 5361.174
3045.409, 5353.888
3047.338, 5365.171
3049.266, 5363.946
3051.195, 5355.773
3053.123, 5369.891
3055.052, 5395.946
3056.980, 5406.859
3058.908, 5411.850
3060.837, 5430.076
3062.765, 5443.902
3064.694, 5429.645
3066.622, 5412.869
3068.551, 5403.198
3070.479, 5411.102
3072.408, 5453.665
3074.336, 5486.814
3076.265, 5500.807
3078.193, 5487.637
3080.122, 5435.019
3082.050, 5426.241
3083.979, 5475.594
3085.907, 5513.746
3087.835, 5538.076
3089.764, 5525.828
3091.692, 5488.988
3093.621, 5478.829
3095.549, 5481.287
3097.478, 5457.576
3099.406, 5436.891
3101.335, 5475.435
3103.263, 5515.775
3105.192, 5506.724
3107.120, 5493.324
3109.049, 5502.171
3110.977, 5509.807
3112.906, 5508.224
3114.834, 5510.573
3116.762, 5523.911
3118.691, 5529.238
3120.619, 5523.300
3122.548, 5539.454
3124.476, 5575.063
3126.405, 5587.200
3128.333, 5579.104
3130.262, 5558.464
3132.190, 5535.866
3134.119, 5533.994
3136.047, 5539.809
3137.976, 5535.763
3139.904, 5538.853
3141.833, 5571.629
3143.761, 5594.783
3145.689, 5579.542
3147.618, 5577.434
3149.546, 5605.757
3151.475, 5639.757
3153.403, 5680.680
3155.332, 5677.184
3157.260, 5625.484
3159.189, 5612.982
3161.117, 5633.042
3163.046, 5664.186
3164.974, 5693.502
3166.903, 5694.539
3168.831, 5685.059
3170.760, 5680.203
3172.688, 5680.648
3174.616, 5694.361
3176.545, 5700.006
3178.473, 5676.332
3180.402, 5671.507
3182.330, 5697.429
3184.259, 5705.285
3186.187, 5684.849
3188.116, 5677.965
3190.044, 5684.827
3191.973, 5710.229
3193.901, 5744.735
3195.830, 5772.219
3197.758, 5787.435
3199.687, 5775.106
3201.615, 5757.869
3203.543, 5741.328
3205.472, 5742.690
3207.400, 5784.376
3209.329, 5817.012
3211.257, 5831.773
3213.186, 5843.874
3215.114, 5856.311
3217.043, 5857.143
3218.971, 5846.606
3220.900, 5818.877
3222.828, 5788.651
3224.757, 5791.260
3226.685, 5808.632
3228.614, 5823.316
3230.542, 5833.870
3232.470, 5831.192
3234.399, 5838.491
3236.327, 5884.585
3238.256, 5896.184
3240.184, 5857.220
3242.113, 5848.786
3244.041, 5881.166
3245.970, 5906.812
3247.898, 5923.637
3249.827, 5908.951
3251.755, 5890.202
3253.684, 5926.972
3255.612, 5962.487
3257.541, 5936.856
3259.469, 5906.232
3261.397, 5889.612
3263.326, 5888.460
3265.254, 5904.814
3267.183, 5931.240
3269.111, 5967.451
3271.040, 5977.998
3272.968, 5966.185
3274.897, 5949.510
3276.825, 5937.192
3278.754, 5952.418
3280.682, 5971.184
3282.611, 5962.521
3284.539, 5962.447
3286.468, 5997.373
3288.396, 6015.394
3290.324, 5986.131
3292.253, 5968.812
3294.181, 5964.765
3296.110, 5992.298
3298.038, 6041.879
3299.967, 6074.934
3301.895, 6088.419
3303.824, 6067.549
3305.752, 6036.982
3307.681, 6003.740
3309.609, 5990.357
3311.538, 6012.622
3313.466, 6030.514
3315.395, 6035.198
3317.323, 6034.286
3319.251, 6028.505
3321.180, 6046.333
3323.108, 6077.833
3325.037, 6096.840
3326.965, 6108.546
3328.894, 6118.962
3330.822, 6126.064
3332.751, 6130.364
3334.679, 6126.157
3336.608, 6101.404
3338.536, 6112.579
3340.465, 6166.153
3342.393, 6177.753
3344.322, 6155.979
3346.250, 6157.922
3348.178, 6172.752
3350.107, 6189.662
3352.035, 6201.190
3353.964, 6199.572
3355.892, 6192.453
3357.821, 6177.734
3359.749, 6173.099
3361.678, 6183.050
3363.606, 6195.096
3365.535, 6206.360
3367.463, 6190.307
3369.392, 6175.323
3371.320, 6240.953
3373.249, 6299.528
3375.177, 6268.013
3377.105, 6235.954
3379.034, 6241.096
3380.962, 6240.972
3382.891, 6229.797
3384.819, 6248.780
3386.748, 6292.168
3388.676, 6313.761
3390.605, 6318.841
3392.533, 6308.551
3394.462, 6300.836
3396.390, 6319.608
3398.319, 6327.035
3400.247, 6304.971
3402.176, 6296.788
3404.104, 6308.576
3406.032, 6335.061
3407.961, 6366.106
3409.889, 6365.277
3411.818, 6343.831
3413.746, 6295.938
3415.675, 6269.588
3417.603, 6314.398
3419.532, 6344.777
3421.460, 6335.451
3423.389, 6343.968
3425.317, 6371.864
3427.246, 6357.824
3429.174, 6320.152
3431.103, 6302.557
3433.031, 6306.775
3434.959, 6357.992
3436.888, 6388.313
3438.816, 6360.708
3440.745, 6348.864
3442.673, 6373.777
3444.602, 6353.343
3446.530, 6298.413
3448.459, 6285.679
3450.387, 6295.364
3452.316, 6306.507
3454.244, 6316.750
3456.173, 6323.183
3458.101, 6332.727
3460.030, 6358.760
3461.958, 6354.670
3463.886, 6324.138
3465.815, 6305.775
3467.743, 6297.842
3469.672, 6297.149
3471.600, 6302.356
3473.529, 6318.528
3475.457, 6327.208
3477.386, 6318.278
3479.314, 6315.314
3481.243, 6319.506
3483.171, 6312.336
3485.100, 6298.716
3487.028, 6294.135
3488.957, 6292.430
3490.885, 6281.511
3492.813, 6285.401
3494.742, 6320.470
3496.670, 6332.801
3498.599, 6310.261
3500.527, 6302.496
3502.456, 6307.984
3504.384, 6329.258
3506.313, 6349.525
3508.241, 6348.130
3510.170, 6346.209
3512.098, 6357.069
3514.027, 6340.698
3515.955, 6280.379
3517.884, 6302.957
3519.812, 6371.025
3521.740, 6374.923
3523.669, 6358.212
3525.597, 6369.754
3527.526, 6373.209
3529.454, 6343.940
3531.383, 6333.425
3533.311, 6344.783
3535.240, 6341.388
3537.168, 6331.301
3539.097, 6342.725
3541.025, 6355.069
3542.954, 6345.129
3544.882, 6342.584
3546.811, 6364.247
3548.739, 6378.037
3550.667, 6380.878
3552.596, 6354.311
3554.524, 6318.670
3556.453, 6327.134
3558.381, 6336.632
3560.310, 6296.057
3562.238, 6299.429
3564.167, 6374.719
3566.095, 6391.880
3568.024, 6349.472
3569.952, 6298.960
3571.881, 6265.524
3573.809, 6299.962
3575.738, 6332.354
3577.666, 6323.269
3579.594, 6303.706
3581.523, 6275.644
3583.451, 6289.948
3585.380, 6331.544
3587.308, 6350.785
3589.237, 6349.225
3591.165, 6304.985
3593.094, 6285.599
3595.022, 6319.635
3596.951, 6319.492
3598.879, 6279.508
3600.808, 6255.890
3602.736, 6250.110
3604.665, 6281.091
3606.593, 6297.519
3608.521, 6263.365
3610.450, 6233.930
3612.378, 6219.284
3614.307, 6227.321
3616.235, 6252.338
3618.164, 6292.446
3620.092, 6313.060
3622.021, 6253.149
3623.949, 6213.576
3625.878, 6233.477
3627.806, 6237.730
3629.735, 6225.366
3631.663, 6217.406
3633.592, 6219.729
3635.520, 6258.343
3637.448, 6279.345
3639.377, 6251.111
3641.305, 6228.481
3643.234, 6218.229
3645.162, 6216.696
3647.091, 6215.574
3649.019, 6187.966
3650.948, 6169.379
3652.876, 6186.029
3654.805, 6200.992
3656.733, 6206.779
3658.662, 6199.857
3660.590, 6188.557
3662.519, 6204.792
3664.447, 6220.072
3666.375, 6210.257
3668.304, 6190.712
3670.232, 6157.691
3672.161, 6146.137
3674.089, 6151.815
3676.018, 6154.103
3677.946, 6157.114
3679.875, 6168.620
3681.803, 6176.266
3683.732, 6177.423
3685.660, 6161.966
3687.589, 6136.018
3689.517, 6143.837
3691.446, 6156.926
3693.374, 6129.277
3695.302, 6105.381
3697.231, 6101.955
3699.159, 6113.048
3701.088, 6134.965
3703.016, 6140.212
3704.945, 6141.669
3706.873, 6165.954
3708.802, 6180.668
3710.730, 6170.227
3712.659, 6144.595
3714.587, 6110.224
3716.516, 6122.770
3718.444, 6157.643
3720.373, 6196.744
3722.301, 6210.438
3724.229, 6165.474
3726.158, 6160.239
3728.086, 6192.684
3730.015, 6191.435
3731.943, 6173.603
3733.872, 6156.883
3735.800, 6147.044
3737.729, 6151.067
3739.657, 6142.750
3741.586, 6125.819
3743.514, 6147.361
3745.443, 6177.662
3747.371, 6174.483
3749.300, 6172.107
3751.228, 6181.286
3753.156, 6204.788
3755.085, 6233.662
3757.013, 6216.276
3758.942, 6180.111
3760.870, 6140.260
3762.799, 6123.920
3764.727, 6148.614
3766.656, 6152.441
3768.584, 6143.876
3770.513, 6170.871
3772.441, 6192.840
3774.370, 6160.605
3776.298, 6147.651
3778.227, 6178.166
3780.155, 6186.178
3782.083, 6182.316
3784.012, 6204.357
3785.940, 6209.999
3787.869, 6155.513
3789.797, 6142.750
3791.726, 6192.138
3793.654, 6192.239
3795.583, 6170.082
3797.511, 6165.373
3799.440, 6171.658
3801.368, 6189.740
3803.297, 6193.349
3805.225, 6181.876
3807.154, 6173.200
3809.082, 6167.853
3811.010, 6172.503
3812.939, 6163.861
3814.867, 6133.230
3816.796, 6137.440
3818.724, 6167.945
3820.653, 6201.781
3822.581, 6220.297
3824.510, 6198.335
3826.438, 6182.724
3828.367, 6178.888
3830.295, 6171.954
3832.224, 6162.638
3834.152, 6143.302
3836.081, 6143.128
3838.009, 6194.302
3839.938, 6204.860
3841.866, 6177.938
3843.794, 6150.262
3845.723, 6139.570
3847.651, 6170.457
3849.580, 6188.477
3851.508, 6188.146
3853.437, 6199.076
3855.365, 6206.694
3857.294, 6156.082
3859.222, 6132.583
3861.151, 6202.162
3863.079, 6200.347
3865.008, 6133.267
3866.936, 6121.904
3868.865, 6127.634
3870.793, 6106.044
3872.721, 6102.053
3874.650, 6134.638
3876.578, 6122.633
3878.507, 6087.692
3880.435, 6061.133
3882.364, 6058.712
3884.292, 6095.120
3886.221, 6104.334
3888.149, 6086.539
3890.078, 6101.839
3892.006, 6106.797
3893.935, 6036.547
3895.863, 6008.040
3897.792, 6038.907
3899.720, 6029.863
3901.648, 6001.757
3903.577, 5994.873
3905.505, 5991.449
3907.434, 5980.652
3909.362, 6003.102
3911.291, 6045.727
3913.219, 6044.045
3915.148, 6022.682
3917.076, 5986.286
3919.005, 5986.032
3920.933, 6020.412
3922.862, 5975.707
3924.790, 5913.595
3926.719, 5915.309
3928.647, 5936.002
3930.575, 5974.506
3932.504, 5978.341
3934.432, 5955.004
3936.361, 5923.384
3938.289, 5898.998
3940.218, 5893.439
3942.146, 5901.743
3944.075, 5904.614
3946.003, 5862.115
3947.932, 5833.126
3949.860, 5861.048
3951.789, 5896.663
3953.717, 5930.367
3955.646, 5902.604
3957.574, 5853.560
3959.502, 5829.353
3961.431, 5817.398
3963.359, 5810.798
3965.288, 5814.644
3967.216, 5827.678
3969.145, 5829.178
3971.073, 5821.002
3973.002, 5803.992
3974.930, 5793.015
3976.859, 5795.724
3978.787, 5797.380
3980.716, 5801.093
3982.644, 5791.351
3984.573, 5773.198
3986.501, 5766.664
3988.429, 5764.004
3990.358, 5755.637
3992.286, 5725.820
3994.215, 5720.106
3996.143, 5745.422
3998.072, 5742.995
4000.000, 5734.623
4001.929, 5721.447
4003.857, 5724.251
4005.786, 5730.835
4007.714, 5708.559
4009.643, 5705.523
4011.571, 5714.300
4013.500, 5693.397
4015.428, 5669.805
4017.356, 5684.417
4019.285, 5708.143
4021.213, 5692.722
4023.142, 5661.513
4025.070, 5661.063
4026.999, 5682.728
4028.927, 5673.219
4030.856, 5653.809
4032.784, 5667.865
4034.713, 5672.136
4036.641, 5670.584
4038.570, 5659.464
4040.498, 5620.500
4042.427, 5592.979
4044.355, 5589.814
4046.283, 5584.214
4048.212, 5584.530
4050.140, 5605.084
4052.069, 5604.106
4053.997, 5591.650
4055.926, 5578.589
4057.854, 5576.228
4059.783, 5610.391
4061.711, 5620.710
4063.640, 5576.561
4065.568, 5534.000
4067.497, 5515.941
4069.425, 5493.709
4071.354, 5479.703
4073.282, 5489.547
4075.210, 5509.262
4077.139, 5522.093
4079.067, 5511.453
4080.996, 5518.388
4082.924, 5532.360
4084.853, 5513.788
4086.781, 5496.864
4088.710, 5499.095
4090.638, 5498.476
4092.567, 5495.932
4094.495, 5460.837
4096.424, 5438.133
4098.352, 5486.743
4100.280, 5504.583
4102.209, 5481.580
4104.138, 5479.258
4106.066, 5482.441
4107.994, 5471.890
4109.923, 5455.945
4111.852, 5438.653
4113.780, 5449.490
4115.708, 5456.782
4117.637, 5421.512
4119.565, 5403.600
4121.494, 5413.555
4123.422, 5419.814
4125.351, 5415.303
4127.279, 5369.072
4129.208, 5376.071
4131.136, 5447.446
4133.064, 5424.331
4134.993, 5373.369
4136.921, 5360.908
4138.850, 5367.017
4140.778, 5386.927
4142.707, 5383.704
4144.635, 5365.955
4146.563, 5326.963
4148.492, 5317.092
4150.421, 5354.812
4152.349, 5350.754
4154.277, 5327.026
4156.206, 5341.558
4158.135, 5339.730
4160.063, 5315.016
4161.991, 5333.766
4163.920, 5353.833
4165.849, 5334.680
4167.777, 5335.400
4169.705, 5359.083
4171.634, 5335.299
4173.563, 5297.984
4175.491, 5303.710
4177.419, 5292.854
4179.348, 5250.881
4181.276, 5230.458
4183.205, 5234.825
4185.133, 5268.448
4187.062, 5284.014
4188.990, 5278.412
4190.918, 5287.360
4192.847, 5290.910
4194.775, 5285.126
4196.704, 5273.810
4198.632, 5249.354
4200.561, 5246.707
4202.489, 5258.969
4204.418, 5251.413
4206.346, 5233.907
4208.274, 5218.819
4210.203, 5226.474
4212.132, 5236.167
4214.060, 5227.611
4215.988, 5219.882
4217.917, 5211.638
4219.846, 5197.049
4221.774, 5191.309
4223.702, 5206.646
4225.631, 5194.551
4227.560, 5163.867
4229.488, 5194.360
4231.416, 5217.705
4233.345, 5169.056
4235.273, 5150.555
4237.202, 5162.545
4239.130, 5179.919
4241.059, 5186.915
4242.987, 5162.056
4244.916, 5173.026
4246.844, 5201.855
4248.772, 5204.722
4250.701, 5194.949
4252.629, 5167.357
4254.558, 5179.982
4256.486, 5210.124
4258.415, 5211.012
4260.343, 5209.306
4262.271, 5215.302
4264.200, 5198.748
4266.129, 5178.484
4268.057, 5181.797
4269.985, 5190.736
4271.914, 5201.787
4273.843, 5215.151
4275.771, 5224.297
4277.699, 5231.119
4279.628, 5192.936
4281.557, 5124.434
4283.485, 5166.324
4285.413, 5228.005
4287.342, 5252.883
4289.271, 5251.353
4291.199, 5234.366
4293.127, 5232.258
4295.056, 5236.900
4296.984, 5249.972
4298.913, 5235.688
4300.841, 5216.949
4302.770, 5240.695
4304.698, 5267.749
4306.626, 5290.157
4308.555, 5277.873
4310.483, 5255.110
4312.412, 5244.438
4314.340, 5237.560
4316.269, 5234.062
4318.197, 5243.930
4320.126, 5252.834
4322.054, 5250.335
4323.982, 5264.211
4325.911, 5281.194
4327.840, 5252.806
4329.768, 5231.804
4331.696, 5235.041
4333.625, 5240.240
4335.554, 5254.702
4337.482, 5308.077
4339.410, 5300.285
4341.339, 5234.047
4343.268, 5245.547
4345.196, 5281.495
4347.124, 5310.203
4349.053, 5318.794
4350.981, 5311.472
4352.910, 5288.940
4354.838, 5292.938
4356.767, 5337.967
4358.695, 5321.734
4360.624, 5283.617
4362.552, 5272.012
4364.480, 5281.870
4366.409, 5305.574
4368.337, 5291.314
4370.266, 5279.182
4372.194, 5299.708
4374.123, 5331.653
4376.051, 5358.464
4377.979, 5333.854
4379.908, 5312.934
4381.837, 5312.889
4383.765, 5315.405
4385.693, 5313.849
4387.622, 5296.256
4389.551, 5292.936
4391.479, 5304.443
4393.407, 5326.533
4395.336, 5334.325
4397.265, 5315.986
4399.193, 5307.892
4401.121, 5315.424
4403.050, 5361.919
4404.979, 5363.919
4406.907, 5322.269
4408.835, 5316.348
4410.764, 5326.696
4412.692, 5343.280
4414.621, 5352.058
4416.549, 5355.681
4418.478, 5367.032
4420.406, 5355.807
4422.334, 5317.135
4424.263, 5343.537
4426.191, 5374.891
4428.120, 5354.254
4430.048, 5365.847
4431.977, 5390.647
4433.905, 5351.613
4435.834, 5344.893
4437.762, 5394.588
4439.690, 5402.529
4441.619, 5401.399
4443.548, 5421.063
4445.476, 5426.152
4447.404, 5418.591
4449.333, 5415.362
4451.262, 5397.950
4453.190, 5363.160
4455.118, 5381.648
4457.047, 5412.499
4458.976, 5417.818
4460.904, 5409.165
4462.832, 5402.240
4464.761, 5471.415
4466.689, 5470.783
4468.618, 5351.692
4470.546, 5322.672
4472.475, 5346.352
4474.403, 5409.181
4476.332, 5416.606
4478.260, 5392.565
4480.188, 5413.593
4482.117, 5431.077
4484.045, 5432.551
4485.974, 5418.354
4487.902, 5403.098
4489.831, 5397.101
4491.759, 5398.647
4493.688, 5402.803
4495.616, 5398.600
4497.545, 5396.830
4499.473, 5399.446
4501.401, 5406.564
4503.330, 5410.183
4505.259, 5404.991
4507.187, 5419.839
4509.115, 5444.807
4511.044, 5475.807
4512.973, 5473.969
4514.901, 5440.633
4516.829, 5391.534
4518.758, 5366.010
4520.687, 5384.959
4522.615, 5407.397
4524.543, 5426.437
4526.472, 5436.502
4528.400, 5431.784
4530.329, 5420.909
4532.257, 5423.567
4534.186, 5435.455
4536.114, 5450.308
4538.042, 5420.012
4539.971, 5398.941
4541.899, 5430.182
4543.828, 5447.981
4545.756, 5452.061
4547.685, 5434.935
4549.613, 5438.734
4551.542, 5458.827
4553.470, 5455.185
4555.398, 5450.650
4557.327, 5451.306
4559.256, 5432.385
4561.184, 5420.747
4563.112, 5445.065
4565.041, 5446.951
4566.970, 5433.384
4568.898, 5408.121
4570.826, 5418.992
4572.755, 5459.547
4574.684, 5464.773
4576.612, 5451.442
4578.540, 5427.224
4580.469, 5411.632
4582.397, 5424.099
4584.326, 5500.680
4586.254, 5499.571
4588.183, 5460.385
4590.111, 5464.341
4592.040, 5460.608
4593.968, 5444.704
4595.896, 5425.116
4597.825, 5420.411
4599.753, 5432.892
4601.682, 5407.021
4603.610, 5389.827
4605.539, 5420.690
4607.467, 5460.110
4609.396, 5487.679
4611.324, 5467.424
4613.253, 5454.484
4615.181, 5458.449
4617.109, 5506.776
4619.038, 5514.793
4620.967, 5475.055
4622.895, 5479.726
4624.823, 5489.486
4626.752, 5483.308
4628.681, 5442.642
4630.609, 5423.712
4632.537, 5492.175
4634.466, 5520.268
4636.395, 5517.649
4638.323, 5520.622
4640.251, 5509.181
4642.180, 5484.631
4644.108, 5458.256
4646.037, 5444.319
4647.965, 5447.448
4649.894, 5490.106
4651.822, 5508.794
4653.750, 5469.757
4655.679, 5453.597
4657.607, 5458.652
4659.536, 5481.382
4661.464, 5515.079
4663.393, 5543.071
4665.321, 5535.087
4667.250, 5512.962
4669.178, 5486.441
4671.106, 5473.122
4673.035, 5476.175
4674.964, 5490.430
4676.892, 5463.450
4678.820, 5449.846
4680.749, 5480.214
4682.678, 5496.443
4684.606, 5497.071
4686.534, 5478.026
4688.463, 5498.729
4690.392, 5515.620
4692.320, 5442.195
4694.248, 5465.453
4696.177, 5533.613
4698.105, 5493.619
4700.034, 5476.785
4701.962, 5489.380
4703.891, 5456.034
4705.819, 5453.034
4707.748, 5493.775
4709.676, 5477.438
4711.604, 5466.905
4713.533, 5489.753
4715.461, 5518.588
4717.390, 5527.349
4719.318, 5496.929
4721.247, 5496.502
4723.175, 5519.866
4725.104, 5575.816
4727.032, 5558.530
4728.961, 5503.293
4730.889, 5454.808
4732.817, 5481.955
4734.746, 5539.825
4736.675, 5508.181
4738.603, 5478.090
4740.531, 5467.863
4742.460, 5491.546
4744.389, 5494.857
4746.317, 5472.203
4748.245, 5461.197
4750.174, 5475.208
4752.103, 5519.525
4754.031, 5494.947
4755.959, 5473.642
4757.888, 5491.026
4759.816, 5483.904
4761.745, 5481.395
4763.673, 5514.044
4765.602, 5538.681
4767.530, 5533.696
4769.458, 5468.710
4771.387, 5454.445
4773.315, 5475.628
4775.244, 5515.444
4777.172, 5511.588
4779.101, 5490.318
4781.029, 5513.178
4782.958, 5519.059
4784.886, 5511.000
4786.814, 5519.754
4788.743, 5514.253
4790.672, 5497.509
4792.600, 5500.964
4794.528, 5506.542
4796.457, 5508.864
4798.386, 5495.855
4800.314, 5499.147
4802.242, 5521.462
4804.171, 5502.352
4806.100, 5479.801
4808.028, 5469.975
4809.956, 5516.787
4811.885, 5536.804
4813.813, 5492.304
4815.742, 5505.671
4817.670, 5533.964
4819.599, 5554.036
4821.527, 5524.559
4823.456, 5476.931
4825.384, 5423.804
4827.313, 5460.180
4829.241, 5509.233
4831.169, 5515.829
4833.098, 5477.021
4835.026, 5455.396
4836.955, 5520.933
4838.883, 5537.536
4840.812, 5509.825
4842.740, 5436.180
4844.669, 5447.876
4846.597, 5485.767
4848.525, 5473.094
4850.454, 5465.886
4852.383, 5473.118
4854.311, 5510.479
4856.239, 5469.656
4858.168, 5418.855
4860.097, 5478.920
4862.025, 5481.193
4863.953, 5450.023
4865.882, 5434.200
4867.811, 5408.244
4869.739, 5397.767
4871.667, 5469.000
4873.596, 5466.149
4875.524, 5437.519
4877.453, 5488.573
4879.381, 5497.111
4881.310, 5475.886
4883.238, 5466.851
4885.167, 5466.135
4887.095, 5463.997
4889.023, 5437.433
4890.952, 5436.259
4892.880, 5453.074
4894.809, 5473.556
4896.737, 5466.131
4898.666, 5440.947
4900.594, 5408.160
4902.522, 5416.373
4904.451, 5438.563
4906.380, 5425.892
4908.308, 5380.374
4910.236, 5353.285
4912.165, 5448.298
4914.094, 5453.541
4916.022, 5422.641
4917.950, 5468.251
4919.879, 5453.161
4921.808, 5416.014
4923.736, 5443.360
4925.664, 5431.422
4927.593, 5403.324
4929.521, 5398.572
4931.450, 5358.554
4933.378, 5336.860
4935.307, 5416.557
4937.235, 5394.952
4939.164, 5360.513
4941.092, 5439.551
4943.021, 5424.927
4944.949, 5383.399
4946.877, 5381.721
4948.806, 5382.580
4950.734, 5380.746
4952.663, 5368.679
4954.591, 5395.955
4956.520, 5419.432
4958.448, 5410.961
4960.377, 5429.178
4962.305, 5443.767
4964.233, 5435.038
4966.162, 5421.342
4968.091, 5408.783
4970.019, 5400.281
4971.947, 5409.189
4973.876, 5414.821
4975.805, 5406.368
4977.733, 5354.705
4979.661, 5322.789
4981.590, 5329.603
4983.519, 5354.051
4985.447, 5347.540
4987.375, 5318.886
4989.304, 5369.365
4991.232, 5399.984
4993.161, 5397.621
4995.089, 5388.310
4997.018, 5381.498
4998.946, 5376.211
5000.875, 5363.600
5002.803, 5369.759
5004.731, 5379.409
5006.660, 5351.707
5008.588, 5362.919
5010.517, 5388.351
5012.445, 5393.237
5014.374, 5376.267
5016.302, 5345.496
5018.230, 5305.907
5020.159, 5304.856
5022.088, 5315.974
5024.016, 5315.359
5025.944, 5357.049
5027.873, 5381.137
5029.802, 5362.536
5031.730, 5333.441
5033.658, 5332.753
5035.587, 5364.086
5037.516, 5357.662
5039.444, 5324.945
5041.372, 5282.335
5043.301, 5270.908
5045.229, 5294.795
5047.158, 5330.458
5049.086, 5326.139
5051.015, 5316.959
5052.943, 5316.583
5054.872, 5351.229
5056.800, 5325.769
5058.729, 5297.392
5060.657, 5327.689
5062.585, 5366.646
5064.514, 5366.876
5066.442, 5293.289
5068.371, 5286.962
5070.299, 5303.827
5072.228, 5322.538
5074.156, 5346.802
5076.085, 5336.194
5078.013, 5295.342
5079.941, 5280.710
5081.870, 5264.659
5083.799, 5248.354
5085.727, 5248.922
5087.655, 5246.394
5089.584, 5246.764
5091.513, 5259.919
5093.441, 5305.554
5095.369, 5328.936
5097.298, 5275.381
5099.227, 5255.093
5101.155, 5255.099
5103.083, 5266.360
5105.012, 5283.528
5106.940, 5242.556
5108.869, 5162.739
5110.797, 5196.819
5112.726, 5210.346
5114.654, 5202.832
5116.583, 5243.618
5118.511, 5227.148
5120.439, 5182.969
5122.368, 5153.734
5124.296, 5189.720
5126.225, 5219.850
5128.153, 5192.439
5130.082, 5186.209
5132.010, 5201.674
5133.938, 5228.116
5135.867, 5190.048
5137.796, 5176.892
5139.724, 5194.216
5141.652, 5219.626
5143.581, 5204.486
5145.510, 5176.938
5147.438, 5177.128
5149.366, 5193.746
5151.295, 5214.053
5153.224, 5227.861
5155.152, 5191.710
5157.080, 5173.919
5159.009, 5189.582
5160.938, 5162.982
5162.866, 5157.198
5164.794, 5181.637
5166.723, 5241.692
5168.651, 5211.131
5170.580, 5159.166
5172.508, 5171.514
5174.437, 5172.612
5176.365, 5177.227
5178.293, 5194.314
5180.222, 5141.803
5182.150, 5132.349
5184.079, 5172.219
5186.007, 5181.030
5187.936, 5158.611
5189.864, 5138.319
5191.793, 5174.002
5193.721, 5157.716
5195.649, 5126.559
5197.578, 5108.975
5199.507, 5104.987
5201.435, 5113.748
5203.363, 5131.017
5205.292, 5144.210
5207.221, 5157.549
5209.149, 5163.415
5211.077, 5145.533
5213.006, 5135.565
5214.935, 5118.344
5216.863, 5082.584
5218.791, 5083.111
5220.720, 5091.575
5222.648, 5098.924
5224.577, 5119.058
5226.505, 5107.738
5228.434, 5081.453
5230.362, 5075.978
5232.291, 5070.430
5234.219, 5050.906
5236.147, 5012.839
5238.076, 5006.698
5240.004, 5042.430
5241.933, 5089.843
5243.861, 5035.940
5245.790, 5048.830
5247.718, 5083.291
5249.646, 5047.443
5251.575, 5069.240
5253.504, 5082.795
5255.432, 5058.867
5257.360, 5049.955
5259.289, 5038.941
5261.218, 5027.453
5263.146, 5026.447
5265.074, 5040.811
5267.003, 5052.642
5268.932, 5046.988
5270.860, 5026.735
5272.788, 5033.221
5274.717, 5056.759
5276.646, 4992.894
5278.574, 4987.457
5280.502, 5008.621
5282.431, 4984.501
5284.359, 5018.224
5286.288, 5017.222
5288.216, 4951.280
5290.145, 4986.951
5292.073, 5038.210
5294.001, 5062.502
5295.930, 5017.291
5297.858, 4975.546
5299.787, 4969.856
5301.715, 5015.392
5303.644, 5018.856
5305.572, 5004.289
5307.501, 4986.818
5309.429, 4986.502
5311.357, 4964.568
5313.286, 4938.282
5315.215, 4925.744
5317.143, 4924.484
5319.071, 4935.268
5321.000, 4950.701
5322.929, 4949.766
5324.857, 4928.920
5326.785, 4911.848
5328.714, 4920.650
5330.643, 4936.084
5332.571, 4931.380
5334.499, 4908.286
5336.428, 4906.194
5338.356, 4869.905
5340.285, 4856.841
5342.213, 4950.986
5344.142, 4913.144
5346.070, 4889.229
5347.999, 4911.664
5349.927, 4893.461
5351.855, 4845.535
5353.784, 4825.578
5355.712, 4884.425
5357.641, 4910.876
5359.569, 4881.887
5361.498, 4826.332
5363.426, 4871.978
5365.354, 4884.115
5367.283, 4872.209
5369.212, 4860.954
5371.140, 4834.132
5373.068, 4826.081
5374.997, 4831.740
5376.926, 4804.162
5378.854, 4806.142
5380.782, 4823.613
5382.711, 4841.064
5384.640, 4833.683
5386.568, 4802.308
5388.496, 4774.475
5390.425, 4809.405
5392.354, 4796.941
5394.282, 4787.125
5396.210, 4809.978
5398.139, 4820.941
5400.067, 4806.517
5401.996, 4774.887
5403.924, 4737.157
5405.853, 4709.771
5407.781, 4693.469
5409.709, 4692.859
5411.638, 4737.466
5413.566, 4755.209
5415.495, 4753.036
5417.423, 4749.321
5419.352, 4732.825
5421.280, 4743.317
5423.209, 4769.218
5425.137, 4748.128
5427.065, 4719.910
5428.994, 4706.041
5430.923, 4713.276
5432.851, 4674.988
5434.779, 4691.024
5436.708, 4729.698
5438.637, 4721.861
5440.565, 4720.024
5442.493, 4704.966
5444.422, 4680.457
5446.351, 4695.109
5448.279, 4685.148
5450.207, 4666.660
5452.136, 4657.936
5454.064, 4732.333
5455.993, 4726.242
5457.921, 4660.428
5459.850, 4624.927
5461.778, 4610.508
5463.707, 4627.109
5465.635, 4659.708
5467.563, 4640.116
5469.492, 4647.553
5471.420, 4653.462
5473.349, 4630.507
5475.277, 4625.631
5477.206, 4617.475
5479.134, 4599.197
5481.063, 4567.580
5482.991, 4549.799
5484.920, 4576.654
5486.848, 4629.002
5488.776, 4632.628
5490.705, 4605.876
5492.634, 4581.784
5494.562, 4576.766
5496.490, 4558.496
5498.419, 4575.186
5500.348, 4598.945
5502.276, 4589.858
5504.204, 4564.598
5506.133, 4586.423
5508.062, 4627.252
5509.990, 4607.434
5511.918, 4549.274
5513.847, 4512.764
5515.775, 4516.043
5517.704, 4539.764
5519.632, 4539.867
5521.561, 4536.277
5523.489, 4542.197
5525.417, 4510.988
5527.346, 4503.816
5529.274, 4500.353
5531.203, 4468.278
5533.131, 4487.051
5535.060, 4490.189
5536.988, 4482.760
5538.917, 4500.681
5540.845, 4476.800
5542.773, 4442.738
5544.702, 4424.983
5546.631, 4463.199
5548.559, 4461.656
5550.487, 4454.193
5552.416, 4458.009
5554.345, 4452.268
5556.273, 4436.167
5558.201, 4427.112
5560.130, 4433.572
5562.059, 4422.228
5563.987, 4403.546
5565.915, 4416.615
5567.844, 4480.302
5569.772, 4392.107
5571.701, 4374.730
5573.629, 4405.636
5575.558, 4385.071
5577.486, 4407.577
5579.415, 4441.517
5581.343, 4453.399
5583.271, 4394.185
5585.200, 4392.405
5587.128, 4394.247
5589.057, 4385.339
5590.985, 4384.440
5592.914, 4358.629
5594.842, 4350.757
5596.771, 4356.895
5598.699, 4298.889
5600.628, 4312.842
5602.556, 4334.791
5604.484, 4331.626
5606.413, 4349.140
5608.342, 4342.275
5610.270, 4294.223
5612.198, 4228.485
5614.127, 4343.940
5616.056, 4331.794
5617.984, 4291.447
5619.912, 4310.709
5621.841, 4292.401
5623.770, 4281.577
5625.698, 4261.079
5627.626, 4224.174
5629.555, 4258.076
5631.483, 4258.782
5633.412, 4228.349
5635.340, 4190.976
5637.269, 4234.484
5639.197, 4254.138
5641.125, 4250.466
5643.054, 4242.993
5644.982, 4244.581
5646.911, 4236.566
5648.839, 4225.435
5650.768, 4220.586
5652.696, 4224.747
5654.625, 4210.251
5656.553, 4197.567
5658.481, 4206.753
5660.410, 4206.618
5662.339, 4228.744
5664.267, 4232.082
5666.195, 4183.837
5668.124, 4149.778
5670.053, 4186.727
5671.981, 4209.087
5673.909, 4145.781
5675.838, 4133.382
5677.767, 4135.721
5679.695, 4145.769
5681.623, 4157.721
5683.552, 4105.544
5685.480, 4086.004
5687.409, 4095.374
5689.337, 4110.561
5691.266, 4091.963
5693.194, 4081.865
5695.123, 4081.810
5697.051, 4088.634
5698.979, 4108.213
5700.908, 4123.593
5702.836, 4109.015
5704.765, 4070.024
5706.693, 4090.115
5708.622, 4061.006
5710.550, 4063.871
5712.479, 4111.011
5714.407, 4101.652
5716.336, 4041.220
5718.264, 4057.439
5720.192, 4120.628
5722.121, 4044.866
5724.050, 4053.860
5725.978, 4041.165
5727.906, 4016.537
5729.835, 4062.228
5731.764, 4049.237
5733.692, 4036.891
5735.620, 4027.198
5737.549, 4001.625
5739.478, 4020.087
5741.406, 4018.128
5743.334, 4010.522
5745.263, 4020.016
5747.191, 3976.978
5749.120, 3970.943
5751.048, 3984.800
5752.977, 3990.631
5754.905, 3961.701
5756.833, 3940.470
5758.762, 3941.619
5760.690, 3956.965
5762.619, 3947.729
5764.547, 3965.476
5766.476, 3956.959
5768.404, 3922.945
5770.333, 3904.438
5772.261, 3903.824
5774.189, 3939.919
5776.118, 3973.626
5778.047, 3960.683
5779.975, 3975.451
5781.903, 3962.768
5783.832, 3933.631
5785.761, 3910.482
5787.689, 3923.504
5789.617, 3895.210
5791.546, 3865.181
5793.475, 3864.880
5795.403, 3915.998
5797.331, 3924.028
5799.260, 3912.205
5801.188, 3899.087
5803.117, 3900.997
5805.045, 3837.893
5806.974, 3845.599
5808.902, 3881.763
5810.831, 3872.065
5812.759, 3840.325
5814.688, 3856.550
5816.616, 3863.862
5818.544, 3834.039
5820.473, 3806.107
5822.401, 3846.978
5824.330, 3871.975
5826.258, 3849.570
5828.187, 3792.858
5830.115, 3822.559
5832.044, 3853.086
5833.972, 3846.143
5835.900, 3802.882
5837.829, 3809.464
5839.758, 3768.346
5841.686, 3742.491
5843.614, 3754.152
5845.543, 3761.630
5847.472, 3732.989
5849.400, 3703.692
5851.328, 3700.936
5853.257, 3739.267
5855.186, 3732.970
5857.114, 3706.767
5859.042, 3723.904
5860.971, 3782.815
5862.899, 3754.167
5864.828, 3697.655
5866.756, 3690.789
5868.685, 3720.421
5870.613, 3731.216
5872.542, 3710.233
5874.470, 3719.147
5876.398, 3706.409
5878.327, 3663.525
5880.255, 3727.207
5882.184, 3683.773
5884.112, 3658.388
5886.041, 3678.465
5887.969, 3698.356
5889.897, 3644.749
5891.826, 3643.749
5893.755, 3652.614
5895.683, 3636.667
5897.611, 3636.280
5899.540, 3680.734
5901.469, 3682.160
5903.397, 3655.482
5905.325, 3657.726
5907.254, 3672.089
5909.183, 3638.765
5911.111, 3603.616
5913.039, 3597.516
5914.968, 3614.931
5916.896, 3621.204
5918.825, 3624.500
5920.753, 3623.169
5922.682, 3613.594
5924.610, 3606.771
5926.539, 3576.385
5928.467, 3552.117
5930.396, 3555.252
5932.324, 3608.313
5934.252, 3593.398
5936.181, 3561.973
5938.109, 3542.325
5940.038, 3538.009
5941.966, 3517.198
5943.895, 3538.685
5945.823, 3548.854
5947.752, 3537.997
5949.680, 3517.586
5951.608, 3466.474
5953.537, 3507.573
5955.466, 3545.979
5957.394, 3544.122
5959.322, 3534.379
5961.251, 3493.177
5963.180, 3452.054
5965.108, 3454.968
5967.036, 3502.542
5968.965, 3525.890
5970.894, 3527.420
5972.822, 3487.048
5974.750, 3456.822
5976.679, 3476.479
5978.607, 3475.864
5980.536, 3468.720
5982.464, 3483.271
5984.393, 3491.296
5986.321, 3454.384
5988.250, 3430.331
5990.178, 3463.473
5992.106, 3465.587
5994.035, 3431.838
5995.963, 3431.634
5997.892, 3462.208
5999.820, 3435.673
6001.749, 3401.942
6003.677, 3398.601
6005.605, 3413.409
6007.534, 3365.462
6009.463, 3365.761
6011.391, 3389.422
6013.319, 3392.239
6015.248, 3357.609
6017.177, 3337.912
6019.105, 3357.174
6021.033, 3369.715
6022.962, 3350.617
6024.891, 3357.238
6026.819, 3337.503
6028.747, 3347.572
6030.676, 3382.683
6032.604, 3410.108
6034.533, 3370.005
6036.461, 3407.055
6038.390, 3357.840
6040.318, 3282.020
6042.247, 3283.090
6044.175, 3311.014
6046.104, 3318.419
6048.032, 3333.675
6049.960, 3329.189
6051.889, 3286.308
6053.817, 3310.721
6055.746, 3342.858
6057.674, 3333.855
6059.603, 3307.290
6061.531, 3299.238
6063.460, 3294.617
6065.388, 3295.728
6067.316, 3289.870
6069.245, 3290.007
6071.174, 3299.612
6073.102, 3237.610
6075.030, 3285.236
6076.959, 3276.991
6078.888, 3240.038
6080.816, 3240.530
6082.744, 3225.820
6084.673, 3200.088
6086.602, 3208.201
6088.530, 3206.381
6090.458, 3172.676
6092.387, 3188.690
6094.315, 3205.054
6096.244, 3226.265
6098.172, 3242.421
6100.101, 3235.014
6102.029, 3175.264
6103.958, 3175.395
6105.886, 3192.439
6107.814, 3190.243
6109.743, 3169.366
6111.671, 3160.172
6113.600, 3209.187
6115.528, 3186.223
6117.457, 3160.333
6119.385, 3160.624
6121.313, 3160.374
6123.242, 3141.140
6125.171, 3143.012
6127.099, 3155.167
6129.027, 3134.479
6130.956, 3074.024
6132.885, 3118.027
6134.813, 3163.260
6136.741, 3136.869
6138.670, 3120.986
6140.599, 3151.419
6142.527, 3111.832
6144.455, 3084.156
6146.384, 3110.004
6148.313, 3100.521
6150.241, 3069.811
6152.169, 3119.965
6154.098, 3109.501
6156.026, 3084.649
6157.955, 3089.309
6159.883, 3079.974
6161.812, 3019.505
6163.740, 3023.227
6165.668, 3049.013
6167.597, 3001.645
6169.525, 2983.891
6171.454, 3035.488
6173.382, 3026.309
6175.311, 3024.625
6177.239, 3012.314
6179.168, 3013.609
6181.096, 3026.603
6183.024, 3030.781
6184.953, 3036.107
6186.882, 2965.863
6188.810, 2946.440
6190.738, 2959.223
6192.667, 2961.927
6194.596, 2979.405
6196.524, 2983.739
6198.452, 2972.688
6200.381, 2941.529
6202.310, 2927.424
6204.238, 2967.813
6206.166, 2947.999
6208.095, 2968.721
6210.023, 2959.354
6211.952, 2931.687
6213.880, 2923.035
6215.809, 2955.893
6217.737, 2931.403
6219.666, 2961.575
6221.594, 2953.832
6223.522, 2915.275
6225.451, 2905.969
6227.379, 2921.100
6229.308, 2922.299
6231.236, 2915.354
6233.165, 2914.869
6235.093, 2913.385
6237.021, 2889.534
6238.950, 2857.482
6240.879, 2876.364
6242.807, 2873.902
6244.735, 2880.367
6246.664, 2901.369
6248.593, 2859.402
6250.521, 2867.647
6252.449, 2836.001
6254.378, 2812.033
6256.307, 2832.350
6258.235, 2859.575
6260.163, 2770.340
6262.092, 2795.553
6264.021, 2833.662
6265.949, 2814.640
6267.877, 2796.560
6269.806, 2827.475
6271.734, 2765.642
6273.663, 2794.191
6275.591, 2793.748
6277.520, 2806.884
6279.448, 2820.259
6281.376, 2777.112
6283.305, 2730.384
6285.233, 2764.302
6287.162, 2799.583
6289.090, 2777.569
6291.019, 2752.209
6292.947, 2804.439
6294.876, 2764.542
6296.804, 2764.856
6298.732, 2757.300
6300.661, 2749.992
6302.590, 2745.219
6304.518, 2729.893
6306.446, 2734.472
6308.375, 2707.620
6310.304, 2717.256
6312.232, 2743.196
6314.160, 2725.289
6316.089, 2652.801
6318.018, 2722.106
6319.946, 2733.159
6321.874, 2714.780
6323.803, 2692.305
6325.731, 2679.271
6327.660, 2683.777
6329.588, 2710.484
6331.517, 2663.952
6333.445, 2673.067
6335.374, 2687.742
6337.302, 2686.413
6339.230, 2685.190
6341.159, 2680.951
6343.087, 2667.930
6345.016, 2664.211
6346.944, 2657.610
6348.873, 2647.100
6350.801, 2637.110
6352.729, 2627.835
6354.658, 2574.049
6356.587, 2596.404
6358.515, 2613.460
6360.443, 2614.799
6362.372, 2618.379
6364.301, 2622.250
6366.229, 2560.798
6368.157, 2599.076
6370.086, 2598.802
6372.015, 2597.876
6373.943, 2606.143
6375.871, 2598.192
6377.800, 2605.681
6379.729, 2600.996
6381.657, 2584.498
6383.585, 2590.342
6385.514, 2591.916
6387.442, 2572.643
6389.371, 2561.175
6391.299, 2516.763
6393.228, 2534.985
6395.156, 2548.895
6397.084, 2537.076
6399.013, 2544.201
6400.941, 2588.198
6402.870, 2497.066
6404.798, 2521.409
6406.727, 2525.334
6408.655, 2542.211
6410.584, 2564.787
6412.512, 2545.832
6414.440, 2472.177
6416.369, 2503.514
6418.298, 2509.940
6420.226, 2503.830
6422.154, 2516.300
6424.083, 2506.726
6426.012, 2463.285
6427.940, 2481.939
6429.868, 2517.383
6431.797, 2520.933
6433.726, 2460.671
6435.654, 2446.645
6437.582, 2473.672
6439.511, 2463.004
6441.439, 2449.440
6443.368, 2428.503
6445.296, 2442.703
6447.225, 2425.125
6449.153, 2411.719
6451.082, 2425.959
6453.010, 2439.040
6454.938, 2433.470
6456.867, 2421.418
6458.795, 2465.756
6460.724, 2472.723
6462.652, 2438.119
6464.581, 2398.987
6466.509, 2379.349
6468.438, 2391.911
6470.366, 2411.222
6472.295, 2440.352
6474.223, 2421.450
6476.151, 2414.953
6478.080, 2422.646
6480.009, 2388.826
6481.937, 2415.273
6483.865, 2363.338
6485.794, 2409.429
6487.723, 2408.072
6489.651, 2373.983
6491.579, 2353.127
6493.508, 2350.334
6495.437, 2376.586
6497.365, 2375.484
6499.293, 2316.522
6501.222, 2322.476
6503.150, 2353.227
6505.079, 2336.012
6507.007, 2287.761
6508.936, 2335.606
6510.864, 2285.765
6512.792, 2298.211
6514.721, 2302.441
6516.649, 2319.345
6518.578, 2322.510
6520.506, 2299.593
6522.435, 2294.500
6524.363, 2294.098
6526.292, 2297.920
6528.220, 2277.576
6530.148, 2286.173
6532.077, 2311.175
6534.006, 2318.376
6535.934, 2297.872
6537.862, 2265.104
6539.791, 2251.896
6541.720, 2225.689
6543.648, 2228.700
6545.576, 2256.667
6547.505, 2277.017
6549.434, 2268.232
6551.362, 2245.861
6553.290, 2257.741
6555.219, 2181.949
6557.147, 2242.204
6559.076, 2273.156
6561.004, 2277.359
6562.933, 2268.653
6564.861, 2245.387
6566.790, 2253.965
6568.718, 2193.465
6570.646, 2206.681
6572.575, 2227.464
6574.503, 2223.426
6576.432, 2216.271
6578.360, 2216.046
6580.289, 2213.722
6582.217, 2206.896
6584.146, 2189.311
6586.074, 2165.501
6588.003, 2215.521
6589.931, 2190.619
6591.859, 2156.670
6593.788, 2160.585
##END=



