##NAMES=Alluaudite
##RRUFFID=R160082
##IDEAL CHEMISTRY=[box]NaMnFe^3+^_2_(PO_4_)_3_
##LOCALITY=Custer, South Dakota, USA
##OWNER=UAMM
##SOURCE=Rock Currier
##DESCRIPTION=Dark green massive, associated with muscovite
##STATUS=The identification of this mineral has been confirmed only by single crystal X-ray diffraction
##URL=https://www.rruff.net/odr/rruff_sample/R160082
##DIFFRACTION SAMPLE DESCRIPTION=Single crystal, powder profile is calculated
##CELL PARAMETERS=a: 11.9389 b: 12.5459 c: 6.4013 alpha: 90 beta: 114.193 gamma: 90 volume: 874.6 crystal system: monoclinic
##FILETYPE=Raman Processed
##RAMAN WAVELENGTH=532

100.9573, 124.5723
102.8857, 137.3618
104.8142, 153.9916
106.7427, 175.9459
108.6711, 196.2718
110.5996, 216.7576
112.5281, 236.0594
114.4565, 246.2497
116.3850, 241.5516
118.3135, 233.3238
120.2419, 226.8289
122.1704, 221.9768
124.0989, 218.2249
126.0273, 215.4810
127.9558, 213.6421
129.8843, 211.5213
131.8127, 207.6458
133.7412, 203.9687
135.6697, 201.8870
137.5981, 202.5102
139.5266, 203.6406
141.4551, 204.5560
143.3835, 205.1861
145.3120, 206.7388
147.2405, 209.8070
149.1689, 213.9834
151.0974, 218.8379
153.0259, 224.5624
154.9543, 230.8988
156.8828, 237.7578
158.8113, 244.9827
160.7397, 253.3111
162.6682, 263.4198
164.5967, 274.7656
166.5251, 285.7254
168.4536, 297.5009
170.3821, 307.6333
172.3105, 314.8639
174.2390, 317.7490
176.1675, 320.4302
178.0959, 324.2238
180.0244, 328.6259
181.9529, 331.2082
183.8813, 330.9835
185.8098, 329.5337
187.7383, 327.9595
189.6667, 327.4694
191.5952, 325.6234
193.5237, 321.5699
195.4521, 315.7502
197.3806, 310.0387
199.3091, 304.0195
201.2375, 298.5622
203.1660, 294.6640
205.0945, 293.1043
207.0229, 291.7471
208.9514, 289.8656
210.8799, 287.4506
212.8083, 285.7829
214.7368, 284.6553
216.6653, 284.3514
218.5938, 285.4424
220.5222, 288.6814
222.4507, 291.7036
224.3792, 293.8136
226.3076, 294.8697
228.2361, 295.5340
230.1646, 295.5002
232.0930, 295.2384
234.0215, 295.2052
235.9500, 295.1770
237.8784, 295.7716
239.8069, 297.0870
241.7354, 299.2140
243.6638, 302.0741
245.5923, 305.7294
247.5208, 310.1412
249.4492, 315.2436
251.3777, 322.4533
253.3062, 328.8759
255.2346, 334.2665
257.1631, 338.6289
259.0916, 340.4075
261.0200, 337.5587
262.9485, 332.4743
264.8770, 327.8569
266.8054, 323.1401
268.7339, 319.4333
270.6624, 317.5623
272.5908, 317.3448
274.5193, 316.9685
276.4478, 317.2398
278.3762, 316.8298
280.3047, 313.7625
282.2332, 306.6662
284.1616, 298.8036
286.0901, 290.3740
288.0186, 281.4464
289.9470, 273.6039
291.8755, 266.9584
293.8040, 261.4161
295.7324, 257.1516
297.6609, 254.3588
299.5894, 252.1271
301.5178, 250.1974
303.4463, 248.5289
305.3748, 247.2680
307.3032, 246.4182
309.2317, 245.9061
311.1602, 245.5960
313.0886, 245.2695
315.0171, 245.6448
316.9456, 246.9399
318.8740, 249.1374
320.8025, 251.7458
322.7310, 254.5998
324.6594, 257.9108
326.5879, 261.8667
328.5164, 266.6198
330.4448, 271.4125
332.3733, 276.3849
334.3018, 281.3395
336.2302, 285.4162
338.1587, 288.8047
340.0872, 291.2392
342.0156, 292.7115
343.9441, 293.1838
345.8726, 292.9315
347.8010, 291.4575
349.7295, 289.4190
351.6580, 288.2604
353.5864, 288.2558
355.5149, 288.6609
357.4434, 289.2564
359.3718, 290.2592
361.3003, 290.5587
363.2288, 290.5037
365.1572, 289.5542
367.0857, 287.1032
369.0142, 282.6269
370.9426, 277.7750
372.8711, 272.8595
374.7996, 267.8698
376.7280, 263.5997
378.6565, 260.0888
380.5850, 257.2568
382.5134, 255.0000
384.4419, 253.3366
386.3704, 252.2203
388.2988, 252.1119
390.2273, 252.6462
392.1558, 252.1861
394.0842, 250.3795
396.0127, 248.0165
397.9412, 245.6941
399.8696, 243.7589
401.7981, 240.2058
403.7266, 234.1236
405.6550, 226.6516
407.5835, 219.4194
409.5120, 212.0651
411.4404, 205.5458
413.3689, 200.1534
415.2974, 195.8887
417.2258, 192.4468
419.1543, 189.8194
421.0828, 187.9251
423.0112, 186.8911
424.9397, 186.8225
426.8682, 186.9048
428.7966, 186.7956
430.7251, 186.6590
432.6536, 187.0540
434.5820, 187.5487
436.5105, 188.8761
438.4390, 191.5723
440.3674, 195.4853
442.2959, 199.8981
444.2244, 205.1405
446.1528, 210.5858
448.0813, 215.7010
450.0098, 220.7266
451.9382, 225.0228
453.8667, 228.2279
455.7952, 230.5633
457.7236, 232.5136
459.6521, 233.6294
461.5806, 234.8183
463.5090, 236.2127
465.4375, 237.6625
467.3660, 240.4852
469.2944, 246.1258
471.2229, 252.7521
473.1514, 258.5037
475.0798, 263.8847
477.0083, 267.3307
478.9368, 268.5104
480.8652, 267.1805
482.7937, 263.9704
484.7222, 258.2634
486.6506, 251.1358
488.5791, 243.1660
490.5076, 233.9906
492.4360, 225.0696
494.3645, 216.1479
496.2930, 207.7388
498.2214, 200.3663
500.1499, 194.0168
502.0784, 188.6533
504.0068, 184.3047
505.9353, 180.8720
507.8638, 177.9462
509.7922, 176.0058
511.7207, 174.0471
513.6492, 171.5945
515.5776, 168.7040
517.5061, 165.6299
519.4346, 162.2132
521.3630, 158.7660
523.2915, 155.5650
525.2200, 152.3429
527.1484, 149.7335
529.0769, 147.7298
531.0054, 146.4288
532.9338, 145.9897
534.8623, 146.7310
536.7908, 148.0411
538.7192, 149.6084
540.6477, 151.3942
542.5762, 154.0323
544.5046, 157.6524
546.4331, 162.0548
548.3616, 167.0748
550.2900, 172.7456
552.2185, 178.9126
554.1470, 186.2857
556.0754, 193.9766
558.0039, 200.2612
559.9324, 204.9495
561.8608, 208.8885
563.7893, 211.8076
565.7178, 214.0062
567.6462, 216.7595
569.5747, 219.1713
571.5032, 222.9872
573.4316, 228.9933
575.3601, 237.3415
577.2886, 247.2973
579.2170, 258.2164
581.1455, 271.3585
583.0740, 287.8081
585.0024, 309.5389
586.9309, 330.8690
588.8594, 355.2242
590.7878, 378.0127
592.7163, 390.6088
594.6448, 391.7179
596.5732, 386.1362
598.5017, 373.1489
600.4302, 353.6420
602.3586, 335.8607
604.2871, 319.0165
606.2156, 304.4242
608.1440, 293.0339
610.0725, 284.8180
612.0010, 278.6260
613.9294, 275.0520
615.8579, 273.1774
617.7864, 272.4880
619.7148, 273.9359
621.6433, 274.8684
623.5718, 275.9932
625.5002, 276.1904
627.4287, 274.0633
629.3572, 269.6096
631.2856, 262.9788
633.2141, 252.9836
635.1426, 240.7010
637.0710, 229.7504
638.9995, 220.5186
640.9280, 212.1517
642.8564, 204.6548
644.7849, 197.9706
646.7134, 191.6917
648.6418, 185.7764
650.5703, 180.3574
652.4988, 175.4572
654.4272, 171.1014
656.3557, 167.3241
658.2842, 164.1307
660.2126, 161.4658
662.1411, 159.3793
664.0696, 157.9030
665.9980, 156.5908
667.9265, 155.2205
669.8550, 154.0227
671.7834, 153.2659
673.7119, 153.3849
675.6404, 153.4472
677.5688, 153.3356
679.4973, 153.1307
681.4258, 152.9965
683.3542, 152.9602
685.2827, 152.8940
687.2112, 152.6892
689.1396, 152.3879
691.0681, 152.2682
692.9966, 152.6104
694.9250, 152.8547
696.8535, 152.7142
698.7820, 152.2974
700.7104, 152.0803
702.6389, 152.1038
704.5674, 152.3738
706.4958, 152.9468
708.4243, 153.9250
710.3528, 154.6958
712.2813, 155.1497
714.2097, 155.4752
716.1382, 155.7691
718.0667, 156.0309
719.9951, 156.3109
721.9236, 156.5264
723.8521, 156.8489
725.7805, 157.4331
727.7090, 158.6424
729.6375, 159.5554
731.5659, 159.9351
733.4944, 160.1446
735.4229, 160.5735
737.3513, 161.2238
739.2798, 162.0421
741.2083, 163.1986
743.1367, 164.4436
745.0652, 165.4207
746.9937, 165.6516
748.9221, 166.1524
750.8506, 167.1482
752.7791, 168.4418
754.7075, 169.6737
756.6360, 170.9131
758.5645, 171.9539
760.4929, 172.6704
762.4214, 173.1677
764.3499, 173.7350
766.2783, 174.2070
768.2068, 174.9379
770.1353, 176.1766
772.0637, 177.7371
773.9922, 179.0163
775.9207, 179.8099
777.8491, 180.5628
779.7776, 181.5569
781.7061, 182.7395
783.6345, 183.5092
785.5630, 183.3536
787.4915, 183.3904
789.4199, 184.1729
791.3484, 185.5680
793.2769, 186.6097
795.2053, 186.9731
797.1338, 187.3774
799.0623, 188.2291
800.9907, 189.5298
802.9192, 190.4653
804.8477, 190.7650
806.7761, 190.9830
808.7046, 191.3809
810.6331, 191.9471
812.5615, 192.3084
814.4900, 192.1521
816.4185, 192.1775
818.3469, 192.8158
820.2754, 194.0621
822.2039, 195.0538
824.1323, 195.3833
826.0608, 195.7547
827.9893, 196.5614
829.9177, 197.8114
831.8462, 198.6534
833.7747, 198.7055
835.7031, 198.7633
837.6316, 199.3436
839.5601, 200.4095
841.4885, 201.1919
843.4170, 201.5851
845.3455, 201.7213
847.2739, 201.5398
849.2024, 201.0131
851.1309, 200.6250
853.0593, 200.4911
854.9878, 200.3484
856.9163, 200.0859
858.8447, 199.7182
860.7732, 199.2832
862.7017, 198.8404
864.6301, 198.2970
866.5586, 197.4445
868.4871, 196.3040
870.4155, 195.8097
872.3440, 196.5975
874.2725, 197.3262
876.2009, 197.4406
878.1294, 197.0580
880.0579, 196.5469
881.9863, 195.8150
883.9148, 195.0957
885.8433, 194.2381
887.7717, 193.3274
889.7002, 193.2295
891.6287, 194.8174
893.5571, 196.1592
895.4856, 196.4980
897.4141, 196.2026
899.3425, 196.2821
901.2710, 196.6903
903.1995, 197.6841
905.1279, 199.5043
907.0564, 201.9458
908.9849, 204.4872
910.9133, 206.5509
912.8418, 209.3987
914.7703, 213.1402
916.6987, 217.7852
918.6272, 223.3177
920.5557, 229.6886
922.4841, 236.9094
924.4126, 245.0914
926.3411, 254.1572
928.2695, 264.1446
930.1980, 275.6178
932.1265, 286.9027
934.0549, 298.0625
935.9834, 308.8543
937.9119, 318.8479
939.8403, 327.7377
941.7688, 336.7975
943.6973, 345.7203
945.6257, 355.1299
947.5542, 365.3374
949.4827, 376.2947
951.4111, 388.3175
953.3396, 401.2014
955.2681, 415.5249
957.1965, 431.9950
959.1250, 451.1240
961.0535, 469.8162
962.9819, 491.1768
964.9104, 509.2577
966.8389, 521.7587
968.7673, 528.7005
970.6958, 529.1142
972.6243, 520.5044
974.5527, 508.8116
976.4812, 495.3682
978.4097, 480.7440
980.3381, 467.2682
982.2666, 455.2755
984.1951, 444.2577
986.1235, 433.5730
988.0520, 423.9882
989.9805, 416.7467
991.9089, 411.4402
993.8374, 409.0929
995.7659, 409.9884
997.6943, 414.1214
999.6228, 422.0235
1001.551, 434.8334
1003.480, 447.1081
1005.408, 460.9742
1007.337, 471.9004
1009.265, 476.2349
1011.194, 472.7389
1013.122, 467.4240
1015.051, 458.3715
1016.979, 449.4003
1018.907, 442.3505
1020.836, 436.9812
1022.764, 432.4387
1024.693, 427.4319
1026.621, 425.3696
1028.550, 426.8998
1030.478, 431.9841
1032.407, 440.5768
1034.335, 457.9069
1036.264, 472.0009
1038.192, 486.6912
1040.121, 495.2162
1042.049, 486.1541
1043.978, 457.9819
1045.906, 425.6495
1047.834, 387.5471
1049.763, 350.4018
1051.691, 318.2884
1053.620, 291.2837
1055.548, 269.1288
1057.477, 253.1231
1059.405, 240.6338
1061.334, 231.2315
1063.262, 224.8134
1065.191, 220.0484
1067.119, 217.3134
1069.048, 215.4768
1070.976, 214.2260
1072.905, 213.6936
1074.833, 213.9987
1076.761, 215.1322
1078.690, 217.0426
1080.618, 219.9099
1082.547, 223.4181
1084.475, 227.3445
1086.404, 231.5954
1088.332, 236.6620
1090.261, 242.8424
1092.189, 249.4873
1094.118, 256.5312
1096.046, 263.8762
1097.975, 270.7666
1099.903, 276.9353
1101.832, 283.0826
1103.760, 289.5749
1105.688, 296.1756
1107.617, 302.2261
1109.545, 307.1105
1111.474, 313.3942
1113.402, 321.6892
1115.331, 331.4435
1117.259, 342.4360
1119.188, 354.9829
1121.116, 367.3396
1123.045, 380.9454
1124.973, 392.8260
1126.902, 403.3651
1128.830, 411.1244
1130.759, 412.0526
1132.687, 405.5108
1134.615, 393.6525
1136.544, 373.8612
1138.472, 350.7420
1140.401, 328.9984
1142.329, 308.3349
1144.258, 290.3139
1146.186, 275.3994
1148.115, 262.6927
1150.043, 252.1390
1151.972, 243.7467
1153.900, 236.0976
1155.829, 229.3264
1157.757, 223.1199
1159.686, 217.5771
1161.614, 212.5357
1163.542, 207.6792
1165.471, 203.0072
1167.399, 198.5068
1169.328, 194.0800
1171.256, 189.9180
1173.185, 186.3083
1175.113, 183.3023
1177.042, 179.8478
1178.970, 175.8415
1180.899, 171.4316
1182.827, 166.3075
1184.756, 160.8303
1186.684, 155.8494
1188.613, 151.2771
1190.541, 147.3058
1192.469, 143.9515
1194.398, 141.2142
1196.326, 139.2150
1198.255, 137.8903
1200.183, 136.8500
1202.112, 136.1410
1204.040, 135.6278
1205.969, 135.3217
1207.897, 135.1603
1209.826, 135.0329
1211.754, 135.0082
1213.683, 134.8114
1215.611, 134.3613
1217.540, 133.7528
1219.468, 133.0471
1221.396, 132.2351
1223.325, 131.2825
1225.253, 130.2269
1227.182, 129.0135
1229.110, 127.5426
1231.039, 125.9495
1232.967, 124.3841
1234.896, 122.8319
1236.824, 121.4836
1238.753, 120.5941
1240.681, 119.6936
1242.610, 118.3951
1244.538, 116.7814
1246.467, 115.6161
1248.395, 115.2132
1250.323, 114.7555
1252.252, 113.8862
1254.180, 112.9885
1256.109, 112.5400
1258.037, 112.6971
1259.966, 112.6539
1261.894, 112.4184
1263.823, 111.9825
1265.751, 111.1028
1267.680, 110.0713
1269.608, 109.6220
1271.537, 109.9429
1273.465, 110.0682
1275.394, 109.5688
1277.322, 109.0036
1279.250, 108.7650
1281.179, 108.8183
1283.107, 108.8459
1285.036, 108.9015
1286.964, 108.7744
1288.893, 108.1576
1290.821, 107.4636
1292.750, 107.2358
1294.678, 107.6928
1296.607, 107.8896
1298.535, 107.7767
1300.464, 107.4997
1302.392, 106.8927
1304.321, 106.2012
1306.249, 106.0806
1308.177, 106.6748
1310.106, 107.1815
1312.034, 107.5008
1313.963, 107.6344
1315.891, 107.5075
1317.820, 107.1962
1319.748, 106.9406
1321.677, 106.7791
1323.605, 106.6613
1325.534, 106.5602
1327.462, 106.5272
1329.391, 106.6024
1331.319, 106.7833
1333.248, 107.0248
1335.176, 107.4001
1337.104, 107.6923
1339.033, 107.8496
1340.961, 107.8679
1342.890, 107.7023
1344.818, 107.2293
1346.747, 107.0175
1348.675, 107.5073
1350.604, 107.7909
1352.532, 107.2867
1354.461, 106.4337
1356.389, 106.1394
1358.318, 106.5037
1360.246, 106.7788
1362.175, 106.7426
1364.103, 106.6861
1366.031, 106.7854
1367.960, 106.9684
1369.888, 107.0813
1371.817, 107.1028
1373.745, 107.0874
1375.674, 107.0439
1377.602, 106.9677
1379.531, 106.8321
1381.459, 106.6528
1383.388, 106.5387
1385.316, 106.5460
1387.245, 106.5187
1389.173, 106.4192
1391.102, 106.2899
1393.030, 106.1623
1394.958, 106.0372
1396.887, 105.8950
1398.815, 105.6123
1400.744, 105.5082
1402.672, 105.8567
1404.601, 106.2243
1406.529, 106.1644
1408.458, 105.7212
1410.386, 105.3919
1412.315, 105.1894
1414.243, 105.0751
1416.172, 105.2024
1418.100, 105.2886
1420.029, 104.9990
1421.957, 104.4238
1423.885, 104.1579
1425.814, 104.4157
1427.742, 104.6330
1429.671, 104.5765
1431.599, 104.4307
1433.528, 104.3129
1435.456, 104.2178
1437.385, 104.2003
1439.313, 104.2457
1441.242, 104.3766
1443.170, 104.7268
1445.099, 105.0501
1447.027, 105.0341
1448.956, 104.6544
1450.884, 104.6054
1452.813, 105.3330
1454.741, 105.7826
1456.669, 105.6328
1458.598, 105.2845
1460.526, 105.0293
1462.455, 104.8696
1464.383, 104.8777
1466.312, 105.1074
1468.240, 105.3848
1470.169, 105.9004
1472.097, 106.2758
1474.026, 106.0807
1475.954, 105.4562
1477.883, 105.1200
1479.811, 105.1990
1481.740, 105.2672
1483.668, 105.1065
1485.596, 105.0030
1487.525, 105.2001
1489.453, 105.5801
1491.382, 105.8208
1493.310, 105.8336
1495.239, 105.9657
1497.167, 106.4689
1499.096, 106.9003
1501.024, 107.1015
1502.953, 107.0616
1504.881, 106.5982
1506.810, 105.5131
1508.738, 105.0546
1510.667, 105.9828
1512.595, 106.8769
1514.523, 107.0391
1516.452, 106.8306
1518.380, 106.9536
1520.309, 107.5724
1522.237, 107.7789
1524.166, 106.9044
1526.094, 106.3996
1528.023, 107.0103
1529.951, 107.9581
1531.880, 108.2857
1533.808, 107.9280
1535.737, 107.6672
1537.665, 107.4651
1539.594, 107.4116
1541.522, 107.4122
1543.450, 107.6500
1545.379, 108.3322
1547.307, 109.4081
1549.236, 110.5632
1551.164, 112.1177
1553.093, 113.0906
1555.021, 113.2209
1556.950, 112.9238
1558.878, 112.1632
1560.807, 111.2042
1562.735, 110.7308
1564.664, 110.8260
1566.592, 110.8276
1568.521, 110.5239
1570.449, 110.2896
1572.377, 110.4262
1574.306, 110.5949
1576.234, 110.1577
1578.163, 109.2206
1580.091, 109.1121
1582.020, 110.4265
1583.948, 111.3314
1585.877, 110.9833
1587.805, 110.3121
1589.734, 109.8860
1591.662, 109.6869
1593.591, 109.7349
1595.519, 110.0814
1597.448, 110.3055
1599.376, 110.2932
1601.304, 110.1610
1603.233, 109.8002
1605.161, 109.4393
1607.090, 109.5117
1609.018, 109.9948
1610.947, 110.0654
1612.875, 109.4390
1614.804, 108.9153
1616.732, 108.8300
1618.661, 108.8742
1620.589, 108.7545
1622.518, 108.5711
1624.446, 108.7407
1626.375, 109.3597
1628.303, 109.8609
1630.231, 110.1264
1632.160, 110.2949
1634.088, 110.4884
1636.017, 110.5957
1637.945, 110.3511
1639.874, 109.7656
1641.802, 109.6152
1643.731, 110.2522
1645.659, 110.5564
1647.588, 109.8345
1649.516, 109.1078
1651.445, 109.0187
1653.373, 109.3540
1655.302, 109.5492
1657.230, 109.5805
1659.158, 109.6916
1661.087, 110.0604
1663.015, 110.2662
1664.944, 110.0647
1666.872, 109.7510
1668.801, 109.5512
1670.729, 109.4594
1672.658, 109.5073
1674.586, 109.8711
1676.515, 109.8611
1678.443, 108.7641
1680.372, 108.0761
1682.300, 108.7303
1684.229, 109.8310
1686.157, 110.1787
1688.085, 109.7285
1690.014, 109.7101
1691.942, 110.4025
1693.871, 110.8558
1695.799, 110.7620
1697.728, 110.5525
1699.656, 110.3608
1701.585, 110.2218
1703.513, 110.2159
1705.442, 110.3684
1707.370, 110.5184
1709.299, 110.7714
1711.227, 110.8424
1713.156, 110.5352
1715.084, 110.2003
1717.012, 109.9993
1718.941, 109.9165
1720.869, 109.9365
1722.798, 110.0692
1724.726, 110.1830
1726.655, 110.2678
1728.583, 110.3338
1730.512, 110.4727
1732.440, 110.5096
1734.369, 110.2193
1736.297, 109.7836
1738.226, 109.6437
1740.154, 109.8345
1742.083, 110.0146
1744.011, 110.2017
1745.939, 110.2865
1747.868, 110.2077
1749.796, 110.0542
1751.725, 109.8319
1753.653, 109.6003
1755.582, 109.4956
1757.510, 109.5326
1759.439, 109.5659
1761.367, 109.5465
1763.296, 109.5982
1765.224, 109.7895
1767.153, 109.9930
1769.081, 110.2327
1771.010, 110.3831
1772.938, 110.1126
1774.866, 109.4347
1776.795, 109.1052
1778.723, 109.3378
1780.652, 109.4872
1782.580, 109.2714
1784.509, 109.1055
1786.437, 109.4193
1788.366, 109.7873
1790.294, 109.4859
1792.223, 108.6155
1794.151, 108.0798
1796.080, 108.0104
1798.008, 107.9019
1799.937, 107.5209
1801.865, 107.2671
1803.793, 107.4995
1805.722, 107.8354
1807.650, 107.7966
1809.579, 107.5302
1811.507, 107.6548
1813.436, 108.2725
1815.364, 108.6329
1817.293, 108.5525
1819.221, 108.3426
1821.150, 108.0301
1823.078, 107.7337
1825.007, 107.4418
1826.935, 107.2643
1828.864, 107.5469
1830.792, 108.3061
1832.720, 108.7838
1834.649, 108.8296
1836.577, 108.7679
1838.506, 108.4193
1840.434, 108.2628
1842.363, 108.7504
1844.291, 109.4706
1846.220, 109.8564
1848.148, 109.9299
1850.077, 109.9719
1852.005, 110.0012
1853.934, 109.9742
1855.862, 109.8204
1857.791, 109.7246
1859.719, 109.8301
1861.647, 109.9542
1863.576, 109.8294
1865.504, 109.6319
1867.433, 109.8854
1869.361, 110.7099
1871.290, 111.2274
1873.218, 111.0542
1875.147, 111.1736
1877.075, 112.2011
1879.004, 112.8764
1880.932, 112.2603
1882.861, 111.3386
1884.789, 111.3324
1886.718, 112.0492
1888.646, 112.3152
1890.574, 112.0610
1892.503, 111.8246
1894.431, 111.5616
1896.360, 111.5090
1898.288, 111.8382
1900.217, 112.2489
1902.145, 112.6905
1904.074, 113.0353
1906.002, 113.0390
1907.931, 112.7914
1909.859, 112.6983
1911.788, 112.7895
1913.716, 112.9871
1915.645, 113.3504
1917.573, 113.6616
1919.501, 113.8453
1921.430, 113.9392
1923.358, 113.8360
1925.287, 113.7253
1927.215, 114.0131
1929.144, 114.6253
1931.072, 114.8147
1933.001, 114.4161
1934.929, 114.2109
1936.858, 114.5250
1938.786, 114.6640
1940.715, 114.2276
1942.643, 113.8338
1944.572, 114.0042
1946.500, 114.3789
1948.428, 114.3413
1950.357, 113.9461
1952.285, 113.8869
1954.214, 114.3347
1956.142, 114.5338
1958.071, 114.1915
1959.999, 114.0362
1961.928, 114.5216
1963.856, 114.8810
1965.785, 114.5713
1967.713, 114.0697
1969.642, 113.9343
1971.570, 114.0969
1973.499, 114.2697
1975.427, 114.4507
1977.355, 114.8885
1979.284, 115.8245
1981.212, 116.2586
1983.141, 115.5024
1985.069, 114.7940
1986.998, 114.7288
1988.926, 114.9473
1990.855, 115.3019
1992.783, 115.6299
1994.712, 115.4466
1996.640, 114.7330
1998.569, 114.5116
2000.497, 115.1487
2002.426, 115.5160
2004.354, 115.4943
2006.282, 115.3397
2008.211, 114.8566
2010.139, 114.5495
2012.068, 114.8286
2013.996, 115.3851
2015.925, 115.9115
2017.853, 116.3633
2019.782, 116.4367
2021.710, 116.1041
2023.639, 115.8041
2025.567, 115.5097
2027.496, 115.4744
2029.424, 115.8762
2031.353, 116.3116
2033.281, 116.7244
2035.209, 116.9605
2037.138, 116.6652
2039.066, 116.2510
2040.995, 116.5237
2042.923, 117.3390
2044.852, 117.6365
2046.780, 117.2548
2048.709, 117.1508
2050.637, 117.7768
2052.566, 118.0119
2054.494, 117.2721
2056.423, 116.7344
2058.351, 117.0499
2060.280, 117.5585
2062.208, 117.7229
2064.136, 117.7336
2066.065, 117.9335
2067.993, 118.2932
2069.922, 118.6075
2071.850, 118.8785
2073.779, 118.8867
2075.707, 118.4420
2077.636, 118.3225
2079.564, 119.0645
2081.493, 119.5341
2083.421, 118.9228
2085.350, 118.2141
2087.278, 118.1242
2089.207, 118.3818
2091.135, 118.6801
2093.063, 118.9911
2094.992, 119.1493
2096.920, 119.1065
2098.849, 119.1804
2100.777, 119.4454
2102.706, 119.6496
2104.634, 119.7807
2106.563, 119.8479
2108.491, 119.7219
2110.420, 119.7102
2112.348, 120.1651
2114.277, 120.6338
2116.205, 120.6086
2118.134, 120.3095
2120.062, 120.1184
2121.990, 120.0382
2123.919, 120.1256
2125.847, 120.4150
2127.776, 120.5316
2129.704, 120.2490
2131.633, 120.1960
2133.561, 120.8341
2135.490, 121.1803
2137.418, 120.5166
2139.347, 119.9184
2141.275, 120.3285
2143.204, 120.9825
2145.132, 120.8483
2147.061, 120.3022
2148.989, 120.4256
2150.917, 121.1332
2152.846, 121.5915
2154.774, 121.7551
2156.703, 121.6425
2158.631, 121.0800
2160.560, 120.7495
2162.488, 120.8958
2164.417, 121.1296
2166.345, 121.4864
2168.274, 121.6998
2170.202, 121.5452
2172.131, 121.2616
2174.059, 121.0465
2175.988, 120.9331
2177.916, 121.0697
2179.844, 121.4049
2181.773, 121.2588
2183.701, 120.5700
2185.630, 120.3369
2187.558, 120.6941
2189.487, 121.1292
2191.415, 121.6416
2193.344, 121.9762
2195.272, 121.9208
2197.201, 121.8485
2199.129, 121.9613
2201.058, 122.1034
2202.986, 122.1365
2204.915, 122.1509
2206.843, 122.3409
2208.771, 122.6026
2210.700, 122.5491
2212.628, 122.1924
2214.557, 121.9983
2216.485, 121.9489
2218.414, 122.2643
2220.342, 123.0589
2222.271, 123.7192
2224.199, 124.1530
2226.128, 124.3454
2228.056, 124.1301
2229.985, 123.9105
2231.913, 123.9354
2233.842, 123.9859
2235.770, 123.8674
2237.698, 123.7115
2239.627, 123.6445
2241.555, 123.6718
2243.484, 123.8781
2245.412, 124.2066
2247.341, 124.2397
2249.269, 123.9726
2251.198, 123.9340
2253.126, 124.2156
2255.055, 124.4238
2256.983, 124.4596
2258.912, 124.5318
2260.840, 124.7348
2262.769, 124.9136
2264.697, 124.9463
2266.625, 125.0240
2268.554, 125.4444
2270.482, 125.7530
2272.411, 125.2615
2274.339, 124.6353
2276.268, 125.0114
2278.196, 125.9128
2280.125, 126.1707
2282.053, 125.8896
2283.982, 125.6172
2285.910, 125.3602
2287.839, 125.4143
2289.767, 125.9339
2291.696, 126.3838
2293.624, 126.9820
2295.552, 127.0840
2297.481, 126.2077
2299.409, 125.5042
2301.338, 125.1646
2303.266, 125.1888
2305.195, 125.8292
2307.123, 126.5302
2309.052, 127.1050
2310.980, 127.3587
2312.909, 126.7443
2314.837, 125.8731
2316.766, 125.5473
2318.694, 125.9013
2320.623, 127.4015
2322.551, 130.0442
2324.479, 134.4667
2326.408, 141.0100
2328.336, 142.8341
2330.265, 138.9493
2332.193, 135.1812
2334.122, 132.1586
2336.050, 129.8369
2337.979, 128.4971
2339.907, 127.3049
2341.836, 125.8591
2343.764, 124.7826
2345.693, 124.5819
2347.621, 124.4970
2349.550, 124.1077
2351.478, 123.6289
2353.406, 123.2185
2355.335, 122.8269
2357.263, 122.3186
2359.192, 121.8251
2361.120, 121.6461
2363.049, 121.6694
2364.977, 121.4587
2366.906, 121.0471
2368.834, 121.0142
2370.763, 121.4702
2372.691, 121.5607
2374.620, 121.2172
2376.548, 120.9997
2378.477, 121.0055
2380.405, 120.8987
2382.333, 120.4808
2384.262, 120.3687
2386.190, 121.1152
2388.119, 121.5726
2390.047, 121.0401
2391.976, 120.6402
2393.904, 120.9985
2395.833, 121.4469
2397.761, 121.6171
2399.690, 121.6779
2401.618, 121.7229
2403.547, 121.7634
2405.475, 121.8191
2407.404, 121.8678
2409.332, 121.7907
2411.260, 121.7141
2413.189, 122.1161
2415.117, 122.8506
2417.046, 122.9003
2418.974, 122.3018
2420.903, 122.5537
2422.831, 123.6638
2424.760, 124.3637
2426.688, 124.5357
2428.617, 124.5376
2430.545, 124.2035
2432.474, 124.3729
2434.402, 125.7677
2436.331, 126.5888
2438.259, 126.4375
2440.188, 126.1186
2442.116, 125.6401
2444.044, 125.3022
2445.973, 125.2137
2447.901, 125.2759
2449.830, 125.6184
2451.758, 125.8292
2453.687, 125.5648
2455.615, 125.1519
2457.544, 124.7641
2459.472, 124.4267
2461.401, 124.2100
2463.329, 124.0499
2465.258, 123.8937
2467.186, 123.7448
2469.115, 123.5863
2471.043, 123.4444
2472.971, 123.3267
2474.900, 123.2598
2476.828, 123.3353
2478.757, 123.5470
2480.685, 124.0719
2482.614, 124.8807
2484.542, 125.0224
2486.471, 124.4964
2488.399, 124.0509
2490.328, 123.7488
2492.256, 123.4298
2494.185, 122.9847
2496.113, 122.8451
2498.042, 123.1370
2499.970, 123.4969
2501.898, 124.0399
2503.827, 124.2114
2505.755, 123.7495
2507.684, 123.4219
2509.612, 123.4375
2511.541, 123.6450
2513.469, 124.3085
2515.398, 124.7152
2517.326, 124.4274
2519.255, 124.1167
2521.183, 123.9039
2523.112, 123.9297
2525.040, 124.5894
2526.969, 125.0179
2528.897, 124.2711
2530.825, 123.5471
2532.754, 124.1075
2534.682, 124.7709
2536.611, 124.1622
2538.539, 123.3352
2540.468, 123.4578
2542.396, 124.0446
2544.325, 124.6781
2546.253, 125.1909
2548.182, 125.3101
2550.110, 125.1632
2552.039, 124.9140
2553.967, 124.6419
2555.896, 124.4959
2557.824, 124.5022
2559.752, 124.8792
2561.681, 125.4514
2563.609, 125.4491
2565.538, 125.0232
2567.466, 125.1377
2569.395, 125.7253
2571.323, 125.7354
2573.252, 125.1532
2575.180, 124.8999
2577.109, 124.9814
2579.037, 125.0066
2580.966, 124.9600
2582.894, 125.0480
2584.823, 125.3118
2586.751, 125.3889
2588.679, 125.2304
2590.608, 124.9432
2592.536, 124.3861
2594.465, 124.3683
2596.393, 125.0402
2598.322, 125.6457
2600.250, 126.1603
2602.179, 126.2039
2604.107, 125.2723
2606.036, 124.9001
2607.964, 125.6066
2609.893, 126.0893
2611.821, 126.2101
2613.750, 126.2045
2615.678, 126.0744
2617.606, 125.9598
2619.535, 125.8822
2621.463, 125.8491
2623.392, 125.9329
2625.320, 125.9139
2627.249, 125.5956
2629.177, 125.4860
2631.106, 125.8094
2633.034, 126.1096
2634.963, 126.2054
2636.891, 126.3205
2638.820, 126.5720
2640.748, 126.8042
2642.677, 127.0953
2644.605, 127.1196
2646.533, 126.4636
2648.462, 126.1135
2650.390, 126.8922
2652.319, 127.3549
2654.247, 126.3554
2656.176, 125.6887
2658.104, 126.7698
2660.033, 127.4417
2661.961, 126.3470
2663.890, 125.4644
2665.818, 125.9279
2667.747, 126.5029
2669.675, 126.6570
2671.604, 126.5648
2673.532, 125.9626
2675.460, 125.6249
2677.389, 126.3111
2679.317, 126.8351
2681.246, 126.3547
2683.174, 125.9191
2685.103, 126.1344
2687.031, 126.5695
2688.960, 127.1287
2690.888, 127.6386
2692.817, 128.1248
2694.745, 128.3687
2696.674, 128.1596
2698.602, 127.8002
2700.531, 127.1677
2702.459, 126.8146
2704.387, 127.2323
2706.316, 127.7677
2708.244, 128.2188
2710.173, 128.4365
2712.101, 128.2580
2714.030, 127.9834
2715.958, 127.7535
2717.887, 127.5598
2719.815, 127.3279
2721.744, 127.2311
2723.672, 127.3686
2725.601, 127.6241
2727.529, 127.9151
2729.458, 128.3261
2731.386, 129.3338
2733.314, 129.8440
2735.243, 128.8103
2737.171, 127.8923
2739.100, 127.7295
2741.028, 127.9383
2742.957, 128.6919
2744.885, 129.2273
2746.814, 129.0152
2748.742, 128.8200
2750.671, 129.1401
2752.599, 129.2378
2754.528, 128.6397
2756.456, 128.2648
2758.385, 128.4992
2760.313, 128.9575
2762.241, 129.9654
2764.170, 130.3401
2766.098, 129.1331
2768.027, 128.5609
2769.955, 129.5658
2771.884, 130.3024
2773.812, 130.0701
2775.741, 129.7166
2777.669, 129.2223
2779.598, 129.0915
2781.526, 129.6446
2783.455, 129.7882
2785.383, 129.0563
2787.312, 128.7239
2789.240, 129.4816
2791.168, 129.8017
2793.097, 129.3196
2795.025, 129.0866
2796.954, 129.2594
2798.882, 129.2849
2800.811, 129.0121
2802.739, 128.9732
2804.668, 129.3840
2806.596, 129.6548
2808.525, 129.7837
2810.453, 129.7963
2812.382, 129.6874
2814.310, 129.4823
2816.239, 129.1491
2818.167, 128.9927
2820.095, 129.0118
2822.024, 129.3675
2823.952, 130.0122
2825.881, 130.2594
2827.809, 130.1167
2829.738, 129.9877
2831.666, 129.8609
2833.595, 129.6171
2835.523, 129.3152
2837.452, 129.3832
2839.380, 129.6547
2841.309, 129.4955
2843.237, 129.1863
2845.166, 129.5946
2847.094, 130.2744
2849.022, 130.0896
2850.951, 129.5670
2852.879, 129.6272
2854.808, 129.8819
2856.736, 129.7288
2858.665, 129.5677
2860.593, 130.0109
2862.522, 130.5753
2864.450, 130.8871
2866.379, 131.0000
2868.307, 130.8949
2870.236, 130.6854
2872.164, 130.3223
2874.093, 130.0759
2876.021, 130.1568
2877.949, 130.2873
2879.878, 130.4939
2881.806, 130.4744
2883.735, 129.5613
2885.663, 129.3550
2887.592, 130.4444
2889.520, 131.8061
2891.449, 133.6287
2893.377, 134.3182
2895.306, 132.6957
2897.234, 131.5909
2899.163, 131.2734
2901.091, 131.1888
2903.020, 131.3181
2904.948, 131.4335
2906.876, 131.4775
2908.805, 131.7869
2910.733, 132.4212
2912.662, 132.4110
2914.590, 131.8876
2916.519, 132.1111
2918.447, 132.8936
2920.376, 132.9379
2922.304, 132.5269
2924.233, 132.7703
2926.161, 133.2581
2928.090, 132.8829
2930.018, 132.1737
2931.947, 131.7672
2933.875, 131.6726
2935.803, 132.1909
2937.732, 132.6988
2939.660, 132.3176
2941.589, 132.1217
2943.517, 133.4756
2945.446, 134.4266
2947.374, 133.2870
2949.303, 132.3270
2951.231, 132.4929
2953.160, 132.6730
2955.088, 132.2335
2957.017, 132.2442
2958.945, 133.5282
2960.874, 133.9264
2962.802, 133.0336
2964.730, 132.5453
2966.659, 132.7473
2968.587, 132.8927
2970.516, 132.9035
2972.444, 133.0155
2974.373, 133.2170
2976.301, 133.4890
2978.230, 133.7624
2980.158, 133.6486
2982.087, 133.2803
2984.015, 133.0910
2985.944, 132.9320
2987.872, 132.3662
2989.801, 131.7942
2991.729, 131.7695
2993.657, 131.9482
2995.586, 131.9828
2997.514, 132.1023
2999.443, 132.6595
3001.371, 132.9854
3003.300, 132.4468
3005.228, 132.0617
3007.157, 132.2589
3009.085, 132.3860
3011.014, 132.2635
3012.942, 132.2788
3014.871, 132.6423
3016.799, 132.8307
3018.728, 132.8149
3020.656, 132.8177
3022.584, 132.8499
3024.513, 133.0448
3026.441, 133.3521
3028.370, 133.4727
3030.298, 133.4451
3032.227, 133.3891
3034.155, 133.3092
3036.084, 133.2130
3038.012, 133.1029
3039.941, 132.7819
3041.869, 132.7146
3043.798, 133.6394
3045.726, 134.2921
3047.655, 133.4670
3049.583, 133.0002
3051.511, 134.0388
3053.440, 134.5076
3055.368, 133.7998
3057.297, 133.3978
3059.225, 133.8750
3061.154, 133.7550
3063.082, 132.9263
3065.011, 132.8118
3066.939, 133.3805
3068.868, 133.9942
3070.796, 134.5608
3072.725, 134.7101
3074.653, 134.6371
3076.582, 134.8258
3078.510, 135.0196
3080.438, 134.7251
3082.367, 134.5483
3084.295, 135.4004
3086.224, 135.9691
3088.152, 135.3846
3090.081, 134.8312
3092.009, 134.7935
3093.938, 134.7894
3095.866, 134.7592
3097.795, 134.6523
3099.723, 134.4291
3101.652, 134.6033
3103.580, 135.2240
3105.509, 135.3469
3107.437, 135.1164
3109.365, 135.2610
3111.294, 135.5520
3113.222, 135.3293
3115.151, 135.0793
3117.079, 135.6970
3119.008, 136.3400
3120.936, 136.2287
3122.865, 136.1175
3124.793, 136.5246
3126.722, 136.8165
3128.650, 136.8329
3130.579, 136.6984
3132.507, 136.3717
3134.436, 136.1145
3136.364, 135.9360
3138.292, 135.9457
3140.221, 136.1533
3142.149, 136.6736
3144.078, 137.3021
3146.006, 137.4014
3147.935, 137.2142
3149.863, 137.1739
3151.792, 136.9913
3153.720, 136.0102
3155.649, 135.4300
3157.577, 136.1539
3159.506, 136.9692
3161.434, 137.5996
3163.363, 138.0616
3165.291, 138.3864
3167.219, 138.3929
3169.148, 138.0823
3171.076, 137.7729
3173.005, 137.5255
3174.933, 137.6450
3176.862, 137.9433
3178.790, 137.8264
3180.719, 137.6872
3182.647, 138.0284
3184.576, 138.4731
3186.504, 138.8934
3188.433, 139.0497
3190.361, 138.8229
3192.290, 138.4721
3194.218, 137.9739
3196.146, 137.5531
3198.075, 137.1926
3200.003, 137.5384
3201.932, 138.4935
3203.860, 138.7175
3205.789, 138.5770
3207.717, 139.5083
3209.646, 140.4054
3211.574, 139.4982
3213.503, 138.5037
3215.431, 138.9900
3217.360, 139.3891
3219.288, 139.0235
3221.217, 138.7574
3223.145, 138.9250
3225.073, 138.9641
3227.002, 138.8716
3228.930, 138.9954
3230.859, 139.2772
3232.787, 139.0925
3234.716, 138.7528
3236.644, 139.0479
3238.573, 139.4972
3240.501, 139.6622
3242.430, 139.6780
3244.358, 139.4509
3246.287, 139.4196
3248.215, 139.8113
3250.144, 139.9641
3252.072, 139.6492
3254.000, 139.5461
3255.929, 139.6108
3257.857, 139.1871
3259.786, 138.5593
3261.714, 138.5996
3263.643, 138.8832
3265.571, 138.7098
3267.500, 138.6992
3269.428, 139.5972
3271.357, 140.1223
3273.285, 139.3560
3275.214, 140.1082
3277.142, 143.4137
3279.071, 144.0654
3280.999, 141.8506
3282.927, 140.1743
3284.856, 139.0807
3286.784, 138.7024
3288.713, 138.8032
3290.641, 139.3875
3292.570, 139.8750
3294.498, 139.9352
3296.427, 139.7898
3298.355, 139.1585
3300.284, 139.2671
3302.212, 140.2940
3304.141, 140.1912
3306.069, 139.0280
3307.998, 139.3428
3309.926, 140.3659
3311.854, 140.1299
3313.783, 139.6044
3315.711, 139.7765
3317.640, 140.0308
3319.568, 140.0304
3321.497, 140.2145
3323.425, 140.9281
3325.354, 140.9961
3327.282, 140.3264
3329.211, 140.5292
3331.139, 141.3077
3333.068, 141.4791
3334.996, 141.2824
3336.925, 141.0798
3338.853, 140.6999
3340.781, 139.6499
3342.710, 139.1005
3344.638, 139.5626
3346.567, 140.0702
3348.495, 140.5173
3350.424, 140.7342
3352.352, 140.7436
3354.281, 140.6237
3356.209, 140.5503
3358.138, 140.9759
3360.066, 141.3556
3361.995, 141.1757
3363.923, 140.8539
3365.852, 140.4638
3367.780, 140.1903
3369.708, 140.0785
3371.637, 140.0408
3373.565, 140.1045
3375.494, 140.4566
3377.422, 140.9185
3379.351, 141.1169
3381.279, 141.2564
3383.208, 141.6203
3385.136, 141.7253
3387.065, 141.0596
3388.993, 140.9489
3390.922, 141.5649
3392.850, 142.3544
3394.779, 143.1230
3396.707, 142.3642
3398.635, 141.2169
3400.564, 141.6464
3402.492, 142.2997
3404.421, 142.1741
3406.349, 141.8532
3408.278, 141.3836
3410.206, 141.2352
3412.135, 141.5178
3414.063, 141.3933
3415.992, 141.0904
3417.920, 141.4519
3419.849, 142.0839
3421.777, 142.7247
3423.706, 142.9764
3425.634, 142.2670
3427.563, 141.9291
3429.491, 142.3269
3431.419, 142.6508
3433.348, 142.8313
3435.276, 142.6472
3437.205, 142.3166
3439.133, 142.3138
3441.062, 142.5115
3442.990, 143.0405
3444.919, 143.2997
3446.847, 143.0645
3448.776, 142.6555
3450.704, 142.0828
3452.633, 141.9300
3454.561, 142.1721
3456.490, 143.1848
3458.418, 143.9110
3460.346, 142.3585
3462.275, 141.3521
3464.203, 142.5982
3466.132, 143.2354
3468.060, 142.1529
3469.989, 141.9941
3471.917, 142.5662
3473.846, 142.9135
3475.774, 142.8804
3477.703, 141.7439
3479.631, 140.8716
3481.560, 141.1685
3483.488, 141.7051
3485.417, 142.4152
3487.345, 142.4068
3489.273, 141.9640
3491.202, 144.2655
3493.130, 147.1476
3495.059, 145.7158
3496.987, 143.3915
3498.916, 141.9973
3500.844, 141.6871
3502.773, 142.7549
3504.701, 143.2435
3506.630, 143.0200
3508.558, 143.0538
3510.487, 143.1854
3512.415, 143.0777
3514.344, 142.8872
3516.272, 142.5216
3518.200, 142.6226
3520.129, 143.4777
3522.057, 143.7184
3523.986, 143.2625
3525.914, 143.1576
3527.843, 143.1564
3529.771, 142.4739
3531.700, 142.2130
3533.628, 143.8314
3535.557, 144.6971
3537.485, 144.0438
3539.414, 143.5957
3541.342, 143.4544
3543.271, 143.3581
3545.199, 143.4643
3547.127, 144.2940
3549.056, 144.9223
3550.984, 144.6977
3552.913, 144.5986
3554.841, 144.9256
3556.770, 145.1162
3558.698, 145.2026
3560.627, 145.3859
3562.555, 145.5407
3564.484, 145.5421
3566.412, 145.3890
3568.341, 144.9019
3570.269, 144.7744
3572.198, 145.0675
3574.126, 146.0394
3576.054, 147.1404
3577.983, 146.6519
3579.911, 145.8060
3581.840, 145.6201
3583.768, 145.4730
3585.697, 145.1310
3587.625, 144.7942
3589.554, 144.5446
3591.482, 145.1039
3593.411, 145.8407
3595.339, 145.5843
3597.268, 145.0690
3599.196, 144.3066
3601.125, 144.4233
3603.053, 145.5890
3604.981, 145.5114
3606.910, 144.6012
3608.838, 144.7438
3610.767, 144.8928
3612.695, 143.6344
3614.624, 143.0941
3616.552, 144.1491
3618.481, 144.7273
3620.409, 144.6483
3622.338, 143.9507
3624.266, 143.2819
3626.195, 143.7789
3628.123, 144.5325
3630.052, 145.3012
3631.980, 145.5804
3633.908, 145.3019
3635.837, 144.7074
3637.765, 144.0557
3639.694, 144.1589
3641.622, 144.3799
3643.551, 144.0665
3645.479, 144.3510
3647.408, 145.6018
3649.336, 145.2177
3651.265, 143.7669
3653.193, 144.7884
3655.122, 146.3120
3657.050, 146.3029
3658.979, 145.9698
3660.907, 145.5468
3662.835, 145.8834
3664.764, 146.8776
3666.692, 146.7636
3668.621, 146.0728
3670.549, 145.2128
3672.478, 144.7891
3674.406, 145.1893
3676.335, 145.4982
3678.263, 145.6068
3680.192, 145.5673
3682.120, 145.5341
3684.049, 145.7399
3685.977, 146.1165
3687.906, 146.8432
3689.834, 146.8916
3691.762, 146.0905
3693.691, 146.4636
3695.619, 147.4028
3697.548, 147.8863
3699.476, 147.7348
3701.405, 146.2036
3703.333, 145.5624
3705.262, 146.1442
3707.190, 146.1486
3709.119, 145.8921
3711.047, 146.3376
3712.976, 146.8014
3714.904, 146.7298
3716.833, 146.7451
3718.761, 146.9204
3720.689, 147.1587
3722.618, 147.3511
3724.546, 147.1201
3726.475, 146.9330
3728.403, 147.3118
3730.332, 147.2982
3732.260, 146.7774
3734.189, 146.7636
3736.117, 147.1650
3738.046, 147.9886
3739.974, 148.5996
3741.903, 148.5059
3743.831, 148.1323
3745.760, 147.5640
3747.688, 147.8298
3749.616, 148.4703
3751.545, 148.5108
3753.473, 148.3920
3755.402, 148.0832
3757.330, 148.4922
3759.259, 149.5970
3761.187, 149.9081
3763.116, 149.7878
3765.044, 149.7682
3766.973, 149.8651
3768.901, 150.3170
3770.830, 150.1665
3772.758, 149.5091
3774.687, 149.4642
3776.615, 149.8276
3778.543, 150.7309
3780.472, 150.9427
3782.400, 149.5147
3784.329, 148.9964
3786.257, 149.3128
3788.186, 149.6210
3790.114, 149.9081
3792.043, 150.1850
3793.971, 150.4102
3795.900, 150.5901
3797.828, 150.4953
3799.757, 150.1942
3801.685, 149.7248
3803.614, 149.5502
3805.542, 150.0291
3807.470, 150.6916
3809.399, 151.5171
3811.327, 150.0341
3813.256, 147.8950
3815.184, 147.9521
3817.113, 148.5789
3819.041, 149.1951
3820.970, 149.6696
3822.898, 149.9963
3824.827, 150.0938
3826.755, 150.2050
3828.684, 150.8707
3830.612, 150.9671
3832.541, 150.0799
3834.469, 149.9239
3836.397, 150.2611
3838.326, 150.3180
3840.254, 150.1762
3842.183, 149.7315
3844.111, 149.5415
3846.040, 149.7047
3847.968, 150.8582
3849.897, 151.9915
3851.825, 151.4223
3853.754, 151.1372
3855.682, 151.8665
3857.611, 151.9479
3859.539, 151.4921
3861.468, 151.2843
3863.396, 151.2246
3865.324, 151.2826
3867.253, 151.3495
3869.181, 151.4152
3871.110, 151.5726
3873.038, 151.7888
3874.967, 152.0302
3876.895, 152.2647
3878.824, 152.5464
3880.752, 152.5058
3882.681, 152.2778
3884.609, 152.4744
3886.538, 152.6030
3888.466, 152.2339
3890.395, 152.1081
3892.323, 152.3351
3894.251, 152.1869
3896.180, 152.0529
3898.108, 152.6536
3900.037, 153.1532
3901.965, 153.3217
3903.894, 152.9161
3905.822, 152.2685
3907.751, 152.4324
3909.679, 152.6897
3911.608, 152.5688
3913.536, 152.6707
3915.465, 153.0285
3917.393, 153.2410
3919.322, 153.4197
3921.250, 153.6726
3923.178, 154.0083
3925.107, 154.4290
3927.035, 154.5246
3928.964, 154.4335
3930.892, 154.3532
3932.821, 154.3288
3934.749, 154.3885
3936.678, 154.3934
3938.606, 154.3986
3940.535, 154.9066
3942.463, 154.9663
3944.392, 153.7101
3946.320, 153.0490
3948.249, 153.1624
3950.177, 154.1297
3952.105, 155.1523
3954.034, 155.4685
3955.962, 155.3175
3957.891, 154.6349
3959.819, 154.8509
3961.748, 155.6604
3963.676, 157.2781
3965.605, 157.5110
3967.533, 155.6449
3969.462, 155.2867
3971.390, 155.9923
3973.319, 156.4043
3975.247, 156.6374
3977.176, 156.7788
3979.104, 156.2975
3981.032, 155.5021
3982.961, 155.9650
3984.889, 156.5314
3986.818, 156.3802
3988.746, 156.2116
3990.675, 156.1627
3992.603, 156.6988
3994.532, 157.2767
3996.460, 157.3237
3998.389, 157.6464
4000.317, 158.3824
4002.246, 157.2931
4004.174, 155.9290
4006.103, 156.4938
4008.031, 156.6190
4009.959, 155.8306
4011.888, 156.4040
4013.816, 157.5278
4015.745, 157.9827
4017.673, 158.1120
4019.602, 157.9823
4021.530, 158.1387
4023.459, 158.3233
4025.387, 157.8662
4027.316, 157.4752
4029.244, 157.5047
4031.173, 157.4901
4033.101, 157.3983
4035.030, 156.9443
4036.958, 156.8107
4038.886, 157.3385
4040.815, 157.4490
4042.743, 157.3764
4044.672, 158.2899
4046.600, 158.8594
4048.529, 158.3813
4050.457, 158.4921
4052.386, 158.9881
4054.314, 158.4298
4056.243, 158.0661
4058.171, 158.9906
4060.100, 158.8218
4062.028, 157.9377
4063.957, 158.1406
4065.885, 158.5489
4067.813, 158.7295
4069.742, 158.6658
4071.670, 158.4707
4073.599, 158.5979
4075.527, 158.5557
4077.456, 157.9188
4079.384, 158.3239
4081.313, 159.4771
4083.241, 159.7257
4085.170, 159.5666
4087.098, 159.0321
4089.027, 159.0138
4090.955, 159.5264
4092.884, 160.8803
4094.812, 161.6905
4096.740, 160.4563
4098.669, 160.8631
4100.598, 162.1271
4102.526, 161.2495
4104.454, 160.3552
4106.383, 160.5327
4108.312, 160.3708
4110.240, 160.0551
4112.168, 160.5318
4114.097, 161.0278
4116.025, 161.2482
4117.954, 160.9062
4119.882, 160.4981
4121.811, 161.5214
4123.739, 162.4604
4125.667, 162.7185
4127.596, 162.4986
4129.524, 162.1157
4131.453, 161.9375
4133.381, 162.4880
4135.310, 164.2536
4137.238, 164.3490
4139.167, 163.8532
4141.095, 164.7551
4143.023, 164.7769
4144.952, 163.5025
4146.881, 164.2959
4148.809, 165.4469
4150.737, 164.4290
4152.666, 164.1358
4154.595, 164.8984
4156.523, 165.5986
4158.451, 166.1087
4160.380, 166.3199
4162.309, 166.4438
4164.237, 166.5408
4166.165, 166.8165
4168.094, 166.9374
4170.022, 166.5727
4171.951, 166.4694
4173.879, 166.7155
4175.808, 167.7032
4177.736, 168.4499
4179.665, 168.3429
4181.593, 168.3206
4183.521, 168.2312
4185.450, 167.2143
4187.378, 167.0157
4189.307, 168.5248
4191.235, 168.9003
4193.164, 168.8491
4195.092, 169.5388
4197.021, 169.8499
4198.949, 169.6210
4200.878, 169.4683
4202.806, 169.5008
4204.734, 170.0054
4206.663, 169.7775
4208.592, 169.1535
4210.520, 170.7399
4212.448, 171.6133
4214.377, 169.8704
4216.306, 170.2087
4218.234, 171.8282
4220.162, 171.8947
4222.091, 171.8529
4224.020, 172.1599
4225.948, 172.3238
4227.876, 172.3646
4229.805, 172.3380
4231.733, 172.1749
4233.662, 171.9494
4235.590, 172.5711
4237.519, 173.3513
##END=



