##NAMES=Almandine
##RRUFFID=R120152
##IDEAL CHEMISTRY=Fe^2+^_3_Al_2_(SiO_4_)_3_
##LOCALITY=The garnet schist, Roxbury, Litchfield County, Connecticut, USA
##OWNER=RRUFF
##SOURCE=Eric Van Valkenburg
##DESCRIPTION=Dark brown dodecahedra
##STATUS=The identification of this mineral has been confirmed only by single crystal X-ray diffraction
##URL=https://www.rruff.net/odr/rruff_sample/R120152
##DIFFRACTION SAMPLE DESCRIPTION=Single crystal, powder profile is calculated
##CELL PARAMETERS=a: 11.567 b: 11.567 c: 11.567 alpha: 90 beta: 90 gamma: 90 volume: 1547.8 crystal system: cubic
##FILETYPE=Raman Processed
##RAMAN WAVELENGTH=780

126.4802, 114.6236
128.4087, 113.7460
130.3372, 112.2675
132.2656, 111.3116
134.1941, 111.2394
136.1226, 111.3611
138.0510, 111.3764
139.9795, 111.6508
141.9080, 112.4115
143.8364, 113.6559
145.7649, 115.6327
147.6934, 117.7023
149.6218, 121.4501
151.5503, 127.3817
153.4788, 134.9751
155.4072, 143.3079
157.3357, 152.5566
159.2642, 164.7491
161.1926, 184.9150
163.1211, 200.8185
165.0496, 214.1509
166.9780, 220.3307
168.9065, 215.7511
170.8350, 202.2166
172.7634, 185.0441
174.6919, 159.6833
176.6204, 138.9907
178.5488, 123.7769
180.4773, 112.4042
182.4058, 104.6880
184.3342, 99.90762
186.2627, 97.35155
188.1912, 97.55989
190.1196, 98.38075
192.0481, 99.86846
193.9766, 101.8348
195.9050, 104.0570
197.8335, 106.8677
199.7620, 110.5051
201.6904, 114.9892
203.6189, 121.0691
205.5474, 129.3925
207.4758, 137.2124
209.4043, 144.3792
211.3328, 150.0662
213.2612, 154.0306
215.1897, 156.1590
217.1182, 155.7275
219.0466, 152.6245
220.9751, 148.2546
222.9036, 142.0184
224.8320, 135.8324
226.7605, 130.4583
228.6890, 125.6339
230.6174, 120.9061
232.5459, 116.3138
234.4744, 112.5953
236.4028, 109.9469
238.3313, 107.6914
240.2598, 105.6794
242.1882, 103.9215
244.1167, 102.4509
246.0452, 101.2584
247.9736, 100.3647
249.9021, 99.78331
251.8306, 99.04462
253.7590, 97.86453
255.6875, 96.80672
257.6160, 96.04372
259.5444, 95.50835
261.4729, 95.19494
263.4014, 95.06462
265.3298, 94.92452
267.2583, 94.76746
269.1868, 94.61879
271.1152, 94.26956
273.0437, 94.18584
274.9722, 94.71927
276.9006, 95.61835
278.8291, 96.35873
280.7576, 96.97932
282.6860, 98.08769
284.6145, 100.0727
286.5430, 101.9688
288.4714, 103.1957
290.3999, 104.6464
292.3284, 107.1417
294.2568, 109.3963
296.1853, 113.0567
298.1138, 115.3827
300.0422, 118.6060
301.9707, 122.3854
303.8992, 127.8423
305.8276, 135.6598
307.7561, 144.8747
309.6846, 155.2164
311.6130, 166.2484
313.5415, 176.9301
315.4700, 186.8823
317.3984, 197.8914
319.3269, 209.2249
321.2554, 222.6684
323.1838, 238.8804
325.1123, 256.3584
327.0408, 276.8221
328.9692, 298.0322
330.8977, 322.3948
332.8262, 348.4214
334.7546, 382.3803
336.6831, 426.4709
338.6116, 474.8238
340.5400, 539.0031
342.4685, 593.9113
344.3970, 626.6155
346.3254, 636.0866
348.2539, 615.7376
350.1824, 555.2658
352.1108, 494.8516
354.0393, 428.1852
355.9678, 373.0538
357.8962, 334.6043
359.8247, 310.3710
361.7532, 300.9208
363.6816, 302.4281
365.6101, 307.3131
367.5386, 317.0976
369.4670, 320.9665
371.3955, 319.6954
373.3240, 310.8591
375.2524, 291.2030
377.1809, 266.9068
379.1094, 239.4085
381.0378, 211.0626
382.9663, 185.0812
384.8948, 161.5915
386.8232, 141.7217
388.7517, 125.4779
390.6802, 112.3757
392.6086, 103.1279
394.5371, 95.73328
396.4656, 89.50559
398.3940, 84.31521
400.3225, 80.27344
402.2510, 77.20592
404.1794, 74.28448
406.1079, 71.47422
408.0364, 69.35738
409.9648, 68.20880
411.8933, 67.24834
413.8218, 66.24610
415.7502, 65.30785
417.6787, 64.54797
419.6072, 63.86748
421.5356, 63.02775
423.4641, 62.08605
425.3926, 61.40011
427.3210, 61.01145
429.2495, 60.74997
431.1780, 60.79652
433.1064, 60.64329
435.0349, 59.88505
436.9634, 59.10683
438.8918, 58.84094
440.8203, 58.92800
442.7488, 58.95243
444.6772, 58.93815
446.6057, 59.21173
448.5342, 59.87108
450.4626, 60.64429
452.3911, 61.45478
454.3196, 62.39132
456.2480, 63.39766
458.1765, 64.62306
460.1050, 66.37675
462.0334, 68.42166
463.9619, 70.03246
465.8904, 71.16988
467.8188, 73.50414
469.7473, 78.01240
471.6758, 82.16434
473.6042, 86.13837
475.5327, 89.13575
477.4612, 90.53355
479.3896, 91.04112
481.3181, 90.36461
483.2466, 89.62615
485.1750, 90.80733
487.1035, 93.80434
489.0320, 100.6437
490.9604, 112.3823
492.8889, 126.6647
494.8174, 148.6268
496.7458, 166.0526
498.6743, 176.6555
500.6028, 178.9626
502.5313, 169.6848
504.4597, 152.9799
506.3882, 134.2961
508.3167, 113.6996
510.2451, 97.61829
512.1736, 86.92733
514.1021, 79.08008
516.0305, 74.83016
517.9590, 71.86668
519.8875, 69.80872
521.8159, 68.48488
523.7444, 67.88748
525.6729, 67.86254
527.6013, 68.15446
529.5298, 68.89050
531.4583, 70.57462
533.3867, 73.26595
535.3152, 76.64035
537.2437, 80.41757
539.1721, 85.86915
541.1006, 92.98012
543.0291, 102.3397
544.9575, 114.8174
546.8860, 129.0992
548.8145, 146.8664
550.7429, 164.3946
552.6714, 177.7032
554.5999, 186.0993
556.5283, 184.5981
558.4568, 173.4743
560.3853, 158.1545
562.3137, 137.6946
564.2422, 119.0724
566.1707, 103.3016
568.0991, 91.08420
570.0276, 82.97335
571.9561, 77.73709
573.8845, 75.27543
575.8130, 74.71495
577.7415, 75.50296
579.6699, 77.08876
581.5984, 77.50575
583.5269, 76.79328
585.4553, 75.27043
587.3838, 72.69199
589.3123, 70.74001
591.2407, 70.21980
593.1692, 69.58523
595.0977, 68.75397
597.0261, 67.33904
598.9546, 64.88185
600.8831, 61.95721
602.8115, 58.90539
604.7400, 55.96454
606.6685, 53.37217
608.5969, 51.25477
610.5254, 50.35661
612.4539, 50.81110
614.3823, 51.60875
616.3108, 52.34646
618.2393, 54.06077
620.1677, 57.04318
622.0962, 60.71845
624.0247, 65.66312
625.9531, 70.36639
627.8816, 74.58235
629.8101, 77.40303
631.7385, 77.84826
633.6670, 76.22474
635.5955, 72.59854
637.5239, 67.16120
639.4524, 62.18242
641.3809, 57.66230
643.3093, 53.86086
645.2378, 50.79702
647.1663, 48.42249
649.0947, 47.07377
651.0232, 45.88812
652.9517, 44.64920
654.8801, 43.46335
656.8086, 42.31254
658.7371, 41.32815
660.6655, 40.58595
662.5940, 40.09486
664.5225, 39.95796
666.4509, 40.10129
668.3794, 40.14507
670.3079, 40.09577
672.2363, 39.85985
674.1648, 39.33419
676.0933, 39.06334
678.0217, 39.20064
679.9502, 39.22158
681.8787, 38.94006
683.8071, 38.65694
685.7356, 38.43148
687.6641, 38.33773
689.5925, 38.58077
691.5210, 38.79853
693.4495, 38.58129
695.3779, 38.16669
697.3064, 37.88335
699.2349, 37.75679
701.1633, 38.00724
703.0918, 37.91230
705.0203, 37.96956
706.9487, 38.24360
708.8772, 38.13967
710.8057, 38.56551
712.7341, 38.91682
714.6626, 39.03773
716.5911, 39.14898
718.5195, 39.35150
720.4480, 39.51144
722.3765, 39.52065
724.3049, 39.54078
726.2334, 39.70185
728.1619, 39.89938
730.0903, 40.02349
732.0188, 40.11046
733.9473, 40.23160
735.8757, 40.36573
737.8042, 40.48824
739.7327, 40.57239
741.6611, 40.43671
743.5896, 40.07515
745.5181, 39.73770
747.4465, 39.41164
749.3750, 39.31771
751.3035, 39.63582
753.2319, 39.85695
755.1604, 39.79001
757.0889, 39.78960
759.0173, 40.10541
760.9458, 40.27864
762.8743, 40.05143
764.8027, 39.67252
766.7312, 39.12954
768.6597, 38.69889
770.5881, 38.79718
772.5166, 39.07981
774.4451, 39.04668
776.3735, 38.85369
778.3020, 38.87828
780.2305, 39.06483
782.1589, 39.10815
784.0874, 39.00042
786.0159, 38.77923
787.9443, 38.33462
789.8728, 38.20673
791.8013, 38.63190
793.7297, 38.91854
795.6582, 38.96492
797.5867, 39.08110
799.5151, 39.25105
801.4436, 39.61190
803.3721, 40.35163
805.3005, 41.01133
807.2290, 41.37132
809.1575, 41.62925
811.0859, 41.78805
813.0144, 42.02468
814.9429, 42.48772
816.8713, 43.06134
818.7998, 43.73176
820.7283, 44.36933
822.6567, 44.59321
824.5852, 45.47818
826.5137, 46.25970
828.4421, 47.08402
830.3706, 48.31826
832.2991, 49.37876
834.2275, 50.71817
836.1560, 52.34377
838.0845, 54.19951
840.0129, 56.25439
841.9414, 59.17781
843.8699, 63.01603
845.7983, 67.68209
847.7268, 73.12420
849.6553, 79.74916
851.5837, 87.90589
853.5122, 96.34087
855.4407, 105.3329
857.3691, 113.1132
859.2976, 119.9572
861.2261, 124.0438
863.1545, 124.1554
865.0830, 122.3814
867.0115, 118.1968
868.9399, 114.1955
870.8684, 111.1386
872.7969, 109.6713
874.7253, 110.1170
876.6538, 112.5498
878.5823, 116.5015
880.5107, 122.9932
882.4392, 133.2164
884.3677, 146.7671
886.2961, 162.5769
888.2246, 181.5703
890.1531, 204.9507
892.0815, 233.1068
894.0100, 264.7143
895.9385, 302.5172
897.8669, 352.6657
899.7954, 416.4337
901.7239, 499.2364
903.6523, 600.7309
905.5808, 721.7648
907.5093, 862.1279
909.4377, 989.5686
911.3662, 1107.262
913.2947, 1168.653
915.2231, 1171.349
917.1516, 1118.055
919.0801, 991.6037
921.0085, 856.6243
922.9370, 699.8655
924.8655, 563.7271
926.7939, 447.8466
928.7224, 354.0102
930.6509, 286.3048
932.5793, 232.8270
934.5078, 195.2272
936.4363, 165.1239
938.3647, 142.2622
940.2932, 123.9018
942.2217, 110.0856
944.1501, 99.01394
946.0786, 90.60543
948.0071, 83.83921
949.9355, 78.58373
951.8640, 74.46166
953.7925, 71.71197
955.7209, 69.29976
957.6494, 66.66026
959.5779, 64.39012
961.5063, 62.86162
963.4348, 61.68483
965.3633, 60.77175
967.2917, 59.98442
969.2202, 59.33685
971.1487, 58.66620
973.0771, 57.87832
975.0056, 57.01964
976.9341, 55.93019
978.8625, 55.01571
980.7910, 54.71489
982.7195, 54.57074
984.6479, 54.22692
986.5764, 53.83335
988.5049, 53.40337
990.4333, 53.12709
992.3618, 53.34878
994.2903, 53.65196
996.2188, 53.32686
998.1472, 53.12961
1000.076, 54.13380
1002.004, 55.50907
1003.933, 56.19182
1005.861, 56.77081
1007.790, 57.84126
1009.718, 59.34795
1011.646, 61.15999
1013.575, 63.41755
1015.503, 66.28061
1017.432, 69.72183
1019.360, 73.51904
1021.289, 78.03980
1023.217, 83.61925
1025.146, 90.36280
1027.074, 99.19791
1029.003, 108.5940
1030.931, 117.1753
1032.860, 124.4512
1034.788, 130.5753
1036.717, 134.2831
1038.645, 134.0131
1040.573, 130.1680
1042.502, 122.0510
1044.430, 111.7678
1046.359, 101.1514
1048.287, 90.70386
1050.216, 80.45258
1052.144, 71.32094
1054.073, 64.60629
1056.001, 59.53255
1057.930, 55.51601
1059.858, 52.26210
1061.787, 49.55639
1063.715, 47.27579
1065.644, 45.12425
1067.572, 43.46441
1069.500, 42.97823
1071.429, 42.88717
1073.357, 42.53866
1075.286, 42.01104
1077.214, 41.27825
1079.143, 40.52758
1081.071, 39.83496
1083.000, 39.32322
1084.928, 39.33006
1086.857, 39.28226
1088.785, 38.53552
1090.714, 37.78445
1092.642, 37.59996
1094.571, 37.52155
1096.499, 37.22693
1098.427, 36.94342
1100.356, 36.77832
1102.284, 36.71102
1104.213, 36.73004
1106.141, 36.84379
1108.070, 37.21455
1109.998, 37.44441
1111.927, 37.31356
1113.855, 37.07872
1115.784, 36.72703
1117.712, 36.47165
1119.641, 36.51387
1121.569, 36.42140
1123.498, 35.88517
1125.426, 35.57648
1127.354, 35.81650
1129.283, 35.94370
1131.211, 35.70639
1133.140, 35.63470
1135.068, 35.90598
1136.997, 36.09968
1138.925, 36.10933
1140.854, 36.18169
1142.782, 36.32426
1144.711, 36.67363
1146.639, 37.34126
1148.568, 37.56502
1150.496, 38.04847
1152.425, 38.73603
1154.353, 38.95225
1156.281, 40.03790
1158.210, 40.76120
1160.138, 41.22826
1162.067, 41.45112
1163.995, 41.56779
1165.924, 41.57945
1167.852, 41.41706
1169.781, 41.15205
1171.709, 41.05257
1173.638, 41.13745
1175.566, 41.63844
1177.495, 41.55257
1179.423, 42.15943
1181.352, 41.80644
1183.280, 41.83736
1185.208, 42.03899
1187.137, 42.24337
1189.065, 42.36517
1190.994, 42.22796
1192.922, 42.09294
1194.851, 42.23964
1196.779, 42.31660
1198.708, 42.01412
1200.636, 41.77277
1202.565, 41.88191
1204.493, 41.94089
1206.422, 41.77033
1208.350, 41.55011
1210.279, 41.22869
1212.207, 41.26907
1214.135, 41.89142
1216.064, 42.36271
1217.992, 42.56205
1219.921, 42.46044
1221.849, 42.02137
1223.778, 41.92915
1225.706, 42.24023
1227.635, 42.70831
1229.563, 43.28128
1231.492, 43.43034
1233.420, 43.86878
1235.349, 43.64732
1237.277, 44.27340
1239.206, 44.25326
1241.134, 44.01216
1243.063, 44.47355
1244.991, 45.17115
1246.919, 45.43756
1248.848, 45.61158
1250.776, 46.17249
1252.705, 46.60476
1254.633, 46.26080
1256.562, 46.06865
1258.490, 46.72876
1260.419, 47.30550
1262.347, 47.36926
1264.276, 47.47844
1266.204, 47.78247
1268.133, 48.07232
1270.061, 48.37013
1271.990, 48.46880
1273.918, 48.28804
1275.846, 48.48154
1277.775, 48.44357
1279.703, 48.57856
1281.632, 48.71571
1283.560, 48.95779
1285.489, 49.58581
1287.417, 49.91256
1289.346, 49.97323
1291.274, 49.70313
1293.203, 49.35437
1295.131, 49.10317
1297.060, 49.02146
1298.988, 49.14907
1300.917, 49.50066
1302.845, 50.33091
1304.773, 50.82990
1306.702, 50.57352
1308.630, 50.29757
1310.559, 50.10070
1312.487, 50.21412
1314.416, 50.74336
1316.344, 51.13985
1318.273, 51.35957
1320.201, 51.84274
1322.130, 52.53294
1324.058, 53.05307
1325.987, 53.38842
1327.915, 53.34717
1329.844, 53.76351
1331.772, 53.65982
1333.700, 54.16561
1335.629, 54.23852
1337.557, 54.32127
1339.486, 54.76261
1341.414, 55.14931
1343.343, 55.34276
1345.271, 55.46046
1347.200, 55.48072
1349.128, 55.71554
1351.057, 56.21664
1352.985, 56.75549
1354.914, 57.29041
1356.842, 57.66456
1358.771, 57.83864
1360.699, 57.43995
1362.627, 57.97425
1364.556, 57.61471
1366.484, 58.58835
1368.413, 59.08841
1370.341, 59.43686
1372.270, 59.85439
1374.198, 60.21225
1376.127, 60.40839
1378.055, 60.62745
1379.984, 60.96484
1381.912, 61.11725
1383.841, 61.01092
1385.769, 61.14824
1387.698, 61.54331
1389.626, 62.27892
1391.554, 63.12140
1393.483, 63.26387
1395.411, 63.08280
1397.340, 63.08384
1399.268, 63.13490
1401.197, 63.03439
1403.125, 63.09751
1405.054, 63.62276
1406.982, 64.05714
1408.911, 64.19010
1410.839, 64.38393
1412.768, 64.78238
1414.696, 64.72932
1416.625, 64.24313
1418.553, 64.58643
1420.481, 65.37126
1422.410, 65.04049
1424.338, 65.60947
1426.267, 65.19630
1428.195, 65.98246
1430.124, 65.83876
1432.052, 65.60635
1433.981, 65.65689
1435.909, 65.51787
1437.838, 65.65492
1439.766, 65.72823
1441.695, 65.85484
1443.623, 66.08813
1445.552, 65.88383
1447.480, 66.20930
1449.408, 66.05131
1451.337, 66.36395
1453.265, 65.89599
1455.194, 65.81153
1457.122, 65.83922
1459.051, 65.87598
1460.979, 65.92824
1462.908, 65.98630
1464.836, 66.21605
1466.765, 66.10653
1468.693, 66.51329
1470.622, 66.02950
1472.550, 65.87271
1474.479, 65.94087
1476.407, 66.18529
1478.335, 66.36100
1480.264, 66.23070
1482.192, 65.96889
1484.121, 65.43161
1486.049, 65.25850
1487.978, 65.65314
1489.906, 65.95801
1491.835, 66.13016
1493.763, 65.90026
1495.692, 65.43237
1497.620, 65.21166
1499.549, 65.12001
1501.477, 65.15793
1503.406, 65.02377
1505.334, 64.40646
1507.262, 63.79115
1509.191, 63.20136
1511.119, 62.99330
1513.048, 63.27799
1514.976, 63.30462
1516.905, 63.08556
1518.833, 62.47549
1520.762, 61.86328
1522.690, 62.11998
1524.619, 62.32948
1526.547, 61.84572
1528.476, 61.22309
1530.404, 60.52896
1532.333, 60.32109
1534.261, 60.76649
1536.189, 60.82346
1538.118, 60.55079
1540.046, 60.33382
1541.975, 60.09843
1543.903, 59.63488
1545.832, 59.22004
1547.760, 59.01942
1549.689, 58.97552
1551.617, 59.10674
1553.546, 59.23054
1555.474, 59.30903
1557.403, 58.84848
1559.331, 58.07600
1561.260, 57.85362
1563.188, 57.81412
1565.116, 57.39357
1567.045, 57.07458
1568.973, 57.15435
1570.902, 57.45681
1572.830, 57.13351
1574.759, 56.93623
1576.687, 56.79141
1578.616, 56.20134
1580.544, 55.94213
1582.473, 55.80378
1584.401, 55.69341
1586.330, 55.57088
1588.258, 55.38046
1590.187, 55.00691
1592.115, 54.83408
1594.043, 54.90180
1595.972, 54.50860
1597.900, 54.50074
1599.829, 53.96943
1601.757, 54.23916
1603.686, 54.21592
1605.614, 53.99378
1607.543, 53.47203
1609.471, 53.08448
1611.400, 52.89784
1613.328, 52.86799
1615.257, 52.97438
1617.185, 53.25871
1619.114, 53.37364
1621.042, 52.73910
1622.970, 51.91424
1624.899, 51.00956
1626.827, 50.55540
1628.756, 50.79638
1630.684, 50.66648
1632.613, 50.23349
1634.541, 50.09497
1636.470, 50.15586
1638.398, 50.48649
1640.327, 50.57292
1642.255, 50.07444
1644.184, 49.63981
1646.112, 49.41357
1648.041, 49.08519
1649.969, 48.70554
1651.897, 48.62396
1653.826, 48.69941
1655.754, 48.87551
1657.683, 48.87993
1659.611, 48.53593
1661.540, 48.25302
1663.468, 48.09498
1665.397, 47.86910
1667.325, 47.63626
1669.254, 47.71214
1671.182, 47.77026
1673.111, 47.32099
1675.039, 46.98915
1676.968, 47.05010
1678.896, 46.98777
1680.824, 46.77841
1682.753, 46.79579
1684.681, 46.94328
1686.610, 47.17838
1688.538, 47.15192
1690.467, 46.29478
1692.395, 45.76446
1694.324, 45.90421
1696.252, 45.92576
1698.181, 45.81822
1700.109, 45.63234
1702.038, 45.42130
1703.966, 45.16085
1705.895, 45.05725
1707.823, 45.36919
1709.751, 45.45214
1711.680, 45.25849
1713.608, 44.87821
1715.537, 44.43646
1717.465, 44.18658
1719.394, 44.08641
1721.322, 44.14949
1723.251, 44.23624
1725.179, 44.31247
1727.108, 44.44490
1729.036, 44.55623
1730.965, 44.20546
1732.893, 43.79771
1734.822, 43.79852
1736.750, 43.72661
1738.678, 43.43882
1740.607, 42.96004
1742.535, 42.93309
1744.464, 42.40604
1746.392, 42.66421
1748.321, 42.73171
1750.249, 42.62350
1752.178, 42.29989
1754.106, 42.06731
1756.035, 41.95789
1757.963, 41.94333
1759.892, 41.90137
1761.820, 41.54659
1763.749, 41.21947
1765.677, 41.09184
1767.605, 41.11426
1769.534, 41.24810
1771.462, 40.87532
1773.391, 40.32915
1775.319, 40.23342
1777.248, 40.33412
1779.176, 39.78841
1781.105, 40.49054
1783.033, 39.28119
1784.962, 39.06780
1786.890, 39.36869
1788.819, 39.14796
1790.747, 38.83763
1792.676, 38.73304
1794.604, 38.52367
1796.532, 38.15689
1798.461, 38.09137
1800.389, 38.22307
1802.318, 38.50449
1804.246, 38.55193
1806.175, 38.06014
1808.103, 37.48444
1810.032, 36.87374
1811.960, 36.86686
1813.889, 37.07122
1815.817, 36.76609
1817.746, 36.37874
1819.674, 36.09188
1821.603, 35.71809
1823.531, 35.58373
1825.459, 35.23481
1827.388, 35.40008
1829.316, 35.49395
1831.245, 35.51345
1833.173, 35.47749
1835.102, 35.23038
1837.030, 34.76472
1838.959, 33.81735
1840.887, 33.10068
1842.816, 33.82720
1844.744, 34.09488
1846.673, 33.46926
1848.601, 32.94816
1850.530, 32.60785
1852.458, 32.48482
1854.386, 32.42905
1856.315, 32.34542
1858.243, 32.28365
1860.172, 32.23914
1862.100, 31.89171
1864.029, 31.51022
1865.957, 31.63674
1867.886, 31.77485
1869.814, 31.76269
1871.743, 31.34073
1873.671, 30.64331
1875.600, 30.46878
1877.528, 30.55283
1879.457, 30.82302
1881.385, 30.83212
1883.313, 30.41988
1885.242, 30.31196
1887.170, 30.37595
1889.099, 30.24593
1891.027, 30.14150
1892.956, 30.29095
1894.884, 30.14532
1896.813, 29.71992
1898.741, 29.97886
1900.670, 30.17369
1902.598, 29.39373
1904.527, 28.72246
1906.455, 28.47486
1908.384, 28.74723
1910.312, 29.18796
1912.240, 28.71769
1914.169, 28.31623
1916.097, 28.51018
1918.026, 28.54749
1919.954, 28.35764
1921.883, 28.03301
1923.811, 27.80211
1925.740, 27.98890
1927.668, 28.02966
1929.597, 27.80655
1931.525, 27.49057
1933.454, 27.09799
1935.382, 26.46437
1937.311, 26.14997
1939.239, 26.38391
1941.167, 26.48015
1943.096, 26.37787
1945.024, 25.99492
1946.953, 25.68534
1948.881, 25.74949
1950.810, 25.84087
1952.738, 25.88553
1954.667, 25.55197
1956.595, 25.15270
1958.524, 25.03519
1960.452, 24.91425
1962.381, 24.73668
1964.309, 24.57623
1966.238, 24.44213
1968.166, 24.29599
1970.094, 24.29656
1972.023, 24.02712
1973.951, 24.31707
1975.880, 23.54920
1977.808, 22.81829
1979.737, 22.51948
1981.665, 23.17374
1983.594, 23.30351
1985.522, 22.98977
1987.451, 22.82852
1989.379, 22.69340
1991.308, 22.50180
1993.236, 22.35344
1995.165, 22.22683
1997.093, 21.70461
1999.021, 21.31684
2000.950, 21.53703
2002.878, 21.68389
2004.807, 21.63498
2006.735, 21.56135
2008.664, 21.49396
2010.592, 21.36875
2012.521, 21.22565
2014.449, 21.09776
2016.378, 20.90853
2018.306, 20.77793
2020.235, 20.68036
2022.163, 20.52112
2024.092, 20.28701
2026.020, 20.15229
2027.948, 20.10830
2029.877, 19.97202
2031.805, 20.18767
2033.734, 19.91697
2035.662, 20.05453
2037.591, 20.22538
2039.519, 19.55293
2041.448, 19.33127
2043.376, 19.91071
2045.305, 19.59798
2047.233, 18.94585
2049.162, 18.97888
2051.090, 18.99377
2053.019, 18.75870
2054.947, 18.84026
2056.875, 19.01546
2058.804, 18.98118
2060.732, 18.72481
2062.661, 18.70891
2064.589, 18.17023
2066.518, 18.39660
2068.446, 18.17131
2070.375, 18.05047
2072.303, 18.24417
2074.232, 18.03206
2076.160, 17.69818
2078.089, 17.61142
2080.017, 17.63217
2081.946, 17.73759
2083.874, 17.39688
2085.802, 16.93572
2087.731, 16.69082
2089.659, 16.67295
2091.588, 16.44684
2093.516, 16.41646
2095.445, 16.34571
2097.373, 16.35548
2099.302, 16.38455
2101.230, 16.37152
2103.159, 16.23008
2105.087, 16.02613
2107.016, 15.72901
2108.944, 15.90668
2110.873, 16.36825
2112.801, 16.00738
2114.729, 15.35426
2116.658, 14.58990
2118.586, 14.58886
2120.515, 15.05964
2122.443, 15.01078
2124.372, 14.93897
2126.300, 15.06891
2128.229, 15.03227
2130.157, 14.93591
2132.086, 15.06350
2134.014, 15.05793
2135.943, 14.82070
2137.871, 14.60822
2139.800, 14.51079
2141.728, 14.28112
2143.656, 14.17518
2145.585, 14.01203
2147.513, 13.93922
2149.442, 14.01277
2151.370, 13.90926
2153.299, 13.77761
2155.227, 13.68574
2157.156, 13.54417
2159.084, 14.11753
2161.013, 13.43847
2162.941, 13.47210
2164.870, 13.79618
2166.798, 13.40010
2168.727, 13.17178
2170.655, 13.35115
2172.583, 13.60091
2174.512, 13.74354
2176.440, 13.58387
2178.369, 13.38793
2180.297, 13.21285
2182.226, 13.12193
2184.154, 13.06358
2186.083, 13.01292
2188.011, 12.94095
2189.940, 12.87040
2191.868, 12.85978
2193.797, 12.86875
2195.725, 12.87375
2197.654, 12.66423
2199.582, 12.32823
2201.510, 12.37202
2203.439, 12.39597
2205.367, 12.33080
2207.296, 12.63881
2209.224, 12.74132
2211.153, 12.65816
2213.081, 12.33364
2215.010, 11.88820
2216.938, 11.37575
2218.867, 11.18961
2220.795, 11.35009
2222.724, 11.62865
2224.652, 11.70390
2226.581, 11.16458
2228.509, 11.03488
2230.438, 11.18842
2232.366, 11.31372
2234.294, 11.21510
2236.223, 11.24931
2238.151, 10.92474
2240.080, 11.10334
2242.008, 10.96663
2243.937, 10.87340
2245.865, 10.87725
2247.794, 11.07883
2249.722, 11.25810
2251.651, 11.34110
2253.579, 11.21910
2255.508, 11.04597
2257.436, 11.00080
2259.365, 10.78121
2261.293, 10.42712
2263.221, 10.13346
2265.150, 10.07440
2267.078, 9.864988
2269.007, 10.02852
2270.935, 9.754428
2272.864, 10.04600
2274.792, 10.17941
2276.721, 10.18218
2278.649, 10.46604
2280.578, 10.52522
2282.506, 10.22170
2284.435, 10.08841
2286.363, 9.940114
2288.292, 9.468969
2290.220, 9.269807
2292.148, 9.324081
2294.077, 9.557629
2296.005, 9.675433
2297.934, 9.599255
2299.862, 9.514004
2301.791, 9.401557
2303.719, 9.165040
2305.648, 9.347248
2307.576, 9.138801
2309.505, 9.234585
2311.433, 9.011998
2313.362, 9.091900
2315.290, 9.162416
2317.219, 9.185980
2319.147, 9.124785
2321.075, 9.228743
2323.004, 9.594166
2324.932, 9.575796
2326.861, 9.527719
2328.789, 9.706637
2330.718, 9.267804
2332.646, 9.061261
2334.575, 9.035400
2336.503, 9.004024
2338.432, 9.070330
2340.360, 9.364328
2342.289, 9.014513
2344.217, 8.466415
2346.146, 8.680270
2348.074, 8.615604
2350.002, 8.369434
2351.931, 8.453040
2353.859, 8.383867
2355.788, 8.405523
2357.716, 8.258928
2359.645, 8.372723
2361.573, 7.987839
2363.502, 7.954100
2365.430, 8.120581
2367.359, 8.208506
2369.287, 8.171311
2371.216, 8.054026
2373.144, 8.126132
2375.073, 8.061494
2377.001, 7.714345
2378.929, 7.686923
2380.858, 7.824733
2382.786, 8.085195
2384.715, 8.079752
2386.643, 7.848212
2388.572, 8.000052
2390.500, 7.431328
2392.429, 7.887874
2394.357, 7.567086
2396.286, 7.246115
2398.214, 7.133444
2400.143, 7.036839
2402.071, 7.387823
2404.000, 7.132516
2405.928, 7.387131
2407.856, 7.622818
2409.785, 7.316362
2411.713, 7.249017
2413.642, 7.287803
2415.570, 6.968606
2417.499, 6.999001
2419.427, 7.302351
2421.356, 7.319794
2423.284, 7.279199
2425.213, 7.250600
2427.141, 7.162460
2429.070, 7.245618
2430.998, 6.969386
2432.927, 6.827688
2434.855, 6.782025
2436.783, 6.839505
2438.712, 6.790215
2440.640, 6.678606
2442.569, 6.705951
2444.497, 6.668558
2446.426, 6.670806
2448.354, 6.688799
2450.283, 6.691829
2452.211, 6.733981
2454.140, 6.642025
2456.068, 6.560553
2457.997, 6.501617
2459.925, 6.361742
2461.854, 6.391711
2463.782, 6.452992
2465.710, 6.398003
2467.639, 6.353549
2469.567, 6.410913
2471.496, 6.320165
2473.424, 6.165411
2475.353, 6.036099
2477.281, 5.920264
2479.210, 5.884107
2481.138, 6.105536
2483.067, 6.117719
2484.995, 5.972133
2486.924, 5.908132
2488.852, 5.879895
2490.781, 5.876506
2492.709, 5.897057
2494.637, 5.892092
2496.566, 5.872602
2498.494, 5.970208
2500.423, 6.029333
2502.351, 6.012239
2504.280, 6.059105
2506.208, 6.096099
2508.137, 6.086726
2510.065, 6.086803
2511.994, 6.120520
2513.922, 6.008255
2515.851, 6.058282
2517.779, 5.778350
2519.708, 5.593240
2521.636, 5.454594
2523.564, 5.387351
2525.493, 5.396659
2527.421, 5.673574
2529.350, 5.918869
2531.278, 5.763782
2533.207, 5.489835
2535.135, 5.308757
2537.064, 5.252093
2538.992, 5.229928
2540.921, 5.309338
2542.849, 5.454310
2544.778, 5.768036
2546.706, 6.059878
2548.635, 5.840722
2550.563, 5.732390
2552.491, 5.730711
2554.420, 5.432579
2556.348, 5.496319
2558.277, 5.828201
2560.205, 5.678905
2562.134, 5.570090
2564.062, 5.573182
2565.991, 5.534449
2567.919, 5.403375
2569.848, 5.377900
2571.776, 5.226897
2573.705, 5.224992
2575.633, 5.205079
2577.562, 5.113553
2579.490, 5.331988
2581.418, 4.950203
2583.347, 4.813184
2585.275, 4.850058
2587.204, 4.991070
2589.132, 4.912920
2591.061, 4.744687
2592.989, 4.538958
2594.918, 4.338347
2596.846, 4.371612
2598.775, 4.635562
2600.703, 4.570771
2602.632, 4.273328
2604.560, 3.890350
2606.489, 4.377309
2608.417, 4.675101
2610.345, 4.531762
2612.274, 4.389078
2614.202, 4.279347
2616.131, 4.210633
2618.059, 4.149712
2619.988, 4.189320
2621.916, 4.315001
2623.845, 4.358483
2625.773, 4.379181
2627.702, 4.409903
2629.630, 4.539876
2631.559, 4.530095
2633.487, 4.453130
2635.416, 4.872215
2637.344, 4.574234
2639.272, 3.813857
2641.201, 3.824845
2643.129, 3.963270
2645.058, 4.125887
2646.986, 4.533033
2648.915, 4.191309
2650.843, 3.583958
2652.772, 3.960835
2654.700, 3.929476
2656.629, 3.702402
2658.557, 3.857261
2660.486, 4.007694
2662.414, 4.125969
2664.343, 4.245842
2666.271, 4.274374
2668.199, 4.158271
2670.128, 3.838587
2672.056, 3.837642
2673.985, 4.010334
2675.913, 4.214056
2677.842, 4.172512
2679.770, 4.112129
2681.699, 4.164852
2683.627, 4.155182
2685.556, 4.107605
2687.484, 4.024566
2689.413, 3.933982
2691.341, 3.552972
2693.270, 3.714481
2695.198, 3.589360
2697.126, 3.530864
2699.055, 3.611730
2700.983, 3.738269
2702.912, 3.871109
2704.840, 3.959494
2706.769, 3.948253
2708.697, 3.668993
2710.626, 3.354080
2712.554, 3.463896
2714.483, 3.399185
2716.411, 3.243741
2718.340, 3.107890
2720.268, 3.287194
2722.197, 3.453715
2724.125, 3.324537
2726.053, 3.051589
2727.982, 2.939549
2729.910, 3.144666
2731.839, 3.219055
2733.767, 3.319922
2735.696, 3.440522
2737.624, 3.120567
2739.553, 2.934338
2741.481, 2.985765
2743.410, 3.264811
2745.338, 3.412884
2747.267, 3.400718
2749.195, 3.227214
2751.124, 3.191424
2753.052, 3.243259
2754.980, 3.315650
2756.909, 3.472487
2758.837, 3.445104
2760.766, 3.120383
2762.694, 2.765707
2764.623, 2.692811
2766.551, 2.908639
2768.480, 3.183459
2770.408, 3.115084
2772.337, 2.866024
2774.265, 2.992883
2776.194, 2.988672
2778.122, 2.895813
2780.051, 2.847252
2781.979, 2.765491
2783.907, 2.737720
2785.836, 2.857263
2787.764, 2.478722
2789.693, 2.362523
2791.621, 2.724185
2793.550, 2.900866
2795.478, 2.831320
2797.407, 2.659923
2799.335, 2.745275
2801.264, 2.913658
2803.192, 2.934726
2805.121, 2.590394
2807.049, 2.341495
2808.978, 2.372127
2810.906, 2.186007
2812.834, 2.501069
2814.763, 2.171074
2816.691, 2.472991
2818.620, 2.646468
2820.548, 2.698397
2822.477, 2.264751
2824.405, 2.458125
2826.334, 2.400221
2828.262, 2.332008
2830.191, 2.613638
2832.119, 2.250614
2834.048, 2.526696
2835.976, 2.547656
2837.905, 2.685381
2839.833, 2.570267
2841.761, 2.533245
2843.690, 2.749144
2845.618, 2.824996
2847.547, 2.680782
2849.475, 2.825925
2851.404, 2.454073
2853.332, 2.535890
2855.261, 2.046895
2857.189, 2.501428
2859.118, 2.446479
2861.046, 2.227111
2862.975, 2.626192
2864.903, 2.425560
2866.832, 2.159328
2868.760, 2.177503
2870.688, 2.082623
2872.617, 2.169266
2874.545, 2.381306
2876.474, 2.244495
2878.402, 2.343314
2880.331, 2.413789
2882.259, 2.109365
2884.188, 2.047984
2886.116, 2.089022
2888.045, 2.120762
2889.973, 1.931671
2891.902, 1.985480
2893.830, 2.148436
2895.759, 2.075827
2897.687, 1.953714
2899.615, 2.229726
2901.544, 2.377284
2903.472, 2.403307
2905.401, 1.943743
2907.329, 2.111210
2909.258, 2.027387
2911.186, 1.933269
2913.115, 2.188980
2915.043, 1.800051
2916.972, 2.050214
2918.900, 2.045269
2920.829, 2.157073
2922.757, 2.016053
2924.686, 1.953118
2926.614, 2.143107
2928.542, 2.193054
2930.471, 2.022920
2932.399, 2.142157
2934.328, 2.086511
2936.256, 1.800297
2938.185, 1.999442
2940.113, 2.057632
2942.042, 1.865023
2943.970, 2.052839
2945.899, 1.930717
2947.827, 1.551714
2949.756, 1.717148
2951.684, 1.841315
2953.613, 1.800459
2955.541, 1.533838
2957.469, 1.516899
2959.398, 1.601478
2961.326, 1.676823
2963.255, 1.564600
2965.183, 1.622821
2967.112, 1.670469
2969.040, 1.546139
2970.969, 1.763124
2972.897, 1.924475
2974.826, 1.902140
2976.754, 1.651158
2978.683, 1.451033
2980.611, 1.437320
2982.540, 1.631984
2984.468, 1.828658
2986.396, 1.886341
2988.325, 1.813113
2990.253, 1.656539
2992.182, 1.490836
2994.110, 1.420008
2996.039, 1.417641
2997.967, 1.216829
2999.896, 1.351067
3001.824, 1.405540
3003.753, 1.007713
3005.681, 1.196218
3007.610, 1.258312
3009.538, 0.8997508
3011.467, 1.201096
3013.395, 1.373993
3015.323, 1.425346
3017.252, 0.9911239
3019.180, 1.183922
3021.109, 1.125442
3023.037, 1.056655
3024.966, 1.337708
3026.894, 0.9741086
3028.823, 1.249614
3030.751, 1.269998
3032.680, 1.407147
3034.608, 1.291458
3036.537, 1.253866
3038.465, 1.469184
3040.394, 1.544466
3042.322, 1.399670
3044.250, 1.544237
3046.179, 1.171810
3048.107, 1.253052
3050.036, 1.530038
3051.964, 1.233137
3053.893, 1.174393
3055.821, 1.190619
3057.750, 1.159078
3059.678, 1.080016
3061.607, 1.157965
3063.535, 0.9768526
3065.464, 0.9489855
3067.392, 1.276612
3069.321, 1.201805
3071.249, 1.145748
3073.177, 1.119910
3075.106, 1.034950
3077.034, 1.069258
3078.963, 1.010822
3080.891, 1.064853
3082.820, 1.019101
3084.748, 1.137783
3086.677, 1.303518
3088.605, 1.239540
3090.534, 1.272312
3092.462, 0.9761704
3094.391, 1.288202
3096.319, 1.134642
3098.248, 1.396754
3100.176, 1.388979
3102.104, 1.245582
3104.033, 1.141135
3105.961, 1.092965
3107.890, 1.199509
3109.818, 1.133443
3111.747, 0.6227272
3113.675, 0.6426771
3115.604, 0.8282331
3117.532, 1.059917
3119.461, 1.379362
3121.389, 1.290208
3123.318, 1.294479
3125.246, 1.049804
3127.175, 1.025161
3129.103, 0.7457978
3131.031, 0.6989725
3132.960, 0.8874059
3134.888, 0.9337289
3136.817, 1.107456
3138.745, 1.194131
3140.674, 1.139642
3142.602, 1.080890
3144.531, 1.074010
3146.459, 0.9999750
3148.388, 0.9497687
3150.316, 0.8880805
3152.245, 0.9253995
3154.173, 0.8871371
3156.102, 0.8879126
3158.030, 1.059612
3159.958, 0.9700028
3161.887, 1.035146
3163.815, 1.252300
3165.744, 1.357712
3167.672, 0.8965205
3169.601, 0.5451018
3171.529, 0.5978123
3173.458, 0.5834011
3175.386, 0.4793113
3177.315, 0.5381907
3179.243, 0.7791016
3181.172, 0.5427683
3183.100, 0.9336237
3185.029, 1.300977
3186.957, 1.222285
3188.885, 0.8263454
3190.814, 0.8932427
3192.742, 0.9256173
3194.671, 0.7242523
3196.599, 0.7035465
3198.528, 1.101126
3200.456, 1.284757
3202.385, 1.056521
3204.313, 0.7552630
3206.242, 0.6037509
3208.170, 0.7677948
3210.099, 1.116027
3212.027, 1.231470
3213.956, 1.249578
3215.884, 1.044940
3217.813, 1.091220
3219.741, 0.8681829
3221.669, 0.9338037
3223.598, 0.8293087
3225.526, 0.6886748
3227.455, 0.7810773
3229.383, 0.8052251
3231.312, 0.8181399
3233.240, 0.8900009
3235.169, 1.085306
3237.097, 1.095505
3239.026, 0.9166848
3240.954, 0.9247465
3242.883, 0.7625653
3244.811, 1.039688
3246.740, 0.6496583
3248.668, 0.6254000
3250.596, 0.9973332
3252.525, 0.8748423
3254.453, 1.001938
3256.382, 0.9983022
3258.310, 0.8777938
3260.239, 1.271719
3262.167, 1.079613
3264.096, 0.7731922
3266.024, 0.4836637
3267.953, 8.8239953E-02
3269.881, 0.7100226
3271.810, 0.9954043
3273.738, 0.8313041
3275.667, 0.5549881
3277.595, 0.9232474
3279.523, 0.9273844
3281.452, 0.7551327
3283.380, 0.7275800
3285.309, 1.150307
3287.237, 1.224794
3289.166, 0.7312117
3291.094, 0.1984782
3293.023, 0.7366953
3294.951, 0.9983093
3296.880, 0.9972146
3298.808, 0.8416923
3300.737, 0.6760124
3302.665, 1.186064
3304.594, 1.256542
3306.522, 1.180643
3308.450, 1.215756
3310.379, 1.031433
3312.307, 1.212187
3314.236, 1.140037
3316.164, 0.9357332
3318.093, 1.222493
3320.021, 1.510900
3321.950, 1.109309
3323.878, 0.8366268
3325.807, 1.287521
3327.735, 0.5550389
3329.664, 1.128109
3331.592, 1.164234
3333.521, 0.4232711
3335.449, 0.8030685
3337.377, 1.065706
3339.306, 1.102129
3341.234, 1.071028
3343.163, 1.115047
3345.091, 1.059941
3347.020, 0.7629833
3348.948, 0.6354379
3350.877, 0.7574269
3352.805, 0.8092205
3354.734, 0.9624258
3356.662, 1.218205
3358.591, 1.300519
3360.519, 1.093086
3362.448, 1.318850
3364.376, 1.271862
3366.304, 1.237562
3368.233, 1.300312
3370.161, 1.299631
3372.090, 1.090095
3374.018, 0.7935290
3375.947, 0.5711103
3377.875, 0.6170220
3379.804, 0.5796427
3381.732, 0.3917933
3383.661, 0.8545490
3385.589, 0.4174626
3387.518, 0.6260931
3389.446, 1.405055
3391.375, 1.149239
3393.303, 0.7102724
3395.231, 0.7421129
3397.160, 1.191852
3399.088, 1.055471
3401.017, 1.279004
3402.945, 1.384467
3404.874, 0.9767923
3406.802, 0.9698185
3408.731, 0.3408555
3410.659, 0.8296518
3412.588, 1.512138
3414.516, 0.8730682
3416.445, 1.221418
3418.373, 0.8132306
3420.302, 0.7481864
3422.230, 1.057667
3424.158, 0.7122461
3426.087, 0.6652803
3428.015, 0.5444531
3429.944, 0.6671858
3431.872, 0.6223568
3433.801, 0.5846215
3435.729, 0.7140992
3437.658, 0.6171845
3439.586, 0.7190123
3441.515, 0.9833397
3443.443, 1.098911
3445.372, 1.656780
3447.300, 1.334321
3449.229, 1.256184
3451.157, 0.8071734
3453.085, 0.6885761
3455.014, 0.1418148
3456.942, 0.2326620
##END=



