##NAMES=Alumohydrocalcite
##RRUFFID=R070516
##IDEAL CHEMISTRY=CaAl_2_(CO_3_)_2_(OH)_4_·4H_2_O
##LOCALITY=Mount Hamiliton, Santa Clara County, California, USA
##OWNER=RRUFF
##SOURCE=James Shigley
##DESCRIPTION=Radial aggregates of light pink fibers associated with green massive dolomite
##STATUS=The identification of this mineral is not yet confirmed
##URL=https://www.rruff.net/odr/rruff_sample/R070516
##FILETYPE=Raman RAW
##RAMAN WAVELENGTH=785

152.9770, 23942.05
154.9055, 25225.36
156.8340, 26458.31
158.7624, 27372.26
160.6909, 27274.08
162.6194, 27231.83
164.5478, 27287.42
166.4763, 27382.54
168.4048, 27535.07
170.3332, 27659.01
172.2617, 27690.75
174.1902, 27692.85
176.1186, 27763.42
178.0471, 27889.52
179.9756, 27995.08
181.9040, 28063.91
183.8325, 28128.98
185.7610, 28189.70
187.6894, 28242.39
189.6179, 28287.62
191.5464, 28340.95
193.4748, 28404.31
195.4033, 28463.70
197.3318, 28490.69
199.2602, 28485.48
201.1887, 28471.66
203.1172, 28450.19
205.0456, 28411.04
206.9741, 28344.51
208.9025, 28265.37
210.8310, 28184.01
212.7595, 28092.97
214.6879, 28025.45
216.6164, 28004.12
218.5449, 27950.08
220.4733, 27839.18
222.4018, 27690.52
224.3303, 27503.22
226.2587, 27295.07
228.1872, 27105.77
230.1157, 26928.30
232.0441, 26770.84
233.9726, 26649.24
235.9011, 26509.20
237.8295, 26299.22
239.7580, 26104.90
241.6865, 25988.41
243.6149, 25908.88
245.5434, 25775.87
247.4719, 25593.96
249.4003, 25464.87
251.3288, 25405.32
253.2573, 25347.96
255.1857, 25301.47
257.1142, 25225.23
259.0427, 25060.96
260.9711, 24876.14
262.8996, 24785.12
264.8281, 24762.84
266.7565, 24725.83
268.6850, 24658.54
270.6135, 24615.92
272.5419, 24632.52
274.4704, 24649.53
276.3989, 24636.47
278.3273, 24610.60
280.2558, 24596.36
282.1843, 24601.44
284.1127, 24617.38
286.0412, 24639.33
287.9697, 24645.04
289.8981, 24611.75
291.8266, 24607.94
293.7551, 24664.16
295.6835, 24726.83
297.6120, 24773.77
299.5405, 24805.40
301.4689, 24804.79
303.3974, 24763.75
305.3259, 24743.70
307.2543, 24763.31
309.1828, 24783.18
311.1113, 24805.49
313.0397, 24809.81
314.9682, 24771.86
316.8967, 24730.91
318.8251, 24721.75
320.7536, 24725.82
322.6821, 24686.68
324.6105, 24598.46
326.5390, 24550.90
328.4675, 24559.60
330.3959, 24560.67
332.3244, 24527.92
334.2529, 24495.44
336.1813, 24491.04
338.1098, 24485.01
340.0383, 24435.19
341.9667, 24357.20
343.8952, 24309.91
345.8237, 24292.33
347.7521, 24264.19
349.6806, 24211.29
351.6091, 24169.63
353.5375, 24156.58
355.4660, 24145.56
357.3945, 24129.18
359.3229, 24103.24
361.2514, 24050.17
363.1799, 23986.57
365.1083, 23959.57
367.0368, 23974.37
368.9653, 23975.13
370.8937, 23948.74
372.8222, 23921.97
374.7507, 23895.62
376.6791, 23871.80
378.6076, 23844.02
380.5361, 23826.54
382.4645, 23837.30
384.3930, 23864.17
386.3215, 23879.15
388.2499, 23881.50
390.1784, 23858.66
392.1069, 23795.57
394.0353, 23750.22
395.9638, 23725.66
397.8923, 23710.56
399.8207, 23722.41
401.7492, 23733.95
403.6777, 23717.80
405.6061, 23687.39
407.5346, 23654.01
409.4631, 23606.25
411.3915, 23590.43
413.3200, 23626.25
415.2484, 23617.85
417.1769, 23522.07
419.1054, 23462.79
421.0338, 23523.88
422.9623, 23574.29
424.8908, 23549.13
426.8192, 23501.39
428.7477, 23472.08
430.6762, 23448.46
432.6046, 23408.16
434.5331, 23362.27
436.4616, 23336.34
438.3900, 23327.04
440.3185, 23314.88
442.2470, 23305.37
444.1754, 23292.85
446.1039, 23279.16
448.0324, 23253.40
449.9608, 23164.58
451.8893, 23068.04
453.8178, 23088.56
455.7462, 23183.11
457.6747, 23199.55
459.6032, 23125.96
461.5316, 23059.73
463.4601, 23014.67
465.3886, 22995.19
467.3170, 23005.79
469.2455, 23011.74
471.1740, 23022.08
473.1024, 23053.92
475.0309, 23086.19
476.9594, 23083.99
478.8878, 23045.70
480.8163, 22995.14
482.7448, 22990.66
484.6732, 23034.93
486.6017, 23060.41
488.5302, 23045.11
490.4586, 23052.82
492.3871, 23105.76
494.3156, 23151.15
496.2440, 23161.04
498.1725, 23164.30
500.1010, 23199.38
502.0294, 23229.76
503.9579, 23214.27
505.8864, 23196.24
507.8148, 23209.35
509.7433, 23234.94
511.6718, 23281.03
513.6002, 23352.45
515.5287, 23379.06
517.4572, 23350.13
519.3856, 23329.72
521.3141, 23320.72
523.2426, 23314.03
525.1710, 23349.94
527.0995, 23408.72
529.0280, 23460.42
530.9564, 23487.56
532.8849, 23491.18
534.8134, 23501.75
536.7418, 23515.61
538.6703, 23516.03
540.5988, 23519.73
542.5272, 23533.52
544.4557, 23545.11
546.3842, 23551.89
548.3126, 23567.18
550.2411, 23602.87
552.1696, 23597.56
554.0980, 23546.11
556.0265, 23534.87
557.9550, 23562.48
559.8834, 23580.48
561.8119, 23608.00
563.7404, 23645.79
565.6688, 23637.81
567.5973, 23572.95
569.5258, 23478.74
571.4542, 23383.77
573.3827, 23314.23
575.3112, 23262.98
577.2396, 23202.79
579.1681, 23127.57
581.0966, 23025.15
583.0250, 22909.90
584.9535, 22795.40
586.8820, 22647.34
588.8104, 22455.41
590.7389, 22299.14
592.6674, 22201.26
594.5958, 22079.47
596.5243, 21955.91
598.4528, 21877.34
600.3812, 21812.34
602.3097, 21729.90
604.2382, 21652.48
606.1666, 21586.72
608.0951, 21507.38
610.0236, 21412.71
611.9520, 21326.60
613.8805, 21272.96
615.8090, 21252.30
617.7374, 21228.41
619.6659, 21185.72
621.5944, 21141.68
623.5228, 21093.55
625.4513, 21046.62
627.3798, 20988.81
629.3082, 20910.16
631.2367, 20846.54
633.1652, 20807.52
635.0936, 20763.64
637.0221, 20722.26
638.9506, 20704.10
640.8790, 20695.29
642.8075, 20689.90
644.7360, 20681.48
646.6644, 20647.78
648.5929, 20585.21
650.5214, 20507.21
652.4498, 20428.76
654.3783, 20400.21
656.3068, 20416.07
658.2352, 20415.79
660.1637, 20396.88
662.0922, 20364.80
664.0206, 20340.77
665.9491, 20325.36
667.8776, 20298.73
669.8060, 20262.69
671.7345, 20205.96
673.6630, 20159.18
675.5914, 20156.31
677.5199, 20163.95
679.4484, 20167.70
681.3768, 20163.89
683.3053, 20136.83
685.2338, 20099.86
687.1622, 20078.69
689.0907, 20065.59
691.0192, 20041.36
692.9476, 19992.93
694.8761, 19937.54
696.8046, 19926.29
698.7330, 19928.04
700.6615, 19894.86
702.5900, 19866.95
704.5184, 19866.73
706.4469, 19859.88
708.3754, 19839.57
710.3038, 19828.94
712.2323, 19819.01
714.1608, 19810.18
716.0892, 19814.45
718.0177, 19790.94
719.9462, 19752.11
721.8746, 19742.71
723.8031, 19732.30
725.7316, 19677.21
727.6600, 19593.76
729.5885, 19517.28
731.5170, 19445.43
733.4454, 19373.61
735.3739, 19308.78
737.3024, 19244.83
739.2308, 19155.69
741.1593, 19077.83
743.0878, 19066.26
745.0162, 19045.27
746.9447, 18928.53
748.8732, 18816.78
750.8016, 18811.76
752.7301, 18832.74
754.6586, 18796.42
756.5870, 18729.77
758.5155, 18682.32
760.4440, 18648.44
762.3724, 18614.93
764.3009, 18590.88
766.2294, 18576.96
768.1578, 18553.19
770.0863, 18490.54
772.0148, 18403.57
773.9432, 18345.65
775.8717, 18332.30
777.8002, 18332.36
779.7286, 18314.96
781.6571, 18281.23
783.5856, 18250.15
785.5140, 18212.98
787.4425, 18169.71
789.3710, 18147.14
791.2994, 18134.04
793.2279, 18106.43
795.1564, 18069.24
797.0848, 18059.33
799.0133, 18095.75
800.9418, 18094.27
802.8702, 18008.27
804.7987, 17940.70
806.7272, 17938.94
808.6556, 17942.96
810.5841, 17941.79
812.5126, 17926.77
814.4410, 17871.47
816.3695, 17817.91
818.2980, 17798.35
820.2264, 17782.18
822.1549, 17757.17
824.0833, 17714.84
826.0118, 17637.03
827.9402, 17580.50
829.8687, 17595.92
831.7972, 17629.47
833.7256, 17634.57
835.6541, 17614.12
837.5826, 17575.57
839.5110, 17525.70
841.4395, 17454.74
843.3680, 17394.10
845.2964, 17403.52
847.2249, 17440.45
849.1534, 17420.77
851.0818, 17364.79
853.0103, 17331.48
854.9388, 17318.69
856.8672, 17312.13
858.7957, 17306.85
860.7242, 17280.96
862.6526, 17237.88
864.5811, 17206.90
866.5096, 17188.66
868.4380, 17186.32
870.3665, 17202.13
872.2950, 17193.31
874.2234, 17155.77
876.1519, 17125.59
878.0804, 17112.81
880.0089, 17056.32
881.9373, 16928.90
883.8658, 16848.95
885.7943, 16837.38
887.7227, 16829.06
889.6512, 16829.43
891.5797, 16808.58
893.5081, 16754.33
895.4366, 16713.96
897.3651, 16700.57
899.2935, 16684.53
901.2220, 16654.64
903.1505, 16600.28
905.0789, 16524.34
907.0074, 16482.53
908.9359, 16480.37
910.8643, 16462.75
912.7928, 16421.25
914.7213, 16402.40
916.6497, 16412.88
918.5782, 16411.33
920.5067, 16397.85
922.4351, 16388.65
924.3636, 16377.44
926.2921, 16347.27
928.2205, 16303.70
930.1490, 16261.68
932.0775, 16207.14
934.0059, 16176.60
935.9344, 16195.58
937.8629, 16206.33
939.7913, 16199.36
941.7198, 16178.01
943.6483, 16127.38
945.5767, 16078.91
947.5052, 16052.36
949.4337, 16032.87
951.3621, 15994.13
953.2906, 15967.58
955.2191, 15993.57
957.1475, 16004.21
959.0760, 15951.30
961.0045, 15909.19
962.9329, 15927.87
964.8614, 15937.30
966.7899, 15901.91
968.7183, 15860.93
970.6468, 15825.21
972.5753, 15786.71
974.5037, 15753.15
976.4322, 15719.63
978.3607, 15663.72
980.2891, 15618.14
982.2176, 15608.32
984.1461, 15597.45
986.0745, 15577.35
988.0030, 15559.38
989.9315, 15532.95
991.8599, 15516.57
993.7884, 15525.89
995.7169, 15522.10
997.6453, 15511.11
999.5738, 15473.20
1001.502, 15375.82
1003.431, 15308.65
1005.359, 15288.29
1007.288, 15267.18
1009.216, 15242.66
1011.145, 15257.04
1013.073, 15339.82
1015.002, 15387.61
1016.930, 15374.40
1018.858, 15352.38
1020.787, 15321.28
1022.715, 15293.48
1024.644, 15267.09
1026.572, 15237.32
1028.501, 15203.52
1030.429, 15203.18
1032.358, 15297.92
1034.286, 15289.17
1036.215, 15061.55
1038.143, 14918.04
1040.072, 14922.34
1042.000, 14913.16
1043.928, 14886.49
1045.857, 14853.89
1047.785, 14795.99
1049.714, 14770.12
1051.642, 14808.08
1053.571, 14814.82
1055.499, 14770.93
1057.428, 14763.04
1059.356, 14787.79
1061.285, 14770.68
1063.213, 14726.27
1065.142, 14747.26
1067.070, 14831.46
1068.999, 14920.21
1070.927, 14988.88
1072.855, 15018.07
1074.784, 15034.94
1076.712, 15043.99
1078.641, 15058.56
1080.569, 15143.69
1082.498, 15268.32
1084.426, 15385.49
1086.355, 15488.47
1088.283, 15557.44
1090.212, 15615.81
1092.140, 15685.45
1094.069, 15748.78
1095.997, 15826.95
1097.926, 15893.93
1099.854, 15890.59
1101.782, 15842.84
1103.711, 15792.49
1105.639, 15719.60
1107.568, 15601.38
1109.496, 15440.13
1111.425, 15229.67
1113.353, 15024.61
1115.282, 14828.40
1117.210, 14641.18
1119.139, 14486.40
1121.067, 14353.41
1122.996, 14225.53
1124.924, 14136.70
1126.853, 14112.87
1128.781, 14067.24
1130.709, 13965.11
1132.638, 13878.86
1134.566, 13831.18
1136.495, 13786.09
1138.423, 13735.12
1140.352, 13696.08
1142.280, 13670.62
1144.209, 13638.30
1146.137, 13601.65
1148.066, 13603.72
1149.994, 13619.63
1151.923, 13579.19
1153.851, 13514.50
1155.780, 13471.84
1157.708, 13446.74
1159.636, 13443.88
1161.565, 13448.26
1163.493, 13431.68
1165.422, 13409.98
1167.350, 13401.31
1169.279, 13375.35
1171.207, 13312.25
1173.136, 13272.34
1175.064, 13290.27
1176.993, 13298.00
1178.921, 13269.56
1180.850, 13247.71
1182.778, 13245.01
1184.707, 13229.96
1186.635, 13178.21
1188.563, 13138.44
1190.492, 13139.33
1192.420, 13128.60
1194.349, 13084.94
1196.277, 13075.10
1198.206, 13105.46
1200.134, 13091.62
1202.063, 13037.13
1203.991, 12979.50
1205.920, 12934.65
1207.848, 12923.38
1209.777, 12921.78
1211.705, 12947.12
1213.634, 12969.94
1215.562, 12906.09
1217.490, 12837.56
1219.419, 12841.81
1221.347, 12851.77
1223.276, 12824.88
1225.204, 12798.14
1227.133, 12804.44
1229.061, 12806.56
1230.990, 12778.19
1232.918, 12743.62
1234.847, 12713.49
1236.775, 12683.96
1238.704, 12652.56
1240.632, 12627.19
1242.561, 12606.85
1244.489, 12600.70
1246.417, 12603.00
1248.346, 12583.64
1250.274, 12554.23
1252.203, 12540.14
1254.131, 12530.59
1256.060, 12506.18
1257.988, 12474.06
1259.917, 12425.71
1261.845, 12398.32
1263.774, 12437.07
1265.702, 12464.42
1267.631, 12448.64
1269.559, 12406.79
1271.488, 12333.64
1273.416, 12291.19
1275.344, 12293.86
1277.273, 12294.08
1279.201, 12287.00
1281.130, 12276.63
1283.058, 12264.27
1284.987, 12262.16
1286.915, 12260.92
1288.844, 12242.58
1290.772, 12220.82
1292.701, 12213.64
1294.629, 12196.58
1296.558, 12133.66
1298.486, 12088.89
1300.415, 12109.22
1302.343, 12109.56
1304.271, 12054.77
1306.200, 12022.43
1308.128, 12028.88
1310.057, 12032.66
1311.985, 12029.38
1313.914, 12002.04
1315.842, 11957.59
1317.771, 11943.11
1319.699, 11941.28
1321.628, 11909.14
1323.556, 11867.27
1325.485, 11836.76
1327.413, 11816.09
1329.342, 11802.94
1331.270, 11800.92
1333.198, 11828.38
1335.127, 11830.32
1337.055, 11791.49
1338.984, 11751.21
1340.912, 11712.25
1342.841, 11716.07
1344.769, 11751.95
1346.698, 11753.56
1348.626, 11726.91
1350.555, 11677.45
1352.483, 11628.40
1354.412, 11606.28
1356.340, 11597.67
1358.269, 11602.94
1360.197, 11600.34
1362.125, 11569.94
1364.054, 11551.68
1365.982, 11558.19
1367.911, 11547.81
1369.839, 11518.20
1371.768, 11499.32
1373.696, 11489.52
1375.625, 11472.78
1377.553, 11461.16
1379.482, 11491.69
1381.410, 11512.46
1383.339, 11471.88
1385.267, 11419.89
1387.196, 11364.04
1389.124, 11338.05
1391.052, 11376.93
1392.981, 11367.25
1394.909, 11296.50
1396.838, 11257.64
1398.766, 11242.70
1400.695, 11200.48
1402.623, 11151.79
1404.552, 11131.65
1406.480, 11130.56
1408.409, 11153.65
1410.337, 11163.49
1412.266, 11125.58
1414.194, 11134.08
1416.123, 11234.04
1418.051, 11242.18
1419.979, 11143.12
1421.908, 11078.22
1423.836, 11042.79
1425.765, 11033.86
1427.693, 11027.06
1429.622, 10977.45
1431.550, 10929.33
1433.479, 10902.58
1435.407, 10902.58
1437.336, 10945.18
1439.264, 10927.37
1441.193, 10829.91
1443.121, 10793.58
1445.050, 10811.34
1446.978, 10808.67
1448.906, 10794.60
1450.835, 10780.73
1452.763, 10769.63
1454.692, 10766.75
1456.620, 10758.77
1458.549, 10735.19
1460.477, 10738.48
1462.406, 10777.95
1464.334, 10752.57
1466.263, 10672.66
1468.191, 10637.68
1470.120, 10626.14
1472.048, 10589.64
1473.977, 10562.78
1475.905, 10603.22
1477.833, 10609.54
1479.762, 10521.81
1481.690, 10477.65
1483.619, 10494.69
1485.547, 10490.82
1487.476, 10461.99
1489.404, 10401.56
1491.333, 10336.68
1493.261, 10306.76
1495.190, 10293.57
1497.118, 10309.17
1499.047, 10289.17
1500.975, 10192.22
1502.904, 10132.94
1504.832, 10117.93
1506.760, 10121.96
1508.689, 10130.21
1510.617, 10097.89
1512.546, 10051.97
1514.474, 10007.02
1516.403, 9983.104
1518.331, 10001.68
1520.260, 10021.76
1522.188, 10042.14
1524.117, 10043.91
1526.045, 10029.09
1527.974, 10004.07
1529.902, 9983.753
1531.831, 10002.14
1533.759, 10017.16
1535.688, 10002.77
1537.616, 9971.847
1539.544, 9918.423
1541.473, 9878.957
1543.401, 9853.965
1545.330, 9809.188
1547.258, 9763.078
1549.187, 9774.834
1551.115, 9780.321
1553.044, 9725.279
1554.972, 9673.007
1556.901, 9644.263
1558.829, 9619.526
1560.758, 9596.359
1562.686, 9592.440
1564.615, 9589.004
1566.543, 9524.742
1568.471, 9458.062
1570.400, 9434.578
1572.328, 9427.444
1574.257, 9431.896
1576.185, 9429.890
1578.114, 9418.050
1580.042, 9395.178
1581.971, 9365.430
1583.899, 9334.675
1585.828, 9310.440
1587.756, 9309.552
1589.685, 9292.420
1591.613, 9247.406
1593.542, 9210.819
1595.470, 9187.813
1597.398, 9186.508
1599.327, 9190.429
1601.255, 9168.890
1603.184, 9139.990
1605.112, 9106.736
1607.041, 9095.871
1608.969, 9115.609
1610.898, 9082.753
1612.826, 9010.031
1614.755, 8980.396
1616.683, 8965.097
1618.612, 8918.163
1620.540, 8886.813
1622.469, 8904.493
1624.397, 8903.958
1626.325, 8879.653
1628.254, 8855.020
1630.182, 8835.600
1632.111, 8851.795
1634.039, 8843.537
1635.968, 8721.316
1637.896, 8639.737
1639.825, 8640.096
1641.753, 8665.005
1643.682, 8699.212
1645.610, 8666.587
1647.538, 8613.713
1649.467, 8602.256
1651.395, 8589.991
1653.324, 8551.659
1655.252, 8527.578
1657.181, 8522.371
1659.109, 8458.247
1661.038, 8385.196
1662.966, 8430.990
1664.895, 8479.387
1666.823, 8448.066
1668.752, 8411.548
1670.680, 8384.721
1672.609, 8343.694
1674.537, 8297.715
1676.465, 8283.314
1678.394, 8282.410
1680.322, 8292.341
1682.251, 8276.565
1684.179, 8208.188
1686.108, 8198.668
1688.036, 8235.136
1689.965, 8233.509
1691.893, 8204.739
1693.822, 8147.516
1695.750, 8104.178
1697.679, 8091.844
1699.607, 8087.714
1701.536, 8086.271
1703.464, 8047.770
1705.392, 8011.040
1707.321, 8054.729
1709.249, 8068.444
1711.178, 8007.885
1713.106, 7956.472
1715.035, 7924.321
1716.963, 7904.604
1718.892, 7893.781
1720.820, 7897.900
1722.749, 7887.431
1724.677, 7850.927
1726.606, 7809.452
1728.534, 7769.479
1730.463, 7752.806
1732.391, 7752.386
1734.319, 7781.438
1736.248, 7772.293
1738.176, 7693.650
1740.105, 7644.344
1742.033, 7626.523
1743.962, 7590.775
1745.890, 7551.935
1747.819, 7528.303
1749.747, 7508.558
1751.676, 7488.028
1753.604, 7470.708
1755.533, 7453.708
1757.461, 7429.588
1759.390, 7398.336
1761.318, 7346.725
1763.246, 7325.740
1765.175, 7356.837
1767.103, 7307.889
1769.032, 7219.400
1770.960, 7235.162
1772.889, 7261.725
1774.817, 7219.500
1776.746, 7178.494
1778.674, 7147.130
1780.603, 7153.017
1782.531, 7170.717
1784.460, 7156.583
1786.388, 7123.273
1788.317, 7050.157
1790.245, 7046.278
1792.173, 7110.101
1794.102, 7058.961
1796.030, 6974.905
1797.959, 6949.151
1799.887, 6938.239
1801.816, 6928.960
1803.744, 6923.985
1805.673, 6918.551
1807.601, 6883.905
1809.530, 6855.698
1811.458, 6862.495
1813.387, 6859.885
1815.315, 6840.820
1817.244, 6812.739
1819.172, 6778.829
1821.100, 6748.233
1823.029, 6727.687
1824.957, 6722.621
1826.886, 6711.841
1828.814, 6693.575
1830.743, 6658.772
1832.671, 6627.715
1834.600, 6624.491
1836.528, 6605.605
1838.457, 6559.838
1840.385, 6526.052
1842.314, 6506.903
1844.242, 6497.788
1846.171, 6490.446
1848.099, 6485.227
1850.027, 6450.868
1851.956, 6397.515
1853.884, 6397.715
1855.813, 6408.422
1857.741, 6395.295
1859.670, 6347.358
1861.598, 6271.999
1863.527, 6266.234
1865.455, 6285.154
1867.384, 6258.406
1869.312, 6248.752
1871.241, 6278.866
1873.169, 6271.515
1875.098, 6229.336
1877.026, 6169.833
1878.954, 6131.695
1880.883, 6158.618
1882.811, 6117.125
1884.740, 6029.834
1886.668, 6029.961
1888.597, 6052.309
1890.525, 6045.491
1892.454, 6025.280
1894.382, 5997.034
1896.311, 5977.211
1898.239, 5960.258
1900.168, 5933.500
1902.096, 5907.707
1904.025, 5883.148
1905.953, 5877.745
1907.881, 5871.231
1909.810, 5785.250
1911.738, 5730.487
1913.667, 5783.177
1915.595, 5782.979
1917.524, 5748.005
1919.452, 5708.750
1921.381, 5669.317
1923.309, 5644.483
1925.238, 5627.494
1927.166, 5614.507
1929.095, 5601.510
1931.023, 5584.373
1932.952, 5571.056
1934.880, 5561.060
1936.808, 5546.705
1938.737, 5555.021
1940.665, 5548.896
1942.594, 5484.413
1944.522, 5453.764
1946.451, 5467.142
1948.379, 5463.503
1950.308, 5442.607
1952.236, 5384.167
1954.165, 5335.798
1956.093, 5315.396
1958.022, 5338.345
1959.950, 5363.203
1961.879, 5329.527
1963.807, 5291.708
1965.735, 5266.597
1967.664, 5249.917
1969.592, 5236.039
1971.521, 5224.804
1973.449, 5201.050
1975.378, 5165.432
1977.306, 5131.769
1979.235, 5109.206
1981.163, 5119.616
1983.092, 5110.754
1985.020, 5074.194
1986.949, 5059.758
1988.877, 5054.793
1990.806, 5051.191
1992.734, 5031.560
1994.662, 4991.947
1996.591, 4960.459
1998.519, 4932.202
2000.448, 4902.499
2002.376, 4876.901
2004.305, 4854.394
2006.233, 4819.889
2008.162, 4794.054
2010.090, 4821.452
2012.019, 4818.064
2013.947, 4772.189
2015.876, 4779.659
2017.804, 4794.313
2019.733, 4761.364
2021.661, 4721.005
2023.589, 4687.919
2025.518, 4676.146
2027.446, 4660.452
2029.375, 4622.904
2031.303, 4586.366
2033.232, 4558.782
2035.160, 4559.114
2037.089, 4565.124
2039.017, 4573.696
2040.946, 4537.522
2042.874, 4468.492
2044.803, 4419.489
2046.731, 4396.647
2048.659, 4416.886
2050.588, 4402.763
2052.516, 4365.070
2054.445, 4355.592
2056.373, 4350.158
2058.302, 4334.727
2060.230, 4314.300
2062.159, 4296.033
2064.087, 4295.113
2066.016, 4273.578
2067.944, 4226.803
2069.873, 4213.425
2071.801, 4217.256
2073.729, 4232.903
2075.658, 4213.167
2077.586, 4163.555
2079.515, 4167.456
2081.443, 4160.374
2083.372, 4086.262
2085.300, 4074.145
2087.229, 4101.142
2089.157, 4050.073
2091.086, 4026.860
2093.014, 4076.315
2094.943, 4049.456
2096.871, 3986.888
2098.800, 3970.396
2100.728, 3949.989
2102.656, 3916.862
2104.585, 3893.096
2106.513, 3882.060
2108.442, 3897.535
2110.370, 3895.533
2112.299, 3875.621
2114.227, 3851.674
2116.156, 3830.722
2118.084, 3816.874
2120.013, 3811.844
2121.941, 3806.000
2123.870, 3778.171
2125.798, 3749.522
2127.727, 3725.715
2129.655, 3726.721
2131.583, 3720.622
2133.512, 3657.095
2135.440, 3645.120
2137.369, 3678.392
2139.297, 3676.108
2141.226, 3658.013
2143.154, 3634.479
2145.083, 3606.131
2147.011, 3581.344
2148.940, 3588.980
2150.868, 3574.001
2152.797, 3522.486
2154.725, 3488.857
2156.654, 3464.778
2158.582, 3440.481
2160.510, 3449.376
2162.439, 3470.267
2164.367, 3469.767
2166.296, 3458.566
2168.224, 3430.722
2170.153, 3395.101
2172.081, 3366.274
2174.010, 3368.862
2175.938, 3368.385
2177.867, 3353.847
2179.795, 3334.640
2181.724, 3326.445
2183.652, 3327.613
2185.581, 3298.303
2187.509, 3261.323
2189.438, 3260.977
2191.366, 3239.207
2193.294, 3190.572
2195.223, 3180.077
2197.151, 3184.625
2199.080, 3196.919
2201.008, 3194.095
2202.937, 3184.069
2204.865, 3167.962
2206.794, 3145.845
2208.722, 3136.732
2210.651, 3149.224
2212.579, 3134.586
2214.508, 3069.546
2216.436, 3054.458
2218.365, 3062.443
2220.293, 3062.865
2222.221, 3057.326
2224.150, 3042.028
2226.078, 3009.801
2228.007, 2979.433
2229.935, 2967.840
2231.864, 2979.062
2233.792, 2977.362
2235.721, 2929.421
2237.649, 2910.342
2239.578, 2916.009
2241.506, 2895.877
2243.435, 2891.489
2245.363, 2902.069
2247.292, 2881.844
2249.220, 2856.605
2251.148, 2818.066
2253.077, 2801.520
2255.005, 2801.314
2256.934, 2807.908
2258.862, 2788.867
2260.791, 2753.787
2262.719, 2751.780
2264.648, 2749.654
2266.576, 2728.271
2268.505, 2722.140
2270.433, 2722.918
2272.362, 2700.764
2274.290, 2677.657
2276.219, 2666.429
2278.147, 2658.796
2280.075, 2659.857
2282.004, 2663.329
2283.932, 2621.767
2285.861, 2594.156
2287.789, 2594.737
2289.718, 2575.834
2291.646, 2557.674
2293.575, 2543.127
2295.503, 2526.305
2297.432, 2513.866
2299.360, 2510.197
2301.289, 2492.937
2303.217, 2464.335
2305.146, 2463.447
2307.074, 2476.131
2309.002, 2450.038
2310.931, 2425.210
2312.859, 2415.391
2314.788, 2395.513
2316.716, 2389.507
2318.645, 2392.376
2320.573, 2371.591
2322.502, 2365.150
2324.430, 2365.605
2326.359, 2332.126
2328.287, 2323.911
2330.216, 2343.781
2332.144, 2314.568
2334.073, 2300.944
2336.001, 2286.523
2337.929, 2271.315
2339.858, 2273.487
2341.786, 2267.008
2343.715, 2236.805
2345.643, 2211.094
2347.572, 2198.977
2349.500, 2199.232
2351.429, 2215.248
2353.357, 2192.992
2355.286, 2173.105
2357.214, 2177.087
2359.143, 2149.490
2361.071, 2132.457
2363.000, 2155.470
2364.928, 2152.688
2366.856, 2123.629
2368.785, 2093.720
2370.713, 2088.305
2372.642, 2080.492
2374.570, 2075.708
2376.499, 2074.527
2378.427, 2053.943
2380.356, 2046.888
2382.284, 2044.506
2384.213, 2022.084
2386.141, 2015.814
2388.070, 2013.583
2389.998, 1987.094
2391.927, 1978.276
2393.855, 1981.425
2395.783, 1958.316
2397.712, 1934.482
2399.640, 1945.919
2401.569, 1974.158
2403.497, 1946.452
2405.426, 1911.563
2407.354, 1910.511
2409.283, 1885.250
2411.211, 1864.721
2413.140, 1862.315
2415.068, 1847.951
2416.997, 1833.093
2418.925, 1828.507
2420.854, 1826.813
2422.782, 1807.528
2424.710, 1785.306
2426.639, 1788.481
2428.567, 1798.996
2430.496, 1791.550
2432.424, 1774.914
2434.353, 1763.724
2436.281, 1768.022
2438.210, 1766.585
2440.138, 1754.321
2442.067, 1739.280
2443.995, 1725.200
2445.924, 1706.367
2447.852, 1707.114
2449.781, 1695.026
2451.709, 1684.978
2453.637, 1677.090
2455.566, 1662.931
2457.494, 1658.393
2459.423, 1650.896
2461.351, 1642.796
2463.280, 1615.053
2465.208, 1599.522
2467.137, 1597.047
2469.065, 1604.060
2470.994, 1596.563
2472.922, 1586.343
2474.851, 1581.724
2476.779, 1574.453
2478.708, 1558.397
2480.636, 1533.039
2482.564, 1523.796
2484.493, 1518.926
2486.421, 1509.706
2488.350, 1519.796
2490.278, 1530.931
2492.207, 1517.857
2494.135, 1497.282
2496.064, 1476.503
2497.992, 1473.273
2499.921, 1459.108
2501.849, 1440.261
2503.778, 1434.373
2505.706, 1445.272
2507.635, 1444.327
2509.563, 1424.394
2511.491, 1426.583
2513.420, 1434.529
2515.348, 1414.829
2517.277, 1399.589
2519.205, 1410.015
2521.134, 1412.033
2523.062, 1394.200
2524.991, 1375.534
2526.919, 1365.748
2528.848, 1354.302
2530.776, 1341.302
2532.705, 1315.660
2534.633, 1308.839
2536.562, 1320.388
2538.490, 1306.546
2540.418, 1298.627
2542.347, 1295.970
2544.275, 1288.588
2546.204, 1286.475
2548.132, 1291.773
2550.061, 1287.110
2551.989, 1272.567
2553.918, 1252.515
2555.846, 1243.383
2557.775, 1229.094
2559.703, 1220.476
2561.632, 1240.801
2563.560, 1239.812
2565.489, 1219.149
2567.417, 1206.270
2569.345, 1196.354
2571.274, 1187.734
2573.202, 1169.323
2575.131, 1174.814
2577.059, 1184.388
2578.988, 1153.811
2580.916, 1142.776
2582.845, 1144.604
2584.773, 1138.523
2586.702, 1131.662
2588.630, 1125.669
2590.559, 1114.105
2592.487, 1111.219
2594.416, 1110.093
2596.344, 1107.309
2598.272, 1096.201
2600.201, 1085.621
2602.129, 1092.054
2604.058, 1077.827
2605.986, 1066.048
2607.915, 1080.894
2609.843, 1080.554
2611.772, 1068.008
2613.700, 1047.167
2615.629, 1040.913
2617.557, 1041.391
2619.486, 1042.588
2621.414, 1027.326
2623.343, 1009.304
2625.271, 995.9706
2627.199, 992.8796
2629.128, 988.6633
2631.056, 981.2022
2632.985, 987.3564
2634.913, 981.0457
2636.842, 961.3632
2638.770, 951.6655
2640.699, 951.2695
2642.627, 955.2729
2644.556, 944.7780
2646.484, 945.9890
2648.413, 951.2130
2650.341, 928.2518
2652.270, 919.8453
2654.198, 916.0393
2656.126, 892.0619
2658.055, 882.8011
2659.983, 880.9998
2661.912, 889.5363
2663.840, 891.6537
2665.769, 887.4882
2667.697, 879.6732
2669.626, 878.9017
2671.554, 877.5321
2673.483, 869.2245
2675.411, 862.2086
2677.340, 855.2640
2679.268, 849.8199
2681.197, 841.2388
2683.125, 826.8554
2685.053, 818.9247
2686.982, 829.0695
2688.910, 832.0239
2690.839, 828.7618
2692.767, 806.2764
2694.696, 791.3929
2696.624, 789.5798
2698.553, 787.6256
2700.481, 776.4912
2702.410, 770.8718
2704.338, 769.1526
2706.267, 773.9296
2708.195, 777.0289
2710.124, 767.0811
2712.052, 749.3323
2713.980, 749.9791
2715.909, 756.5487
2717.837, 737.4953
2719.766, 737.7994
2721.694, 750.8162
2723.623, 735.1177
2725.551, 731.1670
2727.480, 726.8929
2729.408, 705.4418
2731.337, 702.4441
2733.265, 703.6113
2735.194, 703.3452
2737.122, 690.2223
2739.051, 688.7450
2740.979, 693.0457
2742.907, 693.8643
2744.836, 680.8320
2746.764, 662.9084
2748.693, 675.3621
2750.621, 678.6608
2752.550, 670.5074
2754.478, 666.8376
2756.407, 658.2061
2758.335, 647.5575
2760.264, 642.6182
2762.192, 636.0206
2764.121, 630.1455
2766.049, 627.8715
2767.978, 611.4655
2769.906, 626.0309
2771.834, 627.0265
2773.763, 596.9070
2775.691, 581.8445
2777.620, 580.5983
2779.548, 616.1876
2781.477, 614.4141
2783.405, 601.4227
2785.334, 598.3809
2787.262, 583.2454
2789.191, 576.0869
2791.119, 577.7271
2793.048, 586.4517
2794.976, 578.2576
2796.905, 561.2188
2798.833, 560.1337
2800.761, 561.5108
2802.690, 547.2094
2804.618, 541.6078
2806.547, 535.4293
2808.475, 541.8763
2810.404, 547.0950
2812.332, 542.2980
2814.261, 537.0543
2816.189, 536.1482
2818.118, 544.3668
2820.046, 542.3453
2821.975, 534.4838
2823.903, 519.2226
2825.832, 517.4578
2827.760, 520.0211
2829.688, 510.5728
2831.617, 493.7194
2833.545, 502.3700
2835.474, 511.3080
2837.402, 500.5713
2839.331, 494.0013
2841.259, 487.6593
2843.188, 481.5546
2845.116, 487.7379
2847.045, 483.8931
2848.973, 478.0199
2850.902, 483.3541
2852.830, 477.7392
2854.759, 470.9619
2856.687, 470.4003
2858.615, 471.1287
2860.544, 464.7731
2862.472, 462.8572
2864.401, 454.0406
2866.329, 457.0455
2868.258, 449.9657
2870.186, 446.0979
2872.115, 446.4858
2874.043, 425.1111
2875.972, 417.5244
2877.900, 427.7263
2879.829, 430.1981
2881.757, 424.9953
2883.686, 424.8771
2885.614, 414.0745
2887.542, 403.0215
2889.471, 410.8197
2891.399, 410.4324
2893.328, 405.3495
2895.256, 406.8822
2897.185, 400.7583
2899.113, 397.5826
2901.042, 395.6108
2902.970, 395.7328
2904.899, 394.4007
2906.827, 379.3743
2908.756, 369.6312
2910.684, 369.6479
2912.613, 372.2457
2914.541, 379.5154
2916.469, 385.4290
2918.398, 381.7016
2920.326, 378.4632
2922.255, 379.5187
2924.183, 373.1600
2926.112, 363.9081
2928.040, 367.6878
2929.969, 363.8513
2931.897, 344.7025
2933.826, 343.7355
2935.754, 349.5932
2937.683, 354.5215
2939.611, 349.9058
2941.540, 340.2641
2943.468, 331.3585
2945.396, 332.0905
2947.325, 333.5633
2949.253, 326.2053
2951.182, 320.3977
2953.110, 324.0520
2955.039, 327.8194
2956.967, 330.0304
2958.896, 324.4021
2960.824, 319.7382
2962.753, 308.9865
2964.681, 297.8651
2966.610, 307.2198
2968.538, 306.5574
2970.467, 303.6204
2972.395, 305.3665
2974.323, 305.4853
2976.252, 295.8096
2978.180, 289.9049
2980.109, 286.6821
2982.037, 289.5830
2983.966, 281.0666
2985.894, 270.1187
2987.823, 273.9794
2989.751, 277.8989
2991.680, 282.5276
2993.608, 283.2807
2995.537, 275.0929
2997.465, 278.6820
2999.394, 273.7762
3001.322, 262.4866
3003.250, 257.3566
3005.179, 259.0827
3007.107, 259.5643
3009.036, 260.0607
3010.964, 264.2032
3012.893, 260.0009
3014.821, 247.0866
3016.750, 246.3894
3018.678, 254.6182
3020.607, 257.4251
3022.535, 251.3036
3024.464, 237.8434
3026.392, 233.0937
3028.321, 239.4588
3030.249, 247.2538
3032.177, 240.7182
3034.106, 232.5968
3036.034, 229.4821
3037.963, 230.6100
3039.891, 231.4855
3041.820, 233.8369
3043.748, 235.0390
3045.677, 238.7968
3047.605, 228.6635
3049.534, 223.3483
3051.462, 228.1703
3053.391, 228.0423
3055.319, 219.7088
3057.248, 213.6673
3059.176, 211.6793
3061.104, 230.4051
3063.033, 231.0925
3064.961, 221.9953
3066.890, 213.7905
3068.818, 197.2032
3070.747, 205.6977
3072.675, 221.3604
3074.604, 206.3161
3076.532, 207.6599
3078.461, 202.0775
3080.389, 190.9324
3082.318, 191.2493
3084.246, 198.6117
3086.175, 197.0957
3088.103, 192.1137
3090.031, 200.2583
3091.960, 190.1902
3093.888, 182.8776
3095.817, 182.6466
3097.745, 175.6851
3099.674, 178.5352
3101.602, 182.1471
3103.531, 180.5359
3105.459, 171.2417
3107.388, 174.7852
3109.316, 181.1606
3111.245, 181.8828
3113.173, 175.5752
3115.102, 175.8594
3117.030, 175.6819
3118.958, 171.9061
3120.887, 163.5087
3122.815, 171.6409
3124.744, 176.5713
3126.672, 169.9433
3128.601, 167.6489
3130.529, 162.0309
3132.458, 163.8543
3134.386, 172.3031
3136.315, 166.7273
3138.243, 169.0151
3140.172, 165.8698
3142.100, 154.9540
3144.029, 150.1392
3145.957, 144.5366
3147.885, 148.3738
3149.814, 158.6929
3151.742, 153.3787
3153.671, 149.7346
3155.599, 152.2695
3157.528, 156.2407
3159.456, 147.2413
3161.385, 138.3264
3163.313, 143.6721
3165.242, 156.4792
3167.170, 154.4902
3169.099, 147.6080
3171.027, 143.8282
3172.956, 142.2409
3174.884, 136.5417
3176.813, 137.4883
3178.741, 133.6794
3180.669, 132.9889
3182.598, 149.1300
3184.526, 141.9954
3186.455, 128.7063
3188.383, 123.9809
3190.312, 136.7271
3192.240, 127.7835
3194.169, 125.7127
3196.097, 128.7434
3198.026, 130.2601
3199.954, 135.9178
3201.883, 133.2006
3203.811, 130.1894
3205.740, 129.2741
3207.668, 119.2130
3209.596, 114.5073
3211.525, 117.0359
3213.453, 120.8983
3215.382, 116.9396
3217.310, 128.1214
3219.239, 124.0808
3221.167, 116.4456
3223.096, 128.2359
3225.024, 126.3828
3226.953, 116.6942
3228.881, 113.7728
3230.810, 119.5395
3232.738, 126.0130
3234.667, 116.3341
3236.595, 113.9468
3238.523, 123.2383
3240.452, 122.6334
3242.380, 113.2904
3244.309, 106.8634
3246.237, 106.7498
3248.166, 109.3526
3250.094, 110.7698
3252.023, 114.6196
3253.951, 118.4294
3255.880, 118.3079
3257.808, 113.8693
3259.737, 107.3539
3261.665, 108.4893
3263.594, 114.0743
3265.522, 107.4248
3267.450, 106.4980
3269.379, 109.2604
3271.307, 110.5341
3273.236, 108.5408
3275.164, 110.2238
3277.093, 106.6382
3279.021, 107.5577
3280.950, 112.4185
3282.878, 101.2897
3284.807, 109.5426
3286.735, 106.7329
3288.664, 94.26125
3290.592, 93.15503
3292.520, 94.87218
3294.449, 99.93979
3296.377, 104.8666
3298.306, 105.6287
3300.234, 98.10825
3302.163, 104.5144
3304.091, 101.4988
3306.020, 93.03397
3307.948, 103.4104
3309.876, 103.8607
3311.805, 102.8871
3313.733, 101.8384
3315.662, 97.04648
3317.590, 87.76154
3319.519, 84.59621
3321.447, 89.47395
3323.376, 92.44002
3325.304, 86.87743
3327.233, 89.49442
3329.161, 85.46337
3331.090, 83.41139
3333.018, 86.92313
3334.947, 88.06573
3336.875, 86.98026
3338.803, 91.49747
3340.732, 93.26988
3342.660, 85.00835
3344.589, 77.69978
3346.517, 83.63367
3348.446, 84.72146
3350.374, 81.24551
3352.303, 80.87707
3354.231, 85.00476
3356.160, 87.66169
3358.088, 85.98834
3360.017, 83.14386
3361.945, 91.38245
3363.874, 84.62508
3365.802, 74.82295
3367.730, 72.27052
3369.659, 76.43864
3371.587, 82.23340
3373.516, 85.73694
3375.444, 84.74576
3377.373, 75.53126
3379.301, 62.33263
3381.230, 84.79124
3383.158, 82.38586
3385.087, 70.07864
3387.015, 65.39843
3388.944, 76.69863
3390.872, 67.93004
3392.801, 65.51530
3394.729, 68.39977
3396.657, 73.03506
3398.586, 77.51714
3400.514, 68.93935
3402.443, 72.81459
3404.371, 77.16364
3406.300, 76.54605
3408.228, 80.96367
3410.157, 81.73212
3412.085, 77.81137
3414.014, 72.89968
3415.942, 69.33476
3417.871, 65.72705
3419.799, 67.51105
3421.728, 68.62671
3423.656, 73.22245
3425.584, 78.60166
3427.513, 70.21178
3429.441, 69.20043
3431.370, 62.62691
3433.298, 57.50938
3435.227, 61.59664
3437.155, 75.66791
3439.084, 68.54002
3441.012, 59.89015
3442.941, 61.74213
3444.869, 69.47449
3446.798, 67.12576
3448.726, 66.29361
3450.655, 69.76540
3452.583, 74.74706
3454.511, 75.02909
3456.440, 64.99767
3458.368, 59.88986
3460.297, 65.75300
3462.225, 62.22329
3464.154, 53.32441
3466.082, 56.76929
3468.011, 64.70979
3469.939, 42.74148
3471.868, 54.02690
3473.796, 76.17828
3475.725, 63.87706
3477.653, 60.04661
3479.582, 53.91028
3481.510, 62.70799
3483.438, 68.21568
3485.367, 57.66183
3487.295, 58.67596
3489.224, 59.36971
3491.152, 61.06473
3493.081, 60.13176
3495.009, 57.87922
3496.938, 62.70937
3498.866, 74.66808
3500.795, 67.79168
3502.723, 62.36621
3504.652, 64.57883
3506.580, 67.05494
3508.509, 74.97929
3510.437, 71.79475
3512.365, 63.53494
3514.294, 57.92329
3516.222, 60.09901
3518.151, 72.55062
3520.079, 66.23440
3522.008, 70.69097
3523.936, 71.72560
3525.865, 65.57130
3527.793, 63.60978
3529.722, 62.01149
3531.650, 63.73816
3533.579, 67.80191
3535.507, 70.20216
3537.436, 68.74593
3539.364, 66.51508
3541.292, 80.59622
3543.221, 79.16315
3545.149, 70.10792
3547.078, 63.31223
3549.006, 59.94237
3550.935, 52.72948
3552.863, 60.67535
3554.792, 60.41920
3556.720, 55.85153
3558.649, 56.03271
3560.577, 61.12575
3562.506, 66.08681
3564.434, 61.40937
3566.363, 59.73800
3568.291, 61.40247
3570.219, 62.10071
3572.148, 64.52960
3574.076, 76.48466
3576.005, 52.19753
3577.933, 52.07232
3579.862, 69.80881
3581.790, 60.44073
3583.719, 58.03564
3585.647, 47.38296
3587.576, 54.03728
3589.504, 62.45564
3591.433, 61.88622
3593.361, 56.21291
3595.290, 50.09159
3597.218, 51.34376
3599.146, 41.27767
3601.075, 38.78216
3603.003, 45.29154
3604.932, 41.75299
3606.860, 51.33443
3608.789, 51.98679
3610.717, 49.46459
3612.646, 50.24451
3614.574, 49.61526
3616.503, 38.85641
3618.431, 32.89365
3620.360, 39.46590
3622.288, 46.68307
3624.217, 53.01342
3626.145, 56.48140
3628.073, 53.50526
3630.002, 50.38816
3631.930, 54.26303
3633.859, 46.78104
3635.787, 46.13679
3637.716, 49.07133
3639.644, 39.57599
3641.573, 38.67254
3643.501, 52.52188
3645.430, 52.32677
3647.358, 48.39431
3649.287, 44.49186
3651.215, 38.04214
3653.144, 37.65627
3655.072, 37.38875
3657.000, 34.39642
3658.929, 47.90637
3660.857, 56.61988
3662.786, 48.25137
3664.714, 46.39257
3666.643, 55.41246
3668.571, 49.19377
3670.500, 46.06487
3672.428, 40.97433
3674.357, 37.15498
3676.285, 44.33257
3678.214, 42.35680
3680.142, 31.65779
3682.071, 37.36057
3683.999, 45.70984
3685.927, 46.74313
3687.856, 42.79914
3689.784, 41.55129
3691.713, 39.78799
3693.641, 36.68667
3695.570, 38.15565
3697.498, 37.18906
3699.427, 34.56635
3701.355, 36.95909
3703.284, 44.21132
3705.212, 34.71460
3707.141, 23.10718
3709.069, 30.04089
3710.998, 38.64574
3712.926, 38.92365
3714.854, 40.54758
3716.783, 43.00946
3718.711, 35.02846
3720.640, 45.90163
3722.568, 45.85076
3724.497, 38.86786
3726.425, 41.85921
3728.354, 56.03852
3730.282, 49.38501
3732.211, 46.82236
3734.139, 50.87894
3736.068, 44.59199
3737.996, 37.25394
3739.925, 38.32227
3741.853, 40.72739
3743.781, 39.81886
3745.710, 46.04062
3747.638, 40.20491
3749.567, 45.49348
3751.495, 41.40485
3753.424, 26.43794
3755.352, 32.73668
3757.281, 45.60788
3759.209, 30.94636
3761.138, 31.55251
3763.066, 37.39753
3764.995, 36.59526
3766.923, 33.23216
3768.852, 34.80841
3770.780, 34.13467
3772.708, 31.05264
3774.637, 41.51165
3776.565, 39.76405
3778.494, 32.62869
3780.422, 32.44630
3782.351, 39.40390
3784.279, 44.10344
3786.208, 30.89898
3788.136, 36.05182
3790.065, 42.09675
3791.993, 40.82189
3793.922, 39.88127
3795.850, 44.23014
3797.779, 50.47109
3799.707, 53.88260
3801.635, 44.17801
3803.564, 37.02899
3805.492, 26.03728
3807.421, 36.62018
3809.349, 54.56115
3811.278, 56.74551
3813.206, 46.26042
3815.135, 40.32157
3817.063, 43.81375
3818.992, 34.87636
3820.920, 37.63533
3822.849, 46.02043
3824.777, 42.72383
3826.706, 35.53310
3828.634, 45.30986
3830.563, 39.14070
3832.491, 33.11435
3834.419, 32.60482
3836.348, 45.59606
3838.276, 45.93087
3840.205, 44.40039
3842.133, 44.98978
3844.062, 29.29591
3845.990, 35.82096
3847.919, 47.02552
3849.847, 28.15881
3851.776, 28.69456
3853.704, 38.39155
3855.633, 39.62721
3857.561, 33.64561
3859.490, 29.13676
3861.418, 26.13869
3863.346, 30.32013
3865.275, 45.84216
3867.203, 39.43063
3869.132, 44.27142
3871.060, 37.62490
3872.989, 36.97550
3874.917, 54.13585
3876.846, 49.25161
3878.774, 39.77488
3880.703, 38.57998
3882.631, 41.00032
3884.560, 35.50224
3886.488, 34.40040
3888.417, 41.38881
3890.345, 44.15415
3892.273, 37.05857
3894.202, 33.62667
3896.130, 38.03524
3898.059, 41.07238
3899.987, 43.33173
3901.916, 41.55547
3903.844, 41.01711
3905.773, 48.49266
3907.701, 54.30584
3909.630, 48.32471
3911.558, 37.07540
3913.487, 26.20162
3915.415, 44.92373
3917.344, 61.91262
3919.272, 45.36655
3921.200, 39.00453
3923.129, 44.45751
3925.057, 41.37080
3926.986, 32.88584
3928.914, 34.88293
3930.843, 36.60744
3932.771, 33.36521
3934.700, 47.92973
3936.628, 50.77263
3938.557, 38.51900
3940.485, 34.73918
3942.414, 38.54535
3944.342, 39.12195
3946.271, 37.39243
3948.199, 39.43892
3950.127, 39.80672
3952.056, 41.87776
3953.984, 32.55548
3955.913, 43.57988
3957.841, 47.44276
3959.770, 54.15179
3961.698, 51.51925
3963.627, 42.98247
3965.555, 42.69517
3967.484, 46.18339
3969.412, 42.74147
3971.341, 43.91893
3973.269, 38.80800
3975.198, 35.51186
3977.126, 43.73143
3979.054, 30.36981
3980.983, 24.88073
3982.911, 39.38343
3984.840, 40.86384
3986.768, 27.18479
3988.697, 37.29544
3990.625, 39.29709
3992.554, 42.10122
3994.482, 48.24252
3996.411, 30.30300
3998.339, 44.11011
4000.268, 51.00498
4002.196, 39.73690
4004.125, 39.72580
4006.053, 45.18147
4007.981, 39.29316
4009.910, 36.95528
4011.838, 42.35819
4013.767, 40.69635
4015.695, 23.04375
4017.624, 37.92162
4019.552, 37.33971
4021.481, 41.20549
4023.409, 38.97489
4025.338, 31.74476
4027.266, 32.36815
4029.195, 38.57887
4031.123, 35.81223
4033.052, 25.90861
4034.980, 43.59448
4036.908, 55.34639
4038.837, 37.29938
4040.765, 47.63060
4042.694, 40.34734
4044.622, 32.34838
4046.551, 44.36651
4048.479, 41.97848
4050.408, 41.24432
4052.336, 48.73272
4054.265, 52.23812
4056.193, 57.30939
4058.122, 57.97606
4060.050, 51.71973
4061.979, 38.45044
4063.907, 42.59478
4065.835, 41.90836
4067.764, 37.51822
4069.692, 36.12588
4071.621, 42.59983
4073.549, 47.87728
4075.478, 44.92331
4077.406, 47.12597
4079.335, 55.71638
4081.263, 53.56304
4083.192, 39.63679
4085.120, 31.16409
4087.049, 44.22094
4088.977, 50.09089
4090.906, 34.22950
4092.834, 72.37749
4094.762, 52.90238
4096.691, 190.0085
4098.619, 107.1304
4100.548, 56.28535
4102.476, 66.54915
4104.405, 49.98497
4106.333, 49.12210
4108.262, 55.85465
4110.190, 40.26747
4112.119, 61.13459
4114.047, 60.38598
4115.976, 45.95002
4117.904, 45.13489
4119.833, 46.14887
4121.761, 49.10530
4123.689, 44.19076
4125.618, 48.39230
4127.546, 52.03862
4129.475, 45.21279
4131.403, 49.84346
4133.332, 52.58496
4135.260, 47.80530
4137.188, 47.96045
4139.117, 51.64224
4141.045, 53.32292
4142.974, 55.67816
4144.902, 52.10744
4146.831, 46.32247
4148.759, 46.78713
4150.688, 35.47421
4152.616, 38.27533
4154.545, 38.56921
4156.473, 51.30314
4158.402, 53.50615
4160.330, 47.08134
4162.259, 43.41709
4164.187, 49.26906
4166.116, 36.43711
4168.044, 43.94297
4169.973, 50.12901
4171.901, 52.66453
4173.830, 68.78207
4175.758, 64.34900
4177.687, 50.21653
4179.615, 55.66290
4181.543, 46.21887
4183.472, 54.50811
4185.400, 56.70504
4187.329, 61.17417
4189.257, 52.37310
4191.186, 53.72750
4193.114, 36.07841
4195.042, 40.43860
4196.971, 47.67281
4198.899, 59.30961
4200.828, 58.84911
4202.756, 48.02797
4204.685, 50.11243
4206.613, 48.26391
4208.542, 55.74601
4210.470, 50.51768
4212.399, 52.57851
4214.327, 49.17200
4216.256, 39.40792
4218.184, 63.08859
4220.113, 66.84512
4222.041, 53.03017
4223.970, 59.19510
4225.898, 67.63064
4227.827, 59.35244
4229.755, 60.13190
4231.684, 61.16360
4233.612, 57.28078
4235.541, 45.91012
4237.469, 57.00927
4239.397, 56.78645
4241.326, 55.94466
4243.254, 52.07785
4245.183, 60.16078
4247.111, 61.44392
4249.040, 54.75427
4250.968, 49.72656
4252.896, 47.53860
4254.825, 54.55077
4256.753, 50.64116
4258.682, 67.18275
4260.610, 58.26052
4262.539, 48.90194
4264.467, 51.58559
4266.396, 44.62331
4268.324, 51.01804
4270.253, 58.63827
4272.181, 54.52036
4274.110, 52.74749
4276.038, 46.46727
4277.967, 56.77386
4279.895, 70.97599
4281.824, 64.93058
4283.752, 59.06993
4285.681, 51.07676
4287.609, 55.37261
4289.538, 76.58695
4291.466, 72.75475
4293.395, 64.14783
4295.323, 65.80810
4297.251, 48.68549
4299.180, 71.40855
4301.108, 68.03603
4303.037, 66.08654
4304.965, 59.68431
4306.894, 62.24367
4308.822, 60.57722
4310.750, 61.09856
4312.679, 64.11940
4314.607, 54.52181
4316.536, 64.10388
4318.464, 52.10210
4320.393, 62.66669
4322.321, 55.70612
4324.250, 67.78142
4326.178, 61.32969
4328.107, 60.34414
##END=



