##NAMES=Alumohydrocalcite
##RRUFFID=R070516
##IDEAL CHEMISTRY=CaAl_2_(CO_3_)_2_(OH)_4_·4H_2_O
##LOCALITY=Mount Hamiliton, Santa Clara County, California, USA
##OWNER=RRUFF
##SOURCE=James Shigley
##DESCRIPTION=Radial aggregates of light pink fibers associated with green massive dolomite
##STATUS=The identification of this mineral is not yet confirmed
##URL=https://www.rruff.net/odr/rruff_sample/R070516
##FILETYPE=Raman RAW
##RAMAN WAVELENGTH=532

101.1826, 10.84616
103.1110, 8.840418
105.0395, 8.079511
106.9680, 10.46806
108.8964, 14.37564
110.8249, 15.84638
112.7534, 13.64352
114.6818, 10.17706
116.6103, 6.613369
118.5388, 1.770167
120.4672, -1.421837
122.3957, -2.954144
124.3242, -2.715672
126.2526, -0.6778931
128.1811, 6.315705
130.1096, 13.30833
132.0380, 17.35567
133.9665, 17.95906
135.8950, 17.42532
137.8234, 14.93431
139.7519, 10.42115
141.6804, 8.997660
143.6088, 13.56474
145.5373, 19.08929
147.4658, 20.64985
149.3942, 18.14902
151.3227, 16.43902
153.2512, 17.00338
155.1796, 19.69905
157.1081, 20.39818
159.0366, 17.34088
160.9650, 13.94664
162.8935, 12.49650
164.8220, 14.55726
166.7504, 16.25861
168.6789, 16.80163
170.6074, 16.37957
172.5358, 16.09880
174.4643, 16.05699
176.3928, 16.10601
178.3212, 16.18889
180.2497, 16.19456
182.1782, 16.52297
184.1066, 17.57577
186.0351, 19.22982
187.9636, 20.32267
189.8920, 20.86748
191.8205, 20.75249
193.7490, 19.64826
195.6774, 17.01017
197.6059, 14.67055
199.5344, 13.04666
201.4628, 12.13202
203.3913, 12.16091
205.3198, 13.87352
207.2482, 16.08081
209.1767, 17.54636
211.1052, 17.92463
213.0336, 17.97945
214.9621, 17.93841
216.8906, 18.04591
218.8190, 17.87165
220.7475, 16.98919
222.6760, 15.89939
224.6044, 15.21558
226.5329, 15.53226
228.4614, 15.75165
230.3898, 15.67035
232.3183, 15.27015
234.2468, 14.66209
236.1752, 13.11596
238.1037, 11.72074
240.0322, 11.51924
241.9606, 14.22256
243.8891, 16.30580
245.8176, 16.67914
247.7460, 15.79930
249.6745, 15.50351
251.6030, 17.02081
253.5314, 18.56527
255.4599, 18.61831
257.3884, 16.63062
259.3168, 15.19885
261.2453, 15.53053
263.1738, 17.20187
265.1022, 17.93333
267.0307, 16.89868
268.9592, 15.63406
270.8876, 15.00453
272.8161, 15.04795
274.7446, 15.36632
276.6730, 15.96502
278.6015, 16.71858
280.5300, 17.42550
282.4584, 18.57727
284.3869, 19.30398
286.3154, 19.11119
288.2438, 17.75438
290.1723, 16.56594
292.1008, 15.51893
294.0292, 14.79893
295.9577, 14.67752
297.8862, 15.33688
299.8146, 16.27734
301.7431, 17.56017
303.6716, 19.74990
305.6000, 20.33429
307.5285, 17.91670
309.4570, 14.68452
311.3854, 12.90281
313.3139, 12.96686
315.2424, 13.71620
317.1708, 15.21405
319.0993, 17.39208
321.0278, 18.54870
322.9562, 17.54281
324.8847, 16.46118
326.8132, 16.45534
328.7416, 18.29367
330.6701, 19.53834
332.5986, 19.82144
334.5270, 19.18428
336.4555, 18.36002
338.3840, 17.32966
340.3124, 16.39923
342.2409, 15.41832
344.1694, 14.05030
346.0978, 13.36106
348.0263, 13.75349
349.9548, 14.58220
351.8832, 15.52798
353.8117, 16.85788
355.7402, 18.18909
357.6686, 19.20096
359.5971, 19.71980
361.5256, 20.10757
363.4540, 20.87440
365.3825, 21.14048
367.3110, 20.28535
369.2394, 17.26894
371.1679, 15.37067
373.0964, 15.47469
375.0248, 17.36632
376.9533, 19.00492
378.8818, 20.62594
380.8102, 21.30100
382.7387, 20.95660
384.6672, 19.22822
386.5956, 17.89383
388.5241, 16.86719
390.4526, 16.40190
392.3810, 16.05511
394.3095, 15.61128
396.2380, 15.53409
398.1664, 16.50468
400.0949, 18.12573
402.0234, 19.00472
403.9518, 18.95560
405.8803, 18.94515
407.8088, 18.39367
409.7372, 16.83747
411.6657, 15.80153
413.5942, 16.38266
415.5226, 17.61704
417.4511, 18.09339
419.3796, 17.43649
421.3080, 17.31694
423.2365, 18.25565
425.1650, 20.31120
427.0934, 21.21340
429.0219, 19.62270
430.9504, 16.95654
432.8788, 15.85069
434.8073, 16.90830
436.7358, 18.70061
438.6642, 20.42489
440.5927, 20.78357
442.5212, 19.72506
444.4496, 15.92177
446.3781, 13.87190
448.3066, 14.91826
450.2350, 17.77131
452.1635, 19.51606
454.0920, 19.30182
456.0204, 18.53324
457.9489, 17.38623
459.8774, 15.71251
461.8058, 14.93836
463.7343, 16.02148
465.6628, 18.14581
467.5912, 19.50457
469.5197, 19.17445
471.4482, 17.93208
473.3766, 17.09460
475.3051, 17.07569
477.2336, 17.17543
479.1620, 16.37190
481.0905, 15.85378
483.0190, 16.44143
484.9474, 18.38019
486.8759, 20.02449
488.8044, 21.87088
490.7328, 23.32298
492.6613, 23.27836
494.5898, 21.21747
496.5182, 19.17654
498.4467, 18.70687
500.3752, 19.44660
502.3036, 20.29733
504.2321, 21.09575
506.1606, 20.86871
508.0891, 19.71530
510.0175, 18.39770
511.9460, 18.29085
513.8745, 18.65933
515.8029, 18.78273
517.7314, 19.41319
519.6599, 21.04449
521.5883, 22.37474
523.5168, 22.51225
525.4453, 22.17575
527.3737, 21.98736
529.3022, 22.09322
531.2307, 22.24104
533.1591, 22.35872
535.0876, 22.37642
537.0161, 22.40903
538.9445, 22.91889
540.8730, 23.29263
542.8015, 22.14102
544.7299, 19.47391
546.6584, 18.05445
548.5869, 20.16833
550.5153, 21.97067
552.4438, 21.99291
554.3723, 20.86881
556.3007, 20.55949
558.2292, 20.65452
560.1577, 20.87865
562.0861, 21.21580
564.0146, 21.83562
565.9431, 22.31943
567.8715, 22.38871
569.8000, 22.65586
571.7285, 23.82328
573.6569, 26.33928
575.5854, 26.17559
577.5139, 22.65241
579.4423, 18.05072
581.3708, 17.03251
583.2993, 18.44549
585.2277, 19.48609
587.1562, 19.83998
589.0847, 20.47845
591.0131, 22.43745
592.9416, 24.59777
594.8701, 25.26743
596.7985, 23.59151
598.7270, 21.61356
600.6555, 21.17176
602.5839, 21.87755
604.5124, 22.49372
606.4409, 22.48269
608.3693, 21.39687
610.2978, 20.66898
612.2263, 20.91373
614.1547, 21.49322
616.0832, 21.31761
618.0117, 20.79326
619.9401, 20.75237
621.8686, 21.12512
623.7971, 21.62480
625.7255, 22.57157
627.6540, 23.73804
629.5825, 24.01555
631.5109, 23.05320
633.4394, 22.12884
635.3679, 22.01841
637.2963, 21.82188
639.2248, 20.98000
641.1533, 19.39244
643.0817, 18.84845
645.0102, 20.43580
646.9387, 22.56842
648.8671, 24.11298
650.7956, 25.34572
652.7241, 26.74734
654.6525, 26.10581
656.5810, 22.35714
658.5095, 19.34707
660.4379, 19.15890
662.3664, 21.50017
664.2949, 23.06987
666.2233, 23.43398
668.1518, 23.53962
670.0803, 23.96045
672.0087, 24.19432
673.9372, 24.69913
675.8657, 25.99131
677.7941, 26.65420
679.7226, 24.70138
681.6511, 20.81183
683.5795, 18.35573
685.5080, 19.01075
687.4365, 20.71223
689.3649, 21.56904
691.2934, 20.98463
693.2219, 21.66769
695.1503, 25.04707
697.0788, 27.94359
699.0073, 26.80496
700.9357, 22.52961
702.8642, 20.13898
704.7927, 22.39003
706.7211, 25.04156
708.6496, 26.02707
710.5781, 25.70740
712.5065, 25.49825
714.4350, 25.69089
716.3635, 25.71069
718.2919, 25.10685
720.2204, 22.97671
722.1489, 21.73556
724.0773, 22.66743
726.0058, 25.53138
727.9343, 27.86531
729.8627, 29.73696
731.7912, 30.47198
733.7197, 29.08690
735.6481, 26.79293
737.5766, 25.34787
739.5051, 25.20924
741.4335, 25.30936
743.3620, 25.52742
745.2905, 25.30781
747.2189, 24.94985
749.1474, 24.49522
751.0759, 24.50558
753.0043, 25.58966
754.9328, 26.89253
756.8613, 27.23347
758.7897, 25.63634
760.7182, 24.86968
762.6467, 26.25600
764.5751, 28.79810
766.5036, 29.61738
768.4321, 27.56504
770.3605, 25.86766
772.2890, 26.11560
774.2175, 27.43057
776.1459, 27.92935
778.0744, 26.92707
780.0029, 25.90266
781.9313, 25.09348
783.8598, 24.61341
785.7883, 24.50214
787.7167, 25.37732
789.6452, 25.86814
791.5737, 24.87799
793.5021, 22.99165
795.4306, 22.63228
797.3591, 25.88387
799.2875, 28.41663
801.2160, 27.83712
803.1445, 24.05795
805.0729, 22.37084
807.0014, 24.44508
808.9299, 26.71851
810.8583, 27.63624
812.7868, 27.45461
814.7153, 27.40951
816.6437, 27.73031
818.5722, 28.28109
820.5007, 29.11126
822.4291, 29.59189
824.3576, 29.52106
826.2861, 28.38990
828.2145, 27.58774
830.1430, 27.31365
832.0715, 27.34205
833.9999, 27.36375
835.9284, 27.58945
837.8569, 27.22420
839.7853, 25.50502
841.7138, 22.93882
843.6423, 22.13276
845.5707, 24.68873
847.4992, 27.17138
849.4277, 28.41297
851.3561, 28.35718
853.2846, 28.22399
855.2131, 28.23558
857.1415, 28.27196
859.0700, 28.34212
860.9985, 27.85459
862.9269, 26.92129
864.8554, 24.51713
866.7839, 23.79597
868.7123, 25.79511
870.6408, 28.43182
872.5693, 29.88989
874.4977, 30.20643
876.4262, 30.10855
878.3547, 29.07721
880.2831, 27.85144
882.2116, 27.27288
884.1401, 27.58113
886.0685, 27.75942
887.9970, 28.17382
889.9255, 29.17862
891.8539, 29.33065
893.7824, 28.15566
895.7109, 27.05683
897.6393, 26.55674
899.5678, 26.85693
901.4963, 28.01767
903.4247, 30.65237
905.3532, 32.15929
907.2817, 31.01102
909.2101, 28.80808
911.1386, 28.20291
913.0671, 29.71581
914.9955, 31.21531
916.9240, 32.14837
918.8525, 31.96520
920.7809, 31.34251
922.7094, 31.04966
924.6379, 31.19813
926.5663, 31.69310
928.4948, 31.49035
930.4233, 31.30311
932.3517, 32.67422
934.2802, 33.69910
936.2087, 33.21440
938.1371, 31.24089
940.0656, 29.91470
941.9941, 28.02697
943.9225, 27.36850
945.8510, 29.65392
947.7795, 32.93582
949.7079, 33.44665
951.6364, 32.30237
953.5648, 32.01694
955.4933, 32.78538
957.4218, 33.06929
959.3502, 32.64900
961.2787, 32.70148
963.2072, 33.44476
965.1356, 35.28363
967.0641, 36.49112
968.9926, 34.73584
970.9210, 30.18726
972.8495, 27.25787
974.7780, 28.06261
976.7064, 30.68370
978.6349, 33.25998
980.5634, 33.86810
982.4918, 32.42113
984.4203, 30.12959
986.3488, 28.81574
988.2772, 28.97292
990.2057, 28.67351
992.1342, 29.03981
994.0626, 31.77560
995.9911, 34.06860
997.9196, 33.48810
999.8480, 30.32271
1001.776, 26.93979
1003.705, 25.73846
1005.633, 27.13155
1007.562, 30.23443
1009.490, 33.02265
1011.419, 33.73384
1013.347, 32.05111
1015.276, 31.00837
1017.204, 31.58323
1019.133, 32.74759
1021.061, 31.39008
1022.990, 27.79523
1024.918, 26.03298
1026.847, 26.77660
1028.775, 28.13965
1030.703, 28.56293
1032.632, 28.96080
1034.560, 29.79851
1036.489, 29.14145
1038.417, 28.34208
1040.346, 29.05907
1042.274, 32.29604
1044.203, 32.87675
1046.131, 32.27974
1048.060, 32.52723
1049.988, 33.16508
1051.917, 32.53400
1053.845, 30.93401
1055.774, 29.89702
1057.702, 30.24675
1059.630, 31.90823
1061.559, 34.07351
1063.487, 35.08793
1065.416, 33.90569
1067.344, 31.36128
1069.273, 29.34219
1071.201, 28.64612
1073.130, 29.17319
1075.058, 29.54784
1076.987, 30.88898
1078.915, 34.44899
1080.844, 37.55807
1082.772, 37.59712
1084.701, 34.71984
1086.629, 33.16031
1088.557, 34.41209
1090.486, 37.00831
1092.414, 38.94075
1094.343, 39.54254
1096.271, 39.10270
1098.200, 39.13741
1100.128, 40.47417
1102.057, 40.20241
1103.985, 37.92653
1105.914, 36.46446
1107.842, 38.35335
1109.771, 40.77788
1111.699, 42.20181
1113.628, 42.12160
1115.556, 41.43856
1117.484, 40.43107
1119.413, 39.06611
1121.341, 36.94377
1123.270, 37.27153
1125.198, 39.33701
1127.127, 42.47044
1129.055, 43.08538
1130.984, 39.39321
1132.912, 35.80387
1134.841, 35.42460
1136.769, 38.11143
1138.698, 39.76594
1140.626, 38.57380
1142.555, 37.41410
1144.483, 37.52561
1146.411, 37.80767
1148.340, 37.22553
1150.268, 35.69729
1152.197, 34.68148
1154.125, 34.86658
1156.054, 35.93098
1157.982, 35.98100
1159.911, 34.46989
1161.839, 33.46391
1163.768, 34.46339
1165.696, 35.96249
1167.625, 35.74271
1169.553, 33.75993
1171.482, 33.22353
1173.410, 36.91080
1175.339, 39.38248
1177.267, 37.05849
1179.195, 33.52805
1181.124, 34.15146
1183.052, 38.87564
1184.981, 40.79232
1186.909, 36.97649
1188.838, 33.10356
1190.766, 32.74302
1192.695, 35.03005
1194.623, 36.58428
1196.552, 36.48306
1198.480, 36.04653
1200.409, 36.46665
1202.337, 37.76424
1204.266, 38.16304
1206.194, 36.95723
1208.122, 35.96567
1210.051, 35.19397
1211.979, 35.36231
1213.908, 37.40505
1215.836, 40.18559
1217.765, 40.87047
1219.693, 38.77768
1221.622, 36.76999
1223.550, 34.80165
1225.479, 33.71761
1227.407, 34.60088
1229.336, 37.41804
1231.264, 39.68721
1233.193, 41.20169
1235.121, 41.91834
1237.049, 41.55392
1238.978, 40.29911
1240.906, 39.04969
1242.835, 37.40767
1244.763, 36.63038
1246.692, 37.20170
1248.620, 38.28732
1250.549, 39.42811
1252.477, 40.62833
1254.406, 40.93788
1256.334, 39.20074
1258.263, 37.93327
1260.191, 38.62136
1262.120, 40.23579
1264.048, 40.28856
1265.976, 38.24088
1267.905, 37.59185
1269.833, 40.92450
1271.762, 44.05951
1273.690, 43.76214
1275.619, 40.55708
1277.547, 39.22160
1279.476, 41.46376
1281.404, 43.13718
1283.333, 43.02446
1285.261, 41.89359
1287.190, 40.57772
1289.118, 38.76463
1291.047, 37.66407
1292.975, 37.21274
1294.903, 37.50695
1296.832, 38.84107
1298.760, 40.89520
1300.689, 43.01959
1302.617, 45.47488
1304.546, 46.77534
1306.474, 46.04152
1308.403, 44.85625
1310.331, 44.24938
1312.260, 43.84605
1314.188, 42.64890
1316.117, 39.80922
1318.045, 38.00362
1319.974, 39.21745
1321.902, 41.37596
1323.830, 41.96372
1325.759, 40.49711
1327.687, 39.66487
1329.616, 40.14611
1331.544, 40.95427
1333.473, 41.40359
1335.401, 42.29680
1337.330, 44.38637
1339.258, 49.81258
1341.187, 52.45544
1343.115, 49.76021
1345.044, 46.01702
1346.972, 44.31777
1348.901, 44.88058
1350.829, 44.57531
1352.757, 42.55762
1354.686, 41.80885
1356.614, 44.36415
1358.543, 46.99767
1360.471, 46.53639
1362.400, 43.99982
1364.328, 42.78521
1366.257, 43.63902
1368.185, 44.66164
1370.114, 45.73346
1372.042, 45.94947
1373.971, 44.34641
1375.899, 41.35328
1377.828, 40.68517
1379.756, 44.26884
1381.684, 47.07140
1383.613, 47.13147
1385.541, 45.86639
1387.470, 44.75070
1389.398, 43.86261
1391.327, 44.06178
1393.255, 45.11417
1395.184, 46.00512
1397.112, 47.04153
1399.041, 48.43060
1400.969, 48.51293
1402.898, 46.68664
1404.826, 45.61450
1406.755, 44.46426
1408.683, 44.09660
1410.611, 46.39539
1412.540, 50.70436
1414.468, 52.27460
1416.397, 49.25508
1418.325, 47.90224
1420.254, 51.94567
1422.182, 56.05551
1424.111, 55.68956
1426.039, 52.76712
1427.968, 51.22461
1429.896, 50.54013
1431.825, 49.60119
1433.753, 47.59488
1435.682, 46.20579
1437.610, 47.27885
1439.538, 50.35238
1441.467, 51.38544
1443.395, 49.13522
1445.324, 47.40685
1447.252, 48.13924
1449.181, 49.24594
1451.109, 48.44851
1453.038, 45.32974
1454.966, 44.45131
1456.895, 48.50580
1458.823, 51.38217
1460.752, 50.72412
1462.680, 49.45458
1464.609, 50.38985
1466.537, 53.43667
1468.465, 54.77486
1470.394, 53.22350
1472.322, 51.89717
1474.251, 51.13762
1476.179, 50.46056
1478.108, 49.29707
1480.036, 47.65807
1481.965, 46.54041
1483.893, 46.81582
1485.822, 47.97530
1487.750, 51.17237
1489.679, 53.12418
1491.607, 49.70024
1493.536, 42.53707
1495.464, 40.84550
1497.392, 46.53482
1499.321, 51.05204
1501.249, 53.49567
1503.178, 54.86434
1505.106, 54.57755
1507.035, 53.01714
1508.963, 52.14215
1510.892, 52.16047
1512.820, 51.96547
1514.749, 51.40708
1516.677, 51.53123
1518.606, 51.92264
1520.534, 52.33235
1522.463, 54.16603
1524.391, 58.66787
1526.319, 60.04776
1528.248, 54.33526
1530.176, 49.35652
1532.105, 49.71938
1534.033, 52.76030
1535.962, 53.40680
1537.890, 51.11034
1539.819, 49.88401
1541.747, 51.56096
1543.676, 54.06680
1545.604, 56.81492
1547.533, 58.29379
1549.461, 56.45108
1551.390, 51.20900
1553.318, 49.85332
1555.246, 55.25266
1557.175, 59.30991
1559.103, 60.45405
1561.032, 59.89135
1562.960, 57.25377
1564.889, 52.62907
1566.817, 50.78819
1568.746, 53.24432
1570.674, 56.32351
1572.603, 60.68158
1574.531, 64.28909
1576.460, 65.99406
1578.388, 65.55286
1580.317, 62.66963
1582.245, 54.40698
1584.173, 50.99843
1586.102, 56.06091
1588.030, 60.93261
1589.959, 62.54691
1591.887, 62.21283
1593.816, 61.51647
1595.744, 60.22469
1597.673, 59.67020
1599.601, 60.88582
1601.530, 61.46088
1603.458, 59.85997
1605.387, 58.31740
1607.315, 59.73038
1609.244, 63.50528
1611.172, 64.32043
1613.100, 58.41211
1615.029, 55.86997
1616.957, 60.57390
1618.886, 64.93734
1620.814, 63.72435
1622.743, 59.89907
1624.671, 59.98105
1626.600, 65.72321
1628.528, 68.12823
1630.457, 64.39900
1632.385, 61.12239
1634.314, 59.67405
1636.242, 59.59493
1638.171, 61.04831
1640.099, 63.78310
1642.027, 65.22536
1643.956, 64.84949
1645.884, 64.35633
1647.813, 63.85283
1649.741, 63.34385
1651.670, 62.68997
1653.598, 62.09496
1655.527, 61.60011
1657.455, 60.89019
1659.384, 62.56545
1661.312, 70.19163
1663.241, 75.27489
1665.169, 74.85593
1667.098, 72.20362
1669.026, 69.19478
1670.954, 66.10292
1672.883, 64.27071
1674.811, 63.87579
1676.740, 64.08887
1678.668, 65.41670
1680.597, 66.65574
1682.525, 66.91728
1684.454, 67.14169
1686.382, 68.93818
1688.311, 72.29330
1690.239, 74.03996
1692.168, 74.01595
1694.096, 72.77582
1696.025, 67.72202
1697.953, 64.33791
1699.881, 67.76945
1701.810, 74.20710
1703.738, 76.10355
1705.667, 72.48975
1707.595, 69.86336
1709.524, 68.22589
1711.452, 67.57354
1713.381, 67.81032
1715.309, 69.12868
1717.238, 72.71210
1719.166, 77.39549
1721.095, 79.82301
1723.023, 79.89838
1724.952, 77.95826
1726.880, 71.05540
1728.808, 66.23232
1730.737, 65.83924
1732.665, 67.65282
1734.594, 70.99158
1736.522, 75.06408
1738.451, 76.22765
1740.379, 72.31750
1742.308, 70.45889
1744.236, 73.33156
1746.165, 74.60200
1748.093, 69.93973
1750.022, 64.99785
1751.950, 66.38248
1753.879, 72.61681
1755.807, 74.95698
1757.735, 71.48776
1759.664, 68.53912
1761.592, 64.27783
1763.521, 63.17238
1765.449, 69.21547
1767.378, 76.80476
1769.306, 80.98737
1771.235, 82.01859
1773.163, 81.13260
1775.092, 77.32967
1777.020, 74.75803
1778.949, 73.97141
1780.877, 74.16715
1782.806, 75.26933
1784.734, 77.10555
1786.662, 80.93457
1788.591, 85.57235
1790.519, 84.42352
1792.448, 75.82750
1794.376, 71.15340
1796.305, 73.56676
1798.233, 76.62190
1800.162, 78.43743
1802.090, 79.79632
1804.019, 81.99112
1805.947, 84.01385
1807.876, 81.99861
1809.804, 75.54164
1811.733, 74.04800
1813.661, 81.49180
1815.589, 86.58221
1817.518, 83.55034
1819.446, 79.39552
1821.375, 78.77036
1823.303, 80.19082
1825.232, 81.58955
1827.160, 82.90795
1829.089, 83.34747
1831.017, 82.49201
1832.946, 81.78526
1834.874, 80.54359
1836.803, 80.79831
1838.731, 86.22980
1840.660, 92.04387
1842.588, 91.44335
1844.516, 85.12386
1846.445, 79.00654
1848.373, 71.68453
1850.302, 69.17912
1852.230, 76.36526
1854.159, 82.74682
1856.087, 85.02156
1858.016, 85.09510
1859.944, 83.02611
1861.873, 80.25437
1863.801, 82.14312
1865.730, 91.22842
1867.658, 94.20136
1869.587, 84.15753
1871.515, 78.40158
1873.443, 82.37882
1875.372, 87.28416
1877.300, 88.17090
1879.229, 87.43923
1881.157, 88.95559
1883.086, 92.54202
1885.014, 93.28473
1886.943, 89.87186
1888.871, 88.89548
1890.800, 93.30433
1892.728, 96.56278
1894.657, 94.78447
1896.585, 92.55489
1898.514, 93.14520
1900.442, 95.57487
1902.370, 98.87290
1904.299, 102.7551
1906.227, 101.9920
1908.156, 94.31662
1910.084, 89.26018
1912.013, 90.30270
1913.941, 92.53468
1915.870, 94.67937
1917.798, 96.07137
1919.727, 95.52872
1921.655, 93.75455
1923.584, 93.06663
1925.512, 93.68117
1927.441, 93.68923
1929.369, 91.48626
1931.297, 91.27499
1933.226, 97.13988
1935.154, 100.7825
1937.083, 95.11945
1939.011, 87.63645
1940.940, 87.48731
1942.868, 93.09103
1944.797, 97.29546
1946.725, 100.3281
1948.654, 100.8556
1950.582, 97.04430
1952.511, 94.45344
1954.439, 94.35979
1956.368, 95.54240
1958.296, 98.02196
1960.224, 100.9670
1962.153, 104.2782
1964.081, 107.2347
1966.010, 106.8969
1967.938, 103.1556
1969.867, 101.8264
1971.795, 104.3055
1973.724, 106.8499
1975.652, 109.6238
1977.581, 110.7234
1979.509, 106.8008
1981.438, 102.8525
1983.366, 104.8290
1985.295, 110.5939
1987.223, 114.3597
1989.151, 116.0470
1991.080, 116.2083
1993.008, 113.0555
1994.937, 111.3057
1996.865, 112.5676
1998.794, 113.2868
2000.722, 110.6391
2002.651, 108.7630
2004.579, 113.1390
2006.508, 119.3961
2008.436, 116.8573
2010.365, 107.0997
2012.293, 107.6694
2014.222, 121.3149
2016.150, 128.7234
2018.078, 124.5079
2020.007, 119.9167
2021.935, 117.6071
2023.864, 117.3581
2025.792, 121.5461
2027.721, 125.8071
2029.649, 123.3767
2031.578, 116.8983
2033.506, 116.1770
2035.435, 122.4950
2037.363, 125.4524
2039.292, 121.7543
2041.220, 120.2369
2043.149, 122.5374
2045.077, 125.2908
2047.005, 127.6249
2048.934, 129.9925
2050.862, 134.6203
2052.791, 138.2910
2054.719, 134.0679
2056.648, 124.1896
2058.576, 119.6865
2060.505, 120.9350
2062.433, 125.0522
2064.362, 133.5399
2066.290, 138.5404
2068.219, 136.7478
2070.147, 133.2486
2072.075, 128.2810
2074.004, 124.4468
2075.932, 123.8725
2077.861, 125.7111
2079.789, 129.4681
2081.718, 134.6617
2083.646, 137.3468
2085.575, 136.5359
2087.503, 136.9220
2089.432, 141.2439
2091.360, 140.2285
2093.289, 126.1882
2095.217, 116.7610
2097.146, 123.1538
2099.074, 131.1057
2101.002, 129.6508
2102.931, 124.8605
2104.859, 124.5691
2106.788, 127.6345
2108.716, 130.2981
2110.645, 132.4750
2112.573, 134.4284
2114.502, 136.2328
2116.430, 137.5623
2118.359, 138.5045
2120.287, 138.7629
2122.216, 138.2964
2124.144, 137.1180
2126.073, 133.7887
2128.001, 131.0447
2129.929, 132.6176
2131.858, 136.6815
2133.786, 138.8103
2135.715, 139.2572
2137.643, 139.5275
2139.572, 139.6149
2141.500, 140.7363
2143.429, 143.8621
2145.357, 145.7099
2147.286, 144.6206
2149.214, 143.3004
2151.143, 141.0978
2153.071, 140.7993
2155.000, 147.2295
2156.928, 154.5183
2158.856, 153.2750
2160.785, 146.7887
2162.713, 146.6569
2164.642, 152.5572
2166.570, 154.6502
2168.499, 152.0305
2170.427, 150.4951
2172.356, 150.8888
2174.284, 152.1731
2176.213, 154.5720
2178.141, 157.0421
2180.070, 160.2180
2181.998, 162.1349
2183.927, 159.5338
2185.855, 156.4367
2187.783, 158.9798
2189.712, 164.6314
2191.640, 166.7963
2193.569, 165.4971
2195.497, 160.6822
2197.426, 151.4354
2199.354, 149.9439
2201.283, 160.0005
2203.211, 166.6729
2205.140, 164.9816
2207.068, 163.3386
2208.997, 164.8726
2210.925, 167.1666
2212.854, 170.8149
2214.782, 172.8446
2216.710, 168.7706
2218.639, 162.2706
2220.567, 159.4990
2222.496, 159.7901
2224.424, 159.5968
2226.353, 158.9704
2228.281, 163.3397
2230.210, 173.7104
2232.138, 181.7359
2234.067, 186.9674
2235.995, 187.4070
2237.924, 178.2263
2239.852, 171.2983
2241.781, 171.4214
2243.709, 173.7545
2245.637, 177.6929
2247.566, 180.5811
2249.494, 178.6586
2251.423, 174.9079
2253.351, 173.8007
2255.280, 174.9794
2257.208, 178.4211
2259.137, 183.4872
2261.065, 183.3379
2262.994, 176.8930
2264.922, 176.2286
2266.851, 186.6850
2268.779, 191.4878
2270.708, 183.0164
2272.636, 176.8474
2274.564, 177.3181
2276.493, 179.2714
2278.421, 181.9109
2280.350, 183.8715
2282.278, 183.6378
2284.207, 182.8103
2286.135, 181.6040
2288.064, 181.7799
2289.992, 189.1000
2291.921, 200.3967
2293.849, 201.6889
2295.778, 192.5060
2297.706, 188.9308
2299.635, 192.2866
2301.563, 197.6660
2303.491, 207.8506
2305.420, 212.1169
2307.348, 206.5454
2309.277, 201.6276
2311.205, 200.2052
2313.134, 199.9786
2315.062, 200.5708
2316.991, 201.2922
2318.919, 201.7484
2320.848, 202.1405
2322.776, 203.3464
2324.705, 204.1035
2326.633, 200.3532
2328.562, 195.2392
2330.490, 199.6746
2332.418, 211.3366
2334.347, 216.1804
2336.275, 214.2209
2338.204, 211.4680
2340.132, 207.8876
2342.061, 206.9559
2343.989, 209.7513
2345.918, 213.6787
2347.846, 220.7206
2349.775, 225.3205
2351.703, 227.1855
2353.632, 225.3193
2355.560, 214.5138
2357.489, 206.6692
2359.417, 210.4245
2361.345, 216.9311
2363.274, 219.1569
2365.202, 220.4824
2367.131, 226.1239
2369.059, 232.9483
2370.988, 234.3972
2372.916, 232.1997
2374.845, 232.4630
2376.773, 234.9750
2378.702, 236.4736
2380.630, 237.0451
2382.559, 242.4174
2384.487, 254.2401
2386.416, 256.0482
2388.344, 239.7889
2390.272, 230.8988
2392.201, 239.5413
2394.129, 244.0033
2396.058, 235.9483
2397.986, 231.6599
2399.915, 237.4496
2401.843, 243.8899
2403.772, 247.1928
2405.700, 249.5346
2407.629, 253.4953
2409.557, 255.8241
2411.486, 251.9129
2413.414, 246.3834
2415.343, 243.0748
2417.271, 243.2225
2419.199, 252.0160
2421.128, 265.3515
2423.056, 270.8253
2424.985, 269.6441
2426.913, 265.4117
2428.842, 258.7948
2430.770, 258.2254
2432.699, 265.3206
2434.627, 270.1078
2436.556, 272.3085
2438.484, 272.7817
2440.413, 270.7852
2442.341, 269.5013
2444.270, 268.4529
2446.198, 271.5943
2448.126, 284.2805
2450.055, 291.3795
2451.983, 283.1263
2453.912, 275.6033
2455.840, 274.9066
2457.769, 275.9032
2459.697, 277.0801
2461.626, 277.9735
2463.554, 277.5602
2465.483, 277.6375
2467.411, 280.3082
2469.340, 283.5521
2471.268, 285.4488
2473.197, 286.2595
2475.125, 285.0597
2477.053, 283.6953
2478.982, 287.0851
2480.910, 293.6264
2482.839, 297.8897
2484.767, 300.3276
2486.696, 303.6559
2488.624, 307.4333
2490.553, 305.0222
2492.481, 295.3730
2494.410, 292.8127
2496.338, 300.0096
2498.267, 303.1765
2500.195, 301.1659
2502.124, 301.4710
2504.052, 305.2291
2505.980, 308.7621
2507.909, 311.9456
2509.837, 313.2336
2511.766, 310.3882
2513.694, 308.8969
2515.623, 309.2755
2517.551, 312.0907
2519.480, 320.8577
2521.408, 325.6483
2523.337, 319.4449
2525.265, 314.5282
2527.194, 318.1521
2529.122, 323.0344
2531.051, 324.3070
2532.979, 326.2556
2534.907, 334.0365
2536.836, 340.9734
2538.764, 340.0595
2540.693, 337.4493
2542.621, 340.1270
2544.550, 342.8346
2546.478, 337.4336
2548.407, 330.2155
2550.335, 330.6720
2552.264, 335.6199
2554.192, 340.1451
2556.121, 344.0423
2558.049, 345.1877
2559.978, 345.7849
2561.906, 353.8495
2563.834, 366.2509
2565.763, 370.8133
2567.691, 368.2915
2569.620, 364.0096
2571.548, 358.1313
2573.477, 354.0491
2575.405, 351.9752
2577.334, 354.4373
2579.262, 361.5650
2581.191, 370.1510
2583.119, 381.5116
2585.048, 384.5420
2586.976, 376.1068
2588.905, 375.5889
2590.833, 385.0313
2592.761, 388.6303
2594.690, 383.6212
2596.618, 380.7600
2598.547, 381.7858
2600.475, 384.3421
2602.404, 388.6280
2604.332, 393.6991
2606.261, 400.3764
2608.189, 404.9257
2610.118, 407.0148
2612.046, 405.4679
2613.975, 396.0931
2615.903, 391.3235
2617.832, 396.4105
2619.760, 402.5042
2621.688, 409.5189
2623.617, 414.6160
2625.545, 417.1129
2627.474, 417.4707
2629.402, 411.4988
2631.331, 410.4055
2633.259, 424.2563
2635.188, 434.1215
2637.116, 429.6548
2639.045, 424.9857
2640.973, 424.5826
2642.902, 426.0479
2644.830, 430.9639
2646.759, 433.8209
2648.687, 429.5505
2650.615, 425.9016
2652.544, 426.4982
2654.472, 429.3399
2656.401, 434.4034
2658.329, 439.4082
2660.258, 443.7645
2662.186, 446.3500
2664.115, 445.6771
2666.043, 444.0967
2667.972, 440.7179
2669.900, 440.5885
2671.829, 449.3379
2673.757, 459.9695
2675.686, 472.2213
2677.614, 478.9381
2679.542, 468.4519
2681.471, 457.3531
2683.399, 459.7738
2685.328, 466.5345
2687.256, 471.1298
2689.185, 475.7631
2691.113, 484.0051
2693.042, 490.9788
2694.970, 489.3773
2696.899, 488.0636
2698.827, 498.5673
2700.756, 509.0083
2702.684, 506.1745
2704.613, 501.4080
2706.541, 505.1237
2708.469, 510.3047
2710.398, 510.0720
2712.326, 508.8856
2714.255, 510.3470
2716.183, 513.6266
2718.112, 519.5024
2720.040, 525.0033
2721.969, 525.6877
2723.897, 526.7994
2725.826, 536.0170
2727.754, 544.5784
2729.683, 544.1625
2731.611, 539.6930
2733.540, 531.0468
2735.468, 525.4843
2737.396, 530.0496
2739.325, 539.2228
2741.253, 555.1236
2743.182, 565.3934
2745.110, 552.4029
2747.039, 538.6299
2748.967, 542.6359
2750.896, 549.5242
2752.824, 548.0668
2754.753, 544.9499
2756.681, 541.8539
2758.610, 543.3738
2760.538, 557.3711
2762.467, 569.8735
2764.395, 568.1364
2766.323, 566.9518
2768.252, 579.2747
2770.180, 590.6035
2772.109, 592.0598
2774.037, 590.1075
2775.966, 584.7944
2777.894, 581.9376
2779.823, 587.1656
2781.751, 591.9633
2783.680, 591.2897
2785.608, 590.4203
2787.537, 589.4033
2789.465, 592.5315
2791.394, 605.5225
2793.322, 616.3149
2795.250, 621.3940
2797.179, 621.0952
2799.107, 608.8281
2801.036, 604.2476
2802.964, 616.1138
2804.893, 627.2368
2806.821, 632.6880
2808.750, 635.3839
2810.678, 628.8995
2812.607, 634.5073
2814.535, 663.1122
2816.464, 675.6647
2818.392, 655.9020
2820.321, 644.9331
2822.249, 659.1058
2824.177, 666.0781
2826.106, 661.6843
2828.034, 661.5560
2829.963, 667.9643
2831.891, 674.9009
2833.820, 682.8718
2835.748, 685.0297
2837.677, 678.6283
2839.605, 679.5475
2841.534, 688.2903
2843.462, 695.4022
2845.391, 700.2207
2847.319, 700.1744
2849.248, 695.0671
2851.176, 697.6553
2853.104, 707.2818
2855.033, 716.8455
2856.961, 725.3391
2858.890, 726.4776
2860.818, 722.5588
2862.747, 725.1348
2864.675, 731.9271
2866.604, 735.6086
2868.532, 736.9385
2870.461, 736.4559
2872.389, 736.2441
2874.318, 740.0948
2876.246, 747.1528
2878.175, 760.0112
2880.103, 771.2735
2882.031, 769.3788
2883.960, 764.6633
2885.888, 768.2410
2887.817, 773.7512
2889.745, 773.8931
2891.674, 775.4082
2893.602, 784.9819
2895.531, 793.8438
2897.459, 795.5102
2899.388, 796.6323
2901.316, 798.8383
2903.245, 804.6042
2905.173, 818.9858
2907.102, 827.5338
2909.030, 819.7169
2910.958, 815.0996
2912.887, 819.5313
2914.815, 823.7940
2916.744, 826.1674
2918.672, 830.5699
2920.601, 836.4469
2922.529, 850.3682
2924.458, 880.5359
2926.386, 885.6184
2928.315, 864.2223
2930.243, 858.5008
2932.172, 870.6798
2934.100, 882.3185
2936.029, 892.9168
2937.957, 899.4439
2939.885, 902.4366
2941.814, 902.6891
2943.742, 902.2238
2945.671, 907.6111
2947.599, 915.3668
2949.528, 917.7521
2951.456, 918.3245
2953.385, 923.9687
2955.313, 928.8809
2957.242, 922.6785
2959.170, 918.2755
2961.099, 930.1481
2963.027, 943.6735
2964.956, 949.9268
2966.884, 956.1877
2968.813, 970.9025
2970.741, 978.7542
2972.669, 966.9629
2974.598, 961.2648
2976.526, 967.2416
2978.455, 977.6138
2980.383, 996.9341
2982.312, 1002.066
2984.240, 985.8179
2986.169, 985.4026
2988.097, 1003.166
2990.026, 1015.791
2991.954, 1021.687
2993.883, 1026.054
2995.811, 1029.256
2997.740, 1036.925
2999.668, 1046.429
3001.596, 1047.950
3003.525, 1047.264
3005.453, 1060.323
3007.382, 1075.348
3009.310, 1071.013
3011.239, 1064.767
3013.167, 1074.813
3015.096, 1086.970
3017.024, 1086.543
3018.953, 1092.076
3020.881, 1119.955
3022.810, 1137.277
3024.738, 1121.993
3026.667, 1110.173
3028.595, 1109.431
3030.523, 1112.889
3032.452, 1120.490
3034.380, 1128.272
3036.309, 1135.316
3038.237, 1147.261
3040.166, 1164.621
3042.094, 1171.923
3044.023, 1171.748
3045.951, 1176.710
3047.880, 1185.615
3049.808, 1196.266
3051.737, 1206.955
3053.665, 1214.326
3055.594, 1220.189
3057.522, 1226.843
3059.450, 1232.519
3061.379, 1234.054
3063.307, 1237.222
3065.236, 1247.288
3067.164, 1254.055
3069.093, 1245.762
3071.021, 1249.255
3072.950, 1273.929
3074.878, 1290.832
3076.807, 1296.334
3078.735, 1294.861
3080.664, 1285.411
3082.592, 1286.789
3084.521, 1298.501
3086.449, 1321.164
3088.377, 1347.934
3090.306, 1359.589
3092.234, 1360.208
3094.163, 1349.473
3096.091, 1341.266
3098.020, 1351.605
3099.948, 1367.804
3101.877, 1387.570
3103.805, 1398.576
3105.734, 1389.299
3107.662, 1386.841
3109.591, 1401.362
3111.519, 1419.890
3113.448, 1443.589
3115.376, 1458.129
3117.304, 1462.654
3119.233, 1463.845
3121.161, 1462.986
3123.090, 1471.137
3125.018, 1485.830
3126.947, 1499.042
3128.875, 1510.129
3130.804, 1519.500
3132.732, 1524.675
3134.661, 1516.570
3136.589, 1512.792
3138.518, 1529.724
3140.446, 1544.012
3142.375, 1539.498
3144.303, 1542.734
3146.231, 1560.470
3148.160, 1574.773
3150.088, 1582.428
3152.017, 1588.055
3153.945, 1591.557
3155.874, 1604.665
3157.802, 1623.776
3159.731, 1636.803
3161.659, 1643.624
3163.588, 1638.333
3165.516, 1633.057
3167.445, 1644.391
3169.373, 1657.378
3171.302, 1657.780
3173.230, 1664.946
3175.158, 1691.318
3177.087, 1711.412
3179.015, 1717.233
3180.944, 1727.203
3182.872, 1744.098
3184.801, 1765.534
3186.729, 1788.410
3188.658, 1778.695
3190.586, 1752.234
3192.515, 1757.814
3194.443, 1779.352
3196.372, 1796.347
3198.300, 1810.045
3200.229, 1820.123
3202.157, 1829.796
3204.085, 1842.297
3206.014, 1850.185
3207.942, 1845.465
3209.871, 1858.410
3211.799, 1902.371
3213.728, 1921.272
3215.656, 1916.927
3217.585, 1919.981
3219.513, 1928.220
3221.442, 1929.241
3223.370, 1930.385
3225.299, 1945.410
3227.227, 1963.831
3229.156, 1982.036
3231.084, 1991.627
3233.012, 1981.464
3234.941, 1981.519
3236.869, 2002.998
3238.798, 2024.220
3240.726, 2044.025
3242.655, 2058.409
3244.583, 2068.577
3246.512, 2079.192
3248.440, 2092.808
3250.369, 2118.928
3252.297, 2148.615
3254.226, 2178.869
3256.154, 2196.872
3258.083, 2182.593
3260.011, 2175.795
3261.939, 2191.296
3263.868, 2202.832
3265.796, 2200.045
3267.725, 2216.883
3269.653, 2252.524
3271.582, 2276.514
3273.510, 2288.795
3275.439, 2285.858
3277.367, 2281.534
3279.296, 2301.556
3281.224, 2323.453
3283.153, 2334.123
3285.081, 2338.227
3287.010, 2331.763
3288.938, 2335.963
3290.866, 2355.102
3292.795, 2376.262
3294.723, 2397.925
3296.652, 2424.826
3298.580, 2450.021
3300.509, 2444.852
3302.437, 2437.513
3304.366, 2477.959
3306.294, 2516.594
3308.223, 2517.418
3310.151, 2520.398
3312.080, 2547.703
3314.008, 2560.800
3315.937, 2554.393
3317.865, 2572.226
3319.793, 2612.620
3321.722, 2630.900
3323.650, 2634.396
3325.579, 2639.066
3327.507, 2641.527
3329.436, 2626.257
3331.364, 2627.914
3333.293, 2669.111
3335.221, 2708.296
3337.150, 2735.540
3339.078, 2749.731
3341.007, 2750.797
3342.935, 2754.938
3344.864, 2763.526
3346.792, 2783.496
3348.720, 2804.865
3350.649, 2812.902
3352.577, 2816.443
3354.506, 2813.367
3356.434, 2823.020
3358.363, 2852.879
3360.291, 2882.815
3362.220, 2909.996
3364.148, 2927.628
3366.077, 2937.554
3368.005, 2952.095
3369.934, 2970.784
3371.862, 2996.962
3373.791, 3021.750
3375.719, 3042.540
3377.647, 3052.297
3379.576, 3040.294
3381.504, 3039.807
3383.433, 3053.882
3385.361, 3082.671
3387.290, 3122.278
3389.218, 3156.820
3391.147, 3182.408
3393.075, 3179.688
3395.004, 3182.017
3396.932, 3227.095
3398.861, 3255.480
3400.789, 3245.164
3402.718, 3244.111
3404.646, 3259.738
3406.574, 3275.875
3408.503, 3293.791
3410.431, 3326.106
3412.360, 3360.777
3414.288, 3384.200
3416.217, 3398.664
3418.145, 3399.468
3420.074, 3409.738
3422.002, 3446.491
3423.931, 3462.557
3425.859, 3458.438
3427.788, 3478.654
3429.716, 3511.184
3431.645, 3519.945
3433.573, 3523.983
3435.501, 3539.603
3437.430, 3563.311
3439.358, 3609.332
3441.287, 3622.546
3443.215, 3593.326
3445.144, 3606.083
3447.072, 3656.600
3449.001, 3693.369
3450.929, 3715.152
3452.858, 3710.114
3454.786, 3708.076
3456.715, 3733.062
3458.643, 3762.025
3460.572, 3790.853
3462.500, 3818.659
3464.428, 3845.698
3466.357, 3845.971
3468.285, 3835.889
3470.214, 3846.862
3472.142, 3875.845
3474.071, 3938.859
3475.999, 3981.486
3477.928, 3959.969
3479.856, 3975.928
3481.785, 4036.986
3483.713, 4058.955
3485.642, 4054.716
3487.570, 4076.612
3489.499, 4109.783
3491.427, 4143.733
3493.355, 4172.637
3495.284, 4190.903
3497.212, 4213.476
3499.141, 4242.621
3501.069, 4246.619
3502.998, 4236.658
3504.926, 4278.629
3506.855, 4332.645
3508.783, 4355.052
3510.712, 4363.849
3512.640, 4360.529
3514.569, 4370.723
3516.497, 4401.617
3518.426, 4418.613
3520.354, 4426.181
3522.282, 4457.598
3524.211, 4497.081
3526.139, 4528.719
3528.068, 4558.435
3529.996, 4596.005
3531.925, 4607.755
3533.853, 4574.157
3535.782, 4590.491
3537.710, 4641.953
3539.639, 4675.069
3541.567, 4703.544
3543.496, 4745.701
3545.424, 4787.418
3547.353, 4825.827
3549.281, 4853.289
3551.209, 4869.456
3553.138, 4917.730
3555.066, 4980.394
3556.995, 4994.488
3558.923, 4997.257
3560.852, 5022.500
3562.780, 5048.163
3564.709, 5062.015
3566.637, 5086.213
3568.566, 5121.159
3570.494, 5157.457
3572.423, 5186.297
3574.351, 5169.935
3576.280, 5163.108
3578.208, 5220.981
3580.136, 5263.213
3582.065, 5271.479
3583.993, 5292.328
3585.922, 5327.604
3587.850, 5365.150
3589.779, 5405.307
3591.707, 5456.875
3593.636, 5492.956
3595.564, 5482.865
3597.493, 5520.573
3599.421, 5627.680
3601.350, 5653.211
3603.278, 5627.674
3605.207, 5638.232
3607.135, 5666.142
3609.063, 5696.543
3610.992, 5739.049
3612.920, 5800.919
3614.849, 5829.097
3616.777, 5828.101
3618.706, 5903.023
3620.634, 5987.788
3622.563, 5968.966
3624.491, 5961.039
3626.420, 6020.595
3628.348, 6072.284
3630.277, 6103.630
3632.205, 6116.039
3634.134, 6126.457
3636.062, 6180.071
3637.990, 6236.205
3639.919, 6264.459
3641.847, 6279.527
3643.776, 6267.555
3645.704, 6319.775
3647.633, 6408.265
3649.561, 6401.412
3651.490, 6381.123
3653.418, 6463.646
3655.347, 6529.117
3657.275, 6521.569
3659.204, 6547.095
3661.132, 6605.026
3663.061, 6645.525
3664.989, 6679.897
3666.917, 6735.383
3668.846, 6778.239
3670.774, 6791.606
3672.703, 6793.592
3674.631, 6789.172
3676.560, 6840.085
3678.488, 6921.079
3680.417, 6997.831
3682.345, 7047.257
3684.274, 7037.621
3686.202, 7052.162
3688.131, 7103.920
3690.059, 7133.571
3691.988, 7156.439
3693.916, 7234.517
3695.844, 7294.651
3697.773, 7268.358
3699.701, 7284.421
3701.630, 7381.746
3703.558, 7397.958
3705.487, 7373.556
3707.415, 7450.634
3709.344, 7530.442
3711.272, 7525.443
3713.201, 7538.738
3715.129, 7598.982
3717.058, 7661.865
3718.986, 7717.406
3720.915, 7723.739
3722.843, 7737.697
3724.771, 7817.359
3726.700, 7875.573
3728.628, 7884.141
3730.557, 7914.063
3732.485, 7959.995
3734.414, 8003.077
3736.342, 8038.500
3738.271, 8052.871
3740.199, 8086.490
3742.128, 8152.073
3744.056, 8214.662
3745.985, 8258.660
3747.913, 8224.560
3749.842, 8199.075
3751.770, 8251.536
3753.698, 8307.409
3755.627, 8353.916
3757.555, 8389.970
3759.484, 8417.920
3761.412, 8429.200
3763.341, 8458.066
3765.269, 8536.451
3767.198, 8582.008
3769.126, 8578.662
3771.055, 8597.538
3772.983, 8634.318
3774.912, 8688.712
3776.840, 8736.353
3778.769, 8763.941
3780.697, 8783.701
3782.625, 8797.245
3784.554, 8849.774
3786.482, 8908.252
3788.411, 8911.732
3790.339, 8933.305
3792.268, 9010.419
3794.196, 9050.036
3796.125, 9054.553
3798.053, 9096.094
3799.982, 9145.948
3801.910, 9173.629
3803.839, 9198.041
3805.767, 9221.864
3807.696, 9275.522
3809.624, 9344.256
3811.552, 9366.810
3813.481, 9385.612
3815.409, 9424.587
3817.338, 9493.098
3819.266, 9596.337
3821.195, 9640.808
3823.123, 9650.044
3825.052, 9658.724
3826.980, 9676.729
3828.909, 9710.168
3830.837, 9737.591
3832.766, 9764.476
3834.694, 9882.923
3836.623, 9995.969
3838.551, 9969.198
3840.479, 9985.163
3842.408, 10089.88
3844.336, 10131.12
3846.265, 10139.16
3848.193, 10235.82
3850.122, 10335.94
3852.050, 10372.94
3853.979, 10422.94
3855.907, 10491.35
3857.836, 10539.51
3859.764, 10573.43
3861.693, 10608.74
3863.621, 10641.19
3865.550, 10663.04
3867.478, 10690.09
3869.406, 10725.72
3871.335, 10776.93
3873.263, 10839.30
3875.192, 10901.87
3877.120, 10995.32
3879.049, 11120.81
3880.977, 11185.38
3882.906, 11226.36
3884.834, 11295.08
3886.763, 11364.30
3888.691, 11414.44
3890.620, 11488.48
3892.548, 11577.13
3894.477, 11622.49
3896.405, 11657.16
3898.333, 11699.58
3900.262, 11773.61
3902.190, 11881.54
3904.119, 11941.92
3906.047, 11989.05
3907.976, 12062.20
3909.904, 12134.94
3911.833, 12200.14
3913.761, 12305.93
3915.690, 12427.28
3917.618, 12513.75
3919.547, 12565.09
3921.475, 12559.99
3923.404, 12598.78
3925.332, 12680.59
3927.260, 12754.44
3929.189, 12828.32
3931.117, 12904.65
3933.046, 13001.52
3934.974, 13118.54
3936.903, 13173.69
3938.831, 13219.79
3940.760, 13354.86
3942.688, 13495.57
3944.617, 13632.29
3946.545, 13667.25
3948.474, 13654.74
3950.402, 13718.50
3952.331, 13817.05
3954.259, 13912.62
3956.188, 14057.06
3958.116, 14235.79
3960.044, 14330.99
3961.973, 14413.46
3963.901, 14513.88
3965.830, 14621.74
3967.758, 14750.70
3969.687, 14885.35
3971.615, 15003.63
3973.544, 15086.24
3975.472, 15180.20
3977.401, 15304.82
3979.329, 15450.79
3981.258, 15599.71
3983.186, 15728.56
3985.115, 15881.22
3987.043, 16062.80
3988.971, 16188.33
3990.900, 16306.02
3992.828, 16454.35
3994.757, 16603.02
3996.685, 16815.41
3998.614, 17006.77
4000.542, 17127.43
4002.471, 17287.79
4004.399, 17468.77
4006.328, 17617.49
4008.256, 17773.50
4010.185, 17958.77
4012.113, 18185.63
4014.042, 18401.70
4015.970, 18535.86
4017.898, 18640.58
4019.827, 18764.64
4021.755, 18978.73
4023.684, 19211.57
4025.612, 19364.09
4027.541, 19462.23
4029.469, 19537.27
4031.398, 19659.49
4033.326, 19880.52
4035.255, 20049.28
4037.183, 20098.41
4039.112, 20143.65
4041.040, 20273.75
4042.969, 20423.54
4044.897, 20534.87
4046.825, 20602.85
4048.754, 20641.57
4050.682, 20661.38
4052.611, 20711.96
4054.539, 20811.79
4056.468, 20862.53
4058.396, 20892.03
4060.325, 20981.27
4062.253, 21042.14
4064.182, 21062.17
4066.110, 21043.62
4068.039, 20998.76
4069.967, 21013.45
4071.896, 21083.31
4073.824, 21184.24
4075.752, 21206.17
4077.681, 21263.19
4079.609, 21354.58
4081.538, 21396.38
4083.466, 21424.21
4085.395, 21443.42
4087.323, 21428.64
4089.252, 21399.07
4091.180, 21474.31
4093.109, 21605.29
4095.037, 21649.98
4096.965, 21670.41
4098.894, 21749.18
4100.822, 21800.39
4102.751, 21804.26
4104.679, 21871.27
4106.608, 21987.94
4108.536, 22154.03
4110.465, 22234.06
4112.393, 22256.60
4114.322, 22392.41
4116.250, 22550.23
4118.179, 22625.32
4120.107, 22738.66
4122.036, 22916.39
4123.964, 23006.19
4125.893, 23072.74
4127.821, 23224.97
4129.750, 23380.71
4131.678, 23512.42
4133.606, 23638.07
4135.535, 23762.08
4137.463, 23885.76
4139.392, 24023.75
4141.320, 24185.23
4143.249, 24366.70
4145.177, 24523.76
4147.105, 24618.93
4149.034, 24729.79
4150.962, 24864.31
4152.891, 24951.36
4154.819, 25013.58
4156.748, 25087.28
4158.676, 25147.09
4160.605, 25183.57
4162.533, 25267.68
4164.462, 25390.08
4166.390, 25547.74
4168.319, 25675.53
4170.247, 25755.74
4172.176, 25840.52
4174.104, 25932.56
4176.033, 26023.01
4177.961, 26152.42
4179.890, 26327.53
4181.818, 26455.45
4183.747, 26578.95
4185.675, 26774.90
4187.604, 26918.46
4189.532, 26985.66
4191.460, 27140.56
4193.389, 27324.11
4195.317, 27456.13
4197.246, 27572.06
4199.174, 27682.54
4201.103, 27849.67
4203.031, 28006.62
4204.959, 28033.38
4206.888, 28153.83
4208.816, 28389.48
4210.745, 28575.41
4212.673, 28695.84
4214.602, 28734.00
4216.530, 28794.50
4218.459, 28892.26
4220.387, 29050.63
4222.316, 29238.44
4224.244, 29429.10
4226.173, 29585.00
4228.101, 29708.13
4230.030, 29851.97
4231.958, 29998.57
4233.887, 30122.72
4235.815, 30258.19
4237.744, 30419.05
4239.672, 30681.52
4241.601, 30942.08
4243.529, 31153.31
4245.458, 31239.69
4247.386, 31282.52
4249.314, 31553.96
4251.243, 31792.99
4253.171, 31891.88
4255.100, 32006.78
4257.028, 32157.80
4258.957, 32389.82
4260.885, 32587.15
4262.813, 32706.69
4264.742, 32942.80
4266.670, 33199.45
4268.599, 33338.80
4270.527, 33495.48
4272.456, 33699.64
4274.384, 33828.98
4276.313, 33958.98
4278.241, 34121.51
4280.170, 34468.19
4282.098, 34963.12
4284.027, 35311.20
4285.955, 35558.89
4287.884, 35702.56
4289.812, 35992.50
4291.741, 36361.06
4293.669, 36496.68
4295.598, 36712.86
4297.526, 37133.20
4299.455, 37442.68
4301.383, 37700.54
4303.312, 38016.59
4305.240, 38380.02
4307.168, 38784.37
4309.097, 39226.63
4311.025, 39624.34
4312.954, 39854.64
4314.882, 40186.42
4316.811, 40632.16
4318.739, 41101.20
4320.667, 41555.75
4322.596, 41965.74
4324.524, 42423.45
4326.453, 42940.43
4328.381, 43569.61
4330.310, 44131.22
4332.238, 44566.63
4334.167, 45096.08
4336.095, 45721.75
4338.024, 46509.57
4339.952, 47121.02
4341.881, 47548.99
4343.809, 48239.40
4345.738, 48963.19
4347.666, 49518.19
4349.595, 50187.64
4351.523, 50948.11
4353.452, 51719.52
4355.380, 52475.34
4357.309, 53220.70
4359.237, 53774.38
4361.166, 54298.26
4363.094, 54998.15
4365.022, 55795.37
4366.951, 56633.60
4368.879, 57011.72
4370.808, 57413.05
4372.736, 58152.74
4374.665, 58817.09
4376.593, 59337.50
4378.521, 59536.62
4380.450, 59780.39
4382.378, 60148.09
4384.307, 60331.48
4386.235, 60485.87
4388.164, 60798.27
4390.092, 61028.65
4392.021, 61160.90
4393.949, 61237.05
4395.878, 61189.00
4397.806, 60955.21
4399.735, 60950.45
4401.663, 60934.06
4403.592, 60511.10
4405.520, 60145.30
4407.449, 59901.96
4409.377, 59560.58
4411.306, 59256.97
4413.234, 59146.24
4415.163, 58744.88
4417.091, 58204.04
4419.020, 57804.89
4420.948, 57539.25
4422.876, 57396.75
4424.805, 57107.69
4426.733, 56731.31
4428.662, 56274.95
4430.590, 55978.51
4432.519, 55766.38
4434.447, 55425.85
4436.375, 55119.78
4438.304, 54890.21
4440.232, 54590.44
4442.161, 54362.93
4444.089, 54358.39
4446.018, 54357.79
4447.946, 54317.28
4449.875, 54149.75
4451.803, 53975.60
4453.732, 53822.72
4455.660, 53832.86
4457.589, 53896.23
4459.517, 53938.83
4461.446, 53887.57
4463.374, 53793.08
4465.303, 53825.02
4467.231, 53801.51
4469.160, 53698.59
4471.088, 53797.27
4473.017, 53943.38
4474.945, 54042.54
4476.874, 53989.30
4478.802, 53891.59
4480.730, 53997.12
4482.659, 54133.24
4484.587, 54261.14
4486.516, 54588.54
4488.444, 54873.29
4490.373, 54890.19
4492.301, 55120.25
4494.229, 55408.01
4496.158, 55445.77
4498.086, 55440.02
4500.015, 55446.47
4501.943, 55385.97
4503.872, 55468.48
4505.800, 55828.38
4507.729, 55897.59
4509.657, 55867.40
4511.586, 56023.54
4513.514, 56269.45
4515.443, 56526.66
4517.371, 56426.30
4519.300, 56398.99
4521.228, 56599.02
4523.157, 56649.79
4525.085, 56670.56
4527.014, 56758.95
4528.942, 56900.06
4530.871, 57086.52
4532.799, 57355.20
4534.728, 57519.41
4536.656, 57555.83
4538.584, 57776.73
4540.513, 57926.96
4542.441, 57811.39
4544.370, 57904.87
4546.298, 58079.74
4548.227, 58163.36
4550.155, 58224.54
4552.083, 58284.16
4554.012, 58437.32
4555.940, 58451.47
4557.869, 58276.50
4559.797, 58306.55
4561.726, 58382.06
4563.654, 58333.01
4565.583, 58474.14
4567.511, 58652.91
4569.440, 58620.25
4571.368, 58575.47
4573.297, 58561.48
4575.225, 58588.05
4577.154, 58634.11
4579.082, 58684.92
4581.011, 58623.98
4582.939, 58556.38
4584.868, 58582.48
4586.796, 58608.65
4588.725, 58635.41
4590.653, 58645.70
4592.582, 58739.95
4594.510, 58894.45
4596.438, 58953.84
4598.367, 59088.73
4600.295, 59327.37
4602.224, 59199.40
4604.152, 59035.77
4606.081, 59079.39
4608.009, 59222.86
4609.938, 59328.11
4611.866, 59195.33
4613.794, 59091.83
4615.723, 59035.96
4617.651, 58958.90
4619.580, 58980.51
4621.508, 59106.30
4623.437, 59075.67
4625.365, 59015.84
4627.294, 58978.21
4629.222, 59133.96
4631.151, 59272.52
4633.079, 59179.15
4635.008, 59303.24
4636.936, 59500.93
4638.865, 59483.97
4640.793, 59391.78
4642.722, 59286.80
4644.650, 59332.57
4646.579, 59340.48
4648.507, 59267.23
4650.436, 59202.86
4652.364, 59255.94
4654.292, 59499.66
4656.221, 59257.05
4658.149, 58964.56
4660.078, 59135.03
4662.006, 59136.72
4663.935, 59048.76
4665.863, 59070.98
4667.792, 59017.36
4669.720, 58895.99
4671.648, 58814.80
4673.577, 58740.93
4675.505, 58669.45
4677.434, 58646.05
4679.362, 58544.50
4681.291, 58323.15
4683.219, 58217.09
4685.148, 58216.39
4687.076, 58297.95
4689.005, 58447.89
4690.933, 58573.36
4692.862, 58617.62
4694.790, 58257.99
4696.719, 57828.29
4698.647, 58128.71
4700.576, 58266.10
4702.504, 58181.79
4704.433, 58128.91
4706.361, 58057.45
4708.290, 57954.70
4710.218, 57927.21
4712.146, 57935.33
4714.075, 57958.27
4716.003, 57949.59
4717.932, 57898.36
4719.860, 57781.83
4721.789, 57861.09
4723.717, 57939.36
4725.646, 57793.66
4727.574, 57725.45
4729.502, 57747.81
4731.431, 57916.40
4733.359, 57909.13
4735.288, 57762.38
4737.216, 57602.62
4739.145, 57543.68
4741.073, 57538.72
4743.002, 57249.46
4744.930, 57147.50
4746.859, 57265.95
4748.787, 57020.64
4750.716, 56935.69
4752.644, 57198.89
4754.573, 57215.89
4756.501, 57195.84
4758.430, 57237.25
4760.358, 57053.33
4762.287, 56932.72
4764.215, 57129.27
4766.144, 57268.34
4768.072, 57216.13
4770.000, 56812.70
4771.929, 56797.64
4773.857, 56942.70
4775.786, 56853.29
4777.714, 56930.87
4779.643, 57029.74
4781.571, 56786.86
4783.500, 56817.71
4785.428, 56979.89
4787.356, 56760.59
4789.285, 56601.40
4791.213, 56562.41
4793.142, 56597.67
4795.070, 56670.23
4796.999, 56734.34
4798.927, 56652.73
4800.856, 56482.19
4802.784, 56272.94
4804.713, 56338.18
4806.641, 56346.96
4808.570, 56231.84
4810.498, 56312.71
4812.427, 56332.20
4814.355, 56166.57
4816.284, 56216.62
4818.212, 56260.91
4820.141, 56196.89
4822.069, 56011.37
4823.998, 55849.83
4825.926, 55817.60
4827.854, 55785.34
4829.783, 55750.11
4831.711, 55707.30
4833.640, 55664.36
4835.568, 55612.13
4837.497, 55532.61
4839.425, 55535.94
4841.354, 55501.36
4843.282, 55304.88
4845.210, 55329.95
4847.139, 55406.41
4849.067, 55288.55
4850.996, 55314.68
4852.924, 55396.70
4854.853, 55430.72
4856.781, 55442.65
4858.710, 55394.64
4860.638, 55187.33
4862.567, 55071.62
4864.495, 55053.36
4866.424, 55171.57
4868.352, 55095.65
4870.281, 54948.29
4872.209, 54935.23
4874.138, 55028.29
4876.066, 55109.72
4877.995, 54950.24
4879.923, 55016.99
4881.852, 55178.56
4883.780, 55186.18
4885.708, 54988.78
4887.637, 54786.99
4889.565, 54942.90
4891.494, 54983.40
4893.422, 54950.36
4895.351, 54976.00
4897.279, 55051.71
4899.208, 55115.80
4901.136, 55063.90
4903.064, 55023.96
4904.993, 54996.43
4906.921, 54969.08
4908.850, 54971.18
4910.778, 54975.64
4912.707, 54894.30
4914.635, 54931.11
4916.564, 55026.02
4918.492, 55098.94
4920.421, 55091.39
4922.349, 55002.36
4924.278, 54798.93
4926.206, 54863.66
4928.135, 55000.61
4930.063, 54880.59
4931.992, 55014.44
4933.920, 55164.63
4935.849, 55027.16
4937.777, 55102.54
4939.706, 55169.01
4941.634, 54911.54
4943.563, 54850.91
4945.491, 54914.77
4947.419, 55024.16
4949.348, 55115.56
4951.276, 55120.47
4953.205, 54961.87
4955.133, 55094.47
4957.062, 55166.02
4958.990, 54949.08
4960.918, 54840.55
4962.847, 54796.57
4964.775, 54788.71
4966.704, 55008.56
4968.632, 55168.38
4970.561, 55127.91
4972.489, 54831.22
4974.418, 54656.78
4976.346, 54720.08
4978.275, 54896.85
4980.203, 55014.83
4982.132, 55012.16
4984.060, 54778.44
4985.989, 54720.52
4987.917, 54864.87
4989.846, 54861.57
4991.774, 54861.85
4993.703, 54867.93
4995.631, 54761.30
4997.560, 54761.27
4999.488, 54816.05
5001.417, 54739.73
5003.345, 54659.69
5005.273, 54620.70
5007.202, 54695.76
5009.130, 54617.49
5011.059, 54516.54
5012.987, 54553.71
5014.916, 54749.89
5016.844, 54860.27
5018.772, 54677.00
5020.701, 54545.03
5022.629, 54477.53
5024.558, 54469.62
5026.486, 54570.17
5028.415, 54633.59
5030.343, 54598.69
5032.272, 54679.14
5034.200, 54714.47
5036.129, 54660.77
5038.057, 54644.31
5039.986, 54432.42
5041.914, 54105.77
5043.843, 54149.00
5045.771, 54222.42
5047.700, 54256.98
5049.628, 54223.12
5051.557, 54267.04
5053.485, 54346.13
5055.414, 54405.16
5057.342, 54345.93
5059.271, 54253.86
5061.199, 54218.58
5063.127, 54097.27
5065.056, 54012.98
5066.984, 54047.66
5068.913, 54075.89
5070.841, 54106.12
5072.770, 54134.60
5074.698, 54103.14
5076.626, 54108.37
5078.555, 54155.57
5080.483, 54166.39
5082.412, 54132.49
5084.340, 54107.34
5086.269, 54220.68
5088.197, 54291.56
5090.126, 54335.70
5092.054, 54410.52
5093.983, 54425.43
5095.911, 54297.32
5097.840, 53932.67
5099.768, 53897.21
5101.697, 54113.08
5103.625, 54486.56
5105.554, 54316.12
5107.482, 54175.02
5109.411, 54187.71
5111.339, 54216.66
5113.268, 54192.85
5115.196, 54133.61
5117.125, 54105.11
5119.053, 53988.71
5120.981, 53965.04
5122.910, 54245.31
5124.838, 54282.23
5126.767, 54293.30
5128.695, 54443.66
5130.624, 54519.29
5132.552, 54507.68
5134.480, 54423.20
5136.409, 54344.02
5138.337, 54405.81
5140.266, 54498.55
5142.194, 54276.09
5144.123, 54102.20
5146.051, 53987.01
5147.980, 53865.53
5149.908, 53937.98
5151.837, 54032.50
5153.765, 54038.76
5155.694, 53914.79
5157.622, 53903.85
5159.551, 54061.12
5161.479, 54245.32
5163.408, 54321.13
5165.336, 54267.88
5167.265, 54108.79
5169.193, 53850.97
5171.122, 53681.86
5173.050, 53795.54
5174.979, 53930.08
5176.907, 54021.39
5178.835, 54033.50
5180.764, 54014.10
5182.692, 53935.31
5184.621, 53834.45
5186.549, 53933.89
5188.478, 53702.89
5190.406, 53428.44
5192.334, 53633.67
5194.263, 53595.97
5196.191, 53484.43
5198.120, 53426.30
5200.048, 53559.64
5201.977, 53637.13
5203.905, 53621.28
5205.834, 53698.75
5207.762, 53683.98
5209.691, 53594.97
5211.619, 53491.20
5213.548, 53444.24
5215.476, 53346.17
5217.405, 53130.75
5219.333, 53163.29
5221.262, 53160.00
5223.190, 53060.16
5225.119, 52989.97
5227.047, 52946.00
5228.976, 52911.34
5230.904, 52832.15
5232.833, 52881.30
5234.761, 52966.63
5236.689, 53017.18
5238.618, 52970.39
5240.546, 52856.86
5242.475, 52758.98
5244.403, 52918.41
5246.332, 52993.20
5248.260, 52964.01
5250.188, 52818.86
5252.117, 52907.32
5254.045, 52958.19
5255.974, 52858.05
5257.902, 52888.93
5259.831, 52843.47
5261.759, 52725.82
5263.688, 52622.29
5265.616, 52611.11
5267.545, 52659.54
5269.473, 52726.62
5271.402, 52640.36
5273.330, 52539.70
5275.259, 52468.72
5277.187, 52398.35
5279.116, 52415.25
5281.044, 52423.79
5282.973, 52248.17
5284.901, 52170.81
5286.830, 52209.13
5288.758, 52327.75
5290.687, 52193.48
5292.615, 52190.96
5294.543, 52272.91
5296.472, 52191.06
5298.400, 52189.42
5300.329, 52247.68
5302.257, 52329.75
5304.186, 52246.07
5306.114, 52056.15
5308.042, 51891.48
5309.971, 52030.84
5311.899, 52083.54
5313.828, 52027.53
5315.756, 51885.51
5317.685, 51749.04
5319.613, 51786.42
5321.542, 51908.30
5323.470, 51638.23
5325.399, 51445.87
5327.327, 51361.75
5329.256, 51355.42
5331.184, 51414.42
5333.113, 51495.43
5335.041, 51527.02
5336.970, 51305.76
5338.898, 51145.31
5340.827, 51107.40
5342.755, 51235.23
5344.684, 51345.58
5346.612, 51409.34
5348.541, 51362.22
5350.469, 50955.96
5352.397, 50990.65
5354.326, 51185.36
5356.254, 51156.49
5358.183, 51085.82
5360.111, 50991.93
5362.040, 50917.33
5363.968, 51072.14
5365.896, 51066.58
5367.825, 50930.81
5369.753, 50755.45
5371.682, 50620.10
5373.610, 50519.76
5375.539, 50424.87
5377.467, 50230.04
5379.396, 50119.91
5381.324, 50117.65
5383.253, 50222.92
5385.181, 50080.41
5387.110, 50117.63
5389.038, 50222.27
5390.967, 49907.00
5392.895, 49808.50
5394.824, 49810.24
5396.752, 49790.21
5398.681, 49712.56
5400.609, 49659.48
5402.538, 49628.96
5404.466, 49601.09
5406.395, 49544.27
5408.323, 49495.90
5410.251, 49445.51
5412.180, 49237.88
5414.108, 49202.72
5416.037, 49222.00
5417.965, 49132.36
5419.894, 49003.34
5421.822, 48747.85
5423.750, 48444.06
5425.679, 48327.29
5427.607, 48425.88
5429.536, 48498.07
5431.464, 48390.24
5433.393, 48244.86
5435.321, 48125.02
5437.250, 48079.27
5439.178, 48169.94
5441.107, 48074.80
5443.035, 47905.07
5444.964, 47742.70
5446.892, 47619.86
5448.821, 47651.38
5450.749, 47570.26
5452.678, 47174.38
5454.606, 47420.54
5456.535, 47428.66
5458.463, 47246.84
5460.392, 47285.57
5462.320, 47211.55
5464.249, 47082.66
5466.177, 46943.34
5468.105, 46782.04
5470.034, 46716.16
5471.962, 46714.14
5473.891, 46737.10
5475.819, 46787.60
5477.748, 46610.41
5479.676, 46362.60
5481.604, 46354.98
5483.533, 46177.17
5485.461, 46018.64
5487.390, 45956.67
5489.318, 45962.97
5491.247, 46006.46
5493.175, 45988.40
5495.104, 45863.14
5497.032, 45819.65
5498.961, 45820.19
5500.889, 45767.00
5502.818, 45564.30
5504.746, 45515.55
5506.675, 45350.75
5508.603, 45173.72
5510.532, 45337.98
5512.460, 45127.15
5514.389, 44962.48
5516.317, 44974.77
5518.246, 44771.24
5520.174, 44602.23
5522.103, 44541.25
5524.031, 44593.78
5525.959, 44451.77
5527.888, 44368.73
5529.816, 44311.73
5531.745, 44189.42
5533.673, 44027.11
5535.602, 43995.75
5537.530, 44032.62
5539.458, 43974.98
5541.387, 43941.50
5543.315, 43830.81
5545.244, 43634.75
5547.172, 43427.36
5549.101, 43310.21
5551.029, 43305.10
5552.958, 43370.62
5554.886, 43277.43
5556.815, 43232.07
5558.743, 43115.95
5560.672, 42863.75
5562.600, 42810.23
5564.529, 42708.07
5566.457, 42552.52
5568.386, 42386.24
5570.314, 42275.00
5572.243, 42214.39
5574.171, 42180.07
5576.100, 42153.87
5578.028, 42068.40
5579.957, 41971.80
5581.885, 41889.30
5583.813, 41846.90
5585.742, 41675.95
5587.670, 41532.39
5589.599, 41485.87
5591.527, 41554.53
5593.456, 41423.86
5595.384, 41289.32
5597.313, 41221.16
5599.241, 41063.56
5601.169, 40955.00
5603.098, 40880.49
5605.026, 40818.68
5606.955, 40817.69
5608.883, 40592.04
5610.812, 40405.63
5612.740, 40402.91
5614.669, 40246.45
5616.597, 40032.52
5618.526, 39899.03
5620.454, 39900.38
5622.383, 39832.86
5624.311, 39767.66
5626.240, 39664.92
5628.168, 39509.07
5630.097, 39572.44
5632.025, 39491.01
5633.954, 39376.43
5635.882, 39388.61
5637.811, 39210.77
5639.739, 39019.47
5641.667, 38867.49
5643.596, 38762.52
5645.524, 38862.67
5647.453, 38884.14
5649.381, 38774.17
5651.310, 38563.99
5653.238, 38358.88
5655.167, 38276.32
5657.095, 38211.88
5659.023, 38065.07
5660.952, 38141.54
5662.880, 38019.56
5664.809, 37812.07
5666.737, 37710.14
5668.666, 37691.03
5670.594, 37601.95
5672.523, 37539.38
5674.451, 37609.77
5676.380, 37312.11
5678.308, 37340.70
5680.237, 37413.83
5682.165, 37198.04
5684.094, 37075.16
5686.022, 37035.06
5687.951, 36953.39
5689.879, 36768.80
5691.808, 36700.93
5693.736, 36689.25
5695.665, 36648.04
5697.593, 36543.30
5699.521, 36482.45
5701.450, 36297.79
5703.378, 36211.53
5705.307, 36302.60
5707.235, 36226.71
5709.164, 36075.19
5711.092, 35907.18
5713.021, 35792.41
5714.949, 35912.85
5716.877, 35776.75
5718.806, 35574.99
5720.734, 35431.64
5722.663, 35361.40
5724.591, 35213.27
5726.520, 35062.73
5728.448, 34991.73
5730.377, 35074.42
5732.305, 35176.98
5734.234, 35030.59
5736.162, 34785.82
5738.091, 34750.47
5740.019, 34694.59
5741.948, 34649.88
5743.876, 34567.59
5745.805, 34393.94
5747.733, 34449.09
5749.662, 34259.20
5751.590, 34062.45
5753.519, 34089.62
5755.447, 34082.80
5757.375, 34076.46
5759.304, 33964.29
5761.232, 33750.82
5763.161, 33659.54
5765.089, 33694.30
5767.018, 33674.74
5768.946, 33532.73
5770.875, 33294.47
5772.803, 33324.47
5774.731, 33258.46
5776.660, 33108.54
5778.588, 33059.57
5780.517, 32982.11
5782.445, 33011.28
5784.374, 32970.22
5786.302, 32720.91
5788.231, 32753.46
5790.159, 32730.42
5792.088, 32651.98
5794.016, 32549.34
5795.945, 32407.81
5797.873, 32278.60
5799.802, 32221.64
5801.730, 32194.88
5803.659, 32077.92
5805.587, 32023.90
5807.516, 31920.68
5809.444, 31811.53
5811.373, 31773.12
5813.301, 31727.17
5815.229, 31714.69
5817.158, 31693.58
5819.086, 31629.62
5821.015, 31514.50
5822.943, 31471.29
5824.872, 31414.21
5826.800, 31349.99
5828.729, 31376.24
5830.657, 31177.65
5832.585, 30988.28
5834.514, 30865.90
5836.442, 30794.43
5838.371, 30838.11
5840.299, 30829.38
5842.228, 30681.59
5844.156, 30430.96
5846.085, 30288.71
5848.013, 30153.71
5849.942, 30228.33
5851.870, 30358.71
5853.799, 30233.21
5855.727, 30089.44
5857.656, 30066.13
5859.584, 30051.71
5861.513, 29957.54
5863.441, 29872.45
5865.370, 29723.32
5867.298, 29712.46
5869.227, 29764.94
5871.155, 29643.51
5873.083, 29591.69
5875.012, 29532.97
5876.940, 29416.14
5878.869, 29246.53
5880.797, 29140.07
5882.726, 29137.98
5884.654, 29088.54
5886.583, 28985.94
5888.511, 28934.62
5890.439, 28804.22
5892.368, 28806.78
5894.296, 28803.46
5896.225, 28678.65
5898.153, 28563.31
5900.082, 28685.90
5902.010, 28622.27
5903.939, 28375.84
5905.867, 28250.18
5907.796, 28131.90
5909.724, 28108.78
5911.653, 28205.90
5913.581, 28338.96
5915.510, 28159.04
5917.438, 28139.08
5919.367, 28002.66
5921.295, 27771.41
5923.224, 27615.57
5925.152, 27661.45
5927.081, 27634.89
5929.009, 27505.34
5930.938, 27358.95
5932.866, 27358.32
5934.794, 27428.58
5936.723, 27262.02
5938.651, 27086.07
5940.580, 27113.31
5942.508, 27031.19
5944.437, 26923.62
5946.365, 26919.82
5948.293, 26941.53
5950.222, 26836.73
5952.150, 26701.37
5954.079, 26639.72
5956.007, 26591.25
5957.936, 26502.64
5959.864, 26364.12
5961.793, 26361.87
5963.721, 26305.98
5965.650, 26246.39
5967.578, 26229.53
5969.507, 26124.94
5971.435, 25990.65
5973.364, 25990.90
5975.292, 26041.95
5977.221, 26001.78
5979.149, 25968.31
5981.078, 25849.29
5983.006, 25755.25
5984.935, 25678.70
5986.863, 25531.07
5988.792, 25522.80
5990.720, 25460.52
5992.648, 25348.91
5994.577, 25240.68
5996.505, 25193.79
5998.434, 25102.45
6000.362, 25146.07
6002.291, 25105.04
6004.219, 24890.14
6006.147, 24829.44
6008.076, 24758.44
6010.004, 24775.27
6011.933, 24751.11
6013.861, 24605.54
6015.790, 24634.26
6017.718, 24632.56
6019.647, 24467.98
6021.575, 24295.09
6023.504, 24291.90
6025.432, 24428.64
6027.361, 24219.00
6029.289, 24030.99
6031.218, 23992.62
6033.146, 24048.75
6035.075, 24060.08
6037.003, 23986.82
6038.932, 23856.50
6040.860, 23747.98
6042.789, 23734.32
6044.717, 23757.16
6046.646, 23700.74
6048.574, 23552.83
6050.502, 23437.83
6052.431, 23490.23
6054.359, 23220.97
6056.288, 23165.83
6058.216, 23162.05
6060.145, 23148.43
6062.073, 23162.82
6064.001, 22937.91
6065.930, 23078.17
6067.858, 23038.18
6069.787, 22824.69
6071.715, 22762.23
6073.644, 22702.17
6075.572, 22690.06
6077.501, 22623.53
6079.429, 22502.75
6081.358, 22390.90
6083.286, 22398.99
6085.215, 22338.19
6087.143, 22117.43
6089.072, 22037.12
6091.000, 22302.32
6092.929, 22214.79
6094.857, 22044.54
6096.786, 21982.65
6098.714, 21972.56
6100.643, 21925.71
6102.571, 21885.47
6104.500, 21801.91
6106.428, 21753.40
6108.356, 21747.82
6110.285, 21739.15
6112.213, 21621.61
6114.142, 21585.12
6116.070, 21485.64
6117.999, 21436.45
6119.927, 21443.46
6121.855, 21330.59
6123.784, 21232.10
6125.712, 21171.67
6127.641, 21180.78
6129.569, 21164.85
6131.498, 20989.17
6133.426, 21078.16
6135.355, 20869.78
6137.283, 20722.04
6139.212, 20712.80
6141.140, 20729.32
6143.069, 20659.18
6144.997, 20553.18
6146.926, 20610.90
6148.854, 20621.11
6150.783, 20465.67
6152.711, 20335.40
6154.640, 20268.11
6156.568, 20207.32
6158.497, 20188.74
6160.425, 20167.45
6162.354, 20053.21
6164.282, 20089.16
6166.210, 20090.40
6168.139, 19998.56
6170.067, 19893.70
6171.996, 19859.15
6173.924, 19901.71
6175.853, 19766.49
6177.781, 19732.63
6179.709, 19642.94
6181.638, 19484.32
6183.566, 19491.47
6185.495, 19593.63
6187.423, 19442.52
6189.352, 19353.34
6191.280, 19320.86
6193.209, 19215.98
6195.137, 19192.56
6197.066, 19176.21
6198.994, 19177.68
6200.923, 19190.55
6202.851, 19147.51
6204.780, 18979.07
6206.708, 18962.96
6208.637, 18757.56
6210.565, 18717.73
6212.494, 18721.78
6214.422, 18605.11
6216.351, 18699.83
6218.279, 18499.88
6220.208, 18449.00
6222.136, 18482.14
6224.064, 18491.32
6225.993, 18470.29
6227.921, 18426.50
6229.850, 18442.74
6231.778, 18404.50
6233.707, 18347.85
6235.635, 18291.71
6237.563, 18156.13
6239.492, 18093.83
6241.420, 18043.94
6243.349, 17980.89
6245.277, 17930.59
6247.206, 17894.74
6249.134, 17749.79
6251.063, 17738.67
6252.991, 17800.22
6254.920, 17777.27
6256.848, 17703.45
6258.777, 17695.04
6260.705, 17591.51
6262.634, 17469.38
6264.562, 17457.42
6266.491, 17406.64
6268.419, 17318.03
6270.348, 17347.36
6272.276, 17284.57
6274.205, 17260.96
6276.133, 17137.10
6278.062, 17101.40
6279.990, 17126.55
6281.918, 16928.98
6283.847, 17025.78
6285.775, 16932.19
6287.704, 16908.76
6289.632, 16910.18
6291.561, 16867.96
6293.489, 16858.37
6295.417, 16713.12
6297.346, 16598.17
6299.274, 16627.03
6301.203, 16620.51
6303.131, 16500.81
6305.060, 16447.72
6306.988, 16457.33
6308.917, 16405.52
6310.845, 16374.08
6312.774, 16378.14
6314.702, 16363.73
6316.631, 16257.33
6318.559, 16205.42
6320.488, 16190.75
6322.416, 16102.47
6324.345, 15983.96
6326.273, 15946.05
6328.202, 16075.32
6330.130, 16118.59
6332.059, 15975.50
6333.987, 15903.81
6335.916, 15902.21
6337.844, 15870.05
6339.772, 15755.14
6341.701, 15610.47
6343.629, 15641.88
6345.558, 15617.24
6347.486, 15523.23
6349.415, 15455.92
6351.343, 15457.94
6353.271, 15386.84
6355.200, 15305.76
6357.128, 15400.17
6359.057, 15340.80
6360.985, 15190.10
6362.914, 15156.89
6364.842, 15213.50
6366.771, 15071.76
6368.699, 15067.11
6370.628, 14970.14
6372.556, 14915.58
6374.485, 14958.83
6376.413, 14910.16
6378.342, 14880.00
6380.270, 14842.75
6382.199, 14829.08
6384.127, 14828.19
6386.056, 14809.69
6387.984, 14766.90
6389.913, 14742.58
6391.841, 14686.14
6393.770, 14660.47
6395.698, 14605.40
6397.626, 14521.76
6399.555, 14463.06
6401.483, 14461.20
6403.412, 14369.13
6405.340, 14259.68
6407.269, 14286.55
6409.197, 14339.37
6411.125, 14308.41
6413.054, 14219.12
6414.982, 14283.70
6416.911, 14185.84
6418.839, 14083.12
6420.768, 14019.08
6422.696, 14029.65
6424.625, 14035.33
6426.553, 13935.05
6428.482, 13923.97
6430.410, 13778.18
6432.339, 13842.64
6434.267, 13832.66
6436.196, 13722.55
6438.124, 13617.86
6440.053, 13546.76
6441.981, 13614.12
6443.910, 13527.90
6445.838, 13529.33
6447.767, 13463.42
6449.695, 13424.71
6451.624, 13492.04
6453.552, 13420.61
6455.480, 13338.44
6457.409, 13274.14
6459.337, 13297.48
6461.266, 13379.10
6463.194, 13371.04
6465.123, 13224.74
6467.051, 13117.81
6468.979, 13198.64
6470.908, 13124.80
6472.836, 13088.17
6474.765, 13058.67
6476.693, 12996.55
6478.622, 12935.67
6480.550, 12933.96
6482.479, 12947.02
6484.407, 12883.83
6486.336, 12856.18
6488.264, 12751.14
6490.193, 12679.28
6492.121, 12714.73
6494.050, 12680.51
6495.978, 12641.08
6497.907, 12646.19
6499.835, 12537.57
6501.764, 12474.64
6503.692, 12453.11
6505.621, 12442.40
6507.549, 12473.48
6509.478, 12396.88
6511.406, 12357.94
6513.334, 12365.49
6515.263, 12288.61
6517.191, 12259.90
6519.120, 12247.27
6521.048, 12134.43
6522.977, 12231.78
6524.905, 12204.41
6526.833, 12091.95
6528.762, 11963.32
6530.690, 11993.79
6532.619, 12022.67
6534.547, 11957.96
6536.476, 12032.26
6538.404, 12009.27
6540.333, 11976.98
6542.261, 11954.93
6544.190, 11851.10
6546.118, 11790.95
6548.047, 11789.55
6549.975, 11725.60
6551.904, 11534.55
6553.832, 11542.17
6555.761, 11538.79
6557.689, 11453.87
6559.618, 11434.17
6561.546, 11367.40
6563.475, 11201.33
6565.403, 11065.13
6567.332, 11059.97
6569.260, 10993.28
6571.188, 10927.81
6573.117, 10819.42
6575.045, 10725.79
6576.974, 10706.86
6578.902, 10661.37
6580.831, 10533.28
6582.759, 10528.26
6584.688, 10449.00
6586.616, 10275.28
6588.544, 10249.29
6590.473, 10266.13
6592.401, 10159.94
##END=



