##NAMES=Amblygonite
##RRUFFID=R040006
##IDEAL CHEMISTRY=LiAl(PO_4_)F
##LOCALITY=Pala, San Diego County, California, USA
##OWNER=RRUFF
##SOURCE=University of Arizona Mineral Museum
##DESCRIPTION=Light gray coarsely crystalline massive
##STATUS=The identification of this mineral has been confirmed by X-ray diffraction and chemical analysis
##URL=https://www.rruff.net/odr/rruff_sample/R040006
##MEASURED CHEMISTRY=LiAl_1.00_(P_1.00_O_4_)(F_0.73_(OH)_0.27_) ; Li assumed by stoichiometry  OH estimated by charge balance
##DIFFRACTION SAMPLE DESCRIPTION=Powder
##CELL PARAMETERS=a: 6.6974 b: 7.7199 c: 6.9758 alpha: 90.945 beta: 117.764 gamma: 91.406 volume: 318.9 crystal system: triclinic
##FILETYPE=Raman RAW
##RAMAN WAVELENGTH=785

117.6379, 115.2683
119.5664, 146.0975
121.4949, 157.7469
123.4233, 185.6890
125.3518, 259.9084
127.2803, 378.0980
129.2087, 520.9913
131.1372, 712.4315
133.0657, 837.8786
134.9941, 841.8160
136.9226, 798.6453
138.8511, 714.9539
140.7795, 619.8688
142.7080, 613.2296
144.6365, 699.0485
146.5649, 824.6966
148.4934, 1018.669
150.4219, 1192.340
152.3503, 1288.693
154.2788, 1353.224
156.2073, 1443.747
158.1357, 1561.604
160.0642, 1737.799
161.9927, 2010.762
163.9211, 2246.281
165.8496, 2420.535
167.7781, 2515.295
169.7065, 2500.869
171.6350, 2384.857
173.5635, 2219.447
175.4919, 1995.053
177.4204, 1783.373
179.3489, 1596.960
181.2773, 1434.010
183.2058, 1296.515
185.1343, 1179.568
187.0627, 1077.744
188.9912, 991.0788
190.9197, 905.1793
192.8481, 813.1661
194.7766, 736.8398
196.7051, 683.6222
198.6335, 648.7342
200.5620, 632.7575
202.4905, 633.6993
204.4189, 641.5593
206.3474, 657.7719
208.2759, 669.1830
210.2043, 670.5466
212.1328, 669.8238
214.0613, 670.1899
215.9897, 670.6411
217.9182, 670.5203
219.8467, 669.5253
221.7751, 664.4277
223.7036, 654.3724
225.6321, 642.4694
227.5605, 627.4540
229.4890, 613.1797
231.4175, 602.4683
233.3459, 593.8286
235.2744, 583.9891
237.2029, 573.0413
239.1313, 559.9498
241.0598, 540.0869
242.9883, 528.8000
244.9167, 535.0714
246.8452, 546.9446
248.7737, 548.3726
250.7021, 548.7828
252.6306, 577.3550
254.5591, 633.8903
256.4875, 706.7278
258.4160, 790.2395
260.3445, 898.2425
262.2729, 1041.578
264.2014, 1203.336
266.1299, 1384.150
268.0583, 1570.050
269.9868, 1718.297
271.9153, 1830.200
273.8438, 1890.088
275.7722, 1872.064
277.7007, 1833.925
279.6292, 1765.712
281.5576, 1709.472
283.4861, 1689.273
285.4146, 1718.714
287.3430, 1820.192
289.2715, 1989.327
291.2000, 2277.859
293.1284, 2684.926
295.0569, 3242.710
296.9854, 4119.742
298.9138, 5011.524
300.8423, 5746.094
302.7708, 6239.946
304.6992, 6263.086
306.6277, 5791.413
308.5562, 5199.781
310.4846, 4450.421
312.4131, 3753.378
314.3416, 3148.497
316.2700, 2626.641
318.1985, 2181.189
320.1270, 1816.747
322.0554, 1537.819
323.9839, 1343.341
325.9124, 1192.520
327.8408, 1093.799
329.7693, 1012.539
331.6978, 945.2267
333.6262, 887.1900
335.5547, 838.3940
337.4832, 796.2075
339.4116, 752.9714
341.3401, 711.1589
343.2686, 687.6022
345.1970, 688.1483
347.1255, 692.5465
349.0540, 698.8130
350.9824, 705.9955
352.9109, 711.4193
354.8394, 719.3489
356.7678, 735.8502
358.6963, 758.1952
360.6248, 780.2773
362.5532, 801.9213
364.4817, 822.9179
366.4102, 846.6922
368.3386, 864.1218
370.2671, 876.1799
372.1956, 878.7729
374.1240, 868.1005
376.0525, 846.6496
377.9810, 817.1585
379.9094, 780.6413
381.8379, 741.4039
383.7664, 696.4380
385.6948, 659.8043
387.6233, 636.8992
389.5518, 616.9442
391.4802, 596.7455
393.4087, 578.4904
395.3372, 564.2272
397.2656, 553.0648
399.1941, 544.5773
401.1226, 538.5315
403.0510, 528.7991
404.9795, 508.8350
406.9080, 498.7453
408.8364, 501.1177
410.7649, 512.1189
412.6934, 520.2921
414.6218, 545.4845
416.5503, 597.9456
418.4788, 683.9990
420.4072, 841.2506
422.3357, 1072.490
424.2642, 1235.232
426.1926, 1334.909
428.1211, 1330.947
430.0496, 1154.253
431.9780, 967.6359
433.9065, 805.9466
435.8350, 679.2162
437.7634, 605.9384
439.6919, 569.5898
441.6204, 548.7286
443.5488, 543.0007
445.4773, 539.1802
447.4058, 535.0804
449.3342, 536.8091
451.2627, 546.3229
453.1912, 558.8303
455.1196, 572.3344
457.0481, 589.0629
458.9766, 608.8319
460.9050, 634.0311
462.8335, 666.1634
464.7620, 706.1190
466.6904, 759.1341
468.6189, 820.5550
470.5474, 910.6465
472.4758, 1039.903
474.4043, 1178.626
476.3328, 1336.014
478.2612, 1485.089
480.1897, 1630.310
482.1182, 1743.741
484.0466, 1802.288
485.9751, 1813.932
487.9036, 1793.638
489.8320, 1739.874
491.7605, 1679.571
493.6890, 1615.549
495.6174, 1538.987
497.5459, 1449.432
499.4744, 1348.298
501.4028, 1223.217
503.3313, 1102.845
505.2598, 1003.801
507.1882, 918.4963
509.1167, 842.8914
511.0452, 774.3540
512.9736, 703.9500
514.9021, 630.4687
516.8306, 568.1992
518.7590, 517.9645
520.6875, 477.3317
522.6160, 449.6641
524.5444, 424.6417
526.4729, 398.4043
528.4014, 375.3296
530.3298, 359.6000
532.2583, 346.9382
534.1868, 333.3166
536.1152, 319.9268
538.0437, 309.2998
539.9722, 301.4311
541.9006, 297.4821
543.8291, 298.9191
545.7576, 298.8062
547.6860, 296.2675
549.6145, 294.0182
551.5430, 293.1253
553.4714, 291.8590
555.3999, 287.6328
557.3284, 284.7904
559.2568, 288.0308
561.1853, 293.2874
563.1138, 293.7450
565.0422, 291.0598
566.9707, 292.7214
568.8992, 299.1250
570.8276, 305.6127
572.7561, 311.3011
574.6846, 321.3968
576.6130, 337.8204
578.5415, 354.8110
580.4700, 368.0306
582.3984, 385.7684
584.3269, 403.8515
586.2554, 437.2172
588.1838, 484.8593
590.1123, 562.9540
592.0408, 678.0094
593.9692, 844.5128
595.8977, 1141.468
597.8262, 1574.213
599.7546, 1998.560
601.6831, 2445.880
603.6116, 2640.815
605.5400, 2513.827
607.4685, 2261.767
609.3970, 1859.341
611.3254, 1493.939
613.2539, 1234.588
615.1824, 1053.917
617.1108, 950.3649
619.0393, 908.3646
620.9678, 915.0392
622.8962, 969.8708
624.8247, 1081.926
626.7532, 1243.923
628.6816, 1421.965
630.6101, 1614.932
632.5386, 1750.000
634.4670, 1814.415
636.3955, 1890.693
638.3240, 1968.531
640.2524, 2147.728
642.1809, 2561.397
644.1094, 2887.895
646.0378, 3084.958
647.9663, 3066.384
649.8948, 2673.291
651.8232, 2151.348
653.7517, 1674.323
655.6802, 1264.857
657.6086, 972.3676
659.5371, 780.2019
661.4656, 643.7573
663.3940, 557.3189
665.3225, 491.0555
667.2510, 444.1844
669.1794, 403.7144
671.1079, 367.9730
673.0364, 341.3056
674.9648, 327.4391
676.8933, 315.3331
678.8218, 301.9762
680.7502, 289.7714
682.6787, 278.9435
684.6072, 270.1594
686.5356, 264.6686
688.4641, 260.5115
690.3926, 256.5265
692.3210, 252.2761
694.2495, 247.0926
696.1780, 241.1554
698.1064, 233.3233
700.0349, 225.1625
701.9634, 224.9937
703.8918, 231.8885
705.8203, 231.2286
707.7488, 221.1328
709.6772, 215.6867
711.6057, 218.5666
713.5342, 218.5641
715.4626, 210.5631
717.3911, 205.7786
719.3196, 208.7180
721.2480, 211.7493
723.1765, 212.7199
725.1050, 212.9772
727.0334, 212.2214
728.9619, 212.1848
730.8904, 216.1257
732.8188, 219.7708
734.7473, 216.6708
736.6758, 211.0477
738.6042, 209.5843
740.5327, 211.0870
742.4612, 213.3978
744.3896, 216.3703
746.3181, 219.9602
748.2466, 223.9938
750.1750, 226.0920
752.1035, 225.9296
754.0320, 226.0595
755.9604, 226.1450
757.8889, 228.7267
759.8174, 236.4751
761.7458, 241.6904
763.6743, 239.4137
765.6028, 241.3844
767.5313, 252.4513
769.4597, 263.9533
771.3882, 273.2279
773.3167, 282.0896
775.2451, 290.0838
777.1736, 299.7128
779.1021, 311.3215
781.0305, 326.7767
782.9590, 345.1299
784.8875, 370.5838
786.8159, 408.8019
788.7444, 456.8441
790.6729, 510.2533
792.6013, 570.4072
794.5298, 643.5363
796.4583, 725.7639
798.3867, 803.1083
800.3152, 875.5283
802.2437, 946.2949
804.1721, 1015.762
806.1006, 1076.956
808.0291, 1130.914
809.9575, 1171.621
811.8860, 1207.743
813.8145, 1206.703
815.7429, 1152.597
817.6714, 1090.454
819.5999, 1017.062
821.5283, 942.7045
823.4568, 867.1378
825.3853, 792.7112
827.3137, 715.4709
829.2422, 647.1199
831.1707, 593.7828
833.0991, 545.0091
835.0276, 496.1343
836.9561, 451.7495
838.8845, 414.8443
840.8130, 382.0246
842.7415, 349.2594
844.6699, 322.3459
846.5984, 308.1833
848.5269, 298.6121
850.4553, 286.6844
852.3838, 276.0847
854.3123, 271.2120
856.2407, 269.0945
858.1692, 267.7389
860.0977, 265.3638
862.0261, 256.3892
863.9546, 245.8399
865.8831, 246.0901
867.8115, 252.5238
869.7400, 251.3359
871.6685, 245.2564
873.5969, 245.1483
875.5254, 250.0347
877.4539, 254.9077
879.3823, 259.4775
881.3108, 259.4374
883.2393, 254.9157
885.1677, 255.8511
887.0962, 262.6223
889.0247, 267.4300
890.9531, 270.5135
892.8816, 268.3517
894.8101, 259.8523
896.7385, 255.5383
898.6670, 256.0307
900.5955, 258.1829
902.5239, 262.0537
904.4524, 266.0877
906.3809, 270.2695
908.3093, 273.8387
910.2378, 276.8736
912.1663, 277.4913
914.0947, 274.2429
916.0232, 275.6116
917.9517, 284.7094
919.8801, 289.9612
921.8086, 288.2608
923.7371, 286.5717
925.6655, 286.3182
927.5940, 286.5089
929.5225, 286.9738
931.4509, 287.7456
933.3794, 288.9085
935.3079, 290.0213
937.2363, 290.0461
939.1648, 292.8026
941.0933, 300.4418
943.0217, 308.2000
944.9502, 315.0594
946.8787, 320.5753
948.8071, 322.3259
950.7356, 327.7956
952.6641, 341.9123
954.5925, 354.7844
956.5210, 360.8181
958.4495, 369.7850
960.3779, 387.0583
962.3064, 403.8752
964.2349, 417.8910
966.1633, 430.2442
968.0918, 438.2840
970.0203, 449.5128
971.9487, 467.0653
973.8772, 486.9706
975.8057, 504.2995
977.7341, 529.4667
979.6626, 567.6806
981.5911, 611.6393
983.5195, 652.0200
985.4480, 708.7060
987.3765, 776.4285
989.3049, 880.6357
991.2334, 1033.600
993.1619, 1219.064
995.0903, 1425.170
997.0188, 1673.570
998.9473, 1974.676
1000.876, 2314.576
1002.804, 2728.778
1004.733, 3116.713
1006.661, 3508.409
1008.590, 3769.207
1010.518, 3874.037
1012.447, 3818.755
1014.375, 3541.604
1016.303, 3204.749
1018.232, 2797.794
1020.160, 2426.004
1022.089, 2092.164
1024.017, 1834.830
1025.946, 1670.653
1027.874, 1570.430
1029.803, 1526.039
1031.731, 1549.590
1033.660, 1674.325
1035.588, 1811.624
1037.517, 1948.499
1039.445, 2097.160
1041.374, 2276.385
1043.302, 2433.630
1045.230, 2558.273
1047.159, 2671.273
1049.087, 2754.739
1051.016, 2869.155
1052.944, 2998.932
1054.873, 3215.546
1056.801, 3561.498
1058.730, 3896.695
1060.658, 4283.987
1062.587, 4420.774
1064.515, 4281.923
1066.444, 3930.266
1068.372, 3323.223
1070.301, 2730.491
1072.229, 2143.475
1074.157, 1686.750
1076.086, 1366.361
1078.014, 1122.517
1079.943, 955.5745
1081.871, 837.1111
1083.800, 765.1799
1085.728, 703.9179
1087.657, 655.4342
1089.585, 639.7385
1091.514, 650.6929
1093.442, 659.3159
1095.371, 670.6490
1097.299, 701.4670
1099.228, 747.2299
1101.156, 793.9902
1103.084, 850.0722
1105.013, 935.1243
1106.941, 1035.686
1108.870, 1137.239
1110.798, 1237.363
1112.727, 1338.702
1114.655, 1430.571
1116.584, 1505.242
1118.512, 1563.223
1120.441, 1609.350
1122.369, 1632.240
1124.298, 1620.898
1126.226, 1591.065
1128.155, 1547.745
1130.083, 1495.329
1132.011, 1439.250
1133.940, 1365.255
1135.868, 1263.892
1137.797, 1154.680
1139.725, 1040.231
1141.654, 927.8800
1143.582, 816.3341
1145.511, 719.9896
1147.439, 641.4133
1149.368, 576.5603
1151.296, 524.4801
1153.225, 492.7520
1155.153, 483.4761
1157.082, 470.3083
1159.010, 452.4963
1160.938, 431.8914
1162.867, 409.8247
1164.795, 398.2061
1166.724, 394.9919
1168.652, 394.0446
1170.581, 393.4404
1172.509, 386.8767
1174.438, 378.4141
1176.366, 375.5715
1178.295, 374.7868
1180.223, 369.6320
1182.152, 366.6523
1184.080, 372.3927
1186.009, 382.1153
1187.937, 396.3402
1189.865, 407.8431
1191.794, 410.0739
1193.722, 414.9084
1195.651, 428.3170
1197.579, 438.7195
1199.508, 443.1669
1201.436, 445.4926
1203.365, 446.5641
1205.293, 443.9297
1207.222, 437.1725
1209.150, 429.1752
1211.079, 420.2035
1213.007, 411.2333
1214.936, 401.6275
1216.864, 386.8214
1218.792, 368.0691
1220.721, 347.9270
1222.649, 329.0356
1224.578, 319.2189
1226.506, 311.7045
1228.435, 296.6793
1230.363, 279.5651
1232.292, 262.6342
1234.220, 250.1571
1236.149, 247.9757
1238.077, 246.3159
1240.006, 239.0548
1241.934, 234.6529
1243.863, 237.3170
1245.791, 238.2920
1247.719, 235.8336
1249.648, 234.4975
1251.576, 234.8995
1253.505, 234.0337
1255.433, 231.5595
1257.362, 222.8670
1259.290, 211.0354
1261.219, 211.6330
1263.147, 218.7251
1265.076, 218.5199
1267.004, 215.0552
1268.933, 212.2425
1270.861, 211.0145
1272.790, 214.8071
1274.718, 216.6467
1276.646, 209.2602
1278.575, 203.8060
1280.503, 205.4087
1282.432, 208.2771
1284.360, 214.0040
1286.289, 214.3113
1288.217, 205.4030
1290.146, 206.1478
1292.074, 217.5105
1294.003, 218.3353
1295.931, 211.3102
1297.860, 214.3483
1299.788, 222.5740
1301.717, 226.0773
1303.645, 225.8193
1305.573, 220.9352
1307.502, 215.9848
1309.430, 213.7780
1311.359, 213.6824
1313.287, 217.0036
1315.216, 218.7615
1317.144, 216.7426
1319.073, 215.1521
1321.001, 214.1030
1322.930, 215.8811
1324.858, 220.8350
1326.787, 221.1077
1328.715, 217.6619
1330.644, 215.7261
1332.572, 214.2494
1334.500, 209.4642
1336.429, 205.6512
1338.357, 209.8666
1340.286, 213.4350
1342.214, 210.9929
1344.143, 207.7070
1346.071, 205.5481
1348.000, 202.3815
1349.928, 197.0675
1351.857, 194.9400
1353.785, 196.8306
1355.714, 197.7398
1357.642, 197.7028
1359.571, 196.8927
1361.499, 195.7245
1363.427, 195.4587
1365.356, 195.0192
1367.284, 192.8223
1369.213, 190.4237
1371.141, 187.2951
1373.070, 187.8518
1374.998, 195.3463
1376.927, 197.5652
1378.855, 191.4610
1380.784, 192.2565
1382.712, 200.3564
1384.641, 196.7753
1386.569, 186.3333
1388.498, 185.9500
1390.426, 190.2433
1392.354, 192.7962
1394.283, 193.2641
1396.211, 189.1517
1398.140, 186.8820
1400.068, 190.3375
1401.997, 190.4938
1403.925, 185.0241
1405.854, 183.2103
1407.782, 185.5229
1409.711, 184.9874
1411.639, 181.9984
1413.568, 177.6895
1415.496, 174.3423
1417.425, 175.7087
1419.353, 179.3808
1421.281, 183.1775
1423.210, 189.3154
1425.138, 202.0135
1427.067, 207.3824
1428.995, 202.4376
1430.924, 201.6801
1432.852, 205.6022
1434.781, 208.8873
1436.709, 212.0053
1438.638, 216.3981
1440.566, 221.8440
1442.495, 229.1169
1444.423, 235.6935
1446.352, 242.4506
1448.280, 243.0522
1450.208, 232.1403
1452.137, 228.8867
1454.065, 234.7187
1455.994, 232.8231
1457.922, 225.2624
1459.851, 221.0270
1461.779, 219.4494
1463.708, 220.8041
1465.636, 222.0359
1467.565, 222.3860
1469.493, 219.2840
1471.422, 209.1616
1473.350, 201.6233
1475.279, 197.6261
1477.207, 192.5568
1479.135, 187.2917
1481.064, 187.6825
1482.992, 190.5772
1484.921, 192.7887
1486.849, 192.7411
1488.778, 187.2720
1490.706, 183.2871
1492.635, 185.1199
1494.563, 182.7371
1496.492, 174.3364
1498.420, 173.8419
1500.349, 178.5847
1502.277, 176.2059
1504.206, 171.9395
1506.134, 173.3264
1508.063, 174.1896
1509.991, 170.0104
1511.919, 167.5101
1513.848, 168.7477
1515.776, 171.3285
1517.705, 174.9761
1519.633, 174.5024
1521.562, 171.5899
1523.490, 169.7640
1525.419, 168.8861
1527.347, 169.0427
1529.276, 169.5239
1531.204, 170.0808
1533.133, 171.0168
1535.061, 172.5192
1536.990, 171.7107
1538.918, 169.5600
1540.846, 171.9014
1542.775, 174.1963
1544.703, 167.7805
1546.632, 163.1141
1548.560, 166.3600
1550.489, 167.1841
1552.417, 162.8616
1554.346, 163.8822
1556.274, 169.7956
1558.203, 174.0811
1560.131, 174.9301
1562.060, 164.6714
1563.988, 156.9562
1565.917, 161.5244
1567.845, 167.9419
1569.773, 174.5207
1571.702, 175.9321
1573.630, 173.0409
1575.559, 177.1255
1577.487, 182.9352
1579.416, 179.1853
1581.344, 175.4060
1583.273, 179.4010
1585.201, 183.0772
1587.130, 184.9369
1589.058, 187.5670
1590.987, 190.6416
1592.915, 189.2160
1594.844, 187.6633
1596.772, 195.3998
1598.700, 202.3213
1600.629, 199.8153
1602.557, 199.3891
1604.486, 203.2239
1606.414, 203.4127
1608.343, 200.5013
1610.271, 199.3336
1612.200, 198.2355
1614.128, 194.3293
1616.057, 190.7222
1617.985, 188.2794
1619.914, 189.1328
1621.842, 193.7330
1623.771, 191.1517
1625.699, 184.9916
1627.627, 187.6828
1629.556, 191.5915
1631.484, 190.6768
1633.413, 186.5690
1635.341, 176.8415
1637.270, 172.3911
1639.198, 173.0948
1641.127, 172.0202
1643.055, 170.4470
1644.984, 171.4420
1646.912, 171.6178
1648.841, 168.4099
1650.769, 164.9129
1652.698, 161.6998
1654.626, 157.5102
1656.554, 153.0672
1658.483, 150.2921
1660.411, 150.3087
1662.340, 156.2574
1664.268, 160.2905
1666.197, 160.3666
1668.125, 152.9721
1670.054, 139.9167
1671.982, 144.1146
1673.911, 154.4119
1675.839, 157.0218
1677.768, 153.8630
1679.696, 141.7477
1681.625, 141.1326
1683.553, 155.4202
1685.481, 156.3849
1687.410, 150.0872
1689.338, 148.6274
1691.267, 148.3997
1693.195, 147.7724
1695.124, 146.0296
1697.052, 142.8317
1698.981, 142.6726
1700.909, 144.5273
1702.838, 145.6455
1704.766, 146.3302
1706.695, 146.9118
1708.623, 146.5979
1710.552, 145.0555
1712.480, 145.2810
1714.408, 147.3295
1716.337, 152.0360
1718.265, 156.8428
1720.194, 159.7722
1722.122, 160.9629
1724.051, 160.2893
1725.979, 160.8271
1727.908, 162.0111
1729.836, 160.3885
1731.765, 158.5374
1733.693, 160.3722
1735.622, 159.1443
1737.550, 153.0281
1739.479, 153.4303
1741.407, 157.9005
1743.335, 154.6999
1745.264, 149.4601
1747.192, 146.8289
1749.121, 145.1208
1751.049, 143.9691
1752.978, 144.5264
1754.906, 145.8147
1756.835, 144.4482
1758.763, 142.9603
1760.692, 144.5790
1762.620, 143.6805
1764.549, 139.3070
1766.477, 138.6568
1768.406, 140.0996
1770.334, 139.2700
1772.262, 137.8210
1774.191, 136.1049
1776.119, 136.3104
1778.048, 138.5219
1779.976, 139.9283
1781.905, 140.5102
1783.833, 139.7466
1785.762, 139.1077
1787.690, 140.9871
1789.619, 137.0767
1791.547, 128.7178
1793.476, 134.5779
1795.404, 143.3233
1797.333, 142.5556
1799.261, 139.6147
1801.189, 134.9124
1803.118, 135.9791
1805.046, 140.4559
1806.975, 137.5624
1808.903, 132.8328
1810.832, 129.2043
1812.760, 127.9864
1814.689, 129.5473
1816.617, 134.3564
1818.546, 139.0094
1820.474, 136.7606
1822.403, 132.7272
1824.331, 128.2255
1826.260, 128.3555
1828.188, 131.8210
1830.116, 131.9331
1832.045, 131.1160
1833.973, 131.1803
1835.902, 129.3232
1837.830, 124.4525
1839.759, 129.5949
1841.687, 138.0426
1843.616, 131.0490
1845.544, 125.8008
1847.473, 131.6467
1849.401, 131.5654
1851.330, 125.0720
1853.258, 124.3585
1855.187, 127.2557
1857.115, 133.8986
1859.043, 132.4306
1860.972, 120.7500
1862.900, 119.4727
1864.829, 123.9176
1866.757, 124.9755
1868.686, 122.8279
1870.614, 117.5831
1872.543, 115.4507
1874.471, 116.2613
1876.400, 120.9805
1878.328, 124.4374
1880.257, 120.2918
1882.185, 121.6241
1884.114, 128.2931
1886.042, 127.4005
1887.970, 123.6088
1889.899, 122.0211
1891.827, 120.5947
1893.756, 119.2474
1895.684, 117.0062
1897.613, 114.6428
1899.541, 114.3782
1901.470, 116.2523
1903.398, 120.7004
1905.327, 122.4631
1907.255, 121.2981
1909.184, 114.0645
1911.112, 109.0913
1913.041, 113.7691
1914.969, 120.2949
1916.897, 126.3245
1918.826, 119.2299
1920.754, 111.8969
1922.683, 118.2195
1924.611, 120.7371
1926.540, 117.6030
1928.468, 116.2953
1930.397, 115.2855
1932.325, 113.1930
1934.254, 110.8540
1936.182, 106.8667
1938.111, 111.7672
1940.039, 119.5743
1941.968, 117.9429
1943.896, 113.7730
1945.824, 108.7582
1947.753, 108.5568
1949.681, 109.8621
1951.610, 105.4688
1953.538, 104.4876
1955.467, 111.3941
1957.395, 108.8738
1959.324, 101.6320
1961.252, 109.9445
1963.181, 115.5950
1965.109, 109.4772
1967.038, 106.5808
1968.966, 105.7343
1970.895, 99.35493
1972.823, 92.92460
1974.751, 88.31789
1976.680, 92.13554
1978.608, 101.4289
1980.537, 104.8959
1982.465, 103.9255
1984.394, 98.63410
1986.322, 95.98586
1988.251, 95.17003
1990.179, 92.67123
1992.108, 93.42382
1994.036, 100.9470
1995.965, 101.6460
1997.893, 95.52463
1999.822, 93.40420
2001.750, 95.62981
2003.678, 100.7451
2005.607, 101.0262
2007.535, 97.86735
2009.464, 95.42210
2011.392, 95.74914
2013.321, 100.0593
2015.249, 96.06339
2017.178, 87.91618
2019.106, 91.68338
2021.035, 96.36605
2022.963, 93.96951
2024.892, 91.62292
2026.820, 90.56859
2028.749, 91.67172
2030.677, 93.63480
2032.605, 96.76604
2034.534, 94.18098
2036.462, 88.28571
2038.391, 83.81758
2040.319, 83.38634
2042.248, 90.44805
2044.176, 94.92210
2046.105, 96.38596
2048.033, 97.98678
2049.962, 97.72033
2051.890, 94.78117
2053.819, 88.89147
2055.747, 84.57499
2057.676, 91.04346
2059.604, 96.38195
2061.532, 96.60854
2063.461, 93.92436
2065.389, 91.42326
2067.318, 89.71436
2069.246, 90.54758
2071.175, 93.39909
2073.103, 89.98077
2075.032, 86.39637
2076.960, 86.94987
2078.889, 86.48267
2080.817, 84.88064
2082.746, 85.29795
2084.674, 82.22650
2086.603, 73.66016
2088.531, 76.39488
2090.459, 83.07214
2092.388, 82.60702
2094.316, 83.12041
2096.245, 85.57801
2098.173, 83.72662
2100.102, 81.75784
2102.030, 85.18056
2103.959, 86.58045
2105.887, 83.39756
2107.816, 77.72982
2109.744, 75.09444
2111.673, 78.42469
2113.601, 80.47726
2115.530, 80.67953
2117.458, 82.79857
2119.386, 82.83863
2121.315, 80.73789
2123.243, 78.90649
2125.172, 77.15798
2127.100, 76.62780
2129.029, 76.74271
2130.957, 76.72021
2132.886, 75.55560
2134.814, 75.45163
2136.743, 78.26484
2138.671, 79.59089
2140.600, 78.79601
2142.528, 73.92488
2144.457, 70.14003
2146.385, 69.21713
2148.313, 68.67314
2150.242, 68.56474
2152.170, 70.45190
2154.099, 71.91631
2156.027, 72.64476
2157.956, 72.78331
2159.884, 72.02674
2161.813, 69.11649
2163.741, 75.07751
2165.670, 81.40419
2167.598, 72.21379
2169.527, 67.37620
2171.455, 69.89381
2173.384, 70.00421
2175.312, 69.93208
2177.240, 70.94002
2179.169, 71.58942
2181.097, 72.18701
2183.026, 74.17773
2184.954, 73.87436
2186.883, 70.21941
2188.811, 69.46329
2190.740, 70.28347
2192.668, 72.38146
2194.597, 69.00423
2196.525, 63.60348
2198.454, 68.10706
2200.382, 71.49204
2202.311, 70.10185
2204.239, 70.06867
2206.167, 69.81003
2208.096, 67.58393
2210.024, 67.55128
2211.953, 69.12271
2213.881, 69.70514
2215.810, 68.59737
2217.738, 66.07478
2219.667, 65.09492
2221.595, 65.45424
2223.524, 66.64755
2225.452, 68.67903
2227.381, 71.67758
2229.309, 72.90687
2231.238, 69.12075
2233.166, 61.78687
2235.094, 61.17848
2237.023, 63.06285
2238.951, 65.26082
2240.880, 65.47813
2242.808, 64.82513
2244.737, 66.54433
2246.665, 65.61459
2248.594, 62.38245
2250.522, 61.33423
2252.451, 61.01780
2254.379, 61.71423
2256.308, 65.20559
2258.236, 68.72425
2260.165, 67.29163
2262.093, 66.30279
2264.021, 66.67515
2265.950, 64.65556
2267.878, 63.13983
2269.807, 64.35866
2271.735, 62.21590
2273.664, 60.08596
2275.592, 63.10897
2277.521, 62.78187
2279.449, 60.80835
2281.378, 64.04588
2283.306, 64.98749
2285.235, 63.99496
2287.163, 64.48846
2289.092, 64.84772
2291.020, 65.76675
2292.948, 65.73996
2294.877, 64.72607
2296.805, 61.72211
2298.734, 62.60528
2300.662, 65.47118
2302.591, 64.11942
2304.519, 63.32824
2306.448, 63.13644
2308.376, 60.17100
2310.305, 60.37798
2312.233, 64.98065
2314.162, 63.63070
2316.090, 59.78167
2318.019, 58.38791
2319.947, 62.04247
2321.875, 66.25848
2323.804, 61.52007
2325.732, 60.29967
2327.661, 64.85086
2329.589, 64.31223
2331.518, 61.37597
2333.446, 58.79480
2335.375, 58.45123
2337.303, 58.68452
2339.232, 55.96679
2341.160, 56.64401
2343.089, 59.82336
2345.017, 56.56379
2346.946, 54.59622
2348.874, 56.95131
2350.802, 60.97158
2352.731, 63.10678
2354.659, 63.08790
2356.588, 60.39839
2358.516, 59.09731
2360.445, 59.45288
2362.373, 56.31802
2364.302, 54.62703
2366.230, 59.62951
2368.159, 61.75094
2370.087, 60.25049
2372.016, 60.48044
2373.944, 62.82191
2375.873, 65.18674
2377.801, 62.06859
2379.729, 59.74060
2381.658, 62.93130
2383.586, 63.20297
2385.515, 58.31852
2387.443, 53.55990
2389.372, 53.19237
2391.300, 52.49437
2393.229, 49.24490
2395.157, 50.10643
2397.086, 52.70402
2399.014, 50.02163
2400.943, 49.34234
2402.871, 47.54595
2404.800, 46.18332
2406.728, 46.83857
2408.656, 44.56325
2410.585, 42.07275
2412.513, 44.21003
2414.442, 44.97544
2416.370, 41.88784
2418.299, 40.99944
2420.227, 41.82084
2422.156, 43.13851
2424.084, 44.83442
2426.013, 46.92176
2427.941, 43.12485
2429.870, 36.94988
2431.798, 39.12975
2433.727, 45.50353
2435.655, 44.04766
2437.583, 40.89301
2439.512, 43.02139
2441.440, 41.65727
2443.369, 36.75525
2445.297, 36.77774
2447.226, 39.30707
2449.154, 39.77540
2451.083, 39.70318
2453.011, 39.21629
2454.940, 37.26720
2456.868, 38.99345
2458.797, 39.29964
2460.725, 37.46104
2462.654, 36.01450
2464.582, 32.58382
2466.510, 30.54609
2468.439, 31.59700
2470.367, 31.35723
2472.296, 32.16728
2474.224, 36.90349
2476.153, 37.12342
2478.081, 33.50941
2480.010, 33.04037
2481.938, 33.56991
2483.867, 31.45618
2485.795, 31.04816
2487.724, 31.94167
2489.652, 32.22697
2491.581, 31.14302
2493.509, 31.27892
2495.438, 29.79309
2497.366, 27.50988
2499.294, 27.44191
2501.223, 30.40008
2503.151, 27.17072
2505.080, 25.38199
2507.008, 31.79248
2508.937, 30.38625
2510.865, 23.95908
2512.794, 27.21112
2514.722, 31.05983
2516.651, 32.17773
2518.579, 32.38254
2520.508, 31.49628
2522.436, 28.23145
2524.365, 26.41241
2526.293, 25.33537
2528.221, 25.25317
2530.150, 25.10394
2532.078, 26.23676
2534.007, 28.36929
2535.935, 26.24558
2537.864, 27.30124
2539.792, 31.02827
2541.721, 27.36432
2543.649, 25.53913
2545.578, 27.33599
2547.506, 24.95811
2549.435, 24.39470
2551.363, 26.05630
2553.292, 25.49770
2555.220, 24.20762
2557.148, 23.09222
2559.077, 21.95806
2561.005, 21.31479
2562.934, 21.72469
2564.862, 23.65748
2566.791, 23.61085
2568.719, 21.60049
2570.648, 23.95561
2572.576, 23.42720
2574.505, 21.90596
2576.433, 22.82821
2578.362, 23.48880
2580.290, 22.39620
2582.219, 22.92462
2584.147, 20.95704
2586.075, 20.03593
2588.004, 25.93360
2589.932, 27.55223
2591.861, 24.62235
2593.789, 21.98944
2595.718, 20.37942
2597.646, 21.20396
2599.575, 23.51976
2601.503, 27.10710
2603.432, 29.27735
2605.360, 23.88354
2607.289, 19.66257
2609.217, 19.17954
2611.146, 25.22721
2613.074, 21.10918
2615.002, 16.78198
2616.931, 21.95447
2618.859, 23.17794
2620.788, 22.73792
2622.716, 22.79617
2624.645, 20.15184
2626.573, 18.86568
2628.502, 20.36212
2630.430, 21.65854
2632.359, 20.38280
2634.287, 17.10302
2636.216, 17.79240
2638.144, 18.60090
2640.073, 18.96602
2642.001, 20.29205
2643.929, 22.17850
2645.858, 22.44380
2647.786, 15.66901
2649.715, 12.94663
2651.643, 14.16818
2653.572, 16.77472
2655.500, 19.37621
2657.429, 21.12587
2659.357, 22.28595
2661.286, 17.95785
2663.214, 14.20928
2665.143, 18.08509
2667.071, 18.55447
2669.000, 17.20927
2670.928, 15.58562
2672.856, 19.25238
2674.785, 20.52564
2676.713, 15.15036
2678.642, 12.47064
2680.570, 13.03442
2682.499, 16.31377
2684.427, 16.78061
2686.356, 15.95808
2688.284, 14.96903
2690.213, 18.02124
2692.141, 20.08245
2694.070, 19.77272
2695.998, 15.67602
2697.927, 15.36218
2699.855, 17.00873
2701.783, 18.15070
2703.712, 18.89366
2705.640, 18.29526
2707.569, 15.38068
2709.497, 16.81289
2711.426, 16.85721
2713.354, 13.71383
2715.283, 14.69941
2717.211, 13.72433
2719.140, 11.80250
2721.068, 12.40862
2722.997, 12.45252
2724.925, 13.34127
2726.854, 11.15605
2728.782, 14.42947
2730.710, 19.22580
2732.639, 21.03304
2734.567, 15.73814
2736.496, 12.27281
2738.424, 14.06883
2740.353, 13.90883
2742.281, 14.14134
2744.210, 14.94528
2746.138, 15.02502
2748.067, 13.05108
2749.995, 11.69492
2751.924, 13.77082
2753.852, 13.58181
2755.781, 12.72603
2757.709, 15.96799
2759.637, 16.68899
2761.566, 16.47243
2763.494, 14.48654
2765.423, 11.92888
2767.351, 13.98736
2769.280, 16.46201
2771.208, 14.42630
2773.137, 14.25060
2775.065, 16.20955
2776.994, 17.58621
2778.922, 15.16791
2780.851, 13.11185
2782.779, 13.10983
2784.708, 9.185261
2786.636, 7.000732
2788.564, 9.048223
2790.493, 6.276182
2792.421, 8.525460
2794.350, 12.64826
2796.278, 11.79385
2798.207, 11.78550
2800.135, 9.146765
2802.064, 11.68032
2803.992, 13.26353
2805.921, 9.826616
2807.849, 10.86819
2809.778, 14.58282
2811.706, 14.19388
2813.635, 11.11736
2815.563, 14.48429
2817.491, 14.26105
2819.420, 11.40339
2821.348, 6.568233
2823.277, 4.582205
2825.205, 6.520413
2827.134, 9.374758
2829.062, 12.76669
2830.991, 18.00637
2832.919, 18.26834
2834.848, 11.41231
2836.776, 11.85896
2838.705, 12.06998
2840.633, 10.14311
2842.562, 11.99773
2844.490, 13.16769
2846.418, 14.90288
2848.347, 15.09581
2850.275, 12.50626
2852.204, 12.55607
2854.132, 12.39159
2856.061, 11.12420
2857.989, 11.20276
2859.918, 10.17757
2861.846, 8.959351
2863.775, 7.627587
2865.703, 9.574717
2867.632, 11.01835
2869.560, 12.50518
2871.489, 14.52211
2873.417, 14.40889
2875.345, 9.579918
2877.274, 9.606765
2879.202, 13.69865
2881.131, 18.30620
2883.059, 14.36578
2884.988, 12.43998
2886.916, 9.081469
2888.845, 6.550537
2890.773, 11.57383
2892.702, 10.11172
2894.630, 12.01559
2896.559, 10.59258
2898.487, 6.583659
2900.416, 13.63382
2902.344, 13.95284
2904.272, 9.453437
2906.201, 9.326944
2908.129, 9.805501
2910.058, 11.21214
2911.986, 12.98699
2913.915, 14.52024
2915.843, 11.42373
2917.772, 10.81634
2919.700, 14.81733
2921.629, 18.45895
2923.557, 16.04554
2925.486, 14.85128
2927.414, 13.96216
2929.343, 18.52060
2931.271, 21.13733
2933.199, 20.24806
2935.128, 20.59910
2937.056, 20.21399
2938.985, 19.95843
2940.913, 19.77789
2942.842, 23.48576
2944.770, 24.53291
2946.699, 22.59797
2948.627, 23.29718
2950.556, 27.83683
2952.484, 27.76473
2954.413, 22.58241
2956.341, 23.00329
2958.270, 21.00614
2960.198, 17.48825
2962.126, 18.59611
2964.055, 14.52204
2965.983, 13.90644
2967.912, 15.12647
2969.840, 11.91596
2971.769, 13.78826
2973.697, 14.87774
2975.626, 9.782852
2977.554, 5.438146
2979.483, 4.789573
2981.411, 7.755675
2983.340, 9.990309
2985.268, 8.595679
2987.197, 8.778426
2989.125, 11.36191
2991.053, 13.63064
2992.982, 14.87716
2994.910, 14.76893
2996.839, 10.74054
2998.767, 6.095847
3000.696, 5.622283
3002.624, 7.696674
3004.553, 5.280126
3006.481, 6.302863
3008.410, 9.515736
3010.338, 10.45498
3012.267, 11.38284
3014.195, 11.26788
3016.124, 8.341455
3018.052, 5.033148
3019.980, 8.225423
3021.909, 7.373306
3023.837, 5.176692
3025.766, 7.955723
3027.694, 5.639787
3029.623, 3.984983
3031.551, 4.171135
3033.480, 7.412085
3035.408, 12.77278
3037.337, 12.52687
3039.265, 5.712475
3041.194, 7.535607
3043.122, 8.168779
3045.051, 6.822807
3046.979, 3.758789
3048.907, 7.645150
3050.836, 9.421981
3052.764, 8.492511
3054.693, 6.372247
3056.621, 5.070858
3058.550, 8.770065
3060.478, 13.62375
3062.407, 6.084788
3064.335, 9.164559
3066.264, 11.17884
3068.192, 6.662690
3070.121, 8.760533
3072.049, 4.142313
3073.978, 4.109240
3075.906, 11.74021
3077.834, 5.450563
3079.763, 2.994299
3081.691, 5.049527
3083.620, 6.870498
3085.548, 7.270247
3087.477, 5.023612
3089.405, 4.077871
3091.334, 6.198704
3093.262, 4.101147
3095.191, 3.083275
3097.119, 2.618982
3099.048, 1.224813
3100.976, 7.804349
3102.905, 11.85696
3104.833, 9.551938
3106.761, 3.512217
3108.690, 2.457645
3110.618, 1.687994
3112.547, 1.568613
3114.475, 2.890795
3116.404, 4.728985
3118.332, 6.487764
3120.261, 7.532798
3122.189, 5.607041
3124.118, 8.528428
3126.046, 8.052503
3127.975, 4.711607
3129.903, 4.195756
3131.832, 3.002935
3133.760, 1.832030
3135.688, 1.206010
3137.617, 2.337987
3139.545, 2.862668
3141.474, 1.370592
3143.402, 1.6303839E-02
3145.331, 2.885995
3147.259, 6.960146
3149.188, 5.052298
3151.116, 0.9612686
3153.045, 3.527760
3154.973, 3.185998
3156.902, 2.314391
3158.830, 2.563485
3160.759, 4.863698
3162.687, 2.163020
3164.615, 2.265594
3166.544, 4.662379
3168.472, 8.130982
3170.401, 4.341849
3172.329, 2.130347
3174.258, 2.010121
3176.186, 2.822730
3178.115, 8.634768
3180.043, 6.023232
3181.972, 4.431647
3183.900, 10.65225
3185.829, 7.184825
3187.757, 4.055904
3189.686, 3.404800
3191.614, 4.111250
3193.542, 2.747516
3195.471, 3.383246
3197.399, 7.711062
3199.328, 11.70313
3201.256, 1.096150
3203.185, -0.8591213
3205.113, 2.532269
3207.042, 5.922078
3208.970, 3.441813
3210.899, 4.082471
3212.827, 8.320099
3214.756, 8.972206
3216.684, 0.2674870
3218.613, 3.941261
3220.541, 7.860528
3222.469, 5.926835
3224.398, -0.8038906
3226.326, 1.285944
3228.255, 2.481818
3230.183, 3.549165
3232.112, 5.243742
3234.040, 4.962275
3235.969, 5.941829
3237.897, 7.037767
3239.826, 7.533257
3241.754, 2.353730
3243.683, 2.970954
3245.611, 8.919541
3247.540, 11.65635
3249.468, 3.931483
3251.396, 6.036145
3253.325, 7.182091
3255.253, 6.940141
3257.182, 6.566878
3259.110, 7.058071
3261.039, 7.845307
3262.967, 5.275619
3264.896, 1.355926
3266.824, 4.246031
3268.753, 2.557243
3270.681, 6.203144
3272.610, 7.846955
3274.538, -0.6247817
3276.467, 4.638782
3278.395, 7.332987
3280.323, 7.932323
3282.252, 10.87873
3284.180, 9.483778
3286.109, 2.901179
3288.037, 2.696272
3289.966, 7.319117
3291.894, 7.390865
3293.823, 10.66474
3295.751, 8.542641
3297.680, 10.43300
3299.608, 19.04541
3301.537, 6.714573
3303.465, 7.528159
3305.394, 11.90012
3307.322, 13.82523
3309.250, 11.99390
3311.179, 10.85706
3313.107, 13.74240
3315.036, 16.57951
3316.964, 17.92076
3318.893, 25.93961
3320.821, 23.28331
3322.750, 22.58694
3324.678, 26.10341
3326.607, 29.49013
3328.535, 26.11502
3330.464, 30.54648
3332.392, 31.42375
3334.321, 25.85632
3336.249, 38.15898
3338.177, 38.79703
3340.106, 42.64057
3342.034, 50.07709
3343.963, 52.39719
3345.891, 46.56557
3347.820, 45.25850
3349.748, 48.32766
3351.677, 50.55024
3353.605, 43.62333
3355.534, 42.69190
3357.462, 46.75745
3359.391, 43.70497
3361.319, 33.19746
3363.248, 39.31322
3365.176, 45.14407
3367.104, 45.99479
3369.033, 42.02900
3370.961, 36.49304
3372.890, 36.95968
3374.818, 35.80870
3376.747, 33.61412
3378.675, 29.39359
3380.604, 22.80390
3382.532, 29.43184
3384.461, 29.48006
3386.389, 28.77237
3388.318, 29.15179
3390.246, 25.04312
3392.175, 27.25622
3394.103, 32.83227
3396.031, 31.68721
3397.960, 22.02153
3399.888, 15.16552
3401.817, 7.858824
3403.745, 17.16592
3405.674, 27.20032
3407.602, 24.61070
3409.531, 17.17532
3411.459, 18.27048
3413.388, 14.45619
3415.316, 9.426647
3417.245, 8.302164
3419.173, 3.397808
3421.102, 14.78347
3423.030, 18.22884
3424.958, 13.00975
3426.887, 7.731287
3428.815, 5.671867
3430.744, 3.760399
3432.672, -8.8366102E-03
3434.601, -1.418220
3436.529, 1.928111
3438.458, -4.3427769E-02
3440.386, 2.901841
3442.315, 5.707278
3444.243, 6.505037
3446.172, 6.109350
3448.100, 6.690116
3450.029, 5.259394
3451.957, 6.302248
3453.885, 7.763759
3455.814, 6.267706
3457.742, 0.3059378
3459.671, 1.651236
3461.599, 2.178766
3463.528, 2.916250
3465.456, 4.815794
3467.385, 2.641749
3469.313, 1.251419
3471.242, 3.742071
3473.170, 7.813262
3475.099, 9.234726
3477.027, 3.121915
3478.956, 7.389267
3480.884, 10.30896
3482.813, 8.430218
3484.741, 3.507471
3486.669, -0.8771099
3488.598, 9.593253
3490.526, 10.11325
3492.455, 6.932184
3494.383, 4.197367
3496.312, 1.457760
3498.240, -1.072721
3500.169, -4.266249
3502.097, 6.336806
3504.026, 14.43633
3505.954, 8.768243
3507.883, 7.194480
3509.811, 4.878682
3511.740, 3.277535
3513.668, 2.655477
3515.596, 3.533161
3517.525, 6.674027
3519.453, 9.898971
3521.382, 7.420555
3523.310, 1.465563
3525.239, -0.2716824
3527.167, 4.561236
3529.096, -2.975995
3531.024, 0.5630425
3532.953, 4.717051
3534.881, 7.139687
3536.810, 9.166100
3538.738, 11.25126
3540.667, 8.405976
3542.595, 10.19890
3544.523, 9.506135
3546.452, 4.356471
3548.380, -0.9655465
3550.309, 3.111492
3552.237, -0.5411797
3554.166, 0.4287052
3556.094, 2.045612
3558.023, 1.032819
3559.951, -0.3516517
3561.880, -1.212445
3563.808, -3.047886
3565.737, -5.253479
3567.665, -2.151598
3569.594, 5.503208
3571.522, 3.410860
3573.450, 6.091518
3575.379, 1.097678
3577.307, 4.180600
3579.236, 7.427416
3581.164, -0.2446923
3583.093, 11.74648
3585.021, 8.493097
3586.950, 4.193027
3588.878, 3.366206
3590.807, 2.681752
3592.735, -1.783872
3594.664, -1.085992
3596.592, -3.463396
3598.521, 1.026742
3600.449, 1.351231
3602.377, -1.908636
3604.306, 4.081615
3606.234, 0.3455169
3608.163, 4.727065
3610.091, 1.969815
3612.020, -1.629533
3613.948, -0.4219072
3615.877, 1.967868
3617.805, 5.163171
3619.734, 1.850443
3621.662, -0.7506391
3623.591, 1.099715
3625.519, 2.371259
3627.448, -3.185231
3629.376, 1.473202
3631.304, 0.5096121
3633.233, -1.239936
3635.161, -1.647614
3637.090, -1.138231
3639.018, -0.6349581
3640.947, -0.8158119
3642.875, 1.515543
3644.804, -0.5642242
3646.732, -2.331705
3648.661, -0.3777902
3650.589, 2.929332
3652.518, -1.539433
3654.446, -2.737234
3656.375, -3.343198
3658.303, -1.612688
3660.231, 1.722449
3662.160, 4.552426
3664.088, 6.016227
3666.017, -0.7910962
3667.945, 7.780010
3669.874, 4.876108
3671.802, 3.1209190E-03
3673.731, 2.004640
3675.659, -0.8023153
3677.588, -2.565085
3679.516, -3.075581
3681.445, 1.362812
3683.373, -0.6940927
3685.302, -3.529618
3687.230, 2.245409
3689.158, -2.469988
3691.087, -4.589470
3693.015, -2.206032
3694.944, 2.720374
3696.872, 2.830430
3698.801, -1.758883
3700.729, -1.484111
3702.658, 4.595459
3704.586, 1.044154
3706.515, 2.912633
3708.443, 1.792597
3710.372, -1.413266
3712.300, -2.550353
3714.229, -7.543595
3716.157, -5.815591
3718.085, 3.357265
3720.014, 6.683814
3721.942, 4.027960
3723.871, 1.090333
3725.799, 1.095169
3727.728, 1.919539
3729.656, 5.119632
3731.585, 0.1804417
3733.513, 0.5848680
3735.442, 1.286092
3737.370, -0.6252142
3739.299, -0.4750430
3741.227, 1.781881
3743.156, -4.943985
3745.084, 2.796211
3747.012, 4.663100
3748.941, 2.875789
3750.869, 1.779680
3752.798, -1.544547
3754.726, -4.945563
3756.655, -7.304930
3758.583, -3.677961
3760.512, -1.290127
3762.440, 1.614659
3764.369, 4.739633
3766.297, 3.073813
3768.226, -5.121488
3770.154, 1.298464
3772.083, 6.045866
3774.011, 4.895314
3775.939, -0.6399310
3777.868, -3.830891
3779.796, -3.015634
3781.725, -4.746454
3783.653, -2.962224
3785.582, -2.748477
3787.510, 1.584582
3789.439, 1.987072
3791.367, -4.017741
3793.296, -8.521463
3795.224, -4.301468
3797.153, 0.2286181
3799.081, -2.358518
3801.010, -0.4038248
3802.938, -0.3315546
3804.866, 2.588531
3806.795, 3.426416
3808.723, -1.223765
3810.652, -2.128970
3812.580, 0.8523665
3814.509, -2.2943269E-02
3816.437, -5.787895
3818.366, -2.914798
3820.294, 5.897762
3822.223, 9.159403
3824.151, 4.528051
3826.080, 2.961488
3828.008, -2.997341
3829.937, -7.782059
3831.865, -3.948377
3833.793, -0.4789868
3835.722, -3.078243
3837.650, -3.516698
3839.579, 4.042433
3841.507, 7.603057
3843.436, 2.157365
3845.364, 6.6533461E-02
3847.293, -3.297141
3849.221, 4.820409
3851.150, 0.8102664
3853.078, -5.011365
3855.007, 4.220229
3856.935, 10.30696
3858.864, 2.377274
3860.792, -1.888515
3862.720, -2.990625
3864.649, -2.808722
3866.577, -7.843510
3868.506, -4.685559
3870.434, 2.028150
3872.363, -5.287587
3874.291, 2.592756
3876.220, 2.687174
3878.148, 5.669931
3880.077, -6.783972
3882.005, -7.959642
3883.934, 2.244621
3885.862, 6.051627
3887.791, 1.508376
3889.719, 2.684872
3891.647, -2.070263
3893.576, -7.178513
3895.504, -2.400582
3897.433, -0.7376040
3899.361, 3.115273
3901.290, 1.619871
3903.218, -1.584319
3905.147, 0.5593999
3907.075, 1.158518
3909.004, 1.823433
3910.932, -1.930817
3912.861, 0.7103367
3914.789, 5.030120
3916.718, 2.393402
3918.646, -1.747556
3920.574, 0.4514571
3922.503, 5.851561
3924.431, 4.975494
3926.360, -1.229259
3928.288, 9.913519
3930.217, 5.005407
3932.145, 4.939674
3934.074, 0.2476769
3936.002, 3.125933
3937.931, 6.309878
3939.859, 0.7609884
3941.788, -4.672580
3943.716, 0.8488607
3945.645, -1.463321
3947.573, -2.272717
3949.501, -1.930634
3951.430, -5.600556
3953.358, -4.657408
3955.287, -1.952433
3957.215, -3.869783
3959.144, -3.975545
3961.072, 1.215055
3963.001, -3.580372
3964.929, -8.445098
3966.858, 1.1582910E-02
3968.786, -2.874057
3970.715, 6.792816
3972.643, 4.087221
3974.572, 1.581391
3976.500, 0.4390341
3978.428, -1.694685
3980.357, -1.835497
3982.285, -3.240514
3984.214, -6.289654
3986.142, 5.159389
3988.071, -0.4644482
3989.999, -0.9087039
3991.928, -6.755874
3993.856, 8.762006
3995.785, 13.84263
3997.713, 1.439018
3999.642, -5.993803
4001.570, -1.427065
4003.499, 2.987565
4005.427, -3.735811
4007.355, 4.533278
4009.284, -2.406707
4011.212, -1.297477
4013.141, -0.3635359
4015.069, -4.112716
4016.998, -9.693381
4018.926, -2.202512
4020.855, 5.014420
4022.783, -1.707912
4024.712, -5.258115
4026.640, -1.837660
4028.569, 3.638768
4030.497, -2.760114
4032.426, -2.491062
4034.354, -3.442559
4036.282, -6.432291
4038.211, -6.875002
4040.139, -5.183057
4042.068, -4.309350
4043.996, -5.962586
4045.925, -6.792089
4047.853, -3.533684
4049.782, -1.247507
4051.710, 0.7584381
4053.639, -9.264421
4055.567, -1.938889
4057.496, 3.521825
4059.424, -5.333957
4061.353, -4.667686
4063.281, -5.123920
4065.209, -2.568164
4067.138, -1.519415
4069.066, -3.876990
4070.995, -1.388730
4072.923, 4.787405
4074.852, 7.169583
4076.780, 2.339463
4078.709, -1.733326
4080.637, -8.022138
4082.566, 6.774833
4084.494, -1.657522
4086.423, -2.610825
4088.351, -3.929718
4090.280, -2.171719
4092.208, 1.994854
4094.136, 6.010681
4096.065, 3.776279
4097.993, -2.1439889E-02
4099.922, 5.637189
4101.851, 0.6437631
4103.779, 1.825705
4105.707, 1.327854
4107.636, 0.5541835
4109.564, 2.030216
4111.493, 3.426829
4113.421, 2.637756
4115.350, 11.56099
4117.278, 4.309040
4119.207, -1.404333
4121.135, -2.776900
4123.063, 1.458468
4124.992, 3.981276
4126.920, -2.496287
4128.849, -1.059265
4130.777, 4.722118
4132.706, 0.5068604
4134.634, 5.660404
4136.563, -1.333278
4138.491, -9.116514
4140.420, 5.583703
4142.348, 0.2335070
4144.276, -11.52304
4146.205, 0.8191159
4148.134, 6.046394
4150.062, 3.265078
4151.990, 4.931933
4153.919, 1.935885
4155.848, -1.295692
4157.776, -0.3661207
4159.704, -4.809883
4161.633, -9.864922
4163.562, -5.712995
4165.490, 2.428119
4167.418, 3.577950
4169.347, -2.108698
4171.275, 1.016366
4173.204, -0.1665435
4175.132, -2.455892
4177.061, -4.696133
4178.989, -9.782742
4180.917, -0.6156208
4182.846, -0.3212688
4184.774, -2.237693
4186.703, -7.6692872E-02
4188.631, 0.6576011
4190.560, 1.205537
4192.488, 6.249761
4194.417, 3.905576
4196.345, -3.725777
4198.273, -3.606922
4200.202, -2.672745
4202.131, 6.819197
4204.059, 5.711587
4205.987, 5.014084
4207.916, -4.022635
4209.845, 4.881873
4211.773, 6.782795
4213.701, -1.853980
4215.630, -5.109091
4217.559, 3.772064
4219.487, 5.013619
4221.415, 6.399927
4223.344, 7.868885
4225.272, 5.080853
4227.201, 3.579843
4229.129, 4.759011
4231.058, 7.199265
4232.986, 2.599455
4234.915, 3.056533
4236.843, 8.416984
4238.771, 5.354648
4240.700, -4.515561
4242.628, -4.705349
4244.557, 0.5902334
4246.485, -1.704840
4248.414, 4.381821
4250.342, 5.779862
4252.271, 8.434420
4254.199, -2.495153
4256.128, -3.633823
4258.056, 1.031655
4259.984, -7.012156
4261.913, -9.541884
4263.842, -9.517044
4265.770, -1.656947
4267.698, -7.694293
4269.627, -4.969970
4271.556, -6.648596
4273.484, -1.715646
4275.412, 3.088376
4277.341, 3.084217
4279.270, 1.899135
4281.198, -3.447665
4283.126, -9.800369
4285.055, 1.304230
4286.983, 8.792394
4288.912, 0.3700536
4290.840, 0.9542762
4292.769, 1.707753
4294.697, -4.478372
4296.625, -1.077597
4298.554, 7.053691
4300.482, 4.139269
4302.411, -6.390382
4304.339, 8.6759320E-03
4306.268, 1.346928
4308.196, -4.644129
4310.125, -1.411982
4312.053, -8.793073
4313.981, -11.33940
4315.910, -2.226313
4317.839, 8.269796
4319.767, -2.648533
4321.695, -10.57994
4323.624, 4.533164
4325.553, 7.501443
4327.481, 3.589015
4329.409, 0.1515003
4331.338, 7.773693
4333.267, 10.89454
4335.195, 0.8594507
4337.123, 1.280870
4339.052, 1.3729590E-02
4340.980, -0.6802869
4342.909, 3.008871
##END=



