##NAMES=Amesite
##RRUFFID=R070116
##IDEAL CHEMISTRY=Mg_2_Al(AlSiO_5_)(OH)_4_
##LOCALITY=Saranovskii Mine (Saranovskoye), Saranovskaya (Sarany; Saranje) Village, Gorozavod area, Permskaya Oblast', Urais Region, Russia
##OWNER=RRUFF
##SOURCE=Michael Scott
##DESCRIPTION=Purple thin micaceous crystals, not a standard polytype, see Wiewiora et al (Am Min 76 (1991) 647-652)
##STATUS=The identification of this mineral is confirmed by single-crystal X-ray diffraction and chemical analysis
##URL=https://www.rruff.net/odr/rruff_sample/R070116
##MEASURED CHEMISTRY=(Mg_1.88_Cr_0.04_Fe^2+^_0.03_)(Al_0.96_Cr_0.04_)(Si_1.06_Al_0.94_)O_5_(OH)_4_ ; OH estimated by difference
##DIFFRACTION SAMPLE DESCRIPTION=Single crystal, powder profile is calculated
##CELL PARAMETERS=a: 5.296 b: 9.17 c: 14.37 alpha: 102.33 beta: 90.51 gamma: 90.01 volume: 682.8 crystal system: triclinic
##FILETYPE=Raman RAW
##RAMAN WAVELENGTH=532

82.43701, 0.0000000E+00
84.36548, 0.0000000E+00
86.29395, 4.438876
88.22241, 8.258824
90.15088, 5.721436
92.07935, -2.611918
94.00781, -6.020057
95.93628, 1.628253
97.86475, 11.57552
99.79321, 16.08978
101.7217, 9.024591
103.6501, 2.421047
105.5786, -2.121032
107.5071, -4.865324
109.4355, -4.158294
111.3640, 4.376708
113.2925, 15.22861
115.2209, 19.58035
117.1494, 14.19793
119.0779, 8.062560
121.0063, 4.615639
122.9348, 5.293266
124.8633, 5.041762
126.7917, 2.485731
128.7202, -0.7333469
130.6487, -1.939279
132.5771, 1.234594
134.5056, 4.194784
136.4341, 4.580375
138.3625, 0.7867295
140.2910, -1.778571
142.2195, -2.932795
144.1479, -2.641706
146.0764, 0.2829091
148.0049, 12.57241
149.9333, 23.10707
151.8618, 23.08458
153.7903, 10.52944
155.7188, 6.0671352E-02
157.6472, -3.314279
159.5757, -0.5790524
161.5042, 0.9587088
163.4326, -0.3973318
165.3611, -1.840937
167.2896, -1.426464
169.2180, 2.559679
171.1465, 4.740867
173.0750, 3.134734
175.0034, -1.458056
176.9319, -3.740465
178.8604, -2.854189
180.7888, -0.6926278
182.7173, 1.582715
184.6458, 4.808206
186.5742, 7.299881
188.5027, 8.624205
190.4312, 9.225216
192.3596, 10.35847
194.2881, 11.89365
196.2166, 13.89308
198.1450, 16.58195
200.0735, 20.25562
202.0020, 23.72019
203.9304, 26.97956
205.8589, 29.94034
207.7873, 30.67578
209.7158, 30.68799
211.6443, 30.13942
213.5727, 27.87871
215.5012, 22.22906
217.4297, 17.09646
219.3581, 14.29557
221.2866, 13.96031
223.2151, 14.04479
225.1435, 15.30949
227.0720, 13.85129
229.0005, 7.012119
230.9289, -9.758127
232.8574, -17.22353
234.7859, -6.500199
236.7143, 16.33995
238.6428, 26.90941
240.5713, 14.92791
242.4997, 1.392232
244.4282, -2.945391
246.3567, 11.40990
248.2851, 22.25369
250.2136, 30.12938
252.1421, 34.65175
254.0705, 35.31097
255.9990, 26.43335
257.9275, 17.45592
259.8560, 12.52897
261.7844, 12.86181
263.7129, 12.00571
265.6414, 10.15529
267.5698, 8.518723
269.4983, 8.295904
271.4268, 3.611331
273.3552, 2.381355
275.2837, 11.98319
277.2122, 32.36551
279.1406, 43.19385
281.0691, 32.86412
282.9976, 15.21147
284.9260, 5.595395
286.8545, 10.14089
288.7830, 13.31707
290.7114, 9.376257
292.6399, -0.2684419
294.5684, -5.782983
296.4968, -3.295453
298.4253, 2.340751
300.3538, 7.913764
302.2822, 13.26436
304.2107, 17.00329
306.1392, 18.68439
308.0676, 18.56467
309.9961, 16.47492
311.9246, 10.45857
313.8530, 5.820283
315.7815, 7.251827
317.7100, 13.98870
319.6384, 17.60942
321.5669, 13.57116
323.4954, 5.744461
325.4238, 2.537578
327.3523, 7.875624
329.2808, 13.19642
331.2092, 14.62146
333.1377, 12.14832
335.0661, 12.27937
336.9946, 16.66245
338.9231, 22.20923
340.8515, 25.93644
342.7800, 28.78480
344.7085, 31.14569
346.6369, 34.23886
348.5654, 37.27692
350.4939, 35.26681
352.4223, 21.62645
354.3508, 9.125668
356.2793, 5.951601
358.2077, 12.63380
360.1362, 19.84628
362.0647, 27.61838
363.9931, 35.25170
365.9216, 39.85931
367.8501, 38.64209
369.7785, 35.04235
371.7070, 28.88695
373.6355, 23.10307
375.5639, 18.85535
377.4924, 13.46534
379.4209, 9.520684
381.3493, 11.68713
383.2778, 22.99737
385.2063, 31.72650
387.1347, 33.67541
389.0632, 28.25875
390.9917, 23.13139
392.9201, 21.50099
394.8486, 22.71745
396.7771, 28.68685
398.7055, 34.94160
400.6340, 37.96392
402.5625, 34.63671
404.4909, 31.19305
406.4194, 30.59082
408.3479, 34.39180
410.2763, 38.46060
412.2048, 44.08835
414.1333, 48.46707
416.0617, 48.41519
417.9902, 39.02860
419.9187, 30.82222
421.8471, 28.47676
423.7756, 31.07119
425.7041, 32.60166
427.6325, 30.40906
429.5610, 28.75240
431.4895, 29.80964
433.4179, 36.85555
435.3464, 41.82625
437.2749, 44.03873
439.2033, 43.44901
441.1318, 40.85225
443.0603, 34.53895
444.9887, 27.93679
446.9172, 21.39986
448.8457, 16.18796
450.7741, 14.69642
452.7026, 20.26330
454.6311, 26.17668
456.5595, 28.40570
458.4880, 25.11819
460.4165, 23.50129
462.3449, 25.42938
464.2734, 28.68793
466.2019, 30.32370
468.1303, 29.79204
470.0588, 29.17927
471.9873, 28.57890
473.9157, 27.81437
475.8442, 29.20821
477.7727, 35.33924
479.7011, 41.43176
481.6296, 44.43920
483.5581, 44.69515
485.4865, 43.68253
487.4150, 39.96608
489.3435, 35.29509
491.2719, 33.36187
493.2004, 37.91604
495.1289, 40.99472
497.0573, 39.41980
498.9858, 34.83976
500.9143, 32.48232
502.8427, 35.51344
504.7712, 38.64373
506.6997, 39.43397
508.6281, 36.70458
510.5566, 35.03711
512.4851, 35.89548
514.4136, 37.07388
516.3420, 36.40565
518.2705, 32.08861
520.1990, 29.63999
522.1274, 31.27492
524.0559, 35.28510
525.9844, 37.19987
527.9128, 35.44375
529.8413, 36.12860
531.7698, 43.80965
533.6982, 57.39169
535.6267, 62.66823
537.5552, 52.19400
539.4836, 41.60127
541.4121, 39.12621
543.3406, 44.74871
545.2690, 48.99958
547.1975, 49.56977
549.1260, 48.27767
551.0544, 46.31598
552.9829, 43.39932
554.9114, 39.50851
556.8398, 31.30901
558.7683, 24.86914
560.6968, 26.37914
562.6252, 42.02545
564.5537, 52.70431
566.4822, 50.81911
568.4106, 40.17503
570.3391, 35.98021
572.2676, 44.15283
574.1960, 50.09026
576.1245, 46.83120
578.0529, 36.12962
579.9814, 29.58378
581.9099, 31.30043
583.8383, 33.02219
585.7668, 33.41805
587.6953, 33.44691
589.6237, 32.49491
591.5522, 26.30912
593.4807, 21.44813
595.4091, 22.16709
597.3376, 32.54623
599.2661, 38.02402
601.1945, 36.20620
603.1230, 34.02861
605.0515, 36.26904
606.9799, 45.20318
608.9084, 49.47324
610.8369, 43.20869
612.7653, 30.05628
614.6938, 23.78410
616.6223, 30.39357
618.5507, 38.39578
620.4792, 43.99290
622.4077, 45.41064
624.3361, 43.51975
626.2646, 36.16623
628.1931, 31.24315
630.1215, 29.75595
632.0500, 31.90650
633.9785, 35.11542
635.9069, 40.46439
637.8354, 47.18613
639.7639, 53.59058
641.6923, 58.37992
643.6208, 55.68492
645.5493, 39.61699
647.4777, 27.17834
649.4062, 25.91207
651.3347, 38.32877
653.2631, 43.88993
655.1916, 44.69048
657.1201, 48.23412
659.0485, 52.96514
660.9770, 58.59525
662.9055, 60.02663
664.8339, 55.71662
666.7624, 46.22472
668.6909, 37.49269
670.6193, 29.15404
672.5478, 28.49605
674.4763, 39.14343
676.4047, 54.88360
678.3332, 64.15826
680.2617, 62.48381
682.1901, 59.41400
684.1186, 56.78231
686.0471, 54.52756
687.9755, 50.90109
689.9040, 43.51311
691.8325, 35.21190
693.7609, 33.37781
695.6894, 39.73536
697.6179, 47.31269
699.5463, 48.37119
701.4748, 45.94413
703.4033, 47.42833
705.3317, 53.68341
707.2602, 58.69445
709.1887, 59.79193
711.1171, 60.70125
713.0456, 60.28264
714.9741, 57.29711
716.9025, 51.70470
718.8310, 43.31345
720.7595, 38.78688
722.6879, 42.12873
724.6164, 51.11875
726.5449, 54.89465
728.4733, 50.41634
730.4018, 45.55645
732.3303, 45.70255
734.2587, 53.68317
736.1872, 59.71910
738.1157, 52.70579
740.0441, 42.50793
741.9726, 41.44910
743.9011, 51.46090
745.8295, 58.84528
747.7580, 51.81122
749.6865, 40.91508
751.6149, 36.03931
753.5434, 44.64874
755.4719, 56.01830
757.4003, 60.78759
759.3288, 61.32537
761.2573, 59.83544
763.1857, 56.58380
765.1142, 50.59282
767.0427, 49.20808
768.9711, 53.61693
770.8996, 61.38573
772.8281, 64.98419
774.7565, 59.49521
776.6850, 51.99288
778.6135, 51.64672
780.5419, 60.09643
782.4704, 69.80730
784.3989, 72.29412
786.3273, 71.09558
788.2558, 67.92462
790.1843, 62.31385
792.1127, 55.29944
794.0412, 54.92067
795.9697, 55.98610
797.8981, 56.28352
799.8266, 58.37402
801.7551, 66.22951
803.6835, 71.42864
805.6120, 66.18369
807.5405, 60.87037
809.4689, 61.60245
811.3974, 66.42215
813.3259, 63.58533
815.2543, 58.99633
817.1828, 59.90787
819.1113, 66.30028
821.0397, 66.05708
822.9682, 57.07630
824.8967, 57.17817
826.8251, 63.87514
828.7536, 73.44971
830.6821, 72.63287
832.6105, 67.73265
834.5390, 68.27103
836.4675, 69.15107
838.3959, 64.87963
840.3244, 56.86527
842.2529, 55.30374
844.1813, 62.46396
846.1098, 68.01966
848.0383, 68.86692
849.9667, 68.53670
851.8952, 73.13500
853.8237, 78.97254
855.7521, 79.78568
857.6806, 72.35943
859.6091, 66.89789
861.5375, 66.85326
863.4660, 66.60904
865.3945, 62.22829
867.3229, 50.21460
869.2514, 39.50436
871.1799, 43.88393
873.1083, 66.20635
875.0368, 81.73821
876.9653, 82.98965
878.8937, 79.06845
880.8222, 76.49481
882.7507, 74.03725
884.6791, 72.27265
886.6076, 71.51890
888.5361, 72.31560
890.4645, 74.74752
892.3930, 79.78609
894.3215, 84.27003
896.2499, 88.29815
898.1784, 88.86440
900.1069, 83.56163
902.0353, 76.36572
903.9638, 72.56424
905.8923, 71.45844
907.8207, 69.22603
909.7492, 65.08197
911.6777, 66.70789
913.6061, 67.73496
915.5346, 64.12695
917.4631, 61.42954
919.3915, 63.56697
921.3200, 68.41705
923.2485, 74.51297
925.1769, 82.04703
927.1054, 84.72700
929.0339, 77.60593
930.9623, 69.89419
932.8908, 67.70552
934.8193, 71.06055
936.7477, 72.45564
938.6762, 70.25848
940.6047, 67.11620
942.5331, 63.84468
944.4616, 60.99743
946.3901, 60.31690
948.3185, 62.44408
950.2470, 65.67549
952.1755, 72.13230
954.1039, 82.67930
956.0324, 87.83461
957.9609, 85.25087
959.8893, 80.78719
961.8178, 75.53079
963.7463, 70.98190
965.6747, 69.84352
967.6032, 74.38509
969.5317, 78.43049
971.4601, 80.91521
973.3886, 80.20953
975.3171, 77.48689
977.2455, 70.79448
979.1740, 67.92063
981.1025, 72.50989
983.0309, 79.14737
984.9594, 81.25601
986.8879, 78.15999
988.8163, 77.34673
990.7448, 82.83483
992.6733, 88.63664
994.6017, 91.84535
996.5302, 92.99388
998.4587, 91.50416
1000.387, 83.44806
1002.316, 76.56676
1004.244, 75.24363
1006.173, 78.91254
1008.101, 81.80405
1010.029, 83.96294
1011.958, 85.26387
1013.886, 84.60831
1015.815, 83.21441
1017.743, 83.96893
1019.672, 89.76364
1021.600, 92.09785
1023.529, 85.58681
1025.457, 76.41812
1027.386, 73.37795
1029.314, 79.80044
1031.243, 83.29356
1033.171, 79.95700
1035.100, 76.71629
1037.028, 78.06519
1038.957, 83.13107
1040.885, 88.06779
1042.813, 92.33690
1044.742, 96.74265
1046.670, 102.5525
1048.599, 108.9742
1050.527, 112.1708
1052.456, 110.2240
1054.384, 108.1808
1056.313, 108.7554
1058.241, 107.7295
1060.170, 98.82469
1062.098, 79.28158
1064.027, 68.77946
1065.955, 79.01852
1067.884, 93.00361
1069.812, 97.14873
1071.740, 91.70269
1073.669, 87.97934
1075.597, 88.38535
1077.526, 89.27316
1079.454, 89.13162
1081.383, 87.60254
1083.311, 90.56657
1085.240, 100.1854
1087.168, 106.9763
1089.097, 108.5232
1091.025, 107.8354
1092.953, 100.3604
1094.882, 82.95961
1096.810, 71.28445
1098.739, 73.09519
1100.667, 77.72414
1102.596, 82.44518
1104.524, 89.80217
1106.453, 94.02034
1108.381, 91.28097
1110.310, 88.45029
1112.238, 91.83765
1114.167, 97.67519
1116.095, 96.01627
1118.024, 86.37353
1119.952, 80.48929
1121.880, 84.22649
1123.809, 88.14857
1125.737, 85.71162
1127.666, 78.33195
1129.594, 74.29527
1131.523, 77.41844
1133.451, 80.92413
1135.380, 81.65002
1137.308, 84.10416
1139.237, 90.71584
1141.165, 99.66628
1143.094, 103.9724
1145.022, 101.6670
1146.951, 98.88635
1148.879, 96.91322
1150.807, 96.56628
1152.736, 97.68547
1154.664, 99.89858
1156.593, 100.8043
1158.521, 103.2969
1160.450, 108.1742
1162.378, 111.8207
1164.307, 112.1926
1166.235, 109.7128
1168.164, 104.5505
1170.092, 103.0540
1172.021, 104.6781
1173.949, 102.1542
1175.878, 98.71378
1177.806, 97.94282
1179.734, 101.1150
1181.663, 103.8082
1183.591, 102.0583
1185.520, 99.37416
1187.448, 101.4610
1189.377, 106.4790
1191.305, 106.6580
1193.234, 94.80512
1195.162, 87.97614
1197.091, 90.97156
1199.019, 93.08190
1200.948, 91.04561
1202.876, 91.12382
1204.805, 94.52795
1206.733, 91.57270
1208.661, 84.75405
1210.590, 81.03722
1212.518, 84.90284
1214.447, 95.22710
1216.375, 105.5000
1218.304, 110.6103
1220.232, 109.6419
1222.161, 105.6349
1224.089, 98.76824
1226.018, 91.28549
1227.946, 88.17062
1229.875, 95.45462
1231.803, 106.9185
1233.732, 116.8484
1235.660, 120.9677
1237.589, 118.1996
1239.517, 110.4559
1241.445, 104.2289
1243.374, 105.1368
1245.302, 110.6897
1247.231, 116.7337
1249.159, 119.0414
1251.088, 114.5613
1253.016, 106.1762
1254.945, 107.6096
1256.873, 114.7177
1258.802, 119.5116
1260.730, 120.9436
1262.659, 124.6882
1264.587, 124.8543
1266.516, 111.3119
1268.444, 101.1998
1270.372, 104.1017
1272.301, 114.2429
1274.229, 118.7012
1276.158, 114.7529
1278.086, 109.9181
1280.015, 111.5264
1281.943, 117.1465
1283.872, 121.1259
1285.800, 121.3803
1287.729, 118.0908
1289.657, 109.4320
1291.586, 104.7815
1293.514, 105.5776
1295.443, 107.0582
1297.371, 108.0800
1299.299, 112.0022
1301.228, 116.2973
1303.156, 117.0989
1305.085, 117.7187
1307.013, 119.5249
1308.942, 123.5729
1310.870, 128.9925
1312.799, 135.6048
1314.727, 134.1965
1316.656, 121.5977
1318.584, 107.7805
1320.513, 100.0826
1322.441, 98.95943
1324.370, 100.9968
1326.298, 103.6062
1328.226, 107.3734
1330.155, 115.6653
1332.083, 125.5816
1334.012, 133.0326
1335.940, 136.6750
1337.869, 135.8301
1339.797, 128.6371
1341.726, 126.5852
1343.654, 133.6738
1345.583, 143.6352
1347.511, 146.8982
1349.440, 140.4969
1351.368, 135.4841
1353.297, 130.7024
1355.225, 125.7431
1357.153, 122.6016
1359.082, 121.5101
1361.010, 120.2142
1362.939, 117.5268
1364.867, 116.1674
1366.796, 118.9260
1368.724, 123.1882
1370.653, 124.1117
1372.581, 121.5672
1374.510, 119.5427
1376.438, 118.0146
1378.367, 117.8706
1380.295, 122.5035
1382.224, 132.8699
1384.152, 139.5453
1386.080, 139.0254
1388.009, 136.5831
1389.937, 134.5157
1391.866, 134.5562
1393.794, 135.4134
1395.723, 137.0630
1397.651, 137.7488
1399.580, 136.6298
1401.508, 133.8781
1403.437, 127.8043
1405.365, 124.0483
1407.294, 126.8575
1409.222, 132.9167
1411.151, 132.4889
1413.079, 121.5748
1415.007, 118.2665
1416.936, 132.9251
1418.864, 143.5057
1420.793, 140.6566
1422.721, 132.6432
1424.650, 127.2786
1426.578, 124.5449
1428.507, 123.6568
1430.435, 125.3178
1432.364, 127.2071
1434.292, 129.4432
1436.221, 132.6935
1438.149, 137.3573
1440.078, 143.7650
1442.006, 144.7554
1443.934, 132.7411
1445.863, 124.8541
1447.791, 135.7234
1449.720, 153.7246
1451.648, 157.8727
1453.577, 145.9000
1455.505, 137.4577
1457.434, 137.4254
1459.362, 138.0998
1461.291, 135.6173
1463.219, 133.4058
1465.148, 137.0461
1467.076, 150.3849
1469.005, 154.1822
1470.933, 134.6246
1472.861, 121.0840
1474.790, 129.1993
1476.718, 146.2909
1478.647, 150.5710
1480.575, 135.7980
1482.504, 130.9988
1484.432, 144.7244
1486.361, 157.0620
1488.289, 160.7713
1490.218, 160.5204
1492.146, 163.8053
1494.075, 172.0720
1496.003, 172.2271
1497.932, 153.8758
1499.860, 141.7692
1501.788, 146.7131
1503.717, 157.8230
1505.645, 164.0551
1507.574, 165.5526
1509.502, 165.9633
1511.431, 164.4866
1513.359, 164.5153
1515.288, 170.2406
1517.216, 175.3029
1519.145, 171.6200
1521.073, 161.5590
1523.002, 158.1968
1524.930, 164.9000
1526.859, 170.5275
1528.787, 171.8259
1530.715, 171.6155
1532.644, 170.7620
1534.572, 168.5930
1536.501, 166.3284
1538.429, 163.6822
1540.358, 164.2192
1542.286, 171.8145
1544.215, 178.7673
1546.143, 178.8033
1548.072, 175.5412
1550.000, 179.6228
1551.929, 193.1494
1553.857, 198.9632
1555.786, 187.8165
1557.714, 178.9626
1559.642, 183.0141
1561.571, 191.0853
1563.499, 190.8122
1565.428, 180.8276
1567.356, 171.0926
1569.285, 157.8300
1571.213, 152.9008
1573.142, 164.6200
1575.070, 180.1879
1576.999, 190.2973
1578.927, 194.5145
1580.856, 196.0123
1582.784, 194.9849
1584.713, 193.7541
1586.641, 190.3167
1588.569, 188.0358
1590.498, 191.1642
1592.426, 197.0404
1594.355, 197.4318
1596.283, 187.3093
1598.212, 182.8263
1600.140, 193.0963
1602.069, 197.2362
1603.997, 179.8520
1605.926, 160.0814
1607.854, 163.9371
1609.783, 191.9207
1611.711, 202.7604
1613.640, 178.5314
1615.568, 164.2705
1617.496, 171.5240
1619.425, 182.0701
1621.353, 182.3982
1623.282, 177.4503
1625.210, 182.0055
1627.139, 203.5704
1629.067, 214.1667
1630.996, 202.4631
1632.924, 194.5189
1634.853, 203.0925
1636.781, 216.7549
1638.710, 221.7669
1640.638, 218.2932
1642.567, 217.0639
1644.495, 221.5008
1646.423, 222.1058
1648.352, 214.5857
1650.280, 206.7672
1652.209, 202.9804
1654.137, 202.2886
1656.066, 202.4449
1657.994, 203.1061
1659.923, 206.2183
1661.851, 217.3032
1663.780, 223.4126
1665.708, 215.9815
1667.637, 206.5240
1669.565, 207.7779
1671.494, 217.3559
1673.422, 218.9674
1675.350, 207.1862
1677.279, 201.4784
1679.207, 207.8712
1681.136, 215.1900
1683.064, 217.4799
1684.993, 218.7480
1686.921, 226.6124
1688.850, 241.4486
1690.778, 246.7226
1692.707, 236.5050
1694.635, 227.4207
1696.564, 223.6274
1698.492, 219.3055
1700.421, 207.7534
1702.349, 194.4257
1704.277, 190.6742
1706.206, 198.0637
1708.134, 206.9420
1710.063, 221.1494
1711.991, 231.2675
1713.920, 233.3704
1715.848, 232.9395
1717.777, 233.6655
1719.705, 234.9641
1721.634, 234.6310
1723.562, 230.8245
1725.491, 231.6823
1727.419, 245.1667
1729.348, 252.2156
1731.276, 242.3093
1733.204, 229.6460
1735.133, 223.9424
1737.061, 225.1917
1738.990, 235.1443
1740.918, 263.5978
1742.847, 275.0797
1744.775, 255.0581
1746.704, 238.3799
1748.632, 231.6990
1750.561, 234.1443
1752.489, 251.8065
1754.418, 278.8136
1756.346, 288.7412
1758.275, 271.1658
1760.203, 261.1499
1762.131, 264.6824
1764.060, 267.4507
1765.988, 262.5286
1767.917, 258.4088
1769.845, 268.2497
1771.774, 285.4339
1773.702, 279.4987
1775.631, 236.5368
1777.559, 218.5464
1779.488, 249.5866
1781.416, 274.8470
1783.345, 281.1198
1785.273, 277.4143
1787.202, 265.1094
1789.130, 248.7451
1791.058, 244.1790
1792.987, 254.2555
1794.915, 254.6914
1796.844, 234.4263
1798.772, 222.9079
1800.701, 237.3817
1802.629, 253.6801
1804.558, 254.2611
1806.486, 247.9076
1808.415, 254.9935
1810.343, 275.1879
1812.272, 286.5470
1814.200, 286.5273
1816.129, 279.4457
1818.057, 255.6414
1819.985, 239.3951
1821.914, 251.8164
1823.842, 275.0534
1825.771, 287.4405
1827.699, 290.3158
1829.628, 292.1091
1831.556, 294.0825
1833.485, 290.2424
1835.413, 271.9783
1837.342, 259.7892
1839.270, 268.4919
1841.199, 282.7628
1843.127, 286.3701
1845.056, 283.5230
1846.984, 291.1732
1848.912, 312.5255
1850.841, 317.5069
1852.769, 288.8802
1854.698, 268.9949
1856.626, 274.5162
1858.555, 285.2231
1860.483, 291.7835
1862.412, 293.1587
1864.340, 283.6625
1866.269, 262.5718
1868.197, 255.7823
1870.126, 280.5377
1872.054, 291.2441
1873.983, 271.6137
1875.911, 257.8133
1877.839, 266.1085
1879.768, 283.0698
1881.696, 300.6137
1883.625, 316.1187
1885.553, 318.0179
1887.482, 302.2320
1889.410, 294.9128
1891.339, 303.3582
1893.267, 307.2104
1895.196, 300.3651
1897.124, 289.9065
1899.053, 270.9944
1900.981, 256.0430
1902.910, 266.4773
1904.838, 295.6586
1906.766, 311.6923
1908.695, 312.5402
1910.623, 308.9082
1912.552, 300.0105
1914.480, 292.2675
1916.409, 286.3776
1918.337, 284.1224
1920.266, 288.5325
1922.194, 296.2726
1924.123, 303.3066
1926.051, 309.3969
1927.980, 311.8926
1929.908, 309.1313
1931.837, 309.1848
1933.765, 318.9979
1935.693, 323.1362
1937.622, 311.4263
1939.550, 299.1854
1941.479, 294.4436
1943.407, 297.5641
1945.336, 313.2480
1947.264, 340.9221
1949.193, 355.5935
1951.121, 351.3701
1953.050, 349.0263
1954.978, 349.9501
1956.907, 352.3222
1958.835, 357.4999
1960.764, 362.0071
1962.692, 360.7000
1964.620, 359.1866
1966.549, 370.3254
1968.477, 390.1423
1970.406, 392.6354
1972.334, 374.1005
1974.263, 366.2500
1976.191, 379.1097
1978.120, 389.0599
1980.048, 385.7000
1981.977, 380.4634
1983.905, 377.0395
1985.834, 377.4857
1987.762, 387.1957
1989.691, 403.2125
1991.619, 412.7785
1993.547, 414.7502
1995.476, 416.0010
1997.404, 412.4698
1999.333, 414.7955
2001.261, 433.1619
2003.190, 445.6118
2005.118, 436.3822
2007.047, 423.9991
2008.975, 427.0240
2010.904, 438.6241
2012.832, 441.8077
2014.761, 436.8218
2016.689, 436.4316
2018.618, 441.3194
2020.546, 450.0063
2022.474, 466.5729
2024.403, 476.8911
2026.331, 469.8987
2028.260, 462.9100
2030.188, 467.5671
2032.117, 477.5304
2034.045, 488.4155
2035.974, 498.0717
2037.902, 496.8361
2039.831, 482.7263
2041.759, 475.5834
2043.688, 478.5335
2045.616, 483.2966
2047.545, 489.4894
2049.473, 497.1064
2051.402, 509.4877
2053.330, 519.6697
2055.259, 522.3962
2057.187, 520.1577
2059.115, 516.8264
2061.044, 511.9546
2062.972, 500.9017
2064.901, 483.0915
2066.829, 473.1673
2068.758, 473.1552
2070.686, 479.1149
2072.615, 495.7384
2074.543, 508.0858
2076.471, 507.0949
2078.400, 502.6207
2080.328, 496.7419
2082.257, 494.9438
2084.185, 509.4842
2086.114, 535.7991
2088.042, 552.1865
2089.971, 558.4881
2091.899, 554.8551
2093.828, 532.1837
2095.756, 519.0725
2097.685, 520.6318
2099.613, 527.9567
2101.542, 539.2886
2103.470, 554.8843
2105.398, 586.5143
2107.327, 612.9547
2109.255, 604.3945
2111.184, 574.9472
2113.112, 554.6280
2115.041, 544.0929
2116.969, 549.7766
2118.898, 579.1129
2120.826, 593.7355
2122.755, 577.0856
2124.683, 565.2863
2126.612, 570.5903
2128.540, 573.6161
2130.469, 560.1700
2132.397, 547.3132
2134.325, 551.1763
2136.254, 563.3646
2138.182, 572.5655
2140.111, 578.1525
2142.039, 574.4235
2143.968, 561.6212
2145.896, 558.8495
2147.825, 570.0737
2149.753, 578.1815
2151.682, 574.9927
2153.610, 578.5563
2155.539, 605.5940
2157.467, 626.0879
2159.396, 618.3534
2161.324, 604.2059
2163.252, 603.8578
2165.181, 610.0026
2167.109, 608.6748
2169.038, 601.8273
2170.966, 602.4405
2172.895, 610.7649
2174.823, 615.6842
2176.752, 615.3462
2178.680, 620.0268
2180.609, 637.8719
2182.537, 643.9236
2184.466, 609.8000
2186.394, 590.2892
2188.323, 625.7627
2190.251, 667.6996
2192.179, 678.7437
2194.108, 673.0140
2196.036, 667.6667
2197.965, 662.5426
2199.893, 657.8010
2201.822, 653.3938
2203.750, 642.4996
2205.679, 622.8964
2207.607, 619.3683
2209.536, 639.5074
2211.464, 656.2537
2213.393, 660.8720
2215.321, 666.3267
2217.250, 683.6555
2219.178, 695.0541
2221.106, 684.8359
2223.035, 670.5085
2224.963, 665.1913
2226.892, 668.1931
2228.820, 680.9726
2230.749, 701.0652
2232.677, 720.4756
2234.606, 738.7844
2236.534, 744.7787
2238.463, 736.9439
2240.391, 730.9540
2242.320, 729.7028
2244.248, 726.5552
2246.177, 718.4297
2248.105, 710.9775
2250.033, 703.0193
2251.962, 699.8708
2253.890, 702.1625
2255.819, 712.3854
2257.747, 746.5098
2259.676, 778.8729
2261.604, 767.3663
2263.533, 730.5613
2265.461, 714.3372
2267.390, 715.9495
2269.318, 724.3680
2271.247, 739.2585
2273.175, 746.3912
2275.104, 739.8707
2277.032, 743.0236
2278.960, 771.7609
2280.889, 787.4938
2282.817, 769.7297
2284.746, 761.7440
2286.674, 785.2353
2288.603, 809.1036
2290.531, 819.4325
2292.460, 823.3651
2294.388, 824.6700
2296.317, 823.8824
2298.245, 819.1344
2300.174, 813.8395
2302.102, 817.5789
2304.031, 828.2027
2305.959, 830.1996
2307.887, 821.4493
2309.816, 828.7062
2311.744, 857.9543
2313.673, 872.7867
2315.601, 864.3506
2317.530, 868.4840
2319.458, 901.4476
2321.387, 921.4500
2323.315, 900.8488
2325.244, 887.2322
2327.172, 910.6537
2329.101, 933.7684
2331.029, 928.2573
2332.958, 918.1981
2334.886, 926.9608
2336.814, 943.0917
2338.743, 952.7300
2340.671, 956.8671
2342.600, 953.2296
2344.528, 946.4174
2346.457, 957.1217
2348.385, 984.4261
2350.314, 1000.943
2352.242, 1004.467
2354.171, 1002.917
2356.099, 991.7125
2358.028, 985.6830
2359.956, 986.5809
2361.885, 989.5034
2363.813, 992.8159
2365.741, 1000.224
2367.670, 1018.140
2369.598, 1031.517
2371.527, 1026.782
2373.455, 1023.085
2375.384, 1034.827
2377.312, 1050.568
2379.241, 1067.204
2381.169, 1075.811
2383.098, 1053.206
2385.026, 1020.041
2386.955, 1019.167
2388.883, 1042.890
2390.812, 1075.449
2392.740, 1112.567
2394.668, 1126.830
2396.597, 1115.406
2398.525, 1110.106
2400.454, 1112.551
2402.382, 1116.574
2404.311, 1123.373
2406.239, 1128.031
2408.168, 1129.559
2410.096, 1130.647
2412.025, 1131.577
2413.953, 1132.791
2415.882, 1131.953
2417.810, 1135.212
2419.739, 1145.032
2421.667, 1159.416
2423.595, 1182.054
2425.524, 1203.236
2427.452, 1214.038
2429.381, 1222.239
2431.309, 1239.768
2433.238, 1254.893
2435.166, 1246.259
2437.095, 1230.269
2439.023, 1239.885
2440.952, 1264.694
2442.880, 1272.861
2444.809, 1267.538
2446.737, 1270.286
2448.666, 1280.642
2450.594, 1286.878
2452.522, 1288.860
2454.451, 1291.328
2456.379, 1294.551
2458.308, 1298.483
2460.236, 1300.942
2462.165, 1310.493
2464.093, 1336.561
2466.022, 1353.042
2467.950, 1351.206
2469.879, 1356.384
2471.807, 1378.418
2473.736, 1396.509
2475.664, 1400.714
2477.593, 1404.810
2479.521, 1420.031
2481.449, 1429.113
2483.378, 1410.725
2485.306, 1399.348
2487.235, 1424.542
2489.163, 1456.986
2491.092, 1479.398
2493.020, 1492.227
2494.949, 1487.537
2496.877, 1480.987
2498.806, 1492.156
2500.734, 1514.701
2502.663, 1545.376
2504.591, 1575.627
2506.520, 1582.415
2508.448, 1571.625
2510.376, 1558.650
2512.305, 1546.990
2514.233, 1550.893
2516.162, 1569.949
2518.090, 1600.653
2520.019, 1644.280
2521.947, 1659.026
2523.876, 1638.782
2525.804, 1630.218
2527.733, 1634.618
2529.661, 1639.573
2531.590, 1643.097
2533.518, 1657.726
2535.447, 1693.801
2537.375, 1711.509
2539.303, 1686.009
2541.232, 1679.154
2543.160, 1701.821
2545.089, 1726.848
2547.017, 1756.801
2548.946, 1768.702
2550.874, 1738.885
2552.803, 1727.405
2554.731, 1773.226
2556.660, 1811.671
2558.588, 1812.648
2560.517, 1814.343
2562.445, 1838.467
2564.374, 1855.872
2566.302, 1840.325
2568.230, 1834.657
2570.159, 1877.739
2572.087, 1921.707
2574.016, 1933.401
2575.944, 1934.610
2577.873, 1937.252
2579.801, 1942.554
2581.730, 1949.301
2583.658, 1961.777
2585.587, 1986.770
2587.515, 2016.615
2589.444, 2051.114
2591.372, 2077.672
2593.301, 2067.898
2595.229, 2048.398
2597.157, 2066.834
2599.086, 2100.415
2601.014, 2103.772
2602.943, 2096.680
2604.871, 2123.888
2606.800, 2164.540
2608.728, 2162.958
2610.657, 2136.663
2612.585, 2135.828
2614.514, 2156.215
2616.442, 2186.173
2618.371, 2222.699
2620.299, 2256.387
2622.228, 2287.120
2624.156, 2319.220
2626.084, 2349.890
2628.013, 2349.773
2629.941, 2323.124
2631.870, 2324.350
2633.798, 2349.406
2635.727, 2364.359
2637.655, 2369.001
2639.584, 2384.841
2641.512, 2412.791
2643.441, 2427.163
2645.369, 2427.031
2647.298, 2435.581
2649.226, 2453.045
2651.155, 2476.302
2653.083, 2505.545
2655.011, 2524.743
2656.940, 2531.045
2658.868, 2540.489
2660.797, 2552.120
2662.725, 2578.018
2664.654, 2619.737
2666.582, 2641.971
2668.511, 2639.378
2670.439, 2646.063
2672.368, 2666.448
2674.296, 2690.589
2676.225, 2720.297
2678.153, 2745.016
2680.082, 2764.462
2682.010, 2773.447
2683.938, 2767.689
2685.867, 2781.566
2687.795, 2831.409
2689.724, 2861.989
2691.652, 2866.926
2693.581, 2882.409
2695.509, 2912.221
2697.438, 2936.233
2699.366, 2951.340
2701.295, 2966.056
2703.223, 2980.444
2705.152, 2997.064
2707.080, 3016.974
2709.009, 3033.067
2710.937, 3043.754
2712.865, 3062.270
2714.794, 3093.616
2716.722, 3112.344
2718.651, 3103.684
2720.579, 3117.969
2722.508, 3159.235
2724.436, 3204.097
2726.365, 3253.067
2728.293, 3280.546
2730.222, 3278.671
2732.150, 3282.240
2734.079, 3294.023
2736.007, 3307.238
2737.936, 3320.427
2739.864, 3352.030
2741.792, 3405.590
2743.721, 3436.578
2745.649, 3433.862
2747.578, 3446.817
2749.506, 3479.529
2751.435, 3512.965
2753.363, 3547.343
2755.292, 3570.017
2757.220, 3579.788
2759.149, 3606.325
2761.077, 3655.497
2763.006, 3675.870
2764.934, 3664.551
2766.863, 3666.111
2768.791, 3681.475
2770.719, 3719.872
2772.648, 3780.508
2774.576, 3825.403
2776.505, 3854.385
2778.433, 3867.983
2780.362, 3868.159
2782.290, 3874.443
2784.219, 3888.857
2786.147, 3929.061
2788.076, 3987.337
2790.004, 4011.066
2791.933, 4010.342
2793.861, 4052.266
2795.790, 4118.778
2797.718, 4138.521
2799.646, 4128.754
2801.575, 4136.143
2803.503, 4160.710
2805.432, 4212.703
2807.360, 4276.544
2809.289, 4310.312
2811.217, 4330.355
2813.146, 4369.404
2815.074, 4413.094
2817.003, 4435.838
2818.931, 4448.017
2820.860, 4460.075
2822.788, 4476.685
2824.717, 4500.905
2826.645, 4535.411
2828.573, 4595.946
2830.502, 4653.903
2832.430, 4675.593
2834.359, 4686.547
2836.287, 4701.744
2838.216, 4723.978
2840.144, 4755.259
2842.073, 4794.428
2844.001, 4854.395
2845.930, 4902.183
2847.858, 4910.081
2849.787, 4917.286
2851.715, 4944.140
2853.644, 4969.802
2855.572, 4973.318
2857.500, 4994.521
2859.429, 5054.614
2861.357, 5116.442
2863.286, 5173.616
2865.214, 5224.803
2867.143, 5272.111
2869.071, 5307.885
2871.000, 5328.542
2872.928, 5341.449
2874.857, 5341.665
2876.785, 5368.516
2878.714, 5436.233
2880.642, 5487.072
2882.571, 5509.730
2884.499, 5540.640
2886.427, 5579.875
2888.356, 5630.508
2890.284, 5692.100
2892.213, 5750.820
2894.141, 5805.568
2896.070, 5835.268
2897.998, 5844.739
2899.927, 5864.472
2901.855, 5893.909
2903.784, 5934.213
2905.712, 5979.637
2907.641, 6010.646
2909.569, 6040.974
2911.498, 6101.335
2913.426, 6174.891
2915.354, 6247.224
2917.283, 6311.441
2919.211, 6359.733
2921.140, 6395.652
2923.068, 6413.207
2924.997, 6431.635
2926.925, 6463.672
2928.854, 6499.894
2930.782, 6530.181
2932.711, 6571.087
2934.639, 6632.820
2936.568, 6699.133
2938.496, 6770.845
2940.425, 6832.521
2942.353, 6872.973
2944.281, 6915.738
2946.210, 6963.015
2948.138, 7012.415
2950.067, 7063.396
2951.995, 7121.690
2953.924, 7192.932
2955.852, 7239.013
2957.781, 7258.545
2959.709, 7316.950
2961.638, 7404.522
2963.566, 7438.636
2965.495, 7433.654
2967.423, 7446.041
2969.352, 7479.040
2971.280, 7557.479
2973.208, 7650.336
2975.137, 7708.880
2977.065, 7749.662
2978.994, 7774.881
2980.922, 7815.907
2982.851, 7931.567
2984.779, 8033.605
2986.708, 8031.531
2988.636, 8048.719
2990.565, 8194.040
2992.493, 8295.266
2994.422, 8280.373
2996.350, 8274.616
2998.279, 8315.892
3000.207, 8364.487
3002.135, 8412.190
3004.064, 8476.696
3005.992, 8562.381
3007.921, 8609.991
3009.849, 8610.849
3011.778, 8668.591
3013.706, 8780.211
3015.635, 8865.946
3017.563, 8924.910
3019.492, 8932.187
3021.420, 8923.557
3023.349, 8975.575
3025.277, 9063.639
3027.206, 9172.073
3029.134, 9268.029
3031.063, 9306.619
3032.991, 9338.876
3034.919, 9389.023
3036.848, 9468.121
3038.776, 9611.333
3040.705, 9714.861
3042.633, 9723.048
3044.562, 9726.983
3046.490, 9722.173
3048.419, 9789.032
3050.347, 9949.700
3052.276, 10019.53
3054.204, 9968.024
3056.133, 9976.748
3058.061, 10045.38
3059.990, 10122.47
3061.918, 10203.28
3063.846, 10270.60
3065.775, 10330.60
3067.703, 10392.78
3069.632, 10458.30
3071.560, 10521.43
3073.489, 10599.54
3075.417, 10739.92
3077.346, 10851.13
3079.274, 10846.28
3081.203, 10851.03
3083.131, 10893.50
3085.060, 10979.51
3086.988, 11159.13
3088.917, 11261.19
3090.845, 11254.09
3092.773, 11311.26
3094.702, 11439.96
3096.630, 11521.83
3098.559, 11563.63
3100.487, 11660.45
3102.416, 11781.79
3104.344, 11807.81
3106.273, 11816.76
3108.201, 11943.19
3110.130, 12090.53
3112.058, 12148.94
3113.987, 12204.33
3115.915, 12311.96
3117.844, 12420.67
3119.772, 12503.57
3121.700, 12593.16
3123.629, 12690.29
3125.557, 12820.84
3127.486, 13001.28
3129.414, 13133.54
3131.343, 13212.74
3133.271, 13268.76
3135.200, 13313.90
3137.128, 13402.01
3139.057, 13515.70
3140.985, 13624.08
3142.914, 13728.81
3144.842, 13843.10
3146.771, 13939.67
3148.699, 13965.58
3150.627, 14022.09
3152.556, 14180.32
3154.484, 14321.36
3156.413, 14415.72
3158.341, 14498.80
3160.270, 14571.09
3162.198, 14646.19
3164.127, 14725.62
3166.055, 14849.64
3167.984, 15003.15
3169.912, 15111.70
3171.841, 15200.32
3173.769, 15337.96
3175.698, 15468.84
3177.626, 15510.12
3179.554, 15557.95
3181.483, 15694.43
3183.411, 15830.27
3185.340, 15940.12
3187.268, 16038.05
3189.197, 16113.02
3191.125, 16215.33
3193.054, 16347.03
3194.982, 16445.13
3196.911, 16514.23
3198.839, 16622.13
3200.768, 16746.29
3202.696, 16810.21
3204.625, 16870.44
3206.553, 17006.29
3208.481, 17150.69
3210.410, 17249.80
3212.338, 17345.17
3214.267, 17447.90
3216.195, 17557.71
3218.124, 17690.54
3220.052, 17782.74
3221.981, 17831.66
3223.909, 17955.79
3225.838, 18137.75
3227.766, 18225.03
3229.695, 18269.30
3231.623, 18400.26
3233.552, 18552.67
3235.480, 18653.98
3237.408, 18754.17
3239.337, 18899.38
3241.265, 19026.45
3243.194, 19114.98
3245.122, 19191.38
3247.051, 19239.40
3248.979, 19361.35
3250.908, 19548.80
3252.836, 19688.88
3254.765, 19791.42
3256.693, 19887.77
3258.622, 19986.92
3260.550, 20110.89
3262.479, 20231.51
3264.407, 20316.92
3266.335, 20409.48
3268.264, 20512.69
3270.192, 20668.88
3272.121, 20915.90
3274.049, 21066.11
3275.978, 21105.80
3277.906, 21127.35
3279.835, 21155.58
3281.763, 21287.55
3283.692, 21457.21
3285.620, 21549.30
3287.549, 21640.97
3289.477, 21798.64
3291.406, 21956.76
3293.334, 22101.14
3295.262, 22202.34
3297.191, 22246.92
3299.119, 22338.18
3301.048, 22485.21
3302.976, 22655.29
3304.905, 22843.92
3306.833, 23063.95
3308.762, 23264.62
3310.690, 23353.45
3312.619, 23434.93
3314.547, 23570.97
3316.476, 23721.94
3318.404, 23868.93
3320.333, 24042.76
3322.261, 24247.42
3324.189, 24443.50
3326.118, 24625.24
3328.046, 24764.92
3329.975, 24890.46
3331.903, 25060.56
3333.832, 25253.30
3335.760, 25483.58
3337.689, 25671.40
3339.617, 25750.86
3341.546, 25881.41
3343.474, 26113.76
3345.403, 26281.82
3347.331, 26377.26
3349.260, 26562.55
3351.188, 26800.34
3353.116, 27007.82
3355.045, 27189.84
3356.973, 27353.08
3358.902, 27490.10
3360.830, 27571.66
3362.759, 27677.65
3364.687, 27828.65
3366.616, 27987.98
3368.544, 28152.54
3370.473, 28303.14
3372.401, 28448.06
3374.330, 28621.48
3376.258, 28801.52
3378.187, 28949.64
3380.115, 29118.57
3382.043, 29381.04
3383.972, 29567.87
3385.900, 29613.95
3387.829, 29734.89
3389.757, 29947.55
3391.686, 30201.45
3393.614, 30447.81
3395.543, 30507.30
3397.471, 30559.57
3399.400, 30862.39
3401.328, 31166.74
3403.257, 31328.43
3405.185, 31536.17
3407.114, 31843.03
3409.042, 32049.05
3410.970, 32161.90
3412.899, 32378.17
3414.827, 32641.44
3416.756, 32818.02
3418.684, 32962.49
3420.613, 33100.89
3422.541, 33261.89
3424.470, 33472.55
3426.398, 33637.18
3428.327, 33732.39
3430.255, 33865.77
3432.184, 34033.57
3434.112, 34222.79
3436.041, 34401.98
3437.969, 34520.57
3439.897, 34622.07
3441.826, 34725.30
3443.754, 34837.91
3445.683, 34966.56
3447.611, 35088.11
3449.540, 35204.96
3451.468, 35374.40
3453.397, 35558.76
3455.325, 35670.69
3457.254, 35758.25
3459.182, 35826.87
3461.111, 35956.32
3463.039, 36242.99
3464.968, 36447.77
3466.896, 36557.41
3468.824, 36638.30
3470.753, 36727.79
3472.681, 36978.82
3474.610, 37267.49
3476.538, 37453.34
3478.467, 37641.39
3480.395, 37920.41
3482.324, 38077.65
3484.252, 38059.11
3486.181, 38204.32
3488.109, 38494.05
3490.038, 38810.52
3491.966, 39095.11
3493.895, 39237.86
3495.823, 39369.93
3497.751, 39533.01
3499.680, 39777.36
3501.608, 40159.04
3503.537, 40457.02
3505.465, 40684.71
3507.394, 40893.25
3509.322, 41112.61
3511.251, 41395.94
3513.179, 41695.06
3515.108, 42007.45
3517.036, 42260.85
3518.965, 42417.91
3520.893, 42660.41
3522.822, 42983.50
3524.750, 43368.47
3526.678, 43730.66
3528.607, 43924.23
3530.535, 44081.11
3532.464, 44199.77
3534.392, 44489.03
3536.321, 44990.29
3538.249, 45221.14
3540.178, 45248.02
3542.106, 45478.89
3544.035, 45754.50
3545.963, 45870.49
3547.892, 45995.43
3549.820, 46216.74
3551.749, 46435.51
3553.677, 46641.07
3555.605, 46888.66
3557.534, 47154.95
3559.462, 47378.88
3561.391, 47543.77
3563.319, 47596.93
3565.248, 47646.61
3567.176, 47713.22
3569.105, 47843.77
3571.033, 48043.12
3572.962, 48368.50
3574.890, 48699.42
3576.819, 48772.34
3578.747, 48819.55
3580.676, 49001.44
3582.604, 49212.20
3584.532, 49434.58
3586.461, 49667.84
3588.389, 49903.97
3590.318, 50088.57
3592.246, 50243.68
3594.175, 50361.27
3596.103, 50515.44
3598.032, 50732.29
3599.960, 51002.34
3601.889, 51323.77
3603.817, 51676.13
3605.746, 52019.97
3607.674, 52244.76
3609.603, 52460.03
3611.531, 52767.87
3613.459, 53025.23
3615.388, 53084.26
3617.316, 53481.88
3619.245, 54118.66
3621.173, 54538.73
3623.102, 54849.56
3625.030, 55116.34
3626.959, 55464.97
3628.887, 55985.29
3630.816, 56528.02
3632.744, 57075.95
3634.673, 57487.15
3636.601, 57841.07
3638.530, 58289.61
3640.458, 58743.95
3642.386, 59122.34
3644.315, 59576.16
3646.243, 60132.96
3648.172, 60568.50
3650.100, 60945.80
3652.029, 61539.74
3653.957, 62095.93
3655.886, 62308.24
3657.814, 62706.64
3659.743, 63514.98
3661.671, 64039.28
3663.600, 64336.74
3665.528, 64837.61
3667.457, 65406.96
3669.385, 65923.88
3671.313, 66381.52
3673.242, 66716.81
3675.170, 67213.97
3677.099, 67831.21
3679.027, 68168.02
3680.956, 68405.85
3682.884, 68779.78
3684.813, 69214.97
3686.741, 69754.91
3688.670, 70136.70
3690.598, 70371.80
3692.527, 70717.30
3694.455, 71123.35
3696.384, 71528.07
3698.312, 71893.98
3700.240, 72122.80
3702.169, 72539.26
3704.097, 73140.89
3706.026, 73534.74
3707.954, 73829.79
3709.883, 74213.19
3711.811, 74644.31
3713.740, 75105.25
3715.668, 75608.95
3717.597, 76155.34
3719.525, 76783.11
3721.454, 77406.51
3723.382, 77788.35
3725.311, 78221.80
3727.239, 78942.98
3729.167, 79545.33
3731.096, 80011.42
3733.024, 80658.42
3734.953, 81338.65
3736.881, 81695.68
3738.810, 82082.16
3740.738, 82747.15
3742.667, 83278.32
3744.595, 83671.18
3746.524, 84246.12
3748.452, 84905.77
3750.381, 85467.33
3752.309, 86088.69
3754.238, 86924.55
3756.166, 87601.69
3758.094, 88135.01
3760.023, 88768.38
3761.951, 89466.37
3763.880, 90148.23
3765.808, 90931.70
3767.737, 91976.95
3769.665, 92730.07
3771.594, 93272.29
3773.522, 94126.17
3775.451, 95063.73
3777.379, 95886.48
3779.308, 96589.41
3781.236, 97075.98
3783.165, 97836.32
3785.093, 98746.58
3787.021, 99326.96
3788.950, 99933.63
3790.878, 100923.0
3792.807, 101759.2
3794.735, 102287.6
3796.664, 102903.5
3798.592, 103543.4
3800.521, 104047.1
3802.449, 104582.1
3804.378, 105252.0
3806.306, 105867.4
3808.235, 106406.0
3810.163, 107091.9
3812.092, 107781.1
3814.020, 108204.9
3815.948, 108717.5
3817.877, 109451.7
3819.805, 110091.7
3821.734, 110642.3
3823.662, 111285.4
3825.591, 111873.9
3827.519, 112205.2
3829.448, 112624.4
3831.376, 113195.4
3833.305, 113534.4
3835.233, 113811.1
3837.162, 114573.9
3839.090, 115191.5
3841.019, 115131.6
3842.947, 115454.0
3844.875, 116183.7
3846.804, 116725.0
3848.732, 117093.3
3850.661, 117172.2
3852.589, 117429.7
3854.518, 118025.4
3856.446, 118515.3
3858.375, 118895.8
3860.303, 119185.0
3862.232, 119451.4
3864.160, 119788.0
3866.089, 119930.1
3868.017, 119903.1
3869.946, 120167.6
3871.874, 120502.1
3873.802, 120636.4
3875.731, 120723.4
3877.659, 120790.5
3879.588, 120865.9
3881.516, 120958.0
3883.445, 121138.0
3885.373, 121255.6
3887.302, 121193.8
3889.230, 121171.2
3891.159, 121233.3
3893.087, 121347.5
3895.016, 121440.6
3896.944, 121417.4
3898.873, 121398.2
3900.801, 121408.8
3902.729, 121559.5
3904.658, 121804.5
3906.586, 122122.3
3908.515, 122320.3
3910.443, 122240.5
3912.372, 122343.0
3914.300, 122633.7
3916.229, 123005.6
3918.157, 123339.0
3920.086, 123548.1
3922.014, 123665.6
3923.943, 123718.0
3925.871, 124058.0
3927.800, 124550.9
3929.728, 125062.4
3931.656, 125607.4
3933.585, 126232.5
3935.513, 126608.2
3937.442, 126858.3
3939.370, 127141.9
3941.299, 127573.9
3943.227, 128337.6
3945.156, 128817.5
3947.084, 128999.3
3949.013, 129314.8
3950.941, 129742.1
3952.870, 130221.2
3954.798, 130779.4
3956.727, 131484.7
3958.655, 131930.8
3960.583, 132130.3
3962.512, 132330.4
3964.440, 132823.7
3966.369, 133576.9
3968.297, 134114.0
3970.226, 134525.0
3972.154, 134889.7
3974.083, 135265.4
3976.011, 135923.5
3977.940, 136485.9
3979.868, 136845.3
3981.797, 137286.2
3983.725, 137875.4
3985.654, 138411.5
3987.582, 138794.6
3989.510, 139155.9
3991.439, 139592.7
3993.367, 140105.6
3995.296, 140541.2
3997.224, 141027.0
3999.153, 141524.2
4001.081, 142032.6
4003.010, 142714.4
4004.938, 143414.4
4006.867, 144148.1
4008.795, 145045.8
4010.724, 146200.9
4012.652, 147627.6
4014.581, 149286.5
4016.509, 151203.2
4018.438, 153274.8
4020.366, 156030.0
4022.294, 159509.1
4024.223, 163413.4
4026.151, 167743.6
4028.080, 172917.4
4030.008, 178981.9
4031.937, 185946.4
4033.865, 194254.0
4035.794, 203957.6
4037.722, 214908.9
4039.651, 227033.1
4041.579, 240526.9
4043.508, 255496.4
4045.436, 271436.4
4047.365, 287711.0
4049.293, 304569.3
4051.221, 320885.4
4053.150, 335454.8
4055.078, 347728.3
4057.007, 357352.8
4058.935, 364448.2
4060.864, 368517.8
4062.792, 368765.1
4064.721, 365878.9
4066.649, 360732.3
4068.578, 353068.0
4070.506, 343323.4
4072.435, 332311.7
4074.363, 320477.8
4076.292, 307984.2
4078.220, 295341.7
4080.148, 283168.3
4082.077, 271657.8
4084.005, 260826.4
4085.934, 250703.0
4087.862, 241678.7
4089.791, 233538.3
4091.719, 225713.2
4093.648, 218840.4
4095.576, 213089.1
4097.504, 207544.2
4099.433, 202550.8
4101.361, 198281.7
4103.290, 194447.3
4105.218, 191076.0
4107.147, 187991.6
4109.075, 185299.6
4111.004, 183128.8
4112.932, 181090.3
4114.861, 179210.9
4116.789, 177466.8
4118.718, 175963.7
4120.646, 174978.9
4122.575, 174199.8
4124.503, 173578.1
4126.432, 172849.1
4128.360, 172170.0
4130.289, 171702.3
4132.217, 171472.8
4134.146, 171506.2
4136.074, 171671.2
4138.002, 171961.5
4139.931, 172352.9
4141.859, 172983.7
4143.788, 173896.4
4145.716, 174937.1
4147.645, 176321.8
4149.573, 178412.8
4151.501, 180716.2
4153.430, 183136.4
4155.358, 186358.4
4157.287, 190436.7
4159.215, 195301.4
4161.144, 200726.6
4163.072, 206650.0
4165.001, 213752.6
4166.929, 222116.1
4168.858, 231680.1
4170.786, 242773.6
4172.715, 255404.9
4174.643, 269890.5
4176.572, 286452.5
4178.500, 305108.0
4180.429, 326792.4
4182.357, 351486.6
4184.286, 378535.5
4186.214, 407513.5
4188.143, 438636.6
4190.071, 470367.6
4192.000, 502139.1
4193.928, 531546.2
4195.856, 556515.9
4197.785, 574782.9
4199.713, 585643.7
4201.642, 588538.1
4203.570, 582814.3
4205.499, 570635.7
4207.427, 552635.6
4209.355, 531721.0
4211.284, 508425.9
4213.212, 484727.6
4215.141, 461718.9
4217.069, 440257.0
4218.998, 420072.2
4220.926, 401446.8
4222.855, 384216.3
4224.783, 368411.4
4226.712, 354598.7
4228.640, 342142.0
4230.569, 331009.4
4232.497, 321591.5
4234.426, 313194.8
4236.354, 305225.5
4238.283, 298179.5
4240.211, 292100.5
4242.140, 286732.9
4244.068, 282094.6
4245.997, 278410.1
4247.925, 274948.0
4249.854, 271670.8
4251.782, 268702.4
4253.710, 266085.3
4255.639, 263950.1
4257.567, 261880.6
4259.496, 259991.6
4261.424, 258556.5
4263.353, 257497.8
4265.281, 256923.4
4267.209, 256175.4
4269.138, 255404.1
4271.066, 254919.7
4272.995, 254410.3
4274.923, 253760.3
4276.852, 253501.1
4278.780, 253415.3
4280.709, 253191.4
4282.637, 253174.4
4284.566, 253402.8
4286.494, 253389.2
4288.423, 253431.2
4290.351, 253926.5
4292.280, 254095.0
4294.208, 254050.0
4296.137, 254753.1
4298.065, 255555.6
4299.994, 256145.8
4301.922, 256479.1
4303.851, 256638.6
4305.779, 256822.0
4307.708, 256898.7
4309.636, 256756.9
4311.564, 257191.1
4313.493, 257817.4
4315.421, 258098.8
4317.350, 258398.3
4319.278, 258782.8
4321.207, 259049.5
4323.135, 259384.7
4325.063, 259935.8
4326.992, 260618.1
4328.920, 261387.8
4330.849, 262267.4
4332.777, 262842.2
4334.706, 262877.7
4336.634, 263212.9
4338.563, 263909.8
4340.491, 265343.1
4342.420, 266193.8
4344.348, 266264.4
4346.277, 266808.9
4348.205, 267568.1
4350.134, 268350.8
4352.062, 268814.0
4353.991, 269091.2
4355.919, 269887.1
4357.848, 270730.8
4359.776, 271357.0
4361.705, 272137.1
4363.633, 273100.3
4365.562, 274283.2
4367.490, 275522.8
4369.418, 276786.2
4371.347, 278238.8
4373.275, 279628.9
4375.204, 280598.8
4377.132, 281736.7
4379.061, 283109.7
4380.989, 284749.1
4382.917, 286688.3
4384.846, 289011.8
4386.774, 291257.3
4388.703, 293405.6
4390.631, 295382.0
4392.560, 297462.7
4394.488, 299708.2
4396.417, 302352.9
4398.345, 304840.6
4400.274, 306770.2
4402.202, 308948.3
4404.131, 311338.9
4406.059, 313727.7
4407.988, 316238.9
4409.916, 318857.7
4411.845, 320713.5
4413.773, 322428.3
4415.702, 324664.1
4417.630, 326722.9
4419.559, 328609.2
4421.487, 330566.3
4423.416, 332430.9
4425.344, 334115.1
4427.272, 335750.3
4429.201, 337388.9
4431.129, 339166.9
4433.058, 340695.3
4434.986, 342018.9
4436.915, 343675.0
4438.843, 345248.0
4440.771, 346576.4
4442.700, 347540.1
4444.628, 348439.3
4446.557, 349796.7
4448.485, 350711.7
4450.414, 351186.2
4452.342, 351737.7
4454.271, 352397.3
4456.199, 353247.7
4458.128, 353555.7
4460.056, 353598.6
4461.985, 353670.7
4463.913, 354123.1
4465.842, 354853.2
4467.770, 354867.9
4469.699, 354679.5
4471.627, 354514.3
4473.556, 354246.6
4475.484, 353880.3
4477.413, 353384.5
4479.341, 352896.2
4481.270, 352489.3
4483.198, 352354.2
4485.126, 352411.4
4487.055, 352630.7
4488.983, 352896.4
4490.912, 353214.7
4492.840, 353613.9
4494.769, 354057.6
4496.697, 354477.9
4498.625, 354449.3
4500.554, 354736.9
4502.482, 355598.3
4504.411, 356726.3
4506.339, 357855.2
4508.268, 358759.0
4510.196, 359553.8
4512.125, 360542.5
4514.053, 362652.8
4515.982, 364352.6
4517.910, 365268.8
4519.839, 366336.0
4521.767, 367549.9
4523.696, 368839.1
4525.624, 370778.8
4527.553, 372955.9
4529.481, 374704.0
4531.410, 376409.9
4533.338, 378079.5
4535.267, 379273.8
4537.195, 380477.5
4539.124, 381890.9
4541.052, 383227.0
4542.980, 384554.7
4544.909, 386075.3
4546.837, 387173.4
4548.766, 387982.9
4550.694, 388880.1
4552.623, 390043.6
4554.551, 391454.2
4556.479, 392244.0
4558.408, 392924.2
4560.336, 393779.0
4562.265, 394527.0
4564.193, 395277.1
4566.122, 396106.3
4568.050, 397323.6
4569.979, 398793.0
4571.907, 400081.4
4573.836, 400924.0
4575.764, 401265.2
4577.693, 401685.0
4579.621, 402356.8
4581.550, 403429.6
4583.478, 404047.0
4585.407, 404517.6
4587.335, 405264.0
4589.264, 406459.9
4591.192, 407805.1
4593.121, 408082.9
4595.049, 408204.4
4596.978, 408425.4
4598.906, 408628.0
4600.834, 408915.6
4602.763, 409405.7
4604.691, 409118.3
4606.620, 408350.3
4608.548, 407326.6
4610.477, 406876.9
4612.405, 406796.7
4614.333, 406447.6
4616.262, 405393.0
4618.190, 403746.6
4620.119, 403345.8
4622.047, 403104.9
4623.976, 402501.8
4625.904, 401662.8
4627.833, 400796.5
4629.761, 400301.5
4631.690, 398947.3
4633.618, 397207.8
4635.547, 396028.9
4637.475, 395105.0
4639.404, 394248.8
4641.332, 393178.3
4643.261, 391516.9
4645.189, 389173.1
4647.118, 387751.7
4649.046, 386480.2
4650.975, 384952.0
4652.903, 382491.9
4654.832, 379990.0
4656.760, 378394.4
4658.688, 376914.6
4660.617, 375359.7
4662.545, 373445.1
4664.474, 371681.1
4666.402, 370160.0
4668.331, 368903.7
4670.259, 367793.4
4672.188, 366770.6
4674.116, 365789.6
4676.044, 364490.2
4677.973, 362545.9
4679.901, 361798.7
4681.830, 361170.9
4683.758, 359606.3
4685.687, 358196.4
4687.615, 356809.1
4689.544, 354966.4
4691.472, 353675.5
4693.401, 352683.9
4695.329, 350998.6
4697.258, 349167.5
4699.186, 347435.6
4701.115, 346832.9
4703.043, 346004.9
4704.972, 344605.8
4706.900, 343890.8
4708.829, 343162.9
4710.757, 341821.6
4712.686, 341178.2
4714.614, 340733.7
4716.542, 340030.9
4718.471, 339795.4
4720.399, 339736.0
4722.328, 339388.8
4724.256, 339054.1
4726.185, 338803.8
4728.113, 338693.7
4730.042, 338820.7
4731.970, 339118.7
4733.898, 339374.1
4735.827, 339458.3
4737.755, 339309.7
4739.684, 338581.8
4741.612, 338172.8
4743.541, 338425.8
4745.469, 338530.9
4747.398, 338373.9
4749.326, 337902.9
4751.255, 337585.1
4753.183, 337424.7
4755.112, 337517.3
4757.040, 336967.4
4758.969, 336339.6
4760.897, 336315.8
4762.826, 335995.1
4764.754, 335529.3
4766.683, 335317.0
4768.611, 335110.1
4770.540, 334747.8
4772.468, 333771.3
4774.396, 333239.8
4776.325, 333058.9
4778.253, 332333.5
4780.182, 331929.6
4782.110, 331871.2
4784.039, 331015.7
4785.967, 330274.8
4787.896, 329925.5
4789.824, 330172.3
4791.752, 330333.7
4793.681, 330126.7
4795.609, 330276.2
4797.538, 330279.0
4799.466, 329936.8
4801.395, 330172.6
4803.323, 330490.0
4805.252, 330514.7
4807.180, 330502.2
4809.109, 330457.9
4811.037, 330344.0
4812.966, 331280.4
4814.894, 332397.9
4816.823, 332655.0
4818.751, 333074.3
4820.680, 333729.8
4822.608, 334750.1
4824.537, 335283.8
4826.465, 335535.6
4828.394, 335710.5
4830.322, 336706.1
4832.250, 337877.8
4834.179, 337960.1
4836.107, 338435.5
4838.036, 339120.4
4839.964, 339131.9
4841.893, 339697.3
4843.821, 340626.0
4845.750, 341142.9
4847.678, 341520.0
4849.606, 341839.9
4851.535, 342158.0
4853.463, 342510.1
4855.392, 342906.7
4857.320, 343375.8
4859.249, 343816.7
4861.177, 344256.4
4863.106, 345016.9
4865.034, 345288.8
4866.963, 345085.1
4868.891, 345079.6
4870.820, 345284.3
4872.748, 345675.9
4874.677, 346185.3
4876.605, 346784.4
4878.534, 347342.7
4880.462, 347014.1
4882.391, 347290.8
4884.319, 348357.8
4886.248, 349182.3
4888.176, 349595.2
4890.104, 349749.2
4892.033, 350386.0
4893.961, 351663.4
4895.890, 353234.9
4897.818, 352500.6
4899.747, 352405.5
4901.675, 353364.5
4903.604, 353858.1
4905.532, 354404.4
4907.460, 355069.8
4909.389, 355272.1
4911.317, 355679.6
4913.246, 356334.6
4915.174, 356718.6
4917.103, 356859.2
4919.031, 356826.5
4920.960, 356821.7
4922.888, 357109.5
4924.817, 357502.8
4926.745, 356866.8
4928.674, 356279.7
4930.602, 355984.0
4932.531, 356251.8
4934.459, 355793.1
4936.388, 354697.1
4938.316, 354148.1
4940.245, 353348.1
4942.173, 352449.3
4944.102, 352353.0
4946.030, 351901.5
4947.958, 351231.5
4949.887, 351211.7
4951.815, 351043.0
4953.744, 350722.0
4955.672, 350325.6
4957.601, 350711.4
4959.529, 351458.2
4961.458, 351762.5
4963.386, 351850.7
4965.314, 351839.2
4967.243, 351747.1
4969.171, 352544.1
4971.100, 353709.9
4973.028, 354596.9
4974.957, 355043.3
4976.885, 355306.7
4978.814, 355554.3
4980.742, 356826.2
4982.671, 358450.2
4984.599, 359860.2
4986.528, 360512.2
4988.456, 360892.3
4990.385, 361272.3
4992.313, 362433.9
4994.242, 363611.8
4996.170, 364428.1
4998.099, 365116.4
5000.027, 366012.1
5001.956, 367212.8
5003.884, 367625.8
5005.813, 368043.4
5007.741, 368739.8
5009.669, 369856.5
5011.598, 370619.5
5013.526, 370931.6
5015.455, 371015.5
5017.383, 371340.6
5019.312, 371862.0
5021.240, 372302.4
5023.168, 372380.6
5025.097, 372281.9
5027.025, 372429.9
5028.954, 372315.8
5030.882, 372238.0
5032.811, 372799.4
5034.739, 372721.6
5036.668, 372471.2
5038.596, 372508.0
5040.525, 372926.8
5042.453, 373454.3
5044.382, 373913.2
5046.310, 374434.3
5048.239, 374429.6
5050.167, 373713.4
5052.096, 373670.6
5054.024, 373888.6
5055.953, 374107.3
5057.881, 373718.6
5059.810, 373563.6
5061.738, 373634.9
5063.667, 373434.9
5065.595, 372658.8
5067.523, 371663.7
5069.452, 371141.1
5071.380, 370555.7
5073.309, 369843.7
5075.237, 368948.4
5077.166, 368251.2
5079.094, 367490.8
5081.022, 366475.9
5082.951, 365770.8
5084.879, 365218.7
5086.808, 364692.0
5088.736, 363701.1
5090.665, 363266.5
5092.593, 363363.0
5094.522, 362168.1
5096.450, 361221.8
5098.379, 360614.5
5100.307, 359797.7
5102.236, 359210.9
5104.164, 358753.2
5106.093, 358343.0
5108.021, 357256.8
5109.950, 356289.6
5111.878, 356066.1
5113.807, 355723.6
5115.735, 355047.5
5117.664, 354054.5
5119.592, 353423.3
5121.521, 353164.5
5123.449, 353050.8
5125.377, 352146.9
5127.306, 351349.0
5129.234, 350849.9
5131.163, 350773.2
5133.091, 350298.7
5135.020, 349613.4
5136.948, 348848.5
5138.876, 349275.3
5140.805, 349838.1
5142.733, 349952.3
5144.662, 350402.3
5146.590, 350868.1
5148.519, 351220.4
5150.447, 351280.9
5152.376, 351678.2
5154.304, 352289.5
5156.233, 352718.2
5158.161, 352900.5
5160.090, 352729.9
5162.018, 352099.3
5163.947, 352387.3
5165.875, 352344.1
5167.804, 351351.3
5169.732, 350619.1
5171.661, 349904.4
5173.589, 349222.3
5175.518, 349040.2
5177.446, 348470.9
5179.375, 347627.7
5181.303, 346878.8
5183.231, 346011.7
5185.160, 345150.7
5187.088, 344405.1
5189.017, 343674.2
5190.945, 343007.8
5192.874, 342379.6
5194.802, 341538.0
5196.730, 340530.1
5198.659, 339728.4
5200.587, 340008.5
5202.516, 339522.2
5204.444, 338869.6
5206.373, 338815.4
5208.301, 338129.8
5210.230, 337683.0
5212.158, 337651.0
5214.087, 336582.2
5216.015, 336241.4
5217.944, 336372.7
5219.872, 335594.3
5221.801, 335026.4
5223.729, 334616.0
5225.658, 334218.1
5227.586, 333941.0
5229.515, 333685.0
5231.443, 333370.4
5233.372, 332757.9
5235.300, 332442.7
5237.229, 332126.0
5239.157, 330727.7
5241.085, 330423.3
5243.014, 330402.5
5244.942, 329894.5
5246.871, 329292.5
5248.799, 328922.1
5250.728, 328718.3
5252.656, 327970.4
5254.584, 327197.2
5256.513, 326580.3
5258.441, 326346.4
5260.370, 325848.2
5262.298, 325096.4
5264.227, 324162.8
5266.155, 323623.3
5268.084, 323272.0
5270.012, 322898.2
5271.941, 322022.3
5273.869, 321579.4
5275.798, 321452.7
5277.726, 321534.9
5279.655, 321099.8
5281.583, 320570.0
5283.512, 320095.7
5285.440, 319554.8
5287.369, 318986.8
5289.297, 318339.0
5291.226, 317450.8
5293.154, 317132.6
5295.083, 317035.3
5297.011, 316904.6
5298.939, 316354.0
5300.868, 315555.4
5302.796, 314750.5
5304.725, 314284.2
5306.653, 314150.8
5308.582, 314148.2
5310.510, 314112.3
5312.438, 313586.2
5314.367, 312944.9
5316.295, 312418.6
5318.224, 312346.3
5320.152, 312152.3
5322.081, 311831.8
5324.009, 311427.8
5325.938, 310448.4
5327.866, 309921.3
5329.795, 309878.1
5331.723, 309144.5
5333.652, 308860.3
5335.580, 308490.0
5337.509, 307242.3
5339.437, 307612.5
5341.366, 308034.4
5343.294, 307996.3
5345.223, 307833.5
5347.151, 307603.7
5349.080, 307242.7
5351.008, 306662.9
5352.937, 306110.1
5354.865, 306219.0
5356.793, 306725.6
5358.722, 305702.8
5360.650, 304795.8
5362.579, 304314.0
5364.507, 304289.3
5366.436, 304266.3
5368.364, 303927.6
5370.292, 303280.4
5372.221, 302550.7
5374.149, 302095.6
5376.078, 302102.2
5378.006, 302755.8
5379.935, 302562.3
5381.863, 302259.4
5383.792, 301990.6
5385.720, 301508.5
5387.649, 301183.3
5389.577, 300951.1
5391.506, 300705.8
5393.434, 299983.4
5395.363, 299535.5
5397.291, 299392.6
5399.220, 299264.6
5401.148, 299083.8
5403.077, 298833.3
5405.005, 298556.1
5406.934, 298600.2
5408.862, 298516.4
5410.791, 298373.3
5412.719, 298399.6
5414.647, 297437.7
5416.576, 296884.2
5418.504, 296971.7
5420.433, 296190.5
5422.361, 295622.3
5424.290, 295401.8
5426.218, 295476.3
5428.146, 295309.1
5430.075, 294890.1
5432.003, 294343.2
5433.932, 293840.0
5435.860, 293595.4
5437.789, 293588.3
5439.717, 293706.8
5441.646, 293148.6
5443.574, 293379.0
5445.503, 293538.2
5447.431, 292394.9
5449.360, 292215.6
5451.288, 291913.8
5453.217, 291384.7
5455.145, 291409.2
5457.074, 290770.6
5459.002, 290201.3
5460.931, 290145.9
5462.859, 289664.6
5464.788, 289455.1
5466.716, 289165.0
5468.645, 288131.3
5470.573, 288108.3
5472.501, 288321.8
5474.430, 288355.7
5476.358, 287934.2
5478.287, 287444.8
5480.215, 286895.7
5482.144, 286314.1
5484.072, 286003.3
5486.000, 285701.6
5487.929, 285441.8
5489.857, 285344.8
5491.786, 284929.1
5493.714, 284684.0
5495.643, 284420.6
5497.571, 283474.4
5499.500, 282918.5
5501.428, 282679.6
5503.357, 282589.3
5505.285, 282333.1
5507.214, 282538.0
5509.142, 282347.8
5511.071, 281160.5
5512.999, 281122.2
5514.928, 281190.5
5516.856, 281072.7
5518.785, 280730.0
5520.713, 279921.9
5522.642, 279677.8
5524.570, 279754.6
5526.499, 278997.3
5528.427, 278285.3
5530.355, 277864.2
5532.284, 277698.8
5534.212, 277448.3
5536.141, 276836.8
5538.069, 276495.5
5539.998, 276779.8
5541.926, 276317.2
5543.854, 276227.1
5545.783, 276316.3
5547.711, 276153.1
5549.640, 275794.8
5551.568, 275329.4
5553.497, 274648.8
5555.425, 273559.9
5557.354, 273090.0
5559.282, 272747.3
5561.211, 272330.8
5563.139, 271855.8
5565.068, 271465.0
5566.996, 271339.2
5568.925, 271361.0
5570.853, 270761.3
5572.782, 270220.4
5574.710, 269736.6
5576.639, 269299.8
5578.567, 269168.9
5580.496, 268858.6
5582.424, 268681.3
5584.353, 268787.3
5586.281, 267923.7
5588.209, 267152.1
5590.138, 266560.0
5592.066, 266021.6
5593.995, 265904.5
5595.923, 265663.0
5597.852, 265277.0
5599.780, 264917.5
5601.708, 264163.1
5603.637, 263974.9
5605.565, 263931.3
5607.494, 263002.6
5609.422, 262924.4
5611.351, 262777.7
5613.279, 262427.3
5615.208, 262271.2
5617.136, 261416.4
5619.065, 261089.9
5620.993, 261128.4
5622.922, 259905.1
5624.850, 258918.0
5626.779, 258357.5
5628.707, 258116.1
5630.636, 257807.6
5632.564, 257702.7
5634.493, 257220.5
5636.421, 256474.0
5638.350, 256495.7
5640.278, 256342.7
5642.207, 255916.5
5644.135, 255304.1
5646.063, 254695.5
5647.992, 254385.2
5649.920, 254106.0
5651.849, 253728.3
5653.777, 253321.4
5655.706, 253034.0
5657.634, 252565.0
5659.563, 251857.7
5661.491, 251201.6
5663.419, 250830.6
5665.348, 250699.2
5667.276, 250668.5
5669.205, 250455.9
5671.133, 250043.1
5673.062, 249527.3
5674.990, 249023.8
5676.919, 248728.0
5678.847, 248004.5
5680.776, 247619.1
5682.704, 247639.7
5684.633, 247261.4
5686.561, 246553.2
5688.490, 245754.6
5690.418, 245153.1
5692.347, 245382.5
5694.275, 244699.8
5696.204, 244132.3
5698.132, 243802.5
5700.061, 242853.8
5701.989, 243120.5
5703.917, 243455.2
5705.846, 243208.5
5707.774, 242051.8
5709.703, 241672.9
5711.631, 241331.0
5713.560, 240818.7
5715.488, 240242.9
5717.417, 240318.4
5719.345, 239597.8
5721.273, 238692.3
5723.202, 238603.2
5725.130, 237863.0
5727.059, 237511.0
5728.987, 237209.8
5730.916, 236499.9
5732.844, 236549.8
5734.773, 236521.4
5736.701, 236214.7
5738.630, 235684.8
5740.558, 235393.3
5742.487, 234998.5
5744.415, 234662.1
5746.344, 234392.7
5748.272, 233825.7
5750.201, 233197.2
5752.129, 232574.2
5754.058, 232111.3
5755.986, 232094.1
5757.915, 231432.2
5759.843, 230862.2
5761.771, 230416.8
5763.700, 229731.3
5765.628, 229537.0
5767.557, 229177.3
5769.485, 228821.8
5771.414, 228787.1
5773.342, 228332.8
5775.271, 228117.3
5777.199, 227840.5
5779.127, 227224.4
5781.056, 226339.4
5782.984, 225682.3
5784.913, 225413.1
5786.841, 225313.3
5788.770, 224682.8
5790.698, 224503.0
5792.627, 223889.0
5794.555, 223196.3
5796.484, 223399.6
5798.412, 222707.5
5800.341, 222296.9
5802.269, 222144.4
5804.198, 221869.3
5806.126, 220980.4
5808.055, 220731.3
5809.983, 220592.5
5811.912, 220199.1
5813.840, 219940.1
5815.769, 219124.9
5817.697, 218445.6
5819.625, 218032.4
5821.554, 217562.8
5823.482, 217024.6
5825.411, 216607.0
5827.339, 216255.0
5829.268, 215860.8
5831.196, 215315.1
5833.125, 214721.7
5835.053, 214499.8
5836.981, 214592.0
5838.910, 214187.3
5840.838, 213572.3
5842.767, 212866.6
5844.695, 212343.1
5846.624, 212278.7
5848.552, 211587.8
5850.481, 211293.8
5852.409, 210932.9
5854.338, 210187.1
5856.266, 210009.5
5858.195, 209707.0
5860.123, 209020.1
5862.052, 208245.5
5863.980, 207987.0
5865.909, 208116.4
5867.837, 207570.7
5869.766, 206945.4
5871.694, 206846.2
5873.623, 206404.5
5875.551, 206071.8
5877.479, 205333.0
5879.408, 204369.4
5881.336, 204213.5
5883.265, 203853.4
5885.193, 203657.5
5887.122, 203247.4
5889.050, 202337.9
5890.979, 202473.9
5892.907, 202056.1
5894.835, 201835.9
5896.764, 201864.0
5898.692, 201203.4
5900.621, 200963.9
5902.549, 200631.5
5904.478, 200322.6
5906.406, 200099.5
5908.335, 198784.7
5910.263, 198789.4
5912.192, 198473.5
5914.120, 197589.7
5916.049, 197097.4
5917.977, 196672.2
5919.906, 196526.0
5921.834, 196139.9
5923.763, 195340.8
5925.691, 194949.0
5927.620, 194746.0
5929.548, 194563.7
5931.477, 194320.8
5933.405, 193957.5
5935.333, 193119.3
5937.262, 192865.5
5939.190, 192563.7
5941.119, 191967.1
5943.047, 191489.0
5944.976, 191373.9
5946.904, 190590.2
5948.833, 190055.2
5950.761, 190258.3
5952.689, 189231.6
5954.618, 188958.4
5956.546, 188593.1
5958.475, 188041.3
5960.403, 187666.2
5962.332, 187581.5
5964.260, 187100.5
5966.189, 186552.0
5968.117, 186214.8
5970.046, 186212.2
5971.974, 185680.4
5973.903, 185176.9
5975.831, 184691.0
5977.760, 184193.3
5979.688, 183985.6
5981.617, 183606.8
5983.545, 182905.4
5985.474, 182243.5
5987.402, 181938.0
5989.331, 181854.2
5991.259, 181196.0
5993.188, 180415.0
5995.116, 179984.7
5997.044, 180169.8
5998.973, 179894.1
6000.901, 179436.1
6002.830, 178827.0
6004.758, 178278.4
6006.687, 178153.1
6008.615, 177550.2
6010.543, 177381.4
6012.472, 177046.6
6014.400, 176386.0
6016.329, 175916.9
6018.257, 175469.9
6020.186, 174800.4
6022.114, 174409.2
6024.043, 174385.5
6025.971, 174138.5
6027.900, 173675.0
6029.828, 173604.6
6031.757, 173208.7
6033.685, 172293.8
6035.614, 172036.8
6037.542, 171472.1
6039.471, 171382.7
6041.399, 171022.7
6043.328, 170097.0
6045.256, 170022.0
6047.185, 169409.7
6049.113, 169203.8
6051.042, 169028.9
6052.970, 168462.1
6054.898, 167908.7
6056.827, 166945.2
6058.755, 166722.2
6060.684, 166578.6
6062.612, 166055.2
6064.541, 166296.5
6066.469, 165718.8
6068.397, 165303.3
6070.326, 164879.1
6072.254, 164191.2
6074.183, 163605.3
6076.111, 163486.3
6078.040, 163091.0
6079.968, 162407.8
6081.897, 161806.3
6083.825, 161833.0
6085.754, 161293.5
6087.682, 160931.1
6089.611, 160638.5
6091.539, 160170.1
6093.468, 159459.5
6095.396, 158882.7
6097.325, 158643.7
6099.253, 158326.4
6101.182, 157833.0
6103.110, 157464.0
6105.039, 157113.6
6106.967, 157005.5
6108.896, 156579.7
6110.824, 155774.5
6112.752, 154979.1
6114.681, 154826.8
6116.609, 154235.6
6118.538, 154154.4
6120.466, 154098.1
6122.395, 153189.8
6124.323, 152751.4
6126.251, 152515.5
6128.180, 152139.8
6130.108, 151736.2
6132.037, 151422.6
6133.965, 150948.6
6135.894, 150391.1
6137.822, 150074.6
6139.751, 149771.6
6141.679, 149327.8
6143.608, 148858.3
6145.536, 148577.6
6147.465, 148140.6
6149.393, 147623.0
6151.322, 147053.3
6153.250, 146396.5
6155.179, 146031.1
6157.107, 145706.3
6159.036, 145363.3
6160.964, 145200.4
6162.893, 145184.1
6164.821, 144325.6
6166.750, 144053.6
6168.678, 143518.6
6170.606, 143059.6
6172.535, 142871.9
6174.463, 142640.1
6176.392, 142128.9
6178.320, 141642.2
6180.249, 141040.1
6182.177, 140584.8
6184.105, 140485.5
6186.034, 139630.8
6187.962, 139284.9
6189.891, 138909.9
6191.819, 138682.4
6193.748, 138557.8
6195.676, 137890.1
6197.605, 137501.4
6199.533, 137405.3
6201.462, 137023.0
6203.390, 136522.1
6205.319, 136255.4
6207.247, 135630.1
6209.176, 135320.6
6211.104, 134988.5
6213.033, 134501.1
6214.961, 133939.2
6216.890, 133479.1
6218.818, 133164.3
6220.747, 132826.2
6222.675, 132086.0
6224.604, 131720.3
6226.532, 132058.0
6228.460, 131645.3
6230.389, 131176.9
6232.317, 130518.4
6234.246, 130022.5
6236.174, 129730.9
6238.103, 129418.4
6240.031, 129044.6
6241.959, 128657.5
6243.888, 128214.7
6245.816, 127760.8
6247.745, 127386.3
6249.673, 127149.8
6251.602, 126781.3
6253.530, 126319.1
6255.459, 126055.1
6257.387, 125738.3
6259.316, 125295.2
6261.244, 125269.0
6263.173, 124431.8
6265.101, 124322.8
6267.030, 124156.1
6268.958, 123659.6
6270.887, 123103.3
6272.815, 122794.8
6274.744, 122544.6
6276.672, 121604.9
6278.601, 121315.5
6280.529, 121454.1
6282.458, 121027.1
6284.386, 120252.8
6286.314, 119701.9
6288.243, 119781.1
6290.171, 119434.5
6292.100, 118841.4
6294.028, 118712.0
6295.957, 118136.2
6297.885, 118190.4
6299.813, 118061.9
6301.742, 117542.0
6303.670, 116981.1
6305.599, 116686.4
6307.527, 116200.3
6309.456, 115610.2
6311.384, 115186.2
6313.313, 115082.1
6315.241, 114961.3
6317.170, 114473.5
6319.098, 114076.2
6321.027, 113493.9
6322.955, 113428.6
6324.884, 113251.9
6326.812, 112935.2
6328.741, 112780.4
6330.669, 112413.8
6332.598, 112131.0
6334.526, 111727.2
6336.455, 111533.3
6338.383, 111079.0
6340.312, 110192.0
6342.240, 110134.9
6344.168, 109812.8
6346.097, 109444.1
6348.025, 108818.8
6349.954, 108355.2
6351.882, 108224.4
6353.811, 107981.6
6355.739, 108095.4
6357.667, 107554.4
6359.596, 107092.7
6361.524, 106983.7
6363.453, 106874.4
6365.381, 106289.0
6367.310, 105478.7
6369.238, 105277.7
6371.167, 105195.9
6373.095, 104927.1
6375.024, 104445.6
6376.952, 103954.9
6378.881, 103920.1
6380.809, 103104.4
6382.738, 103193.2
6384.666, 102897.8
6386.595, 102410.5
6388.523, 102145.7
6390.452, 101793.9
6392.380, 101676.3
6394.309, 101525.8
6396.237, 101220.1
6398.166, 100831.4
6400.094, 100398.5
6402.022, 100007.2
6403.951, 99913.78
6405.879, 99721.23
6407.808, 98945.93
6409.736, 98709.56
6411.665, 98590.39
6413.593, 98210.14
6415.521, 97941.63
6417.450, 97641.33
6419.378, 97106.99
6421.307, 96791.80
6423.235, 96744.73
6425.164, 96631.23
6427.092, 96298.70
6429.021, 96053.20
6430.949, 95815.83
6432.878, 95483.07
6434.806, 95049.80
6436.735, 94716.09
6438.663, 94376.20
6440.592, 93899.79
6442.520, 93580.30
6444.449, 93199.52
6446.377, 93073.06
6448.306, 92942.37
6450.234, 92587.38
6452.163, 92145.00
6454.091, 91870.70
6456.020, 91661.93
6457.948, 91397.39
6459.876, 91187.55
6461.805, 91032.17
6463.733, 90928.43
6465.662, 90690.92
6467.590, 90186.95
6469.519, 90081.84
6471.447, 89462.71
6473.375, 89210.71
6475.304, 88946.55
6477.232, 88593.73
6479.161, 88242.23
6481.089, 87944.48
6483.018, 87784.07
6484.946, 87751.70
6486.875, 87293.45
6488.803, 86940.54
6490.732, 86732.88
6492.660, 86416.57
6494.589, 85993.39
6496.517, 86151.52
6498.446, 85798.88
6500.374, 85380.76
6502.303, 85320.68
6504.231, 84971.55
6506.160, 84580.24
6508.088, 84456.23
6510.017, 83893.38
6511.945, 83743.95
6513.874, 83327.41
6515.802, 83235.77
6517.730, 83191.08
6519.659, 82782.02
6521.587, 82266.45
6523.516, 82312.61
6525.444, 82211.97
6527.373, 82116.63
6529.301, 81933.89
6531.229, 81583.40
6533.158, 81056.51
6535.086, 80577.06
6537.015, 80310.38
6538.943, 80055.51
6540.872, 79899.21
6542.800, 79827.22
6544.729, 79737.33
6546.657, 79268.66
6548.586, 78644.49
6550.514, 78463.16
6552.443, 78915.05
6554.371, 78281.71
6556.300, 77967.68
6558.228, 77742.85
6560.157, 77642.84
6562.085, 77409.00
6564.014, 77103.48
6565.942, 76895.61
6567.871, 76678.52
6569.799, 76429.00
6571.728, 76191.28
6573.656, 76024.46
6575.584, 75791.63
6577.513, 75560.80
6579.441, 75248.51
6581.370, 74794.48
6583.298, 74493.70
6585.227, 74526.49
6587.155, 74481.40
6589.083, 74074.02
6591.012, 73931.20
6592.940, 73721.13
6594.869, 73326.69
6596.797, 73004.20
6598.726, 72749.20
6600.654, 72829.53
6602.583, 72551.66
6604.511, 72239.23
6606.440, 71786.36
6608.368, 71513.32
6610.297, 71360.95
6612.225, 71094.80
6614.154, 70849.34
6616.082, 70852.59
6618.011, 70461.31
6619.939, 70358.81
6621.868, 70189.38
6623.796, 69893.45
6625.725, 69683.07
##END=



