##NAMES=Analcime
##RRUFFID=R060023
##IDEAL CHEMISTRY=Na(AlSi_2_O_6_)·H_2_O
##LOCALITY=Dallas, Oregon, USA
##OWNER=RRUFF
##SOURCE=Bob Downs
##DESCRIPTION=White trapezohedral crystal associated with levyne-Na, R060021
##STATUS=The identification of this mineral has been confirmed by X-ray diffraction and chemical analysis
##URL=https://www.rruff.net/odr/rruff_sample/R060023
##MEASURED CHEMISTRY=(Na_0.98_[box]_0.02_)(Si_2.02_Al_0.98_)O_6_·H_2_O
##DIFFRACTION SAMPLE DESCRIPTION=Powder
##CELL PARAMETERS=a: 13.7213 b: 13.7213 c: 13.722 alpha: 90 beta: 90 gamma: 90 volume: 2583.6 crystal system: tetragonal
##FILETYPE=Raman RAW
##RAMAN WAVELENGTH=532

190.3194, 304.7967
192.2478, 303.6479
194.1763, 301.6501
196.1048, 299.3765
198.0332, 297.9335
199.9617, 298.5579
201.8902, 298.9048
203.8186, 297.8048
205.7471, 295.1484
207.6756, 292.8522
209.6040, 291.0889
211.5325, 289.9138
213.4610, 289.5962
215.3894, 291.3569
217.3179, 292.6697
219.2464, 292.2134
221.1748, 288.9636
223.1033, 286.6270
225.0318, 286.1785
226.9602, 287.0626
228.8887, 287.3484
230.8172, 286.7767
232.7456, 285.8425
234.6741, 284.8420
236.6026, 284.0422
238.5310, 282.7700
240.4595, 280.5602
242.3880, 277.8074
244.3164, 275.4701
246.2449, 274.0475
248.1734, 272.7577
250.1018, 271.1556
252.0303, 268.8933
253.9588, 267.1214
255.8872, 266.3568
257.8157, 266.2726
259.7442, 266.0243
261.6726, 265.5781
263.6011, 264.9442
265.5296, 263.7972
267.4580, 261.7695
269.3865, 260.6959
271.3150, 261.2695
273.2434, 263.1408
275.1719, 265.4163
277.1004, 268.0618
279.0288, 271.0966
280.9573, 274.1438
282.8858, 276.7301
284.8142, 281.5473
286.7427, 288.5842
288.6712, 298.0237
290.5996, 311.0034
292.5281, 328.8314
294.4566, 348.5440
296.3850, 370.5881
298.3135, 397.5572
300.2420, 416.4698
302.1704, 427.0396
304.0989, 428.8998
306.0274, 421.8646
307.9558, 401.4869
309.8843, 378.8152
311.8128, 357.8274
313.7412, 337.8330
315.6697, 322.0966
317.5982, 311.1897
319.5266, 304.4423
321.4551, 300.3314
323.3836, 299.8051
325.3120, 300.4910
327.2405, 301.4107
329.1690, 302.4428
331.0974, 304.5230
333.0259, 307.8208
334.9544, 312.1294
336.8829, 317.1309
338.8113, 323.2293
340.7398, 329.4249
342.6683, 335.3199
344.5967, 340.9231
346.5252, 347.0512
348.4537, 353.4961
350.3821, 360.6235
352.3106, 368.5333
354.2391, 377.3089
356.1675, 386.7977
358.0960, 397.4551
360.0245, 408.9047
361.9529, 419.6751
363.8814, 429.1155
365.8099, 438.5659
367.7383, 448.5921
369.6668, 458.9930
371.5953, 470.5262
373.5237, 483.9351
375.4522, 498.2949
377.3807, 512.0784
379.3091, 525.6595
381.2376, 537.8425
383.1661, 548.3760
385.0945, 557.1154
387.0230, 564.0245
388.9515, 569.4810
390.8799, 572.8307
392.8084, 574.0795
394.7369, 573.1979
396.6653, 570.0020
398.5938, 564.6748
400.5223, 556.9880
402.4507, 547.0555
404.3792, 534.7382
406.3077, 520.0357
408.2361, 502.7230
410.1646, 480.7386
412.0931, 461.0890
414.0215, 444.2654
415.9500, 430.1255
417.8785, 417.6039
419.8069, 405.2212
421.7354, 396.9513
423.6639, 393.8598
425.5923, 396.5219
427.5208, 402.0871
429.4493, 410.8869
431.3777, 422.0535
433.3062, 435.2103
435.2347, 450.8206
437.1631, 466.4840
439.0916, 480.9927
441.0201, 494.8313
442.9485, 510.6706
444.8770, 526.6418
446.8055, 545.9308
448.7339, 568.7286
450.6624, 594.3260
452.5909, 628.5384
454.5193, 670.6215
456.4478, 721.9276
458.3763, 785.1836
460.3047, 857.8392
462.2332, 944.4517
464.1617, 1046.806
466.0901, 1163.426
468.0186, 1298.116
469.9471, 1449.992
471.8755, 1620.726
473.8040, 1818.550
475.7325, 2046.853
477.6609, 2274.754
479.5894, 2534.377
481.5179, 2775.941
483.4464, 2945.393
485.3748, 3049.235
487.3033, 3062.598
489.2318, 2957.408
491.1602, 2743.365
493.0887, 2498.431
495.0172, 2191.769
496.9456, 1888.801
498.8741, 1616.862
500.8026, 1377.883
502.7310, 1173.504
504.6595, 1008.859
506.5880, 876.4766
508.5164, 766.0501
510.4449, 680.2195
512.3734, 609.0952
514.3018, 550.4404
516.2303, 503.4795
518.1588, 463.4245
520.0872, 430.9094
522.0157, 403.4341
523.9442, 381.3174
525.8726, 364.0965
527.8011, 348.3042
529.7296, 332.9718
531.6580, 319.0263
533.5865, 307.6686
535.5150, 299.9630
537.4434, 292.7526
539.3719, 285.9277
541.3004, 279.3165
543.2288, 272.5514
545.1573, 264.9058
547.0858, 257.9351
549.0142, 251.9155
550.9427, 246.9354
552.8712, 242.9535
554.7996, 240.9955
556.7281, 239.1077
558.6566, 236.0708
560.5850, 231.4090
562.5135, 227.3390
564.4420, 224.1649
566.3704, 221.6695
568.2989, 219.5348
570.2274, 217.5261
572.1558, 216.3317
574.0843, 216.6757
576.0128, 218.0906
577.9412, 219.0157
579.8697, 218.6350
581.7982, 218.5001
583.7267, 219.2727
585.6552, 220.9159
587.5836, 222.3308
589.5121, 222.9116
591.4406, 223.7085
593.3690, 225.4408
595.2975, 228.7707
597.2260, 231.6752
599.1544, 233.7855
601.0829, 235.5557
603.0114, 237.5671
604.9398, 239.8246
606.8683, 242.2813
608.7968, 245.1642
610.7252, 248.2720
612.6537, 250.9332
614.5822, 252.4973
616.5106, 254.3109
618.4391, 257.2862
620.3676, 261.0815
622.2960, 263.7774
624.2245, 264.8415
626.1530, 264.9427
628.0814, 264.5236
630.0099, 263.8077
631.9384, 261.6920
633.8668, 257.1458
635.7953, 251.8529
637.7238, 247.1939
639.6522, 243.1018
641.5807, 239.7857
643.5092, 238.0121
645.4376, 236.8461
647.3661, 234.8209
649.2946, 230.4447
651.2230, 226.9976
653.1515, 225.4020
655.0800, 225.1215
657.0084, 224.8585
658.9369, 224.6236
660.8654, 224.3128
662.7938, 223.6706
664.7223, 222.6738
666.6508, 222.5044
668.5792, 224.3918
670.5077, 225.9345
672.4362, 225.7636
674.3646, 224.0098
676.2931, 221.8907
678.2216, 219.2901
680.1500, 216.5893
682.0785, 214.0936
684.0070, 212.2270
685.9354, 209.6523
687.8639, 205.8553
689.7924, 201.5833
691.7208, 197.4616
693.6493, 193.3692
695.5778, 189.8841
697.5062, 187.2993
699.4347, 185.3218
701.3632, 183.4765
703.2916, 181.7057
705.2201, 180.1684
707.1486, 178.9708
709.0770, 178.0432
711.0055, 177.2204
712.9340, 176.4030
714.8624, 175.8570
716.7909, 175.7823
718.7194, 176.1053
720.6478, 176.1808
722.5763, 175.8241
724.5048, 175.4109
726.4332, 175.4811
728.3617, 175.7814
730.2902, 174.7948
732.2186, 170.3514
734.1471, 166.5516
736.0756, 165.6158
738.0040, 168.3307
739.9325, 169.5516
741.8610, 167.9677
743.7894, 166.0669
745.7179, 165.4588
747.6464, 166.1298
749.5748, 166.6469
751.5033, 166.7051
753.4318, 166.5382
755.3602, 166.1577
757.2887, 165.0803
759.2172, 164.8906
761.1456, 166.6400
763.0741, 168.6126
765.0026, 169.1393
766.9310, 167.9157
768.8595, 167.1833
770.7880, 167.9084
772.7164, 169.1297
774.6449, 169.8991
776.5734, 169.3770
778.5018, 169.6998
780.4303, 171.7513
782.3588, 174.3150
784.2872, 175.9784
786.2157, 176.6183
788.1442, 176.7666
790.0726, 176.1231
792.0011, 175.2191
793.9296, 174.8183
795.8580, 175.3281
797.7865, 175.8508
799.7150, 176.8243
801.6434, 177.6016
803.5719, 177.0987
805.5004, 174.7313
807.4288, 172.7387
809.3573, 172.1866
811.2858, 172.3447
813.2142, 171.8864
815.1427, 169.9011
817.0712, 168.3908
818.9996, 167.8362
820.9281, 167.8366
822.8566, 167.5907
824.7850, 166.9917
826.7135, 166.3964
828.6420, 165.8369
830.5704, 165.3582
832.4989, 165.0679
834.4274, 165.4916
836.3558, 165.4968
838.2843, 164.5541
840.2128, 163.2036
842.1412, 162.6333
844.0697, 163.2253
845.9982, 163.6034
847.9266, 162.9906
849.8551, 161.9246
851.7836, 161.3943
853.7120, 161.8952
855.6405, 162.2045
857.5690, 162.1358
859.4974, 161.7558
861.4259, 161.1842
863.3544, 160.3742
865.2828, 159.5564
867.2113, 158.6215
869.1398, 157.7956
871.0682, 157.4768
872.9967, 158.0811
874.9252, 158.3833
876.8536, 157.8262
878.7821, 156.9678
880.7106, 156.8214
882.6390, 157.8515
884.5675, 158.3462
886.4960, 157.4108
888.4244, 156.0701
890.3529, 155.5433
892.2814, 156.2200
894.2098, 156.5124
896.1383, 155.6512
898.0668, 154.5384
899.9952, 154.1212
901.9237, 154.6203
903.8522, 155.3480
905.7806, 156.9747
907.7091, 158.3191
909.6376, 157.9932
911.5660, 155.7461
913.4946, 154.4775
915.4230, 155.8106
917.3515, 157.6238
919.2800, 158.5333
921.2084, 158.0279
923.1369, 158.2820
925.0654, 160.0907
926.9938, 161.9622
928.9223, 162.7350
930.8508, 162.5241
932.7792, 162.7305
934.7077, 163.7059
936.6362, 164.9034
938.5646, 166.2008
940.4931, 167.6249
942.4216, 168.4283
944.3500, 168.0679
946.2785, 167.6841
948.2070, 167.4021
950.1354, 167.3700
952.0639, 168.2807
953.9924, 170.9165
955.9208, 173.1788
957.8493, 173.7946
959.7778, 173.4805
961.7062, 173.8822
963.6347, 175.4778
965.5632, 177.0841
967.4916, 178.1860
969.4201, 179.2140
971.3486, 181.0454
973.2770, 184.0281
975.2055, 186.9888
977.1340, 189.7734
979.0624, 192.4402
980.9909, 194.9816
982.9194, 197.3134
984.8478, 199.9830
986.7763, 203.5224
988.7048, 207.1058
990.6332, 210.0915
992.5617, 212.1844
994.4902, 214.6820
996.4186, 217.7494
998.3471, 221.0195
1000.276, 224.7837
1002.204, 228.7991
1004.133, 231.3193
1006.061, 231.2163
1007.989, 231.2159
1009.918, 232.6875
1011.846, 235.2828
1013.775, 237.4057
1015.703, 238.6673
1017.632, 239.8592
1019.560, 241.0500
1021.489, 242.2023
1023.417, 243.2489
1025.346, 244.1424
1027.274, 245.0015
1029.203, 245.7278
1031.131, 246.5303
1033.059, 247.4937
1034.988, 248.5848
1036.916, 250.2929
1038.845, 252.8289
1040.773, 255.9581
1042.702, 259.6540
1044.630, 263.9719
1046.559, 268.5089
1048.487, 272.7480
1050.416, 277.7031
1052.344, 284.2525
1054.273, 291.8414
1056.201, 298.6817
1058.130, 304.3331
1060.058, 310.1813
1061.986, 316.5882
1063.915, 323.4773
1065.843, 330.7236
1067.772, 338.0306
1069.700, 346.3542
1071.629, 355.8904
1073.557, 366.2877
1075.486, 377.4249
1077.414, 389.4292
1079.343, 401.5373
1081.271, 413.4507
1083.200, 425.7724
1085.128, 438.9634
1087.057, 452.8172
1088.985, 466.9197
1090.914, 481.6704
1092.842, 495.8306
1094.771, 509.8313
1096.699, 522.8231
1098.627, 533.2787
1100.556, 540.7042
1102.484, 546.1309
1104.413, 550.1519
1106.341, 551.8315
1108.270, 549.9764
1110.198, 544.7416
1112.127, 537.6056
1114.055, 528.7018
1115.984, 517.8002
1117.912, 504.3757
1119.841, 488.8482
1121.769, 472.5526
1123.698, 454.7187
1125.626, 437.4133
1127.554, 420.8343
1129.483, 405.1068
1131.411, 390.6186
1133.340, 378.0765
1135.268, 365.0164
1137.197, 350.4014
1139.125, 336.0204
1141.054, 323.1257
1142.982, 311.5258
1144.911, 300.4270
1146.839, 289.6020
1148.768, 279.6371
1150.696, 271.0057
1152.625, 263.2709
1154.553, 255.5103
1156.481, 247.2377
1158.410, 239.9880
1160.338, 234.6131
1162.267, 229.6967
1164.195, 223.9112
1166.124, 217.0183
1168.052, 211.0815
1169.981, 206.7777
1171.909, 202.6354
1173.838, 197.8063
1175.766, 192.8195
1177.695, 188.7585
1179.623, 185.8357
1181.552, 183.4133
1183.480, 181.6363
1185.408, 180.0835
1187.337, 178.4071
1189.265, 176.5587
1191.194, 174.7412
1193.122, 172.5513
1195.051, 170.7578
1196.979, 169.8990
1198.908, 169.6652
1200.836, 169.0292
1202.765, 167.8842
1204.693, 166.6665
1206.622, 165.0646
1208.550, 163.7554
1210.479, 163.5050
1212.407, 164.2625
1214.335, 164.7769
1216.264, 165.0088
1218.192, 164.7855
1220.121, 163.6594
1222.049, 162.0847
1223.978, 161.3253
1225.906, 161.9484
1227.835, 162.3681
1229.763, 162.4069
1231.692, 162.2140
1233.620, 161.7720
1235.549, 161.0531
1237.477, 160.7594
1239.406, 161.3956
1241.334, 161.7694
1243.262, 161.4435
1245.191, 160.6365
1247.119, 159.3966
1249.048, 157.4874
1250.976, 156.8507
1252.905, 159.2422
1254.833, 161.5775
1256.762, 161.9294
1258.690, 160.4682
1260.619, 159.4835
1262.547, 159.0632
1264.476, 159.0164
1266.404, 159.7238
1268.333, 160.5665
1270.261, 160.8595
1272.189, 160.5119
1274.118, 160.0188
1276.046, 158.6706
1277.975, 157.9341
1279.903, 158.8059
1281.832, 160.5649
1283.760, 161.7743
1285.689, 162.3776
1287.617, 162.6065
1289.546, 162.4599
1291.474, 162.0401
1293.403, 161.1323
1295.331, 159.9147
1297.260, 159.7704
1299.188, 161.5784
1301.116, 163.0506
1303.045, 163.5702
1304.973, 163.5723
1306.902, 163.4002
1308.830, 162.9022
1310.759, 162.7848
1312.687, 163.3725
1314.616, 163.8948
1316.544, 164.0597
1318.473, 164.0188
1320.401, 164.0978
1322.330, 164.3732
1324.258, 164.4324
1326.187, 163.8114
1328.115, 163.4063
1330.043, 164.0728
1331.972, 165.3176
1333.900, 165.8218
1335.829, 165.2800
1337.757, 164.8229
1339.686, 164.6854
1341.614, 164.8058
1343.543, 165.3045
1345.471, 166.1806
1347.400, 166.6197
1349.328, 165.6208
1351.257, 165.5826
1353.185, 167.8129
1355.114, 170.5266
1357.042, 171.8686
1358.970, 171.6490
1360.899, 171.2813
1362.827, 170.4151
1364.756, 169.8727
1366.684, 170.0394
1368.613, 170.6234
1370.541, 171.4047
1372.470, 172.4412
1374.398, 172.7120
1376.327, 171.2985
1378.255, 170.2592
1380.184, 171.1075
1382.112, 172.7118
1384.041, 173.2201
1385.969, 172.3974
1387.897, 171.9441
1389.826, 172.3390
1391.754, 172.9383
1393.683, 173.5765
1395.611, 174.2074
1397.540, 174.7052
1399.468, 175.0959
1401.397, 175.3078
1403.325, 175.3573
1405.254, 175.2167
1407.182, 174.7035
1409.111, 173.9700
1411.039, 173.5270
1412.968, 173.2306
1414.896, 173.5115
1416.824, 175.0588
1418.753, 176.5520
1420.681, 177.1618
1422.610, 177.1281
1424.538, 177.1867
1426.467, 177.2387
1428.395, 177.7737
1430.324, 179.5216
1432.252, 181.1278
1434.181, 181.4643
1436.109, 181.0013
1438.038, 180.9331
1439.966, 181.3787
1441.895, 181.8060
1443.823, 182.4074
1445.751, 182.5873
1447.680, 181.5393
1449.608, 179.8111
1451.537, 179.4940
1453.465, 181.1266
1455.394, 182.6355
1457.322, 184.3268
1459.251, 185.1492
1461.179, 183.8587
1463.108, 181.2327
1465.036, 180.0209
1466.965, 181.0429
1468.893, 181.8634
1470.822, 182.6654
1472.750, 182.9396
1474.678, 182.1163
1476.607, 180.5933
1478.535, 179.3474
1480.464, 178.0839
1482.392, 177.9088
1484.321, 180.1534
1486.249, 182.0672
1488.178, 182.1431
1490.106, 181.1904
1492.035, 180.7122
1493.963, 180.7176
1495.892, 181.0423
1497.820, 181.9948
1499.749, 182.7809
1501.677, 182.9828
1503.605, 182.8276
1505.534, 182.4913
1507.462, 181.9728
1509.391, 181.8761
1511.319, 182.3518
1513.248, 183.0900
1515.176, 184.5451
1517.105, 185.7910
1519.033, 185.5931
1520.962, 184.1329
1522.890, 183.4867
1524.819, 183.8975
1526.747, 184.9197
1528.676, 187.4874
1530.604, 189.6888
1532.532, 189.7225
1534.461, 187.9265
1536.389, 187.3423
1538.318, 188.5816
1540.246, 189.5413
1542.175, 189.8206
1544.103, 189.8238
1546.032, 189.2283
1547.960, 188.5722
1549.889, 189.5317
1551.817, 193.2903
1553.746, 195.7266
1555.674, 195.7508
1557.603, 195.7094
1559.531, 196.7638
1561.459, 198.0309
1563.388, 197.9766
1565.316, 196.1951
1567.245, 195.6028
1569.173, 196.8772
1571.102, 198.3297
1573.030, 200.3706
1574.959, 201.9090
1576.887, 201.5177
1578.816, 199.5368
1580.744, 198.7383
1582.673, 199.6865
1584.601, 200.4018
1586.530, 200.0389
1588.458, 200.0052
1590.386, 201.9428
1592.315, 204.5268
1594.243, 204.4079
1596.172, 201.1861
1598.100, 199.6106
1600.029, 201.1317
1601.957, 202.7929
1603.886, 203.7232
1605.814, 204.1594
1607.743, 203.8356
1609.671, 203.0257
1611.600, 203.7756
1613.528, 206.7816
1615.457, 209.3131
1617.385, 210.6624
1619.313, 211.4162
1621.242, 211.3217
1623.170, 211.1273
1625.099, 212.4645
1627.027, 215.4580
1628.956, 217.9340
1630.884, 219.7045
1632.813, 220.7120
1634.741, 220.4806
1636.670, 219.8055
1638.598, 219.5231
1640.527, 219.4475
1642.455, 218.6628
1644.384, 216.8923
1646.312, 215.4350
1648.240, 214.6055
1650.169, 214.1403
1652.097, 214.3850
1654.026, 214.6450
1655.954, 213.6796
1657.883, 211.5208
1659.811, 209.7649
1661.740, 208.5607
1663.668, 207.8042
1665.597, 208.0655
1667.525, 208.1670
1669.454, 207.0384
1671.382, 205.2187
1673.311, 204.1218
1675.239, 203.8415
1677.167, 203.7151
1679.096, 203.6341
1681.024, 203.6656
1682.953, 204.0053
1684.881, 204.2794
1686.810, 204.0813
1688.738, 203.5029
1690.667, 202.9820
1692.595, 202.4823
1694.524, 202.4142
1696.452, 203.4027
1698.381, 204.0924
1700.309, 203.2488
1702.238, 202.1984
1704.166, 202.8390
1706.094, 204.9212
1708.023, 206.1200
1709.951, 206.2076
1711.880, 205.5985
1713.808, 203.6425
1715.737, 201.9349
1717.665, 201.1500
1719.594, 201.1572
1721.522, 202.3611
1723.451, 204.6119
1725.379, 204.7278
1727.308, 201.4285
1729.236, 199.3916
1731.165, 201.1165
1733.093, 202.8837
1735.021, 202.3040
1736.950, 200.6293
1738.879, 199.7750
1740.807, 199.7202
1742.735, 200.1521
1744.664, 201.2307
1746.592, 202.1382
1748.521, 202.7506
1750.449, 202.9363
1752.378, 202.0910
1754.306, 201.0288
1756.235, 201.2686
1758.163, 202.7197
1760.092, 203.6455
1762.020, 203.8214
1763.949, 203.7754
1765.877, 203.4182
1767.806, 203.1892
1769.734, 203.7887
1771.662, 204.4153
1773.591, 203.5019
1775.519, 201.3332
1777.448, 200.7485
1779.376, 202.5010
1781.305, 203.7569
1783.233, 203.5920
1785.162, 203.1011
1787.090, 202.5151
1789.019, 202.1661
1790.947, 202.8034
1792.876, 204.1375
1794.804, 204.3904
1796.733, 203.1531
1798.661, 202.3715
1800.589, 202.6576
1802.518, 203.0857
1804.446, 203.2677
1806.375, 203.3745
1808.303, 203.5544
1810.232, 203.8001
1812.160, 204.1818
1814.089, 204.8114
1816.017, 204.9368
1817.946, 203.9975
1819.874, 203.3397
1821.803, 203.1914
1823.731, 203.6512
1825.660, 205.2862
1827.588, 207.4735
1829.516, 208.8198
1831.445, 209.3049
1833.373, 208.9476
1835.302, 206.7546
1837.230, 205.2563
1839.159, 204.9435
1841.087, 205.1399
1843.016, 205.8406
1844.944, 206.6171
1846.873, 206.6685
1848.801, 206.0925
1850.730, 206.4797
1852.658, 209.3710
1854.587, 210.0849
1856.515, 206.3940
1858.443, 203.6210
1860.372, 203.7099
1862.300, 204.8024
1864.229, 205.6400
1866.157, 206.3074
1868.086, 207.0498
1870.014, 207.8964
1871.943, 208.4648
1873.871, 208.5657
1875.800, 208.7563
1877.728, 209.1740
1879.657, 209.6563
1881.585, 210.2599
1883.514, 210.8032
1885.442, 211.1023
1887.370, 211.1698
1889.299, 210.9777
1891.227, 210.4810
1893.156, 210.1741
1895.084, 210.1828
1897.013, 210.1982
1898.941, 210.2076
1900.870, 210.1095
1902.798, 209.7207
1904.727, 209.3009
1906.655, 209.0987
1908.584, 209.1582
1910.512, 209.8133
1912.441, 211.2619
1914.369, 212.1685
1916.297, 212.0764
1918.226, 211.8234
1920.154, 211.3093
1922.083, 211.0999
1924.011, 212.2183
1925.940, 213.6075
1927.868, 213.1396
1929.797, 210.8934
1931.725, 209.5476
1933.654, 209.0792
1935.582, 209.5406
1937.511, 212.1682
1939.439, 213.9078
1941.368, 213.2695
1943.296, 212.2874
1945.224, 212.3408
1947.153, 212.9955
1949.081, 213.4736
1951.010, 213.8076
1952.938, 214.7716
1954.867, 216.7887
1956.795, 217.5064
1958.724, 215.9428
1960.652, 214.4340
1962.581, 212.9630
1964.509, 212.6154
1966.438, 215.4438
1968.366, 218.8143
1970.295, 218.7332
1972.223, 216.1832
1974.151, 215.4173
1976.080, 216.7872
1978.008, 217.4187
1979.937, 216.8656
1981.865, 215.8846
1983.794, 213.7461
1985.722, 212.4227
1987.651, 213.4219
1989.579, 215.3031
1991.508, 216.6516
1993.436, 217.5327
1995.365, 218.1550
1997.293, 218.4375
1999.222, 218.8757
2001.150, 219.9399
2003.078, 220.3501
2005.007, 219.4346
2006.935, 218.7334
2008.864, 218.8277
2010.792, 219.1772
2012.721, 219.3168
2014.649, 219.4776
2016.578, 220.4059
2018.506, 221.8284
2020.435, 221.7985
2022.363, 220.1126
2024.292, 218.8580
2026.220, 218.3421
2028.149, 218.2136
2030.077, 218.2806
2032.005, 218.8153
2033.934, 220.9035
2035.862, 222.6179
2037.791, 221.1252
2039.719, 218.1451
2041.648, 218.0405
2043.576, 220.8364
2045.505, 222.4354
2047.433, 222.8278
2049.362, 222.0853
2051.290, 218.6642
2053.219, 216.5104
2055.147, 217.5925
2057.075, 218.6289
2059.004, 217.1070
2060.932, 215.5203
2062.861, 217.0290
2064.790, 220.3283
2066.718, 221.7864
2068.646, 221.5575
2070.575, 221.5256
2072.503, 221.7736
2074.432, 222.3430
2076.360, 223.6236
2078.289, 224.2389
2080.217, 223.2209
2082.146, 222.0974
2084.074, 221.7935
2086.003, 221.6156
2087.931, 220.4170
2089.860, 219.0346
2091.788, 219.7486
2093.717, 222.4397
2095.645, 223.3321
2097.573, 221.3948
2099.502, 220.8864
2101.430, 222.9784
2103.359, 224.2094
2105.287, 223.1798
2107.216, 222.3831
2109.144, 223.0180
2111.073, 223.9955
2113.001, 224.8762
2114.930, 225.3949
2116.858, 224.9672
2118.787, 223.8803
2120.715, 222.9687
2122.644, 222.2262
2124.572, 222.4801
2126.500, 224.7877
2128.429, 225.2551
2130.357, 221.4016
2132.286, 218.8694
2134.214, 219.7419
2136.143, 221.1661
2138.071, 222.0710
2140.000, 222.6059
2141.928, 222.5470
2143.857, 222.3958
2145.785, 223.3772
2147.714, 225.1537
2149.642, 226.1490
2151.571, 226.3109
2153.499, 225.2280
2155.427, 222.1536
2157.356, 221.0023
2159.284, 223.9697
2161.213, 226.2783
2163.141, 225.9769
2165.070, 225.2824
2166.998, 225.2322
2168.927, 225.4373
2170.855, 225.9026
2172.784, 226.2215
2174.712, 225.2791
2176.641, 223.4545
2178.569, 223.0899
2180.498, 224.2146
2182.426, 225.1006
2184.354, 225.6447
2186.283, 225.6689
2188.211, 224.7879
2190.140, 224.2238
2192.068, 224.5315
2193.997, 224.9520
2195.925, 225.3389
2197.854, 225.5620
2199.782, 225.5647
2201.711, 225.3514
2203.639, 224.4660
2205.568, 223.4810
2207.496, 224.4054
2209.425, 227.1358
2211.353, 227.7357
2213.281, 225.9376
2215.210, 225.5454
2217.138, 227.4254
2219.067, 228.0267
2220.995, 225.7979
2222.924, 224.3037
2224.852, 225.3910
2226.781, 226.6265
2228.709, 226.9812
2230.638, 226.9302
2232.566, 226.6356
2234.495, 226.2803
2236.423, 226.0690
2238.352, 225.9877
2240.280, 226.0926
2242.208, 226.3545
2244.137, 226.4673
2246.065, 226.4450
2247.994, 226.1278
2249.922, 225.3540
2251.851, 225.3234
2253.779, 226.7541
2255.708, 227.7234
2257.636, 226.9204
2259.565, 226.6926
2261.493, 228.5702
2263.422, 230.4714
2265.350, 231.2094
2267.279, 231.2653
2269.207, 230.3792
2271.135, 229.5751
2273.064, 231.6424
2274.992, 235.0156
2276.921, 234.1659
2278.849, 229.7161
2280.778, 227.0979
2282.706, 226.6429
2284.635, 227.1846
2286.563, 229.2316
2288.492, 230.7914
2290.420, 231.7693
2292.349, 232.1434
2294.277, 231.1991
2296.206, 230.6643
2298.134, 231.4768
2300.063, 232.3400
2301.991, 232.4517
2303.919, 232.4684
2305.848, 233.1517
2307.776, 233.8978
2309.705, 233.6003
2311.633, 232.8710
2313.562, 233.3917
2315.490, 234.8964
2317.419, 235.4266
2319.347, 234.7903
2321.276, 235.0050
2323.204, 236.2752
2325.133, 237.4078
2327.061, 238.5134
2328.990, 238.5437
2330.918, 236.0936
2332.846, 236.0135
2334.775, 243.3971
2336.703, 247.7158
2338.632, 242.3274
2340.560, 236.0679
2342.489, 233.3556
2344.417, 232.3750
2346.346, 232.1536
2348.274, 232.3534
2350.203, 232.5550
2352.131, 232.8843
2354.060, 234.1385
2355.988, 235.6141
2357.917, 234.6761
2359.845, 231.6895
2361.773, 230.6289
2363.702, 231.9785
2365.630, 232.0152
2367.559, 229.1942
2369.487, 229.3545
2371.416, 234.6235
2373.344, 236.8148
2375.273, 233.0359
2377.201, 231.1444
2379.130, 234.9005
2381.058, 237.3788
2382.987, 234.2633
2384.915, 231.2101
2386.844, 231.0876
2388.772, 231.9792
2390.700, 233.1586
2392.629, 234.0778
2394.557, 233.8328
2396.486, 233.2536
2398.414, 233.5263
2400.343, 234.2929
2402.271, 235.0391
2404.200, 235.6076
2406.128, 235.3245
2408.057, 234.3308
2409.985, 234.3117
2411.914, 235.4716
2413.842, 235.6115
2415.771, 234.1340
2417.699, 234.7560
2419.627, 238.4057
2421.556, 240.2085
2423.484, 238.9009
2425.413, 238.1899
2427.341, 239.5865
2429.270, 240.0613
2431.198, 237.3530
2433.127, 235.6611
2435.055, 237.1835
2436.984, 238.9237
2438.912, 239.3558
2440.841, 239.7735
2442.769, 241.5551
2444.698, 242.9125
2446.626, 241.7738
2448.554, 240.1695
2450.483, 240.7366
2452.411, 241.8908
2454.340, 241.0204
2456.268, 239.1302
2458.197, 238.2949
2460.125, 238.3405
2462.054, 238.7818
2463.982, 239.4751
2465.911, 239.6537
2467.839, 239.3318
2469.768, 239.0198
2471.696, 238.6715
2473.625, 238.9248
2475.553, 240.2157
2477.481, 240.5686
2479.410, 239.6838
2481.338, 238.9900
2483.267, 238.5805
2485.195, 238.5437
2487.124, 239.0140
2489.052, 239.4632
2490.981, 239.7288
2492.909, 239.9314
2494.838, 240.2356
2496.766, 240.2304
2498.695, 239.3414
2500.623, 238.7775
2502.552, 239.2478
2504.480, 239.8274
2506.408, 240.1313
2508.337, 240.2924
2510.265, 240.6436
2512.194, 240.5821
2514.122, 238.8021
2516.051, 237.1665
2517.979, 237.8849
2519.908, 239.6438
2521.836, 241.4827
2523.765, 242.7774
2525.693, 242.0040
2527.622, 240.3451
2529.550, 239.7402
2531.479, 240.0235
2533.407, 241.2240
2535.335, 242.8755
2537.264, 242.7272
2539.192, 241.1057
2541.121, 240.8377
2543.049, 241.6766
2544.978, 241.7386
2546.906, 241.0249
2548.835, 241.1860
2550.763, 242.4674
2552.692, 242.7730
2554.620, 241.7542
2556.549, 241.3769
2558.477, 241.8520
2560.406, 241.2335
2562.334, 238.9496
2564.262, 239.1782
2566.191, 243.9294
2568.119, 246.0791
2570.048, 242.4836
2571.976, 240.1617
2573.905, 239.7243
2575.833, 240.1248
2577.762, 241.5319
2579.690, 242.8449
2581.619, 244.0158
2583.547, 244.4811
2585.476, 243.3777
2587.404, 242.6622
2589.333, 242.9306
2591.261, 243.6519
2593.189, 245.6173
2595.118, 246.4372
2597.046, 244.2353
2598.975, 242.5081
2600.903, 243.4829
2602.832, 244.5920
2604.760, 244.3790
2606.689, 244.0182
2608.617, 244.2915
2610.546, 244.4650
2612.474, 243.7771
2614.403, 243.3345
2616.331, 244.5262
2618.260, 245.5328
2620.188, 244.7061
2622.116, 243.4099
2624.045, 241.9152
2625.973, 241.4727
2627.902, 244.7586
2629.830, 248.0412
2631.759, 246.9764
2633.687, 244.8884
2635.616, 245.5603
2637.544, 246.9143
2639.473, 246.4317
2641.401, 245.1397
2643.330, 244.0897
2645.258, 243.3906
2647.187, 243.0337
2649.115, 243.2877
2651.043, 245.2275
2652.972, 247.4718
2654.900, 247.3406
2656.829, 246.2345
2658.757, 246.8462
2660.686, 248.1861
2662.614, 248.7697
2664.543, 248.4209
2666.471, 245.7415
2668.400, 242.6467
2670.328, 243.7992
2672.257, 247.1270
2674.185, 247.4412
2676.114, 246.2188
2678.042, 247.8415
2679.970, 250.5352
2681.899, 249.7731
2683.827, 247.0804
2685.756, 245.8705
2687.684, 245.9113
2689.613, 246.9560
2691.541, 248.5329
2693.470, 249.1385
2695.398, 249.0969
2697.327, 249.4155
2699.255, 249.7437
2701.184, 248.6670
2703.112, 246.9451
2705.041, 247.2219
2706.969, 248.8538
2708.897, 250.0902
2710.826, 250.7667
2712.754, 250.1276
2714.683, 248.6403
2716.611, 247.2415
2718.540, 246.1617
2720.468, 246.2530
2722.397, 247.2086
2724.325, 248.3117
2726.254, 249.4053
2728.182, 250.1716
2730.111, 250.5907
2732.039, 250.1853
2733.968, 249.5563
2735.896, 250.6030
2737.824, 252.6563
2739.753, 254.3938
2741.681, 255.4664
2743.610, 254.6766
2745.538, 252.9967
2747.467, 252.5448
2749.395, 252.8747
2751.324, 253.0885
2753.252, 253.2907
2755.181, 253.9100
2757.109, 254.5337
2759.038, 254.3073
2760.966, 253.7010
2762.895, 253.3427
2764.823, 253.3009
2766.751, 254.0695
2768.680, 254.9050
2770.608, 254.7234
2772.537, 253.9635
2774.465, 252.6853
2776.394, 251.6949
2778.322, 252.2913
2780.251, 253.6027
2782.179, 255.0508
2784.108, 256.1021
2786.036, 256.1153
2787.965, 255.5658
2789.893, 254.8532
2791.822, 253.9550
2793.750, 252.2601
2795.678, 251.1121
2797.607, 251.4585
2799.535, 252.8569
2801.464, 256.4185
2803.392, 258.9425
2805.321, 257.1396
2807.249, 254.7321
2809.178, 253.3174
2811.106, 253.1237
2813.035, 255.6435
2814.963, 257.4838
2816.892, 256.0809
2818.820, 254.7999
2820.749, 255.4730
2822.677, 255.9974
2824.605, 255.1400
2826.534, 255.0896
2828.462, 258.0850
2830.391, 259.7037
2832.319, 257.5727
2834.248, 255.7950
2836.176, 254.9418
2838.105, 255.2007
2840.033, 257.4276
2841.962, 258.4678
2843.890, 256.0495
2845.819, 255.7408
2847.747, 258.9850
2849.676, 259.9273
2851.604, 257.3616
2853.532, 256.4696
2855.461, 258.4388
2857.389, 260.0485
2859.318, 261.2227
2861.246, 261.7752
2863.175, 261.7035
2865.103, 260.3967
2867.032, 257.8839
2868.960, 257.3929
2870.889, 258.8831
2872.817, 258.9868
2874.746, 258.0224
2876.674, 258.8546
2878.603, 260.7401
2880.531, 260.1486
2882.459, 258.3512
2884.388, 259.8559
2886.316, 263.0277
2888.245, 264.2239
2890.173, 263.9752
2892.102, 262.6837
2894.030, 261.1340
2895.959, 259.7816
2897.887, 259.4562
2899.816, 262.5580
2901.744, 265.4322
2903.673, 264.0794
2905.601, 262.3262
2907.530, 263.2696
2909.458, 264.5042
2911.386, 264.4348
2913.315, 264.4232
2915.243, 265.4730
2917.172, 265.9566
2919.100, 264.3387
2921.029, 263.5730
2922.957, 264.7813
2924.886, 266.5030
2926.814, 269.0137
2928.743, 269.8562
2930.671, 267.3674
2932.600, 266.7230
2934.528, 269.1809
2936.457, 270.7766
2938.385, 271.4012
2940.313, 270.6443
2942.242, 268.4594
2944.170, 267.6951
2946.099, 268.3999
2948.027, 271.2565
2949.956, 275.1979
2951.884, 273.3463
2953.813, 268.2935
2955.741, 268.1798
2957.670, 270.6555
2959.598, 270.8403
2961.527, 269.7845
2963.455, 268.6952
2965.384, 267.7523
2967.312, 267.2191
2969.240, 266.8703
2971.169, 266.4092
2973.097, 266.2941
2975.026, 267.2321
2976.954, 267.8232
2978.883, 267.4545
2980.811, 266.4191
2982.740, 263.5683
2984.668, 262.5809
2986.597, 264.7007
2988.525, 266.5956
2990.454, 267.8815
2992.382, 267.7910
2994.311, 265.8986
2996.239, 264.7815
2998.167, 264.5227
3000.096, 264.2612
3002.024, 264.0011
3003.953, 265.7767
3005.881, 268.8434
3007.810, 268.4442
3009.738, 265.9712
3011.667, 264.6051
3013.595, 264.1047
3015.524, 264.5070
3017.452, 265.0907
3019.381, 265.1131
3021.309, 264.7090
3023.238, 263.4802
3025.166, 262.5757
3027.094, 262.3108
3029.023, 263.2769
3030.951, 266.4911
3032.880, 268.7415
3034.808, 268.6971
3036.737, 268.3628
3038.665, 267.9493
3040.594, 267.6802
3042.522, 267.5523
3044.451, 267.8891
3046.379, 268.7523
3048.308, 268.8758
3050.236, 268.2844
3052.165, 267.1443
3054.093, 265.8582
3056.021, 265.8981
3057.950, 266.5724
3059.878, 266.6823
3061.807, 266.5282
3063.735, 265.8163
3065.664, 265.9421
3067.592, 269.4467
3069.521, 272.0258
3071.449, 269.7086
3073.378, 268.2869
3075.306, 270.0928
3077.235, 271.4833
3079.163, 271.3334
3081.092, 270.9047
3083.020, 270.3018
3084.948, 269.6094
3086.877, 268.8442
3088.805, 268.1154
3090.734, 267.5715
3092.662, 269.1613
3094.591, 272.0114
3096.519, 272.7930
3098.448, 272.3556
3100.376, 272.0098
3102.305, 271.5272
3104.233, 269.8796
3106.162, 269.1142
3108.090, 270.9398
3110.019, 273.3274
3111.947, 276.3278
3113.875, 277.6582
3115.804, 276.3437
3117.732, 274.5779
3119.661, 272.4234
3121.589, 271.3401
3123.518, 271.5553
3125.446, 272.4407
3127.375, 273.8289
3129.303, 274.1216
3131.232, 273.7000
3133.160, 273.4238
3135.089, 273.6135
3137.017, 275.3216
3138.946, 277.2249
3140.874, 278.7809
3142.802, 278.9889
3144.731, 275.3618
3146.659, 273.3810
3148.588, 275.2876
3150.516, 277.4892
3152.445, 279.6554
3154.373, 280.0443
3156.302, 278.2968
3158.230, 276.8027
3160.159, 275.8279
3162.087, 277.3906
3164.016, 280.5354
3165.944, 281.5416
3167.873, 281.4608
3169.801, 282.2480
3171.729, 282.9863
3173.658, 282.8291
3175.586, 282.1273
3177.515, 280.5162
3179.443, 279.6075
3181.372, 279.7662
3183.300, 281.3181
3185.229, 285.2087
3187.157, 286.8938
3189.086, 286.1143
3191.014, 286.5310
3192.943, 288.0731
3194.871, 288.3120
3196.800, 288.0961
3198.728, 290.2565
3200.656, 292.8487
3202.585, 293.8103
3204.513, 293.6385
3206.442, 291.6481
3208.370, 290.4288
3210.299, 291.2372
3212.227, 292.3793
3214.156, 293.3381
3216.084, 295.0922
3218.013, 297.7440
3219.941, 299.7778
3221.870, 301.1585
3223.798, 301.8635
3225.727, 302.4315
3227.655, 304.9129
3229.583, 307.5936
3231.512, 308.3354
3233.440, 308.4084
3235.369, 308.1534
3237.297, 308.6738
3239.226, 310.8545
3241.154, 312.9458
3243.083, 315.0027
3245.011, 315.1898
3246.940, 313.5112
3248.868, 314.4508
3250.797, 317.3745
3252.725, 318.4542
3254.654, 318.8248
3256.582, 321.1366
3258.510, 323.3811
3260.439, 323.0439
3262.367, 323.0202
3264.296, 325.1123
3266.224, 326.6658
3268.153, 326.6625
3270.081, 326.4126
3272.010, 325.8849
3273.938, 326.3474
3275.867, 327.7262
3277.795, 329.6572
3279.724, 331.4704
3281.652, 331.4771
3283.581, 330.5870
3285.509, 329.1963
3287.438, 328.2565
3289.366, 329.2096
3291.294, 328.9613
3293.223, 326.1989
3295.151, 325.3109
3297.080, 327.6920
3299.008, 327.6457
3300.937, 325.8978
3302.865, 328.0351
3304.794, 331.7522
3306.722, 332.3991
3308.651, 331.7646
3310.579, 330.5746
3312.508, 330.7257
3314.436, 335.1547
3316.365, 337.2437
3318.293, 335.3767
3320.221, 333.4966
3322.150, 332.0156
3324.078, 333.4938
3326.007, 337.1004
3327.935, 338.2704
3329.864, 338.6532
3331.792, 341.7299
3333.721, 343.7620
3335.649, 339.7222
3337.578, 337.4510
3339.506, 340.5211
3341.435, 343.7138
3343.363, 346.6881
3345.292, 346.6070
3347.220, 344.2141
3349.148, 345.9387
3351.077, 349.9165
3353.005, 351.3063
3354.934, 352.6862
3356.862, 357.4444
3358.791, 361.4791
3360.719, 362.0161
3362.648, 362.9888
3364.576, 365.3143
3366.505, 365.4659
3368.433, 363.1721
3370.362, 364.7057
3372.290, 368.9339
3374.219, 373.6274
3376.147, 377.9167
3378.075, 380.6992
3380.004, 382.7576
3381.933, 384.1036
3383.861, 385.8183
3385.790, 387.6103
3387.718, 392.5827
3389.646, 400.4329
3391.575, 404.6497
3393.503, 406.6628
3395.432, 411.1823
3397.360, 416.1037
3399.289, 418.2794
3401.217, 421.4511
3403.146, 429.4083
3405.074, 434.9815
3407.003, 436.5042
3408.931, 440.0898
3410.860, 446.1192
3412.788, 451.2763
3414.717, 456.5180
3416.645, 464.6523
3418.573, 472.8992
3420.502, 478.0065
3422.430, 482.9793
3424.359, 488.8799
3426.287, 494.9066
3428.216, 500.5494
3430.144, 509.2579
3432.073, 520.2651
3434.001, 528.6913
3435.930, 536.0075
3437.858, 544.0393
3439.787, 553.5097
3441.715, 566.5058
3443.644, 577.8098
3445.572, 585.2106
3447.500, 594.8793
3449.429, 607.4912
3451.357, 618.9197
3453.286, 629.9064
3455.214, 642.9656
3457.143, 657.2245
3459.071, 672.2152
3461.000, 687.2055
3462.928, 701.5021
3464.857, 717.2871
3466.785, 735.9781
3468.714, 749.5209
3470.642, 759.9025
3472.571, 781.3157
3474.499, 806.0961
3476.427, 821.3763
3478.356, 837.9124
3480.284, 862.2171
3482.213, 887.7570
3484.141, 913.9481
3486.070, 936.2308
3487.998, 955.6913
3489.927, 981.6172
3491.855, 1011.366
3493.784, 1039.180
3495.712, 1068.115
3497.641, 1098.018
3499.569, 1134.857
3501.498, 1183.274
3503.426, 1221.943
3505.354, 1250.009
3507.283, 1289.471
3509.211, 1337.384
3511.140, 1387.484
3513.068, 1439.669
3514.997, 1491.749
3516.925, 1551.964
3518.854, 1624.315
3520.782, 1693.057
3522.711, 1756.248
3524.639, 1828.257
3526.568, 1909.504
3528.496, 2000.813
3530.425, 2098.591
3532.353, 2202.067
3534.281, 2304.878
3536.210, 2403.257
3538.138, 2508.958
3540.067, 2622.803
3541.995, 2733.534
3543.924, 2843.327
3545.852, 2960.818
3547.781, 3075.350
3549.709, 3179.385
3551.638, 3277.753
3553.566, 3375.528
3555.495, 3458.268
3557.423, 3523.583
3559.352, 3561.262
3561.280, 3569.960
3563.208, 3545.375
3565.137, 3487.919
3567.065, 3398.469
3568.994, 3275.478
3570.922, 3117.420
3572.851, 2950.233
3574.779, 2776.973
3576.708, 2601.452
3578.636, 2432.924
3580.565, 2282.247
3582.493, 2146.285
3584.422, 2027.009
3586.350, 1916.599
3588.279, 1814.794
3590.207, 1727.521
3592.135, 1651.560
3594.064, 1576.321
3595.992, 1507.816
3597.921, 1451.682
3599.849, 1403.618
3601.778, 1363.020
3603.706, 1321.169
3605.635, 1277.419
3607.563, 1239.406
3609.492, 1205.217
3611.420, 1172.702
3613.349, 1140.690
3615.277, 1109.364
3617.206, 1076.641
3619.134, 1041.819
3621.063, 1008.920
3622.991, 978.6727
3624.919, 957.1935
3626.848, 935.9769
3628.776, 904.9760
3630.705, 875.0313
3632.633, 849.9324
3634.562, 821.5823
3636.490, 789.7888
3638.419, 762.6931
3640.347, 737.4708
3642.276, 709.3959
3644.204, 682.0253
3646.133, 656.8907
3648.061, 633.2522
3649.990, 611.2786
3651.918, 586.6125
3653.846, 561.7886
3655.775, 542.5363
3657.703, 525.8834
3659.632, 510.2098
3661.560, 494.3445
3663.489, 476.2123
3665.417, 466.5204
3667.346, 462.7770
3669.274, 455.5692
3671.203, 446.9028
3673.131, 437.4564
3675.060, 430.5023
3676.988, 428.4828
3678.917, 424.2624
3680.845, 417.9412
3682.773, 412.1848
3684.702, 407.0911
3686.630, 403.6478
3688.559, 399.2474
3690.487, 391.9829
3692.416, 386.9953
3694.344, 384.3892
3696.273, 378.7208
3698.201, 372.5658
3700.130, 371.5524
3702.058, 369.4905
3703.987, 362.4799
3705.915, 356.9595
3707.844, 353.6060
3709.772, 349.2584
3711.700, 344.8197
3713.629, 342.2972
3715.557, 340.1082
3717.486, 337.7134
3719.414, 334.0357
3721.343, 328.8162
3723.271, 327.6965
3725.200, 328.4516
3727.128, 326.3114
3729.057, 324.0602
3730.985, 323.5713
3732.914, 322.3243
3734.842, 319.9292
3736.771, 317.5370
3738.699, 315.5199
3740.627, 314.7820
3742.556, 314.3001
3744.484, 313.6455
3746.413, 312.4097
3748.341, 310.4907
3750.270, 308.1932
3752.198, 306.5294
3754.127, 308.9932
3756.055, 310.0898
3757.984, 306.1818
3759.912, 304.0554
3761.841, 304.6502
3763.769, 302.5652
3765.698, 299.7233
3767.626, 299.1647
3769.554, 299.9078
3771.483, 302.3111
3773.411, 302.0375
3775.340, 298.8842
3777.268, 295.0596
3779.197, 292.0934
3781.125, 293.3423
3783.054, 293.9149
3784.982, 291.6286
3786.911, 290.2181
3788.839, 290.0190
3790.768, 293.0647
3792.696, 295.6646
3794.625, 291.9654
3796.553, 290.2625
3798.481, 293.7445
3800.410, 291.2840
3802.338, 285.1026
3804.267, 287.4850
3806.195, 291.7616
3808.124, 292.9015
3810.052, 292.8960
3811.981, 291.9631
3813.909, 289.7923
3815.838, 287.5269
3817.766, 288.1971
3819.695, 289.3069
3821.623, 289.5467
3823.552, 289.3002
3825.480, 288.6902
3827.408, 290.3253
3829.337, 291.9818
3831.265, 290.3530
3833.194, 288.2782
3835.122, 286.4048
3837.051, 287.0633
3838.979, 289.8866
3840.908, 293.8834
3842.836, 295.9166
3844.765, 291.2683
3846.693, 288.3348
3848.622, 288.5456
3850.550, 289.1993
3852.479, 290.1536
3854.407, 291.8451
3856.335, 293.3387
3858.264, 294.7304
3860.192, 293.5557
3862.121, 290.3428
3864.049, 290.1926
3865.978, 291.1612
3867.906, 290.8577
3869.835, 291.3805
3871.763, 293.6395
3873.692, 294.6019
3875.620, 294.5188
3877.549, 293.0959
3879.477, 292.7881
3881.406, 295.6022
3883.334, 298.2192
3885.262, 300.1651
3887.191, 298.5269
3889.119, 296.2583
3891.048, 296.5913
3892.976, 297.1208
3894.905, 297.5068
3896.833, 298.7155
3898.762, 300.1958
3900.690, 300.8835
3902.619, 301.8703
3904.547, 303.1472
3906.476, 303.9373
3908.404, 304.9453
3910.333, 303.8813
3912.261, 302.7688
3914.189, 304.8574
3916.118, 307.3911
3918.046, 309.6429
3919.975, 309.0464
3921.903, 307.3807
3923.832, 308.1923
3925.760, 309.3343
3927.689, 308.3547
3929.617, 311.0152
3931.546, 315.8796
3933.474, 316.1356
3935.403, 315.0406
3937.331, 312.5032
3939.260, 311.6343
3941.188, 311.9696
3943.116, 314.6441
3945.045, 318.4746
3946.973, 316.5878
3948.902, 314.8195
3950.830, 316.9290
3952.759, 315.1398
3954.687, 312.4005
3956.616, 313.1021
3958.544, 314.4502
3960.473, 315.6863
3962.401, 317.1573
3964.330, 318.3885
3966.258, 315.4702
3968.187, 312.1548
3970.115, 313.6459
3972.043, 314.5509
3973.972, 314.0768
3975.900, 312.1467
3977.829, 309.6466
3979.757, 309.4005
3981.686, 310.3585
3983.614, 311.3580
3985.543, 312.7148
3987.471, 313.3021
3989.400, 311.6805
3991.328, 309.9304
3993.257, 307.0459
3995.185, 306.3512
3997.114, 308.7816
3999.042, 308.7228
4000.970, 306.0780
4002.899, 305.5558
4004.827, 308.3668
4006.756, 309.0163
4008.684, 304.2347
4010.613, 302.4673
4012.541, 305.9817
4014.470, 307.2436
4016.398, 305.9178
4018.327, 304.5180
4020.255, 302.5479
4022.184, 302.5635
4024.112, 303.8748
4026.041, 303.5969
4027.969, 301.4477
4029.897, 299.6498
4031.826, 299.4075
4033.754, 300.5795
4035.683, 302.1187
4037.611, 300.0399
4039.540, 297.5045
4041.468, 298.0309
4043.397, 298.3249
4045.325, 297.2358
4047.254, 295.5425
4049.182, 295.5636
4051.111, 295.3506
4053.039, 296.0629
4054.968, 298.8107
4056.896, 297.8275
4058.824, 295.8809
4060.753, 295.5654
4062.681, 294.4580
4064.610, 292.7674
4066.538, 291.4258
4068.467, 291.3622
4070.395, 293.6613
4072.324, 292.0748
4074.252, 288.0162
4076.181, 287.7807
4078.109, 289.1960
4080.038, 290.8794
4081.966, 290.1413
4083.895, 287.5340
4085.823, 289.8902
4087.751, 292.1906
4089.680, 291.7462
4091.608, 290.6838
4093.537, 288.6613
4095.465, 288.2586
4097.394, 289.2285
4099.322, 290.5871
4101.251, 289.8832
4103.179, 287.4940
4105.108, 286.8821
4107.036, 286.6669
4108.965, 285.8105
4110.893, 286.1617
4112.822, 287.2901
4114.750, 286.7154
4116.679, 285.5756
4118.607, 284.2408
4120.536, 284.9984
4122.464, 287.5287
4124.393, 284.9749
4126.321, 282.1787
4128.250, 284.6024
4130.178, 284.3567
4132.106, 281.4297
4134.035, 281.6355
4135.963, 282.6240
4137.892, 282.7393
4139.820, 282.3342
4141.749, 281.6161
4143.677, 281.9321
4145.605, 282.8585
4147.534, 284.5389
4149.462, 282.6600
4151.391, 277.9019
4153.319, 280.4084
4155.248, 282.9552
4157.176, 278.3233
4159.105, 277.1968
4161.033, 279.6625
4162.962, 278.9084
4164.890, 277.3636
4166.819, 276.5162
4168.747, 276.1891
4170.676, 276.2606
4172.604, 276.1761
4174.533, 276.2669
4176.461, 277.2136
4178.390, 276.3382
4180.318, 274.6002
4182.247, 275.4447
4184.175, 276.2991
4186.104, 275.8188
4188.032, 275.4664
4189.960, 275.0096
4191.889, 273.2821
4193.817, 272.5332
4195.746, 273.7329
4197.674, 273.1094
4199.603, 271.7283
4201.531, 273.7025
4203.459, 273.3709
4205.388, 268.7611
4207.316, 267.0113
4209.245, 267.5200
4211.173, 270.8889
4213.102, 272.1485
4215.030, 269.6279
4216.959, 269.0453
4218.887, 270.1510
4220.816, 273.8035
4222.744, 274.2719
4224.673, 270.2318
4226.601, 267.9894
4228.530, 267.1251
4230.458, 267.1943
4232.387, 269.0616
4234.315, 272.4778
4236.244, 271.8546
4238.172, 270.3723
4240.101, 270.3990
4242.029, 269.4952
4243.958, 268.1317
4245.886, 270.2703
4247.814, 271.4400
4249.743, 268.3295
4251.671, 268.8379
4253.600, 271.3958
4255.528, 272.1365
4257.457, 271.4896
4259.385, 269.0278
4261.313, 268.5111
4263.242, 269.3132
4265.170, 271.9728
4267.099, 271.7513
4269.027, 267.7075
4270.956, 264.3714
4272.884, 263.1754
4274.813, 267.3966
4276.741, 269.0814
4278.670, 267.9721
4280.598, 266.2287
4282.527, 265.5255
4284.455, 268.1540
4286.384, 266.0120
4288.312, 262.0981
4290.241, 264.9719
4292.169, 268.3644
4294.098, 270.4448
4296.026, 269.6147
4297.955, 267.8297
4299.883, 268.2587
4301.812, 266.7036
4303.740, 262.9688
4305.668, 264.3374
4307.597, 265.8349
4309.525, 262.9831
4311.454, 262.5704
4313.382, 264.2548
4315.311, 266.0275
4317.239, 266.9780
4319.167, 266.4846
4321.096, 268.0534
4323.024, 269.0295
4324.953, 263.9113
4326.881, 261.6290
4328.810, 263.6350
4330.738, 265.9300
4332.667, 266.5253
4334.595, 263.0842
4336.524, 263.2847
4338.452, 265.2847
4340.381, 259.9283
4342.309, 257.5157
4344.238, 261.6341
4346.166, 262.1627
4348.095, 261.4769
4350.023, 262.9205
4351.952, 264.1573
4353.880, 264.5075
4355.809, 260.7798
4357.737, 258.4704
4359.666, 260.7049
4361.594, 263.4744
4363.522, 265.7305
4365.451, 266.5515
4367.379, 265.2133
4369.308, 262.0119
4371.236, 261.5440
4373.165, 262.0782
4375.093, 262.0338
4377.021, 261.9990
4378.950, 262.3649
4380.878, 265.2755
4382.807, 265.7818
4384.735, 261.5607
4386.664, 261.0794
4388.592, 261.9557
4390.521, 261.1625
4392.449, 260.5904
4394.378, 260.4012
4396.306, 261.0025
4398.235, 259.9602
4400.163, 254.8307
4402.092, 255.9707
4404.020, 259.6435
4405.949, 260.8059
4407.877, 260.7354
4409.806, 259.7875
4411.734, 257.4701
4413.663, 257.7775
4415.591, 263.3504
4417.520, 263.0453
4419.448, 259.5996
4421.376, 257.5671
4423.305, 256.5429
4425.233, 256.3376
4427.162, 256.6376
4429.090, 257.3309
4431.019, 258.6058
4432.947, 257.4019
4434.875, 255.9506
4436.804, 259.4238
4438.732, 259.0614
4440.661, 254.5602
4442.589, 258.0607
4444.518, 261.1674
4446.446, 258.1280
4448.375, 256.6287
4450.303, 255.5267
4452.232, 251.7241
4454.160, 251.4623
4456.089, 255.0638
4458.017, 258.9161
4459.946, 260.2050
4461.874, 257.5295
4463.803, 257.8403
4465.731, 258.7862
4467.660, 256.1544
4469.588, 255.9332
4471.517, 257.5841
4473.445, 256.6357
4475.374, 254.2299
4477.302, 250.4978
4479.230, 252.0027
4481.159, 254.1465
4483.087, 250.9997
4485.016, 250.4482
4486.944, 251.8627
4488.873, 251.7858
4490.801, 251.4782
4492.729, 251.2837
4494.658, 252.3191
4496.586, 252.4146
4498.515, 249.8301
4500.443, 249.2690
4502.372, 250.0827
4504.300, 250.9787
4506.229, 251.1902
4508.157, 250.7094
4510.086, 249.9913
4512.014, 249.7410
4513.943, 250.5329
4515.871, 250.5668
4517.800, 250.6036
4519.728, 251.7597
4521.657, 251.5435
4523.585, 250.1646
4525.514, 247.7367
4527.442, 248.1469
4529.371, 251.3760
4531.299, 250.2443
4533.228, 248.5857
4535.156, 248.8609
4537.084, 249.1659
4539.013, 249.3966
4540.941, 249.5160
4542.870, 249.4723
4544.798, 249.5616
4546.727, 251.6470
4548.655, 252.0275
4550.583, 249.8234
4552.512, 248.8056
4554.440, 248.5817
4556.369, 248.9163
4558.297, 249.0037
4560.226, 249.2639
4562.154, 251.0555
4564.083, 250.4861
4566.011, 248.2973
4567.940, 249.0472
4569.868, 249.7119
4571.797, 249.3927
4573.725, 248.1298
4575.654, 247.5690
4577.582, 248.7760
4579.511, 248.5569
4581.439, 246.8682
4583.368, 242.3926
4585.296, 242.8177
4587.225, 246.3456
4589.153, 245.9820
4591.082, 245.5063
4593.010, 245.6812
4594.938, 244.0592
4596.867, 242.2492
4598.795, 240.9554
4600.724, 243.2496
4602.652, 245.5396
4604.581, 244.3016
4606.509, 243.2741
4608.438, 242.3411
4610.366, 239.7233
4612.294, 240.6531
4614.223, 244.4301
4616.151, 245.2689
4618.080, 243.4087
4620.008, 239.6013
4621.937, 240.6000
4623.865, 242.7896
4625.794, 244.0711
4627.722, 245.6420
4629.651, 246.4969
4631.579, 244.9454
4633.508, 244.6768
4635.436, 244.5335
4637.365, 240.8006
4639.293, 240.8511
4641.222, 243.9053
4643.150, 243.6154
4645.079, 241.4500
4647.007, 238.3538
4648.936, 242.0147
4650.864, 245.0365
4652.792, 243.3973
4654.721, 240.8986
4656.649, 239.3875
4658.578, 240.5426
4660.506, 239.9767
4662.435, 238.8837
4664.363, 239.9445
4666.292, 238.9392
4668.220, 237.1217
4670.148, 239.8682
4672.077, 241.3641
4674.005, 240.8404
4675.934, 240.2291
4677.862, 240.6021
4679.791, 242.0183
4681.719, 240.6375
4683.648, 239.5524
4685.576, 241.0907
4687.505, 239.0149
4689.433, 236.7660
4691.362, 237.2399
4693.290, 236.7733
4695.219, 236.4897
4697.147, 239.0997
4699.076, 238.8378
4701.004, 236.8392
4702.933, 236.5090
4704.861, 236.5673
4706.790, 236.4196
4708.718, 233.1869
4710.646, 234.6212
4712.575, 240.7065
4714.503, 240.2664
4716.432, 238.2326
4718.360, 236.5594
4720.289, 235.4807
4722.217, 234.9966
4724.146, 235.0878
4726.074, 233.2440
4728.002, 231.6469
4729.931, 232.4283
4731.859, 233.4301
4733.788, 234.3022
4735.716, 234.9287
4737.645, 232.6226
4739.573, 230.4620
4741.502, 234.8209
4743.430, 234.9042
4745.359, 232.1287
4747.287, 232.4539
4749.216, 232.5672
4751.144, 231.9362
4753.073, 229.5765
4755.001, 229.9305
4756.930, 232.6371
4758.858, 231.4543
4760.787, 230.9031
4762.715, 232.0480
4764.644, 229.7797
4766.572, 227.8944
4768.500, 227.7520
4770.429, 229.6857
4772.357, 230.5540
4774.286, 228.2234
4776.214, 229.6359
4778.143, 231.8163
4780.071, 233.0470
4782.000, 231.4834
4783.928, 229.3457
4785.856, 228.3431
4787.785, 228.4866
4789.713, 228.8044
4791.642, 228.3658
4793.570, 227.8203
4795.499, 227.4110
4797.427, 226.9446
4799.356, 229.6359
4801.284, 231.1104
4803.213, 222.6729
4805.141, 223.8966
4807.070, 229.5789
4808.998, 227.4188
4810.927, 226.7057
4812.855, 227.6641
4814.784, 229.1416
4816.712, 226.9939
4818.641, 223.5422
4820.569, 226.6739
4822.498, 227.5471
4824.426, 225.9176
4826.354, 225.0503
4828.283, 226.0014
4830.211, 227.7209
4832.140, 225.6235
4834.068, 223.7011
4835.997, 222.9942
4837.925, 224.6732
4839.854, 224.7636
4841.782, 223.1787
4843.710, 224.0580
4845.639, 224.6678
4847.567, 224.3605
4849.496, 222.9776
4851.424, 223.5049
4853.353, 225.8237
4855.281, 223.9372
4857.210, 221.7207
4859.138, 220.6273
4861.067, 223.3537
4862.995, 222.7891
4864.924, 218.2647
4866.852, 220.0406
4868.781, 222.0474
4870.709, 222.4176
4872.638, 222.0546
4874.566, 221.0990
4876.495, 219.9809
4878.423, 221.6450
4880.352, 222.7034
4882.280, 222.3602
4884.208, 222.8002
4886.137, 223.3713
4888.065, 223.7312
4889.994, 222.9270
4891.922, 222.2840
4893.851, 221.9049
4895.779, 219.1691
4897.708, 217.5998
4899.636, 217.8535
4901.564, 218.9225
4903.493, 219.7187
4905.421, 219.7032
4907.350, 217.1499
4909.278, 215.4832
4911.207, 215.4474
4913.135, 217.8210
4915.064, 217.5271
4916.992, 214.6978
4918.921, 213.7005
4920.849, 214.7038
4922.778, 216.4859
4924.706, 215.0538
4926.635, 215.9486
4928.563, 218.3941
4930.492, 217.5488
4932.420, 215.9220
4934.349, 214.4945
4936.277, 214.7228
4938.206, 214.1407
4940.134, 212.9072
4942.063, 211.5783
4943.991, 211.1068
4945.919, 211.8514
4947.848, 214.6092
4949.776, 216.6949
4951.705, 217.2102
4953.633, 214.5594
4955.562, 213.6580
4957.490, 213.9837
4959.418, 214.7855
4961.347, 214.3613
4963.275, 213.6488
4965.204, 213.8285
4967.132, 212.8376
4969.061, 211.6984
4970.989, 211.1259
4972.918, 210.8977
4974.846, 210.9866
4976.775, 211.3801
4978.703, 208.4037
4980.632, 206.3215
4982.560, 207.1092
4984.489, 210.8082
4986.417, 212.2649
4988.346, 210.5788
4990.274, 211.3631
4992.203, 211.8920
4994.131, 211.1237
4996.060, 207.1498
4997.988, 206.0312
4999.917, 207.5126
5001.845, 207.6082
5003.773, 208.2433
5005.702, 209.0614
5007.630, 208.7007
5009.559, 208.1273
5011.487, 207.7368
5013.416, 208.1930
5015.344, 205.3543
5017.272, 203.0959
5019.201, 206.9980
5021.129, 205.7865
5023.058, 204.5435
5024.986, 206.7165
5026.915, 207.7412
5028.843, 207.2104
5030.772, 205.1747
5032.700, 206.7105
5034.629, 206.3292
5036.557, 203.2163
5038.486, 205.3971
5040.414, 206.6181
5042.343, 205.8819
5044.271, 204.5957
5046.200, 202.7592
5048.128, 201.1896
5050.057, 201.2787
5051.985, 203.9733
5053.914, 205.6231
5055.842, 200.6320
5057.771, 202.4323
5059.699, 205.6700
5061.627, 205.5738
5063.556, 202.3061
5065.484, 200.1938
5067.413, 201.1934
5069.341, 203.3409
5071.270, 203.9458
5073.198, 202.8385
5075.126, 205.4387
5077.055, 205.9681
5078.983, 203.7770
5080.912, 199.8719
5082.840, 198.4895
5084.769, 199.0285
5086.697, 199.7372
5088.626, 202.8154
5090.554, 204.0849
5092.483, 199.7173
5094.411, 199.7725
5096.340, 200.2358
5098.268, 198.9449
5100.197, 200.2047
5102.125, 200.3540
5104.054, 198.8106
5105.982, 199.2548
5107.911, 199.4570
5109.839, 199.4203
5111.768, 200.7193
5113.696, 198.8508
5115.625, 196.4065
5117.553, 197.1329
5119.481, 197.8027
5121.410, 198.2450
5123.338, 198.3694
5125.267, 196.7404
5127.195, 196.6311
5129.124, 198.8317
5131.052, 200.8269
5132.980, 201.1511
5134.909, 199.7975
5136.837, 196.8427
5138.766, 197.2257
5140.694, 198.9719
5142.623, 199.2504
5144.551, 197.0993
5146.480, 195.4563
5148.408, 196.2051
5150.337, 198.7520
5152.265, 197.8323
5154.194, 193.7641
5156.122, 195.1597
5158.051, 195.2237
5159.979, 194.2063
5161.908, 195.1698
5163.836, 195.6553
5165.765, 195.4422
5167.693, 194.5384
5169.622, 196.5001
5171.550, 197.9255
5173.479, 197.2847
5175.407, 196.0785
5177.335, 195.0122
5179.264, 194.1911
5181.192, 193.0553
5183.121, 194.7169
5185.049, 196.0759
5186.978, 193.0592
5188.906, 194.9191
5190.834, 195.9192
5192.763, 192.7055
5194.691, 192.2840
5196.620, 191.5581
5198.548, 190.2311
5200.477, 189.7587
5202.405, 191.3311
5204.334, 192.8174
5206.262, 191.4162
5208.191, 188.6516
5210.119, 187.6429
5212.048, 189.6796
5213.976, 185.8368
5215.905, 186.1942
5217.833, 190.6587
5219.762, 193.3559
5221.690, 191.2096
5223.619, 187.3280
5225.547, 184.6947
5227.476, 187.0258
5229.404, 189.9092
5231.333, 190.8853
5233.261, 187.0882
5235.189, 187.3821
5237.118, 190.5823
5239.046, 190.0226
5240.975, 188.8920
5242.903, 187.9701
5244.832, 187.6431
5246.760, 186.0930
5248.688, 186.0244
5250.617, 187.3221
5252.545, 185.0912
5254.474, 184.6529
5256.402, 185.6666
5258.331, 187.1112
5260.259, 184.1998
5262.188, 182.2347
5264.116, 183.8813
5266.045, 185.4369
5267.973, 184.9043
5269.902, 183.3541
5271.830, 184.1127
5273.759, 185.4923
5275.687, 186.1931
5277.616, 185.2251
5279.544, 185.4011
5281.473, 184.5765
5283.401, 182.7209
5285.330, 181.7326
5287.258, 183.3326
5289.187, 184.8218
5291.115, 182.4578
5293.043, 181.8557
5294.972, 181.2324
5296.900, 180.2381
5298.829, 182.0653
5300.757, 181.3968
5302.686, 179.7735
5304.614, 180.8550
5306.542, 180.3055
5308.471, 179.1246
5310.399, 178.1691
5312.328, 179.0645
5314.256, 180.6231
5316.185, 181.5507
5318.113, 180.2753
5320.042, 176.9853
5321.970, 174.7290
5323.899, 175.1724
5325.827, 177.7603
5327.756, 177.6201
5329.684, 176.0746
5331.613, 177.8874
5333.541, 177.3665
5335.470, 177.7814
5337.398, 180.5003
5339.327, 177.8245
5341.255, 176.7741
5343.184, 177.5487
5345.112, 177.6923
5347.041, 175.0302
5348.969, 174.8568
5350.897, 179.1629
5352.826, 174.7202
5354.754, 173.4721
5356.683, 174.7575
5358.611, 173.4358
5360.540, 171.1684
5362.468, 171.1364
5364.397, 174.1476
5366.325, 172.7656
5368.254, 172.3127
5370.182, 172.3586
5372.111, 170.8083
5374.039, 172.1494
5375.968, 173.5313
5377.896, 173.4784
5379.825, 171.6342
5381.753, 171.7434
5383.682, 171.8008
5385.610, 168.5774
5387.539, 169.1903
5389.467, 169.9162
5391.396, 169.6799
5393.324, 169.3108
5395.252, 168.8566
5397.181, 168.4741
5399.109, 168.3318
5401.038, 170.1386
5402.966, 170.2992
5404.895, 169.2447
5406.823, 169.8851
5408.751, 169.1511
5410.680, 168.7519
5412.608, 169.1018
5414.537, 165.8246
5416.465, 165.4685
5418.394, 166.6608
5420.322, 166.6785
5422.251, 164.1114
5424.179, 165.0882
5426.108, 169.7502
5428.036, 172.2841
5429.965, 171.5473
5431.893, 169.6776
5433.822, 168.2666
5435.750, 165.9542
5437.679, 167.4308
5439.607, 169.9268
5441.536, 167.5089
5443.464, 165.8501
5445.393, 165.1593
5447.321, 165.0146
5449.250, 163.4101
5451.178, 166.2161
5453.106, 167.7067
5455.035, 163.8809
5456.963, 165.4982
5458.892, 165.8407
5460.820, 164.6033
5462.749, 163.9573
5464.677, 163.2240
5466.605, 163.3658
5468.534, 163.8192
5470.462, 160.3068
5472.391, 163.8206
5474.319, 166.2673
5476.248, 162.0602
5478.176, 160.0894
5480.105, 161.0518
5482.033, 161.8316
5483.962, 158.0117
5485.890, 162.2940
5487.819, 164.0727
5489.747, 161.9717
5491.676, 162.6705
5493.604, 161.0072
5495.533, 159.6400
5497.461, 159.9508
5499.390, 160.1454
5501.318, 160.0733
5503.247, 160.0501
5505.175, 160.3625
5507.104, 161.6187
5509.032, 159.5158
5510.960, 156.8564
5512.889, 160.0996
5514.817, 157.8580
5516.746, 155.9079
5518.674, 156.5749
5520.603, 160.3833
5522.531, 158.6477
5524.459, 157.4111
5526.388, 158.9389
5528.316, 155.3885
5530.245, 156.4223
5532.173, 157.2844
5534.102, 153.7515
5536.030, 155.9657
5537.959, 157.8505
5539.887, 157.4695
5541.816, 154.4225
5543.744, 154.9146
5545.673, 158.0141
5547.601, 160.2900
5549.530, 157.0320
5551.458, 155.0619
5553.387, 154.9466
5555.315, 155.1592
5557.244, 150.6745
5559.172, 151.0365
5561.101, 153.5125
5563.029, 155.2679
5564.958, 151.6698
5566.886, 150.2347
5568.814, 151.6580
5570.743, 154.7025
5572.671, 154.2749
5574.600, 154.1093
5576.528, 154.3096
5578.457, 154.3169
5580.385, 151.8568
5582.313, 151.6957
5584.242, 152.5140
5586.170, 151.9165
5588.099, 148.3315
5590.027, 149.6730
5591.956, 152.0150
5593.884, 148.2821
5595.813, 152.2583
5597.741, 152.4672
5599.670, 149.7866
5601.598, 150.7598
5603.527, 151.1651
5605.455, 151.5709
5607.384, 151.6962
5609.312, 150.1618
5611.241, 149.2878
5613.169, 148.3671
5615.098, 148.1640
5617.026, 151.4551
5618.955, 150.8571
5620.883, 148.5893
5622.812, 147.2523
5624.740, 150.1593
5626.668, 148.3262
5628.597, 147.4809
5630.525, 148.9728
5632.454, 147.7191
5634.382, 147.0537
5636.311, 146.1789
5638.239, 145.1148
5640.167, 146.1300
5642.096, 143.8219
5644.024, 143.2402
5645.953, 145.0852
5647.881, 142.9214
5649.810, 145.4644
5651.738, 146.3480
5653.667, 144.0954
5655.595, 145.8288
5657.524, 143.3137
5659.452, 142.0647
5661.381, 143.5711
5663.309, 141.9554
5665.238, 141.8867
5667.166, 141.4931
5669.095, 140.7478
5671.023, 143.3432
5672.952, 145.0386
5674.880, 143.9889
5676.809, 141.4083
5678.737, 141.7782
5680.666, 142.8885
5682.594, 142.8534
5684.522, 141.4668
5686.451, 139.6971
5688.379, 140.3682
5690.308, 139.6981
5692.236, 138.0587
5694.165, 139.3506
5696.093, 141.8917
5698.021, 140.1966
5699.950, 136.2527
5701.878, 136.9517
5703.807, 137.1174
5705.735, 138.9646
5707.664, 140.2502
5709.592, 137.1339
5711.521, 133.7574
5713.449, 134.4778
5715.378, 136.4073
5717.306, 135.5833
5719.235, 134.7506
5721.163, 137.1050
5723.092, 138.4479
5725.020, 135.5662
5726.949, 136.2076
5728.877, 137.5399
5730.806, 137.7871
5732.734, 136.5574
5734.663, 136.6644
5736.591, 137.1011
5738.520, 136.4955
5740.448, 134.9369
5742.376, 135.1720
5744.305, 132.3854
5746.233, 132.3110
5748.162, 134.2590
5750.090, 131.4056
5752.019, 133.2347
5753.947, 135.8415
5755.875, 136.1652
5757.804, 132.6564
5759.732, 132.4335
5761.661, 133.0005
5763.589, 132.6475
5765.518, 130.7597
5767.446, 131.2182
5769.375, 131.4432
5771.303, 131.8414
5773.232, 132.7080
5775.160, 132.2964
5777.089, 129.4429
5779.017, 128.1013
5780.946, 129.3415
5782.874, 130.9008
5784.803, 130.0334
5786.731, 129.0478
5788.660, 128.9686
5790.588, 129.7961
5792.517, 128.6348
5794.445, 129.2196
5796.374, 130.4727
5798.302, 130.5180
5800.230, 129.1412
5802.159, 129.4478
5804.087, 130.0511
5806.016, 129.5512
5807.944, 126.3884
5809.873, 127.5454
5811.801, 125.9574
5813.729, 122.5855
5815.658, 125.6031
5817.586, 127.2486
5819.515, 125.9120
5821.443, 124.2683
5823.372, 125.2400
5825.300, 126.6590
5827.229, 127.4992
5829.157, 127.6161
5831.086, 127.1986
5833.014, 126.8042
5834.943, 122.6343
5836.871, 122.9898
5838.800, 125.3529
5840.728, 122.4237
5842.657, 122.2439
5844.585, 122.0952
5846.514, 122.3698
5848.442, 123.7398
5850.371, 125.7532
5852.299, 125.4088
5854.228, 123.9241
5856.156, 122.8134
5858.084, 124.0609
5860.013, 121.0757
5861.941, 121.6182
5863.870, 122.8540
5865.798, 120.6353
5867.727, 121.8164
5869.655, 121.2559
5871.583, 121.9551
5873.512, 124.0877
5875.440, 123.8088
5877.369, 122.0021
5879.297, 121.0941
5881.226, 121.5261
5883.154, 122.6273
5885.083, 121.7256
5887.011, 119.6045
5888.940, 119.8692
5890.868, 121.3420
5892.797, 117.9209
5894.725, 121.0312
5896.654, 119.8713
5898.582, 118.3634
5900.511, 121.6538
5902.439, 120.9397
5904.368, 118.8969
5906.296, 117.4562
5908.225, 117.7989
5910.153, 120.7899
5912.082, 118.7500
5914.010, 116.4433
5915.938, 115.8491
5917.867, 116.5735
5919.795, 113.3248
5921.724, 114.0468
5923.652, 115.7599
5925.581, 116.9882
5927.509, 117.8153
5929.438, 116.4540
5931.366, 117.6760
5933.294, 118.0144
5935.223, 115.7316
5937.151, 112.8967
5939.080, 113.9506
5941.008, 113.6081
5942.937, 112.5990
5944.865, 112.6929
5946.794, 110.0119
5948.722, 111.9988
5950.651, 113.1717
5952.579, 113.1469
5954.508, 115.1356
5956.436, 114.5376
5958.365, 113.7915
5960.293, 112.4225
5962.222, 112.1566
5964.150, 117.9256
5966.079, 118.7830
5968.007, 117.5595
5969.936, 114.8371
5971.864, 111.9289
5973.792, 116.2027
5975.721, 115.7872
5977.649, 116.9368
5979.578, 119.3837
5981.506, 119.8310
5983.435, 119.8449
5985.363, 120.7596
5987.292, 118.9602
5989.220, 115.6272
5991.148, 115.3729
5993.077, 114.3249
5995.005, 114.0775
5996.934, 112.6573
5998.862, 109.7769
6000.791, 107.7934
6002.719, 106.8073
6004.648, 108.6838
6006.576, 109.5423
6008.505, 107.7426
6010.433, 107.8797
6012.362, 106.5608
6014.290, 107.6489
6016.219, 108.8783
6018.147, 108.2974
6020.076, 110.5937
6022.004, 108.1941
6023.933, 105.7284
6025.861, 105.1186
6027.790, 106.1906
6029.718, 107.1479
6031.646, 109.0007
6033.575, 109.7906
6035.503, 108.5581
6037.432, 105.8929
6039.360, 108.6414
6041.289, 105.7804
6043.217, 104.1508
6045.146, 104.9743
6047.074, 105.7285
6049.002, 103.9151
6050.931, 104.1544
6052.859, 103.6359
6054.788, 103.4595
6056.716, 105.7810
6058.645, 104.3786
6060.573, 104.1919
6062.502, 104.7454
6064.430, 104.4067
6066.359, 102.5674
6068.287, 104.4680
6070.216, 103.6122
6072.144, 100.9094
6074.073, 99.51454
6076.001, 101.6692
6077.930, 104.8166
6079.858, 103.3086
6081.787, 101.6071
6083.715, 100.7840
6085.644, 100.1221
6087.572, 100.3104
6089.500, 98.83456
6091.429, 99.41551
6093.357, 101.0672
6095.286, 101.3500
6097.214, 99.30983
6099.143, 99.20423
6101.071, 99.56821
6103.000, 100.0494
6104.928, 100.6955
6106.856, 101.1844
6108.785, 101.2414
6110.713, 99.83031
6112.642, 98.48497
6114.570, 97.57970
6116.499, 95.58546
6118.427, 97.58720
6120.356, 99.75740
6122.284, 99.95418
6124.213, 99.04836
6126.141, 99.19789
6128.070, 97.06783
6129.998, 97.57243
6131.927, 96.90488
6133.855, 95.82687
6135.784, 96.84474
6137.712, 95.93614
6139.641, 94.98851
6141.569, 92.88936
6143.498, 93.06825
6145.426, 96.45885
6147.354, 95.01920
6149.283, 96.52181
6151.211, 96.91955
6153.140, 96.15266
6155.068, 96.00131
6156.997, 98.08974
6158.925, 97.83534
6160.854, 96.02460
6162.782, 92.92391
6164.710, 90.98412
6166.639, 92.50911
6168.567, 93.36221
6170.496, 92.36272
6172.424, 92.51197
6174.353, 93.33366
6176.281, 94.00156
6178.210, 95.70897
6180.138, 94.62384
6182.067, 93.16835
6183.995, 91.86065
6185.924, 91.03762
6187.852, 91.23083
6189.781, 92.15872
6191.709, 90.42901
6193.638, 89.29601
6195.566, 89.32458
6197.495, 90.01347
6199.423, 92.40504
6201.352, 90.16093
6203.280, 89.87825
6205.208, 89.82834
6207.137, 89.71312
6209.065, 91.61972
6210.994, 90.05062
6212.922, 89.76621
6214.851, 89.74339
6216.779, 89.69829
6218.708, 90.09612
6220.636, 92.21613
6222.564, 89.99541
6224.493, 89.76291
6226.421, 88.59172
6228.350, 87.97669
6230.278, 90.86560
6232.207, 87.35984
6234.135, 86.85246
6236.064, 89.91862
6237.992, 91.59748
6239.921, 89.32978
6241.849, 84.86818
6243.778, 86.85265
6245.706, 87.89958
6247.635, 86.63467
6249.563, 87.30901
6251.492, 90.18477
6253.420, 86.81969
6255.349, 85.41687
6257.277, 85.58700
6259.206, 87.13261
6261.134, 87.44704
6263.063, 85.68631
6264.991, 88.02967
6266.919, 87.29128
6268.848, 86.00337
6270.776, 86.12297
6272.705, 87.90224
6274.633, 89.35176
6276.562, 84.18034
6278.490, 84.99937
6280.418, 86.38910
6282.347, 86.49557
6284.275, 85.85655
6286.204, 84.99854
6288.132, 81.50948
6290.061, 84.20622
6291.989, 83.67782
6293.918, 82.85732
6295.846, 83.47765
6297.775, 82.21547
6299.703, 83.80379
6301.632, 85.75373
6303.560, 85.68932
6305.489, 83.27687
6307.417, 80.88042
6309.346, 81.96390
6311.274, 80.60756
6313.203, 79.87813
6315.131, 80.69206
6317.060, 82.20337
6318.988, 82.31054
6320.917, 79.62919
6322.845, 83.09000
6324.773, 81.51207
6326.702, 79.62476
6328.630, 80.55927
6330.559, 81.98458
6332.487, 80.51384
6334.416, 83.02425
6336.344, 81.55540
6338.272, 80.81013
6340.201, 79.66827
6342.129, 79.04021
6344.058, 80.43666
6345.986, 77.77100
6347.915, 80.55405
6349.843, 81.11000
6351.772, 79.37987
6353.700, 77.67904
6355.629, 77.83684
6357.557, 80.98149
6359.486, 77.88968
6361.414, 79.45619
6363.343, 79.70091
6365.271, 78.09032
6367.200, 76.99428
6369.128, 76.42137
6371.057, 75.56682
6372.985, 76.08374
6374.914, 75.80768
6376.842, 75.61079
6378.771, 75.68413
6380.699, 75.05684
6382.627, 75.75905
6384.556, 79.12822
6386.484, 77.77501
6388.413, 77.40009
6390.341, 77.53994
6392.270, 74.39605
6394.198, 70.63840
6396.126, 77.84096
6398.055, 76.66478
6399.983, 74.18462
6401.912, 74.17130
6403.840, 75.55608
6405.769, 76.37003
6407.697, 75.02899
6409.626, 78.03554
6411.554, 77.27887
6413.483, 72.64025
6415.411, 70.07880
6417.340, 72.95824
6419.268, 77.05009
6421.197, 74.46661
6423.125, 75.96232
6425.054, 74.56976
6426.982, 72.54400
6428.911, 70.96236
6430.839, 68.78988
6432.768, 72.82638
6434.696, 72.94254
6436.625, 73.06289
6438.553, 73.17320
6440.481, 72.70924
6442.410, 72.77509
6444.338, 74.84409
6446.267, 72.83318
6448.195, 72.88841
6450.124, 71.36003
6452.052, 70.82270
6453.980, 72.08612
6455.909, 73.25831
6457.837, 71.98914
6459.766, 69.98195
6461.694, 70.03099
6463.623, 71.57713
6465.551, 70.98277
6467.480, 69.75806
6469.408, 70.35517
6471.337, 70.72780
6473.265, 69.27938
6475.194, 70.28264
6477.122, 69.83360
6479.051, 68.73291
6480.979, 67.85841
6482.908, 67.66762
6484.836, 69.62656
6486.765, 71.73351
6488.693, 70.44498
6490.622, 69.15597
6492.550, 69.05679
6494.479, 67.90704
6496.407, 65.66707
6498.335, 66.77699
6500.264, 68.39638
6502.192, 67.89766
6504.121, 67.48508
6506.049, 66.09651
6507.978, 67.84809
6509.906, 71.33989
6511.834, 67.52284
6513.763, 62.92552
6515.691, 63.17617
6517.620, 63.49639
6519.548, 67.54481
6521.477, 68.33572
6523.405, 65.45670
6525.334, 66.18757
6527.262, 65.71233
6529.191, 66.71819
6531.119, 65.03236
6533.048, 64.63400
6534.976, 64.47441
6536.905, 65.83811
6538.833, 67.91652
##END=



