##NAMES=Anatase
##RRUFFID=R120013
##IDEAL CHEMISTRY=TiO_2_
##LOCALITY=Governor's Lake pegmatite, Halifax County, Nova Scotia, Canada
##OWNER=RRUFF
##SOURCE=Donald Doell
##DESCRIPTION=Black tabular crystals associated with metatorbernite R120014
##STATUS=The identification of this mineral has been confirmed by single-crystal X-ray diffraction
##URL=https://www.rruff.net/odr/rruff_sample/R120013
##DIFFRACTION SAMPLE DESCRIPTION=Single crystal, powder profile is calculated
##CELL PARAMETERS=a: 3.826 b: 3.826 c: 9.552 alpha: 90 beta: 90 gamma: 90 volume: 139.83 crystal system: tetragonal
##FILETYPE=Raman RAW
##RAMAN WAVELENGTH=532

1.019570e+002, 8.336012e+001
1.038855e+002, 8.283630e+001
1.058140e+002, 8.267107e+001
1.077424e+002, 8.353371e+001
1.096709e+002, 8.448112e+001
1.115994e+002, 8.446839e+001
1.135278e+002, 8.307411e+001
1.154563e+002, 8.159463e+001
1.173848e+002, 8.046116e+001
1.193132e+002, 7.976836e+001
1.212417e+002, 7.899204e+001
1.231702e+002, 7.785914e+001
1.250986e+002, 7.666768e+001
1.270271e+002, 7.592890e+001
1.289556e+002, 7.588953e+001
1.308840e+002, 7.608024e+001
1.328125e+002, 7.626687e+001
1.347410e+002, 7.629631e+001
1.366694e+002, 7.654126e+001
1.385979e+002, 7.618376e+001
1.405264e+002, 7.586628e+001
1.424548e+002, 7.779054e+001
1.443833e+002, 8.150890e+001
1.463118e+002, 8.788322e+001
1.482402e+002, 9.641673e+001
1.501687e+002, 9.960808e+001
1.520972e+002, 1.181221e+002
1.540257e+002, 1.560394e+002
1.559541e+002, 2.112961e+002
1.578826e+002, 2.914853e+002
1.598111e+002, 4.020810e+002
1.617395e+002, 5.334288e+002
1.636680e+002, 6.732802e+002
1.655965e+002, 8.310714e+002
1.675249e+002, 9.829161e+002
1.694534e+002, 1.123686e+003
1.713819e+002, 1.256805e+003
1.733103e+002, 1.364761e+003
1.752388e+002, 1.433905e+003
1.771673e+002, 1.424170e+003
1.790957e+002, 1.406451e+003
1.810242e+002, 1.390910e+003
1.829527e+002, 1.382694e+003
1.848811e+002, 1.383907e+003
1.868096e+002, 1.393642e+003
1.887381e+002, 1.410290e+003
1.906665e+002, 1.431249e+003
1.925950e+002, 1.456931e+003
1.945235e+002, 1.496949e+003
1.964519e+002, 1.571378e+003
1.983804e+002, 1.643762e+003
2.003089e+002, 1.697484e+003
2.022373e+002, 1.741523e+003
2.041658e+002, 1.750737e+003
2.060943e+002, 1.713876e+003
2.080227e+002, 1.633572e+003
2.099512e+002, 1.550076e+003
2.118797e+002, 1.454908e+003
2.138081e+002, 1.361972e+003
2.157366e+002, 1.278132e+003
2.176651e+002, 1.202223e+003
2.195935e+002, 1.138264e+003
2.215220e+002, 1.086713e+003
2.234505e+002, 1.048958e+003
2.253789e+002, 1.017211e+003
2.273074e+002, 9.917545e+002
2.292359e+002, 9.723328e+002
2.311643e+002, 9.580912e+002
2.330928e+002, 9.531661e+002
2.350213e+002, 9.490211e+002
2.369497e+002, 9.441109e+002
2.388782e+002, 9.385099e+002
2.408067e+002, 9.338841e+002
2.427351e+002, 9.309157e+002
2.446636e+002, 9.289172e+002
2.465921e+002, 9.274064e+002
2.485205e+002, 9.268167e+002
2.504490e+002, 9.265590e+002
2.523775e+002, 9.261620e+002
2.543059e+002, 9.258223e+002
2.562344e+002, 9.276290e+002
2.581629e+002, 9.335106e+002
2.600913e+002, 9.412101e+002
2.620198e+002, 9.483499e+002
2.639483e+002, 9.538535e+002
2.658767e+002, 9.603672e+002
2.678052e+002, 9.688443e+002
2.697337e+002, 9.790860e+002
2.716621e+002, 9.896400e+002
2.735906e+002, 9.998301e+002
2.755191e+002, 1.009998e+003
2.774475e+002, 1.020694e+003
2.793760e+002, 1.032261e+003
2.813045e+002, 1.042983e+003
2.832329e+002, 1.051798e+003
2.851614e+002, 1.058031e+003
2.870899e+002, 1.066127e+003
2.890183e+002, 1.077299e+003
2.909468e+002, 1.090011e+003
2.928753e+002, 1.102648e+003
2.948037e+002, 1.114856e+003
2.967322e+002, 1.128367e+003
2.986607e+002, 1.143600e+003
3.005891e+002, 1.160748e+003
3.025176e+002, 1.178741e+003
3.044461e+002, 1.196779e+003
3.063745e+002, 1.215832e+003
3.083030e+002, 1.236393e+003
3.102315e+002, 1.258618e+003
3.121599e+002, 1.281798e+003
3.140884e+002, 1.305558e+003
3.160169e+002, 1.330141e+003
3.179453e+002, 1.356095e+003
3.198738e+002, 1.383899e+003
3.218023e+002, 1.413369e+003
3.237307e+002, 1.443589e+003
3.256592e+002, 1.471762e+003
3.275877e+002, 1.506057e+003
3.295161e+002, 1.546185e+003
3.314446e+002, 1.593527e+003
3.333731e+002, 1.648739e+003
3.353015e+002, 1.709892e+003
3.372300e+002, 1.781298e+003
3.391585e+002, 1.864253e+003
3.410869e+002, 1.963264e+003
3.430154e+002, 2.069486e+003
3.449439e+002, 2.184038e+003
3.468723e+002, 2.306492e+003
3.488008e+002, 2.434366e+003
3.507293e+002, 2.573469e+003
3.526578e+002, 2.712940e+003
3.545862e+002, 2.847964e+003
3.565147e+002, 2.977275e+003
3.584432e+002, 3.105071e+003
3.603716e+002, 3.224098e+003
3.623001e+002, 3.343565e+003
3.642286e+002, 3.473040e+003
3.661570e+002, 3.606909e+003
3.680855e+002, 3.760081e+003
3.700140e+002, 3.934053e+003
3.719424e+002, 4.131724e+003
3.738709e+002, 4.355560e+003
3.757994e+002, 4.611131e+003
3.777278e+002, 4.893550e+003
3.796563e+002, 5.196046e+003
3.815848e+002, 5.540760e+003
3.835132e+002, 5.879518e+003
3.854417e+002, 6.223546e+003
3.873702e+002, 6.562734e+003
3.892986e+002, 6.839374e+003
3.912271e+002, 7.072015e+003
3.931556e+002, 7.215384e+003
3.950840e+002, 7.251846e+003
3.970125e+002, 7.158818e+003
3.989410e+002, 6.975360e+003
4.008694e+002, 6.679992e+003
4.027979e+002, 6.290991e+003
4.047264e+002, 5.870952e+003
4.066548e+002, 5.391400e+003
4.085833e+002, 4.915578e+003
4.105118e+002, 4.463019e+003
4.124402e+002, 4.031010e+003
4.143687e+002, 3.641874e+003
4.162972e+002, 3.293171e+003
4.182256e+002, 2.989998e+003
4.201541e+002, 2.728959e+003
4.220826e+002, 2.516086e+003
4.240110e+002, 2.338094e+003
4.259395e+002, 2.191990e+003
4.278680e+002, 2.079196e+003
4.297964e+002, 1.982552e+003
4.317249e+002, 1.904110e+003
4.336534e+002, 1.839866e+003
4.355818e+002, 1.786812e+003
4.375103e+002, 1.745827e+003
4.394388e+002, 1.712787e+003
4.413672e+002, 1.686056e+003
4.432957e+002, 1.665932e+003
4.452242e+002, 1.652993e+003
4.471526e+002, 1.647383e+003
4.490811e+002, 1.647760e+003
4.510096e+002, 1.652341e+003
4.529380e+002, 1.660399e+003
4.548665e+002, 1.679405e+003
4.567950e+002, 1.709575e+003
4.587234e+002, 1.749837e+003
4.606519e+002, 1.800496e+003
4.625804e+002, 1.860135e+003
4.645089e+002, 1.930343e+003
4.664373e+002, 2.015134e+003
4.683658e+002, 2.111175e+003
4.702943e+002, 2.210076e+003
4.722227e+002, 2.314999e+003
4.741512e+002, 2.418859e+003
4.760797e+002, 2.518488e+003
4.780081e+002, 2.613879e+003
4.799366e+002, 2.707618e+003
4.818651e+002, 2.795389e+003
4.837935e+002, 2.884479e+003
4.857220e+002, 2.981343e+003
4.876505e+002, 3.080601e+003
4.895789e+002, 3.195757e+003
4.915074e+002, 3.325878e+003
4.934359e+002, 3.474639e+003
4.953643e+002, 3.646372e+003
4.972928e+002, 3.843567e+003
4.992213e+002, 4.063948e+003
5.011497e+002, 4.309447e+003
5.030782e+002, 4.591685e+003
5.050067e+002, 4.864953e+003
5.069351e+002, 5.150942e+003
5.088636e+002, 5.414479e+003
5.107921e+002, 5.636458e+003
5.127205e+002, 5.830888e+003
5.146490e+002, 5.945464e+003
5.165775e+002, 5.975205e+003
5.185059e+002, 5.923326e+003
5.204344e+002, 5.803882e+003
5.223629e+002, 5.596223e+003
5.242913e+002, 5.350436e+003
5.262198e+002, 5.071370e+003
5.281483e+002, 4.760212e+003
5.300767e+002, 4.457499e+003
5.320052e+002, 4.159985e+003
5.339337e+002, 3.876742e+003
5.358621e+002, 3.615357e+003
5.377906e+002, 3.373161e+003
5.397191e+002, 3.155599e+003
5.416475e+002, 2.971163e+003
5.435760e+002, 2.811863e+003
5.455045e+002, 2.667304e+003
5.474329e+002, 2.539521e+003
5.493614e+002, 2.425091e+003
5.512899e+002, 2.325147e+003
5.532183e+002, 2.241018e+003
5.551468e+002, 2.165263e+003
5.570753e+002, 2.098677e+003
5.590037e+002, 2.041629e+003
5.609322e+002, 1.992637e+003
5.628607e+002, 1.952308e+003
5.647891e+002, 1.921024e+003
5.667176e+002, 1.897176e+003
5.686461e+002, 1.882023e+003
5.705745e+002, 1.877390e+003
5.725030e+002, 1.882044e+003
5.744315e+002, 1.897070e+003
5.763599e+002, 1.921700e+003
5.782884e+002, 1.955935e+003
5.802169e+002, 2.004804e+003
5.821453e+002, 2.068951e+003
5.840738e+002, 2.147018e+003
5.860023e+002, 2.240004e+003
5.879307e+002, 2.347784e+003
5.898592e+002, 2.468175e+003
5.917877e+002, 2.605631e+003
5.937161e+002, 2.752075e+003
5.956447e+002, 2.903257e+003
5.975731e+002, 3.062987e+003
5.995016e+002, 3.218515e+003
6.014301e+002, 3.367043e+003
6.033585e+002, 3.512403e+003
6.052870e+002, 3.658250e+003
6.072155e+002, 3.800161e+003
6.091439e+002, 3.955234e+003
6.110724e+002, 4.123851e+003
6.130009e+002, 4.307491e+003
6.149293e+002, 4.518631e+003
6.168578e+002, 4.752696e+003
6.187863e+002, 5.015108e+003
6.207147e+002, 5.311148e+003
6.226432e+002, 5.638817e+003
6.245717e+002, 5.989444e+003
6.265001e+002, 6.388775e+003
6.284286e+002, 6.786898e+003
6.303571e+002, 7.162166e+003
6.322855e+002, 7.543565e+003
6.342140e+002, 7.835271e+003
6.361425e+002, 8.058576e+003
6.380709e+002, 8.184808e+003
6.399994e+002, 8.184532e+003
6.419279e+002, 8.052882e+003
6.438563e+002, 7.831212e+003
6.457848e+002, 7.504451e+003
6.477133e+002, 7.099903e+003
6.496417e+002, 6.665534e+003
6.515702e+002, 6.166553e+003
6.534987e+002, 5.674094e+003
6.554271e+002, 5.193493e+003
6.573556e+002, 4.730947e+003
6.592841e+002, 4.303839e+003
6.612125e+002, 3.914239e+003
6.631410e+002, 3.565251e+003
6.650695e+002, 3.258117e+003
6.669979e+002, 2.996460e+003
6.689264e+002, 2.762906e+003
6.708549e+002, 2.557514e+003
6.727833e+002, 2.376444e+003
6.747118e+002, 2.219966e+003
6.766403e+002, 2.086466e+003
6.785687e+002, 1.967672e+003
6.804972e+002, 1.866708e+003
6.824257e+002, 1.777470e+003
6.843541e+002, 1.696721e+003
6.862826e+002, 1.626401e+003
6.882111e+002, 1.562739e+003
6.901395e+002, 1.507253e+003
6.920680e+002, 1.458245e+003
6.939965e+002, 1.412625e+003
6.959249e+002, 1.370149e+003
6.978534e+002, 1.331733e+003
6.997819e+002, 1.298620e+003
7.017103e+002, 1.269592e+003
7.036388e+002, 1.241504e+003
7.055673e+002, 1.214061e+003
7.074957e+002, 1.187961e+003
7.094242e+002, 1.163544e+003
7.113527e+002, 1.140752e+003
7.132811e+002, 1.119160e+003
7.152096e+002, 1.098694e+003
7.171381e+002, 1.079498e+003
7.190665e+002, 1.061265e+003
7.209950e+002, 1.043975e+003
7.229235e+002, 1.028277e+003
7.248519e+002, 1.015050e+003
7.267804e+002, 1.002366e+003
7.287089e+002, 9.888365e+002
7.306373e+002, 9.746065e+002
7.325658e+002, 9.624589e+002
7.344943e+002, 9.534160e+002
7.364227e+002, 9.462692e+002
7.383512e+002, 9.402762e+002
7.402797e+002, 9.353672e+002
7.422081e+002, 9.317451e+002
7.441366e+002, 9.292220e+002
7.460651e+002, 9.278219e+002
7.479935e+002, 9.277878e+002
7.499220e+002, 9.291334e+002
7.518505e+002, 9.309630e+002
7.537789e+002, 9.327545e+002
7.557074e+002, 9.352634e+002
7.576359e+002, 9.393514e+002
7.595643e+002, 9.464950e+002
7.614928e+002, 9.530255e+002
7.634213e+002, 9.581736e+002
7.653497e+002, 9.628450e+002
7.672782e+002, 9.681234e+002
7.692067e+002, 9.737637e+002
7.711351e+002, 9.806533e+002
7.730636e+002, 9.898356e+002
7.749921e+002, 1.000243e+003
7.769205e+002, 1.010276e+003
7.788490e+002, 1.019125e+003
7.807775e+002, 1.028462e+003
7.827059e+002, 1.038565e+003
7.846344e+002, 1.049155e+003
7.865629e+002, 1.060011e+003
7.884913e+002, 1.072229e+003
7.904198e+002, 1.082406e+003
7.923483e+002, 1.089711e+003
7.942767e+002, 1.094356e+003
7.962052e+002, 1.095974e+003
7.981337e+002, 1.092537e+003
8.000621e+002, 1.088631e+003
8.019906e+002, 1.085325e+003
8.039191e+002, 1.082268e+003
8.058475e+002, 1.078140e+003
8.077760e+002, 1.072828e+003
8.097045e+002, 1.066411e+003
8.116329e+002, 1.058434e+003
8.135614e+002, 1.049207e+003
8.154899e+002, 1.039622e+003
8.174183e+002, 1.029622e+003
8.193468e+002, 1.019343e+003
8.212753e+002, 1.008342e+003
8.232037e+002, 9.969864e+002
8.251322e+002, 9.871877e+002
8.270607e+002, 9.800723e+002
8.289891e+002, 9.730985e+002
8.309176e+002, 9.655123e+002
8.328461e+002, 9.575001e+002
8.347745e+002, 9.492652e+002
8.367030e+002, 9.400973e+002
8.386315e+002, 9.318660e+002
8.405599e+002, 9.254421e+002
8.424884e+002, 9.206014e+002
8.444169e+002, 9.153381e+002
8.463453e+002, 9.091918e+002
8.482738e+002, 9.028439e+002
8.502023e+002, 8.961414e+002
8.521307e+002, 8.891894e+002
8.540592e+002, 8.825578e+002
8.559877e+002, 8.767752e+002
8.579161e+002, 8.705128e+002
8.598446e+002, 8.635384e+002
8.617731e+002, 8.558609e+002
8.637015e+002, 8.472285e+002
8.656300e+002, 8.368102e+002
8.675585e+002, 8.265665e+002
8.694869e+002, 8.174562e+002
8.714154e+002, 8.090309e+002
8.733439e+002, 8.000686e+002
8.752723e+002, 7.906042e+002
8.772008e+002, 7.806197e+002
8.791293e+002, 7.700862e+002
8.810577e+002, 7.591321e+002
8.829862e+002, 7.481230e+002
8.849147e+002, 7.360915e+002
8.868431e+002, 7.251588e+002
8.887716e+002, 7.161336e+002
8.907001e+002, 7.084982e+002
8.926285e+002, 7.006293e+002
8.945570e+002, 6.918919e+002
8.964855e+002, 6.840769e+002
8.984139e+002, 6.785418e+002
9.003424e+002, 6.742272e+002
9.022709e+002, 6.689423e+002
9.041993e+002, 6.616367e+002
9.061278e+002, 6.548098e+002
9.080563e+002, 6.489824e+002
9.099847e+002, 6.437759e+002
9.119132e+002, 6.384720e+002
9.138417e+002, 6.328916e+002
9.157701e+002, 6.275426e+002
9.176986e+002, 6.228087e+002
9.196271e+002, 6.183229e+002
9.215555e+002, 6.136321e+002
9.234840e+002, 6.086821e+002
9.254125e+002, 6.040645e+002
9.273410e+002, 6.001787e+002
9.292695e+002, 5.966581e+002
9.311979e+002, 5.930267e+002
9.331264e+002, 5.888506e+002
9.350549e+002, 5.854904e+002
9.369833e+002, 5.833105e+002
9.389118e+002, 5.815993e+002
9.408403e+002, 5.796863e+002
9.427687e+002, 5.774583e+002
9.446972e+002, 5.753492e+002
9.466257e+002, 5.738340e+002
9.485541e+002, 5.720829e+002
9.504826e+002, 5.695067e+002
9.524111e+002, 5.658337e+002
9.543395e+002, 5.627887e+002
9.562680e+002, 5.607314e+002
9.581965e+002, 5.590308e+002
9.601249e+002, 5.575626e+002
9.620534e+002, 5.562209e+002
9.639819e+002, 5.542646e+002
9.659103e+002, 5.510143e+002
9.678388e+002, 5.478054e+002
9.697673e+002, 5.453141e+002
9.716957e+002, 5.433917e+002
9.736242e+002, 5.412493e+002
9.755527e+002, 5.391304e+002
9.774811e+002, 5.366300e+002
9.794096e+002, 5.333600e+002
9.813381e+002, 5.297882e+002
9.832665e+002, 5.272640e+002
9.851950e+002, 5.264149e+002
9.871235e+002, 5.253912e+002
9.890519e+002, 5.233583e+002
9.909804e+002, 5.209686e+002
9.929089e+002, 5.190872e+002
9.948373e+002, 5.178170e+002
9.967658e+002, 5.164939e+002
9.986943e+002, 5.146144e+002
1.000623e+003, 5.127220e+002
1.002551e+003, 5.113416e+002
1.004480e+003, 5.105693e+002
1.006408e+003, 5.102376e+002
1.008337e+003, 5.113136e+002
1.010265e+003, 5.121693e+002
1.012194e+003, 5.111932e+002
1.014122e+003, 5.086190e+002
1.016050e+003, 5.070596e+002
1.017979e+003, 5.077260e+002
1.019907e+003, 5.082946e+002
1.021836e+003, 5.073608e+002
1.023764e+003, 5.050304e+002
1.025693e+003, 5.035991e+002
1.027621e+003, 5.041364e+002
1.029550e+003, 5.043154e+002
1.031478e+003, 5.036113e+002
1.033407e+003, 5.021747e+002
1.035335e+003, 5.002906e+002
1.037264e+003, 4.974596e+002
1.039192e+003, 4.953741e+002
1.041120e+003, 4.951206e+002
1.043049e+003, 4.955028e+002
1.044977e+003, 4.952204e+002
1.046906e+003, 4.941721e+002
1.048834e+003, 4.929207e+002
1.050763e+003, 4.917285e+002
1.052691e+003, 4.902562e+002
1.054620e+003, 4.882343e+002
1.056548e+003, 4.855683e+002
1.058477e+003, 4.829206e+002
1.060405e+003, 4.800277e+002
1.062334e+003, 4.774768e+002
1.064262e+003, 4.757777e+002
1.066191e+003, 4.746924e+002
1.068119e+003, 4.731380e+002
1.070047e+003, 4.707192e+002
1.071976e+003, 4.684339e+002
1.073904e+003, 4.668132e+002
1.075833e+003, 4.654765e+002
1.077761e+003, 4.637144e+002
1.079690e+003, 4.610360e+002
1.081618e+003, 4.590540e+002
1.083547e+003, 4.586205e+002
1.085475e+003, 4.585617e+002
1.087404e+003, 4.577950e+002
1.089332e+003, 4.561334e+002
1.091261e+003, 4.544742e+002
1.093189e+003, 4.525656e+002
1.095118e+003, 4.508651e+002
1.097046e+003, 4.498279e+002
1.098975e+003, 4.492084e+002
1.100903e+003, 4.481019e+002
1.102832e+003, 4.461341e+002
1.104760e+003, 4.441942e+002
1.106688e+003, 4.424563e+002
1.108617e+003, 4.410058e+002
1.110545e+003, 4.400605e+002
1.112474e+003, 4.404059e+002
1.114402e+003, 4.400112e+002
1.116331e+003, 4.383765e+002
1.118259e+003, 4.362736e+002
1.120188e+003, 4.341798e+002
1.122116e+003, 4.320308e+002
1.124045e+003, 4.307354e+002
1.125973e+003, 4.308089e+002
1.127902e+003, 4.311670e+002
1.129830e+003, 4.316314e+002
1.131759e+003, 4.319238e+002
1.133687e+003, 4.310177e+002
1.135615e+003, 4.280670e+002
1.137544e+003, 4.254742e+002
1.139472e+003, 4.239849e+002
1.141401e+003, 4.231821e+002
1.143329e+003, 4.225099e+002
1.145258e+003, 4.220219e+002
1.147186e+003, 4.216614e+002
1.149115e+003, 4.211844e+002
1.151043e+003, 4.210382e+002
1.152972e+003, 4.220237e+002
1.154900e+003, 4.238980e+002
1.156829e+003, 4.241253e+002
1.158757e+003, 4.214269e+002
1.160686e+003, 4.190007e+002
1.162614e+003, 4.183685e+002
1.164542e+003, 4.188483e+002
1.166471e+003, 4.195428e+002
1.168399e+003, 4.207665e+002
1.170328e+003, 4.212886e+002
1.172256e+003, 4.201613e+002
1.174185e+003, 4.188716e+002
1.176113e+003, 4.185783e+002
1.178042e+003, 4.194584e+002
1.179970e+003, 4.199398e+002
1.181899e+003, 4.199984e+002
1.183827e+003, 4.196452e+002
1.185756e+003, 4.183853e+002
1.187684e+003, 4.167599e+002
1.189613e+003, 4.161710e+002
1.191541e+003, 4.169146e+002
1.193469e+003, 4.177204e+002
1.195398e+003, 4.183308e+002
1.197326e+003, 4.189047e+002
1.199255e+003, 4.192709e+002
1.201183e+003, 4.194120e+002
1.203112e+003, 4.208017e+002
1.205040e+003, 4.255305e+002
1.206969e+003, 4.289689e+002
1.208897e+003, 4.287098e+002
1.210826e+003, 4.260163e+002
1.212754e+003, 4.243800e+002
1.214683e+003, 4.245627e+002
1.216611e+003, 4.248332e+002
1.218540e+003, 4.255836e+002
1.220468e+003, 4.262368e+002
1.222396e+003, 4.263579e+002
1.224325e+003, 4.259974e+002
1.226253e+003, 4.251755e+002
1.228182e+003, 4.229398e+002
1.230110e+003, 4.216977e+002
1.232039e+003, 4.232700e+002
1.233967e+003, 4.261173e+002
1.235896e+003, 4.277497e+002
1.237824e+003, 4.276983e+002
1.239753e+003, 4.277987e+002
1.241681e+003, 4.286346e+002
1.243610e+003, 4.295237e+002
1.245538e+003, 4.301278e+002
1.247467e+003, 4.304972e+002
1.249395e+003, 4.308726e+002
1.251323e+003, 4.312038e+002
1.253252e+003, 4.317773e+002
1.255180e+003, 4.332168e+002
1.257109e+003, 4.347150e+002
1.259037e+003, 4.349652e+002
1.260966e+003, 4.337851e+002
1.262894e+003, 4.327243e+002
1.264823e+003, 4.319772e+002
1.266751e+003, 4.312763e+002
1.268680e+003, 4.301336e+002
1.270608e+003, 4.289527e+002
1.272537e+003, 4.289281e+002
1.274465e+003, 4.306048e+002
1.276394e+003, 4.319332e+002
1.278322e+003, 4.322895e+002
1.280250e+003, 4.321724e+002
1.282179e+003, 4.318906e+002
1.284107e+003, 4.314548e+002
1.286036e+003, 4.308686e+002
1.287964e+003, 4.298051e+002
1.289893e+003, 4.289705e+002
1.291821e+003, 4.285834e+002
1.293750e+003, 4.284574e+002
1.295678e+003, 4.283170e+002
1.297607e+003, 4.281364e+002
1.299535e+003, 4.278877e+002
1.301464e+003, 4.280526e+002
1.303392e+003, 4.276249e+002
1.305321e+003, 4.252975e+002
1.307249e+003, 4.220410e+002
1.309177e+003, 4.205910e+002
1.311106e+003, 4.214864e+002
1.313034e+003, 4.225026e+002
1.314963e+003, 4.234732e+002
1.316891e+003, 4.239907e+002
1.318820e+003, 4.237286e+002
1.320748e+003, 4.227393e+002
1.322677e+003, 4.214557e+002
1.324605e+003, 4.193814e+002
1.326534e+003, 4.179371e+002
1.328462e+003, 4.175482e+002
1.330391e+003, 4.178371e+002
1.332319e+003, 4.186198e+002
1.334248e+003, 4.203260e+002
1.336176e+003, 4.207321e+002
1.338104e+003, 4.189185e+002
1.340033e+003, 4.171133e+002
1.341961e+003, 4.158737e+002
1.343890e+003, 4.152104e+002
1.345818e+003, 4.153406e+002
1.347747e+003, 4.165957e+002
1.349675e+003, 4.170808e+002
1.351604e+003, 4.155675e+002
1.353532e+003, 4.141779e+002
1.355461e+003, 4.143462e+002
1.357389e+003, 4.153202e+002
1.359318e+003, 4.154172e+002
1.361246e+003, 4.144711e+002
1.363175e+003, 4.133546e+002
1.365103e+003, 4.120601e+002
1.367031e+003, 4.110309e+002
1.368960e+003, 4.104888e+002
1.370888e+003, 4.104490e+002
1.372817e+003, 4.109999e+002
1.374745e+003, 4.126870e+002
1.376674e+003, 4.136518e+002
1.378602e+003, 4.130764e+002
1.380531e+003, 4.119380e+002
1.382459e+003, 4.106246e+002
1.384388e+003, 4.091123e+002
1.386316e+003, 4.089779e+002
1.388245e+003, 4.121379e+002
1.390173e+003, 4.141482e+002
1.392102e+003, 4.139928e+002
1.394030e+003, 4.127067e+002
1.395958e+003, 4.108023e+002
1.397887e+003, 4.082128e+002
1.399815e+003, 4.072025e+002
1.401744e+003, 4.090848e+002
1.403672e+003, 4.104198e+002
1.405601e+003, 4.098383e+002
1.407529e+003, 4.084753e+002
1.409458e+003, 4.074208e+002
1.411386e+003, 4.066998e+002
1.413315e+003, 4.066937e+002
1.415243e+003, 4.079299e+002
1.417172e+003, 4.089805e+002
1.419100e+003, 4.087391e+002
1.421029e+003, 4.082968e+002
1.422957e+003, 4.091866e+002
1.424885e+003, 4.114229e+002
1.426814e+003, 4.124799e+002
1.428742e+003, 4.115893e+002
1.430671e+003, 4.102535e+002
1.432599e+003, 4.082384e+002
1.434528e+003, 4.065396e+002
1.436456e+003, 4.066673e+002
1.438385e+003, 4.091651e+002
1.440313e+003, 4.107896e+002
1.442242e+003, 4.105736e+002
1.444170e+003, 4.105936e+002
1.446099e+003, 4.117007e+002
1.448027e+003, 4.130990e+002
1.449956e+003, 4.137086e+002
1.451884e+003, 4.133393e+002
1.453813e+003, 4.131490e+002
1.455741e+003, 4.131683e+002
1.457669e+003, 4.133516e+002
1.459598e+003, 4.142013e+002
1.461526e+003, 4.149357e+002
1.463455e+003, 4.140737e+002
1.465383e+003, 4.114832e+002
1.467312e+003, 4.108369e+002
1.469240e+003, 4.135740e+002
1.471169e+003, 4.160484e+002
1.473097e+003, 4.172101e+002
1.475026e+003, 4.174424e+002
1.476954e+003, 4.166781e+002
1.478883e+003, 4.151257e+002
1.480811e+003, 4.148484e+002
1.482740e+003, 4.168462e+002
1.484668e+003, 4.182754e+002
1.486596e+003, 4.174772e+002
1.488525e+003, 4.163525e+002
1.490453e+003, 4.164420e+002
1.492382e+003, 4.176294e+002
1.494310e+003, 4.191552e+002
1.496239e+003, 4.210434e+002
1.498167e+003, 4.228052e+002
1.500096e+003, 4.243422e+002
1.502024e+003, 4.254288e+002
1.503953e+003, 4.255821e+002
1.505881e+003, 4.249874e+002
1.507810e+003, 4.253795e+002
1.509738e+003, 4.278502e+002
1.511667e+003, 4.289398e+002
1.513595e+003, 4.268746e+002
1.515523e+003, 4.248292e+002
1.517452e+003, 4.246411e+002
1.519380e+003, 4.258741e+002
1.521309e+003, 4.270191e+002
1.523237e+003, 4.278833e+002
1.525166e+003, 4.288814e+002
1.527094e+003, 4.300077e+002
1.529023e+003, 4.311253e+002
1.530951e+003, 4.324613e+002
1.532880e+003, 4.336534e+002
1.534808e+003, 4.338755e+002
1.536737e+003, 4.326511e+002
1.538665e+003, 4.323418e+002
1.540594e+003, 4.336996e+002
1.542522e+003, 4.350451e+002
1.544450e+003, 4.359493e+002
1.546379e+003, 4.365607e+002
1.548307e+003, 4.369053e+002
1.550236e+003, 4.369473e+002
1.552164e+003, 4.373766e+002
1.554093e+003, 4.382530e+002
1.556021e+003, 4.393422e+002
1.557950e+003, 4.409305e+002
1.559878e+003, 4.423988e+002
1.561807e+003, 4.432524e+002
1.563735e+003, 4.435537e+002
1.565664e+003, 4.435969e+002
1.567592e+003, 4.432987e+002
1.569521e+003, 4.431206e+002
1.571449e+003, 4.434689e+002
1.573377e+003, 4.436133e+002
1.575306e+003, 4.429381e+002
1.577234e+003, 4.418986e+002
1.579163e+003, 4.412236e+002
1.581091e+003, 4.409279e+002
1.583020e+003, 4.410635e+002
1.584948e+003, 4.420207e+002
1.586877e+003, 4.427180e+002
1.588805e+003, 4.419710e+002
1.590734e+003, 4.413468e+002
1.592662e+003, 4.429582e+002
1.594591e+003, 4.462194e+002
1.596519e+003, 4.472936e+002
1.598448e+003, 4.449336e+002
1.600376e+003, 4.436259e+002
1.602304e+003, 4.455404e+002
1.604233e+003, 4.476422e+002
1.606161e+003, 4.479916e+002
1.608090e+003, 4.471726e+002
1.610018e+003, 4.464380e+002
1.611947e+003, 4.457693e+002
1.613875e+003, 4.456115e+002
1.615804e+003, 4.467188e+002
1.617732e+003, 4.473521e+002
1.619661e+003, 4.463869e+002
1.621589e+003, 4.450908e+002
1.623518e+003, 4.450058e+002
1.625446e+003, 4.459874e+002
1.627375e+003, 4.457885e+002
1.629303e+003, 4.433998e+002
1.631231e+003, 4.421601e+002
1.633160e+003, 4.437583e+002
1.635088e+003, 4.455127e+002
1.637017e+003, 4.463969e+002
1.638945e+003, 4.462951e+002
1.640874e+003, 4.446255e+002
1.642802e+003, 4.409925e+002
1.644731e+003, 4.387050e+002
1.646659e+003, 4.388682e+002
1.648588e+003, 4.392226e+002
1.650516e+003, 4.395078e+002
1.652445e+003, 4.394786e+002
1.654373e+003, 4.387215e+002
1.656302e+003, 4.373409e+002
1.658230e+003, 4.362243e+002
1.660158e+003, 4.352389e+002
1.662087e+003, 4.347626e+002
1.664015e+003, 4.358034e+002
1.665944e+003, 4.361738e+002
1.667872e+003, 4.344072e+002
1.669801e+003, 4.319012e+002
1.671729e+003, 4.307112e+002
1.673658e+003, 4.310213e+002
1.675586e+003, 4.305820e+002
1.677515e+003, 4.290027e+002
1.679443e+003, 4.274879e+002
1.681372e+003, 4.263605e+002
1.683300e+003, 4.252301e+002
1.685229e+003, 4.237675e+002
1.687157e+003, 4.221618e+002
1.689085e+003, 4.207847e+002
1.691014e+003, 4.195490e+002
1.692942e+003, 4.187556e+002
1.694871e+003, 4.184399e+002
1.696799e+003, 4.184607e+002
1.698728e+003, 4.197040e+002
1.700656e+003, 4.204106e+002
1.702585e+003, 4.187643e+002
1.704513e+003, 4.156425e+002
1.706442e+003, 4.139228e+002
1.708370e+003, 4.139143e+002
1.710299e+003, 4.142748e+002
1.712227e+003, 4.157557e+002
1.714156e+003, 4.164140e+002
1.716084e+003, 4.149801e+002
1.718012e+003, 4.131866e+002
1.719941e+003, 4.124180e+002
1.721869e+003, 4.125362e+002
1.723798e+003, 4.131057e+002
1.725726e+003, 4.146873e+002
1.727655e+003, 4.148568e+002
1.729583e+003, 4.116431e+002
1.731512e+003, 4.094658e+002
1.733440e+003, 4.104304e+002
1.735369e+003, 4.122376e+002
1.737297e+003, 4.127739e+002
1.739226e+003, 4.122785e+002
1.741154e+003, 4.120975e+002
1.743083e+003, 4.122182e+002
1.745011e+003, 4.127364e+002
1.746939e+003, 4.144718e+002
1.748868e+003, 4.153923e+002
1.750797e+003, 4.140151e+002
1.752725e+003, 4.122187e+002
1.754653e+003, 4.118216e+002
1.756582e+003, 4.125165e+002
1.758510e+003, 4.127122e+002
1.760439e+003, 4.123183e+002
1.762367e+003, 4.118398e+002
1.764296e+003, 4.113843e+002
1.766224e+003, 4.108607e+002
1.768153e+003, 4.100345e+002
1.770081e+003, 4.094106e+002
1.772010e+003, 4.092869e+002
1.773938e+003, 4.097286e+002
1.775867e+003, 4.113148e+002
1.777795e+003, 4.143900e+002
1.779724e+003, 4.156753e+002
1.781652e+003, 4.136211e+002
1.783580e+003, 4.119849e+002
1.785509e+003, 4.122519e+002
1.787437e+003, 4.131244e+002
1.789366e+003, 4.138295e+002
1.791294e+003, 4.144064e+002
1.793223e+003, 4.151861e+002
1.795151e+003, 4.161876e+002
1.797080e+003, 4.159171e+002
1.799008e+003, 4.133849e+002
1.800937e+003, 4.119096e+002
1.802865e+003, 4.134119e+002
1.804794e+003, 4.152392e+002
1.806722e+003, 4.157999e+002
1.808651e+003, 4.155949e+002
1.810579e+003, 4.150691e+002
1.812507e+003, 4.143063e+002
1.814436e+003, 4.142763e+002
1.816364e+003, 4.153359e+002
1.818293e+003, 4.158234e+002
1.820221e+003, 4.145600e+002
1.822150e+003, 4.137157e+002
1.824078e+003, 4.149824e+002
1.826007e+003, 4.168205e+002
1.827935e+003, 4.174708e+002
1.829864e+003, 4.172305e+002
1.831792e+003, 4.171698e+002
1.833721e+003, 4.173495e+002
1.835649e+003, 4.176522e+002
1.837578e+003, 4.180939e+002
1.839506e+003, 4.185834e+002
1.841434e+003, 4.189444e+002
1.843363e+003, 4.194126e+002
1.845291e+003, 4.203784e+002
1.847220e+003, 4.214965e+002
1.849148e+003, 4.218977e+002
1.851077e+003, 4.214506e+002
1.853005e+003, 4.213981e+002
1.854934e+003, 4.220448e+002
1.856862e+003, 4.225860e+002
1.858791e+003, 4.228232e+002
1.860719e+003, 4.230900e+002
1.862648e+003, 4.238686e+002
1.864576e+003, 4.245411e+002
1.866505e+003, 4.242106e+002
1.868433e+003, 4.230372e+002
1.870361e+003, 4.221303e+002
1.872290e+003, 4.217660e+002
1.874218e+003, 4.210070e+002
1.876147e+003, 4.183986e+002
1.878075e+003, 4.175313e+002
1.880004e+003, 4.206493e+002
1.881932e+003, 4.241063e+002
1.883861e+003, 4.255831e+002
1.885789e+003, 4.258452e+002
1.887718e+003, 4.261745e+002
1.889646e+003, 4.265352e+002
1.891575e+003, 4.264759e+002
1.893503e+003, 4.257110e+002
1.895432e+003, 4.253418e+002
1.897360e+003, 4.258580e+002
1.899288e+003, 4.262675e+002
1.901217e+003, 4.260326e+002
1.903145e+003, 4.258623e+002
1.905074e+003, 4.267390e+002
1.907002e+003, 4.279796e+002
1.908931e+003, 4.276789e+002
1.910859e+003, 4.259950e+002
1.912788e+003, 4.257439e+002
1.914716e+003, 4.274190e+002
1.916645e+003, 4.290847e+002
1.918573e+003, 4.306971e+002
1.920502e+003, 4.314031e+002
1.922430e+003, 4.295750e+002
1.924359e+003, 4.277821e+002
1.926287e+003, 4.291389e+002
1.928215e+003, 4.321358e+002
1.930144e+003, 4.327359e+002
1.932072e+003, 4.308743e+002
1.934001e+003, 4.301417e+002
1.935929e+003, 4.313041e+002
1.937858e+003, 4.321384e+002
1.939786e+003, 4.319801e+002
1.941715e+003, 4.319287e+002
1.943643e+003, 4.326153e+002
1.945572e+003, 4.333518e+002
1.947500e+003, 4.333293e+002
1.949429e+003, 4.329212e+002
1.951357e+003, 4.331896e+002
1.953286e+003, 4.342410e+002
1.955214e+003, 4.346353e+002
1.957142e+003, 4.339406e+002
1.959071e+003, 4.335906e+002
1.960999e+003, 4.340380e+002
1.962928e+003, 4.344581e+002
1.964856e+003, 4.347168e+002
1.966785e+003, 4.348258e+002
1.968713e+003, 4.346760e+002
1.970642e+003, 4.344731e+002
1.972570e+003, 4.346649e+002
1.974499e+003, 4.351659e+002
1.976427e+003, 4.352080e+002
1.978356e+003, 4.345912e+002
1.980284e+003, 4.346977e+002
1.982213e+003, 4.361718e+002
1.984141e+003, 4.373215e+002
1.986069e+003, 4.367648e+002
1.987998e+003, 4.365634e+002
1.989926e+003, 4.387003e+002
1.991855e+003, 4.413549e+002
1.993783e+003, 4.419435e+002
1.995712e+003, 4.409839e+002
1.997640e+003, 4.408832e+002
1.999569e+003, 4.419476e+002
2.001497e+003, 4.424540e+002
2.003426e+003, 4.420475e+002
2.005354e+003, 4.416724e+002
2.007283e+003, 4.412081e+002
2.009211e+003, 4.410385e+002
2.011140e+003, 4.416940e+002
2.013068e+003, 4.423115e+002
2.014996e+003, 4.416782e+002
2.016925e+003, 4.407016e+002
2.018853e+003, 4.417926e+002
2.020782e+003, 4.448092e+002
2.022710e+003, 4.453551e+002
2.024639e+003, 4.427789e+002
2.026567e+003, 4.415248e+002
2.028496e+003, 4.426826e+002
2.030424e+003, 4.438133e+002
2.032353e+003, 4.440334e+002
2.034281e+003, 4.441790e+002
2.036210e+003, 4.448961e+002
2.038138e+003, 4.455939e+002
2.040067e+003, 4.454597e+002
2.041995e+003, 4.449049e+002
2.043923e+003, 4.451287e+002
2.045852e+003, 4.461186e+002
2.047780e+003, 4.461123e+002
2.049709e+003, 4.441292e+002
2.051637e+003, 4.437662e+002
2.053566e+003, 4.474749e+002
2.055494e+003, 4.495023e+002
2.057423e+003, 4.467142e+002
2.059351e+003, 4.442943e+002
2.061280e+003, 4.457884e+002
2.063208e+003, 4.484737e+002
2.065136e+003, 4.493792e+002
2.067065e+003, 4.491571e+002
2.068993e+003, 4.496101e+002
2.070922e+003, 4.507062e+002
2.072850e+003, 4.516237e+002
2.074779e+003, 4.522783e+002
2.076708e+003, 4.525939e+002
2.078636e+003, 4.523242e+002
2.080564e+003, 4.520435e+002
2.082493e+003, 4.521163e+002
2.084421e+003, 4.519153e+002
2.086350e+003, 4.505697e+002
2.088278e+003, 4.494093e+002
2.090207e+003, 4.501489e+002
2.092135e+003, 4.518845e+002
2.094064e+003, 4.528919e+002
2.095992e+003, 4.531911e+002
2.097921e+003, 4.525408e+002
2.099849e+003, 4.499629e+002
2.101778e+003, 4.492998e+002
2.103706e+003, 4.521652e+002
2.105635e+003, 4.538711e+002
2.107563e+003, 4.529095e+002
2.109491e+003, 4.520240e+002
2.111420e+003, 4.523273e+002
2.113348e+003, 4.528371e+002
2.115277e+003, 4.530800e+002
2.117205e+003, 4.531299e+002
2.119134e+003, 4.528259e+002
2.121062e+003, 4.524360e+002
2.122991e+003, 4.526975e+002
2.124919e+003, 4.535685e+002
2.126848e+003, 4.547876e+002
2.128776e+003, 4.566618e+002
2.130705e+003, 4.572566e+002
2.132633e+003, 4.549069e+002
2.134562e+003, 4.534482e+002
2.136490e+003, 4.539881e+002
2.138418e+003, 4.550531e+002
2.140347e+003, 4.564134e+002
2.142275e+003, 4.576748e+002
2.144204e+003, 4.588272e+002
2.146132e+003, 4.595187e+002
2.148061e+003, 4.586514e+002
2.149989e+003, 4.568172e+002
2.151918e+003, 4.568938e+002
2.153846e+003, 4.587941e+002
2.155775e+003, 4.596578e+002
2.157703e+003, 4.590363e+002
2.159632e+003, 4.589790e+002
2.161560e+003, 4.602694e+002
2.163489e+003, 4.608801e+002
2.165417e+003, 4.593828e+002
2.167345e+003, 4.581607e+002
2.169274e+003, 4.585909e+002
2.171202e+003, 4.592853e+002
2.173131e+003, 4.590533e+002
2.175059e+003, 4.586136e+002
2.176988e+003, 4.590826e+002
2.178916e+003, 4.601758e+002
2.180845e+003, 4.609012e+002
2.182773e+003, 4.612793e+002
2.184702e+003, 4.616082e+002
2.186630e+003, 4.618772e+002
2.188559e+003, 4.619398e+002
2.190487e+003, 4.615103e+002
2.192416e+003, 4.618028e+002
2.194344e+003, 4.638786e+002
2.196272e+003, 4.651161e+002
2.198201e+003, 4.634630e+002
2.200129e+003, 4.620512e+002
2.202058e+003, 4.629175e+002
2.203986e+003, 4.646126e+002
2.205915e+003, 4.663231e+002
2.207843e+003, 4.675803e+002
2.209772e+003, 4.671374e+002
2.211700e+003, 4.654730e+002
2.213629e+003, 4.650814e+002
2.215557e+003, 4.659929e+002
2.217486e+003, 4.661255e+002
2.219414e+003, 4.652166e+002
2.221343e+003, 4.655356e+002
2.223271e+003, 4.680395e+002
2.225199e+003, 4.693417e+002
2.227128e+003, 4.678943e+002
2.229056e+003, 4.663634e+002
2.230985e+003, 4.651126e+002
2.232913e+003, 4.647667e+002
2.234842e+003, 4.661465e+002
2.236770e+003, 4.681172e+002
2.238699e+003, 4.702441e+002
2.240627e+003, 4.719322e+002
2.242556e+003, 4.718192e+002
2.244484e+003, 4.705148e+002
2.246413e+003, 4.700156e+002
2.248341e+003, 4.702866e+002
2.250270e+003, 4.711475e+002
2.252198e+003, 4.726028e+002
2.254126e+003, 4.739315e+002
2.256055e+003, 4.751040e+002
2.257983e+003, 4.758403e+002
2.259912e+003, 4.759992e+002
2.261840e+003, 4.758286e+002
2.263769e+003, 4.750387e+002
2.265697e+003, 4.743896e+002
2.267626e+003, 4.741059e+002
2.269554e+003, 4.741446e+002
2.271483e+003, 4.748550e+002
2.273411e+003, 4.756047e+002
2.275340e+003, 4.759892e+002
2.277268e+003, 4.759466e+002
2.279197e+003, 4.749526e+002
2.281125e+003, 4.735254e+002
2.283053e+003, 4.731760e+002
2.284982e+003, 4.737685e+002
2.286910e+003, 4.740683e+002
2.288839e+003, 4.738885e+002
2.290767e+003, 4.740504e+002
2.292696e+003, 4.745923e+002
2.294624e+003, 4.753332e+002
2.296553e+003, 4.762699e+002
2.298481e+003, 4.774210e+002
2.300410e+003, 4.793839e+002
2.302338e+003, 4.806541e+002
2.304267e+003, 4.805427e+002
2.306195e+003, 4.800614e+002
2.308124e+003, 4.794196e+002
2.310052e+003, 4.790250e+002
2.311980e+003, 4.790346e+002
2.313909e+003, 4.795869e+002
2.315837e+003, 4.810982e+002
2.317766e+003, 4.831084e+002
2.319694e+003, 4.840713e+002
2.321623e+003, 4.846767e+002
2.323551e+003, 4.887628e+002
2.325480e+003, 4.963754e+002
2.327408e+003, 5.020284e+002
2.329337e+003, 5.058017e+002
2.331265e+003, 5.052358e+002
2.333194e+003, 4.993848e+002
2.335122e+003, 4.943434e+002
2.337051e+003, 4.911220e+002
2.338979e+003, 4.886666e+002
2.340907e+003, 4.874370e+002
2.342836e+003, 4.859714e+002
2.344764e+003, 4.830916e+002
2.346693e+003, 4.810953e+002
2.348621e+003, 4.810146e+002
2.350550e+003, 4.819698e+002
2.352478e+003, 4.843463e+002
2.354407e+003, 4.863859e+002
2.356335e+003, 4.859876e+002
2.358264e+003, 4.846974e+002
2.360192e+003, 4.845788e+002
2.362121e+003, 4.849814e+002
2.364049e+003, 4.843295e+002
2.365978e+003, 4.832232e+002
2.367906e+003, 4.840919e+002
2.369834e+003, 4.869033e+002
2.371763e+003, 4.887211e+002
2.373691e+003, 4.894873e+002
2.375620e+003, 4.893973e+002
2.377548e+003, 4.881381e+002
2.379477e+003, 4.875270e+002
2.381405e+003, 4.878232e+002
2.383334e+003, 4.880405e+002
2.385262e+003, 4.879396e+002
2.387191e+003, 4.879219e+002
2.389119e+003, 4.880668e+002
2.391048e+003, 4.885025e+002
2.392976e+003, 4.895678e+002
2.394905e+003, 4.906276e+002
2.396833e+003, 4.917271e+002
2.398761e+003, 4.923185e+002
2.400690e+003, 4.911795e+002
2.402618e+003, 4.902595e+002
2.404547e+003, 4.914776e+002
2.406475e+003, 4.933398e+002
2.408404e+003, 4.945331e+002
2.410332e+003, 4.950811e+002
2.412261e+003, 4.947873e+002
2.414189e+003, 4.940070e+002
2.416118e+003, 4.935775e+002
2.418046e+003, 4.934997e+002
2.419975e+003, 4.936401e+002
2.421903e+003, 4.940008e+002
2.423832e+003, 4.944865e+002
2.425760e+003, 4.950929e+002
2.427688e+003, 4.966925e+002
2.429617e+003, 4.995897e+002
2.431545e+003, 5.000370e+002
2.433474e+003, 4.960339e+002
2.435402e+003, 4.946040e+002
2.437331e+003, 4.989975e+002
2.439259e+003, 5.014801e+002
2.441188e+003, 5.006338e+002
2.443116e+003, 4.995784e+002
2.445045e+003, 4.983952e+002
2.446973e+003, 4.982022e+002
2.448902e+003, 5.004164e+002
2.450830e+003, 5.018253e+002
2.452759e+003, 4.997930e+002
2.454687e+003, 4.979103e+002
2.456615e+003, 4.984478e+002
2.458544e+003, 4.995591e+002
2.460472e+003, 5.002453e+002
2.462401e+003, 5.005571e+002
2.464329e+003, 5.004181e+002
2.466258e+003, 5.001129e+002
2.468186e+003, 4.992709e+002
2.470115e+003, 4.989999e+002
2.472043e+003, 5.019144e+002
2.473972e+003, 5.059301e+002
2.475900e+003, 5.062293e+002
2.477829e+003, 5.040631e+002
2.479757e+003, 5.040638e+002
2.481686e+003, 5.057228e+002
2.483614e+003, 5.053187e+002
2.485542e+003, 5.031302e+002
2.487471e+003, 5.018496e+002
2.489399e+003, 5.016037e+002
2.491328e+003, 5.028800e+002
2.493256e+003, 5.058996e+002
2.495185e+003, 5.078393e+002
2.497113e+003, 5.081930e+002
2.499042e+003, 5.082844e+002
2.500970e+003, 5.079745e+002
2.502899e+003, 5.075435e+002
2.504827e+003, 5.068605e+002
2.506756e+003, 5.063759e+002
2.508684e+003, 5.062418e+002
2.510613e+003, 5.060494e+002
2.512541e+003, 5.057411e+002
2.514469e+003, 5.054083e+002
2.516398e+003, 5.047520e+002
2.518326e+003, 5.047044e+002
2.520255e+003, 5.062840e+002
2.522183e+003, 5.073964e+002
2.524112e+003, 5.067916e+002
2.526040e+003, 5.063763e+002
2.527969e+003, 5.071921e+002
2.529897e+003, 5.080221e+002
2.531826e+003, 5.078140e+002
2.533754e+003, 5.078596e+002
2.535683e+003, 5.097262e+002
2.537611e+003, 5.114176e+002
2.539540e+003, 5.108415e+002
2.541468e+003, 5.098562e+002
2.543396e+003, 5.096763e+002
2.545325e+003, 5.104621e+002
2.547253e+003, 5.135952e+002
2.549182e+003, 5.165966e+002
2.551110e+003, 5.160543e+002
2.553039e+003, 5.136974e+002
2.554967e+003, 5.116408e+002
2.556896e+003, 5.101648e+002
2.558824e+003, 5.097602e+002
2.560753e+003, 5.104377e+002
2.562681e+003, 5.127966e+002
2.564610e+003, 5.159860e+002
2.566538e+003, 5.179508e+002
2.568467e+003, 5.185945e+002
2.570395e+003, 5.170046e+002
2.572323e+003, 5.138651e+002
2.574252e+003, 5.139173e+002
2.576180e+003, 5.167420e+002
2.578109e+003, 5.169632e+002
2.580037e+003, 5.149387e+002
2.581966e+003, 5.149217e+002
2.583894e+003, 5.168102e+002
2.585823e+003, 5.169177e+002
2.587751e+003, 5.149604e+002
2.589680e+003, 5.151154e+002
2.591608e+003, 5.178763e+002
2.593537e+003, 5.199744e+002
2.595465e+003, 5.213077e+002
2.597394e+003, 5.222089e+002
2.599322e+003, 5.226054e+002
2.601250e+003, 5.230583e+002
2.603179e+003, 5.236921e+002
2.605107e+003, 5.236593e+002
2.607036e+003, 5.224501e+002
2.608964e+003, 5.218024e+002
2.610893e+003, 5.219277e+002
2.612821e+003, 5.223871e+002
2.614750e+003, 5.234012e+002
2.616678e+003, 5.236894e+002
2.618607e+003, 5.227661e+002
2.620535e+003, 5.224077e+002
2.622464e+003, 5.230157e+002
2.624392e+003, 5.239724e+002
2.626321e+003, 5.256854e+002
2.628249e+003, 5.268248e+002
2.630177e+003, 5.274127e+002
2.632106e+003, 5.270159e+002
2.634034e+003, 5.249825e+002
2.635963e+003, 5.239314e+002
2.637891e+003, 5.248615e+002
2.639820e+003, 5.262047e+002
2.641748e+003, 5.281642e+002
2.643677e+003, 5.294948e+002
2.645605e+003, 5.299236e+002
2.647534e+003, 5.296700e+002
2.649462e+003, 5.282843e+002
2.651391e+003, 5.273355e+002
2.653319e+003, 5.273327e+002
2.655248e+003, 5.277029e+002
2.657176e+003, 5.283983e+002
2.659104e+003, 5.291735e+002
2.661033e+003, 5.303213e+002
2.662961e+003, 5.309831e+002
2.664890e+003, 5.308915e+002
2.666818e+003, 5.305638e+002
2.668747e+003, 5.300130e+002
2.670675e+003, 5.297150e+002
2.672604e+003, 5.300931e+002
2.674532e+003, 5.303992e+002
2.676461e+003, 5.300583e+002
2.678389e+003, 5.300227e+002
2.680318e+003, 5.306612e+002
2.682246e+003, 5.312974e+002
2.684175e+003, 5.317231e+002
2.686103e+003, 5.319138e+002
2.688031e+003, 5.319266e+002
2.689960e+003, 5.316429e+002
2.691888e+003, 5.307357e+002
2.693817e+003, 5.301273e+002
2.695745e+003, 5.302945e+002
2.697674e+003, 5.305872e+002
2.699602e+003, 5.303890e+002
2.701531e+003, 5.309722e+002
2.703459e+003, 5.337002e+002
2.705388e+003, 5.359543e+002
2.707316e+003, 5.365202e+002
2.709245e+003, 5.366840e+002
2.711173e+003, 5.366095e+002
2.713102e+003, 5.366027e+002
2.715030e+003, 5.368053e+002
2.716958e+003, 5.369987e+002
2.718887e+003, 5.371652e+002
2.720815e+003, 5.371910e+002
2.722744e+003, 5.363050e+002
2.724672e+003, 5.366588e+002
2.726601e+003, 5.401374e+002
2.728529e+003, 5.421871e+002
2.730458e+003, 5.404694e+002
2.732386e+003, 5.386810e+002
2.734315e+003, 5.377379e+002
2.736243e+003, 5.374919e+002
2.738172e+003, 5.384414e+002
2.740100e+003, 5.390574e+002
2.742029e+003, 5.389009e+002
2.743957e+003, 5.386949e+002
2.745885e+003, 5.386483e+002
2.747814e+003, 5.387693e+002
2.749742e+003, 5.389979e+002
2.751671e+003, 5.396838e+002
2.753599e+003, 5.413813e+002
2.755528e+003, 5.423706e+002
2.757456e+003, 5.418770e+002
2.759385e+003, 5.419666e+002
2.761313e+003, 5.433896e+002
2.763242e+003, 5.446047e+002
2.765170e+003, 5.453289e+002
2.767099e+003, 5.455272e+002
2.769027e+003, 5.448618e+002
2.770956e+003, 5.448093e+002
2.772884e+003, 5.458118e+002
2.774813e+003, 5.465490e+002
2.776741e+003, 5.467360e+002
2.778669e+003, 5.470681e+002
2.780598e+003, 5.478862e+002
2.782526e+003, 5.482970e+002
2.784455e+003, 5.482148e+002
2.786383e+003, 5.481511e+002
2.788312e+003, 5.481329e+002
2.790240e+003, 5.479437e+002
2.792169e+003, 5.471483e+002
2.794097e+003, 5.476685e+002
2.796026e+003, 5.498980e+002
2.797954e+003, 5.504177e+002
2.799883e+003, 5.491412e+002
2.801811e+003, 5.487047e+002
2.803740e+003, 5.493348e+002
2.805668e+003, 5.492383e+002
2.807596e+003, 5.483721e+002
2.809525e+003, 5.480135e+002
2.811453e+003, 5.481667e+002
2.813382e+003, 5.494131e+002
2.815310e+003, 5.512894e+002
2.817239e+003, 5.502358e+002
2.819167e+003, 5.471748e+002
2.821096e+003, 5.480927e+002
2.823024e+003, 5.516391e+002
2.824953e+003, 5.508274e+002
2.826881e+003, 5.475935e+002
2.828810e+003, 5.485477e+002
2.830738e+003, 5.513898e+002
2.832667e+003, 5.506013e+002
2.834595e+003, 5.479652e+002
2.836523e+003, 5.465499e+002
2.838452e+003, 5.463881e+002
2.840380e+003, 5.482307e+002
2.842309e+003, 5.507422e+002
2.844237e+003, 5.526732e+002
2.846166e+003, 5.537838e+002
2.848094e+003, 5.534191e+002
2.850023e+003, 5.524510e+002
2.851951e+003, 5.508859e+002
2.853880e+003, 5.501877e+002
2.855808e+003, 5.522211e+002
2.857737e+003, 5.545135e+002
2.859665e+003, 5.555172e+002
2.861594e+003, 5.559770e+002
2.863522e+003, 5.560702e+002
2.865450e+003, 5.561946e+002
2.867379e+003, 5.567076e+002
2.869307e+003, 5.568849e+002
2.871236e+003, 5.559056e+002
2.873164e+003, 5.552919e+002
2.875093e+003, 5.556862e+002
2.877021e+003, 5.561461e+002
2.878950e+003, 5.562142e+002
2.880878e+003, 5.573707e+002
2.882807e+003, 5.608654e+002
2.884735e+003, 5.625939e+002
2.886664e+003, 5.603768e+002
2.888592e+003, 5.592413e+002
2.890521e+003, 5.595449e+002
2.892449e+003, 5.594713e+002
2.894377e+003, 5.587744e+002
2.896306e+003, 5.593611e+002
2.898234e+003, 5.616865e+002
2.900163e+003, 5.625577e+002
2.902091e+003, 5.619535e+002
2.904020e+003, 5.608954e+002
2.905948e+003, 5.596530e+002
2.907877e+003, 5.597717e+002
2.909805e+003, 5.611234e+002
2.911734e+003, 5.636583e+002
2.913662e+003, 5.665017e+002
2.915591e+003, 5.666025e+002
2.917519e+003, 5.652365e+002
2.919448e+003, 5.647487e+002
2.921376e+003, 5.647945e+002
2.923304e+003, 5.651109e+002
2.925233e+003, 5.655216e+002
2.927161e+003, 5.658195e+002
2.929090e+003, 5.661662e+002
2.931018e+003, 5.673333e+002
2.932947e+003, 5.677333e+002
2.934875e+003, 5.650824e+002
2.936804e+003, 5.630948e+002
2.938732e+003, 5.645986e+002
2.940661e+003, 5.659647e+002
2.942589e+003, 5.660686e+002
2.944518e+003, 5.655995e+002
2.946446e+003, 5.641155e+002
2.948375e+003, 5.635292e+002
2.950303e+003, 5.646990e+002
2.952231e+003, 5.657403e+002
2.954160e+003, 5.665584e+002
2.956088e+003, 5.667776e+002
2.958017e+003, 5.662037e+002
2.959945e+003, 5.657380e+002
2.961874e+003, 5.653172e+002
2.963802e+003, 5.657599e+002
2.965731e+003, 5.669584e+002
2.967659e+003, 5.676735e+002
2.969588e+003, 5.679207e+002
2.971516e+003, 5.676464e+002
2.973445e+003, 5.671810e+002
2.975373e+003, 5.678494e+002
2.977302e+003, 5.687078e+002
2.979230e+003, 5.671882e+002
2.981158e+003, 5.653955e+002
2.983087e+003, 5.659716e+002
2.985015e+003, 5.675602e+002
2.986944e+003, 5.697463e+002
2.988872e+003, 5.712272e+002
2.990801e+003, 5.712331e+002
2.992729e+003, 5.704275e+002
2.994658e+003, 5.682224e+002
2.996586e+003, 5.668519e+002
2.998515e+003, 5.671511e+002
3.000443e+003, 5.681749e+002
3.002372e+003, 5.700996e+002
3.004300e+003, 5.712357e+002
3.006229e+003, 5.710204e+002
3.008157e+003, 5.707109e+002
3.010085e+003, 5.704080e+002
3.012014e+003, 5.699009e+002
3.013942e+003, 5.692648e+002
3.015871e+003, 5.698981e+002
3.017799e+003, 5.714883e+002
3.019728e+003, 5.713050e+002
3.021656e+003, 5.699781e+002
3.023585e+003, 5.694693e+002
3.025513e+003, 5.697333e+002
3.027442e+003, 5.708308e+002
3.029370e+003, 5.723158e+002
3.031299e+003, 5.742312e+002
3.033227e+003, 5.754162e+002
3.035156e+003, 5.745469e+002
3.037084e+003, 5.731014e+002
3.039012e+003, 5.707147e+002
3.040941e+003, 5.699949e+002
3.042869e+003, 5.741384e+002
3.044798e+003, 5.761110e+002
3.046726e+003, 5.737094e+002
3.048655e+003, 5.729166e+002
3.050583e+003, 5.759553e+002
3.052512e+003, 5.765164e+002
3.054440e+003, 5.738116e+002
3.056369e+003, 5.717587e+002
3.058297e+003, 5.704777e+002
3.060226e+003, 5.705005e+002
3.062154e+003, 5.716042e+002
3.064083e+003, 5.732419e+002
3.066011e+003, 5.748732e+002
3.067939e+003, 5.749594e+002
3.069868e+003, 5.743455e+002
3.071796e+003, 5.739298e+002
3.073725e+003, 5.736868e+002
3.075653e+003, 5.736038e+002
3.077582e+003, 5.738128e+002
3.079510e+003, 5.745398e+002
3.081439e+003, 5.753871e+002
3.083367e+003, 5.762164e+002
3.085296e+003, 5.772382e+002
3.087224e+003, 5.789240e+002
3.089153e+003, 5.791940e+002
3.091081e+003, 5.775964e+002
3.093010e+003, 5.768311e+002
3.094938e+003, 5.772227e+002
3.096866e+003, 5.765922e+002
3.098795e+003, 5.751701e+002
3.100723e+003, 5.748983e+002
3.102652e+003, 5.757917e+002
3.104580e+003, 5.788622e+002
3.106509e+003, 5.818328e+002
3.108437e+003, 5.805558e+002
3.110366e+003, 5.780958e+002
3.112294e+003, 5.766351e+002
3.114223e+003, 5.759180e+002
3.116151e+003, 5.760706e+002
3.118080e+003, 5.765942e+002
3.120008e+003, 5.777735e+002
3.121937e+003, 5.781331e+002
3.123865e+003, 5.770452e+002
3.125793e+003, 5.768926e+002
3.127722e+003, 5.781786e+002
3.129650e+003, 5.795137e+002
3.131579e+003, 5.807713e+002
3.133507e+003, 5.806119e+002
3.135436e+003, 5.795457e+002
3.137364e+003, 5.793220e+002
3.139293e+003, 5.798109e+002
3.141221e+003, 5.811175e+002
3.143150e+003, 5.826197e+002
3.145078e+003, 5.843929e+002
3.147007e+003, 5.850616e+002
3.148935e+003, 5.823655e+002
3.150864e+003, 5.805715e+002
3.152792e+003, 5.814725e+002
3.154720e+003, 5.817526e+002
3.156649e+003, 5.799664e+002
3.158577e+003, 5.796454e+002
3.160506e+003, 5.813984e+002
3.162434e+003, 5.802709e+002
3.164363e+003, 5.769652e+002
3.166291e+003, 5.780892e+002
3.168220e+003, 5.819105e+002
3.170148e+003, 5.835388e+002
3.172077e+003, 5.834935e+002
3.174005e+003, 5.812172e+002
3.175934e+003, 5.795777e+002
3.177862e+003, 5.825297e+002
3.179791e+003, 5.845849e+002
3.181719e+003, 5.822403e+002
3.183647e+003, 5.807608e+002
3.185576e+003, 5.816088e+002
3.187504e+003, 5.835089e+002
3.189433e+003, 5.868085e+002
3.191361e+003, 5.878061e+002
3.193290e+003, 5.865140e+002
3.195218e+003, 5.847285e+002
3.197147e+003, 5.828779e+002
3.199075e+003, 5.823107e+002
3.201004e+003, 5.826463e+002
3.202932e+003, 5.840638e+002
3.204861e+003, 5.850891e+002
3.206789e+003, 5.838976e+002
3.208718e+003, 5.827604e+002
3.210646e+003, 5.824570e+002
3.212574e+003, 5.830547e+002
3.214503e+003, 5.848376e+002
3.216431e+003, 5.858710e+002
3.218360e+003, 5.853580e+002
3.220288e+003, 5.864590e+002
3.222217e+003, 5.887325e+002
3.224145e+003, 5.876643e+002
3.226074e+003, 5.847795e+002
3.228002e+003, 5.841498e+002
3.229931e+003, 5.846056e+002
3.231859e+003, 5.845077e+002
3.233788e+003, 5.847094e+002
3.235716e+003, 5.862543e+002
3.237645e+003, 5.874612e+002
3.239573e+003, 5.877414e+002
3.241501e+003, 5.872935e+002
3.243430e+003, 5.857947e+002
3.245358e+003, 5.855458e+002
3.247287e+003, 5.867674e+002
3.249215e+003, 5.879508e+002
3.251144e+003, 5.889905e+002
3.253072e+003, 5.893132e+002
3.255001e+003, 5.894631e+002
3.256929e+003, 5.907678e+002
3.258858e+003, 5.918124e+002
3.260786e+003, 5.913145e+002
3.262715e+003, 5.904769e+002
3.264643e+003, 5.896805e+002
3.266572e+003, 5.889355e+002
3.268500e+003, 5.880832e+002
3.270428e+003, 5.882672e+002
3.272357e+003, 5.896631e+002
3.274285e+003, 5.900264e+002
3.276214e+003, 5.896013e+002
3.278142e+003, 5.891885e+002
3.280071e+003, 5.895484e+002
3.281999e+003, 5.926249e+002
3.283928e+003, 5.958274e+002
3.285856e+003, 5.970630e+002
3.287785e+003, 5.973048e+002
3.289713e+003, 5.968120e+002
3.291642e+003, 5.958516e+002
3.293570e+003, 5.940711e+002
3.295499e+003, 5.936599e+002
3.297427e+003, 5.945170e+002
3.299355e+003, 5.937310e+002
3.301284e+003, 5.921843e+002
3.303212e+003, 5.936853e+002
3.305141e+003, 5.959297e+002
3.307069e+003, 5.958956e+002
3.308998e+003, 5.950899e+002
3.310926e+003, 5.943981e+002
3.312855e+003, 5.934498e+002
3.314783e+003, 5.917947e+002
3.316712e+003, 5.919701e+002
3.318640e+003, 5.950572e+002
3.320569e+003, 5.946125e+002
3.322497e+003, 5.912422e+002
3.324426e+003, 5.929399e+002
3.326354e+003, 5.964672e+002
3.328282e+003, 5.954704e+002
3.330211e+003, 5.934869e+002
3.332139e+003, 5.941321e+002
3.334068e+003, 5.946000e+002
3.335996e+003, 5.937058e+002
3.337925e+003, 5.925311e+002
3.339853e+003, 5.910767e+002
3.341782e+003, 5.906608e+002
3.343710e+003, 5.913398e+002
3.345639e+003, 5.930472e+002
3.347567e+003, 5.950862e+002
3.349496e+003, 5.955046e+002
3.351424e+003, 5.953397e+002
3.353353e+003, 5.954064e+002
3.355281e+003, 5.957340e+002
3.357209e+003, 5.973629e+002
3.359138e+003, 5.967648e+002
3.361066e+003, 5.927001e+002
3.362995e+003, 5.916808e+002
3.364923e+003, 5.942493e+002
3.366852e+003, 5.940616e+002
3.368780e+003, 5.925231e+002
3.370709e+003, 5.934703e+002
3.372637e+003, 5.948259e+002
3.374566e+003, 5.937401e+002
3.376494e+003, 5.928700e+002
3.378423e+003, 5.934313e+002
3.380351e+003, 5.943553e+002
3.382280e+003, 5.955493e+002
3.384208e+003, 5.965075e+002
3.386136e+003, 5.972274e+002
3.388065e+003, 5.979764e+002
3.389993e+003, 5.985067e+002
3.391922e+003, 5.976111e+002
3.393851e+003, 5.969442e+002
3.395779e+003, 5.980969e+002
3.397708e+003, 5.998245e+002
3.399636e+003, 6.036284e+002
3.401564e+003, 6.026487e+002
3.403493e+003, 5.955608e+002
3.405421e+003, 5.931637e+002
3.407350e+003, 5.953644e+002
3.409278e+003, 5.974818e+002
3.411207e+003, 5.993645e+002
3.413135e+003, 6.010398e+002
3.415064e+003, 6.020226e+002
3.416992e+003, 6.012673e+002
3.418921e+003, 6.009957e+002
3.420849e+003, 6.020370e+002
3.422778e+003, 6.024187e+002
3.424706e+003, 6.017421e+002
3.426635e+003, 6.024904e+002
3.428563e+003, 6.037302e+002
3.430491e+003, 6.020529e+002
3.432420e+003, 6.000065e+002
3.434348e+003, 6.011623e+002
3.436277e+003, 6.024791e+002
3.438205e+003, 6.023588e+002
3.440134e+003, 6.028348e+002
3.442062e+003, 6.046146e+002
3.443991e+003, 6.046790e+002
3.445919e+003, 6.034211e+002
3.447848e+003, 6.041927e+002
3.449776e+003, 6.054948e+002
3.451705e+003, 6.040620e+002
3.453633e+003, 6.026529e+002
3.455562e+003, 6.033723e+002
3.457490e+003, 6.042025e+002
3.459418e+003, 6.049635e+002
3.461347e+003, 6.042352e+002
3.463275e+003, 6.020013e+002
3.465204e+003, 6.000186e+002
3.467132e+003, 5.989313e+002
3.469061e+003, 6.014370e+002
3.470989e+003, 6.041844e+002
3.472918e+003, 6.047081e+002
3.474846e+003, 6.037664e+002
3.476775e+003, 6.009579e+002
3.478703e+003, 6.000707e+002
3.480632e+003, 6.017145e+002
3.482560e+003, 6.030596e+002
3.484489e+003, 6.039857e+002
3.486417e+003, 6.042288e+002
3.488345e+003, 6.040430e+002
3.490274e+003, 6.033734e+002
3.492202e+003, 6.031208e+002
3.494131e+003, 6.039005e+002
3.496059e+003, 6.037285e+002
3.497988e+003, 6.020976e+002
3.499916e+003, 6.003350e+002
3.501845e+003, 5.990565e+002
3.503773e+003, 6.008586e+002
3.505702e+003, 6.030046e+002
3.507630e+003, 6.025463e+002
3.509559e+003, 6.014632e+002
3.511487e+003, 5.998549e+002
3.513416e+003, 5.999664e+002
3.515344e+003, 6.020216e+002
3.517272e+003, 6.024478e+002
3.519201e+003, 6.019615e+002
3.521129e+003, 6.026271e+002
3.523058e+003, 6.038797e+002
3.524986e+003, 6.058147e+002
3.526915e+003, 6.067353e+002
3.528843e+003, 6.048873e+002
3.530772e+003, 6.043418e+002
3.532700e+003, 6.052137e+002
3.534629e+003, 6.072822e+002
3.536557e+003, 6.092971e+002
3.538486e+003, 6.079272e+002
3.540414e+003, 6.057387e+002
3.542343e+003, 6.041113e+002
3.544271e+003, 6.037985e+002
3.546199e+003, 6.054327e+002
3.548128e+003, 6.061865e+002
3.550056e+003, 6.059227e+002
3.551985e+003, 6.054324e+002
3.553913e+003, 6.051679e+002
3.555842e+003, 6.063431e+002
3.557770e+003, 6.075306e+002
3.559699e+003, 6.077227e+002
3.561627e+003, 6.081482e+002
3.563556e+003, 6.090687e+002
3.565484e+003, 6.088676e+002
3.567413e+003, 6.078615e+002
3.569341e+003, 6.083987e+002
3.571270e+003, 6.090294e+002
3.573198e+003, 6.080587e+002
3.575126e+003, 6.067250e+002
3.577055e+003, 6.051884e+002
3.578983e+003, 6.055203e+002
3.580912e+003, 6.081053e+002
3.582840e+003, 6.060603e+002
3.584769e+003, 6.024473e+002
3.586697e+003, 6.062492e+002
3.588626e+003, 6.108022e+002
3.590554e+003, 6.107109e+002
3.592483e+003, 6.100525e+002
3.594411e+003, 6.094951e+002
3.596340e+003, 6.096496e+002
3.598268e+003, 6.103873e+002
3.600197e+003, 6.114601e+002
3.602125e+003, 6.120490e+002
3.604053e+003, 6.107416e+002
3.605982e+003, 6.094178e+002
3.607910e+003, 6.085707e+002
3.609839e+003, 6.096463e+002
3.611767e+003, 6.130458e+002
3.613696e+003, 6.135020e+002
3.615624e+003, 6.119880e+002
3.617553e+003, 6.098303e+002
3.619481e+003, 6.083661e+002
3.621410e+003, 6.093411e+002
3.623338e+003, 6.094632e+002
3.625267e+003, 6.078422e+002
3.627195e+003, 6.079298e+002
3.629124e+003, 6.095426e+002
3.631052e+003, 6.121680e+002
3.632980e+003, 6.142730e+002
3.634909e+003, 6.138524e+002
3.636837e+003, 6.131028e+002
3.638766e+003, 6.128058e+002
3.640694e+003, 6.110344e+002
3.642623e+003, 6.080730e+002
3.644551e+003, 6.087560e+002
3.646480e+003, 6.109077e+002
3.648408e+003, 6.121094e+002
3.650337e+003, 6.121995e+002
3.652265e+003, 6.105843e+002
3.654194e+003, 6.105615e+002
3.656122e+003, 6.126169e+002
3.658051e+003, 6.151417e+002
3.659979e+003, 6.166910e+002
3.661907e+003, 6.136627e+002
3.663836e+003, 6.109468e+002
3.665764e+003, 6.118512e+002
3.667693e+003, 6.121923e+002
3.669621e+003, 6.110659e+002
3.671550e+003, 6.105476e+002
3.673478e+003, 6.107756e+002
3.675407e+003, 6.129191e+002
3.677335e+003, 6.143685e+002
3.679264e+003, 6.121597e+002
3.681192e+003, 6.112416e+002
3.683121e+003, 6.128187e+002
3.685049e+003, 6.123775e+002
3.686978e+003, 6.108825e+002
3.688906e+003, 6.121543e+002
3.690834e+003, 6.137201e+002
3.692763e+003, 6.134047e+002
3.694691e+003, 6.130931e+002
3.696620e+003, 6.130928e+002
3.698548e+003, 6.138157e+002
3.700477e+003, 6.149266e+002
3.702405e+003, 6.150600e+002
3.704334e+003, 6.150870e+002
3.706262e+003, 6.161154e+002
3.708191e+003, 6.161782e+002
3.710119e+003, 6.147227e+002
3.712048e+003, 6.139736e+002
3.713976e+003, 6.138917e+002
3.715905e+003, 6.140086e+002
3.717833e+003, 6.144307e+002
3.719761e+003, 6.158041e+002
3.721690e+003, 6.165701e+002
3.723618e+003, 6.164683e+002
3.725547e+003, 6.149850e+002
3.727475e+003, 6.130714e+002
3.729404e+003, 6.146627e+002
3.731332e+003, 6.167491e+002
3.733261e+003, 6.169150e+002
3.735189e+003, 6.170303e+002
3.737118e+003, 6.174732e+002
3.739046e+003, 6.167285e+002
3.740975e+003, 6.152454e+002
3.742903e+003, 6.136595e+002
3.744832e+003, 6.131109e+002
3.746760e+003, 6.155641e+002
3.748688e+003, 6.164364e+002
3.750617e+003, 6.151473e+002
3.752545e+003, 6.140165e+002
3.754474e+003, 6.133937e+002
3.756402e+003, 6.143772e+002
3.758331e+003, 6.152796e+002
3.760259e+003, 6.141985e+002
3.762188e+003, 6.153948e+002
3.764116e+003, 6.188853e+002
3.766045e+003, 6.197596e+002
3.767973e+003, 6.194113e+002
3.769902e+003, 6.208534e+002
3.771830e+003, 6.216885e+002
3.773759e+003, 6.200788e+002
3.775687e+003, 6.199789e+002
3.777615e+003, 6.212777e+002
3.779544e+003, 6.215190e+002
3.781472e+003, 6.211425e+002
3.783401e+003, 6.206940e+002
3.785329e+003, 6.197310e+002
3.787258e+003, 6.169569e+002
3.789186e+003, 6.176743e+002
3.791115e+003, 6.203214e+002
3.793043e+003, 6.184284e+002
3.794972e+003, 6.162619e+002
3.796900e+003, 6.180991e+002
3.798829e+003, 6.188182e+002
3.800757e+003, 6.167737e+002
3.802686e+003, 6.162908e+002
3.804614e+003, 6.170757e+002
3.806542e+003, 6.185974e+002
3.808471e+003, 6.204318e+002
3.810399e+003, 6.229203e+002
3.812328e+003, 6.220760e+002
3.814256e+003, 6.176504e+002
3.816185e+003, 6.178643e+002
3.818113e+003, 6.195353e+002
3.820042e+003, 6.182202e+002
3.821970e+003, 6.177149e+002
3.823899e+003, 6.193749e+002
3.825827e+003, 6.196063e+002
3.827756e+003, 6.189013e+002
3.829684e+003, 6.210706e+002
3.831613e+003, 6.227508e+002
3.833541e+003, 6.204368e+002
3.835469e+003, 6.184667e+002
3.837398e+003, 6.175042e+002
3.839326e+003, 6.188150e+002
3.841255e+003, 6.206982e+002
3.843183e+003, 6.196592e+002
3.845112e+003, 6.187256e+002
3.847040e+003, 6.196053e+002
3.848969e+003, 6.198898e+002
3.850897e+003, 6.194413e+002
3.852826e+003, 6.177605e+002
3.854754e+003, 6.166250e+002
3.856683e+003, 6.178286e+002
3.858611e+003, 6.192628e+002
3.860540e+003, 6.205737e+002
3.862468e+003, 6.199662e+002
3.864396e+003, 6.185646e+002
3.866325e+003, 6.182470e+002
3.868253e+003, 6.187055e+002
3.870182e+003, 6.202513e+002
3.872110e+003, 6.196822e+002
3.874039e+003, 6.175974e+002
3.875967e+003, 6.189338e+002
3.877896e+003, 6.209091e+002
3.879824e+003, 6.213665e+002
3.881753e+003, 6.208839e+002
3.883681e+003, 6.194250e+002
3.885610e+003, 6.182532e+002
3.887538e+003, 6.179102e+002
3.889467e+003, 6.196281e+002
3.891395e+003, 6.213809e+002
3.893323e+003, 6.224716e+002
3.895252e+003, 6.234737e+002
3.897180e+003, 6.242529e+002
3.899109e+003, 6.238658e+002
3.901037e+003, 6.231130e+002
3.902966e+003, 6.224211e+002
3.904894e+003, 6.218058e+002
3.906823e+003, 6.213614e+002
3.908751e+003, 6.221476e+002
3.910680e+003, 6.229633e+002
3.912608e+003, 6.221015e+002
3.914537e+003, 6.213271e+002
3.916465e+003, 6.207756e+002
3.918394e+003, 6.234480e+002
3.920322e+003, 6.273795e+002
3.922250e+003, 6.287664e+002
3.924179e+003, 6.289427e+002
3.926107e+003, 6.286793e+002
3.928036e+003, 6.258741e+002
3.929964e+003, 6.215286e+002
3.931893e+003, 6.201828e+002
3.933821e+003, 6.212697e+002
3.935750e+003, 6.262285e+002
3.937678e+003, 6.280312e+002
3.939607e+003, 6.260491e+002
3.941535e+003, 6.275407e+002
3.943464e+003, 6.285318e+002
3.945392e+003, 6.226065e+002
3.947321e+003, 6.200229e+002
3.949249e+003, 6.226247e+002
3.951177e+003, 6.232292e+002
3.953106e+003, 6.224492e+002
3.955034e+003, 6.208980e+002
3.956963e+003, 6.208854e+002
3.958891e+003, 6.247900e+002
3.960820e+003, 6.247712e+002
3.962748e+003, 6.225318e+002
3.964677e+003, 6.234803e+002
3.966605e+003, 6.234283e+002
3.968534e+003, 6.195074e+002
3.970462e+003, 6.193033e+002
3.972391e+003, 6.220859e+002
3.974319e+003, 6.196825e+002
3.976248e+003, 6.177159e+002
3.978176e+003, 6.216334e+002
3.980104e+003, 6.224921e+002
3.982033e+003, 6.197584e+002
3.983961e+003, 6.200785e+002
3.985890e+003, 6.221140e+002
3.987818e+003, 6.257180e+002
3.989747e+003, 6.271101e+002
3.991675e+003, 6.259627e+002
3.993604e+003, 6.259695e+002
3.995532e+003, 6.261855e+002
3.997461e+003, 6.254339e+002
3.999389e+003, 6.237333e+002
4.001318e+003, 6.207377e+002
4.003246e+003, 6.216472e+002
4.005175e+003, 6.237283e+002
4.007103e+003, 6.221722e+002
4.009031e+003, 6.208147e+002
4.010960e+003, 6.208721e+002
4.012888e+003, 6.208021e+002
4.014817e+003, 6.210950e+002
4.016745e+003, 6.233781e+002
4.018674e+003, 6.250041e+002
4.020602e+003, 6.250457e+002
4.022531e+003, 6.242347e+002
4.024459e+003, 6.233059e+002
4.026388e+003, 6.246172e+002
4.028316e+003, 6.251124e+002
4.030245e+003, 6.220322e+002
4.032173e+003, 6.234229e+002
4.034102e+003, 6.273843e+002
4.036030e+003, 6.287020e+002
4.037958e+003, 6.276776e+002
4.039887e+003, 6.234494e+002
4.041815e+003, 6.241716e+002
4.043744e+003, 6.280474e+002
4.045672e+003, 6.270167e+002
4.047601e+003, 6.264798e+002
4.049529e+003, 6.295976e+002
4.051458e+003, 6.303604e+002
4.053386e+003, 6.288810e+002
4.055315e+003, 6.268287e+002
4.057243e+003, 6.254542e+002
4.059172e+003, 6.261306e+002
4.061100e+003, 6.260804e+002
4.063029e+003, 6.257202e+002
4.064957e+003, 6.274092e+002
4.066885e+003, 6.283564e+002
4.068814e+003, 6.262303e+002
4.070742e+003, 6.259430e+002
4.072671e+003, 6.274329e+002
4.074599e+003, 6.309080e+002
4.076528e+003, 6.321017e+002
4.078456e+003, 6.283205e+002
4.080385e+003, 6.270576e+002
4.082313e+003, 6.279297e+002
4.084242e+003, 6.273733e+002
4.086170e+003, 6.264368e+002
4.088099e+003, 6.254073e+002
4.090027e+003, 6.247356e+002
4.091956e+003, 6.246089e+002
4.093884e+003, 6.257575e+002
4.095813e+003, 6.274469e+002
4.097741e+003, 6.306317e+002
4.099669e+003, 6.270246e+002
4.101598e+003, 6.210580e+002
4.103526e+003, 6.253580e+002
4.105455e+003, 6.286033e+002
4.107383e+003, 6.261935e+002
4.109312e+003, 6.257111e+002
4.111240e+003, 6.268992e+002
4.113169e+003, 6.292357e+002
4.115097e+003, 6.295314e+002
4.117026e+003, 6.264106e+002
4.118954e+003, 6.284091e+002
4.120883e+003, 6.322174e+002
4.122811e+003, 6.313239e+002
4.124740e+003, 6.300969e+002
4.126668e+003, 6.297071e+002
4.128597e+003, 6.292402e+002
4.130525e+003, 6.298074e+002
4.132454e+003, 6.348938e+002
4.134382e+003, 6.364997e+002
4.136311e+003, 6.329047e+002
4.138239e+003, 6.327550e+002
4.140167e+003, 6.328221e+002
4.142096e+003, 6.285517e+002
4.144024e+003, 6.262539e+002
4.145953e+003, 6.267147e+002
4.147881e+003, 6.304706e+002
4.149810e+003, 6.326954e+002
4.151738e+003, 6.285050e+002
4.153667e+003, 6.286285e+002
4.155595e+003, 6.326580e+002
4.157523e+003, 6.327696e+002
4.159452e+003, 6.324196e+002
4.161380e+003, 6.336782e+002
4.163309e+003, 6.336644e+002
4.165237e+003, 6.329692e+002
4.167166e+003, 6.343994e+002
4.169094e+003, 6.352626e+002
4.171023e+003, 6.341577e+002
4.172951e+003, 6.340276e+002
4.174880e+003, 6.345031e+002
4.176808e+003, 6.347336e+002
4.178737e+003, 6.355719e+002
4.180665e+003, 6.375055e+002
4.182594e+003, 6.366400e+002
4.184522e+003, 6.341356e+002
4.186451e+003, 6.295955e+002
4.188379e+003, 6.291174e+002
4.190308e+003, 6.330139e+002
4.192236e+003, 6.355297e+002
4.194165e+003, 6.362767e+002
4.196093e+003, 6.337389e+002
4.198021e+003, 6.340160e+002
4.199950e+003, 6.361436e+002
4.201878e+003, 6.351727e+002
4.203807e+003, 6.348580e+002
4.205735e+003, 6.371407e+002
4.207664e+003, 6.354539e+002
4.209592e+003, 6.331872e+002
4.211521e+003, 6.392576e+002
4.213449e+003, 6.413961e+002
4.215377e+003, 6.371754e+002
4.217306e+003, 6.360960e+002
4.219234e+003, 6.366102e+002
4.221163e+003, 6.372225e+002
4.223091e+003, 6.373773e+002
4.225020e+003, 6.371886e+002
4.226948e+003, 6.366446e+002
4.228877e+003, 6.372248e+002
4.230805e+003, 6.401135e+002
4.232734e+003, 6.412204e+002
4.234662e+003, 6.407918e+002
4.236591e+003, 6.395132e+002
4.238519e+003, 6.389623e+002
4.240448e+003, 6.396179e+002
4.242376e+003, 6.401536e+002
##END=



