##NAMES=Andalusite
##RRUFFID=R050449
##IDEAL CHEMISTRY=Al_2_SiO_5_
##LOCALITY=Itinga, Minas Gerais, Brazil
##OWNER=RRUFF
##SOURCE=Marcus Origlieri
##DESCRIPTION=Green fragment
##STATUS=The identification of this mineral has been confirmed by X-ray diffraction and chemical analysis
##URL=https://www.rruff.net/odr/rruff_sample/R050449
##MEASURED CHEMISTRY=Al_2.00_Fe^3+^_0.01_Si_0.99_O_5_
##DIFFRACTION SAMPLE DESCRIPTION=Powder
##CELL PARAMETERS=a: 7.7955 b: 7.8992 c: 5.556 alpha: 90 beta: 90 gamma: 90 volume: 342.13 crystal system: orthorhombic
##FILETYPE=Raman Processed
##RAMAN WAVELENGTH=780

143.3169, 35.78637
145.2454, 35.67945
147.1738, 35.55001
149.1023, 35.49029
151.0308, 35.48451
152.9592, 35.32618
154.8877, 34.70520
156.8162, 34.35770
158.7446, 34.72758
160.6731, 35.25521
162.6016, 35.23335
164.5300, 34.81092
166.4585, 34.71029
168.3870, 35.34134
170.3154, 35.69601
172.2439, 35.33977
174.1724, 34.89601
176.1008, 34.89994
178.0293, 35.19265
179.9578, 35.39452
181.8862, 35.41557
183.8147, 35.51243
185.7432, 35.76054
187.6716, 36.03105
189.6001, 36.31969
191.5286, 36.55882
193.4570, 36.60701
195.3855, 36.37822
197.3140, 36.28322
199.2424, 36.44902
201.1709, 36.58714
203.0994, 36.61042
205.0278, 36.55768
206.9563, 36.45405
208.8848, 36.29635
210.8132, 36.16603
212.7417, 35.94230
214.6702, 35.94370
216.5986, 36.44972
218.5271, 36.94776
220.4556, 37.03551
222.3840, 36.85662
224.3125, 36.90231
226.2410, 37.31997
228.1694, 37.64565
230.0979, 37.83080
232.0264, 37.97620
233.9548, 38.10993
235.8833, 38.25845
237.8118, 38.47504
239.7402, 38.76700
241.6687, 38.86795
243.5972, 38.71420
245.5256, 38.57310
247.4541, 38.40300
249.3826, 38.40490
251.3110, 38.80357
253.2395, 39.45013
255.1680, 39.89146
257.0964, 40.09324
259.0249, 40.39234
260.9534, 40.87258
262.8818, 41.32478
264.8103, 41.58012
266.7388, 41.84623
268.6672, 42.35213
270.5957, 43.04567
272.5242, 43.54931
274.4526, 43.79253
276.3811, 44.29329
278.3096, 45.17348
280.2380, 46.35842
282.1665, 47.95161
284.0950, 49.75253
286.0234, 51.39021
287.9519, 52.89149
289.8804, 54.81083
291.8088, 57.67212
293.7373, 59.20220
295.6658, 58.18391
297.5942, 56.28518
299.5227, 53.79136
301.4512, 51.15792
303.3796, 49.19094
305.3081, 47.85789
307.2366, 47.31670
309.1650, 47.84955
311.0935, 48.59002
313.0220, 49.28557
314.9504, 50.14447
316.8789, 51.58629
318.8074, 53.13583
320.7358, 53.99351
322.6643, 54.17849
324.5928, 53.84771
326.5212, 52.80815
328.4497, 51.57444
330.3782, 49.88161
332.3066, 48.40921
334.2351, 47.78338
336.1636, 47.65508
338.0920, 47.32960
340.0205, 46.78124
341.9490, 46.68380
343.8774, 47.47945
345.8059, 48.20381
347.7344, 48.36303
349.6628, 48.81824
351.5913, 50.55761
353.5198, 52.68608
355.4482, 54.00328
357.3767, 54.48622
359.3052, 54.41467
361.2336, 53.57246
363.1621, 52.50726
365.0906, 51.07653
367.0190, 49.62178
368.9475, 48.24134
370.8760, 46.98418
372.8044, 45.90185
374.7329, 44.99464
376.6614, 44.36168
378.5898, 44.13911
380.5183, 43.95365
382.4468, 43.80543
384.3752, 43.66509
386.3037, 43.46135
388.2322, 43.31535
390.1606, 43.40541
392.0891, 43.66384
394.0176, 43.74134
395.9460, 43.55655
397.8745, 43.41698
399.8030, 43.30257
401.7314, 43.29671
403.6599, 43.48001
405.5884, 43.70298
407.5168, 43.90009
409.4453, 44.07022
411.3738, 44.18404
413.3022, 44.24856
415.2307, 44.43418
417.1592, 44.80303
419.0876, 45.00244
421.0161, 44.89095
422.9446, 44.73643
424.8730, 44.62054
426.8015, 44.55481
428.7300, 44.58368
430.6584, 44.66570
432.5869, 44.65342
434.5154, 44.55029
436.4438, 44.57530
438.3723, 44.79469
440.3008, 44.96254
442.2292, 44.93711
444.1577, 44.93078
446.0862, 45.01567
448.0146, 45.17973
449.9431, 45.47289
451.8716, 45.84529
453.8000, 46.09668
455.7285, 46.22722
457.6570, 46.10468
459.5854, 45.52571
461.5139, 45.15990
463.4424, 45.33890
465.3708, 45.56885
467.2993, 45.55886
469.2278, 45.51867
471.1563, 45.75414
473.0847, 46.12666
475.0132, 46.25431
476.9417, 46.11944
478.8701, 46.16797
480.7986, 46.55668
482.7271, 46.93036
484.6555, 46.95797
486.5840, 47.29996
488.5125, 48.94183
490.4409, 50.49974
492.3694, 50.14151
494.2979, 48.69656
496.2263, 47.77943
498.1548, 47.43766
500.0833, 47.20661
502.0117, 47.07156
503.9402, 47.03556
505.8687, 47.19098
507.7971, 47.30543
509.7256, 47.23296
511.6541, 47.15472
513.5825, 47.19386
515.5110, 47.35186
517.4395, 47.64503
519.3679, 48.04963
521.2964, 48.38551
523.2249, 48.65043
525.1533, 48.89492
527.0818, 49.06086
529.0103, 49.27713
530.9387, 49.70819
532.8672, 50.02082
534.7957, 49.90973
536.7241, 49.70027
538.6526, 49.56392
540.5811, 49.56736
542.5095, 50.08699
544.4380, 51.22705
546.3665, 51.91882
548.2949, 52.06929
550.2234, 52.12904
552.1519, 52.15221
554.0803, 52.10088
556.0088, 51.86559
557.9373, 51.63983
559.8657, 51.64182
561.7942, 51.68121
563.7227, 51.46367
565.6511, 51.05618
567.5796, 50.69654
569.5081, 50.37759
571.4365, 50.20338
573.3650, 50.17361
575.2935, 50.37719
577.2219, 50.96545
579.1504, 51.42523
581.0789, 51.43977
583.0073, 51.43774
584.9358, 51.73643
586.8643, 52.02790
588.7927, 51.86664
590.7212, 51.50211
592.6497, 51.53524
594.5781, 51.92695
596.5066, 52.34801
598.4351, 52.77828
600.3635, 53.00398
602.2920, 52.92068
604.2205, 52.93943
606.1489, 53.30087
608.0774, 53.56349
610.0059, 53.51071
611.9343, 53.43407
613.8628, 53.48961
615.7913, 53.65869
617.7197, 53.97009
619.6482, 54.38729
621.5767, 54.80329
623.5051, 55.18853
625.4336, 55.43158
627.3621, 55.52850
629.2905, 55.45068
631.2190, 54.99086
633.1475, 54.76078
635.0759, 54.93020
637.0044, 55.17443
638.9329, 55.49418
640.8613, 55.76076
642.7898, 55.80190
644.7183, 55.78613
646.6467, 55.92020
648.5752, 56.12903
650.5037, 56.29591
652.4321, 56.41834
654.3606, 56.41589
656.2891, 56.17741
658.2175, 56.25731
660.1460, 57.10840
662.0745, 57.52317
664.0029, 57.09531
665.9314, 56.78939
667.8599, 56.94738
669.7883, 57.15563
671.7168, 57.21259
673.6453, 57.15211
675.5737, 56.88923
677.5022, 56.71746
679.4307, 57.09222
681.3591, 57.83951
683.2876, 58.44164
685.2161, 58.88824
687.1445, 58.91738
689.0730, 58.32369
691.0015, 58.31471
692.9299, 59.12485
694.8584, 59.61478
696.7869, 59.41989
698.7153, 59.44062
700.6438, 60.13995
702.5723, 60.78828
704.5007, 60.94151
706.4292, 61.03399
708.3577, 61.45958
710.2861, 61.83911
712.2146, 61.57869
714.1431, 61.05040
716.0715, 61.00507
718.0000, 61.35990
719.9285, 61.73524
721.8569, 62.08354
723.7854, 62.29188
725.7139, 62.38396
727.6423, 62.44843
729.5708, 62.48385
731.4993, 62.46105
733.4277, 62.31578
735.3562, 62.28394
737.2847, 62.61176
739.2131, 62.79525
741.1416, 62.48699
743.0701, 62.23553
744.9985, 62.39561
746.9270, 62.73506
748.8555, 63.14510
750.7839, 63.51265
752.7124, 63.51143
754.6409, 63.35417
756.5693, 63.70619
758.4978, 64.39809
760.4263, 64.71918
762.3547, 64.68102
764.2832, 64.59109
766.2117, 64.41367
768.1401, 64.55949
770.0686, 65.26857
771.9971, 65.79240
773.9255, 65.87624
775.8540, 65.99831
777.7825, 66.35551
779.7109, 66.59930
781.6394, 66.33873
783.5679, 66.25697
785.4963, 66.93303
787.4248, 67.71400
789.3533, 68.05986
791.2817, 68.29016
793.2102, 68.71571
795.1387, 69.21519
797.0671, 69.71593
798.9956, 70.18779
800.9241, 70.46083
802.8525, 70.58025
804.7810, 70.93183
806.7095, 71.54214
808.6379, 71.99332
810.5664, 72.26021
812.4949, 72.39283
814.4233, 72.31203
816.3518, 72.32461
818.2803, 72.44744
820.2087, 72.67651
822.1372, 73.03904
824.0657, 73.37814
825.9941, 73.73513
827.9226, 73.86999
829.8511, 73.52158
831.7795, 73.31258
833.7080, 73.61598
835.6365, 73.99976
837.5649, 74.32822
839.4934, 74.51970
841.4219, 74.39111
843.3503, 74.19234
845.2788, 74.20551
847.2073, 74.34823
849.1357, 74.55424
851.0642, 74.65993
852.9927, 74.26472
854.9211, 73.62577
856.8496, 73.41804
858.7781, 73.61346
860.7065, 74.07446
862.6350, 74.67323
864.5635, 74.90793
866.4919, 74.85577
868.4204, 74.66429
870.3489, 74.32536
872.2773, 74.41145
874.2058, 74.99760
876.1343, 75.41824
878.0627, 75.60014
879.9912, 75.49086
881.9197, 74.86246
883.8481, 74.98866
885.7766, 76.39619
887.7051, 77.68676
889.6335, 78.51318
891.5620, 79.33416
893.4905, 80.09001
895.4189, 81.15838
897.3474, 82.91762
899.2759, 84.46031
901.2043, 85.36917
903.1328, 86.18519
905.0613, 86.84065
906.9897, 87.95862
908.9182, 90.06360
910.8467, 92.46313
912.7751, 95.25887
914.7036, 97.57922
916.6321, 98.72448
918.5605, 98.88235
920.4890, 97.92725
922.4175, 96.43664
924.3459, 94.95412
926.2744, 93.37331
928.2029, 91.45155
930.1313, 89.40115
932.0598, 87.48442
933.9883, 85.80861
935.9167, 84.52074
937.8452, 83.53623
939.7737, 82.84251
941.7021, 82.43452
943.6306, 82.07800
945.5591, 81.69809
947.4875, 81.31263
949.4160, 81.01659
951.3445, 80.94964
953.2729, 81.01970
955.2014, 80.90089
957.1299, 80.65085
959.0583, 80.55300
960.9868, 80.58906
962.9153, 80.62336
964.8438, 80.64362
966.7722, 80.79076
968.7007, 81.08015
970.6292, 81.40333
972.5576, 81.75562
974.4861, 82.00737
976.4146, 82.17608
978.3430, 82.01334
980.2715, 81.45271
982.2000, 81.23784
984.1284, 81.48281
986.0569, 82.00428
987.9854, 82.74716
989.9138, 83.27222
991.8423, 83.53059
993.7708, 83.89539
995.6992, 84.46597
997.6277, 84.94131
999.5562, 85.22735
1001.485, 85.43822
1003.413, 85.63501
1005.342, 85.59174
1007.270, 85.14547
1009.198, 85.21103
1011.127, 86.12212
1013.055, 86.57986
1014.984, 86.24757
1016.912, 86.17117
1018.841, 86.57249
1020.769, 86.72739
1022.698, 86.44020
1024.626, 86.43189
1026.555, 86.88268
1028.483, 87.24293
1030.412, 87.43035
1032.340, 87.63915
1034.269, 87.98988
1036.197, 88.12220
1038.125, 87.79485
1040.054, 87.72500
1041.982, 88.08794
1043.911, 88.39245
1045.839, 88.57067
1047.768, 88.79047
1049.696, 89.02417
1051.625, 89.36514
1053.553, 89.91402
1055.482, 90.44758
1057.410, 90.99090
1059.339, 91.27015
1061.267, 91.13605
1063.196, 91.22210
1065.124, 91.77599
1067.052, 91.82542
1068.981, 91.06646
1070.909, 90.75045
1072.838, 91.07898
1074.766, 91.27113
1076.695, 91.18604
1078.623, 91.22559
1080.552, 91.54769
1082.480, 91.72515
1084.409, 91.60070
1086.337, 91.80364
1088.266, 92.46668
1090.194, 92.85947
1092.123, 92.88599
1094.051, 92.93531
1095.979, 93.07763
1097.908, 93.06282
1099.836, 92.87547
1101.765, 93.16451
1103.693, 93.83836
1105.622, 93.97560
1107.550, 93.71935
1109.479, 93.85252
1111.407, 94.26582
1113.336, 94.33418
1115.264, 94.16354
1117.193, 94.41897
1119.121, 95.01426
1121.050, 95.62740
1122.978, 96.19747
1124.906, 96.35142
1126.835, 96.17980
1128.763, 96.07476
1130.692, 96.20963
1132.620, 96.92163
1134.549, 97.72176
1136.477, 97.73791
1138.406, 97.41481
1140.334, 97.39028
1142.263, 97.51604
1144.191, 97.51289
1146.120, 97.59943
1148.048, 98.16700
1149.977, 98.77721
1151.905, 99.02815
1153.833, 99.20522
1155.762, 99.46152
1157.690, 99.72458
1159.619, 99.99157
1161.547, 100.2247
1163.476, 100.2622
1165.404, 100.3742
1167.333, 100.8283
1169.261, 101.3229
1171.190, 101.7723
1173.118, 102.0230
1175.047, 101.9370
1176.975, 102.0537
1178.904, 102.6166
1180.832, 102.9045
1182.760, 102.5669
1184.689, 102.6304
1186.617, 103.4421
1188.546, 103.9159
1190.474, 103.9170
1192.403, 103.9997
1194.331, 104.1151
1196.260, 104.4274
1198.188, 105.0062
1200.117, 105.2203
1202.045, 105.0652
1203.974, 105.3323
1205.902, 105.8930
1207.831, 106.0293
1209.759, 105.9441
1211.688, 106.1786
1213.616, 106.5698
1215.544, 106.7282
1217.473, 106.8587
1219.401, 107.4173
1221.330, 107.9311
1223.258, 107.7937
1225.187, 107.7104
1227.115, 108.2022
1229.044, 108.6864
1230.972, 108.8307
1232.901, 109.0527
1234.829, 109.6748
1236.758, 110.0824
1238.686, 109.9143
1240.615, 110.0680
1242.543, 110.8932
1244.471, 111.1505
1246.400, 110.6113
1248.328, 110.5535
1250.257, 111.0422
1252.185, 111.5657
1254.114, 112.0860
1256.042, 112.2523
1257.971, 112.1816
1259.899, 112.4834
1261.828, 113.0506
1263.756, 113.6021
1265.685, 114.0016
1267.613, 113.8714
1269.542, 113.8429
1271.470, 114.9669
1273.398, 116.0909
1275.327, 116.0159
1277.255, 115.7523
1279.184, 115.9058
1281.112, 116.2238
1283.041, 116.6876
1284.969, 117.1019
1286.898, 117.2817
1288.826, 117.6116
1290.755, 118.3034
1292.683, 118.7443
1294.612, 118.7017
1296.540, 119.3817
1298.469, 120.8220
1300.397, 121.1378
1302.325, 120.5345
1304.254, 120.1744
1306.182, 120.1153
1308.111, 120.6874
1310.039, 121.5814
1311.968, 122.2412
1313.896, 122.7067
1315.825, 123.0032
1317.753, 123.3178
1319.682, 123.9845
1321.610, 124.3903
1323.539, 124.0998
1325.467, 123.9539
1327.396, 124.1433
1329.324, 124.5270
1331.252, 125.1099
1333.181, 125.5600
1335.109, 125.9196
1337.038, 126.1681
1338.966, 126.1787
1340.895, 126.3809
1342.823, 126.9003
1344.752, 127.2711
1346.680, 127.4142
1348.609, 127.6615
1350.537, 128.0035
1352.466, 128.1001
1354.394, 128.2013
1356.323, 128.6710
1358.251, 129.2607
1360.179, 129.9234
1362.108, 130.4100
1364.036, 130.6357
1365.965, 130.6479
1367.893, 130.4812
1369.822, 130.6259
1371.750, 131.0088
1373.679, 131.3378
1375.607, 131.5906
1377.536, 131.3809
1379.464, 131.2354
1381.393, 132.0823
1383.321, 132.9317
1385.250, 133.0705
1387.178, 133.1105
1389.106, 133.1182
1391.035, 133.3950
1392.963, 134.2050
1394.892, 134.9726
1396.820, 135.5107
1398.749, 135.9715
1400.677, 136.4586
1402.606, 136.6944
1404.534, 136.7151
1406.463, 136.8564
1408.391, 137.0827
1410.320, 137.3139
1412.248, 137.6020
1414.177, 137.9704
1416.105, 138.4222
1418.033, 139.0773
1419.962, 139.4799
1421.890, 139.3904
1423.819, 139.6062
1425.747, 139.9552
1427.676, 140.8047
1429.604, 141.3883
1431.533, 141.7205
1433.461, 141.0481
1435.390, 141.6730
1437.318, 141.7780
1439.247, 141.8617
1441.175, 142.6691
1443.104, 142.1429
1445.032, 142.9388
1446.960, 143.3655
1448.889, 143.7584
1450.817, 143.7073
1452.746, 143.9937
1454.674, 144.6159
1456.603, 145.2778
1458.531, 145.7991
1460.460, 145.5701
1462.388, 145.1924
1464.317, 145.4371
1466.245, 145.8725
1468.174, 146.2975
1470.102, 146.6442
1472.031, 146.7386
1473.959, 147.0411
1475.887, 147.7540
1477.816, 148.3198
1479.744, 148.6277
1481.673, 148.4362
1483.601, 148.0780
1485.530, 148.7051
1487.458, 149.5547
1489.387, 149.5531
1491.315, 149.4499
1493.244, 149.6917
1495.172, 150.0805
1497.101, 150.8057
1499.029, 151.1323
1500.958, 150.8241
1502.886, 151.0636
1504.814, 151.7385
1506.743, 151.9025
1508.671, 151.7617
1510.600, 151.9899
1512.528, 152.4499
1514.457, 152.8464
1516.385, 153.2802
1518.314, 153.9636
1520.242, 154.4259
1522.171, 154.4101
1524.099, 154.4113
1526.028, 154.5861
1527.956, 154.7051
1529.885, 154.8192
1531.813, 155.1905
1533.741, 155.6947
1535.670, 156.3005
1537.598, 156.6538
1539.527, 156.4527
1541.455, 156.7497
1543.384, 157.7984
1545.312, 158.5131
1547.241, 159.0526
1549.169, 159.4482
1551.098, 159.5221
1553.026, 159.5352
1554.955, 159.7474
1556.883, 160.2188
1558.812, 160.5051
1560.740, 160.6057
1562.668, 160.9949
1564.597, 161.5535
1566.525, 161.8772
1568.454, 162.0437
1570.382, 161.7779
1572.311, 161.5202
1574.239, 162.2194
1576.168, 163.0647
1578.096, 163.6427
1580.025, 163.9913
1581.953, 163.8650
1583.882, 164.0609
1585.810, 164.5598
1587.739, 164.6646
1589.667, 164.5525
1591.595, 164.4013
1593.524, 164.5105
1595.452, 165.1092
1597.381, 165.6080
1599.309, 165.4537
1601.238, 165.7520
1603.166, 167.1101
1605.095, 167.1577
1607.023, 166.2544
1608.952, 166.5882
1610.880, 167.3850
1612.809, 167.3034
1614.737, 167.0802
1616.666, 167.6341
1618.594, 168.0454
1620.522, 167.9753
1622.451, 168.4192
1624.379, 169.1305
1626.308, 169.0407
1628.236, 168.8578
1630.165, 169.7446
1632.093, 170.6718
1634.022, 170.8988
1635.950, 170.7481
1637.879, 170.5286
1639.807, 170.9274
1641.736, 171.6781
1643.664, 171.8379
1645.593, 171.8676
1647.521, 172.4344
1649.449, 172.7665
1651.378, 172.4489
1653.306, 172.5226
1655.235, 173.1441
1657.163, 173.3255
1659.092, 173.0914
1661.020, 173.4924
1662.949, 174.0279
1664.877, 173.7996
1666.806, 173.6618
1668.734, 174.1400
1670.663, 174.9194
1672.591, 175.6267
1674.520, 175.7656
1676.448, 175.7585
1678.376, 176.2883
1680.305, 176.9843
1682.233, 176.7443
1684.162, 176.5565
1686.090, 177.1556
1688.019, 177.9217
1689.947, 178.9235
1691.876, 179.3820
1693.804, 179.2422
1695.733, 178.8337
1697.661, 178.6731
1699.590, 179.2502
1701.518, 179.7683
1703.447, 179.8377
1705.375, 180.0148
1707.303, 180.5553
1709.232, 181.4315
1711.160, 181.9724
1713.089, 182.1301
1715.017, 182.1440
1716.946, 181.4513
1718.874, 181.3466
1720.803, 182.1538
1722.731, 181.8601
1724.660, 181.3547
1726.588, 182.6780
1728.517, 183.3621
1730.445, 182.3640
1732.374, 182.4261
1734.302, 183.6100
1736.230, 183.5238
1738.159, 182.9279
1740.087, 183.2159
1742.016, 183.6046
1743.944, 183.6430
1745.873, 183.9286
1747.801, 184.6258
1749.730, 185.7757
1751.658, 186.7671
1753.587, 186.4670
1755.515, 185.8643
1757.444, 185.6035
1759.372, 185.4954
1761.301, 185.6958
1763.229, 185.8569
1765.157, 185.9747
1767.086, 186.2435
1769.014, 186.5867
1770.943, 187.2146
1772.871, 187.5143
1774.800, 187.2639
1776.728, 187.3627
1778.657, 187.8675
1780.585, 187.9638
1782.514, 187.5555
1784.442, 187.9116
1786.371, 188.8566
1788.299, 190.2697
1790.228, 190.9023
1792.156, 190.6063
1794.084, 189.7953
1796.013, 189.1325
1797.941, 189.7094
1799.870, 190.3417
1801.798, 190.5559
1803.727, 190.8525
1805.655, 190.8239
1807.584, 190.5371
1809.512, 190.4324
1811.441, 190.7454
1813.369, 191.2975
1815.298, 191.9140
1817.226, 192.0921
1819.155, 191.9923
1821.083, 191.6061
1823.011, 191.1670
1824.940, 191.8009
1826.868, 192.6741
1828.797, 193.1807
1830.725, 192.9270
1832.654, 192.4624
1834.582, 192.1963
1836.511, 192.0498
1838.439, 192.5769
1840.368, 193.6524
1842.296, 194.1553
1844.225, 193.2536
1846.153, 192.7178
1848.082, 193.3216
1850.010, 193.5251
1851.938, 193.2285
1853.867, 193.6418
1855.795, 194.6426
1857.724, 194.4444
1859.652, 193.6023
1861.581, 193.8368
1863.509, 194.3236
1865.438, 194.1832
1867.366, 194.1743
1869.295, 194.5727
1871.223, 194.4287
1873.152, 194.3241
1875.080, 195.1096
1877.009, 195.5483
1878.937, 194.9158
1880.865, 194.6738
1882.794, 195.0679
1884.722, 194.9918
1886.651, 194.5458
1888.579, 194.8487
1890.508, 195.2032
1892.436, 194.9334
1894.365, 194.5166
1896.293, 194.4622
1898.222, 195.4417
1900.150, 196.0358
1902.079, 196.2589
1904.007, 195.3578
1905.936, 195.6344
1907.864, 195.2715
1909.792, 195.3246
1911.721, 195.8553
1913.649, 196.0139
1915.578, 196.3766
1917.506, 197.4891
1919.435, 197.3741
1921.363, 197.0906
1923.292, 197.0064
1925.220, 196.5141
1927.149, 196.0586
1929.077, 196.2741
1931.006, 197.4863
1932.934, 197.9899
1934.863, 197.3624
1936.791, 197.0756
1938.719, 197.3926
1940.648, 196.9325
1942.576, 196.3141
1944.505, 196.7688
1946.433, 197.0822
1948.362, 197.6041
1950.290, 197.8919
1952.219, 197.7656
1954.147, 197.6382
1956.076, 197.6777
1958.004, 198.2193
1959.933, 198.5198
1961.861, 198.1684
1963.790, 197.7419
1965.718, 197.4770
1967.646, 197.4542
1969.575, 197.7518
1971.503, 197.8865
1973.432, 197.6700
1975.360, 197.7053
1977.289, 198.2486
1979.217, 198.2688
1981.146, 197.8336
1983.074, 198.2478
1985.003, 198.8385
1986.931, 198.8359
1988.860, 198.7116
1990.788, 198.4764
1992.717, 198.2680
1994.645, 197.7908
1996.573, 197.5177
1998.502, 197.6363
2000.430, 198.0728
2002.359, 198.1692
2004.287, 197.5361
2006.216, 197.5744
2008.144, 197.7613
2010.073, 197.5498
2012.001, 198.0401
2013.930, 198.2718
2015.858, 197.8940
2017.787, 197.7736
2019.715, 197.6598
2021.644, 197.3714
2023.572, 197.0068
2025.500, 197.6310
2027.429, 197.8826
2029.357, 197.5178
2031.286, 197.8041
2033.214, 197.8517
2035.143, 197.3823
2037.071, 197.3979
2039.000, 197.4954
2040.928, 197.7265
2042.857, 197.9758
2044.785, 197.5960
2046.714, 197.1052
2048.642, 197.0112
2050.571, 197.1703
2052.499, 197.2582
2054.427, 196.4032
2056.356, 196.2720
2058.284, 197.0939
2060.213, 196.5204
2062.141, 195.5968
2064.070, 195.7961
2065.998, 195.8526
2067.927, 195.8022
2069.855, 195.8853
2071.784, 195.3613
2073.712, 195.4642
2075.641, 196.4955
2077.569, 196.4064
2079.498, 195.7647
2081.426, 195.8731
2083.354, 196.0262
2085.283, 196.3235
2087.211, 196.5414
2089.140, 195.9367
2091.068, 195.5306
2092.997, 195.4831
2094.925, 196.0854
2096.854, 196.6875
2098.782, 196.5384
2100.711, 196.8913
2102.639, 196.7896
2104.568, 195.4585
2106.496, 194.8004
2108.425, 195.2842
2110.353, 194.9942
2112.281, 193.9062
2114.210, 194.2435
2116.138, 194.4748
2118.067, 193.8194
2119.995, 193.9859
2121.924, 194.7847
2123.852, 195.3579
2125.781, 195.0396
2127.709, 194.4793
2129.638, 194.1152
2131.566, 193.9377
2133.495, 194.0276
2135.423, 193.7083
2137.352, 193.4061
2139.280, 193.2596
2141.208, 192.8980
2143.137, 192.5670
2145.065, 192.2534
2146.994, 192.3848
2148.922, 193.0506
2150.851, 192.9881
2152.779, 192.8938
2154.708, 193.2498
2156.636, 193.0175
2158.565, 193.0001
2160.493, 193.1654
2162.422, 193.3162
2164.350, 192.8486
2166.279, 192.8208
2168.207, 192.9613
2170.135, 192.4340
2172.064, 192.3971
2173.992, 192.6985
2175.921, 192.5417
2177.849, 191.8828
2179.778, 191.5070
2181.706, 191.2835
2183.635, 190.2485
2185.563, 189.3291
2187.492, 189.5596
2189.420, 190.1056
2191.349, 190.1971
2193.277, 190.0156
2195.206, 190.1158
2197.134, 189.9875
2199.063, 189.8483
2200.991, 189.5459
2202.919, 188.9287
2204.848, 188.6909
2206.776, 188.5467
2208.705, 188.5058
2210.633, 188.1275
2212.562, 188.1020
2214.490, 188.3584
2216.419, 188.1564
2218.347, 187.9550
2220.276, 187.3488
2222.204, 186.8200
2224.133, 187.2442
2226.061, 187.2759
2227.990, 187.0682
2229.918, 187.1707
2231.846, 187.3255
2233.775, 186.3188
2235.703, 185.3808
2237.632, 185.4891
2239.560, 185.4843
2241.489, 184.8215
2243.417, 184.8571
2245.346, 185.0821
2247.274, 184.9438
2249.203, 185.1508
2251.131, 184.8250
2253.060, 184.4053
2254.988, 183.8122
2256.917, 183.0399
2258.845, 183.0329
2260.773, 182.9591
2262.702, 182.7900
2264.630, 182.7204
2266.559, 182.6109
2268.487, 182.7652
2270.416, 183.3519
2272.344, 182.9213
2274.273, 181.7968
2276.201, 181.5233
2278.130, 181.5300
2280.058, 181.5310
2281.987, 181.1263
2283.915, 180.8026
2285.844, 180.2402
2287.772, 179.9682
2289.700, 180.0894
2291.629, 180.2018
2293.557, 179.9275
2295.486, 180.2168
2297.414, 180.0525
2299.343, 178.7304
2301.271, 178.8417
2303.200, 179.7814
2305.128, 179.2021
2307.057, 178.5383
2308.985, 178.2699
2310.914, 177.7387
2312.842, 177.5153
2314.771, 177.6450
2316.699, 177.7643
2318.627, 177.0796
2320.556, 176.0727
2322.484, 176.3630
2324.413, 176.7506
2326.341, 176.2485
2328.270, 176.6030
2330.198, 177.4535
2332.127, 176.5768
2334.055, 176.0955
2335.984, 176.4658
2337.912, 175.3385
2339.841, 174.2611
2341.769, 173.6677
2343.698, 173.2468
2345.626, 173.0518
2347.554, 173.5991
2349.483, 174.0288
2351.411, 173.1305
2353.340, 173.1845
2355.268, 173.7517
2357.197, 173.0329
2359.125, 172.9213
2361.054, 173.2782
2362.982, 172.8125
2364.911, 171.7656
2366.839, 171.1667
2368.768, 171.3218
2370.696, 170.7469
2372.625, 169.9530
2374.553, 169.7671
2376.481, 169.6414
2378.410, 169.0429
2380.338, 168.7372
2382.267, 169.5164
2384.195, 169.6905
2386.124, 168.9107
2388.052, 167.9005
2389.981, 167.7660
2391.909, 168.1669
2393.838, 168.4980
2395.766, 168.4343
2397.695, 168.0316
2399.623, 167.4765
2401.552, 166.5252
2403.480, 166.2353
2405.408, 166.1914
2407.337, 165.6945
2409.265, 165.6877
2411.194, 165.4705
2413.122, 165.2556
2415.051, 164.8158
2416.979, 163.8572
2418.908, 163.8303
2420.836, 163.7295
2422.765, 162.3330
2424.693, 162.1893
2426.622, 162.9444
2428.550, 162.4488
2430.479, 161.8156
2432.407, 161.7662
2434.335, 161.7553
2436.264, 161.6204
2438.192, 161.9294
2440.121, 161.3445
2442.049, 160.5700
2443.978, 160.2404
2445.906, 159.3777
2447.835, 159.2146
2449.763, 158.8848
2451.692, 157.9252
2453.620, 157.7143
2455.549, 158.2099
2457.477, 158.1261
2459.406, 157.8289
2461.334, 157.4405
2463.262, 157.0087
2465.191, 157.0153
2467.119, 155.9907
2469.048, 154.8614
2470.976, 154.7822
2472.905, 155.1292
2474.833, 155.1855
2476.762, 153.9118
2478.690, 153.7700
2480.619, 154.1167
2482.547, 153.5017
2484.476, 153.0615
2486.404, 153.0988
2488.333, 152.4161
2490.261, 151.8008
2492.189, 151.8982
2494.118, 151.6823
2496.046, 151.0191
2497.975, 150.3010
2499.903, 150.1400
2501.832, 150.1706
2503.760, 149.6363
2505.689, 149.2723
2507.617, 148.8668
2509.546, 147.9045
2511.474, 148.2178
2513.403, 148.7585
2515.331, 148.1451
2517.260, 147.7731
2519.188, 147.7417
2521.116, 147.1848
2523.045, 146.4638
2524.973, 145.8282
2526.902, 145.6211
2528.830, 145.5838
2530.759, 145.3122
2532.687, 144.5758
2534.616, 143.7605
2536.544, 143.5616
2538.473, 143.6172
2540.401, 143.5015
2542.330, 142.9505
2544.258, 142.6000
2546.187, 142.6691
2548.115, 142.1240
2550.043, 141.9012
2551.972, 141.8053
2553.900, 140.9467
2555.829, 140.9426
2557.757, 140.9998
2559.686, 140.6677
2561.614, 140.5871
2563.543, 140.2472
2565.471, 138.5261
2567.400, 137.9986
2569.328, 137.7608
2571.257, 137.3082
2573.185, 136.4835
2575.114, 136.1045
2577.042, 137.0380
2578.970, 136.8199
2580.899, 136.0085
2582.827, 135.6578
2584.756, 134.7200
2586.684, 133.6322
2588.613, 133.7855
2590.541, 133.5560
2592.470, 132.9018
2594.398, 132.0975
2596.327, 131.9692
2598.255, 132.1152
2600.184, 131.7856
2602.112, 131.6518
2604.041, 131.3340
2605.969, 130.2876
2607.897, 130.1965
2609.826, 130.2620
2611.754, 129.4837
2613.683, 129.3992
2615.611, 129.6694
2617.540, 128.5260
2619.468, 128.1403
2621.397, 128.0732
2623.325, 127.1013
2625.254, 126.5172
2627.182, 125.9637
2629.111, 124.8678
2631.039, 124.6079
2632.968, 124.7706
2634.896, 124.9278
2636.824, 124.2115
2638.753, 123.1453
2640.681, 122.2009
2642.610, 122.5482
2644.538, 123.0676
2646.467, 122.7484
2648.395, 121.5545
2650.324, 120.3690
2652.252, 120.3004
2654.181, 119.8594
2656.109, 119.5243
2658.038, 119.4341
2659.966, 118.3960
2661.895, 117.6234
2663.823, 118.1469
2665.751, 117.8046
2667.680, 117.2257
2669.608, 116.8555
2671.537, 116.6805
2673.465, 116.1996
2675.394, 115.4304
2677.322, 115.4337
2679.251, 115.3025
2681.179, 115.0406
2683.108, 114.9337
2685.036, 114.4304
2686.965, 113.5668
2688.893, 113.6808
2690.822, 112.7297
2692.750, 110.9716
2694.678, 110.8996
2696.607, 111.1536
2698.535, 111.3920
2700.464, 111.0696
2702.392, 110.8049
2704.321, 110.4202
2706.249, 110.0181
2708.178, 109.3058
2710.106, 108.3762
2712.035, 107.3624
2713.963, 106.4660
2715.892, 106.2806
2717.820, 107.3372
2719.749, 107.4013
2721.677, 106.4992
2723.605, 104.4662
2725.534, 104.9952
2727.462, 105.4935
2729.391, 105.0932
2731.319, 104.4224
2733.248, 103.2518
2735.176, 102.2243
2737.105, 102.1222
2739.033, 102.3866
2740.962, 102.3148
2742.890, 101.3788
2744.819, 100.8960
2746.747, 100.8922
2748.676, 101.1503
2750.604, 101.1466
2752.532, 100.7160
2754.461, 99.54948
2756.389, 98.90536
2758.318, 98.60637
2760.246, 98.42342
2762.175, 97.93037
2764.103, 97.25915
2766.032, 96.45400
2767.960, 95.82692
2769.889, 95.59920
2771.817, 95.41160
2773.746, 94.02496
2775.674, 94.12980
2777.603, 95.03793
2779.531, 94.37395
2781.459, 93.68629
2783.388, 93.07021
2785.316, 92.38264
2787.245, 92.62539
2789.173, 92.37642
2791.102, 90.92607
2793.030, 91.02390
2794.959, 91.04838
2796.887, 90.73865
2798.816, 89.91116
2800.744, 89.14567
2802.673, 88.69973
2804.601, 88.65632
2806.530, 88.40568
2808.458, 87.98128
2810.386, 87.01546
2812.315, 87.33640
2814.243, 87.57275
2816.172, 87.06022
2818.100, 86.15665
2820.029, 85.37047
2821.957, 84.88832
2823.886, 85.32574
2825.814, 84.50990
2827.743, 83.28320
2829.671, 83.60306
2831.600, 82.76559
2833.528, 81.73133
2835.457, 81.87178
2837.385, 81.78947
2839.313, 81.15166
2841.242, 80.10143
2843.170, 79.98981
2845.099, 79.85623
2847.027, 79.51943
2848.956, 79.45184
2850.884, 79.25459
2852.813, 78.62060
2854.741, 77.61571
2856.670, 77.16942
2858.598, 77.25088
2860.527, 77.44736
2862.455, 76.07899
2864.384, 75.45981
2866.312, 75.45339
2868.240, 75.07554
2870.169, 74.48946
2872.097, 73.84590
2874.026, 73.53428
2875.954, 73.33310
2877.883, 72.89324
2879.811, 72.29371
2881.740, 71.56776
2883.668, 71.27525
2885.597, 71.23955
2887.525, 71.48910
2889.454, 70.80801
2891.382, 70.15747
2893.311, 69.98145
2895.239, 69.96872
2897.167, 69.65495
2899.096, 69.10318
2901.024, 68.77222
2902.953, 68.02412
2904.881, 67.56631
2906.810, 68.11259
2908.738, 67.33007
2910.667, 66.63945
2912.595, 66.46437
2914.524, 65.84325
2916.452, 65.61433
2918.381, 65.61955
2920.309, 65.41563
2922.238, 65.49828
2924.166, 64.89616
2926.094, 63.53172
2928.023, 63.32000
2929.951, 63.20115
2931.880, 62.87189
2933.808, 62.19190
2935.737, 62.16067
2937.665, 61.98521
2939.594, 61.42727
2941.522, 61.22895
2943.451, 60.90266
2945.379, 60.48680
2947.308, 60.89680
2949.236, 60.70247
2951.165, 59.95213
2953.093, 58.87557
2955.021, 58.04606
2956.950, 57.82251
2958.878, 57.92234
2960.807, 57.36051
2962.735, 57.07730
2964.664, 57.05204
2966.592, 56.89693
2968.521, 56.30944
2970.449, 56.60155
2972.378, 56.96755
2974.306, 55.69630
2976.235, 55.52391
2978.163, 55.31925
2980.092, 54.33028
2982.020, 54.77098
2983.948, 54.66740
2985.877, 53.91109
2987.805, 52.85802
2989.734, 52.15789
2991.662, 51.77493
2993.591, 51.60560
2995.519, 51.81757
2997.448, 51.85023
2999.376, 51.50455
3001.305, 50.83063
3003.233, 51.77425
3005.162, 51.50603
3007.090, 50.09093
3009.019, 49.85284
3010.947, 49.12181
3012.875, 48.66257
3014.804, 48.92145
3016.732, 48.78719
3018.661, 48.12598
3020.589, 47.65659
3022.518, 47.90463
3024.446, 47.45593
3026.375, 46.84571
3028.303, 46.53505
3030.232, 46.75148
3032.160, 46.63185
3034.089, 46.09289
3036.017, 45.57770
3037.946, 45.00307
3039.874, 44.63637
3041.802, 44.31155
3043.731, 44.17271
3045.659, 44.40288
3047.588, 44.00889
3049.516, 43.17447
3051.445, 43.73766
3053.373, 43.23223
3055.302, 42.35856
3057.230, 41.78644
3059.159, 41.60238
3061.087, 41.21644
3063.016, 40.95195
3064.944, 40.97835
3066.873, 40.99324
3068.801, 40.85740
3070.729, 40.75145
3072.658, 40.54101
3074.586, 39.86059
3076.515, 39.36085
3078.443, 39.10917
3080.372, 39.22974
3082.300, 38.95028
3084.229, 38.54036
3086.157, 38.46635
3088.086, 38.05584
3090.014, 37.94397
3091.943, 37.88765
3093.871, 37.32508
3095.800, 37.46362
3097.728, 37.22080
3099.656, 36.61781
3101.585, 36.72561
3103.513, 35.79571
3105.442, 35.54905
3107.370, 36.35908
3109.299, 36.02772
3111.227, 35.32774
3113.156, 34.73646
3115.084, 34.76015
3117.013, 34.44594
3118.941, 34.48975
3120.870, 34.58690
3122.798, 34.39532
3124.727, 33.82592
3126.655, 33.50779
3128.583, 33.27681
3130.512, 32.45940
3132.440, 32.55466
3134.369, 32.32582
3136.297, 31.77010
3138.226, 31.62688
3140.154, 31.60064
3142.083, 31.40941
3144.011, 31.11019
3145.940, 31.29312
3147.868, 29.97840
3149.797, 29.43440
3151.725, 30.24746
3153.654, 30.20674
3155.582, 30.33844
3157.510, 30.50410
3159.439, 30.65828
3161.367, 30.14395
3163.296, 29.43133
3165.224, 28.96744
3167.153, 28.77104
3169.081, 28.04249
3171.010, 27.80837
3172.938, 28.05358
3174.867, 28.57663
3176.795, 27.81519
3178.724, 27.85381
3180.652, 27.71189
3182.581, 26.69730
3184.509, 26.29024
3186.438, 26.33583
3188.366, 26.30276
3190.294, 26.13175
3192.223, 25.94714
3194.151, 25.46345
3196.080, 25.24800
3198.008, 25.74263
3199.937, 25.81002
3201.865, 25.40343
3203.794, 24.68020
3205.722, 24.05050
3207.651, 24.14205
3209.579, 24.10993
3211.508, 23.92847
3213.436, 24.00800
3215.365, 24.85899
3217.293, 23.98227
3219.221, 23.26366
3221.150, 23.54375
3223.078, 23.20085
3225.007, 22.99987
3226.935, 22.76021
3228.864, 22.32157
3230.792, 21.67380
3232.721, 21.64268
3234.649, 21.69278
3236.578, 21.62622
3238.506, 21.47350
3240.435, 21.32139
3242.363, 21.02160
3244.292, 20.77769
3246.220, 20.72590
3248.148, 20.06548
3250.077, 19.52808
3252.005, 19.19034
3253.934, 19.04232
3255.862, 19.05399
3257.791, 18.85007
3259.719, 18.75531
3261.648, 18.82658
3263.576, 17.80023
3265.505, 17.97702
3267.433, 18.42279
3269.362, 17.98114
3271.290, 17.12593
3273.219, 17.30866
3275.147, 17.63982
3277.075, 17.55264
3279.004, 16.71170
3280.932, 16.50484
3282.861, 16.73994
3284.789, 17.06356
3286.718, 16.95190
3288.646, 16.41770
3290.575, 16.07310
3292.503, 15.85844
3294.432, 15.59157
3296.360, 16.82509
3298.289, 16.73984
3300.217, 16.16866
3302.146, 15.93147
3304.074, 16.18978
3306.002, 15.47802
3307.931, 15.20475
3309.859, 15.57487
3311.788, 15.93169
3313.716, 15.76748
3315.645, 15.14760
3317.573, 14.62580
3319.502, 14.84411
3321.430, 15.51574
3323.359, 15.43670
3325.287, 14.80427
3327.216, 14.34437
3329.144, 15.46169
3331.073, 14.79862
3333.001, 14.10959
3334.929, 14.21301
3336.858, 14.82928
3338.786, 14.05180
3340.715, 13.32981
3342.643, 13.06000
3344.572, 12.96326
3346.500, 12.93366
3348.429, 12.46659
3350.357, 12.77722
3352.286, 13.55659
3354.214, 12.83593
3356.143, 12.97043
3358.071, 12.83905
3360.000, 12.60311
3361.928, 12.62599
3363.856, 12.27829
3365.785, 12.51178
3367.713, 12.64774
3369.642, 12.45404
3371.570, 12.14866
3373.499, 12.35367
3375.427, 12.25334
3377.356, 11.95094
3379.284, 11.86507
3381.213, 12.43525
3383.141, 11.97151
3385.070, 11.72880
3386.998, 11.77199
3388.927, 11.46517
3390.855, 11.67793
3392.783, 11.50042
3394.712, 11.41477
3396.640, 11.61581
3398.569, 11.53817
3400.497, 11.17294
3402.426, 11.64004
3404.354, 11.81897
3406.283, 10.54216
3408.211, 10.73354
3410.140, 10.61499
3412.068, 10.57203
3413.997, 10.78411
3415.925, 10.96317
3417.854, 10.44098
3419.782, 10.26156
3421.710, 10.36919
3423.639, 10.54322
3425.567, 10.82071
3427.496, 10.38902
3429.424, 10.14403
3431.353, 9.995669
3433.281, 9.749517
3435.210, 10.47094
3437.138, 9.898455
3439.067, 9.704538
3440.995, 9.799848
3442.924, 9.195570
3444.852, 8.825392
3446.781, 9.180498
3448.709, 9.570949
3450.637, 9.697377
3452.566, 9.768238
3454.494, 9.036103
3456.423, 8.961679
3458.351, 9.338619
3460.280, 9.544403
3462.208, 8.893250
3464.137, 8.328722
3466.065, 8.571896
3467.994, 8.812579
3469.922, 8.590119
3471.851, 8.331799
3473.779, 8.468534
3475.708, 8.100478
3477.636, 7.953475
3479.564, 8.389288
3481.493, 8.486061
3483.421, 7.376670
3485.350, 7.105377
3487.278, 7.258070
3489.207, 7.242002
3491.135, 7.702902
3493.064, 7.752105
3494.992, 7.376511
3496.921, 7.193206
3498.849, 7.449495
3500.778, 7.513147
3502.706, 7.182083
3504.635, 7.444160
3506.563, 7.182930
3508.491, 6.267044
3510.420, 7.616211
3512.348, 7.161146
3514.277, 6.465880
3516.205, 6.534133
3518.134, 7.141575
3520.062, 6.836339
3521.991, 6.940243
3523.919, 6.614476
3525.848, 6.303682
3527.776, 6.424724
3529.705, 6.945887
3531.633, 6.910005
3533.562, 5.926255
3535.490, 5.813704
3537.418, 6.208682
3539.347, 5.567874
3541.275, 6.049408
3543.204, 6.139464
3545.132, 5.856421
3547.061, 5.594980
3548.989, 5.718575
3550.918, 6.574609
3552.846, 6.097709
3554.775, 5.695532
3556.703, 5.675048
3558.632, 5.804787
3560.560, 5.948469
3562.489, 5.647100
3564.417, 5.899347
3566.345, 5.923295
3568.274, 5.497534
3570.202, 5.350039
3572.131, 5.582542
3574.059, 5.071395
3575.988, 4.811057
3577.916, 5.104842
3579.845, 5.487130
3581.773, 4.910138
3583.702, 5.260392
3585.630, 5.228132
3587.559, 4.936000
3589.487, 4.840460
3591.416, 5.021803
3593.344, 5.141840
3595.272, 5.179962
3597.201, 4.879220
3599.129, 4.772332
3601.058, 5.219899
3602.986, 4.285081
3604.915, 4.566982
3606.843, 4.746246
3608.772, 4.553195
3610.700, 4.301493
3612.629, 4.315497
3614.557, 4.360466
3616.486, 4.814248
3618.414, 4.621999
3620.343, 4.008422
3622.271, 3.685228
3624.199, 4.038984
3626.128, 3.792683
3628.056, 3.550134
3629.985, 3.698568
3631.913, 3.842388
3633.842, 3.389794
3635.770, 3.711087
3637.699, 3.549893
3639.627, 3.523529
3641.556, 3.647012
3643.484, 3.632298
3645.413, 3.296598
3647.341, 3.378870
3649.270, 3.220350
3651.198, 3.449752
3653.126, 3.877643
3655.055, 3.915107
3656.983, 3.258630
3658.912, 3.474335
3660.840, 3.400221
3662.769, 3.328438
3664.697, 3.545037
3666.626, 3.842982
3668.554, 3.486309
3670.483, 3.504345
3672.411, 3.516138
3674.340, 3.171035
3676.268, 2.802985
3678.197, 2.852359
3680.125, 3.599405
3682.053, 2.749153
3683.982, 2.872388
3685.910, 3.209708
3687.839, 3.175262
3689.767, 2.993345
3691.696, 3.330518
3693.624, 2.438109
3695.553, 2.410215
3697.481, 3.079729
3699.410, 3.139272
3701.338, 2.539706
3703.267, 3.006100
3705.195, 2.582452
3707.124, 2.225016
3709.052, 2.595286
3710.980, 2.913708
3712.909, 2.731826
3714.837, 2.561363
3716.766, 2.793441
3718.694, 2.351872
3720.623, 1.953522
3722.551, 1.646577
3724.480, 1.781308
3726.408, 2.579411
3728.337, 2.140038
3730.265, 2.976496
3732.194, 2.841451
3734.122, 2.150213
3736.051, 1.581491
3737.979, 1.440998
3739.907, 1.984171
3741.836, 1.664270
3743.764, 1.529191
3745.693, 1.903608
3747.621, 1.761967
3749.550, 1.392509
3751.478, 2.047456
3753.407, 1.848722
3755.335, 2.019019
3757.264, 1.764787
3759.192, 1.277333
3761.121, 1.263169
3763.049, 1.806827
3764.978, 1.917460
3766.906, 1.485989
3768.834, 1.851165
3770.763, 1.789812
3772.691, 1.594626
3774.620, 1.717512
3776.548, 1.950134
3778.477, 1.464036
3780.405, 1.239087
3782.334, 1.075290
3784.262, 1.403940
3786.191, 1.527035
3788.119, 1.242891
3790.048, 1.128921
3791.976, 0.9606524
3793.905, 1.589599
3795.833, 1.224124
3797.761, 1.828351
3799.690, 1.795924
3801.618, 0.6927852
3803.547, 0.6858764
3805.475, 0.9060452
3807.404, 1.358967
3809.332, 0.9076480
3811.261, 0.9820506
3813.189, 0.9254653
3815.118, 0.6866434
3817.046, 1.130093
3818.975, 0.6406451
3820.903, 0.2019187
3822.832, 1.038220
3824.760, 1.230736
3826.688, 0.6541911
3828.617, 0.4242271
3830.545, 1.030438
3832.474, 1.048489
3834.402, 1.098135
3836.331, 0.7688396
3838.259, 0.7133698
3840.188, 0.8033141
3842.116, 0.7054303
3844.045, 0.4787168
3845.973, 0.6192067
3847.902, 0.7808846
3849.830, 0.9437064
3851.759, 0.3348497
3853.687, 0.5351582
3855.615, 1.009234
3857.544, 0.8555800
3859.472, 0.6273885
3861.401, 1.247279
3863.329, 0.4212078
3865.258, 0.6789443
3867.186, 0.8918827
3869.115, 0.6675752
3871.043, 0.6531144
3872.972, 0.9087796
3874.900, 0.5880168
3876.829, 1.540096
3878.757, 0.5911711
3880.686, -0.4169451
3882.614, 3.1212941E-02
3884.542, 0.6341897
3886.471, 0.4027036
3888.399, -6.9954209E-02
3890.328, 0.4737967
3892.256, 9.8958731E-02
3894.185, 0.8128685
3896.113, 0.9478152
3898.042, 1.102510
3899.970, 1.014496
3901.899, 0.3891260
3903.827, -0.3113071
3905.756, -0.3036240
3907.684, -1.1104990E-02
3909.613, 0.5168439
3911.541, 0.3514190
3913.469, 7.6589987E-02
3915.398, -0.2852054
3917.326, -0.3108856
3919.255, 0.3533541
3921.183, 0.8795424
3923.112, -9.4237193E-02
3925.040, -0.7450250
3926.969, 0.1821639
3928.897, 0.3373891
3930.826, 0.1758713
3932.754, -8.0249861E-02
3934.683, -0.1446435
3936.611, 0.4550874
3938.540, -1.2065900E-02
3940.468, 8.8662364E-02
3942.396, 0.3985153
3944.325, -0.1983012
3946.253, -0.4428066
3948.182, 0.3482240
3950.110, 0.8371379
3952.039, 0.2761270
3953.967, -0.1349119
3955.896, -0.5409660
3957.824, 0.3124973
3959.753, 0.3135075
3961.681, -5.6339040E-02
3963.610, 0.1165196
3965.538, 0.4633982
3967.467, 0.4372217
3969.395, 5.2583478E-02
3971.323, -0.1930406
3973.252, -0.3925581
3975.180, 3.1733960E-02
3977.109, -0.5315391
3979.037, 2.3410544E-02
3980.966, 0.3126046
3982.894, 0.3503683
3984.823, -0.6164917
3986.751, -0.2860954
3988.680, -0.4755958
3990.608, -0.6863871
3992.537, -0.1734432
3994.465, -0.9941585
3996.394, -0.4926852
3998.322, -9.1066338E-02
4000.250, -0.9071084
4002.179, -1.134078
4004.107, -0.7900474
4006.036, -0.4275010
4007.964, 3.2768179E-02
4009.893, 0.2767621
4011.821, -0.1427830
4013.750, 2.6211619E-02
4015.678, 0.1787968
4017.607, -0.5946776
4019.535, -0.1602976
4021.464, -1.3362230E-02
4023.392, -0.3939315
4025.321, -0.2479084
4027.249, 0.1665350
4029.177, -0.1255933
4031.106, -0.7208790
4033.034, -0.6378435
4034.963, -0.2461663
4036.891, -6.5317467E-02
4038.820, -0.3544903
4040.748, -0.4086110
4042.677, -0.6598025
4044.605, -0.5798668
4046.534, -7.1612284E-02
4048.462, -0.1110700
4050.391, -1.011258
4052.319, -0.3248382
4054.248, -0.2861144
4056.176, -0.3960301
4058.104, -0.4436073
4060.033, -0.7567073
4061.961, -1.098040
4063.890, -1.085145
4065.818, -0.7882575
4067.747, -0.5583497
4069.675, -0.5860333
4071.604, -0.7340332
4073.532, -0.4058622
4075.461, -0.1104514
4077.389, -0.5471410
4079.318, -1.302128
4081.246, -1.118871
4083.175, -0.2935198
4085.103, -0.5910078
4087.031, -1.024385
4088.960, -0.5490134
4090.888, -0.9157310
4092.817, -0.4714859
4094.745, -0.2819993
4096.674, -0.2430141
4098.603, -0.4392632
4100.531, -0.4585299
4102.459, -9.2703924E-02
4104.388, -0.5521452
4106.316, -1.257895
4108.245, -1.395278
4110.173, -1.203947
4112.102, -1.102495
4114.030, -1.141632
4115.958, -1.250361
4117.887, -0.8185854
4119.815, -0.1565847
4121.744, -0.7649871
4123.672, -0.7280789
4125.601, -1.481302
4127.529, -1.518850
4129.458, -1.397023
4131.386, -1.463793
4133.315, -1.089474
4135.243, -0.6559618
4137.172, -0.2936257
4139.100, -1.058475
4141.029, -0.3871947
4142.957, -1.046428
4144.886, -0.8719138
4146.814, -0.8279884
4148.743, -1.126299
4150.671, -0.7313759
4152.600, -0.9434556
4154.528, -1.087556
4156.457, -0.6651248
4158.385, -0.5894087
4160.313, -0.7479349
4162.242, -0.8879243
4164.170, -0.4676090
4166.099, -1.184706
4168.027, -0.4002603
4169.956, -0.4323766
4171.884, -0.4610889
4173.813, -1.211780
4175.741, -0.8856164
4177.669, -0.1353313
4179.598, -0.3813427
4181.526, -1.081548
4183.455, -1.350202
4185.383, -1.135373
4187.312, -0.9296768
4189.240, -1.464428
4191.169, -0.2112986
4193.097, -1.149766
4195.026, -1.222351
4196.954, -0.7547385
4198.883, -0.3189009
4200.811, -1.367662
4202.740, -1.317701
4204.668, -1.111382
4206.597, -0.8285872
4208.525, -0.3424774
4210.454, -0.4529722
4212.382, -0.9089232
4214.311, -0.8720427
4216.239, -0.7781246
4218.167, -0.8938500
4220.096, -0.8150150
4222.024, -1.150221
4223.953, -0.9795990
4225.881, -0.8357803
4227.810, -1.204678
4229.738, -1.124423
4231.667, -0.5590837
4233.595, -0.8026590
4235.523, -0.7441161
4237.452, -0.7839779
4239.380, -0.7136987
4241.309, -0.5134153
4243.237, -0.7415599
4245.166, -1.011918
4247.094, -1.258341
4249.023, -1.916582
4250.951, -1.156358
4252.880, -1.901571
4254.808, -1.275221
4256.737, -1.212542
4258.665, -0.8063310
4260.594, -1.097709
4262.522, -0.5331830
4264.451, -0.4231955
4266.379, -1.706492
4268.308, -1.204604
4270.236, -1.220862
4272.165, -1.652570
4274.093, -1.552313
4276.021, -0.9567169
4277.950, -1.053238
4279.878, -1.704322
4281.807, -1.647560
4283.735, -1.386177
4285.664, -1.360177
4287.592, -1.132054
4289.521, -0.7402221
4291.449, -0.2757236
4293.377, -0.9667599
4295.306, -0.8310328
4297.234, -0.2595778
4299.163, -0.5699496
4301.091, -1.554253
4303.020, -1.376359
4304.948, -1.336208
4306.877, -1.323799
4308.805, -0.5786942
4310.734, -1.223688
4312.662, -0.9808921
4314.591, -0.5321400
4316.519, -1.377345
4318.448, -0.8264144
4320.376, -0.3826925
4322.305, -1.249745
4324.233, -1.245404
4326.162, -0.6359473
4328.090, -0.6783137
4330.019, -1.097283
4331.947, -0.7075690
4333.875, -0.8560910
4335.804, -0.6240082
4337.732, -1.347185
4339.661, -1.037577
4341.589, -1.015738
4343.518, -1.139393
4345.446, -0.5179122
4347.375, -1.410618
4349.303, -0.2316647
4351.231, -1.268054
4353.160, -1.261511
4355.088, -1.325562
4357.017, -0.6530003
4358.945, -0.9157532
4360.874, -0.7881175
4362.802, -0.5446705
4364.731, -0.6118194
4366.659, -0.6088388
4368.588, -0.4299456
4370.516, -0.9157483
4372.445, -0.6354420
4374.373, -0.4243157
4376.302, -0.4575750
4378.230, -0.8620402
4380.159, -1.073958
4382.087, -1.013049
##END=



