##NAMES=Andalusite
##RRUFFID=R050258
##IDEAL CHEMISTRY=Al_2_SiO_5_
##LOCALITY=Bautista Canyon, near Hemet, Riverside County, California, USA
##OWNER=RRUFF
##SOURCE=Marcus Origlieri
##DESCRIPTION=Brown fragment
##STATUS=The identification of this mineral has been confirmed by X-ray diffraction and chemical analysis
##URL=https://www.rruff.net/odr/rruff_sample/R050258
##MEASURED CHEMISTRY=Al_2.00_Si_1.00_O_5_
##DIFFRACTION SAMPLE DESCRIPTION=Powder
##CELL PARAMETERS=a: 7.7931 b: 7.8963 c: 5.5549 alpha: 90 beta: 90 gamma: 90 volume: 341.83 crystal system: orthorhombic
##FILETYPE=Raman Processed
##RAMAN WAVELENGTH=532

128.8457, 9680.921
130.7742, 9714.378
132.7026, 9763.064
134.6311, 9827.125
136.5596, 9906.972
138.4880, 10021.72
140.4165, 10148.99
142.3450, 10239.13
144.2734, 10276.55
146.2019, 10299.14
148.1304, 10324.86
150.0588, 10360.51
151.9873, 10385.71
153.9158, 10388.89
155.8442, 10378.78
157.7727, 10380.24
159.7012, 10408.31
161.6296, 10440.82
163.5581, 10463.10
165.4866, 10465.59
167.4150, 10477.99
169.3435, 10509.50
171.2720, 10557.72
173.2004, 10609.67
175.1289, 10662.31
177.0574, 10716.59
178.9858, 10773.98
180.9143, 10837.41
182.8428, 10892.65
184.7712, 10931.02
186.6997, 10943.66
188.6282, 10971.37
190.5566, 11022.97
192.4851, 11085.53
194.4136, 11144.80
196.3420, 11200.19
198.2705, 11252.85
200.1990, 11303.27
202.1274, 11351.65
204.0559, 11397.13
205.9844, 11433.58
207.9128, 11468.14
209.8413, 11511.56
211.7698, 11571.34
213.6983, 11633.31
215.6267, 11694.10
217.5552, 11753.92
219.4837, 11810.11
221.4121, 11858.26
223.3406, 11902.06
225.2691, 11949.07
227.1975, 12005.29
229.1260, 12057.96
231.0545, 12096.77
232.9829, 12117.08
234.9114, 12155.21
236.8399, 12232.03
238.7683, 12329.88
240.6968, 12406.40
242.6253, 12454.27
244.5537, 12493.30
246.4822, 12530.42
248.4107, 12560.62
250.3391, 12602.14
252.2676, 12661.88
254.1961, 12731.43
256.1245, 12794.27
258.0530, 12848.13
259.9814, 12895.11
261.9099, 12935.49
263.8384, 12963.65
265.7668, 12997.44
267.6953, 13045.43
269.6238, 13099.01
271.5522, 13144.80
273.4807, 13170.70
275.4092, 13201.62
277.3376, 13246.96
279.2661, 13309.86
281.1946, 13375.98
283.1230, 13446.75
285.0515, 13518.52
286.9800, 13586.05
288.9084, 13639.89
290.8369, 13695.01
292.7654, 13757.92
294.6938, 13827.66
296.6223, 13887.39
298.5508, 13932.45
300.4792, 13964.75
302.4077, 13984.04
304.3362, 13985.08
306.2646, 13980.88
308.1931, 13969.19
310.1216, 13953.30
312.0500, 13953.71
313.9785, 13988.23
315.9070, 14036.72
317.8354, 14082.69
319.7639, 14130.75
321.6924, 14172.52
323.6208, 14197.94
325.5493, 14209.54
327.4778, 14234.77
329.4063, 14290.69
331.3347, 14347.79
333.2632, 14378.78
335.1917, 14376.10
337.1201, 14379.21
339.0486, 14395.75
340.9771, 14424.73
342.9055, 14469.30
344.8340, 14545.32
346.7625, 14621.96
348.6909, 14679.72
350.6194, 14715.57
352.5479, 14757.78
354.4763, 14822.65
356.4048, 14896.40
358.3333, 14948.28
360.2617, 14962.92
362.1902, 14976.25
364.1187, 15005.05
366.0471, 15050.73
367.9756, 15086.28
369.9041, 15098.37
371.8326, 15105.14
373.7610, 15129.21
375.6895, 15176.71
377.6180, 15223.60
379.5464, 15258.05
381.4749, 15280.43
383.4034, 15312.73
385.3318, 15373.93
387.2603, 15429.62
389.1888, 15451.30
391.1172, 15435.91
393.0457, 15420.19
394.9742, 15407.41
396.9026, 15401.25
398.8311, 15414.34
400.7596, 15473.42
402.6880, 15527.33
404.6165, 15551.30
406.5450, 15548.83
408.4734, 15555.92
410.4019, 15584.28
412.3304, 15623.18
414.2588, 15663.56
416.1873, 15707.11
418.1158, 15750.04
420.0442, 15786.50
421.9727, 15819.79
423.9012, 15864.08
425.8296, 15935.25
427.7581, 16003.58
429.6866, 16050.96
431.6150, 16071.17
433.5435, 16090.78
435.4720, 16111.86
437.4004, 16133.78
439.3289, 16156.21
441.2574, 16187.43
443.1858, 16213.09
445.1143, 16223.83
447.0428, 16224.52
448.9712, 16244.99
450.8997, 16306.45
452.8282, 16375.33
454.7566, 16431.36
456.6851, 16471.24
458.6136, 16499.36
460.5420, 16500.06
462.4705, 16491.48
464.3990, 16504.86
466.3274, 16551.13
468.2559, 16605.29
470.1844, 16664.23
472.1128, 16731.06
474.0413, 16778.34
475.9698, 16790.41
477.8982, 16794.20
479.8267, 16805.63
481.7552, 16823.17
483.6836, 16850.92
485.6121, 16897.26
487.5406, 16952.88
489.4690, 16995.69
491.3975, 17020.14
493.3260, 17042.52
495.2544, 17066.81
497.1829, 17093.40
499.1114, 17128.16
501.0398, 17183.72
502.9683, 17238.69
504.8968, 17272.16
506.8252, 17274.28
508.7537, 17294.87
510.6822, 17367.46
512.6106, 17458.56
514.5391, 17518.74
516.4675, 17504.93
518.3960, 17502.19
520.3245, 17532.35
522.2529, 17590.08
524.1814, 17637.96
526.1099, 17670.86
528.0383, 17696.33
529.9668, 17717.19
531.8953, 17727.15
533.8237, 17747.98
535.7522, 17798.51
537.6807, 17852.22
539.6091, 17877.57
541.5376, 17865.85
543.4661, 17858.00
545.3945, 17863.82
547.3230, 17882.71
549.2515, 17913.51
551.1799, 17958.35
553.1084, 18009.47
555.0369, 18063.71
556.9653, 18119.02
558.8938, 18175.69
560.8223, 18243.49
562.7507, 18301.99
564.6792, 18337.01
566.6077, 18334.54
568.5361, 18336.79
570.4646, 18345.17
572.3931, 18363.21
574.3215, 18394.18
576.2500, 18446.42
578.1785, 18501.17
580.1069, 18564.78
582.0355, 18630.22
583.9639, 18660.60
585.8924, 18611.25
587.8209, 18576.10
589.7493, 18601.32
591.6778, 18683.01
593.6063, 18761.27
595.5347, 18839.16
597.4632, 18905.73
599.3917, 18950.84
601.3201, 18971.05
603.2486, 18988.27
605.1771, 18999.05
607.1055, 19011.55
609.0340, 19035.38
610.9625, 19081.80
612.8909, 19120.40
614.8194, 19139.93
616.7479, 19147.83
618.6763, 19166.39
620.6048, 19200.75
622.5333, 19238.04
624.4617, 19271.76
626.3902, 19302.53
628.3187, 19342.38
630.2471, 19405.88
632.1756, 19465.16
634.1041, 19497.42
636.0325, 19500.01
637.9610, 19525.35
639.8895, 19601.32
641.8179, 19685.82
643.7464, 19748.18
645.6749, 19776.48
647.6033, 19804.90
649.5318, 19837.16
651.4603, 19870.90
653.3887, 19906.00
655.3172, 19949.73
657.2457, 19977.87
659.1741, 19966.27
661.1026, 19935.64
663.0311, 19934.84
664.9595, 19991.97
666.8880, 20050.78
668.8165, 20094.60
670.7449, 20129.71
672.6734, 20183.65
674.6019, 20281.73
676.5303, 20362.44
678.4588, 20392.99
680.3873, 20362.42
682.3157, 20352.40
684.2442, 20372.29
686.1727, 20399.84
688.1011, 20424.70
690.0296, 20447.62
691.9581, 20467.14
693.8865, 20473.47
695.8150, 20485.84
697.7435, 20519.88
699.6719, 20600.37
701.6004, 20658.86
703.5289, 20679.00
705.4573, 20684.04
707.3858, 20698.48
709.3143, 20722.05
711.2427, 20752.56
713.1712, 20800.48
715.0997, 20853.63
717.0281, 20893.73
718.9566, 20915.61
720.8851, 20934.48
722.8135, 20944.09
724.7420, 20954.60
726.6705, 20982.58
728.5989, 21027.21
730.5274, 21087.64
732.4559, 21168.11
734.3843, 21261.07
736.3128, 21338.54
738.2413, 21386.63
740.1697, 21430.03
742.0982, 21482.43
744.0267, 21536.51
745.9551, 21563.63
747.8836, 21540.92
749.8121, 21524.96
751.7405, 21545.15
753.6690, 21605.99
755.5975, 21654.51
757.5259, 21692.39
759.4544, 21720.30
761.3829, 21725.29
763.3113, 21711.44
765.2398, 21725.64
767.1683, 21790.04
769.0967, 21863.55
771.0252, 21927.05
772.9537, 21980.98
774.8821, 22020.17
776.8106, 22050.81
778.7391, 22066.95
780.6675, 22048.88
782.5960, 21997.79
784.5245, 21989.38
786.4529, 22073.19
788.3814, 22171.04
790.3099, 22229.32
792.2383, 22224.37
794.1668, 22243.31
796.0953, 22302.18
798.0237, 22370.90
799.9522, 22429.96
801.8807, 22481.43
803.8091, 22521.20
805.7376, 22542.18
807.6661, 22559.74
809.5945, 22583.54
811.5230, 22612.64
813.4515, 22653.26
815.3799, 22702.26
817.3084, 22760.27
819.2369, 22840.12
821.1653, 22948.48
823.0938, 23006.80
825.0223, 22945.47
826.9507, 22867.99
828.8792, 22859.05
830.8077, 22946.03
832.7361, 23020.93
834.6646, 23083.91
836.5931, 23131.78
838.5215, 23155.17
840.4500, 23149.40
842.3785, 23155.42
844.3069, 23181.93
846.2354, 23219.95
848.1639, 23259.96
850.0923, 23298.57
852.0208, 23351.73
853.9493, 23440.57
855.8777, 23527.87
857.8062, 23580.28
859.7347, 23585.67
861.6631, 23601.28
863.5916, 23636.32
865.5201, 23675.21
867.4485, 23707.13
869.3770, 23731.48
871.3055, 23758.10
873.2339, 23810.68
875.1624, 23851.88
877.0909, 23852.04
879.0193, 23796.75
880.9478, 23779.05
882.8763, 23832.91
884.8047, 23895.96
886.7332, 23929.60
888.6617, 23936.31
890.5901, 23946.42
892.5186, 23955.66
894.4471, 23978.87
896.3755, 24033.86
898.3040, 24127.15
900.2325, 24191.34
902.1609, 24191.75
904.0894, 24204.75
906.0179, 24267.40
907.9464, 24370.12
909.8748, 24477.22
911.8033, 24582.79
913.7318, 24686.81
915.6602, 24790.14
917.5887, 24888.92
919.5172, 24969.32
921.4456, 25026.20
923.3741, 25070.27
925.3026, 25122.69
927.2310, 25165.98
929.1595, 25146.72
931.0880, 25030.47
933.0164, 24940.50
934.9449, 24944.17
936.8734, 24996.78
938.8018, 25020.86
940.7303, 24985.53
942.6588, 24973.17
944.5872, 25012.49
946.5157, 25071.51
948.4442, 25100.07
950.3726, 25084.44
952.3011, 25091.43
954.2296, 25153.20
956.1580, 25230.99
958.0865, 25292.68
960.0150, 25335.54
961.9434, 25376.37
963.8719, 25400.02
965.8004, 25434.29
967.7288, 25503.72
969.6573, 25619.07
971.5858, 25703.82
973.5142, 25736.53
975.4427, 25756.97
977.3712, 25785.61
979.2996, 25819.42
981.2281, 25843.44
983.1566, 25852.26
985.0850, 25859.58
987.0135, 25875.62
988.9420, 25897.39
990.8704, 25907.21
992.7989, 25880.19
994.7274, 25875.88
996.6558, 25922.00
998.5843, 25995.56
1000.513, 26048.78
1002.441, 26072.26
1004.370, 26116.99
1006.298, 26225.95
1008.227, 26345.42
1010.155, 26414.61
1012.084, 26404.78
1014.012, 26427.26
1015.940, 26520.71
1017.869, 26615.21
1019.797, 26655.25
1021.726, 26629.12
1023.654, 26632.07
1025.583, 26689.57
1027.511, 26753.21
1029.440, 26804.73
1031.368, 26848.76
1033.297, 26893.06
1035.225, 26943.53
1037.154, 26985.83
1039.082, 27007.21
1041.010, 27017.34
1042.939, 27038.91
1044.867, 27082.59
1046.796, 27121.57
1048.724, 27151.19
1050.653, 27179.18
1052.581, 27221.25
1054.510, 27282.13
1056.438, 27320.15
1058.367, 27282.26
1060.295, 27268.91
1062.224, 27348.47
1064.152, 27524.27
1066.081, 27673.92
1068.009, 27803.22
1069.938, 27889.77
1071.866, 27899.51
1073.794, 27855.19
1075.723, 27843.08
1077.651, 27876.94
1079.580, 27911.72
1081.508, 27928.75
1083.437, 27947.91
1085.365, 27994.35
1087.294, 28074.46
1089.222, 28145.28
1091.151, 28201.76
1093.079, 28245.16
1095.008, 28271.76
1096.936, 28279.22
1098.865, 28291.47
1100.793, 28298.49
1102.722, 28319.09
1104.650, 28370.45
1106.578, 28438.68
1108.507, 28484.39
1110.435, 28497.20
1112.364, 28517.21
1114.292, 28576.59
1116.221, 28637.92
1118.149, 28656.64
1120.078, 28620.56
1122.006, 28619.25
1123.935, 28692.47
1125.863, 28774.71
1127.792, 28830.34
1129.720, 28861.16
1131.649, 28913.22
1133.577, 29007.14
1135.505, 29088.23
1137.434, 29129.04
1139.362, 29151.45
1141.291, 29191.29
1143.219, 29252.00
1145.148, 29312.08
1147.076, 29375.92
1149.005, 29430.30
1150.933, 29463.40
1152.862, 29473.63
1154.790, 29492.16
1156.719, 29524.18
1158.647, 29561.91
1160.576, 29602.12
1162.504, 29647.04
1164.432, 29704.02
1166.361, 29777.87
1168.289, 29844.21
1170.218, 29891.65
1172.146, 29930.23
1174.075, 29969.19
1176.003, 30007.47
1177.932, 30036.48
1179.860, 30062.55
1181.789, 30073.81
1183.717, 30055.65
1185.646, 30026.58
1187.574, 30034.76
1189.503, 30106.76
1191.431, 30181.98
1193.359, 30249.47
1195.288, 30319.00
1197.216, 30398.13
1199.145, 30483.66
1201.073, 30565.20
1203.002, 30653.13
1204.930, 30714.74
1206.859, 30709.80
1208.787, 30674.89
1210.716, 30682.99
1212.644, 30751.60
1214.573, 30813.67
1216.501, 30851.55
1218.430, 30881.99
1220.358, 30913.66
1222.286, 30947.18
1224.215, 30993.12
1226.143, 31067.46
1228.072, 31137.93
1230.000, 31199.99
1231.929, 31252.21
1233.857, 31280.53
1235.786, 31263.76
1237.714, 31297.60
1239.643, 31430.53
1241.571, 31580.85
1243.500, 31706.23
1245.428, 31807.17
1247.357, 31882.70
1249.285, 31934.09
1251.214, 31961.08
1253.142, 31932.04
1255.070, 31903.09
1256.999, 31944.71
1258.927, 32087.63
1260.856, 32189.48
1262.784, 32189.03
1264.713, 32205.33
1266.641, 32309.20
1268.570, 32461.64
1270.498, 32539.22
1272.427, 32507.61
1274.355, 32491.58
1276.284, 32521.36
1278.212, 32568.06
1280.141, 32622.72
1282.069, 32684.37
1283.997, 32728.63
1285.926, 32751.08
1287.854, 32769.46
1289.783, 32792.01
1291.711, 32814.25
1293.640, 32823.18
1295.568, 32808.72
1297.497, 32831.54
1299.425, 32916.44
1301.354, 33013.60
1303.282, 33109.16
1305.211, 33201.58
1307.139, 33290.00
1309.068, 33378.32
1310.996, 33448.75
1312.924, 33500.82
1314.853, 33533.32
1316.781, 33521.02
1318.710, 33484.18
1320.638, 33518.49
1322.567, 33656.21
1324.495, 33786.03
1326.424, 33888.34
1328.352, 33956.34
1330.281, 33973.39
1332.209, 33943.98
1334.138, 33939.79
1336.066, 33989.59
1337.995, 34033.39
1339.923, 34049.04
1341.851, 34054.97
1343.780, 34068.39
1345.708, 34076.02
1347.637, 34132.08
1349.565, 34291.64
1351.494, 34424.52
1353.422, 34442.70
1355.351, 34409.46
1357.279, 34476.70
1359.208, 34701.66
1361.136, 34835.80
1363.065, 34783.23
1364.993, 34719.34
1366.922, 34727.61
1368.850, 34793.38
1370.778, 34888.72
1372.707, 35030.31
1374.635, 35113.20
1376.564, 35048.89
1378.492, 34984.54
1380.421, 35011.43
1382.349, 35110.74
1384.278, 35220.20
1386.206, 35355.55
1388.135, 35455.40
1390.063, 35476.00
1391.992, 35489.18
1393.920, 35554.88
1395.849, 35666.69
1397.777, 35728.05
1399.705, 35667.55
1401.634, 35656.19
1403.562, 35742.20
1405.491, 35851.90
1407.419, 35925.39
1409.348, 35964.15
1411.276, 36016.52
1413.205, 36116.66
1415.133, 36172.61
1417.062, 36121.35
1418.990, 36056.82
1420.919, 36070.55
1422.847, 36150.50
1424.776, 36217.57
1426.704, 36262.73
1428.632, 36313.08
1430.561, 36376.48
1432.489, 36451.07
1434.418, 36537.58
1436.346, 36632.21
1438.275, 36716.73
1440.203, 36776.91
1442.132, 36843.61
1444.060, 36924.07
1445.989, 37008.18
1447.917, 37093.79
1449.846, 37179.69
1451.774, 37245.64
1453.703, 37301.56
1455.631, 37329.12
1457.559, 37311.20
1459.488, 37290.34
1461.416, 37301.31
1463.345, 37344.92
1465.273, 37393.29
1467.202, 37452.94
1469.130, 37503.94
1471.059, 37516.08
1472.987, 37533.88
1474.916, 37594.40
1476.844, 37685.74
1478.773, 37755.88
1480.701, 37796.57
1482.630, 37844.14
1484.558, 37931.79
1486.486, 38011.92
1488.415, 38049.42
1490.343, 38061.01
1492.272, 38086.30
1494.200, 38124.11
1496.129, 38166.16
1498.057, 38186.00
1499.986, 38228.64
1501.914, 38352.11
1503.843, 38500.23
1505.771, 38573.84
1507.700, 38568.67
1509.628, 38552.18
1511.557, 38523.23
1513.485, 38516.08
1515.413, 38558.25
1517.342, 38627.80
1519.270, 38692.85
1521.199, 38751.86
1523.127, 38822.65
1525.056, 38923.63
1526.984, 38999.13
1528.913, 39005.25
1530.841, 38997.73
1532.770, 39035.69
1534.698, 39120.52
1536.627, 39192.74
1538.555, 39237.77
1540.484, 39298.10
1542.412, 39398.64
1544.340, 39500.38
1546.269, 39566.61
1548.197, 39606.52
1550.126, 39670.08
1552.054, 39785.05
1553.983, 39868.21
1555.911, 39898.55
1557.840, 39916.68
1559.768, 39937.29
1561.697, 39960.53
1563.625, 39992.36
1565.554, 40044.48
1567.482, 40066.32
1569.411, 40047.07
1571.339, 40020.43
1573.267, 39976.40
1575.196, 39946.92
1577.124, 39973.15
1579.053, 40051.09
1580.981, 40120.04
1582.910, 40162.34
1584.838, 40227.50
1586.767, 40343.55
1588.695, 40460.39
1590.624, 40547.04
1592.552, 40607.83
1594.481, 40657.71
1596.409, 40697.81
1598.338, 40727.52
1600.266, 40758.08
1602.194, 40767.80
1604.123, 40707.58
1606.051, 40653.44
1607.980, 40712.55
1609.908, 40865.57
1611.837, 40952.48
1613.765, 40931.94
1615.694, 40933.80
1617.622, 41013.12
1619.551, 41103.18
1621.479, 41145.04
1623.408, 41166.18
1625.336, 41247.07
1627.265, 41399.84
1629.193, 41469.55
1631.121, 41365.12
1633.050, 41297.13
1634.978, 41407.21
1636.907, 41559.26
1638.835, 41615.80
1640.764, 41594.00
1642.692, 41592.36
1644.621, 41612.64
1646.549, 41670.54
1648.478, 41816.64
1650.406, 41941.07
1652.335, 41977.08
1654.263, 41958.63
1656.192, 41933.49
1658.120, 41897.65
1660.048, 41905.23
1661.977, 41979.21
1663.905, 42056.33
1665.834, 42133.36
1667.762, 42196.13
1669.691, 42229.97
1671.619, 42245.51
1673.548, 42278.77
1675.476, 42339.76
1677.405, 42374.30
1679.333, 42328.25
1681.262, 42325.36
1683.190, 42445.38
1685.119, 42587.45
1687.047, 42653.84
1688.975, 42651.10
1690.904, 42641.38
1692.832, 42608.83
1694.761, 42630.73
1696.689, 42793.45
1698.618, 42923.14
1700.546, 42924.80
1702.475, 42876.85
1704.403, 42870.87
1706.332, 42904.36
1708.260, 42937.81
1710.189, 42960.39
1712.117, 43005.45
1714.046, 43125.08
1715.974, 43212.80
1717.902, 43188.79
1719.831, 43127.58
1721.759, 43143.93
1723.688, 43239.05
1725.616, 43319.20
1727.545, 43374.61
1729.473, 43427.20
1731.402, 43460.86
1733.330, 43512.93
1735.259, 43633.99
1737.187, 43766.38
1739.116, 43809.15
1741.044, 43763.82
1742.973, 43733.75
1744.901, 43717.22
1746.829, 43740.06
1748.758, 43836.03
1750.686, 43938.45
1752.615, 44018.69
1754.543, 44079.91
1756.472, 44118.25
1758.400, 44135.39
1760.329, 44189.00
1762.257, 44311.46
1764.186, 44375.70
1766.114, 44307.60
1768.043, 44236.08
1769.971, 44219.14
1771.900, 44238.56
1773.828, 44284.55
1775.756, 44351.08
1777.685, 44391.59
1779.613, 44403.22
1781.542, 44398.24
1783.470, 44357.64
1785.399, 44343.04
1787.327, 44404.29
1789.256, 44492.16
1791.184, 44553.32
1793.113, 44594.21
1795.041, 44640.87
1796.970, 44687.31
1798.898, 44764.93
1800.827, 44914.11
1802.755, 45020.49
1804.683, 45014.19
1806.612, 44969.84
1808.540, 44952.14
1810.469, 44950.41
1812.397, 44917.75
1814.326, 44851.15
1816.254, 44868.41
1818.183, 45028.48
1820.111, 45158.11
1822.040, 45180.67
1823.968, 45169.57
1825.897, 45139.36
1827.825, 45118.55
1829.754, 45188.00
1831.682, 45341.24
1833.610, 45393.24
1835.539, 45289.83
1837.467, 45233.13
1839.396, 45288.30
1841.324, 45357.95
1843.253, 45393.16
1845.181, 45427.50
1847.110, 45510.50
1849.038, 45626.11
1850.967, 45700.41
1852.895, 45725.05
1854.824, 45732.14
1856.752, 45686.63
1858.681, 45671.66
1860.609, 45731.75
1862.537, 45791.66
1864.466, 45797.83
1866.394, 45773.78
1868.323, 45762.32
1870.251, 45766.29
1872.180, 45765.36
1874.108, 45748.86
1876.037, 45764.93
1877.965, 45856.84
1879.894, 45934.87
1881.822, 45945.46
1883.751, 45952.25
1885.679, 46020.31
1887.608, 46120.47
1889.536, 46164.61
1891.464, 46145.68
1893.393, 46167.94
1895.321, 46270.09
1897.250, 46311.47
1899.178, 46199.22
1901.107, 46113.66
1903.035, 46186.66
1904.964, 46295.25
1906.892, 46307.36
1908.821, 46263.11
1910.749, 46280.40
1912.678, 46364.15
1914.606, 46439.64
1916.535, 46508.34
1918.463, 46532.14
1920.391, 46431.24
1922.320, 46366.73
1924.248, 46467.16
1926.177, 46614.06
1928.105, 46676.98
1930.034, 46672.73
1931.962, 46654.78
1933.891, 46611.96
1935.819, 46625.43
1937.748, 46739.17
1939.676, 46837.31
1941.605, 46904.48
1943.533, 46944.10
1945.462, 46928.90
1947.390, 46909.32
1949.318, 46961.45
1951.247, 47062.60
1953.175, 47109.38
1955.104, 47089.49
1957.032, 47087.13
1958.961, 47106.60
1960.889, 47133.00
1962.818, 47167.39
1964.746, 47197.11
1966.675, 47216.20
1968.603, 47227.71
1970.532, 47217.97
1972.460, 47209.69
1974.389, 47273.50
1976.317, 47403.59
1978.245, 47484.06
1980.174, 47498.21
1982.102, 47495.89
1984.031, 47463.28
1985.959, 47456.03
1987.888, 47536.29
1989.816, 47607.97
1991.745, 47583.39
1993.673, 47520.41
1995.602, 47522.48
1997.530, 47582.54
1999.459, 47596.36
2001.387, 47531.22
2003.316, 47526.16
2005.244, 47616.13
2007.172, 47707.70
2009.101, 47770.67
2011.029, 47839.81
2012.958, 47945.96
2014.886, 48044.13
2016.815, 48083.77
2018.743, 48080.49
2020.672, 48081.96
2022.600, 48090.32
2024.529, 48082.62
2026.457, 48057.20
2028.386, 48040.19
2030.314, 48035.02
2032.243, 48049.09
2034.171, 48116.63
2036.099, 48161.55
2038.028, 48078.43
2039.956, 47984.33
2041.885, 48062.73
2043.813, 48246.46
2045.742, 48295.16
2047.670, 48196.13
2049.599, 48144.98
2051.527, 48157.98
2053.456, 48208.07
2055.384, 48340.70
2057.313, 48447.26
2059.241, 48449.47
2061.169, 48464.57
2063.098, 48598.02
2065.027, 48752.11
2066.955, 48793.64
2068.884, 48742.08
2070.812, 48682.09
2072.740, 48613.94
2074.669, 48589.37
2076.597, 48629.36
2078.526, 48649.55
2080.454, 48623.75
2082.383, 48618.36
2084.311, 48688.99
2086.240, 48752.75
2088.168, 48732.84
2090.097, 48700.07
2092.025, 48743.11
2093.954, 48828.16
2095.882, 48872.72
2097.811, 48875.84
2099.739, 48871.34
2101.667, 48849.14
2103.596, 48853.61
2105.524, 48926.04
2107.453, 48962.53
2109.381, 48890.57
2111.310, 48853.56
2113.238, 48946.77
2115.167, 49046.88
2117.095, 49050.22
2119.024, 49004.59
2120.952, 48964.00
2122.881, 48938.59
2124.809, 48980.49
2126.738, 49094.24
2128.666, 49178.98
2130.594, 49246.47
2132.523, 49245.27
2134.451, 49096.10
2136.380, 48992.57
2138.308, 48999.54
2140.237, 49034.04
2142.165, 49051.25
2144.094, 49073.41
2146.022, 49127.29
2147.951, 49193.42
2149.879, 49240.83
2151.808, 49269.32
2153.736, 49278.76
2155.665, 49270.61
2157.593, 49278.34
2159.521, 49315.64
2161.450, 49334.69
2163.378, 49324.63
2165.307, 49310.38
2167.235, 49282.47
2169.164, 49275.15
2171.092, 49294.57
2173.021, 49346.27
2174.949, 49468.88
2176.878, 49602.16
2178.806, 49634.05
2180.735, 49590.37
2182.663, 49592.88
2184.592, 49642.35
2186.520, 49710.88
2188.448, 49807.75
2190.377, 49836.14
2192.305, 49761.92
2194.234, 49676.70
2196.162, 49567.18
2198.091, 49519.79
2200.019, 49613.19
2201.948, 49740.03
2203.876, 49869.20
2205.805, 49969.75
2207.733, 49978.75
2209.662, 49940.89
2211.590, 49952.11
2213.519, 50000.20
2215.447, 50034.29
2217.375, 50050.71
2219.304, 50021.84
2221.232, 49929.73
2223.161, 49928.55
2225.089, 50099.20
2227.018, 50218.25
2228.946, 50209.38
2230.875, 50165.32
2232.803, 50065.76
2234.732, 50002.56
2236.660, 50055.13
2238.589, 50144.42
2240.517, 50206.93
2242.446, 50239.94
2244.374, 50229.09
2246.302, 50190.04
2248.231, 50193.87
2250.159, 50240.48
2252.088, 50236.02
2254.016, 50164.64
2255.945, 50171.02
2257.873, 50299.06
2259.802, 50387.76
2261.730, 50377.93
2263.659, 50345.49
2265.587, 50279.04
2267.516, 50236.37
2269.444, 50264.85
2271.373, 50317.76
2273.301, 50369.62
2275.229, 50429.62
2277.158, 50528.85
2279.086, 50629.29
2281.015, 50632.01
2282.943, 50562.58
2284.872, 50526.35
2286.800, 50520.50
2288.729, 50516.88
2290.657, 50522.46
2292.586, 50512.52
2294.514, 50459.71
2296.443, 50460.76
2298.371, 50593.32
2300.300, 50667.61
2302.228, 50573.98
2304.156, 50522.04
2306.085, 50605.55
2308.013, 50710.95
2309.942, 50795.95
2311.870, 50842.24
2313.799, 50827.80
2315.727, 50780.92
2317.656, 50716.56
2319.584, 50665.74
2321.513, 50718.23
2323.441, 50856.68
2325.370, 50925.50
2327.298, 50915.45
2329.227, 50915.53
2331.155, 50922.89
2333.083, 50920.13
2335.012, 50896.95
2336.940, 50901.62
2338.869, 50983.88
2340.797, 51010.84
2342.726, 50913.14
2344.654, 50821.74
2346.583, 50783.98
2348.511, 50768.39
2350.440, 50738.06
2352.368, 50749.32
2354.297, 50866.99
2356.225, 51017.06
2358.154, 51118.75
2360.082, 51192.34
2362.010, 51275.25
2363.939, 51350.64
2365.867, 51395.90
2367.796, 51406.05
2369.724, 51336.66
2371.653, 51187.73
2373.581, 51063.27
2375.510, 50967.35
2377.438, 50938.66
2379.367, 50997.75
2381.295, 51051.04
2383.224, 51076.90
2385.152, 51118.22
2387.081, 51202.02
2389.009, 51249.61
2390.938, 51177.19
2392.866, 51139.08
2394.794, 51241.88
2396.723, 51335.38
2398.651, 51329.58
2400.580, 51305.58
2402.508, 51325.38
2404.437, 51362.01
2406.365, 51389.76
2408.294, 51412.67
2410.222, 51415.02
2412.151, 51419.49
2414.079, 51506.28
2416.008, 51639.66
2417.936, 51669.25
2419.865, 51601.50
2421.793, 51569.78
2423.721, 51575.87
2425.650, 51570.81
2427.578, 51552.22
2429.507, 51562.91
2431.435, 51620.79
2433.364, 51638.91
2435.292, 51564.11
2437.221, 51535.62
2439.149, 51597.63
2441.078, 51657.12
2443.006, 51705.65
2444.935, 51737.43
2446.863, 51756.18
2448.792, 51745.70
2450.720, 51647.59
2452.648, 51593.81
2454.577, 51716.32
2456.505, 51843.87
2458.434, 51850.36
2460.362, 51804.37
2462.291, 51720.20
2464.219, 51661.14
2466.148, 51760.16
2468.076, 51896.79
2470.005, 51868.61
2471.933, 51745.49
2473.862, 51640.03
2475.790, 51567.89
2477.719, 51590.53
2479.647, 51695.15
2481.575, 51786.64
2483.504, 51864.68
2485.432, 51890.60
2487.361, 51863.71
2489.289, 51907.55
2491.218, 52031.30
2493.146, 52090.65
2495.075, 52051.05
2497.003, 52025.02
2498.932, 52034.52
2500.860, 52031.75
2502.789, 52003.82
2504.717, 52007.94
2506.646, 52082.23
2508.574, 52113.75
2510.502, 52050.13
2512.431, 52007.22
2514.359, 52038.61
2516.288, 52072.80
2518.216, 52088.54
2520.145, 52093.07
2522.073, 52078.21
2524.002, 52066.73
2525.930, 52075.47
2527.859, 52087.33
2529.787, 52075.80
2531.716, 52086.14
2533.644, 52189.64
2535.573, 52288.02
2537.501, 52264.80
2539.429, 52208.12
2541.358, 52211.20
2543.286, 52243.00
2545.215, 52281.81
2547.143, 52310.47
2549.072, 52297.02
2551.000, 52263.80
2552.929, 52253.02
2554.857, 52253.73
2556.786, 52210.52
2558.714, 52156.38
2560.643, 52235.12
2562.571, 52408.84
2564.500, 52504.53
2566.428, 52533.82
2568.356, 52570.99
2570.285, 52614.02
2572.213, 52627.40
2574.142, 52606.23
2576.070, 52629.88
2577.999, 52705.25
2579.927, 52701.84
2581.856, 52618.92
2583.784, 52574.40
2585.713, 52586.41
2587.641, 52572.35
2589.570, 52497.76
2591.498, 52512.26
2593.427, 52661.84
2595.355, 52745.16
2597.283, 52733.38
2599.212, 52732.46
2601.140, 52757.84
2603.069, 52787.38
2604.997, 52833.76
2606.926, 52857.39
2608.854, 52825.58
2610.783, 52824.70
2612.711, 52874.49
2614.640, 52897.13
2616.568, 52847.83
2618.497, 52840.47
2620.425, 52955.28
2622.354, 53005.23
2624.282, 52894.94
2626.210, 52808.43
2628.139, 52787.10
2630.067, 52820.70
2631.996, 52950.85
2633.924, 53029.68
2635.853, 52965.63
2637.781, 52897.01
2639.710, 52874.47
2641.638, 52859.01
2643.567, 52851.20
2645.495, 52838.86
2647.424, 52822.07
2649.352, 52809.60
2651.281, 52811.85
2653.209, 52810.52
2655.137, 52788.30
2657.066, 52767.52
2658.994, 52748.46
2660.923, 52744.64
2662.851, 52776.04
2664.780, 52804.69
2666.708, 52797.29
2668.637, 52803.46
2670.565, 52878.46
2672.494, 52935.16
2674.422, 52887.07
2676.351, 52847.44
2678.279, 52908.07
2680.208, 52970.52
2682.136, 52995.39
2684.064, 52980.67
2685.993, 52891.67
2687.921, 52811.29
2689.850, 52812.40
2691.778, 52827.63
2693.707, 52809.00
2695.635, 52802.31
2697.564, 52848.46
2699.492, 52899.76
2701.421, 52895.38
2703.349, 52910.02
2705.278, 53010.66
2707.206, 53115.39
2709.135, 53178.64
2711.063, 53203.88
2712.991, 53162.06
2714.920, 53135.08
2716.848, 53225.88
2718.777, 53295.89
2720.705, 53204.05
2722.634, 53121.38
2724.562, 53220.74
2726.491, 53284.39
2728.419, 53119.96
2730.348, 52978.76
2732.276, 53051.64
2734.205, 53162.04
2736.133, 53208.87
2738.062, 53249.26
2739.990, 53333.12
2741.918, 53389.71
2743.847, 53340.53
2745.775, 53308.68
2747.704, 53397.54
2749.632, 53468.11
2751.561, 53429.95
2753.489, 53384.59
2755.418, 53395.33
2757.346, 53388.35
2759.275, 53291.75
2761.203, 53236.37
2763.132, 53309.97
2765.060, 53392.51
2766.989, 53458.95
2768.917, 53474.86
2770.845, 53394.96
2772.774, 53331.83
2774.702, 53336.30
2776.631, 53358.71
2778.559, 53420.67
2780.488, 53444.79
2782.416, 53390.04
2784.345, 53356.04
2786.273, 53366.93
2788.202, 53394.74
2790.130, 53417.48
2792.059, 53463.84
2793.987, 53564.50
2795.916, 53618.23
2797.844, 53595.60
2799.772, 53589.66
2801.701, 53641.73
2803.629, 53645.45
2805.558, 53559.85
2807.486, 53486.20
2809.415, 53426.00
2811.343, 53391.88
2813.272, 53378.84
2815.200, 53415.98
2817.129, 53530.68
2819.057, 53527.98
2820.986, 53337.10
2822.914, 53291.38
2824.843, 53404.52
2826.771, 53469.30
2828.699, 53477.60
2830.628, 53540.41
2832.556, 53662.43
2834.485, 53669.31
2836.413, 53559.63
2838.342, 53495.85
2840.270, 53470.55
2842.199, 53444.85
2844.127, 53426.57
2846.056, 53484.64
2847.984, 53579.82
2849.913, 53529.97
2851.841, 53394.42
2853.770, 53354.02
2855.698, 53355.29
2857.626, 53252.13
2859.555, 53142.93
2861.483, 53247.29
2863.412, 53416.65
2865.340, 53418.38
2867.269, 53364.73
2869.197, 53377.23
2871.126, 53402.09
2873.054, 53380.47
2874.983, 53355.47
2876.911, 53391.29
2878.840, 53408.69
2880.768, 53315.74
2882.697, 53251.92
2884.625, 53332.55
2886.553, 53410.75
2888.482, 53411.43
2890.410, 53393.69
2892.339, 53358.93
2894.267, 53337.79
2896.196, 53353.79
2898.124, 53363.32
2900.053, 53354.84
2901.981, 53353.82
2903.910, 53369.07
2905.838, 53387.89
2907.767, 53421.05
2909.695, 53410.35
2911.624, 53326.20
2913.552, 53261.39
2915.480, 53211.66
2917.409, 53238.25
2919.337, 53339.06
2921.266, 53379.37
2923.194, 53360.34
2925.123, 53343.42
2927.051, 53331.71
2928.980, 53339.15
2930.908, 53360.20
2932.837, 53377.34
2934.765, 53393.38
2936.694, 53429.13
2938.622, 53458.20
2940.551, 53432.78
2942.479, 53381.79
2944.407, 53331.45
2946.336, 53285.32
2948.264, 53241.29
2950.193, 53215.27
2952.121, 53239.53
2954.050, 53252.50
2955.978, 53199.64
2957.907, 53161.36
2959.835, 53172.26
2961.764, 53199.14
2963.692, 53243.61
2965.621, 53271.55
2967.549, 53280.54
2969.478, 53252.50
2971.406, 53126.92
2973.334, 53107.77
2975.263, 53214.20
2977.191, 53234.44
2979.120, 53154.95
2981.048, 53114.27
2982.977, 53115.40
2984.905, 53107.50
2986.834, 53093.32
2988.762, 53076.18
2990.691, 53059.15
2992.619, 53040.07
2994.548, 53028.30
2996.476, 53065.52
2998.405, 53094.45
3000.333, 53020.46
3002.261, 52934.29
3004.190, 52899.05
3006.118, 52900.88
3008.047, 52952.98
3009.975, 53005.51
3011.904, 53034.70
3013.832, 53066.82
3015.761, 53139.13
3017.689, 53156.89
3019.618, 53080.95
3021.546, 53014.49
3023.475, 52961.79
3025.403, 52978.88
3027.332, 53103.08
3029.260, 53079.28
3031.188, 52911.26
3033.117, 52837.05
3035.045, 52844.95
3036.974, 52896.39
3038.902, 52956.57
3040.831, 52924.27
3042.759, 52851.45
3044.688, 52825.27
3046.616, 52813.18
3048.545, 52771.41
3050.473, 52756.73
3052.402, 52872.53
3054.330, 52949.79
3056.259, 52877.71
3058.187, 52838.23
3060.115, 52937.20
3062.044, 52983.61
3063.972, 52902.95
3065.901, 52867.21
3067.829, 52893.29
3069.758, 52891.10
3071.686, 52851.14
3073.615, 52859.55
3075.543, 52909.01
3077.472, 52827.85
3079.400, 52671.79
3081.329, 52582.61
3083.257, 52541.32
3085.186, 52531.93
3087.114, 52523.68
3089.042, 52476.00
3090.971, 52424.25
3092.899, 52388.56
3094.828, 52367.22
3096.756, 52355.32
3098.685, 52376.25
3100.613, 52459.76
3102.542, 52510.18
3104.470, 52472.71
3106.399, 52471.96
3108.327, 52508.54
3110.256, 52509.23
3112.184, 52471.36
3114.113, 52486.70
3116.041, 52530.43
3117.969, 52501.56
3119.898, 52429.23
3121.826, 52332.98
3123.755, 52272.32
3125.683, 52379.30
3127.612, 52462.55
3129.540, 52326.12
3131.469, 52230.48
3133.397, 52381.27
3135.326, 52420.88
3137.254, 52186.20
3139.183, 52034.27
3141.111, 52008.54
3143.040, 52015.86
3144.968, 52055.59
3146.896, 52068.68
3148.825, 52059.70
3150.753, 52042.36
3152.682, 52012.36
3154.610, 51925.25
3156.539, 51852.94
3158.467, 51933.17
3160.396, 52020.22
3162.324, 51997.09
3164.253, 51969.37
3166.181, 52025.11
3168.110, 52023.76
3170.038, 51914.66
3171.967, 51859.42
3173.895, 51898.14
3175.823, 51910.50
3177.752, 51888.30
3179.680, 51862.48
3181.609, 51832.52
3183.537, 51779.64
3185.466, 51738.02
3187.394, 51823.77
3189.323, 51896.77
3191.251, 51744.26
3193.180, 51624.07
3195.108, 51778.18
3197.037, 51855.00
3198.965, 51708.57
3200.894, 51615.88
3202.822, 51642.35
3204.750, 51677.08
3206.679, 51710.88
3208.607, 51755.32
3210.536, 51791.89
3212.464, 51706.98
3214.393, 51581.63
3216.321, 51607.97
3218.250, 51677.36
3220.178, 51678.91
3222.107, 51661.59
3224.035, 51662.16
3225.964, 51628.95
3227.892, 51515.54
3229.821, 51463.77
3231.749, 51509.68
3233.677, 51566.85
3235.606, 51633.65
3237.534, 51643.51
3239.463, 51603.30
3241.391, 51546.77
3243.320, 51456.18
3245.248, 51211.42
3247.177, 51032.14
3249.105, 51169.52
3251.034, 51320.56
3252.962, 51334.83
3254.891, 51312.79
3256.819, 51263.30
3258.748, 51231.51
3260.676, 51226.23
3262.604, 51202.02
3264.533, 51163.13
3266.461, 51173.66
3268.390, 51208.98
3270.318, 51236.49
3272.247, 51233.47
3274.175, 51123.81
3276.104, 51050.91
3278.032, 51150.29
3279.961, 51197.30
3281.889, 51085.70
3283.818, 51029.71
3285.746, 51047.38
3287.675, 51063.52
3289.603, 51065.96
3291.531, 50996.79
3293.460, 50891.16
3295.388, 50839.44
3297.317, 50804.41
3299.245, 50736.96
3301.174, 50699.48
3303.102, 50730.88
3305.031, 50772.39
3306.959, 50801.30
3308.888, 50832.70
3310.816, 50863.37
3312.745, 50828.69
3314.673, 50740.59
3316.602, 50683.52
3318.530, 50649.38
3320.458, 50621.59
3322.387, 50612.79
3324.315, 50664.21
3326.244, 50684.31
3328.172, 50622.86
3330.101, 50535.31
3332.029, 50404.92
3333.958, 50426.66
3335.886, 50610.80
3337.815, 50659.89
3339.743, 50611.50
3341.672, 50545.90
3343.600, 50479.66
3345.529, 50448.32
3347.457, 50396.03
3349.385, 50258.60
3351.314, 50167.84
3353.242, 50188.57
3355.171, 50202.27
3357.099, 50205.09
3359.028, 50104.00
3360.956, 49945.69
3362.885, 49936.05
3364.813, 49987.63
3366.742, 49994.59
3368.670, 49973.32
3370.599, 49912.11
3372.527, 49869.02
3374.456, 49862.66
3376.384, 49856.75
3378.313, 49838.99
3380.241, 49883.55
3382.169, 49962.63
3384.098, 49952.62
3386.026, 49912.21
3387.955, 49942.13
3389.883, 49967.33
3391.812, 49940.04
3393.740, 49898.88
3395.669, 49876.58
3397.597, 49790.83
3399.526, 49643.88
3401.454, 49650.70
3403.383, 49757.18
3405.311, 49706.09
3407.240, 49601.01
3409.168, 49534.60
3411.096, 49534.06
3413.025, 49693.99
3414.953, 49766.29
3416.882, 49690.06
3418.810, 49586.18
3420.739, 49466.24
3422.667, 49487.86
3424.596, 49591.59
3426.524, 49668.11
3428.453, 49668.64
3430.381, 49441.33
3432.310, 49285.70
3434.238, 49367.03
3436.167, 49446.31
3438.095, 49485.48
3440.023, 49516.75
3441.952, 49528.98
3443.880, 49423.47
3445.809, 49286.32
3447.737, 49302.01
3449.666, 49325.48
3451.594, 49237.17
3453.523, 49165.70
3455.451, 49144.05
3457.380, 49146.02
3459.308, 49167.10
3461.237, 49124.54
3463.165, 49043.70
3465.094, 49008.27
3467.022, 48980.07
3468.950, 48904.65
3470.879, 48861.00
3472.807, 48885.40
3474.736, 48918.00
3476.664, 48960.51
3478.593, 48912.00
3480.521, 48811.49
3482.450, 48875.68
3484.378, 48940.87
3486.307, 48728.46
3488.235, 48536.11
3490.164, 48520.94
3492.092, 48519.91
3494.021, 48495.18
3495.949, 48519.01
3497.877, 48570.69
3499.806, 48514.39
3501.734, 48422.95
3503.663, 48400.69
3505.591, 48421.17
3507.520, 48515.40
3509.448, 48541.39
3511.377, 48466.38
3513.305, 48433.58
3515.234, 48444.02
3517.162, 48375.04
3519.091, 48314.38
3521.019, 48472.63
3522.948, 48598.87
3524.876, 48499.33
3526.804, 48371.02
3528.733, 48238.93
3530.661, 48189.84
3532.590, 48217.92
3534.518, 48237.73
3536.447, 48253.87
3538.375, 48288.57
3540.304, 48290.26
3542.232, 48194.25
3544.161, 48146.58
3546.089, 48191.61
3548.018, 48195.65
3549.946, 48161.13
3551.875, 48122.41
3553.803, 48073.09
3555.731, 47974.05
3557.660, 47913.64
3559.588, 47948.25
3561.517, 47958.00
3563.445, 47910.37
3565.374, 47911.74
3567.302, 47935.28
3569.231, 47877.96
3571.159, 47808.16
3573.088, 47787.00
3575.016, 47800.26
3576.945, 47885.46
3578.873, 47872.11
3580.802, 47758.91
3582.730, 47731.89
3584.658, 47753.20
3586.587, 47737.41
3588.515, 47708.11
3590.444, 47660.70
3592.372, 47661.95
3594.301, 47755.83
3596.229, 47700.10
3598.158, 47519.02
3600.086, 47463.28
3602.015, 47468.92
3603.943, 47456.34
3605.872, 47436.62
3607.800, 47393.29
3609.729, 47394.83
3611.657, 47444.65
3613.585, 47419.84
3615.514, 47349.35
3617.442, 47297.27
3619.371, 47284.52
3621.299, 47389.15
3623.228, 47394.09
3625.156, 47230.46
3627.085, 47132.18
3629.013, 47109.40
3630.942, 47149.47
3632.870, 47176.39
3634.799, 47069.87
3636.727, 46977.45
3638.656, 46982.71
3640.584, 46950.71
3642.512, 46864.99
3644.441, 46816.63
3646.369, 46786.53
3648.298, 46708.82
3650.226, 46659.33
3652.155, 46698.83
3654.083, 46772.70
3656.012, 46875.73
3657.940, 46857.68
3659.869, 46754.79
3661.797, 46739.60
3663.726, 46744.88
3665.654, 46728.71
3667.583, 46676.21
3669.511, 46567.79
3671.439, 46578.78
3673.368, 46688.66
3675.296, 46718.66
3677.225, 46675.32
3679.153, 46510.96
3681.082, 46396.91
3683.010, 46403.75
3684.939, 46407.33
3686.867, 46393.82
3688.796, 46380.22
3690.724, 46355.37
3692.653, 46257.70
3694.581, 46234.89
3696.510, 46390.29
3698.438, 46419.42
3700.366, 46278.81
3702.295, 46258.35
3704.223, 46286.14
3706.152, 46209.56
3708.080, 46169.83
3710.009, 46269.71
3711.937, 46290.72
3713.866, 46188.43
3715.794, 46062.95
3717.723, 45949.36
3719.651, 45938.11
3721.580, 45918.71
3723.508, 45797.06
3725.437, 45772.49
3727.365, 45895.34
3729.293, 45885.99
3731.222, 45801.06
3733.150, 45740.21
3735.079, 45705.20
3737.007, 45704.04
3738.936, 45708.18
3740.864, 45712.18
3742.793, 45687.73
3744.721, 45628.74
3746.650, 45480.06
3748.578, 45391.78
3750.507, 45477.05
3752.435, 45542.61
3754.364, 45558.42
3756.292, 45620.77
3758.220, 45651.53
3760.149, 45471.11
3762.077, 45301.03
3764.006, 45254.58
3765.934, 45239.91
3767.863, 45247.41
3769.791, 45225.06
3771.720, 45196.90
3773.648, 45189.06
3775.577, 45196.49
3777.505, 45219.68
3779.434, 45208.07
3781.362, 45165.13
3783.291, 45224.71
3785.219, 45281.23
3787.147, 45185.18
3789.076, 45104.45
3791.004, 45092.13
3792.933, 45048.06
3794.861, 44980.75
3796.790, 44999.09
3798.718, 45003.34
3800.647, 44862.73
3802.575, 44779.05
3804.504, 44793.20
3806.432, 44776.54
3808.361, 44730.08
3810.289, 44650.95
3812.218, 44599.22
3814.146, 44647.09
3816.074, 44670.38
3818.003, 44658.44
3819.931, 44621.18
3821.860, 44579.75
3823.788, 44547.91
3825.717, 44559.02
3827.645, 44682.29
3829.574, 44686.07
3831.502, 44587.02
3833.431, 44564.27
3835.359, 44547.30
3837.288, 44462.16
3839.216, 44360.80
3841.145, 44252.86
3843.073, 44185.11
3845.001, 44152.84
3846.930, 44134.91
3848.858, 44142.06
3850.787, 44203.54
3852.715, 44192.81
3854.644, 44098.55
3856.572, 44050.65
3858.501, 44030.96
3860.429, 44020.80
3862.358, 44009.20
3864.286, 43989.20
3866.215, 43995.18
3868.143, 44012.57
3870.072, 43988.79
3872.000, 43934.52
3873.928, 43827.73
3875.857, 43769.32
3877.785, 43780.39
3879.714, 43836.85
3881.642, 43867.40
3883.571, 43705.55
3885.499, 43587.00
3887.428, 43597.58
3889.356, 43614.66
3891.285, 43615.46
3893.213, 43525.16
3895.142, 43439.82
3897.070, 43452.31
3898.999, 43504.78
3900.927, 43576.00
3902.855, 43489.31
3904.784, 43356.77
3906.712, 43343.42
3908.641, 43341.75
3910.569, 43348.19
3912.498, 43263.57
3914.426, 43127.93
3916.355, 43148.20
3918.283, 43192.59
3920.212, 43170.43
3922.140, 43127.24
3924.069, 43080.91
3925.997, 42956.21
3927.926, 42846.97
3929.854, 42965.92
3931.782, 43042.10
3933.711, 42996.28
3935.639, 42946.61
3937.568, 42884.25
3939.496, 42773.43
3941.425, 42704.15
3943.353, 42725.94
3945.282, 42796.95
3947.210, 42859.91
3949.139, 42838.88
3951.067, 42776.84
3952.996, 42617.11
3954.924, 42550.09
3956.853, 42620.36
3958.781, 42589.89
3960.709, 42487.07
3962.638, 42411.19
3964.566, 42396.50
3966.495, 42417.36
3968.423, 42344.28
3970.352, 42248.81
3972.280, 42378.21
3974.209, 42459.53
3976.137, 42340.11
3978.066, 42287.63
3979.994, 42233.03
3981.923, 42124.44
3983.851, 42070.37
3985.780, 42119.97
3987.708, 42158.18
3989.636, 42125.91
3991.565, 42072.02
3993.493, 42035.98
3995.422, 41994.02
3997.350, 41975.04
3999.279, 41939.45
4001.207, 41866.17
4003.136, 41859.65
4005.064, 41879.30
4006.993, 41821.98
4008.921, 41732.46
4010.850, 41730.48
4012.778, 41729.15
4014.707, 41701.59
4016.635, 41721.16
4018.563, 41756.87
4020.492, 41665.34
4022.420, 41600.44
4024.349, 41649.41
4026.277, 41604.50
4028.206, 41553.80
4030.134, 41564.87
4032.063, 41580.25
4033.991, 41598.52
4035.920, 41548.05
4037.848, 41430.07
4039.777, 41371.90
4041.705, 41390.89
4043.634, 41347.14
4045.562, 41224.18
4047.490, 41224.80
4049.419, 41252.29
4051.347, 41187.96
4053.276, 41131.83
4055.204, 41123.21
4057.133, 41151.70
4059.061, 41086.28
4060.990, 41021.73
4062.918, 41063.20
4064.847, 41089.34
4066.775, 41034.53
4068.704, 40957.77
4070.632, 40862.15
4072.561, 40718.67
4074.489, 40657.46
4076.417, 40677.51
4078.346, 40674.11
4080.274, 40630.02
4082.203, 40599.08
4084.131, 40606.30
4086.060, 40618.99
4087.988, 40490.42
4089.917, 40392.90
4091.845, 40426.45
4093.774, 40506.50
4095.702, 40563.69
4097.631, 40336.39
4099.559, 40166.63
4101.488, 40219.09
4103.416, 40238.23
4105.345, 40250.12
4107.273, 40249.77
4109.202, 40197.20
4111.130, 40106.01
4113.059, 40094.40
4114.987, 40139.88
4116.916, 39985.24
4118.844, 39834.09
4120.772, 39931.04
4122.701, 39946.74
4124.629, 39879.34
4126.558, 39805.31
4128.486, 39751.71
4130.415, 39773.46
4132.343, 39770.35
4134.271, 39737.69
4136.200, 39664.78
4138.128, 39620.11
4140.057, 39678.23
4141.985, 39708.64
4143.914, 39682.07
4145.842, 39618.55
4147.771, 39550.35
4149.699, 39487.46
4151.628, 39412.34
4153.556, 39330.86
4155.485, 39339.63
4157.413, 39317.99
4159.342, 39133.00
4161.270, 39089.71
4163.199, 39182.62
4165.127, 39238.28
4167.056, 39254.74
4168.984, 39207.29
4170.913, 39131.52
4172.841, 39061.24
4174.770, 39123.89
4176.698, 39158.92
4178.626, 39053.01
4180.555, 38966.25
4182.483, 38913.73
4184.412, 38933.52
4186.340, 38908.43
4188.269, 38743.32
4190.197, 38684.58
4192.125, 38695.42
4194.054, 38636.33
4195.982, 38614.80
4197.911, 38687.09
4199.839, 38671.64
4201.768, 38594.70
4203.696, 38526.45
4205.625, 38439.02
4207.553, 38322.91
4209.482, 38299.78
4211.410, 38300.89
4213.339, 38169.00
4215.267, 38115.66
4217.196, 38184.43
4219.124, 38208.69
4221.053, 38202.79
4222.981, 38182.21
4224.910, 38173.38
4226.838, 38175.42
4228.767, 38223.28
4230.695, 38227.16
4232.624, 38056.41
4234.552, 38019.75
4236.480, 38118.68
4238.409, 37891.66
4240.337, 37670.92
4242.266, 37708.25
4244.194, 37702.18
4246.123, 37630.07
4248.051, 37511.30
4249.979, 37438.72
4251.908, 37462.61
4253.836, 37528.67
4255.765, 37598.89
4257.693, 37606.09
4259.622, 37547.96
4261.550, 37415.69
4263.479, 37362.22
4265.407, 37344.29
4267.336, 37301.40
4269.264, 37230.33
4271.193, 37131.66
4273.121, 37150.24
4275.050, 37160.32
4276.978, 37003.74
4278.907, 36965.01
4280.835, 37046.60
4282.764, 36974.63
4284.692, 36860.47
4286.621, 36753.36
4288.549, 36752.27
4290.478, 36807.75
4292.406, 36741.77
4294.334, 36712.50
4296.263, 36778.70
4298.191, 36813.64
4300.120, 36814.58
4302.048, 36776.00
4303.977, 36735.81
4305.905, 36700.77
4307.833, 36615.34
4309.762, 36547.52
4311.690, 36572.93
4313.619, 36504.30
4315.547, 36370.50
4317.476, 36374.92
4319.404, 36420.17
4321.333, 36475.00
4323.261, 36340.93
4325.190, 36143.56
4327.118, 36092.25
4329.047, 36154.00
4330.975, 36293.05
4332.904, 36193.49
4334.832, 36068.61
4336.761, 36142.80
4338.689, 36090.40
4340.618, 35938.77
4342.546, 35903.23
4344.475, 35921.89
4346.403, 35969.32
4348.332, 35916.25
4350.260, 35813.80
4352.188, 35738.61
4354.117, 35707.80
4356.045, 35728.49
4357.974, 35828.71
4359.902, 35877.43
4361.831, 35715.75
4363.759, 35634.59
4365.688, 35604.24
4367.616, 35485.25
4369.544, 35386.98
4371.473, 35359.27
4373.401, 35364.59
4375.330, 35366.24
4377.258, 35305.30
4379.187, 35259.32
4381.115, 35227.82
4383.044, 35123.95
4384.972, 35086.26
4386.901, 35206.14
4388.829, 35262.75
4390.758, 35258.68
4392.686, 35186.33
4394.615, 35164.71
4396.543, 35199.15
4398.472, 35000.46
4400.400, 34830.77
4402.329, 34864.84
4404.257, 34855.67
4406.186, 34803.27
4408.114, 34737.93
4410.042, 34689.14
4411.971, 34658.73
4413.899, 34623.78
4415.828, 34566.20
4417.756, 34436.81
4419.685, 34459.86
4421.613, 34549.20
4423.542, 34436.38
4425.470, 34344.98
4427.398, 34343.53
4429.327, 34338.14
4431.255, 34350.88
4433.184, 34438.16
4435.112, 34386.94
4437.041, 34260.76
4438.969, 34315.27
4440.898, 34289.22
4442.826, 34111.63
4444.755, 34051.61
4446.683, 34049.30
4448.612, 34073.40
4450.540, 34020.61
4452.469, 33921.89
4454.397, 33842.55
4456.326, 33852.04
4458.254, 33946.43
4460.183, 33841.12
4462.111, 33700.70
4464.040, 33654.92
4465.968, 33670.42
4467.896, 33699.13
4469.825, 33622.25
4471.753, 33583.63
4473.682, 33611.88
4475.610, 33524.41
4477.539, 33452.89
4479.467, 33490.16
4481.396, 33414.67
4483.324, 33304.16
4485.252, 33307.09
4487.181, 33309.77
4489.109, 33295.63
4491.038, 33297.09
4492.966, 33295.50
4494.895, 33286.45
4496.823, 33224.85
4498.752, 33129.52
4500.680, 32983.98
4502.609, 32968.71
4504.537, 33042.32
4506.466, 32971.38
4508.394, 32926.99
4510.323, 32958.00
4512.251, 32910.85
4514.180, 32845.01
4516.108, 32799.06
4518.037, 32810.52
4519.965, 32817.58
4521.894, 32692.84
4523.822, 32577.70
4525.750, 32506.36
4527.679, 32475.65
4529.607, 32476.66
4531.536, 32516.51
4533.464, 32481.88
4535.393, 32417.83
4537.321, 32362.24
4539.250, 32357.31
4541.178, 32368.96
4543.106, 32286.00
4545.035, 32227.99
4546.963, 32218.73
4548.892, 32238.18
4550.820, 32211.29
4552.749, 32077.50
4554.677, 31947.59
4556.606, 31848.70
4558.534, 31825.54
4560.463, 31806.36
4562.391, 31791.26
4564.320, 31823.37
4566.248, 31812.29
4568.177, 31747.50
4570.105, 31709.96
4572.034, 31691.01
4573.962, 31680.51
4575.891, 31722.43
4577.819, 31748.00
4579.748, 31645.87
4581.676, 31592.13
4583.604, 31566.34
4585.533, 31467.81
4587.461, 31348.00
4589.390, 31233.42
4591.318, 31251.35
4593.247, 31239.15
4595.175, 31117.07
4597.104, 31139.21
4599.032, 31186.55
4600.960, 31126.61
4602.889, 31068.34
4604.817, 31021.35
4606.746, 30995.36
4608.674, 30945.68
4610.603, 30871.76
4612.531, 30785.53
4614.460, 30775.77
4616.388, 30855.16
4618.317, 30787.27
4620.245, 30716.58
4622.174, 30774.23
4624.102, 30724.46
4626.031, 30646.96
4627.959, 30643.12
4629.888, 30590.36
4631.816, 30501.94
4633.745, 30397.88
4635.673, 30418.35
4637.602, 30530.53
4639.530, 30424.50
4641.458, 30335.62
4643.387, 30354.32
4645.315, 30305.91
4647.244, 30262.70
4649.172, 30266.93
4651.101, 30272.89
4653.029, 30259.04
4654.958, 30209.06
4656.886, 30130.31
4658.814, 30038.10
4660.743, 29940.88
4662.671, 29896.72
4664.600, 29904.81
4666.528, 29949.65
4668.457, 29994.97
4670.385, 30016.99
4672.314, 29904.64
4674.242, 29782.29
4676.171, 29713.58
4678.099, 29644.01
4680.028, 29580.99
4681.956, 29527.39
4683.885, 29533.60
4685.813, 29550.18
4687.742, 29529.19
4689.670, 29432.92
4691.599, 29328.54
4693.527, 29393.94
4695.456, 29354.63
4697.384, 29216.45
4699.313, 29133.81
4701.241, 29061.39
4703.169, 29006.19
4705.098, 29110.60
4707.026, 29130.52
4708.955, 28961.77
4710.883, 28898.75
4712.812, 28869.68
4714.740, 28834.94
4716.668, 28828.91
4718.597, 28817.63
4720.525, 28772.37
4722.454, 28713.66
4724.382, 28684.88
4726.311, 28773.17
4728.239, 28706.62
4730.168, 28541.26
4732.096, 28369.20
4734.025, 28348.59
4735.953, 28415.81
4737.882, 28333.96
4739.810, 28300.79
4741.739, 28342.19
4743.667, 28402.93
4745.596, 28417.66
4747.524, 28365.06
4749.453, 28167.05
4751.381, 28049.09
4753.310, 28107.86
4755.238, 28032.93
4757.167, 27960.99
4759.095, 27958.22
4761.023, 28018.56
4762.952, 28044.18
4764.880, 27946.57
4766.809, 27922.86
4768.737, 27912.11
4770.666, 27848.11
4772.594, 27826.45
4774.522, 27835.98
4776.451, 27892.65
4778.379, 27802.58
4780.308, 27669.00
4782.236, 27699.13
4784.165, 27613.53
4786.093, 27476.81
4788.022, 27484.38
4789.950, 27435.75
4791.879, 27362.27
4793.807, 27481.71
4795.736, 27434.63
4797.664, 27242.85
4799.593, 27182.30
4801.521, 27188.82
4803.450, 27216.48
4805.378, 27114.27
4807.307, 27058.76
4809.235, 27086.27
4811.164, 27135.01
4813.092, 27146.92
4815.021, 27105.91
4816.949, 27036.28
4818.877, 26917.99
4820.806, 26751.23
4822.734, 26777.97
4824.663, 26765.74
4826.591, 26645.03
4828.520, 26697.66
4830.448, 26732.07
4832.376, 26645.98
4834.305, 26589.69
4836.233, 26534.58
4838.162, 26467.86
4840.090, 26445.41
4842.019, 26414.26
4843.947, 26337.26
4845.876, 26272.98
4847.804, 26238.42
4849.733, 26243.41
4851.661, 26089.70
4853.590, 25986.21
4855.518, 26105.64
4857.447, 26129.63
4859.375, 26091.69
4861.304, 26014.42
4863.232, 26004.18
4865.161, 25985.73
4867.089, 25887.26
4869.018, 25897.26
4870.946, 25885.97
4872.875, 25749.78
4874.803, 25788.67
4876.731, 25840.15
4878.660, 25762.37
4880.588, 25664.23
4882.517, 25616.25
4884.445, 25673.35
4886.374, 25634.36
4888.302, 25587.74
4890.230, 25613.63
4892.159, 25573.96
4894.087, 25481.31
4896.016, 25342.39
4897.944, 25238.51
4899.873, 25173.30
4901.801, 25146.18
4903.730, 25269.84
4905.658, 25343.91
4907.587, 25210.51
4909.515, 25070.30
4911.444, 24987.64
4913.372, 24997.43
4915.301, 25010.70
4917.229, 24974.65
4919.158, 24851.77
4921.086, 24785.15
4923.015, 24757.36
4924.943, 24758.28
4926.872, 24822.37
4928.800, 24797.59
4930.729, 24604.70
4932.657, 24553.14
4934.585, 24561.28
4936.514, 24586.94
4938.442, 24551.20
4940.371, 24496.81
4942.299, 24441.02
4944.228, 24363.30
4946.156, 24368.36
4948.084, 24445.30
4950.013, 24280.42
4951.941, 24212.64
4953.870, 24268.45
4955.798, 24147.90
4957.727, 24162.38
4959.655, 24284.61
4961.584, 24150.93
4963.512, 24054.64
4965.441, 24011.61
4967.369, 23896.76
4969.298, 23891.68
4971.226, 23942.22
4973.155, 23892.34
4975.083, 23811.14
4977.012, 23725.33
4978.940, 23640.69
4980.869, 23691.38
4982.797, 23762.62
4984.726, 23703.78
4986.654, 23613.28
4988.583, 23556.24
4990.511, 23589.43
4992.439, 23519.65
4994.368, 23446.23
4996.296, 23470.22
4998.225, 23391.92
5000.153, 23310.14
5002.082, 23270.43
5004.010, 23138.15
5005.938, 23077.00
5007.867, 23137.54
5009.795, 23087.17
5011.724, 23059.40
5013.652, 23078.92
5015.581, 23087.43
5017.509, 22939.97
5019.438, 22723.31
5021.366, 22782.95
5023.295, 22787.38
5025.223, 22748.03
5027.152, 22812.00
5029.080, 22776.94
5031.009, 22705.80
5032.937, 22722.32
5034.866, 22699.01
5036.794, 22616.82
5038.723, 22443.78
5040.651, 22417.71
5042.580, 22453.43
5044.508, 22488.09
5046.437, 22391.02
5048.365, 22298.87
5050.293, 22269.59
5052.222, 22231.34
5054.150, 22214.88
5056.079, 22215.15
5058.007, 22162.87
5059.936, 22147.42
5061.864, 22145.94
5063.792, 22039.19
5065.721, 22050.77
5067.649, 22072.56
5069.578, 21903.36
5071.506, 21816.20
5073.435, 21781.50
5075.363, 21753.56
5077.292, 21715.79
5079.220, 21662.86
5081.149, 21592.66
5083.077, 21624.31
5085.006, 21621.35
5086.934, 21565.06
5088.863, 21613.21
5090.791, 21584.52
5092.720, 21502.21
5094.648, 21581.19
5096.577, 21493.93
5098.505, 21349.23
5100.434, 21369.02
5102.362, 21344.34
5104.291, 21287.04
5106.219, 21219.97
5108.147, 21219.64
5110.076, 21207.27
5112.004, 21149.19
5113.933, 21187.67
5115.861, 21166.22
5117.790, 21076.34
5119.718, 21037.95
5121.646, 21029.36
5123.575, 21024.47
5125.503, 20979.05
5127.432, 20934.65
5129.360, 20922.93
5131.289, 20971.42
5133.217, 20857.05
5135.146, 20773.67
5137.074, 20833.46
5139.003, 20656.06
5140.931, 20566.12
5142.860, 20611.04
5144.788, 20561.79
5146.717, 20587.64
5148.645, 20627.24
5150.574, 20502.14
5152.502, 20487.21
5154.431, 20453.07
5156.359, 20259.60
5158.288, 20292.65
5160.216, 20361.25
5162.145, 20365.75
5164.073, 20252.67
5166.001, 20227.97
5167.930, 20280.13
5169.858, 20227.77
5171.787, 20174.73
5173.715, 20132.67
5175.644, 20098.71
5177.572, 20043.33
5179.500, 20001.74
5181.429, 19996.16
5183.357, 20036.90
5185.286, 19999.69
5187.214, 19886.38
5189.143, 19833.59
5191.071, 19828.92
5193.000, 19837.48
5194.928, 19818.58
5196.857, 19750.54
5198.785, 19668.41
5200.714, 19596.77
5202.642, 19526.86
5204.571, 19530.32
5206.499, 19587.48
5208.428, 19535.99
5210.356, 19483.86
5212.285, 19443.73
5214.213, 19415.58
5216.142, 19354.46
5218.070, 19300.18
5219.999, 19278.42
5221.927, 19326.45
5223.855, 19282.77
5225.784, 19164.89
5227.712, 19199.69
5229.641, 19142.59
5231.569, 19058.29
5233.498, 19086.80
5235.426, 19046.04
5237.354, 19006.91
5239.283, 18999.22
5241.211, 18931.21
5243.140, 18860.51
5245.068, 18807.55
5246.997, 18785.22
5248.925, 18773.23
5250.854, 18754.91
5252.782, 18717.43
5254.711, 18639.29
5256.639, 18640.16
5258.568, 18707.28
5260.496, 18575.94
5262.425, 18489.64
5264.353, 18468.79
5266.282, 18505.34
5268.210, 18446.55
5270.139, 18365.04
5272.067, 18307.91
5273.996, 18267.60
5275.924, 18268.42
5277.853, 18282.97
5279.781, 18233.75
5281.709, 18214.57
5283.638, 18207.39
5285.566, 18194.21
5287.495, 18148.62
5289.423, 18067.00
5291.352, 17980.72
5293.280, 17998.56
5295.208, 18000.25
5297.137, 17965.60
5299.065, 17884.42
5300.994, 17859.00
5302.922, 17803.39
5304.851, 17719.59
5306.779, 17813.84
5308.708, 17826.86
5310.636, 17756.39
5312.565, 17654.14
5314.493, 17563.54
5316.422, 17509.75
5318.350, 17504.41
5320.279, 17570.30
5322.207, 17611.31
5324.136, 17584.76
5326.064, 17452.98
5327.993, 17427.42
5329.921, 17383.71
5331.850, 17274.12
5333.778, 17247.95
5335.707, 17265.67
5337.635, 17270.29
5339.563, 17185.14
5341.492, 17086.44
5343.420, 17037.93
5345.349, 17045.48
5347.277, 16964.62
5349.206, 16915.86
5351.134, 16917.97
5353.063, 16987.65
5354.991, 16909.76
5356.919, 16830.25
5358.848, 16818.04
5360.776, 16857.16
5362.705, 16794.65
5364.633, 16708.59
5366.562, 16723.38
5368.490, 16643.62
5370.419, 16609.29
5372.347, 16647.73
5374.276, 16593.94
5376.204, 16477.38
5378.133, 16391.80
5380.061, 16423.60
5381.990, 16347.07
5383.918, 16348.67
5385.847, 16418.86
5387.775, 16354.06
5389.704, 16294.27
5391.632, 16248.29
5393.561, 16210.82
5395.489, 16229.48
5397.417, 16201.08
5399.346, 16129.92
5401.274, 16072.33
5403.203, 16052.20
5405.131, 15978.00
5407.060, 15850.07
5408.988, 15969.89
5410.917, 15952.62
5412.845, 15865.87
5414.773, 15893.18
5416.702, 15854.41
5418.630, 15782.96
5420.559, 15711.44
5422.487, 15692.95
5424.416, 15690.28
5426.344, 15694.83
5428.273, 15696.82
5430.201, 15619.55
5432.130, 15530.72
5434.058, 15464.43
5435.987, 15457.77
5437.915, 15410.21
5439.844, 15372.15
5441.772, 15354.17
5443.701, 15294.05
5445.629, 15270.96
5447.558, 15279.86
5449.486, 15300.09
5451.415, 15242.80
5453.343, 15237.46
5455.271, 15244.78
5457.200, 15106.16
5459.128, 15058.58
5461.057, 15070.42
5462.985, 15085.80
5464.914, 14951.62
5466.842, 14896.02
5468.771, 14891.85
5470.699, 14882.16
5472.627, 14790.67
5474.556, 14802.72
5476.484, 14851.89
5478.413, 14748.59
5480.341, 14687.46
5482.270, 14678.35
5484.198, 14681.67
5486.127, 14566.17
5488.055, 14542.55
5489.984, 14510.91
5491.912, 14418.12
5493.841, 14473.61
5495.769, 14414.77
5497.698, 14316.33
5499.626, 14303.68
5501.555, 14388.02
5503.483, 14380.82
5505.412, 14306.05
5507.340, 14322.60
5509.269, 14236.10
5511.197, 14154.75
5513.125, 14129.80
5515.054, 14153.94
5516.982, 14090.48
5518.911, 14045.15
5520.839, 14076.98
5522.768, 13974.97
5524.696, 13912.25
5526.625, 13908.43
5528.553, 13950.31
5530.481, 13901.79
5532.410, 13795.52
5534.338, 13710.08
5536.267, 13742.87
5538.195, 13650.59
5540.124, 13630.26
5542.052, 13676.64
5543.981, 13562.74
5545.909, 13542.05
5547.838, 13558.85
5549.766, 13566.37
5551.695, 13523.55
5553.623, 13518.72
5555.552, 13477.49
5557.480, 13372.83
5559.409, 13411.60
5561.337, 13438.16
5563.266, 13395.17
5565.194, 13271.50
5567.123, 13171.78
5569.051, 13182.36
5570.979, 13220.57
5572.908, 13170.98
5574.836, 13093.76
5576.765, 13079.94
5578.693, 13096.29
5580.622, 13054.70
5582.550, 12971.14
5584.479, 12940.26
5586.407, 12956.05
5588.335, 12955.47
5590.264, 12899.44
5592.192, 12831.34
5594.121, 12792.52
5596.049, 12861.96
5597.978, 12817.17
5599.906, 12744.88
5601.835, 12690.17
5603.763, 12612.98
5605.692, 12721.25
5607.620, 12736.58
5609.549, 12575.31
5611.477, 12519.00
5613.406, 12526.25
5615.334, 12490.38
5617.263, 12391.14
5619.191, 12403.37
5621.120, 12442.06
5623.048, 12448.40
5624.977, 12392.47
5626.905, 12249.63
5628.833, 12269.42
5630.762, 12268.16
5632.690, 12130.90
5634.619, 12158.32
5636.547, 12150.91
5638.476, 12126.13
5640.404, 12118.10
5642.333, 12121.67
5644.261, 11973.93
5646.189, 11874.20
5648.118, 11950.54
5650.046, 11956.97
5651.975, 11820.78
5653.903, 11748.86
5655.832, 11867.50
5657.760, 11845.91
5659.689, 11828.38
5661.617, 11784.72
5663.546, 11691.22
5665.474, 11672.60
5667.403, 11653.90
5669.331, 11645.40
5671.260, 11653.50
5673.188, 11628.17
5675.117, 11586.54
5677.045, 11541.93
5678.974, 11505.71
5680.902, 11502.74
5682.831, 11486.92
5684.759, 11479.44
5686.688, 11477.42
5688.616, 11378.71
5690.544, 11304.81
5692.473, 11258.94
5694.401, 11233.23
5696.330, 11223.06
5698.258, 11259.22
5700.187, 11205.86
5702.115, 11081.29
5704.043, 11090.14
5705.972, 11084.37
5707.900, 11096.07
5709.829, 11097.66
5711.757, 10993.41
5713.686, 10984.64
5715.614, 10961.47
5717.543, 10912.12
5719.471, 10892.31
5721.400, 10875.38
5723.328, 10848.24
5725.257, 10816.28
5727.185, 10791.29
5729.114, 10795.33
5731.042, 10776.05
5732.971, 10700.14
5734.899, 10571.60
5736.828, 10628.97
5738.756, 10591.60
5740.685, 10529.88
5742.613, 10522.46
5744.542, 10497.54
5746.470, 10460.42
5748.398, 10460.31
5750.327, 10489.86
5752.255, 10424.93
5754.184, 10386.90
5756.112, 10353.55
5758.041, 10323.25
5759.969, 10329.96
5761.897, 10314.02
5763.826, 10266.37
5765.754, 10216.96
5767.683, 10207.73
5769.611, 10220.78
5771.540, 10168.09
5773.468, 10100.80
5775.397, 10079.84
5777.325, 10079.06
5779.254, 10054.25
5781.182, 10023.44
5783.111, 9992.761
5785.039, 9919.827
5786.968, 9908.038
5788.896, 9914.642
5790.825, 9891.943
5792.753, 9779.311
5794.682, 9812.523
5796.610, 9795.770
5798.539, 9738.494
5800.467, 9726.727
5802.396, 9773.285
5804.324, 9725.272
5806.252, 9671.055
5808.181, 9670.630
5810.109, 9595.765
5812.038, 9526.346
5813.966, 9557.265
5815.895, 9618.973
5817.823, 9505.344
5819.751, 9467.175
5821.680, 9448.399
5823.608, 9425.253
5825.537, 9396.187
5827.465, 9338.615
5829.394, 9324.029
5831.322, 9325.378
5833.251, 9319.678
5835.179, 9330.644
5837.108, 9268.069
5839.036, 9231.099
5840.965, 9233.415
5842.893, 9223.583
5844.822, 9206.330
5846.750, 9125.450
5848.679, 9073.094
5850.607, 9116.965
5852.536, 9112.733
5854.464, 9047.360
5856.393, 8975.613
5858.321, 8933.331
5860.250, 8936.251
5862.178, 8967.547
5864.106, 8934.255
5866.035, 8862.909
5867.963, 8821.752
5869.892, 8935.941
5871.820, 8881.704
5873.749, 8811.601
5875.677, 8812.457
5877.605, 8825.411
5879.534, 8772.500
5881.462, 8726.231
5883.391, 8702.724
5885.319, 8686.616
5887.248, 8607.034
5889.176, 8616.558
5891.105, 8626.723
5893.033, 8584.505
5894.962, 8480.292
5896.890, 8531.085
5898.819, 8510.899
5900.747, 8463.708
5902.676, 8482.535
5904.604, 8498.703
5906.533, 8405.904
5908.461, 8363.724
5910.390, 8374.514
5912.318, 8298.690
5914.247, 8307.112
5916.175, 8264.336
5918.104, 8264.095
5920.032, 8338.610
5921.960, 8232.732
5923.889, 8184.386
5925.817, 8198.267
5927.746, 8200.063
5929.674, 8124.868
5931.603, 8111.888
5933.531, 8065.722
5935.459, 8054.771
5937.388, 8074.350
5939.316, 8014.001
5941.245, 8058.412
5943.173, 8014.416
5945.102, 7958.957
5947.030, 7976.885
5948.959, 7976.315
5950.887, 7901.499
5952.816, 7849.397
5954.744, 7840.304
5956.673, 7848.042
5958.601, 7943.485
5960.530, 7855.773
5962.458, 7751.063
5964.387, 7716.598
5966.315, 7710.629
5968.244, 7649.920
5970.172, 7620.223
5972.101, 7631.678
5974.029, 7650.043
5975.958, 7573.676
5977.886, 7575.709
5979.814, 7585.975
5981.743, 7575.789
5983.671, 7546.047
5985.600, 7500.581
5987.528, 7592.418
5989.457, 7559.580
5991.385, 7438.619
5993.313, 7406.322
5995.242, 7416.488
5997.170, 7342.938
5999.099, 7321.008
6001.027, 7349.247
6002.956, 7317.944
6004.884, 7294.982
6006.813, 7219.795
6008.741, 7187.636
6010.670, 7221.445
6012.598, 7248.956
6014.527, 7243.349
6016.455, 7174.259
6018.384, 7100.400
6020.312, 7073.611
6022.241, 7105.132
6024.169, 7085.094
6026.098, 7040.392
6028.026, 7004.587
6029.955, 6992.436
6031.883, 6993.266
6033.812, 6939.038
6035.740, 6888.565
6037.668, 6888.279
6039.597, 6914.863
6041.525, 6841.251
6043.454, 6863.553
6045.382, 6825.345
6047.311, 6784.434
6049.239, 6800.299
6051.167, 6803.527
6053.096, 6765.779
6055.024, 6757.117
6056.953, 6721.049
6058.881, 6646.228
6060.810, 6690.178
6062.738, 6663.251
6064.667, 6630.056
6066.595, 6621.827
6068.524, 6635.750
6070.452, 6646.299
6072.381, 6608.831
6074.309, 6591.791
6076.238, 6569.860
6078.166, 6520.729
6080.095, 6469.527
6082.023, 6474.988
6083.952, 6437.717
6085.880, 6413.026
6087.809, 6421.094
6089.737, 6386.490
6091.666, 6337.650
6093.594, 6326.488
6095.522, 6325.274
6097.451, 6300.902
6099.379, 6236.783
6101.308, 6296.283
6103.236, 6257.823
6105.165, 6172.175
6107.093, 6139.782
6109.021, 6219.034
6110.950, 6154.405
6112.878, 6166.429
6114.807, 6138.266
6116.735, 6090.739
6118.664, 6102.228
6120.592, 6088.000
6122.521, 6001.348
6124.449, 6012.745
6126.378, 6054.624
6128.306, 6033.166
6130.235, 6013.828
6132.163, 5973.466
6134.092, 5948.559
6136.020, 5921.950
6137.949, 5880.203
6139.877, 5833.790
6141.806, 5832.958
6143.734, 5827.165
6145.663, 5824.845
6147.591, 5828.516
6149.520, 5824.400
6151.448, 5746.737
6153.376, 5776.057
6155.305, 5817.223
6157.233, 5794.306
6159.162, 5711.614
6161.090, 5689.082
6163.019, 5709.783
6164.947, 5678.471
6166.875, 5663.673
6168.804, 5678.065
6170.732, 5630.529
6172.661, 5524.721
6174.589, 5517.357
6176.518, 5543.743
6178.446, 5540.086
6180.375, 5496.756
6182.303, 5480.121
6184.232, 5493.681
6186.160, 5469.001
6188.089, 5415.972
6190.017, 5385.538
6191.946, 5430.222
6193.874, 5437.033
6195.803, 5435.333
6197.731, 5409.881
6199.660, 5352.906
6201.588, 5283.258
6203.517, 5266.090
6205.445, 5280.530
6207.374, 5297.844
6209.302, 5272.054
6211.230, 5233.562
6213.159, 5271.215
6215.087, 5241.248
6217.016, 5213.125
6218.944, 5201.454
6220.873, 5177.101
6222.801, 5139.293
6224.729, 5172.433
6226.658, 5094.533
6228.586, 5062.473
6230.515, 5024.122
6232.443, 4980.945
6234.372, 4996.461
6236.300, 5021.833
6238.229, 4979.595
6240.157, 4970.400
6242.086, 4976.571
6244.014, 4973.515
6245.943, 4981.954
6247.871, 4934.116
6249.800, 4935.624
6251.728, 4868.864
6253.657, 4835.578
6255.585, 4908.622
6257.514, 4902.318
6259.442, 4833.885
6261.371, 4809.333
6263.299, 4785.815
6265.228, 4784.882
6267.156, 4829.479
6269.084, 4776.241
6271.013, 4740.375
6272.941, 4741.502
6274.870, 4729.040
6276.798, 4705.220
6278.727, 4695.051
6280.655, 4596.330
6282.583, 4627.216
6284.512, 4670.397
6286.440, 4635.592
6288.369, 4579.850
6290.297, 4602.526
6292.226, 4584.776
6294.154, 4518.122
6296.083, 4518.434
6298.011, 4543.606
6299.940, 4546.472
6301.868, 4521.708
6303.797, 4456.642
6305.725, 4506.506
6307.654, 4444.031
6309.582, 4398.183
6311.511, 4403.799
6313.439, 4372.888
6315.368, 4395.279
6317.296, 4387.323
6319.225, 4386.989
6321.153, 4374.552
6323.082, 4363.370
6325.010, 4375.497
6326.938, 4335.247
6328.867, 4311.497
6330.795, 4263.057
6332.724, 4229.328
6334.652, 4236.915
6336.581, 4263.667
6338.509, 4210.843
6340.438, 4200.548
6342.366, 4197.352
6344.294, 4188.912
6346.223, 4174.773
6348.151, 4154.155
6350.080, 4117.059
6352.008, 4123.370
6353.937, 4084.281
6355.865, 4099.244
6357.794, 4087.485
6359.722, 4032.135
6361.651, 4058.007
6363.579, 4039.203
6365.508, 4015.643
6367.436, 3997.805
6369.365, 4008.108
6371.293, 4021.802
6373.222, 3993.989
6375.150, 3942.044
6377.079, 3956.921
6379.007, 3956.529
6380.936, 3929.352
6382.864, 3925.915
6384.792, 3930.866
6386.721, 3813.552
6388.649, 3860.764
6390.578, 3911.513
6392.506, 3834.630
6394.435, 3795.859
6396.363, 3841.037
6398.292, 3844.323
6400.220, 3786.897
6402.148, 3763.562
6404.077, 3816.241
6406.005, 3772.173
6407.934, 3721.183
6409.862, 3751.459
6411.791, 3717.862
6413.719, 3728.814
6415.648, 3699.014
6417.576, 3652.092
6419.505, 3646.493
6421.433, 3677.017
6423.362, 3694.429
6425.290, 3676.242
6427.219, 3563.235
6429.147, 3631.596
6431.076, 3612.094
6433.004, 3560.818
6434.933, 3569.588
6436.861, 3578.898
6438.790, 3515.040
6440.718, 3508.986
6442.646, 3517.280
6444.575, 3549.890
6446.503, 3555.873
6448.432, 3508.228
6450.360, 3458.462
6452.289, 3516.537
6454.217, 3479.945
6456.146, 3441.708
6458.074, 3465.915
6460.002, 3494.123
6461.931, 3456.635
6463.859, 3381.185
6465.788, 3407.979
6467.716, 3379.130
6469.645, 3360.623
6471.573, 3382.878
6473.502, 3384.729
6475.430, 3349.121
6477.359, 3365.844
6479.287, 3303.502
6481.216, 3319.325
6483.144, 3293.724
6485.073, 3285.041
6487.001, 3283.655
6488.930, 3262.084
6490.858, 3248.067
6492.787, 3210.176
6494.715, 3206.514
6496.644, 3196.716
6498.572, 3202.255
6500.500, 3186.914
6502.429, 3151.626
6504.357, 3152.599
6506.286, 3153.285
6508.214, 3123.524
6510.143, 3168.400
6512.071, 3131.977
6514.000, 3108.596
6515.928, 3125.314
6517.856, 3104.444
6519.785, 3112.895
6521.713, 3097.712
6523.642, 3061.696
6525.570, 3065.563
6527.499, 3061.784
6529.427, 3053.805
6531.356, 3060.994
6533.284, 3047.393
6535.213, 2998.195
6537.141, 3007.760
6539.070, 2983.326
6540.998, 2952.194
6542.927, 2965.067
6544.855, 2986.936
6546.784, 2960.345
6548.712, 2956.939
6550.641, 2938.798
6552.569, 2923.708
6554.498, 2950.497
6556.426, 2951.254
6558.354, 2896.549
6560.283, 2846.446
6562.211, 2877.118
6564.140, 2933.968
6566.068, 2881.063
6567.997, 2868.367
6569.925, 2831.901
6571.854, 2851.712
6573.782, 2880.274
6575.710, 2835.431
6577.639, 2782.985
6579.567, 2818.591
6581.496, 2837.250
6583.424, 2830.101
6585.353, 2772.365
6587.281, 2747.605
6589.210, 2761.759
6591.138, 2759.907
6593.067, 2747.717
6594.995, 2750.546
6596.924, 2737.831
6598.852, 2703.636
6600.781, 2710.914
6602.709, 2713.746
6604.638, 2684.014
6606.566, 2660.718
6608.495, 2687.704
6610.423, 2673.352
6612.352, 2620.837
6614.280, 2611.667
6616.208, 2591.587
6618.137, 2565.107
6620.065, 2600.100
6621.994, 2662.918
6623.922, 2618.706
6625.851, 2580.017
6627.779, 2578.668
##END=



