##NAMES=Andradite
##RRUFFID=R100049
##IDEAL CHEMISTRY=Ca_3_Fe^3+^_2_(SiO_4_)_3_
##LOCALITY=Langban, Filipstad, Varmland, Sweden
##OWNER=RRUFF
##SOURCE=William W Pinch
##DESCRIPTION=Yellowish orange transparent crystals associated with phenakite
##STATUS=The identification of this mineral has been confirmed only by single crystal X-ray diffraction
##URL=https://www.rruff.net/odr/rruff_sample/R100049
##DIFFRACTION SAMPLE DESCRIPTION=Single crystal, powder profile is calculated
##CELL PARAMETERS=a: 12.056 b: 12.056 c: 12.056 alpha: 90 beta: 90 gamma: 90 volume: 1752.5 crystal system: cubic
##FILETYPE=Raman RAW
##RAMAN WAVELENGTH=532

92.22681, 19.57365
94.15527, 19.73628
96.08374, 19.58913
98.01221, 19.23825
99.94067, 18.91381
101.8691, 18.62883
103.7976, 18.35900
105.7261, 18.03894
107.6545, 17.53500
109.5830, 17.35484
111.5115, 17.73202
113.4399, 18.53634
115.3684, 19.14789
117.2969, 19.36440
119.2253, 19.53733
121.1538, 19.87790
123.0823, 20.35039
125.0107, 21.05629
126.9392, 21.68654
128.8677, 22.41579
130.7961, 24.33975
132.7246, 26.98884
134.6531, 31.08983
136.5815, 37.74628
138.5100, 47.02628
140.4385, 57.73863
142.3669, 69.56721
144.2954, 82.50761
146.2239, 96.35728
148.1523, 109.9622
150.0808, 125.1768
152.0093, 143.1685
153.9377, 164.8611
155.8662, 188.2724
157.7947, 211.9853
159.7231, 235.9207
161.6516, 263.2105
163.5801, 296.4231
165.5085, 330.3052
167.4370, 351.0680
169.3655, 369.1141
171.2939, 382.9586
173.2224, 392.3825
175.1509, 398.3297
177.0793, 397.9354
179.0078, 389.0917
180.9363, 375.7406
182.8647, 361.0963
184.7932, 343.8823
186.7217, 327.1588
188.6501, 311.5408
190.5786, 296.3522
192.5071, 284.4527
194.4355, 275.0171
196.3640, 268.7669
198.2925, 266.3286
200.2209, 268.5096
202.1494, 272.5768
204.0779, 277.3499
206.0063, 282.8513
207.9348, 289.2743
209.8633, 295.3876
211.7917, 303.1472
213.7202, 313.7253
215.6487, 325.7933
217.5771, 342.8209
219.5056, 366.0089
221.4341, 395.4707
223.3625, 428.4373
225.2910, 470.4212
227.2195, 513.8291
229.1479, 551.0948
231.0764, 586.6161
233.0049, 612.4520
234.9333, 622.2338
236.8618, 618.0300
238.7903, 605.5382
240.7188, 579.1003
242.6472, 545.6399
244.5757, 512.2410
246.5042, 479.9042
248.4326, 449.6174
250.3611, 422.5174
252.2896, 398.7041
254.2180, 380.0423
256.1465, 367.3601
258.0750, 357.5120
260.0034, 348.3760
261.9319, 339.8826
263.8604, 331.3143
265.7888, 321.1205
267.7173, 309.6620
269.6458, 299.7454
271.5742, 290.1661
273.5027, 283.7716
275.4312, 281.4571
277.3596, 283.5533
279.2881, 288.8296
281.2166, 297.3412
283.1450, 309.4431
285.0735, 324.8295
287.0020, 343.3425
288.9304, 365.7790
290.8589, 391.7766
292.7874, 421.4715
294.7158, 455.9385
296.6443, 495.7851
298.5728, 540.0259
300.5012, 586.8755
302.4297, 638.0284
304.3582, 688.1154
306.2866, 737.7698
308.2151, 786.7546
310.1436, 830.0010
312.0720, 861.9785
314.0005, 889.1721
315.9290, 916.0481
317.8574, 939.1221
319.7859, 961.7803
321.7144, 986.6545
323.6428, 1016.860
325.5713, 1053.133
327.4998, 1091.732
329.4282, 1143.431
331.3567, 1210.463
333.2852, 1291.440
335.2136, 1392.809
337.1421, 1522.339
339.0706, 1674.320
340.9990, 1838.823
342.9275, 2024.146
344.8560, 2219.699
346.7844, 2419.522
348.7129, 2625.841
350.6414, 2854.267
352.5698, 3094.000
354.4983, 3359.168
356.4268, 3659.231
358.3552, 4014.076
360.2837, 4368.205
362.2122, 4772.124
364.1406, 5187.887
366.0691, 5532.502
367.9976, 5799.937
369.9260, 5958.863
371.8545, 5986.651
373.7830, 5777.782
375.7114, 5459.290
377.6399, 5017.916
379.5684, 4505.417
381.4968, 3957.621
383.4253, 3413.540
385.3538, 2921.411
387.2822, 2486.480
389.2107, 2119.994
391.1392, 1822.122
393.0676, 1601.556
394.9961, 1418.359
396.9246, 1252.889
398.8530, 1095.421
400.7815, 954.1981
402.7100, 820.5548
404.6384, 702.4466
406.5669, 607.8564
408.4954, 541.7039
410.4238, 489.7374
412.3523, 449.3328
414.2808, 420.1119
416.2092, 395.8833
418.1377, 377.2127
420.0662, 362.4607
421.9946, 350.6867
423.9231, 342.6864
425.8516, 335.5668
427.7800, 328.7137
429.7085, 322.8044
431.6370, 318.2608
433.5654, 315.0294
435.4939, 314.1363
437.4224, 315.4104
439.3508, 318.6039
441.2793, 324.5854
443.2078, 334.7584
445.1362, 346.4677
447.0647, 359.4224
448.9932, 374.0842
450.9216, 386.5651
452.8501, 393.8058
454.7786, 396.4331
456.7070, 396.4850
458.6355, 392.9783
460.5640, 388.9743
462.4924, 384.2625
464.4209, 383.0345
466.3494, 384.9923
468.2778, 389.4697
470.2063, 400.0388
472.1348, 418.0608
474.0632, 441.9795
475.9917, 474.1938
477.9202, 514.3046
479.8486, 563.2896
481.7771, 622.1393
483.7056, 697.5022
485.6340, 777.0753
487.5625, 867.6037
489.4910, 961.5426
491.4194, 1047.665
493.3479, 1119.121
495.2764, 1178.406
497.2048, 1221.079
499.1333, 1243.972
501.0618, 1279.261
502.9902, 1319.655
504.9187, 1394.443
506.8472, 1509.938
508.7756, 1681.423
510.7041, 1872.315
512.6326, 2106.565
514.5610, 2340.792
516.4895, 2549.300
518.4180, 2705.614
520.3464, 2779.547
522.2749, 2754.238
524.2034, 2634.196
526.1318, 2443.378
528.0603, 2186.163
529.9888, 1933.519
531.9172, 1681.668
533.8457, 1452.548
535.7742, 1261.388
537.7026, 1114.551
539.6311, 997.3099
541.5596, 912.3894
543.4880, 859.3569
545.4165, 809.7557
547.3450, 763.1226
549.2734, 718.7276
551.2019, 677.8054
553.1304, 637.5692
555.0588, 602.7328
556.9873, 575.6395
558.9158, 552.5524
560.8442, 529.7819
562.7727, 506.9024
564.7012, 488.8177
566.6296, 476.7018
568.5581, 471.0826
570.4866, 469.0714
572.4150, 473.8477
574.3435, 479.1579
576.2720, 485.7113
578.2004, 489.3405
580.1289, 487.7384
582.0574, 479.9630
583.9858, 466.7396
585.9143, 447.2921
587.8428, 422.8384
589.7712, 400.5490
591.6997, 379.9130
593.6282, 361.9215
595.5566, 347.3049
597.4851, 336.0646
599.4136, 326.5021
601.3420, 319.6594
603.2705, 313.4933
605.1990, 306.2960
607.1274, 297.3112
609.0559, 288.1186
610.9844, 278.8119
612.9128, 269.5533
614.8413, 260.4920
616.7698, 251.4721
618.6982, 242.9421
620.6267, 234.7091
622.5552, 227.0808
624.4836, 220.4635
626.4121, 215.0235
628.3406, 210.2112
630.2690, 205.8932
632.1975, 202.0756
634.1260, 198.4162
636.0544, 194.2065
637.9829, 190.8098
639.9114, 189.6187
641.8398, 190.2107
643.7683, 189.4001
645.6968, 185.4277
647.6252, 181.4169
649.5537, 179.0359
651.4822, 178.8161
653.4106, 178.5232
655.3391, 177.7854
657.2676, 177.1199
659.1960, 176.9321
661.1245, 177.0801
663.0530, 177.9779
664.9814, 181.4552
666.9099, 185.3186
668.8384, 186.1232
670.7668, 178.8712
672.6953, 174.4953
674.6238, 176.0922
676.5522, 181.2278
678.4807, 184.6194
680.4092, 185.7008
682.3376, 185.8823
684.2661, 185.5576
686.1946, 184.7656
688.1230, 183.6892
690.0515, 181.2492
691.9800, 179.6985
693.9084, 180.9999
695.8369, 183.9285
697.7654, 184.4626
699.6938, 179.8660
701.6223, 175.6414
703.5508, 174.0335
705.4792, 175.0728
707.4077, 175.5543
709.3362, 174.7881
711.2646, 174.2426
713.1931, 174.7361
715.1216, 176.0862
717.0500, 177.1004
718.9785, 177.6987
720.9070, 177.9696
722.8354, 177.7059
724.7639, 176.5300
726.6924, 175.8721
728.6208, 176.1281
730.5493, 176.6714
732.4778, 176.9223
734.4063, 176.7357
736.3347, 176.6361
738.2632, 176.8091
740.1917, 177.2316
742.1201, 177.5969
744.0486, 177.6340
745.9771, 178.0085
747.9055, 178.9068
749.8340, 180.1610
751.7625, 181.4787
753.6909, 182.7133
755.6194, 184.3788
757.5479, 186.6260
759.4763, 189.3470
761.4048, 192.3473
763.3333, 195.5206
765.2617, 199.6361
767.1902, 204.4907
769.1187, 210.5360
771.0471, 218.2868
772.9756, 227.8905
774.9041, 239.2509
776.8325, 252.3154
778.7610, 266.8388
780.6895, 281.9976
782.6179, 297.3651
784.5464, 315.9417
786.4749, 337.8127
788.4033, 363.2063
790.3318, 393.2571
792.2603, 427.5304
794.1887, 468.3325
796.1172, 514.4092
798.0457, 566.8154
799.9741, 628.1400
801.9026, 697.5634
803.8311, 778.8459
805.7595, 875.2484
807.6880, 983.2349
809.6165, 1100.568
811.5449, 1230.858
813.4734, 1357.825
815.4019, 1490.640
817.3303, 1616.635
819.2588, 1712.452
821.1873, 1783.320
823.1157, 1825.170
825.0442, 1824.095
826.9727, 1797.006
828.9011, 1759.647
830.8296, 1700.995
832.7581, 1664.947
834.6865, 1658.947
836.6150, 1680.416
838.5435, 1735.301
840.4719, 1825.810
842.4004, 1926.648
844.3289, 2045.026
846.2573, 2163.476
848.1858, 2254.495
850.1143, 2320.404
852.0427, 2359.067
853.9712, 2354.875
855.8997, 2325.887
857.8281, 2294.561
859.7566, 2261.837
861.6851, 2279.871
863.6135, 2347.083
865.5420, 2493.437
867.4705, 2735.816
869.3989, 3061.505
871.3274, 3448.422
873.2559, 3967.716
875.1843, 4473.741
877.1128, 4950.798
879.0413, 5448.220
880.9697, 5753.125
882.8982, 5822.753
884.8267, 5701.736
886.7551, 5348.707
888.6836, 4732.697
890.6121, 4087.875
892.5405, 3425.123
894.4690, 2805.706
896.3975, 2280.985
898.3259, 1864.384
900.2544, 1539.420
902.1829, 1304.968
904.1113, 1128.867
906.0398, 988.9648
907.9683, 879.2648
909.8967, 773.3898
911.8252, 669.4968
913.7537, 584.6854
915.6821, 515.4328
917.6106, 460.4876
919.5391, 418.6187
921.4675, 388.0302
923.3960, 362.6859
925.3245, 342.7020
927.2529, 326.1924
929.1814, 312.9348
931.1099, 302.7571
933.0383, 293.8839
934.9668, 285.7313
936.8953, 278.6281
938.8237, 272.8804
940.7522, 268.4290
942.6807, 264.4474
944.6091, 260.5384
946.5376, 257.0638
948.4661, 254.7187
950.3945, 253.2733
952.3230, 252.8948
954.2515, 253.8443
956.1799, 255.3947
958.1084, 257.2546
960.0369, 260.9664
961.9653, 265.6898
963.8938, 270.5243
965.8223, 275.0550
967.7507, 280.2557
969.6792, 286.0695
971.6077, 292.5008
973.5361, 299.2079
975.4646, 305.7933
977.3931, 312.2386
979.3215, 320.7025
981.2500, 329.9593
983.1785, 339.8667
985.1069, 352.4244
987.0354, 368.7565
988.9639, 388.5902
990.8923, 414.1145
992.8208, 442.2228
994.7493, 468.7072
996.6777, 492.9271
998.6062, 516.1793
1000.535, 522.6146
1002.463, 515.0165
1004.392, 494.9920
1006.320, 460.3976
1008.249, 415.4339
1010.177, 371.8218
1012.105, 331.0239
1014.034, 295.7438
1015.962, 266.9128
1017.891, 244.4535
1019.819, 227.1083
1021.748, 214.7932
1023.676, 204.4227
1025.605, 195.3698
1027.533, 187.3246
1029.462, 179.9946
1031.390, 173.4231
1033.319, 167.9182
1035.247, 162.7960
1037.176, 158.7018
1039.104, 155.5468
1041.032, 153.0006
1042.961, 150.9314
1044.889, 149.1954
1046.818, 147.8800
1048.746, 147.0239
1050.675, 146.5549
1052.603, 145.9333
1054.532, 145.0161
1056.460, 144.5961
1058.389, 145.2118
1060.317, 146.6918
1062.246, 148.1115
1064.174, 149.1899
1066.103, 150.6066
1068.031, 152.8432
1069.959, 155.6940
1071.888, 158.6334
1073.816, 161.2744
1075.745, 164.4099
1077.673, 168.2115
1079.602, 171.7519
1081.530, 174.4380
1083.459, 176.3589
1085.387, 178.8710
1087.316, 182.0285
1089.244, 185.1697
1091.173, 187.9315
1093.101, 190.2422
1095.030, 192.0798
1096.958, 193.6618
1098.886, 195.0377
1100.815, 195.7083
1102.743, 195.7842
1104.672, 195.7265
1106.600, 196.0178
1108.529, 195.7059
1110.457, 194.5399
1112.386, 192.3918
1114.314, 189.6503
1116.243, 186.6432
1118.171, 183.9693
1120.100, 181.4097
1122.028, 178.4215
1123.957, 175.0945
1125.885, 171.6576
1127.813, 168.3470
1129.742, 165.0469
1131.670, 161.5132
1133.599, 157.7415
1135.527, 154.1803
1137.456, 151.5072
1139.384, 150.1478
1141.313, 149.0456
1143.241, 148.2800
1145.170, 147.5518
1147.098, 146.5623
1149.027, 145.4868
1150.955, 145.1514
1152.884, 145.7618
1154.812, 146.6113
1156.740, 147.6011
1158.669, 148.7893
1160.597, 150.0241
1162.526, 151.0629
1164.454, 152.4744
1166.383, 154.5965
1168.311, 157.1164
1170.240, 159.6411
1172.168, 162.0969
1174.097, 164.2122
1176.025, 165.9235
1177.954, 167.5829
1179.882, 169.4396
1181.811, 171.1734
1183.739, 171.9925
1185.667, 171.6362
1187.596, 171.3826
1189.524, 171.8636
1191.453, 172.2113
1193.381, 171.9238
1195.310, 170.9059
1197.238, 169.7115
1199.167, 168.3117
1201.095, 167.0394
1203.024, 166.0241
1204.952, 164.8819
1206.881, 162.7803
1208.809, 159.2195
1210.738, 155.8988
1212.666, 153.2787
1214.594, 151.0021
1216.523, 148.7200
1218.451, 146.3150
1220.380, 143.6447
1222.308, 140.7181
1224.237, 137.8561
1226.165, 134.8733
1228.094, 131.6710
1230.022, 128.4932
1231.951, 125.2189
1233.879, 122.3629
1235.808, 120.3366
1237.736, 118.5288
1239.665, 116.2249
1241.593, 113.4883
1243.521, 111.3006
1245.450, 109.9278
1247.378, 108.5216
1249.307, 107.0683
1251.235, 105.8859
1253.164, 104.8893
1255.092, 104.0422
1257.021, 103.2115
1258.949, 102.3918
1260.878, 101.6205
1262.806, 100.7408
1264.735, 99.88560
1266.663, 99.58259
1268.592, 100.0777
1270.520, 100.5906
1272.448, 101.0341
1274.377, 101.4503
1276.305, 101.7599
1278.234, 101.8795
1280.162, 102.1747
1282.091, 102.9787
1284.019, 103.6678
1285.948, 103.6133
1287.876, 103.3611
1289.805, 103.9683
1291.733, 105.4998
1293.662, 106.5331
1295.590, 106.6066
1297.519, 106.4388
1299.447, 106.3620
1301.375, 106.4054
1303.304, 106.4254
1305.232, 106.3456
1307.161, 106.3516
1309.089, 106.7018
1311.018, 107.0437
1312.946, 107.0635
1314.875, 106.7550
1316.803, 106.7805
1318.732, 107.5303
1320.660, 108.1588
1322.589, 108.2275
1324.517, 108.1078
1326.446, 108.4751
1328.374, 109.5100
1330.302, 110.2301
1332.231, 110.3918
1334.159, 110.5088
1336.088, 110.7390
1338.016, 111.1169
1339.945, 111.6369
1341.873, 112.3217
1343.802, 113.1787
1345.730, 114.3568
1347.659, 115.4780
1349.587, 116.2063
1351.516, 116.7749
1353.444, 117.8902
1355.373, 119.8219
1357.301, 121.5216
1359.229, 122.8630
1361.158, 123.8623
1363.086, 124.4045
1365.015, 124.5670
1366.943, 124.8477
1368.872, 125.4175
1370.800, 125.8764
1372.729, 126.0207
1374.657, 126.2093
1376.586, 126.9067
1378.514, 128.0220
1380.443, 128.4839
1382.371, 127.9753
1384.300, 127.4793
1386.228, 127.0294
1388.156, 126.8621
1390.085, 127.4477
1392.013, 128.6041
1393.942, 129.0594
1395.870, 128.2912
1397.799, 127.7635
1399.727, 128.3546
1401.656, 129.1860
1403.584, 129.4993
1405.513, 129.2967
1407.441, 128.9626
1409.370, 128.3537
1411.298, 127.9562
1413.227, 128.1164
1415.155, 128.1891
1417.083, 127.7180
1419.012, 126.7092
1420.940, 125.6268
1422.869, 124.4295
1424.797, 123.3137
1426.726, 122.3655
1428.654, 121.4031
1430.583, 120.2559
1432.511, 118.8355
1434.440, 117.7542
1436.368, 117.3214
1438.297, 116.9956
1440.225, 116.6403
1442.154, 116.1057
1444.082, 115.4371
1446.010, 114.7679
1447.939, 114.2973
1449.867, 114.2096
1451.796, 113.9551
1453.724, 113.1983
1455.653, 112.2370
1457.581, 111.3092
1459.510, 110.4682
1461.438, 109.9180
1463.367, 109.7196
1465.295, 109.6772
1467.224, 109.9920
1469.152, 110.2748
1471.081, 110.0858
1473.009, 109.4099
1474.938, 108.9300
1476.866, 108.6921
1478.794, 108.6037
1480.723, 108.7930
1482.651, 109.0014
1484.580, 108.9437
1486.508, 108.6498
1488.437, 108.6110
1490.365, 108.9078
1492.294, 109.3411
1494.222, 110.2746
1496.151, 110.9670
1498.079, 110.6839
1500.008, 109.6332
1501.936, 108.9789
1503.865, 108.9326
1505.793, 108.6768
1507.721, 107.8997
1509.650, 107.2083
1511.578, 107.1543
1513.507, 107.3306
1515.435, 106.8120
1517.364, 105.5708
1519.292, 104.6875
1521.221, 104.3007
1523.149, 104.1505
1525.078, 104.5184
1527.006, 104.9577
1528.935, 104.6028
1530.863, 103.4160
1532.792, 102.3873
1534.720, 101.6280
1536.648, 101.0622
1538.577, 100.5304
1540.505, 100.3107
1542.434, 100.7961
1544.362, 101.8683
1546.291, 103.0507
1548.219, 105.1746
1550.148, 105.4139
1552.076, 101.2869
1554.005, 96.38098
1555.933, 92.77136
1557.862, 90.42130
1559.790, 89.01375
1561.719, 88.77862
1563.647, 88.43552
1565.575, 87.93161
1567.504, 87.29771
1569.432, 86.45607
1571.361, 85.44440
1573.289, 84.32180
1575.218, 82.88780
1577.146, 82.17312
1579.075, 83.09509
1581.003, 83.61794
1582.932, 82.97720
1584.860, 81.87200
1586.789, 80.95674
1588.717, 80.25466
1590.646, 79.79361
1592.574, 79.70953
1594.502, 79.67457
1596.431, 79.95713
1598.359, 79.97693
1600.288, 79.01880
1602.216, 77.60826
1604.145, 77.18111
1606.073, 78.22077
1608.002, 78.81375
1609.930, 78.49184
1611.859, 78.35100
1613.787, 78.92577
1615.716, 79.72924
1617.644, 80.16707
1619.573, 80.21819
1621.501, 80.40992
1623.429, 80.73716
1625.358, 81.27346
1627.286, 82.32104
1629.215, 83.26694
1631.143, 83.65311
1633.072, 83.70753
1635.000, 83.89035
1636.929, 84.17915
1638.857, 84.73094
1640.786, 85.97068
1642.714, 86.85566
1644.643, 86.72968
1646.571, 86.36732
1648.500, 86.43235
1650.428, 86.88747
1652.356, 87.55717
1654.285, 88.53984
1656.213, 89.35056
1658.142, 89.65060
1660.070, 90.07767
1661.999, 91.08047
1663.927, 92.30152
1665.856, 93.20228
1667.784, 93.82327
1669.713, 94.61311
1671.641, 95.63989
1673.570, 96.73048
1675.498, 98.02509
1677.427, 99.18273
1679.355, 99.83631
1681.283, 100.2464
1683.212, 100.9755
1685.140, 102.0329
1687.069, 102.8950
1688.997, 103.3202
1690.926, 103.9130
1692.854, 105.2764
1694.783, 106.5235
1696.711, 106.7308
1698.640, 106.3153
1700.568, 106.3864
1702.497, 107.0035
1704.425, 107.7028
1706.354, 108.4852
1708.282, 109.2260
1710.210, 109.8855
1712.139, 110.4823
1714.067, 110.9970
1715.996, 111.6710
1717.924, 112.1077
1719.853, 112.9483
1721.781, 113.6579
1723.710, 114.3293
1725.638, 114.6116
1727.567, 114.1377
1729.495, 113.3303
1731.424, 112.4951
1733.352, 111.6656
1735.281, 111.1774
1737.209, 111.2382
1739.137, 110.5554
1741.066, 108.3089
1742.994, 106.2292
1744.923, 105.2598
1746.851, 104.6664
1748.780, 103.6516
1750.708, 102.3411
1752.637, 101.2454
1754.565, 100.3385
1756.494, 99.78460
1758.422, 100.0690
1760.351, 100.0231
1762.279, 98.71762
1764.208, 97.25909
1766.136, 96.91196
1768.064, 97.39604
1769.993, 97.44786
1771.921, 97.02288
1773.850, 96.42582
1775.778, 95.48675
1777.707, 94.67322
1779.635, 94.17069
1781.564, 93.81353
1783.492, 93.32412
1785.421, 92.86315
1787.349, 93.06772
1789.278, 94.14544
1791.206, 94.87035
1793.135, 94.97292
1795.063, 95.04916
1796.991, 95.15287
1798.920, 95.35193
1800.848, 95.74256
1802.777, 96.25252
1804.705, 96.77296
1806.634, 97.34915
1808.562, 97.62463
1810.491, 97.26278
1812.419, 97.13294
1814.348, 97.48812
1816.276, 97.89063
1818.205, 98.01717
1820.133, 98.10265
1822.062, 98.67746
1823.990, 98.55028
1825.918, 98.30689
1827.847, 98.51218
1829.775, 97.62386
1831.704, 97.38998
1833.632, 97.50316
1835.561, 98.39284
1837.489, 99.14068
1839.418, 98.60615
1841.346, 97.23973
1843.275, 96.75288
1845.203, 97.34083
1847.132, 97.64250
1849.060, 97.44608
1850.989, 97.21238
1852.917, 96.80513
1854.845, 96.66546
1856.774, 97.16614
1858.702, 97.99152
1860.631, 98.75869
1862.559, 99.44936
1864.488, 99.84327
1866.416, 99.85588
1868.345, 100.0228
1870.273, 100.7330
1872.202, 101.0689
1874.130, 100.3939
1876.059, 99.45774
1877.987, 98.80603
1879.916, 98.34182
1881.844, 97.92015
1883.772, 97.52396
1885.701, 96.92353
1887.629, 96.01208
1889.558, 95.13264
1891.486, 94.30360
1893.415, 93.60268
1895.343, 93.08316
1897.272, 92.70810
1899.200, 92.38317
1901.129, 92.18163
1903.057, 92.39770
1904.986, 93.11150
1906.914, 93.81535
1908.843, 94.41915
1910.771, 95.13012
1912.699, 96.22987
1914.628, 97.12473
1916.556, 97.26089
1918.485, 97.19094
1920.413, 97.66746
1922.342, 98.56760
1924.270, 99.19483
1926.199, 99.44251
1928.127, 99.77360
1930.056, 100.1120
1931.984, 100.6963
1933.913, 101.7804
1935.841, 102.8580
1937.770, 103.7351
1939.698, 104.4355
1941.626, 104.8706
1943.555, 105.1431
1945.483, 105.6425
1947.412, 106.3526
1949.340, 107.8667
1951.269, 110.8776
1953.197, 112.7613
1955.126, 111.8783
1957.054, 111.0360
1958.983, 112.1798
1960.911, 113.7697
1962.840, 114.0709
1964.768, 113.5458
1966.697, 113.5069
1968.625, 113.9727
1970.553, 114.3471
1972.482, 114.3545
1974.410, 114.8148
1976.339, 116.5923
1978.267, 117.8743
1980.196, 117.5669
1982.124, 116.8921
1984.053, 116.9245
1985.981, 117.3731
1987.910, 117.6609
1989.838, 117.7927
1991.767, 117.5527
1993.695, 116.9249
1995.624, 115.9440
1997.552, 114.8558
1999.480, 112.9920
2001.409, 109.4987
2003.337, 105.9519
2005.266, 103.4177
2007.194, 101.1694
2009.123, 98.03881
2011.051, 94.42808
2012.980, 91.80870
2014.908, 90.21774
2016.837, 88.81513
2018.765, 87.59898
2020.694, 86.28520
2022.622, 84.42841
2024.551, 83.05173
2026.479, 82.79246
2028.407, 82.95200
2030.336, 83.20558
2032.264, 83.37092
2034.193, 82.98499
2036.121, 82.11270
2038.050, 81.64835
2039.978, 81.72755
2041.907, 81.82805
2043.835, 82.09573
2045.764, 82.15113
2047.692, 81.82197
2049.621, 81.45330
2051.549, 81.07151
2053.478, 80.81676
2055.406, 80.99535
2057.334, 81.28580
2059.263, 80.86964
2061.191, 79.93244
2063.120, 79.68315
2065.048, 80.23515
2066.977, 80.73742
2068.905, 81.25362
2070.834, 81.25365
2072.762, 79.90907
2074.691, 78.95738
2076.619, 79.54166
2078.548, 80.40473
2080.476, 80.43609
2082.405, 80.06228
2084.333, 79.98073
2086.261, 80.17812
2088.190, 80.61720
2090.118, 81.51331
2092.047, 81.63388
2093.975, 80.56089
2095.904, 79.65936
2097.832, 78.53020
2099.761, 78.71177
2101.689, 82.72016
2103.618, 85.85041
2105.546, 83.58011
2107.475, 79.78541
2109.403, 79.32383
2111.332, 81.01525
2113.260, 81.61550
2115.188, 81.13154
2117.117, 80.80006
2119.045, 80.67187
2120.974, 80.62357
2122.902, 80.54023
2124.831, 80.67912
2126.759, 81.27141
2128.688, 81.83523
2130.616, 82.22962
2132.545, 82.45769
2134.473, 82.56901
2136.402, 82.49453
2138.330, 81.86356
2140.259, 80.94695
2142.187, 80.93974
2144.115, 81.82104
2146.044, 82.40327
2147.972, 82.53389
2149.901, 82.67671
2151.829, 83.12894
2153.758, 83.20463
2155.686, 82.22258
2157.615, 81.49643
2159.543, 81.90825
2161.472, 82.53627
2163.400, 82.77320
2165.329, 82.58053
2167.257, 81.51659
2169.186, 79.94303
2171.114, 79.77776
2173.042, 81.00491
2174.971, 81.82659
2176.899, 82.13821
2178.828, 82.33377
2180.756, 82.51788
2182.685, 82.46714
2184.613, 81.77195
2186.542, 81.33923
2188.470, 81.67744
2190.399, 82.21787
2192.327, 82.76379
2194.256, 83.14014
2196.184, 83.04002
2198.113, 83.12156
2200.041, 82.47222
2201.969, 82.47195
2203.898, 82.05594
2205.826, 81.12833
2207.755, 81.36267
2209.683, 83.24459
2211.612, 84.38144
2213.540, 84.09739
2215.469, 83.65817
2217.397, 83.53600
2219.326, 83.26872
2221.254, 82.25258
2223.183, 81.46608
2225.111, 81.65644
2227.040, 82.46729
2228.968, 83.89329
2230.896, 85.43179
2232.825, 85.63757
2234.753, 84.65742
2236.682, 84.15831
2238.610, 84.15613
2240.539, 84.19666
2242.467, 84.26564
2244.396, 84.23303
2246.324, 84.00056
2248.253, 83.86775
2250.181, 83.88811
2252.110, 84.07047
2254.038, 84.63412
2255.967, 85.10856
2257.895, 85.08721
2259.823, 84.96596
2261.752, 85.21783
2263.680, 85.08642
2265.609, 85.46352
2267.537, 85.07548
2269.466, 84.94299
2271.394, 85.02470
2273.323, 84.90920
2275.251, 84.54282
2277.180, 84.73671
2279.108, 85.96605
2281.037, 86.52000
2282.965, 85.63702
2284.894, 84.96329
2286.822, 84.79629
2288.750, 84.83394
2290.679, 85.13728
2292.607, 85.41564
2294.536, 85.35519
2296.464, 85.36483
2298.393, 85.91614
2300.321, 86.62838
2302.250, 87.12727
2304.178, 87.37364
2306.107, 87.14347
2308.035, 86.54266
2309.964, 86.32494
2311.892, 86.54765
2313.821, 86.52497
2315.749, 86.00786
2317.677, 86.31079
2319.606, 87.86971
2321.534, 88.90366
2323.463, 88.87601
2325.391, 88.98117
2327.320, 89.99129
2329.248, 90.49105
2331.177, 89.40085
2333.105, 88.24609
2335.034, 87.90154
2336.962, 87.87254
2338.891, 87.71719
2340.819, 87.62180
2342.748, 88.03600
2344.676, 87.73849
2346.604, 88.32797
2348.533, 87.55048
2350.461, 87.15109
2352.390, 87.12074
2354.318, 87.25210
2356.247, 87.57547
2358.175, 87.65881
2360.104, 87.28877
2362.032, 87.14189
2363.961, 87.21956
2365.889, 87.52774
2367.818, 88.32375
2369.746, 88.80207
2371.675, 88.65294
2373.603, 88.41335
2375.531, 88.32977
2377.460, 88.18918
2379.388, 87.46743
2381.317, 87.10767
2383.245, 88.38583
2385.174, 89.81557
2387.102, 89.57103
2389.031, 88.61326
2390.959, 88.42608
2392.888, 88.72422
2394.816, 88.92922
2396.745, 89.00022
2398.673, 88.66380
2400.602, 87.98998
2402.530, 87.51437
2404.458, 87.22886
2406.387, 87.39162
2408.315, 88.23793
2410.244, 88.82133
2412.172, 89.05946
2414.101, 89.25983
2416.029, 89.48994
2417.958, 89.56099
2419.886, 89.34078
2421.815, 89.19596
2423.743, 89.34802
2425.672, 89.45618
2427.600, 89.24387
2429.529, 89.15667
2431.457, 89.51777
2433.385, 89.98621
2435.314, 90.57115
2437.242, 90.89681
2439.171, 90.43570
2441.099, 89.66746
2443.028, 88.79235
2444.956, 88.18755
2446.885, 88.82520
2448.813, 90.06957
2450.742, 90.28123
2452.670, 89.70570
2454.599, 89.36897
2456.527, 89.28763
2458.456, 89.56298
2460.384, 90.17004
2462.313, 90.34215
2464.241, 90.00883
2466.169, 90.32808
2468.098, 91.68840
2470.026, 92.35049
2471.955, 91.53811
2473.883, 91.22386
2475.812, 91.68361
2477.740, 92.02200
2479.669, 92.14629
2481.597, 92.07790
2483.526, 91.69273
2485.454, 91.46509
2487.383, 91.85916
2489.311, 92.04199
2491.240, 91.30936
2493.168, 90.83314
2495.096, 91.60577
2497.025, 92.26225
2498.953, 91.60109
2500.882, 90.92115
2502.810, 91.32146
2504.739, 91.89043
2506.667, 91.57713
2508.596, 91.17644
2510.524, 91.94884
2512.453, 91.70337
2514.381, 92.87358
2516.310, 92.16663
2518.238, 92.18971
2520.167, 92.63262
2522.095, 92.86959
2524.023, 92.83778
2525.952, 92.04243
2527.880, 92.47391
2529.809, 91.00529
2531.737, 92.60631
2533.666, 93.35294
2535.594, 93.25020
2537.523, 93.07389
2539.451, 92.84844
2541.380, 92.50589
2543.308, 92.00910
2545.237, 92.03719
2547.165, 92.94218
2549.094, 93.27583
2551.022, 92.68082
2552.950, 92.41237
2554.879, 92.49558
2556.807, 93.09141
2558.736, 94.45165
2560.664, 95.40116
2562.593, 95.65556
2564.521, 95.58100
2566.450, 94.89649
2568.378, 94.49104
2570.307, 94.99905
2572.235, 94.90274
2574.164, 93.20477
2576.092, 92.37280
2578.021, 93.88272
2579.949, 95.23267
2581.877, 95.30939
2583.806, 95.11662
2585.734, 95.05112
2587.663, 94.86691
2589.591, 93.95104
2591.520, 93.57291
2593.448, 94.74635
2595.377, 96.06667
2597.305, 97.03321
2599.234, 97.33076
2601.162, 96.19927
2603.091, 94.94959
2605.019, 94.54793
2606.948, 94.59104
2608.876, 94.84615
2610.804, 95.28673
2612.733, 96.21074
2614.661, 96.97380
2616.590, 96.50206
2618.518, 97.39197
2620.447, 96.71351
2622.375, 97.90334
2624.304, 98.05796
2626.232, 97.69478
2628.161, 97.21117
2630.089, 96.94573
2632.018, 97.75096
2633.946, 98.83491
2635.875, 98.75691
2637.803, 98.07785
2639.731, 97.78799
2641.660, 97.74378
2643.588, 97.64056
2645.517, 97.55479
2647.445, 97.69466
2649.374, 97.94164
2651.302, 98.11604
2653.231, 98.13911
2655.159, 97.62706
2657.088, 96.83051
2659.016, 96.46370
2660.945, 96.49669
2662.873, 97.09160
2664.802, 97.95858
2666.730, 98.20669
2668.658, 97.96586
2670.587, 97.56701
2672.515, 97.13114
2674.444, 97.25446
2676.372, 97.79887
2678.301, 98.43820
2680.229, 99.03384
2682.158, 98.88274
2684.086, 98.23659
2686.015, 98.43156
2687.943, 99.31607
2689.872, 100.2005
2691.800, 100.9045
2693.729, 100.3930
2695.657, 98.99406
2697.585, 98.35228
2699.514, 98.37657
2701.442, 98.66281
2703.371, 99.13554
2705.299, 99.13911
2707.228, 98.83395
2709.156, 98.91785
2711.085, 99.32987
2713.013, 99.86154
2714.942, 100.3858
2716.870, 100.0246
2718.799, 99.01099
2720.727, 98.84895
2722.656, 99.32700
2724.584, 99.58000
2726.512, 99.71240
2728.441, 100.3192
2730.369, 101.2167
2732.298, 101.5846
2734.226, 101.4853
2736.155, 100.9768
2738.083, 100.3148
2740.012, 100.3768
2741.940, 100.9914
2743.869, 101.8580
2745.797, 102.7495
2747.726, 102.8562
2749.654, 102.3674
2751.583, 101.6132
2753.511, 100.8560
2755.439, 100.8285
2757.368, 100.6197
2759.296, 101.2004
2761.225, 101.0361
2763.153, 101.3587
2765.082, 101.9194
2767.010, 102.2554
2768.939, 102.4106
2770.867, 102.3020
2772.796, 102.1892
2774.724, 102.6491
2776.653, 103.3028
2778.581, 103.4930
2780.510, 103.5126
2782.438, 104.0048
2784.366, 104.3240
2786.295, 103.2809
2788.223, 101.9795
2790.152, 101.7295
2792.080, 101.9904
2794.009, 102.4731
2795.937, 102.8344
2797.866, 102.5279
2799.794, 102.2274
2801.723, 102.6184
2803.651, 103.1611
2805.580, 103.2080
2807.508, 103.5150
2809.437, 105.4072
2811.365, 106.5570
2813.293, 104.5932
2815.222, 102.7283
2817.150, 102.9854
2819.079, 103.6472
2821.007, 104.2398
2822.936, 104.4799
2824.864, 103.8063
2826.793, 103.4219
2828.721, 104.0060
2830.650, 104.5966
2832.578, 105.1412
2834.507, 105.1164
2836.435, 104.0480
2838.364, 103.3618
2840.292, 103.6213
2842.220, 104.0918
2844.149, 104.8931
2846.077, 105.4379
2848.006, 105.7353
2849.934, 105.3470
2851.863, 103.8098
2853.791, 103.3678
2855.720, 104.8677
2857.648, 105.8831
2859.577, 106.3682
2861.505, 106.7830
2863.434, 107.1574
2865.362, 107.1519
2867.291, 106.7217
2869.219, 106.1201
2871.147, 106.3410
2873.076, 105.5431
2875.004, 106.4937
2876.933, 106.9474
2878.861, 106.9597
2880.790, 106.6259
2882.718, 106.2287
2884.647, 107.1710
2886.575, 106.2822
2888.504, 107.4839
2890.432, 105.6252
2892.361, 105.0528
2894.289, 105.3495
2896.218, 106.5467
2898.146, 107.6169
2900.074, 106.9123
2902.003, 106.1521
2903.931, 107.0071
2905.860, 108.0631
2907.788, 108.4247
2909.717, 108.3753
2911.645, 107.7622
2913.574, 107.3689
2915.502, 107.7175
2917.431, 108.1428
2919.359, 108.2703
2921.288, 108.7167
2923.216, 109.6743
2925.145, 110.8270
2927.073, 112.5055
2929.001, 112.9100
2930.930, 110.5196
2932.858, 109.3326
2934.787, 109.6076
2936.715, 109.6979
2938.644, 109.4899
2940.572, 109.7540
2942.501, 109.5106
2944.429, 109.4163
2946.358, 109.4157
2948.286, 109.2777
2950.215, 109.7690
2952.143, 110.1871
2954.072, 110.4277
2956.000, 110.0761
2957.928, 109.4905
2959.857, 109.2221
2961.785, 109.2779
2963.714, 109.7807
2965.642, 110.4261
2967.571, 110.8848
2969.499, 111.3969
2971.428, 112.6196
2973.356, 113.2305
2975.285, 111.8302
2977.213, 110.8367
2979.142, 111.9277
2981.070, 112.3532
2982.999, 111.1337
2984.927, 110.3224
2986.855, 110.3397
2988.784, 110.7830
2990.712, 112.2257
2992.641, 112.1743
2994.569, 112.6546
2996.498, 110.4573
2998.426, 112.2634
3000.355, 112.1688
3002.283, 110.5210
3004.212, 110.9956
3006.140, 110.7116
3008.069, 112.4774
3009.997, 111.4155
3011.926, 112.0985
3013.854, 113.3323
3015.782, 113.3055
3017.711, 113.1275
3019.639, 114.0372
3021.568, 114.8539
3023.496, 114.6968
3025.425, 114.3309
3027.353, 114.0015
3029.282, 113.7433
3031.210, 113.5585
3033.139, 113.4954
3035.067, 113.5681
3036.996, 113.8468
3038.924, 113.9581
3040.853, 114.6908
3042.781, 114.6439
3044.709, 115.0387
3046.638, 115.8453
3048.566, 116.1521
3050.495, 115.9730
3052.423, 114.8846
3054.352, 113.7166
3056.280, 114.3624
3058.209, 115.7282
3060.137, 116.4239
3062.066, 116.7783
3063.994, 117.1342
3065.923, 117.1757
3067.851, 116.3017
3069.780, 115.7193
3071.708, 116.2444
3073.636, 116.4227
3075.565, 115.7291
3077.493, 115.4875
3079.422, 116.3929
3081.350, 116.7447
3083.279, 116.5034
3085.207, 115.9539
3087.136, 115.2311
3089.064, 115.7062
3090.993, 116.9503
3092.921, 117.0659
3094.850, 116.6288
3096.778, 116.6172
3098.707, 116.9680
3100.635, 118.0425
3102.563, 118.8829
3104.492, 118.2933
3106.420, 117.8547
3108.349, 118.6046
3110.277, 119.0701
3112.206, 118.3329
3114.134, 118.1671
3116.063, 118.8775
3117.991, 119.3590
3119.920, 119.4645
3121.848, 119.1932
3123.777, 118.5878
3125.705, 119.0823
3127.634, 118.4157
3129.562, 119.3616
3131.490, 118.0744
3133.419, 118.3736
3135.347, 119.1509
3137.276, 119.3153
3139.204, 119.3091
3141.133, 119.2869
3143.061, 119.4049
3144.990, 119.6993
3146.918, 120.2935
3148.847, 120.3876
3150.775, 120.4522
3152.704, 120.8226
3154.632, 120.3818
3156.561, 120.4518
3158.489, 120.6535
3160.417, 120.9511
3162.346, 121.2336
3164.274, 121.5732
3166.203, 122.4016
3168.131, 123.0159
3170.060, 122.4726
3171.988, 121.8616
3173.917, 121.8078
3175.845, 122.1365
3177.774, 123.0923
3179.702, 123.4709
3181.631, 122.7081
3183.559, 121.9233
3185.488, 121.0870
3187.416, 121.4312
3189.344, 122.7317
3191.273, 123.3845
3193.201, 123.5031
3195.130, 123.1368
3197.058, 122.8136
3198.987, 123.4799
3200.915, 124.0771
3202.844, 123.3728
3204.772, 123.1320
3206.701, 124.3148
3208.629, 125.1141
3210.558, 124.8831
3212.486, 124.5885
3214.415, 124.2141
3216.343, 124.8283
3218.271, 126.1830
3220.200, 126.4946
3222.128, 126.0243
3224.057, 125.2428
3225.985, 124.4730
3227.914, 123.8815
3229.842, 123.8009
3231.771, 125.1564
3233.699, 125.8677
3235.628, 124.9365
3237.556, 124.4859
3239.485, 125.1907
3241.413, 125.9680
3243.342, 126.7878
3245.270, 126.7215
3247.198, 127.6353
3249.127, 127.0681
3251.055, 128.4979
3252.984, 128.5353
3254.912, 128.1443
3256.841, 128.0856
3258.769, 128.0983
3260.698, 128.1564
3262.626, 128.0346
3264.555, 127.6416
3266.483, 127.3246
3268.412, 127.1188
3270.340, 127.0045
3272.269, 127.0424
3274.197, 128.0603
3276.125, 129.2892
3278.054, 129.0174
3279.982, 128.2463
3281.911, 127.8365
3283.839, 127.7170
3285.768, 127.7241
3287.696, 128.3438
3289.625, 130.0125
3291.553, 130.7700
3293.482, 130.3368
3295.410, 130.1126
3297.339, 130.1317
3299.267, 130.2836
3301.196, 130.5259
3303.124, 130.8786
3305.052, 131.1352
3306.981, 131.1612
3308.909, 130.8469
3310.838, 129.8368
3312.766, 129.3324
3314.695, 129.9752
3316.623, 130.3212
3318.552, 130.3695
3320.480, 131.0285
3322.409, 131.1184
3324.337, 131.9728
3326.266, 131.5332
3328.194, 131.3960
3330.123, 131.5108
3332.051, 131.9242
3333.979, 132.4966
3335.908, 132.5219
3337.836, 133.5709
3339.765, 132.7038
3341.693, 132.1738
3343.622, 132.0213
3345.550, 132.6965
3347.479, 133.6447
3349.407, 133.6580
3351.336, 133.5649
3353.264, 134.3928
3355.193, 134.8740
3357.121, 133.9025
3359.050, 133.5676
3360.978, 134.2048
3362.906, 134.9006
3364.835, 135.5193
3366.763, 135.0957
3368.692, 135.8127
3370.620, 135.0871
3372.549, 136.2422
3374.477, 137.0888
3376.406, 136.9055
3378.334, 136.9918
3380.263, 137.0859
3382.191, 136.7526
3384.120, 136.8814
3386.048, 136.3118
3387.977, 136.2228
3389.905, 136.3331
3391.833, 135.6374
3393.762, 135.2584
3395.690, 137.2598
3397.619, 138.4890
3399.547, 136.5158
3401.476, 135.9223
3403.404, 137.5819
3405.333, 138.2984
3407.261, 138.0033
3409.190, 137.6347
3411.118, 137.4634
3413.047, 138.4445
3414.975, 139.4157
3416.904, 139.5024
3418.832, 139.1498
3420.760, 138.3196
3422.689, 137.8586
3424.617, 137.8833
3426.546, 139.2011
3428.474, 141.3303
3430.403, 141.4953
3432.331, 140.7020
3434.260, 139.8255
3436.188, 139.3589
3438.117, 139.7855
3440.045, 140.1027
3441.974, 139.8770
3443.902, 140.0070
3445.831, 140.4984
3447.759, 141.0560
3449.688, 141.5316
3451.616, 141.3609
3453.544, 141.2534
3455.473, 142.0832
3457.401, 142.6654
3459.330, 142.2744
3461.258, 142.0279
3463.187, 142.0165
3465.115, 142.0615
3467.044, 142.2437
3468.972, 143.5034
3470.901, 144.4313
3472.829, 142.6807
3474.758, 141.2457
3476.686, 142.0995
3478.615, 143.0241
3480.543, 143.8035
3482.471, 143.2038
3484.400, 143.7497
3486.328, 143.9594
3488.257, 143.7496
3490.185, 144.3990
3492.114, 144.6385
3494.042, 144.6121
3495.971, 144.6921
3497.899, 145.0425
3499.828, 145.1295
3501.756, 144.9613
3503.685, 144.7415
3505.613, 144.7731
3507.542, 146.2174
3509.470, 147.1835
3511.398, 146.0140
3513.327, 145.4544
3515.255, 146.8036
3517.184, 147.4657
3519.112, 147.4847
3521.041, 147.5846
3522.969, 147.7935
3524.898, 148.3234
3526.826, 148.6707
3528.755, 147.8677
3530.683, 148.2495
3532.612, 150.6471
3534.540, 151.5235
3536.469, 150.7953
3538.397, 150.2321
3540.325, 149.9387
3542.254, 149.5670
3544.182, 149.2662
3546.111, 149.4653
3548.039, 148.8711
3549.968, 149.3931
3551.896, 149.4451
3553.825, 149.1279
3555.753, 150.2816
3557.682, 151.4963
3559.610, 150.4419
3561.539, 149.7158
3563.467, 150.9797
3565.396, 151.4799
3567.324, 150.4954
3569.252, 151.0233
3571.181, 152.4532
3573.109, 151.9976
3575.038, 151.3037
3576.966, 152.4134
3578.895, 153.1791
3580.823, 152.6576
3582.752, 153.0428
3584.680, 154.6217
3586.609, 154.0308
3588.537, 152.6133
3590.466, 153.0564
3592.394, 154.0635
3594.323, 154.9975
3596.251, 155.4706
3598.179, 155.1546
3600.108, 154.8881
3602.036, 154.7383
3603.965, 155.2920
3605.893, 155.8223
3607.822, 154.7908
3609.750, 154.3874
3611.679, 156.2205
3613.607, 156.8913
3615.536, 156.1487
3617.464, 155.8112
3619.393, 155.5613
3621.321, 153.8870
3623.250, 152.9565
3625.178, 154.5590
3627.106, 156.4277
3629.035, 158.2775
3630.963, 158.4398
3632.892, 157.2542
3634.820, 156.4658
3636.749, 156.0044
3638.677, 155.8152
3640.606, 155.8393
3642.534, 156.1624
3644.463, 156.5437
3646.391, 156.8824
3648.320, 156.0806
3650.248, 156.6850
3652.177, 155.9966
3654.105, 156.8346
3656.033, 156.3129
3657.962, 155.7821
3659.890, 155.3970
3661.819, 156.1107
3663.747, 157.3335
3665.676, 157.6143
3667.604, 157.5498
3669.533, 157.5023
3671.461, 157.4014
3673.390, 157.4647
3675.318, 157.3200
3677.247, 157.6064
3679.175, 157.6394
3681.104, 157.7403
3683.032, 158.4411
3684.960, 158.6925
3686.889, 158.0712
3688.817, 158.0743
3690.746, 158.6404
3692.674, 158.8249
3694.603, 158.9781
3696.531, 159.5997
3698.460, 160.0923
3700.388, 160.2072
3702.317, 160.2863
3704.245, 160.3690
3706.174, 160.7483
3708.102, 161.0557
3710.031, 160.8587
3711.959, 160.3392
3713.887, 160.4497
3715.816, 160.4733
3717.744, 160.2264
3719.673, 160.6988
3721.601, 160.7517
3723.530, 160.3996
3725.458, 160.0582
3727.387, 159.7270
3729.315, 160.1880
3731.244, 159.7919
3733.172, 160.7708
3735.101, 160.0095
3737.029, 160.7589
3738.958, 161.8671
3740.886, 163.3279
3742.814, 163.4184
3744.743, 162.3676
3746.671, 162.4339
3748.600, 162.9526
3750.528, 163.3953
3752.457, 163.0578
3754.385, 163.5114
3756.314, 163.8343
3758.242, 163.6366
3760.171, 164.3969
3762.099, 164.1758
3764.028, 163.7250
3765.956, 163.2810
3767.885, 162.7896
3769.813, 163.0553
3771.741, 163.8698
3773.670, 164.4163
3775.598, 164.5045
3777.527, 165.0673
3779.455, 165.1924
3781.384, 165.1700
3783.312, 165.2193
3785.241, 164.1581
3787.169, 163.4727
3789.098, 163.5242
3791.026, 164.8591
3792.955, 165.7245
3794.883, 165.7838
3796.812, 165.4586
3798.740, 165.2252
3800.668, 166.3960
3802.597, 167.3087
3804.525, 167.1667
3806.454, 166.3354
3808.382, 164.9669
3810.311, 164.8714
3812.239, 165.5921
3814.168, 165.0920
3816.096, 165.6192
3818.025, 166.1523
3819.953, 166.4753
3821.882, 168.5382
3823.810, 169.5625
3825.739, 169.5233
3827.667, 167.4207
3829.595, 166.2564
3831.524, 166.7865
3833.452, 166.7053
3835.381, 166.3829
3837.309, 166.7093
3839.238, 167.3107
3841.166, 168.0903
3843.095, 168.5289
3845.023, 168.5665
3846.952, 168.3390
3848.880, 168.5074
3850.809, 168.9431
3852.737, 169.4338
3854.666, 170.2662
3856.594, 170.3671
3858.522, 171.3466
3860.451, 170.5647
3862.379, 169.4754
3864.308, 168.6890
3866.236, 169.1331
3868.165, 170.7209
3870.093, 171.0195
3872.022, 170.5980
3873.950, 169.8109
3875.879, 170.0453
3877.807, 172.5514
3879.736, 173.3295
3881.664, 172.7171
3883.593, 172.1301
3885.521, 171.5973
3887.449, 171.2694
3889.378, 170.8800
3891.306, 170.3999
3893.235, 170.4903
3895.163, 170.8332
3897.092, 170.9940
3899.020, 170.8242
3900.949, 171.6254
3902.877, 170.9563
3904.806, 172.7503
3906.734, 173.6383
3908.663, 173.6310
3910.591, 172.9999
3912.520, 172.6284
3914.448, 172.3746
3916.376, 172.2326
3918.305, 173.6420
3920.233, 174.0386
3922.162, 173.7040
3924.090, 176.1230
3926.019, 173.4649
3927.947, 174.0461
3929.876, 175.2668
3931.804, 175.7654
3933.733, 174.9884
3935.661, 174.1696
3937.590, 173.4255
3939.518, 173.8166
3941.447, 174.1930
3943.375, 173.8874
3945.303, 174.7507
3947.232, 175.9329
3949.160, 177.0296
3951.089, 177.3717
3953.017, 174.2959
3954.946, 172.6459
3956.874, 174.7880
3958.803, 175.6798
3960.731, 175.5810
3962.660, 176.5120
3964.588, 176.6303
3966.517, 175.3060
3968.445, 174.6129
3970.374, 174.6298
3972.302, 175.3035
3974.230, 175.6494
3976.159, 175.5990
3978.087, 175.7612
3980.016, 176.0683
3981.944, 176.1530
3983.873, 176.4636
3985.801, 176.9126
3987.730, 177.0226
3989.658, 177.3289
3991.587, 177.6210
3993.515, 177.0097
3995.444, 177.9236
3997.372, 177.9814
3999.301, 176.4782
4001.229, 176.2550
4003.157, 176.8834
4005.086, 178.0081
4007.014, 178.1348
4008.943, 177.3075
4010.871, 177.5179
4012.800, 178.0437
4014.728, 178.1991
4016.657, 178.3381
4018.585, 177.8349
4020.514, 178.9244
4022.442, 178.3606
4024.371, 178.7435
4026.299, 178.0954
4028.228, 178.9728
4030.156, 179.2025
4032.084, 178.9308
4034.013, 179.2711
4035.941, 180.1772
4037.870, 180.5123
4039.798, 179.9620
4041.727, 179.2193
4043.655, 179.5320
4045.584, 179.5303
4047.512, 178.5008
4049.441, 179.4919
4051.369, 179.2057
4053.298, 180.1352
4055.226, 179.6301
4057.155, 180.1362
4059.083, 180.3695
4061.011, 181.0836
4062.940, 181.0388
4064.868, 180.6671
4066.797, 181.5614
4068.725, 180.9007
4070.654, 179.7718
4072.582, 181.1028
4074.511, 181.9443
4076.439, 181.1040
4078.368, 179.9576
4080.296, 179.3074
4082.225, 180.5046
4084.153, 181.2125
4086.082, 180.8718
4088.010, 181.5788
4089.938, 182.1645
4091.867, 182.2495
4093.795, 182.0527
4095.724, 181.4830
4097.652, 180.8012
4099.581, 180.4393
4101.509, 182.4818
4103.438, 183.9785
4105.366, 183.1750
4107.295, 182.6454
4109.223, 182.4519
4111.151, 181.5766
4113.080, 180.8587
4115.009, 180.8164
4116.937, 181.0029
4118.865, 181.1829
4120.794, 181.2493
4122.723, 181.5554
4124.651, 182.4369
4126.579, 183.3552
4128.508, 184.0641
4130.437, 183.6978
4132.365, 183.0051
4134.293, 182.3880
4136.222, 181.8437
4138.150, 181.6598
4140.079, 183.3775
4142.007, 185.0235
4143.936, 185.1361
4145.864, 185.6826
4147.792, 186.3996
4149.721, 184.9675
4151.649, 183.3216
4153.578, 182.8619
4155.506, 182.7193
4157.435, 182.7449
4159.363, 183.4133
4161.292, 184.3264
4163.220, 185.2563
4165.148, 185.4108
4167.077, 184.7505
4169.006, 184.1687
4170.934, 183.9428
4172.862, 184.3918
4174.791, 184.8700
4176.720, 185.0826
4178.648, 185.0646
4180.576, 184.8996
4182.505, 184.9286
4184.434, 184.8346
4186.362, 184.6324
4188.290, 184.7322
4190.219, 184.8053
4192.147, 184.9826
4194.076, 185.0122
4196.004, 185.4870
4197.933, 185.2708
4199.861, 184.7508
4201.790, 183.9768
4203.718, 184.4101
4205.646, 185.3887
4207.575, 185.2820
4209.503, 185.5482
4211.432, 185.7447
4213.360, 186.8992
4215.289, 185.8633
4217.217, 185.4241
4219.146, 185.6514
4221.074, 186.7214
4223.003, 187.4953
4224.931, 187.5954
4226.859, 187.0622
4228.788, 186.6600
4230.717, 186.3249
4232.645, 186.0806
4234.573, 185.9899
4236.502, 186.3405
4238.431, 185.8491
4240.359, 184.6909
4242.287, 186.2875
4244.216, 187.5979
4246.145, 185.8046
4248.073, 184.6896
4250.001, 184.6299
4251.930, 185.6955
4253.858, 186.4820
4255.787, 186.1852
4257.715, 185.8576
4259.644, 185.6633
4261.572, 185.5245
4263.500, 186.3904
4265.429, 185.6772
4267.357, 187.6810
4269.286, 185.4265
4271.214, 185.4683
4273.143, 186.5364
4275.071, 188.1479
4277.000, 187.8734
4278.928, 187.1162
4280.856, 187.5199
4282.785, 187.3670
4284.714, 186.6260
4286.642, 186.4854
4288.570, 186.5449
4290.499, 186.6103
4292.428, 186.0325
4294.356, 185.4904
4296.284, 187.8939
4298.213, 189.2300
4300.142, 188.0662
4302.070, 187.5539
4303.998, 187.5630
4305.927, 187.8380
4307.855, 187.8147
4309.784, 187.3918
4311.712, 185.8052
4313.641, 185.3698
4315.569, 189.0190
4317.498, 190.0624
4319.426, 188.7442
4321.354, 188.4546
4323.283, 188.0376
4325.211, 186.7742
4327.140, 187.2298
4329.068, 188.1373
4330.997, 186.7783
4332.925, 186.0312
4334.854, 186.4964
4336.782, 185.6752
4338.711, 185.0126
4340.639, 186.2958
4342.567, 187.0038
4344.496, 186.9739
4346.425, 187.6493
4348.353, 187.9049
4350.281, 187.8288
4352.210, 188.2399
4354.139, 187.8466
4356.067, 187.3578
4357.995, 187.5411
4359.924, 187.2627
4361.853, 187.2370
4363.781, 187.2011
4365.709, 187.1928
4367.638, 187.1815
4369.566, 187.0593
4371.495, 186.1600
4373.423, 186.3611
4375.352, 186.5701
4377.280, 188.1298
4379.208, 187.3074
4381.137, 188.2990
4383.065, 188.1574
4384.994, 187.0149
4386.922, 188.1688
4388.851, 188.7070
4390.779, 187.2657
4392.708, 186.8023
4394.636, 186.8474
4396.564, 185.9478
4398.493, 186.8604
4400.422, 186.4212
4402.350, 186.5062
4404.278, 186.6092
4406.207, 186.8576
4408.136, 187.4851
4410.064, 188.0986
4411.992, 188.4577
4413.921, 187.4824
4415.850, 185.0704
4417.778, 185.3895
4419.706, 186.7210
4421.635, 188.0171
4423.563, 189.0683
4425.492, 189.4714
4427.420, 187.6551
4429.349, 186.5025
4431.277, 186.7511
4433.206, 188.3845
4435.134, 189.3535
4437.063, 187.8728
4438.991, 187.7255
4440.919, 188.0546
4442.848, 184.7075
4444.776, 184.8832
4446.705, 184.5385
4448.633, 187.4617
4450.562, 184.7903
4452.490, 187.0346
4454.419, 187.3930
4456.347, 186.3513
4458.275, 185.1521
4460.204, 185.5562
4462.133, 185.1404
4464.061, 186.6957
4465.989, 185.7031
4467.918, 187.7056
4469.847, 188.3817
4471.775, 187.8411
4473.703, 186.1572
4475.632, 185.6709
4477.561, 186.3862
4479.489, 184.7176
4481.417, 184.1947
4483.346, 186.8869
4485.274, 187.0778
4487.203, 185.9189
4489.131, 185.1391
4491.060, 184.9151
4492.988, 185.2828
4494.917, 184.6619
4496.845, 184.7605
4498.773, 184.4261
4500.702, 184.2453
4502.630, 184.7725
4504.559, 183.9104
4506.487, 184.1851
4508.416, 185.2611
4510.344, 186.1267
4512.272, 185.4593
4514.201, 183.3354
4516.130, 183.0832
4518.058, 183.8069
4519.986, 185.0869
4521.915, 186.0411
4523.844, 186.5343
4525.772, 186.3459
4527.700, 185.5545
4529.629, 184.5803
4531.558, 186.1316
4533.486, 186.4875
4535.414, 184.4461
4537.343, 185.6908
4539.271, 186.9680
4541.200, 185.1147
4543.128, 183.9625
4545.057, 183.6580
4546.985, 183.8938
4548.914, 184.4502
4550.842, 185.1307
4552.771, 184.8114
4554.699, 184.0693
4556.627, 183.0798
4558.556, 183.6970
4560.484, 184.4262
4562.413, 183.8069
4564.341, 183.1680
4566.270, 182.8104
4568.198, 183.2474
4570.127, 183.3657
4572.055, 182.9154
4573.983, 181.5144
4575.912, 180.7070
4577.841, 181.2480
4579.769, 182.2652
4581.697, 183.3628
4583.626, 184.4743
4585.555, 183.1005
4587.483, 181.1036
4589.411, 183.1887
4591.340, 182.3505
4593.269, 178.8675
4595.197, 180.2554
4597.125, 182.2673
4599.054, 183.3356
4600.982, 182.6622
4602.911, 181.9974
4604.839, 182.5273
4606.768, 183.3452
4608.696, 183.5812
4610.625, 183.5657
4612.553, 183.5605
4614.481, 183.0135
4616.410, 182.9104
4618.338, 182.4922
4620.267, 182.1492
4622.195, 181.6307
4624.124, 181.0461
4626.052, 180.6714
4627.980, 179.8865
4629.909, 179.9429
4631.838, 179.7452
4633.766, 181.2610
4635.694, 183.0809
4637.623, 182.9949
4639.552, 181.1029
4641.480, 178.6464
4643.408, 179.8859
4645.337, 181.0463
4647.266, 181.1026
4649.194, 178.8481
4651.122, 177.6196
4653.051, 179.3296
4654.979, 179.1908
4656.908, 179.0569
4658.836, 180.5820
4660.765, 179.8432
4662.693, 178.7314
4664.622, 180.1642
4666.550, 180.6689
4668.479, 180.4801
4670.407, 181.4784
4672.335, 180.5787
4674.264, 178.1076
4676.192, 179.0747
4678.121, 179.2380
4680.049, 177.6984
4681.978, 178.2465
4683.906, 178.8078
4685.835, 178.3017
4687.763, 178.6771
4689.691, 178.5806
4691.620, 178.3599
4693.549, 178.7958
4695.477, 178.1630
4697.405, 179.0022
4699.334, 178.6753
4701.263, 177.6250
4703.191, 177.1047
4705.119, 177.3598
4707.048, 178.1201
4708.977, 178.2971
4710.905, 178.2530
4712.833, 178.0476
4714.762, 177.4146
4716.690, 176.7988
4718.619, 176.3691
4720.547, 175.5762
4722.476, 174.7266
4724.404, 173.9483
4726.333, 175.1473
4728.261, 176.2711
4730.189, 175.5242
4732.118, 176.4465
4734.046, 177.4615
4735.975, 176.1195
4737.903, 175.7334
4739.832, 175.8403
4741.760, 175.1396
4743.688, 175.3572
4745.617, 176.1755
4747.546, 176.7256
4749.474, 175.8913
4751.402, 174.1942
4753.331, 174.4763
4755.260, 174.7634
4757.188, 174.7654
4759.116, 175.5893
4761.045, 176.0030
4762.974, 175.5738
4764.902, 174.2605
4766.830, 173.4206
4768.759, 173.5329
4770.688, 172.3629
4772.616, 171.7801
4774.544, 173.0758
4776.473, 172.2226
4778.401, 171.3155
4780.330, 172.0407
4782.258, 170.8382
4784.187, 170.2861
4786.115, 173.3770
4788.043, 173.7358
4789.972, 172.8081
4791.900, 172.5258
4793.829, 172.9259
4795.757, 173.2200
4797.686, 172.1124
4799.614, 171.5250
4801.543, 171.6035
4803.471, 172.4817
4805.399, 173.3866
4807.328, 173.7848
4809.257, 173.8518
4811.185, 172.0752
4813.113, 173.1020
4815.042, 171.3854
4816.971, 170.2099
4818.899, 169.9565
4820.827, 170.1012
4822.756, 170.0630
4824.685, 169.8892
4826.613, 170.2057
4828.541, 170.4373
4830.470, 170.4331
4832.398, 170.5378
4834.327, 170.6096
4836.255, 170.5210
4838.184, 170.6455
4840.112, 170.7290
4842.041, 170.6418
4843.969, 170.6509
4845.897, 170.4435
4847.826, 170.0650
4849.754, 169.7288
4851.683, 168.4897
4853.611, 167.5614
4855.540, 167.7035
4857.468, 167.7192
4859.396, 167.3297
4861.325, 167.9608
4863.254, 169.2821
4865.182, 171.0176
4867.110, 168.8852
4869.039, 167.7850
4870.968, 169.2612
4872.896, 168.8547
4874.824, 168.1487
4876.753, 167.8421
4878.682, 167.9198
4880.610, 168.0966
4882.538, 168.2608
4884.467, 168.7480
4886.396, 167.9022
4888.324, 167.8973
4890.252, 166.3760
4892.181, 166.7738
4894.109, 164.9677
4896.038, 163.8247
4897.966, 164.4990
4899.895, 166.9509
4901.823, 166.6787
4903.751, 166.0767
4905.680, 166.0188
4907.608, 164.5671
4909.537, 164.8323
4911.465, 164.5805
4913.394, 164.4918
4915.322, 165.1276
4917.251, 164.8539
4919.179, 165.9661
4921.107, 165.9352
4923.036, 164.6184
4924.965, 164.2201
4926.893, 164.9763
4928.821, 166.2651
4930.750, 163.9498
4932.679, 163.7516
4934.607, 165.7456
4936.535, 165.5313
4938.464, 163.7410
4940.393, 161.8027
4942.321, 164.6726
4944.249, 165.4451
4946.178, 163.8489
4948.106, 161.8847
4950.035, 161.8578
4951.963, 162.7343
4953.892, 161.5286
4955.820, 160.9134
4957.749, 161.4267
4959.677, 163.7951
4961.605, 164.6553
4963.534, 163.9725
4965.462, 161.6427
4967.391, 160.5835
4969.319, 160.5899
4971.248, 161.4037
4973.176, 161.1273
4975.104, 160.8275
4977.033, 161.7145
4978.962, 161.8514
4980.890, 161.2995
4982.818, 160.0824
4984.747, 159.6668
4986.676, 159.8691
4988.604, 160.5103
4990.532, 161.2996
4992.461, 160.9050
4994.390, 158.9146
4996.318, 158.6011
4998.246, 159.1703
5000.175, 160.1520
5002.104, 161.0748
5004.032, 160.6109
5005.960, 159.1249
5007.889, 159.3904
5009.817, 159.4147
5011.746, 158.9949
5013.674, 158.5652
5015.603, 158.1628
5017.531, 157.7700
5019.459, 157.3285
5021.388, 156.7194
5023.316, 156.4493
5025.245, 157.1342
5027.173, 156.7485
5029.102, 158.6092
5031.030, 157.1314
5032.959, 158.0099
5034.887, 158.8068
5036.815, 158.0302
5038.744, 156.4497
5040.673, 156.7183
5042.601, 155.3727
5044.529, 156.9035
5046.458, 154.7173
5048.387, 153.8296
5050.315, 155.9514
5052.243, 156.1396
5054.172, 154.7767
5056.101, 154.7242
5058.029, 155.1684
5059.957, 155.4610
5061.886, 154.5103
5063.814, 155.5224
5065.743, 156.0070
5067.671, 153.6355
5069.600, 154.9304
5071.528, 155.7431
5073.457, 153.5531
5075.385, 152.7867
5077.313, 153.2668
5079.242, 154.5025
5081.170, 153.6767
5083.099, 153.6441
5085.027, 154.2195
5086.956, 152.9202
5088.884, 152.1744
5090.813, 152.1975
5092.741, 152.9974
5094.670, 152.9433
5096.598, 153.3907
5098.526, 152.9837
5100.455, 154.3787
5102.384, 152.6287
5104.312, 152.6235
5106.240, 154.0903
5108.169, 153.4492
5110.098, 153.6317
5112.026, 151.8633
5113.954, 153.2044
5115.883, 153.1800
5117.812, 153.2255
5119.740, 150.0545
5121.668, 152.9006
5123.597, 150.6148
5125.525, 152.0641
5127.454, 152.7430
5129.382, 149.6349
5131.311, 149.6480
5133.239, 150.5433
5135.167, 151.2125
5137.096, 151.4225
5139.024, 150.1826
5140.953, 150.8456
5142.881, 150.4138
5144.810, 150.8909
5146.738, 150.5511
5148.667, 150.5076
5150.595, 150.1194
5152.523, 149.5791
5154.452, 149.0186
5156.381, 148.3450
5158.309, 147.7924
5160.237, 147.4785
5162.166, 147.5181
5164.095, 147.8963
5166.023, 148.2783
5167.951, 147.8873
5169.880, 149.1737
5171.809, 149.8912
5173.737, 148.1390
5175.665, 148.5770
5177.594, 148.7566
5179.522, 147.6786
5181.451, 147.1051
5183.379, 147.5829
5185.308, 148.3963
5187.236, 147.7162
5189.165, 146.8492
5191.093, 146.4004
5193.021, 146.8328
5194.950, 147.0701
5196.878, 147.2975
5198.807, 147.5252
5200.735, 147.7251
5202.664, 147.6772
5204.592, 147.6769
5206.521, 147.3123
5208.449, 146.3102
5210.378, 145.6678
5212.306, 146.4033
5214.234, 147.1507
5216.163, 147.8549
5218.092, 148.2792
5220.020, 148.1679
5221.948, 145.9660
5223.877, 147.2952
5225.806, 145.7557
5227.734, 144.7727
5229.662, 144.2412
5231.591, 143.7611
5233.520, 143.7697
5235.448, 143.9319
5237.376, 144.1192
5239.305, 144.7540
5241.233, 143.8951
5243.162, 142.5469
5245.090, 143.1343
5247.019, 143.2302
5248.947, 143.3213
5250.875, 143.8371
5252.804, 145.2634
5254.732, 144.3233
5256.661, 141.5848
5258.589, 141.3532
5260.518, 141.7881
5262.446, 142.1513
5264.375, 141.7559
5266.303, 143.1425
5268.231, 144.2353
5270.160, 144.2525
5272.089, 144.2668
5274.017, 144.5670
5275.945, 144.0812
5277.874, 144.0344
5279.803, 143.1868
5281.731, 142.7986
5283.659, 141.2720
5285.588, 141.4048
5287.517, 140.6456
5289.445, 139.4390
5291.373, 139.5320
5293.302, 140.2831
5295.230, 141.4011
5297.159, 142.9406
5299.087, 140.4273
5301.016, 139.0605
5302.944, 139.6396
5304.873, 139.1662
5306.801, 139.5623
5308.729, 140.3885
5310.658, 141.0014
5312.586, 139.8363
5314.515, 139.4604
5316.443, 140.1995
5318.372, 138.8341
5320.300, 138.4323
5322.229, 138.6274
5324.157, 138.5086
5326.086, 139.2147
5328.014, 139.3969
5329.942, 138.6512
5331.871, 137.6692
5333.800, 137.4756
5335.728, 137.7940
5337.656, 138.1573
5339.585, 137.8753
5341.514, 137.0021
5343.442, 135.9624
5345.370, 136.3045
5347.299, 136.0182
5349.228, 135.5279
5351.156, 135.5278
5353.084, 136.6785
5355.013, 137.4507
5356.941, 137.1679
5358.870, 135.3477
5360.798, 134.5829
5362.727, 134.3520
5364.655, 133.7868
5366.583, 134.0444
5368.512, 135.3284
5370.440, 136.6054
5372.369, 134.1033
5374.297, 132.8373
5376.226, 133.1884
5378.154, 134.7270
5380.083, 134.1431
5382.011, 133.7293
5383.939, 133.7696
5385.868, 133.2865
5387.797, 133.1549
5389.725, 133.5322
5391.653, 134.3816
5393.582, 134.5970
5395.511, 133.6809
5397.439, 132.4022
5399.367, 131.9773
5401.296, 132.6595
5403.225, 132.6395
5405.153, 131.4902
5407.081, 130.9503
5409.010, 130.6346
5410.938, 131.3019
5412.867, 131.2199
5414.795, 131.2103
5416.724, 132.2093
5418.652, 130.6187
5420.581, 131.4113
5422.509, 130.1116
5424.438, 130.2064
5426.366, 130.7099
5428.294, 132.1918
5430.223, 131.3780
5432.151, 131.2128
5434.080, 130.5598
5436.008, 130.0835
5437.937, 130.1681
5439.865, 130.7137
5441.794, 131.3852
5443.722, 129.5678
5445.650, 128.0289
5447.579, 128.6758
5449.508, 126.0333
5451.436, 125.8453
5453.364, 128.1026
5455.293, 131.2420
5457.222, 128.8025
5459.150, 127.0318
5461.078, 127.6394
5463.007, 127.6637
5464.936, 128.2211
5466.864, 128.3931
5468.792, 127.6218
5470.721, 128.2605
5472.649, 127.7162
5474.578, 127.1914
5476.506, 129.3860
5478.435, 126.5741
5480.363, 125.3729
5482.292, 126.6776
5484.220, 127.0542
5486.148, 126.1780
5488.077, 125.2067
5490.005, 124.9989
5491.934, 124.6184
5493.862, 124.2532
5495.791, 124.7118
5497.719, 123.6194
5499.647, 124.0134
5501.576, 123.2219
5503.505, 124.6564
5505.433, 123.5751
5507.361, 122.9090
5509.290, 123.6329
5511.219, 125.2034
5513.147, 124.8752
5515.075, 124.3841
5517.004, 123.9106
5518.933, 123.5306
5520.861, 123.5928
5522.789, 124.6408
5524.718, 125.5259
5526.646, 125.2190
5528.575, 124.3117
5530.503, 124.9412
5532.432, 125.0415
5534.360, 121.4136
5536.289, 121.8802
5538.217, 122.7469
5540.146, 123.0069
5542.074, 123.9884
5544.002, 123.3609
5545.931, 122.2165
5547.859, 121.3922
5549.788, 122.0241
5551.716, 120.3529
5553.645, 118.6620
5555.573, 118.6390
5557.502, 120.5887
5559.430, 121.2373
5561.358, 121.0780
5563.287, 120.9097
5565.216, 121.1802
5567.144, 120.1682
5569.072, 120.5495
5571.001, 120.3233
5572.930, 120.6967
5574.858, 120.6333
5576.786, 120.7238
5578.715, 121.5408
5580.644, 120.8937
5582.572, 121.1279
5584.500, 119.9610
5586.429, 120.4228
5588.357, 119.8332
5590.286, 118.5287
5592.214, 117.4325
5594.143, 118.8487
5596.071, 118.3394
5598.000, 117.0936
5599.928, 116.0257
5601.856, 115.7888
5603.785, 115.7652
5605.713, 116.9349
5607.642, 118.8535
5609.570, 118.5115
5611.499, 117.6708
5613.427, 116.3831
5615.355, 115.1730
5617.284, 115.2016
5619.213, 116.1734
5621.141, 115.0452
5623.069, 116.1621
5624.998, 115.5160
5626.927, 115.2037
5628.855, 115.8351
5630.783, 114.8872
5632.712, 114.5598
5634.641, 113.9302
5636.569, 114.1724
5638.497, 114.1445
5640.426, 114.3302
5642.354, 114.6553
5644.283, 114.2007
5646.211, 112.7295
5648.140, 113.8667
5650.068, 113.5665
5651.997, 113.2678
5653.925, 114.1217
5655.854, 113.4942
5657.782, 113.2043
5659.710, 113.4916
5661.639, 112.8256
5663.567, 113.0096
5665.496, 112.3047
5667.424, 112.2186
5669.353, 112.5271
5671.281, 111.8859
5673.210, 112.1178
5675.138, 112.1290
5677.066, 111.4714
5678.995, 112.5717
5680.924, 112.1261
5682.852, 110.9723
5684.780, 110.1610
5686.709, 111.1864
5688.638, 110.9506
5690.566, 110.6324
5692.494, 110.5021
5694.423, 110.3216
5696.352, 108.9742
5698.280, 109.9471
5700.208, 110.5885
5702.137, 110.1816
5704.065, 111.8831
5705.994, 111.3227
5707.922, 108.9680
5709.851, 110.0296
5711.779, 110.0452
5713.708, 110.0734
5715.636, 110.0715
5717.564, 109.1734
5719.493, 110.1270
5721.421, 108.8970
5723.350, 107.9770
5725.278, 111.2137
5727.207, 109.4761
5729.135, 108.5417
5731.063, 108.2178
5732.992, 107.3518
5734.921, 108.8591
5736.849, 108.8033
5738.777, 108.3557
5740.706, 108.4693
5742.635, 106.6168
5744.563, 106.2894
5746.491, 105.9325
5748.420, 105.2593
5750.349, 107.4475
5752.277, 108.0294
5754.205, 107.1997
5756.134, 106.2044
5758.063, 106.9754
5759.991, 106.6556
5761.919, 105.6173
5763.848, 105.0010
5765.776, 105.8687
5767.705, 106.6612
5769.633, 105.9235
5771.562, 105.0089
5773.490, 105.1560
5775.418, 105.0405
5777.347, 104.9298
5779.275, 105.5868
5781.204, 106.5673
5783.132, 103.8443
5785.061, 103.0615
5786.989, 103.3289
5788.918, 103.7399
5790.846, 103.7518
5792.774, 102.9548
5794.703, 103.4859
5796.632, 104.0737
5798.560, 102.6782
5800.488, 101.4192
5802.417, 102.1259
5804.346, 102.6310
5806.274, 101.7758
5808.202, 102.3565
5810.131, 103.8338
5812.060, 104.2672
5813.988, 103.0494
5815.916, 103.3076
5817.845, 101.5791
5819.773, 101.9624
5821.702, 101.4071
5823.630, 100.9638
5825.559, 101.1242
5827.487, 101.1416
5829.416, 101.1880
5831.344, 101.1745
5833.272, 101.4306
5835.201, 100.0699
5837.129, 99.51630
5839.058, 99.90562
5840.986, 99.73357
5842.915, 99.59957
5844.843, 99.44329
5846.771, 99.24113
5848.700, 98.95517
5850.629, 98.77637
5852.557, 98.90150
5854.485, 98.58550
5856.414, 98.87614
5858.343, 98.52074
5860.271, 98.61197
5862.199, 98.21487
5864.128, 98.55807
5866.057, 99.01462
5867.985, 98.78325
5869.913, 99.65543
5871.842, 100.2348
5873.771, 99.93673
5875.699, 99.48721
5877.627, 99.60552
5879.556, 99.59217
5881.484, 99.60781
5883.413, 99.93998
5885.341, 98.16660
5887.270, 99.37153
5889.198, 99.30930
5891.126, 97.92160
5893.055, 101.3697
5894.983, 99.30410
5896.912, 97.17443
5898.840, 96.90462
5900.769, 98.18145
5902.697, 97.94698
5904.626, 98.71743
5906.554, 97.61686
5908.482, 95.67659
5910.411, 97.04497
5912.340, 95.74226
5914.268, 96.46887
5916.196, 97.44786
5918.125, 96.82098
5920.054, 96.30421
5921.982, 95.82808
5923.910, 94.55500
5925.839, 93.67958
5927.768, 94.76603
5929.696, 94.12794
5931.624, 94.65996
5933.553, 95.40949
5935.481, 95.35337
5937.410, 93.84550
5939.338, 92.42406
5941.267, 93.59696
5943.195, 95.16721
5945.124, 95.01167
5947.052, 95.27698
5948.980, 95.63532
5950.909, 95.14237
5952.837, 95.56676
5954.766, 94.03049
5956.694, 93.70267
5958.623, 92.54681
5960.551, 92.41453
5962.479, 93.77334
5964.408, 95.23709
5966.337, 96.40305
5968.265, 98.09454
5970.193, 99.54023
5972.122, 101.4840
5974.051, 102.6089
5975.979, 104.4720
5977.907, 106.4523
5979.836, 109.0971
5981.765, 110.9084
5983.693, 109.3763
5985.621, 109.2653
5987.550, 104.4029
5989.479, 101.2628
5991.407, 97.24001
5993.335, 96.35568
5995.264, 94.02963
5997.192, 92.51344
5999.121, 92.47074
6001.049, 92.47143
6002.978, 91.50961
6004.906, 91.40516
6006.834, 91.14939
6008.763, 90.28635
6010.691, 89.52888
6012.620, 89.17217
6014.548, 88.26559
6016.477, 88.63940
6018.405, 90.37772
6020.334, 89.96187
6022.262, 91.32291
6024.190, 89.24397
6026.119, 87.49609
6028.048, 88.52283
6029.976, 87.69966
6031.904, 88.30343
6033.833, 89.44189
6035.762, 90.11514
6037.690, 89.70228
6039.618, 89.67933
6041.547, 88.25294
6043.476, 88.42132
6045.404, 87.58865
6047.332, 87.11283
6049.261, 87.70065
6051.189, 88.49702
6053.118, 87.54094
6055.046, 87.07436
6056.975, 88.10181
6058.903, 85.04344
6060.832, 85.10612
6062.760, 86.76328
6064.688, 87.74094
6066.617, 87.26624
6068.545, 87.28796
6070.474, 86.86211
6072.402, 86.94404
6074.331, 86.05698
6076.259, 85.75793
6078.188, 85.61881
6080.116, 84.79897
6082.045, 85.27527
6083.973, 85.12549
6085.901, 83.84178
6087.830, 85.07607
6089.759, 83.25917
6091.687, 84.46550
6093.615, 84.90949
6095.544, 83.53455
6097.473, 84.29444
6099.401, 83.82339
6101.329, 84.50199
6103.258, 84.94463
6105.187, 84.32969
6107.115, 84.59804
6109.043, 83.59199
6110.972, 83.91648
6112.900, 83.25363
6114.829, 82.37440
6116.757, 82.42808
6118.686, 83.36316
6120.614, 83.63168
6122.542, 82.50706
6124.471, 81.96577
6126.399, 83.01804
6128.328, 81.64400
6130.256, 83.14102
6132.185, 83.25246
6134.113, 82.72299
6136.042, 82.58275
6137.970, 81.90379
6139.898, 82.47372
6141.827, 81.70377
6143.756, 81.80085
6145.684, 82.59799
6147.612, 81.77452
6149.541, 81.85421
6151.470, 80.26454
6153.398, 80.75106
6155.326, 79.89140
6157.255, 78.55322
6159.184, 81.07854
6161.112, 80.88503
6163.040, 79.23300
6164.969, 81.81787
6166.897, 79.82285
6168.826, 81.28844
6170.754, 78.81421
6172.683, 79.49269
6174.611, 81.06381
6176.540, 81.96315
6178.468, 81.60908
6180.396, 79.85204
6182.325, 79.67879
6184.253, 79.73770
6186.182, 79.77441
6188.110, 79.76559
6190.039, 79.14207
6191.967, 79.29247
6193.896, 78.92526
6195.824, 79.06643
6197.753, 78.37600
6199.681, 78.03534
6201.609, 77.66162
6203.538, 77.51315
6205.467, 77.46046
6207.395, 77.72730
6209.323, 77.26661
6211.252, 77.09870
6213.181, 77.79897
6215.109, 78.45919
6217.037, 78.19785
6218.966, 77.06187
6220.895, 75.76722
6222.823, 75.81273
6224.751, 75.43084
6226.680, 76.28466
6228.608, 76.18581
6230.537, 78.28395
6232.465, 76.85955
6234.394, 76.92253
6236.322, 77.60756
6238.250, 75.92036
6240.179, 74.61215
6242.107, 75.60623
6244.036, 74.57413
6245.964, 76.65274
6247.893, 75.12770
6249.821, 76.05151
6251.750, 77.67400
6253.678, 76.89422
6255.606, 77.00591
6257.535, 75.02419
6259.464, 75.57418
6261.392, 74.93149
6263.320, 74.30770
6265.249, 74.24388
6267.178, 73.93240
6269.106, 74.91560
6271.034, 74.33694
6272.963, 74.55035
6274.892, 74.71054
6276.820, 72.68625
6278.748, 73.55887
6280.677, 73.22696
6282.605, 73.70214
6284.534, 74.09064
6286.462, 74.25666
6288.391, 75.01160
6290.319, 74.52628
6292.248, 73.82865
6294.176, 74.49049
6296.104, 74.61844
6298.033, 73.58730
6299.961, 72.69878
6301.890, 73.93091
6303.818, 72.96677
6305.747, 72.11781
6307.675, 72.39983
6309.604, 73.11059
6311.532, 73.06859
6313.461, 72.62746
6315.389, 74.72471
6317.317, 73.26978
6319.246, 70.71329
6321.175, 69.73920
6323.103, 70.49284
6325.031, 72.43254
6326.960, 73.01125
6328.889, 72.95680
6330.817, 72.11985
6332.745, 71.22606
6334.674, 71.25867
6336.603, 70.39848
6338.531, 70.54783
6340.459, 69.87846
6342.388, 70.31765
6344.316, 71.30448
6346.245, 71.80798
6348.173, 70.58115
6350.102, 70.81369
6352.030, 70.22855
6353.958, 68.85304
6355.887, 68.70070
6357.815, 69.62533
6359.744, 68.84399
6361.672, 70.96381
6363.601, 69.86916
6365.529, 69.88613
6367.458, 69.45165
6369.386, 68.93697
6371.314, 68.98397
6373.243, 68.75037
6375.172, 68.83018
6377.100, 68.65966
6379.028, 68.55424
6380.957, 68.37942
6382.886, 68.38805
6384.814, 68.32610
6386.742, 68.84948
6388.671, 67.84962
6390.600, 68.94501
6392.528, 69.51264
6394.456, 68.70329
6396.385, 68.77065
6398.313, 67.46474
6400.242, 66.96961
6402.170, 66.76261
6404.099, 67.13806
6406.027, 68.58364
6407.956, 70.06640
6409.884, 68.74197
6411.813, 68.25690
6413.741, 67.06890
6415.669, 68.01468
6417.598, 68.82106
6419.526, 68.24265
6421.455, 67.34777
6423.383, 67.06111
6425.312, 67.34133
6427.240, 66.45213
6429.169, 66.38246
6431.097, 66.68062
6433.025, 66.45341
6434.954, 66.15627
6436.883, 67.52029
6438.811, 68.08458
6440.739, 67.75430
6442.668, 67.56425
6444.597, 67.01646
6446.525, 65.64257
6448.453, 64.46675
6450.382, 65.49342
6452.311, 66.52934
6454.239, 66.42539
6456.167, 65.75446
6458.096, 65.33498
6460.024, 65.21387
6461.953, 64.65220
6463.881, 64.34558
6465.810, 64.55383
6467.738, 63.80891
6469.667, 64.14764
6471.595, 63.95429
6473.523, 64.34357
6475.452, 64.48212
6477.380, 64.25072
6479.309, 65.80099
6481.237, 64.83279
6483.166, 64.77053
6485.094, 65.60715
6487.022, 65.06993
6488.951, 65.55796
6490.880, 65.86741
6492.808, 65.56264
6494.736, 65.16764
6496.665, 64.11968
6498.594, 64.38513
6500.522, 63.62608
6502.450, 64.02392
6504.379, 63.31841
6506.308, 63.30764
6508.236, 64.47707
6510.164, 63.98154
6512.093, 63.53020
6514.021, 62.87554
6515.950, 63.23130
6517.878, 62.85565
6519.807, 63.77194
6521.735, 63.22729
6523.664, 62.87372
6525.592, 62.14627
6527.521, 61.80818
6529.449, 62.40589
6531.377, 62.37511
6533.306, 62.92072
6535.234, 62.11766
6537.163, 61.66710
6539.091, 62.68406
6541.020, 62.80709
6542.948, 61.71436
6544.877, 61.41355
6546.805, 61.53005
6548.733, 61.45119
6550.662, 62.12596
6552.591, 61.37355
6554.519, 61.96601
6556.447, 62.65473
6558.376, 61.91084
6560.305, 61.44305
6562.233, 59.99955
6564.161, 63.00800
6566.090, 62.59221
6568.019, 61.76476
6569.947, 60.75780
6571.875, 60.54643
6573.804, 61.32476
6575.732, 60.45497
6577.661, 59.50768
6579.589, 60.75290
6581.518, 59.83019
6583.446, 60.96671
6585.375, 60.01650
6587.303, 61.23042
6589.231, 62.41044
6591.160, 60.98534
6593.088, 60.35631
6595.017, 59.97152
6596.945, 60.55819
6598.874, 60.08487
6600.802, 60.89869
6602.730, 59.97218
6604.659, 59.74581
6606.588, 59.61946
6608.516, 60.02203
6610.444, 58.76466
6612.373, 60.25075
6614.302, 60.82405
6616.230, 59.52928
6618.158, 57.82534
6620.087, 58.14919
6622.016, 61.49178
6623.944, 57.39988
6625.872, 59.27884
6627.801, 60.10659
##END=



