##NAMES=Andradite
##RRUFFID=R060326
##IDEAL CHEMISTRY=Ca_3_Fe^3+^_2_(SiO_4_)_3_
##LOCALITY=Ultevis, Sweden
##OWNER=RRUFF
##SOURCE=Marcus Origlieri
##DESCRIPTION=Reddish-brown colored druse of crystals associated with white svabite R050180
##STATUS=The identification of this mineral has been confirmed by X-ray diffraction and chemical analysis
##URL=https://www.rruff.net/odr/rruff_sample/R060326
##MEASURED CHEMISTRY=(Ca_2.98_Mn_0.02_)(Fe^3+^_1.75_Al_0.21_Ti_0.04_)(Si_1.00_O_4_)_3_
##DIFFRACTION SAMPLE DESCRIPTION=Single crystal, powder profile is calculated
##CELL PARAMETERS=a: 12.037 b: 12.037 c: 12.037 alpha: 90 beta: 90 gamma: 90 volume: 1743.9 crystal system: cubic
##FILETYPE=Raman RAW
##RAMAN WAVELENGTH=780

82.06834, 489.6243
83.99681, 542.6180
85.92528, 600.9976
87.85374, 665.6296
89.78221, 735.3070
91.71068, 809.2643
93.63914, 872.4230
95.56761, 868.4434
97.49608, 858.5270
99.42455, 847.5270
101.3530, 837.7960
103.2815, 826.3304
105.2099, 816.6882
107.1384, 802.5724
109.0669, 789.4077
110.9953, 775.3969
112.9238, 763.8449
114.8523, 756.5665
116.7807, 751.2646
118.7092, 743.1302
120.6377, 731.4089
122.5661, 723.1547
124.4946, 720.8027
126.4231, 720.0150
128.3515, 719.2018
130.2800, 719.0129
132.2085, 720.3630
134.1369, 723.1603
136.0654, 726.7934
137.9939, 734.1029
139.9223, 738.3597
141.8508, 735.0821
143.7793, 729.1070
145.7077, 725.8712
147.6362, 725.3116
149.5647, 726.2365
151.4931, 729.4163
153.4216, 732.9135
155.3501, 736.8774
157.2785, 740.6178
159.2070, 743.4436
161.1355, 745.4559
163.0639, 747.5394
164.9924, 749.2732
166.9209, 751.8024
168.8493, 756.2780
170.7778, 760.6281
172.7063, 764.8322
174.6348, 768.0521
176.5632, 766.1241
178.4917, 755.8076
180.4202, 745.2118
182.3486, 732.9325
184.2771, 722.0861
186.2056, 713.9530
188.1340, 708.3761
190.0625, 705.3487
191.9910, 705.0488
193.9194, 707.5365
195.8479, 714.5074
197.7764, 721.1686
199.7048, 726.0569
201.6333, 729.3016
203.5618, 730.5039
205.4902, 729.6497
207.4187, 728.7424
209.3471, 727.0914
211.2756, 727.3998
213.2041, 730.5475
215.1325, 735.8576
217.0610, 743.6394
218.9895, 753.1084
220.9179, 761.6505
222.8464, 769.0507
224.7749, 777.1778
226.7033, 786.4216
228.6318, 796.1251
230.5603, 807.4381
232.4887, 818.1691
234.4172, 827.0638
236.3457, 833.5040
238.2741, 832.2201
240.2026, 821.9020
242.1311, 808.2133
244.0595, 789.6171
245.9880, 771.5155
247.9165, 755.4419
249.8449, 742.3712
251.7734, 735.4255
253.7019, 734.3535
255.6303, 733.0684
257.5588, 728.7516
259.4873, 727.4341
261.4157, 732.1544
263.3442, 739.4206
265.2727, 747.0608
267.2011, 754.5375
269.1296, 759.7618
271.0581, 761.9834
272.9865, 765.0280
274.9150, 770.8720
276.8435, 775.9928
278.7719, 778.1342
280.7004, 779.3482
282.6289, 782.1841
284.5573, 786.4459
286.4858, 791.0417
288.4143, 795.3469
290.3427, 801.3309
292.2712, 810.1759
294.1997, 819.6251
296.1281, 827.5537
298.0566, 835.9567
299.9851, 846.8279
301.9135, 860.0885
303.8420, 877.4429
305.7705, 898.3116
307.6989, 924.3991
309.6274, 960.0045
311.5559, 996.6281
313.4843, 1031.728
315.4128, 1063.396
317.3413, 1086.715
319.2697, 1099.437
321.1982, 1116.327
323.1267, 1135.130
325.0551, 1161.471
326.9836, 1195.168
328.9121, 1238.385
330.8405, 1299.032
332.7690, 1366.670
334.6975, 1423.411
336.6259, 1468.432
338.5544, 1505.640
340.4829, 1532.522
342.4113, 1558.438
344.3398, 1579.708
346.2683, 1608.894
348.1967, 1655.638
350.1252, 1712.546
352.0537, 1773.025
353.9821, 1837.604
355.9106, 1875.222
357.8391, 1882.794
359.7675, 1878.087
361.6960, 1856.507
363.6245, 1836.551
365.5529, 1832.534
367.4814, 1831.177
369.4099, 1822.647
371.3383, 1803.437
373.2668, 1748.328
375.1953, 1655.182
377.1237, 1546.698
379.0522, 1415.583
380.9807, 1290.646
382.9091, 1177.347
384.8376, 1078.326
386.7661, 997.0082
388.6945, 932.2255
390.6230, 879.7070
392.5515, 839.1115
394.4799, 805.4011
396.4084, 779.1003
398.3369, 757.1332
400.2654, 738.1857
402.1938, 723.3148
404.1223, 714.2954
406.0508, 709.0610
407.9792, 704.9258
409.9077, 701.6934
411.8362, 698.5092
413.7646, 694.7515
415.6931, 693.6420
417.6216, 698.2242
419.5500, 702.0441
421.4785, 703.0522
423.4070, 702.8088
425.3354, 701.9996
427.2639, 701.1158
429.1924, 701.0936
431.1208, 701.9494
433.0493, 703.3160
434.9778, 705.1976
436.9062, 707.4583
438.8347, 710.6405
440.7632, 713.4180
442.6916, 714.2010
444.6201, 715.2830
446.5486, 719.0593
448.4770, 724.8089
450.4055, 730.1971
452.3340, 734.9887
454.2624, 740.5687
456.1909, 748.3394
458.1194, 754.3790
460.0478, 757.1615
461.9763, 759.4047
463.9048, 762.5474
465.8332, 765.6162
467.7617, 765.9280
469.6902, 765.2983
471.6186, 771.6127
473.5471, 785.9266
475.4756, 803.5432
477.4040, 824.9992
479.3325, 848.4220
481.2610, 876.0076
483.1894, 901.3704
485.1179, 922.8497
487.0464, 938.8893
488.9748, 946.1930
490.9033, 947.1945
492.8318, 948.5234
494.7602, 950.0291
496.6887, 953.6763
498.6172, 959.9215
500.5456, 966.4476
502.4741, 973.0981
504.4026, 979.1931
506.3310, 984.1060
508.2595, 988.9355
510.1880, 993.0934
512.1164, 998.2865
514.0449, 1009.517
515.9733, 1025.435
517.9018, 1036.652
519.8303, 1043.585
521.7587, 1039.681
523.6872, 1023.020
525.6157, 997.2946
527.5441, 956.5599
529.4726, 916.0428
531.4011, 880.4012
533.3295, 850.4163
535.2580, 827.6387
537.1865, 811.1000
539.1149, 798.4343
541.0434, 789.6040
542.9719, 784.1284
544.9003, 782.5822
546.8288, 781.5735
548.7573, 781.5009
550.6857, 780.5106
552.6142, 776.8525
554.5427, 773.6108
556.4711, 774.0236
558.3996, 774.7797
560.3281, 771.1506
562.2565, 765.0073
564.1850, 760.0883
566.1135, 756.4789
568.0419, 753.5707
569.9704, 751.0710
571.8989, 750.2245
573.8273, 752.3359
575.7558, 753.6627
577.6843, 752.7564
579.6127, 752.0154
581.5412, 753.2346
583.4697, 754.3920
585.3981, 753.5200
587.3266, 751.4730
589.2551, 750.0316
591.1835, 749.1783
593.1120, 747.7535
595.0405, 747.7728
596.9689, 744.6441
598.8974, 747.6667
600.8259, 749.4972
602.7543, 748.8695
604.6828, 748.0663
606.6113, 747.5983
608.5397, 747.8111
610.4682, 749.3917
612.3967, 751.1363
614.3251, 751.8353
616.2536, 751.7255
618.1821, 750.8995
620.1105, 749.1882
622.0390, 747.8800
623.9675, 746.8182
625.8959, 747.2717
627.8244, 749.7789
629.7529, 752.8898
631.6813, 757.5856
633.6098, 760.2026
635.5383, 756.8508
637.4667, 753.7888
639.3952, 755.6227
641.3237, 759.2617
643.2521, 761.0199
645.1806, 761.3239
647.1091, 761.3331
649.0375, 761.3150
650.9660, 762.6217
652.8945, 762.8635
654.8229, 763.3568
656.7514, 765.1025
658.6799, 764.9705
660.6083, 767.5702
662.5368, 770.1376
664.4653, 771.8571
666.3937, 773.5443
668.3222, 775.8028
670.2507, 777.9549
672.1791, 779.1985
674.1076, 780.0699
676.0361, 781.6449
677.9645, 783.4810
679.8930, 783.9263
681.8215, 783.2947
683.7499, 784.3824
685.6784, 787.5943
687.6069, 790.6609
689.5353, 793.8893
691.4638, 795.6934
693.3923, 793.3826
695.3207, 793.7396
697.2492, 800.3856
699.1777, 806.8348
701.1061, 810.6750
703.0346, 812.9941
704.9631, 813.2471
706.8915, 813.0663
708.8200, 814.9838
710.7485, 817.9659
712.6769, 818.7290
714.6054, 818.1486
716.5339, 822.7842
718.4623, 833.4917
720.3908, 839.7147
722.3193, 839.7982
724.2477, 840.0529
726.1762, 839.6888
728.1047, 841.6659
730.0331, 847.8945
731.9616, 852.8584
733.8901, 854.0830
735.8185, 855.6124
737.7470, 859.2820
739.6755, 863.7088
741.6039, 868.8836
743.5324, 873.8216
745.4609, 876.9676
747.3893, 879.1890
749.3178, 882.6504
751.2463, 886.9615
753.1747, 888.6408
755.1032, 893.0322
757.0317, 897.8252
758.9601, 901.0801
760.8886, 908.6305
762.8171, 914.3158
764.7455, 920.1310
766.6740, 926.1737
768.6025, 933.6618
770.5309, 942.9381
772.4594, 953.1654
774.3879, 962.9288
776.3163, 975.5853
778.2448, 992.9142
780.1733, 1012.316
782.1017, 1034.876
784.0302, 1055.846
785.9587, 1071.023
787.8871, 1083.378
789.8156, 1095.649
791.7441, 1107.872
793.6725, 1119.031
795.6010, 1130.658
797.5295, 1145.813
799.4579, 1164.736
801.3864, 1190.388
803.3149, 1221.740
805.2433, 1247.882
807.1718, 1267.798
809.1003, 1287.891
811.0287, 1309.593
812.9572, 1328.040
814.8857, 1343.295
816.8141, 1353.225
818.7426, 1357.118
820.6711, 1357.262
822.5995, 1351.777
824.5280, 1346.340
826.4565, 1340.950
828.3849, 1338.318
830.3134, 1339.172
832.2419, 1344.213
834.1703, 1352.129
836.0988, 1366.089
838.0273, 1392.837
839.9557, 1423.935
841.8842, 1453.100
843.8127, 1477.466
845.7411, 1494.634
847.6696, 1504.228
849.5981, 1503.270
851.5266, 1495.444
853.4550, 1490.048
855.3835, 1487.408
857.3120, 1492.765
859.2404, 1506.511
861.1689, 1523.149
863.0974, 1543.082
865.0258, 1557.249
866.9543, 1564.752
868.8828, 1572.990
870.8112, 1583.420
872.7397, 1590.680
874.6682, 1595.888
876.5966, 1590.343
878.5251, 1573.417
880.4536, 1541.531
882.3820, 1490.352
884.3105, 1433.841
886.2390, 1374.006
888.1674, 1314.722
890.0959, 1252.842
892.0244, 1200.124
893.9528, 1163.339
895.8813, 1133.721
897.8098, 1108.823
899.7382, 1088.274
901.6667, 1071.941
903.5952, 1059.772
905.5236, 1053.438
907.4521, 1049.001
909.3806, 1043.180
911.3090, 1038.480
913.2375, 1037.774
915.1660, 1038.142
917.0944, 1036.229
919.0229, 1033.976
920.9514, 1033.624
922.8798, 1034.614
924.8083, 1037.121
926.7368, 1040.045
928.6652, 1040.445
930.5937, 1039.851
932.5222, 1041.608
934.4506, 1044.721
936.3791, 1046.728
938.3076, 1048.029
940.2360, 1050.506
942.1645, 1053.480
944.0930, 1053.681
946.0214, 1051.846
947.9499, 1052.617
949.8784, 1055.623
951.8068, 1058.679
953.7353, 1062.169
955.6638, 1066.516
957.5922, 1071.737
959.5207, 1075.374
961.4492, 1077.029
963.3776, 1078.902
965.3061, 1081.368
967.2346, 1084.795
969.1630, 1089.221
971.0915, 1092.346
973.0200, 1094.466
974.9484, 1095.170
976.8769, 1093.482
978.8054, 1093.871
980.7338, 1097.150
982.6623, 1099.869
984.5908, 1101.561
986.5192, 1104.532
988.4477, 1109.590
990.3762, 1112.423
992.3046, 1111.778
994.2331, 1110.694
996.1616, 1109.924
998.0900, 1109.990
1000.018, 1110.928
1001.947, 1110.974
1003.875, 1109.947
1005.804, 1108.394
1007.732, 1106.163
1009.661, 1105.548
1011.589, 1104.475
1013.518, 1103.037
1015.446, 1103.498
1017.375, 1101.334
1019.303, 1100.989
1021.232, 1101.583
1023.160, 1103.756
1025.089, 1104.618
1027.017, 1105.973
1028.945, 1108.755
1030.874, 1108.317
1032.802, 1113.071
1034.731, 1114.021
1036.659, 1113.399
1038.588, 1109.990
1040.516, 1109.716
1042.445, 1115.817
1044.373, 1119.406
1046.302, 1116.860
1048.230, 1116.731
1050.159, 1122.683
1052.087, 1126.050
1054.016, 1123.100
1055.944, 1122.460
1057.872, 1127.301
1059.801, 1131.295
1061.729, 1133.211
1063.658, 1134.132
1065.586, 1133.605
1067.515, 1133.882
1069.443, 1135.166
1071.372, 1137.041
1073.300, 1140.147
1075.229, 1143.269
1077.157, 1146.287
1079.086, 1147.013
1081.014, 1144.481
1082.943, 1143.762
1084.871, 1145.379
1086.799, 1148.412
1088.728, 1153.356
1090.656, 1155.984
1092.585, 1155.892
1094.513, 1155.776
1096.442, 1155.729
1098.370, 1156.633
1100.299, 1158.015
1102.227, 1158.594
1104.156, 1159.103
1106.084, 1161.471
1108.013, 1162.437
1109.941, 1163.720
1111.870, 1165.805
1113.798, 1166.161
1115.726, 1167.710
1117.655, 1168.840
1119.583, 1169.498
1121.512, 1170.293
1123.440, 1171.727
1125.369, 1173.635
1127.297, 1175.396
1129.226, 1176.643
1131.154, 1177.684
1133.083, 1177.693
1135.011, 1176.688
1136.940, 1176.400
1138.868, 1177.237
1140.797, 1180.528
1142.725, 1180.604
1144.653, 1184.866
1146.582, 1183.660
1148.510, 1185.629
1150.439, 1188.352
1152.367, 1188.338
1154.296, 1188.345
1156.224, 1191.846
1158.153, 1194.092
1160.081, 1189.414
1162.010, 1185.840
1163.938, 1189.805
1165.867, 1195.278
1167.795, 1199.309
1169.724, 1201.792
1171.652, 1204.022
1173.580, 1204.443
1175.509, 1200.627
1177.437, 1197.399
1179.366, 1195.512
1181.294, 1195.728
1183.223, 1199.269
1185.151, 1201.317
1187.080, 1201.609
1189.008, 1201.151
1190.937, 1198.531
1192.865, 1199.251
1194.794, 1205.001
1196.722, 1206.452
1198.651, 1203.186
1200.579, 1202.110
1202.507, 1203.432
1204.436, 1204.244
1206.364, 1204.243
1208.293, 1205.013
1210.221, 1206.146
1212.150, 1207.149
1214.078, 1207.984
1216.007, 1206.098
1217.935, 1203.925
1219.864, 1205.680
1221.792, 1208.706
1223.721, 1211.210
1225.649, 1212.348
1227.578, 1210.439
1229.506, 1208.135
1231.434, 1207.160
1233.363, 1206.907
1235.291, 1206.670
1237.220, 1207.540
1239.148, 1210.639
1241.077, 1212.421
1243.005, 1212.588
1244.934, 1211.815
1246.862, 1209.084
1248.791, 1207.951
1250.719, 1209.463
1252.648, 1210.721
1254.576, 1211.322
1256.505, 1210.369
1258.433, 1208.460
1260.361, 1208.752
1262.290, 1210.236
1264.218, 1211.378
1266.147, 1213.302
1268.075, 1215.163
1270.004, 1215.855
1271.932, 1217.000
1273.861, 1218.477
1275.789, 1219.289
1277.718, 1219.637
1279.646, 1219.120
1281.575, 1219.211
1283.503, 1220.937
1285.432, 1221.521
1287.360, 1220.078
1289.288, 1219.465
1291.217, 1220.774
1293.145, 1221.149
1295.074, 1219.383
1297.002, 1218.203
1298.931, 1218.098
1300.859, 1219.920
1302.788, 1219.498
1304.716, 1220.104
1306.645, 1220.938
1308.573, 1220.723
1310.502, 1221.847
1312.430, 1222.419
1314.359, 1222.839
1316.287, 1224.148
1318.215, 1225.272
1320.144, 1225.404
1322.072, 1224.685
1324.001, 1222.961
1325.929, 1222.611
1327.858, 1222.156
1329.786, 1221.178
1331.715, 1222.011
1333.643, 1220.438
1335.572, 1220.450
1337.500, 1221.283
1339.429, 1222.859
1341.357, 1222.142
1343.286, 1220.849
1345.214, 1222.169
1347.142, 1222.837
1349.071, 1221.201
1350.999, 1220.373
1352.928, 1220.832
1354.856, 1220.952
1356.785, 1220.772
1358.713, 1220.349
1360.642, 1217.132
1362.570, 1216.121
1364.499, 1221.795
1366.427, 1223.865
1368.356, 1219.894
1370.284, 1217.420
1372.213, 1217.666
1374.141, 1217.947
1376.069, 1217.924
1377.998, 1217.345
1379.926, 1215.715
1381.855, 1213.944
1383.783, 1212.890
1385.712, 1211.013
1387.640, 1208.425
1389.569, 1207.508
1391.497, 1208.462
1393.426, 1210.606
1395.354, 1210.523
1397.283, 1207.373
1399.211, 1207.408
1401.140, 1210.355
1403.068, 1212.018
1404.996, 1213.211
1406.925, 1209.832
1408.853, 1203.557
1410.782, 1202.338
1412.710, 1204.418
1414.639, 1206.285
1416.567, 1206.190
1418.496, 1203.105
1420.424, 1201.307
1422.353, 1203.463
1424.281, 1204.554
1426.210, 1202.188
1428.138, 1199.466
1430.067, 1198.740
1431.995, 1197.903
1433.923, 1195.010
1435.852, 1194.329
1437.780, 1195.069
1439.709, 1191.662
1441.637, 1188.849
1443.566, 1191.529
1445.494, 1194.078
1447.423, 1196.800
1449.351, 1195.746
1451.280, 1194.609
1453.208, 1193.040
1455.137, 1187.872
1457.065, 1187.815
1458.994, 1182.958
1460.922, 1181.514
1462.850, 1181.858
1464.779, 1180.886
1466.707, 1179.796
1468.636, 1177.404
1470.564, 1174.729
1472.493, 1173.925
1474.421, 1172.270
1476.350, 1167.743
1478.278, 1164.846
1480.207, 1164.341
1482.135, 1167.027
1484.064, 1163.951
1485.992, 1167.502
1487.921, 1161.045
1489.849, 1157.998
1491.777, 1156.281
1493.706, 1155.254
1495.634, 1154.882
1497.563, 1154.460
1499.491, 1153.485
1501.420, 1152.815
1503.348, 1150.424
1505.277, 1145.979
1507.205, 1142.945
1509.134, 1140.957
1511.062, 1140.904
1512.991, 1141.687
1514.919, 1141.017
1516.848, 1140.041
1518.776, 1138.471
1520.704, 1136.309
1522.633, 1133.446
1524.561, 1131.492
1526.490, 1131.064
1528.418, 1130.108
1530.347, 1128.626
1532.275, 1126.259
1534.204, 1123.668
1536.132, 1121.201
1538.061, 1118.274
1539.989, 1114.827
1541.918, 1114.711
1543.846, 1118.027
1545.775, 1117.983
1547.703, 1114.605
1549.631, 1111.432
1551.560, 1109.023
1553.488, 1109.618
1555.417, 1110.323
1557.345, 1106.357
1559.274, 1102.079
1561.202, 1098.319
1563.131, 1096.578
1565.059, 1098.656
1566.988, 1099.051
1568.916, 1096.777
1570.845, 1094.387
1572.773, 1092.636
1574.702, 1089.978
1576.630, 1087.663
1578.558, 1089.117
1580.487, 1090.006
1582.415, 1086.094
1584.344, 1083.069
1586.272, 1082.874
1588.201, 1081.149
1590.129, 1077.118
1592.058, 1073.800
1593.986, 1072.185
1595.915, 1071.594
1597.843, 1070.099
1599.772, 1065.134
1601.700, 1060.303
1603.629, 1059.141
1605.557, 1058.319
1607.485, 1056.423
1609.414, 1055.483
1611.342, 1055.711
1613.271, 1053.707
1615.199, 1050.673
1617.128, 1050.885
1619.056, 1049.381
1620.985, 1042.968
1622.913, 1038.592
1624.842, 1037.005
1626.770, 1036.115
1628.699, 1035.971
1630.627, 1034.157
1632.556, 1030.879
1634.484, 1029.963
1636.412, 1029.332
1638.341, 1025.110
1640.269, 1020.552
1642.198, 1018.516
1644.126, 1018.521
1646.055, 1018.257
1647.983, 1015.692
1649.912, 1011.784
1651.840, 1006.455
1653.769, 1003.114
1655.697, 1003.311
1657.626, 1004.137
1659.554, 1003.929
1661.483, 1002.869
1663.411, 1001.440
1665.339, 998.9012
1667.268, 995.3677
1669.196, 991.5959
1671.125, 988.9631
1673.053, 987.5352
1674.982, 987.4469
1676.910, 987.6410
1678.839, 985.7220
1680.767, 981.4633
1682.696, 977.0568
1684.624, 974.4858
1686.553, 973.0013
1688.481, 972.2004
1690.410, 970.9127
1692.338, 969.3605
1694.266, 968.2513
1696.195, 965.0331
1698.123, 961.9787
1700.052, 959.8161
1701.980, 957.9238
1703.909, 956.3156
1705.837, 954.1805
1707.766, 952.7775
1709.694, 950.8420
1711.623, 947.9933
1713.551, 947.0602
1715.480, 946.8966
1717.408, 944.1986
1719.337, 939.5933
1721.265, 934.2344
1723.193, 931.7675
1725.122, 929.2820
1727.050, 926.6649
1728.979, 926.6266
1730.907, 925.3010
1732.836, 921.3676
1734.764, 915.3033
1736.693, 911.9972
1738.621, 910.8916
1740.550, 910.5685
1742.478, 910.8295
1744.407, 906.9531
1746.335, 905.9011
1748.264, 901.6291
1750.192, 900.2850
1752.120, 896.1571
1754.049, 892.1292
1755.977, 887.8619
1757.906, 884.3084
1759.834, 883.1580
1761.763, 881.5508
1763.691, 879.2557
1765.620, 878.2507
1767.548, 875.9446
1769.477, 872.1447
1771.405, 869.4740
1773.334, 868.0104
1775.262, 866.5623
1777.191, 864.8008
1779.119, 863.0791
1781.047, 861.2560
1782.976, 859.2856
1784.904, 857.8239
1786.833, 855.8278
1788.761, 851.7036
1790.690, 847.5796
1792.618, 844.3536
1794.547, 842.1339
1796.475, 839.8576
1798.404, 839.0589
1800.332, 838.3926
1802.261, 834.5548
1804.189, 831.0995
1806.118, 829.6677
1808.046, 827.1950
1809.974, 824.2736
1811.903, 821.4339
1813.831, 818.7524
1815.760, 817.1807
1817.688, 816.9669
1819.617, 813.1036
1821.545, 810.6680
1823.474, 807.6652
1825.402, 803.0569
1827.331, 800.2050
1829.259, 795.6447
1831.188, 791.1956
1833.116, 787.3387
1835.045, 786.9259
1836.973, 786.9411
1838.901, 784.5567
1840.830, 782.0731
1842.758, 778.8814
1844.687, 774.7446
1846.615, 773.3956
1848.544, 772.6081
1850.472, 768.7159
1852.401, 766.5867
1854.329, 764.8683
1856.258, 762.0565
1858.186, 760.5238
1860.115, 757.9724
1862.043, 754.9889
1863.972, 750.1799
1865.900, 745.4664
1867.828, 744.9044
1869.757, 744.5189
1871.685, 741.7174
1873.614, 738.7792
1875.542, 737.3958
1877.471, 734.1317
1879.399, 728.8487
1881.328, 725.7786
1883.256, 723.7635
1885.185, 722.6611
1887.113, 720.0612
1889.042, 715.7435
1890.970, 714.0035
1892.899, 712.3895
1894.827, 709.9237
1896.755, 708.2653
1898.684, 706.1530
1900.612, 703.2043
1902.541, 699.7983
1904.469, 698.0188
1906.398, 695.6370
1908.326, 692.2666
1910.255, 689.9348
1912.183, 686.9191
1914.112, 683.8099
1916.040, 683.0719
1917.969, 682.3712
1919.897, 679.0135
1921.826, 675.4403
1923.754, 672.1714
1925.682, 669.9169
1927.611, 669.0712
1929.539, 668.1438
1931.468, 667.4818
1933.396, 665.5150
1935.325, 664.1855
1937.253, 661.8788
1939.182, 659.7425
1941.110, 656.4311
1943.039, 652.3118
1944.967, 648.7036
1946.896, 644.8666
1948.824, 642.0723
1950.753, 640.5514
1952.681, 638.2607
1954.609, 636.0333
1956.538, 633.4390
1958.466, 630.7131
1960.395, 628.0660
1962.323, 625.4144
1964.252, 623.5139
1966.180, 622.0377
1968.109, 620.7784
1970.037, 617.4070
1971.966, 613.1268
1973.894, 610.8049
1975.823, 607.5832
1977.751, 607.9724
1979.680, 603.1071
1981.608, 601.4081
1983.536, 601.0831
1985.465, 597.9465
1987.393, 592.6796
1989.322, 588.4271
1991.250, 587.9426
1993.179, 588.2040
1995.107, 585.2709
1997.036, 581.6490
1998.964, 579.0750
2000.893, 576.5079
2002.821, 575.3147
2004.750, 574.0013
2006.678, 571.6371
2008.607, 568.7275
2010.535, 565.4708
2012.464, 563.2358
2014.392, 560.1571
2016.320, 558.5167
2018.249, 555.2171
2020.177, 553.2155
2022.106, 552.1984
2024.034, 550.2972
2025.963, 547.8839
2027.891, 542.8478
2029.820, 542.2897
2031.748, 539.6674
2033.677, 535.9755
2035.605, 534.9564
2037.534, 533.6535
2039.462, 531.4031
2041.391, 528.3412
2043.319, 526.3267
2045.247, 524.7371
2047.176, 523.4820
2049.104, 521.7845
2051.033, 519.8034
2052.961, 517.7647
2054.890, 515.0829
2056.818, 512.9725
2058.747, 509.6060
2060.675, 506.8567
2062.604, 504.8550
2064.532, 501.5607
2066.460, 499.5118
2068.389, 497.3828
2070.317, 495.4487
2072.246, 494.2738
2074.174, 492.4554
2076.103, 490.3654
2078.031, 487.8652
2079.960, 485.9732
2081.888, 482.6235
2083.817, 480.3065
2085.745, 478.9362
2087.674, 477.9756
2089.602, 476.3429
2091.531, 476.1656
2093.459, 472.6362
2095.387, 467.9573
2097.316, 465.3211
2099.244, 463.2394
2101.173, 460.2061
2103.101, 458.0890
2105.030, 459.2417
2106.958, 458.8513
2108.887, 455.9471
2110.815, 452.3839
2112.744, 448.7983
2114.672, 447.2354
2116.601, 445.9803
2118.529, 444.9348
2120.458, 444.0116
2122.386, 440.1658
2124.314, 437.3687
2126.243, 435.6917
2128.171, 433.3959
2130.100, 432.7095
2132.028, 432.7896
2133.957, 429.5561
2135.885, 428.6397
2137.814, 426.4741
2139.742, 424.6126
2141.671, 422.0374
2143.599, 419.9744
2145.528, 418.0273
2147.456, 414.5173
2149.385, 413.3559
2151.313, 411.8129
2153.241, 406.2368
2155.170, 402.4525
2157.098, 403.2629
2159.027, 403.7748
2160.955, 401.0626
2162.884, 397.7301
2164.812, 396.6555
2166.741, 395.4018
2168.669, 393.0965
2170.598, 390.8575
2172.526, 388.4771
2174.455, 386.6225
2176.383, 384.2223
2178.312, 382.4225
2180.240, 380.7816
2182.168, 379.3858
2184.097, 377.7744
2186.025, 377.5624
2187.954, 376.1708
2189.882, 372.8050
2191.811, 370.4039
2193.739, 370.4755
2195.668, 369.0923
2197.596, 365.3442
2199.525, 362.6800
2201.453, 359.8405
2203.382, 358.5622
2205.310, 359.0347
2207.239, 358.3321
2209.167, 354.7311
2211.095, 352.0146
2213.024, 351.2332
2214.952, 350.3565
2216.881, 348.3085
2218.809, 344.7410
2220.738, 342.5472
2222.666, 341.4563
2224.595, 340.4910
2226.523, 340.2742
2228.452, 338.5313
2230.380, 336.9834
2232.309, 335.5237
2234.237, 332.9603
2236.166, 331.4127
2238.094, 329.5329
2240.022, 327.1544
2241.951, 326.1312
2243.879, 325.2414
2245.808, 322.3782
2247.736, 319.9807
2249.665, 318.1987
2251.593, 317.2851
2253.522, 316.8625
2255.450, 315.4131
2257.379, 313.0591
2259.307, 310.0869
2261.236, 308.7743
2263.164, 309.0222
2265.093, 308.2792
2267.021, 306.4192
2268.949, 304.9814
2270.878, 302.7886
2272.806, 300.0502
2274.735, 297.0744
2276.663, 295.4991
2278.592, 293.9488
2280.520, 294.7134
2282.449, 292.2832
2284.377, 292.5352
2286.306, 292.2210
2288.234, 289.2405
2290.163, 287.5754
2292.091, 285.8350
2294.020, 282.7187
2295.948, 282.5199
2297.876, 282.0959
2299.805, 278.0219
2301.733, 277.1495
2303.662, 278.3495
2305.590, 274.9994
2307.519, 272.5965
2309.447, 272.0315
2311.376, 271.1096
2313.304, 270.2139
2315.233, 268.1931
2317.161, 265.7632
2319.090, 264.2225
2321.018, 262.2915
2322.947, 262.8499
2324.875, 259.6565
2326.803, 258.7492
2328.732, 259.0276
2330.660, 256.9335
2332.589, 256.2207
2334.517, 255.1077
2336.446, 253.2870
2338.374, 251.9769
2340.303, 249.8861
2342.231, 246.9794
2344.160, 244.2109
2346.088, 244.6011
2348.017, 244.1893
2349.945, 241.6666
2351.874, 240.9727
2353.802, 240.3851
2355.730, 238.9919
2357.659, 237.8460
2359.587, 236.6218
2361.516, 235.4594
2363.444, 233.4528
2365.373, 231.4790
2367.301, 230.4441
2369.230, 228.9391
2371.158, 227.5727
2373.087, 226.9734
2375.015, 225.5662
2376.944, 225.0034
2378.872, 225.1987
2380.801, 224.2873
2382.729, 222.4487
2384.657, 220.5725
2386.586, 218.8778
2388.514, 217.7660
2390.443, 216.5729
2392.371, 214.9447
2394.300, 214.2564
2396.228, 213.3526
2398.157, 212.9753
2400.085, 212.3320
2402.014, 210.3111
2403.942, 209.0791
2405.871, 208.2979
2407.799, 207.6419
2409.728, 206.3744
2411.656, 203.9283
2413.584, 202.2500
2415.513, 201.5870
2417.441, 200.1698
2419.370, 198.7070
2421.298, 198.7084
2423.227, 198.1550
2425.155, 196.6942
2427.084, 195.0026
2429.012, 194.3822
2430.941, 193.5902
2432.869, 190.5301
2434.798, 189.0026
2436.726, 189.5216
2438.655, 186.8218
2440.583, 184.8701
2442.511, 184.8380
2444.440, 184.0535
2446.368, 183.1139
2448.297, 181.9877
2450.225, 181.5704
2452.154, 180.6617
2454.082, 179.5174
2456.011, 177.4254
2457.939, 175.0898
2459.868, 175.7086
2461.796, 175.7137
2463.725, 174.1300
2465.653, 173.2724
2467.582, 172.3676
2469.510, 170.3866
2471.438, 169.0444
2473.367, 168.5329
2475.295, 166.8657
2477.224, 165.8067
2479.152, 165.8591
2481.081, 164.7666
2483.009, 163.3586
2484.938, 162.9847
2486.866, 162.6262
2488.795, 161.0764
2490.723, 158.7182
2492.652, 156.9399
2494.580, 156.2686
2496.509, 155.9404
2498.437, 155.7641
2500.365, 155.1053
2502.294, 153.7474
2504.222, 152.0992
2506.151, 150.6997
2508.079, 150.2917
2510.008, 147.6540
2511.936, 145.9926
2513.865, 148.3929
2515.793, 147.8027
2517.722, 146.2626
2519.650, 145.0213
2521.579, 144.5619
2523.507, 144.5050
2525.436, 143.6123
2527.364, 142.4742
2529.292, 141.3996
2531.221, 141.3543
2533.149, 141.0455
2535.078, 139.3233
2537.006, 137.3672
2538.935, 136.9396
2540.863, 136.8264
2542.792, 136.4075
2544.720, 134.7865
2546.649, 132.7200
2548.577, 131.9997
2550.506, 132.0687
2552.434, 132.4817
2554.363, 130.7776
2556.291, 128.3452
2558.219, 127.0926
2560.148, 126.4520
2562.076, 126.1155
2564.005, 125.1146
2565.933, 124.8786
2567.862, 123.7358
2569.790, 123.6741
2571.719, 123.2147
2573.647, 122.7058
2575.576, 122.5191
2577.504, 120.7284
2579.433, 120.6317
2581.361, 118.1456
2583.290, 118.9837
2585.218, 118.3538
2587.146, 116.4429
2589.075, 115.1694
2591.003, 114.5440
2592.932, 114.6531
2594.860, 113.9457
2596.789, 113.0399
2598.717, 112.1575
2600.646, 111.1858
2602.574, 110.2163
2604.503, 109.0663
2606.431, 107.9133
2608.360, 106.7484
2610.288, 105.9897
2612.217, 106.3840
2614.145, 105.9727
2616.073, 104.7086
2618.002, 104.2858
2619.930, 103.1172
2621.859, 101.0664
2623.787, 101.9320
2625.716, 102.7709
2627.644, 101.6185
2629.573, 100.7712
2631.501, 100.8674
2633.430, 100.0193
2635.358, 98.49462
2637.287, 98.34175
2639.215, 97.13344
2641.144, 97.08269
2643.072, 95.63012
2645.000, 95.82838
2646.929, 95.74397
2648.857, 95.69520
2650.786, 95.70998
2652.714, 94.28754
2654.643, 92.34733
2656.571, 91.05125
2658.500, 89.64778
2660.428, 90.04051
2662.357, 88.89221
2664.285, 89.27174
2666.214, 88.07487
2668.142, 87.30367
2670.071, 87.20663
2671.999, 87.45168
2673.927, 87.41334
2675.856, 87.29982
2677.784, 87.45952
2679.713, 86.72433
2681.641, 84.19749
2683.570, 83.10394
2685.498, 82.75842
2687.427, 83.00603
2689.355, 82.89470
2691.284, 81.99595
2693.212, 79.24525
2695.141, 78.46737
2697.069, 79.04660
2698.998, 78.16324
2700.926, 78.35417
2702.854, 78.23123
2704.783, 77.00257
2706.711, 77.34574
2708.640, 77.15822
2710.568, 74.88407
2712.497, 73.90784
2714.425, 74.12698
2716.354, 74.66048
2718.282, 74.30747
2720.211, 73.15850
2722.139, 71.63902
2724.068, 72.46179
2725.996, 72.30168
2727.925, 70.97997
2729.853, 69.78523
2731.781, 69.36064
2733.710, 70.00065
2735.638, 69.27851
2737.567, 68.49590
2739.495, 67.87716
2741.424, 67.40172
2743.352, 66.95028
2745.281, 66.26814
2747.209, 65.62025
2749.138, 66.36018
2751.066, 65.90842
2752.995, 64.46953
2754.923, 65.69452
2756.852, 65.76961
2758.780, 64.25733
2760.708, 63.87843
2762.637, 63.51022
2764.565, 62.58334
2766.494, 61.67430
2768.422, 60.97082
2770.351, 60.85264
2772.279, 61.31753
2774.208, 60.53704
2776.136, 60.27085
2778.065, 59.77481
2779.993, 58.81871
2781.922, 58.70494
2783.850, 57.59006
2785.779, 57.93879
2787.707, 57.88387
2789.635, 57.06984
2791.564, 56.08218
2793.492, 56.24260
2795.421, 57.05976
2797.349, 57.97469
2799.278, 55.84719
2801.206, 53.79340
2803.135, 55.35844
2805.063, 54.81894
2806.992, 54.08368
2808.920, 54.04693
2810.849, 52.99691
2812.777, 52.22098
2814.706, 51.83743
2816.634, 50.78491
2818.563, 50.28704
2820.491, 50.35736
2822.419, 49.92051
2824.348, 49.89394
2826.276, 49.56430
2828.205, 49.62570
2830.133, 49.07531
2832.062, 48.48232
2833.990, 48.59621
2835.919, 47.89104
2837.847, 46.98414
2839.776, 46.30032
2841.704, 45.70275
2843.633, 47.04068
2845.561, 47.92313
2847.490, 46.18121
2849.418, 43.82723
2851.346, 42.85284
2853.275, 44.41059
2855.203, 44.56190
2857.132, 43.46671
2859.060, 42.32063
2860.989, 42.81216
2862.917, 42.71345
2864.846, 42.38168
2866.774, 42.65856
2868.703, 42.33220
2870.631, 42.64965
2872.560, 41.93102
2874.488, 41.46877
2876.417, 41.14797
2878.345, 40.70630
2880.273, 40.75898
2882.202, 40.76698
2884.130, 40.37869
2886.059, 39.84620
2887.987, 39.63323
2889.916, 39.25317
2891.844, 38.60454
2893.773, 38.54009
2895.701, 37.06390
2897.630, 38.56500
2899.558, 37.27302
2901.487, 38.01394
2903.415, 38.12025
2905.344, 36.08979
2907.272, 34.23830
2909.200, 34.43203
2911.129, 35.86929
2913.057, 36.26043
2914.986, 36.07804
2916.914, 35.78249
2918.843, 35.67539
2920.771, 33.99487
2922.700, 33.04796
2924.628, 33.34703
2926.557, 34.14026
2928.485, 33.57095
2930.414, 32.62812
2932.342, 32.67162
2934.271, 32.80889
2936.199, 33.02179
2938.127, 33.12883
2940.056, 32.30029
2941.984, 31.33178
2943.913, 31.04297
2945.841, 30.36044
2947.770, 30.71351
2949.698, 29.92693
2951.627, 30.21099
2953.555, 31.01775
2955.484, 31.00217
2957.412, 30.25277
2959.341, 30.93326
2961.269, 29.96255
2963.198, 30.91066
2965.126, 30.50385
2967.054, 29.43621
2968.983, 28.96424
2970.911, 28.82177
2972.840, 28.69511
2974.768, 27.64294
2976.697, 27.12837
2978.625, 27.41483
2980.554, 26.19779
2982.482, 26.36653
2984.411, 26.95342
2986.339, 26.45602
2988.268, 26.72740
2990.196, 26.63592
2992.125, 26.55260
2994.053, 26.45452
2995.981, 26.11731
2997.910, 26.12081
2999.838, 26.79607
3001.767, 25.29602
3003.695, 25.15681
3005.624, 25.63663
3007.552, 24.32029
3009.481, 24.37193
3011.409, 24.46917
3013.338, 24.02316
3015.266, 23.34525
3017.195, 23.20911
3019.123, 23.59882
3021.052, 24.29114
3022.980, 23.76852
3024.908, 23.34589
3026.837, 23.28309
3028.765, 23.00514
3030.694, 22.83979
3032.622, 22.97116
3034.551, 23.34453
3036.479, 23.22118
3038.408, 23.04576
3040.336, 22.70611
3042.265, 22.18607
3044.193, 21.61532
3046.122, 20.81620
3048.050, 20.27764
3049.979, 20.39994
3051.907, 20.42357
3053.835, 20.53659
3055.764, 21.12223
3057.692, 21.43457
3059.621, 21.50509
3061.549, 21.22271
3063.478, 20.22833
3065.406, 19.91003
3067.335, 19.41174
3069.263, 19.00233
3071.192, 20.37110
3073.120, 19.12517
3075.049, 17.78296
3076.977, 17.84754
3078.906, 19.64766
3080.834, 20.39906
3082.762, 19.71329
3084.691, 18.00780
3086.619, 16.03703
3088.548, 17.48998
3090.476, 16.41633
3092.405, 18.50591
3094.333, 17.13220
3096.262, 17.33991
3098.190, 18.29442
3100.119, 17.20123
3102.047, 15.75914
3103.976, 15.88368
3105.904, 17.60162
3107.833, 17.56381
3109.761, 18.59816
3111.689, 18.54935
3113.618, 16.58906
3115.546, 15.81633
3117.475, 15.41327
3119.403, 15.71430
3121.332, 16.99751
3123.260, 15.76039
3125.189, 16.93598
3127.117, 18.42870
3129.046, 15.83728
3130.974, 15.67719
3132.903, 15.21848
3134.831, 14.45053
3136.760, 14.71726
3138.688, 14.65510
3140.616, 15.10025
3142.545, 14.97170
3144.473, 14.98724
3146.402, 15.00741
3148.330, 14.64541
3150.259, 14.96618
3152.187, 14.44854
3154.116, 14.17380
3156.044, 14.44670
3157.973, 15.13085
3159.901, 14.67972
3161.830, 14.86941
3163.758, 14.94219
3165.687, 14.60111
3167.615, 14.08154
3169.543, 13.32380
3171.472, 13.01176
3173.400, 13.04197
3175.329, 12.11291
3177.257, 12.20531
3179.186, 12.97160
3181.114, 14.02003
3183.043, 12.25059
3184.971, 11.37750
3186.900, 11.74333
3188.828, 12.80212
3190.757, 13.11215
3192.685, 13.03845
3194.614, 12.22796
3196.542, 12.25673
3198.470, 11.88308
3200.399, 11.34376
3202.327, 11.81624
3204.256, 11.01158
3206.184, 11.87371
3208.113, 12.94328
3210.041, 13.15283
3211.970, 11.85816
3213.898, 9.963755
3215.827, 11.24811
3217.755, 12.02090
3219.684, 10.26980
3221.612, 10.60030
3223.541, 11.34103
3225.469, 11.21225
3227.397, 10.35423
3229.326, 9.052258
3231.254, 8.824868
3233.183, 10.33278
3235.111, 9.375582
3237.040, 9.892864
3238.968, 9.286785
3240.897, 9.323283
3242.825, 9.306798
3244.754, 9.780865
3246.682, 9.336962
3248.611, 9.727917
3250.539, 10.41716
3252.468, 8.856408
3254.396, 9.379396
3256.324, 8.436445
3258.253, 7.659583
3260.181, 10.25768
3262.110, 9.343431
3264.038, 10.55300
3265.967, 11.33780
3267.895, 9.055753
3269.824, 8.326632
3271.752, 16.63749
3273.681, 19.00428
3275.609, 9.511458
3277.538, 15.52320
3279.466, 12.44056
3281.395, 8.770006
3283.323, 9.089685
3285.251, 8.170546
3287.180, 8.778502
3289.108, 9.596037
3291.037, 9.386576
3292.965, 9.300425
3294.894, 8.567518
3296.822, 8.596216
3298.751, 8.053234
3300.679, 8.377644
3302.608, 8.377045
3304.536, 9.355042
3306.465, 9.942674
3308.393, 9.453141
3310.322, 10.52248
3312.250, 8.337921
3314.178, 6.722495
3316.107, 7.148715
3318.035, 8.753936
3319.964, 8.651148
3321.892, 8.859934
3323.821, 8.944334
3325.749, 8.181458
3327.678, 8.266595
3329.606, 7.352880
3331.535, 7.136049
3333.463, 7.896033
3335.392, 7.190474
3337.320, 8.539545
3339.249, 8.541607
3341.177, 7.854172
3343.105, 8.436037
3345.034, 8.137484
3346.962, 8.246734
3348.891, 8.163757
3350.819, 8.297229
3352.748, 7.743918
3354.676, 7.189780
3356.605, 6.899857
3358.533, 6.469496
3360.462, 5.911592
3362.390, 5.900104
3364.319, 5.871886
3366.247, 5.737702
3368.176, 6.616608
3370.104, 6.490999
3372.032, 7.580542
3373.961, 8.574768
3375.889, 8.561028
3377.818, 7.495485
3379.746, 6.588303
3381.675, 6.135025
3383.603, 6.481513
3385.532, 7.247116
3387.460, 7.980677
3389.389, 6.794014
3391.317, 8.320590
3393.246, 9.595140
3395.174, 4.962153
3397.103, 6.860805
3399.031, 7.229481
3400.959, 6.809931
3402.888, 6.834127
3404.816, 6.117996
3406.745, 7.743697
3408.673, 5.657958
3410.602, 4.118846
3412.530, 6.782942
3414.459, 6.365380
3416.387, 6.529135
3418.316, 6.099387
3420.244, 5.962049
3422.173, 5.751898
3424.101, 5.582663
3426.030, 5.354098
3427.958, 5.211789
3429.886, 5.336825
3431.815, 4.965066
3433.743, 4.673686
3435.672, 6.133671
3437.600, 6.875523
3439.529, 5.870183
3441.457, 6.822196
3443.386, 7.138358
3445.314, 7.365964
3447.243, 6.949945
3449.171, 5.544443
3451.100, 5.380465
3453.028, 3.791119
3454.957, 4.776547
3456.885, 4.295012
3458.813, 4.589994
3460.742, 4.648394
3462.670, 5.384194
3464.599, 5.784233
3466.527, 5.606688
3468.456, 5.992815
3470.384, 5.087250
3472.313, 5.840060
3474.241, 5.871703
3476.170, 5.214483
3478.098, 5.353932
3480.027, 6.820904
3481.955, 6.890762
3483.884, 6.080474
3485.812, 5.200165
3487.740, 4.686457
3489.669, 4.794595
3491.597, 4.856353
3493.526, 4.877820
3495.454, 5.041533
3497.383, 5.463418
3499.311, 4.766198
3501.240, 6.197471
3503.168, 6.035151
3505.097, 4.189803
3507.025, 5.090586
3508.954, 3.734759
3510.882, 2.374368
3512.811, 4.438922
3514.739, 7.915236
3516.667, 6.692086
3518.596, 5.428360
3520.524, 5.669133
3522.453, 4.605035
3524.381, 3.399593
3526.310, 6.140400
3528.238, 4.163760
3530.167, 4.098769
3532.095, 3.639696
3534.024, 3.084876
3535.952, 4.431392
3537.881, 4.650789
3539.809, 5.044375
3541.738, 4.125553
3543.666, 3.640764
3545.594, 4.922958
3547.523, 3.206501
3549.451, 5.525038
3551.380, 5.156111
3553.308, 4.434638
3555.237, 5.560300
3557.165, 4.905433
3559.094, 4.453821
3561.022, 4.261271
3562.951, 3.857830
3564.879, 3.667028
3566.808, 3.575853
3568.736, 3.618156
3570.665, 3.586736
3572.593, 4.072087
3574.521, 4.330710
3576.450, 4.166160
3578.378, 4.790255
3580.307, 3.092530
3582.235, 4.234948
3584.164, 4.737806
3586.092, 2.959595
3588.021, 5.675655
3589.949, 4.079836
3591.878, 4.468201
3593.806, 5.248523
3595.735, 5.561006
3597.663, 6.034163
3599.592, 3.847776
3601.520, 4.959336
3603.448, 4.902120
3605.377, 5.084624
3607.305, 5.411876
3609.234, 6.216073
3611.162, 5.473780
3613.091, 5.564403
3615.019, 5.407888
3616.948, 4.528815
3618.876, 3.374629
3620.805, 2.935465
3622.733, 4.859406
3624.662, 5.925988
3626.590, 5.193597
3628.519, 4.237278
3630.447, 5.508635
3632.375, 4.619882
3634.304, 3.661937
3636.232, 4.236567
3638.161, 4.792975
3640.089, 4.238801
3642.018, 5.250929
3643.946, 3.830726
3645.875, 3.617781
3647.803, 4.150810
3649.732, 4.146579
3651.660, 3.297294
3653.589, 3.700137
3655.517, 3.603666
3657.446, 3.771679
3659.374, 2.692933
3661.302, 1.861041
3663.231, 3.798445
3665.159, 2.289781
3667.088, 2.835609
3669.016, 2.353057
3670.945, 2.993919
3672.873, 3.918121
3674.802, 1.961514
3676.730, 2.883048
3678.659, 3.916345
3680.587, 3.886662
3682.516, 4.328761
3684.444, 4.398146
3686.373, 1.981365
3688.301, 2.547853
3690.229, 2.173952
3692.158, 2.229270
3694.086, 2.078906
3696.015, 1.978734
3697.943, 3.047096
3699.872, 3.744601
3701.800, 2.210110
3703.729, 1.274140
3705.657, 1.700402
3707.586, 2.495611
3709.514, 2.524667
3711.443, 2.771147
3713.371, 2.728271
3715.300, 2.748791
3717.228, 2.619003
3719.156, 2.444352
3721.085, 2.189088
3723.013, 1.549805
3724.942, 1.293897
3726.870, 2.172197
3728.799, 1.562780
3730.727, 3.394952
3732.656, 1.351394
3734.584, 2.912749
3736.513, 2.951942
3738.441, 4.448546
3740.370, 2.192497
3742.298, 0.8039873
3744.227, 2.255648
3746.155, 3.257837
3748.083, 2.371016
3750.012, 1.576668
3751.940, 2.788287
3753.869, 3.895476
3755.797, 3.399948
3757.726, 1.960363
3759.654, 2.283817
3761.583, 2.127755
3763.511, 2.105324
3765.440, 2.007171
3767.368, 2.297192
3769.297, 2.020296
3771.225, 0.5231313
3773.154, 2.829037
3775.082, 1.800539
3777.010, 3.432181
3778.939, 4.867181
3780.867, 2.815697
3782.796, 0.4378970
3784.724, 3.492022
3786.653, 2.004892
3788.581, 1.912131
3790.510, 2.637422
3792.438, 3.218091
3794.367, 3.721149
3796.295, 3.708076
3798.224, 2.203789
3800.152, 3.366193
3802.081, 2.437653
3804.009, 1.783541
3805.938, 1.770340
3807.866, 1.993907
3809.794, 2.173235
3811.723, 2.157244
3813.651, 2.165028
3815.580, 2.088228
3817.508, 1.939006
3819.437, 1.552466
3821.365, 1.363708
3823.294, 0.5475464
3825.222, 0.8474857
3827.151, 0.6007389
3829.079, 0.7318888
3831.008, 0.8552028
3832.936, 1.263610
3834.865, 1.842678
3836.793, 2.075317
3838.721, 2.004492
3840.650, 2.426964
3842.578, 1.592344
3844.507, 0.5865550
3846.435, 0.3929809
3848.364, 0.5498006
3850.292, 1.185079
3852.221, 2.651759
3854.149, 2.811985
3856.078, 1.563111
3858.006, 3.666977
3859.935, 2.585046
3861.863, 2.497493
3863.792, 2.409782
3865.720, 1.311119
3867.648, 4.467645
3869.577, 2.095237
3871.505, 1.808154
3873.434, 2.326231
3875.362, 6.8818852E-02
3877.291, -0.2322038
3879.219, 2.437726
3881.148, 3.877567
3883.076, 2.027243
3885.005, 3.249203
3886.933, 1.707075
3888.862, 2.581469
3890.790, 3.792154
3892.719, 1.829248
3894.647, 0.1392391
3896.575, 2.570596
3898.504, 1.608158
3900.432, 2.375896
3902.361, 2.591066
3904.289, 0.8146107
3906.218, 0.9118368
3908.146, 0.8823317
3910.075, 0.2868670
3912.003, 1.203582
3913.932, 0.4345651
3915.860, 0.6185394
3917.789, 1.574650
3919.717, 1.619564
3921.646, 2.163932
3923.574, 0.3891519
3925.502, -0.8401133
3927.431, 2.265717
3929.359, 3.862909
3931.288, 1.826192
3933.216, -0.2106453
3935.145, 1.928855
3937.073, 2.014915
3939.002, 2.114267
3940.930, 1.261077
3942.859, 0.1515364
3944.787, 2.620963
3946.716, 0.5105386
3948.644, -0.4722405
3950.573, 3.706524
3952.501, 1.485710
3954.429, 1.249559
3956.358, 1.515859
3958.286, 0.7252521
3960.215, 1.398751
3962.143, 2.802252
3964.072, 0.9281155
3966.000, 2.768636
3967.929, -0.3410886
3969.857, -1.638947
3971.786, 0.4337423
3973.714, 1.739568
3975.643, 1.396077
3977.571, 1.578224
3979.500, 1.462629
3981.428, 0.3717470
3983.356, 0.1612965
3985.285, 1.480105
3987.213, 0.4300307
3989.142, 0.9081192
3991.070, 1.357625
3992.999, 0.1768354
3994.927, -0.9145523
3996.856, -0.1957607
3998.784, 0.3584534
4000.713, 5.0468199E-02
4002.641, 3.423460
4004.570, 1.041556
4006.498, 2.205136
4008.427, 1.497057
4010.355, 0.6853757
4012.283, 1.300142
4014.212, 0.8591594
4016.140, -0.7677754
4018.069, 1.154835
4019.997, -1.955037
4021.926, 2.464984
4023.854, 2.097630
4025.783, -0.3080199
4027.711, -0.8802842
4029.640, -0.1831903
4031.568, 0.2774945
4033.497, 0.4036010
4035.425, 0.5032610
4037.354, 0.1298802
4039.282, 0.5846287
4041.210, 1.386342
4043.139, 2.415537
4045.067, 1.108098
4046.996, -0.8128082
4048.924, -0.5320135
4050.853, -0.8777766
4052.781, -2.912807
4054.710, 1.398300
4056.638, 0.6399219
4058.567, 0.3585535
4060.495, -0.2657374
4062.424, -0.3982015
4064.352, 1.055502
4066.281, -4.6684679E-02
4068.209, 0.2577491
4070.137, 1.957994
4072.066, 1.014413
4073.994, 0.6691694
4075.923, 3.855894
4077.851, 1.369489
4079.780, -0.2829387
4081.708, 1.903124
4083.637, -7.6905578E-02
4085.565, 1.103480
4087.494, 1.555799
4089.422, 0.4242679
4091.351, 0.5355387
4093.279, 1.252863
4095.208, 1.074682
4097.136, 1.497007
4099.064, 1.310079
4100.993, 3.2927159E-02
4102.921, 1.105980
4104.850, 0.1077763
4106.778, 0.6387556
4108.707, -1.205493
4110.635, -0.9534107
4112.563, 1.232762
4114.492, 0.6072263
4116.420, -0.6047656
4118.349, 0.4896707
4120.277, 0.9212033
4122.206, 6.8248607E-02
4124.134, 0.4378591
4126.063, 1.501979
4127.991, 0.3438586
4129.920, 1.860598
4131.848, 0.7521724
4133.777, 0.2970348
4135.705, 0.7040878
4137.634, -0.2621538
4139.562, 0.4969499
4141.491, -0.1358578
4143.419, 1.015926
4145.348, -0.6045703
4147.276, 1.028413
4149.205, 0.8929017
4151.133, 1.339694
4153.062, -1.008019
4154.990, -1.325122
4156.918, -0.3328834
4158.847, 2.114018
4160.775, 1.210915
4162.704, 2.177255
4164.632, -0.5609297
4166.561, 2.270103
4168.489, 0.6416287
4170.417, 0.6438955
4172.346, -0.9544765
4174.274, -1.246848
4176.203, 0.9697646
4178.131, 0.1878167
4180.060, 1.821697
4181.988, 1.568787
4183.917, 1.507891
4185.845, 1.935184
4187.774, 0.1647518
4189.702, -0.8911220
4191.631, 1.150505
4193.559, 0.5322981
4195.488, 0.9929889
4197.416, 1.235796
4199.345, 1.114997
4201.273, 0.6027141
4203.202, 1.240081
4205.130, 0.2137712
4207.059, 8.8070951E-02
4208.987, 0.3710985
4210.916, 2.009760
4212.844, 0.8411566
4214.772, 1.720489
4216.701, 2.042938
4218.629, 1.805073
4220.558, 3.133982
4222.486, 0.6839039
4224.415, 0.5098304
4226.343, -0.9859819
4228.271, -0.9236244
4230.200, 4.3306500E-02
4232.128, -0.6914325
4234.057, 0.7845682
4235.985, -0.3710913
4237.914, 0.2776206
4239.842, 1.097713
4241.771, -1.134871
4243.699, -0.2248578
4245.628, 0.8380895
4247.556, -0.2903947
4249.485, 0.5750308
4251.413, 2.639879
4253.342, 2.073104
4255.270, -1.584202
4257.199, -2.9752020E-02
4259.127, -0.4395284
4261.056, 1.016868
4262.984, 0.1835197
4264.913, -0.4517268
4266.841, -2.080443
4268.770, 0.2057646
4270.698, 1.194197
4272.626, 0.3403351
4274.555, -0.5929375
4276.483, -0.1136159
4278.412, -1.8074650E-02
4280.340, 0.7847733
4282.269, 0.6527524
4284.197, 0.2214699
4286.125, 1.079077
4288.054, 0.8267797
4289.982, 3.1751379E-02
4291.911, 0.8781651
4293.839, 2.245234
4295.768, 1.268472
4297.696, 0.4762138
4299.625, 5.5018291E-02
4301.553, -0.8471760
4303.482, 0.4656889
4305.410, 0.8476818
4307.339, 1.749702
4309.267, 0.7351547
4311.196, 1.310514
4313.124, 1.522460
4315.053, 1.342756
4316.981, 1.418483
4318.910, 1.173137
4320.838, 0.9463297
4322.767, 1.016373
4324.695, -0.4701457
4326.624, 0.8231298
4328.552, 0.4889249
4330.480, -9.2488833E-02
4332.409, 1.891708
4334.337, 1.307873
4336.266, -1.080315
4338.194, -1.542838
4340.123, 0.3940819
4342.051, 0.5632792
4343.979, 0.9680713
4345.908, 0.8196040
4347.836, 1.704536
4349.765, -0.5001026
4351.693, 2.040431
4353.622, 0.5239878
4355.550, 2.010797
4357.479, 0.5296987
4359.407, 0.8103514
4361.336, 1.223330
4363.264, 1.019266
4365.193, 1.134458
4367.121, 1.787608
4369.050, 8.7543637E-02
4370.978, 1.613432
4372.907, -0.6864941
4374.835, -0.2360878
4376.764, 1.329207
4378.692, 0.8693026
4380.621, 0.6528093
##END=



