##NAMES=Andradite
##RRUFFID=R120004
##IDEAL CHEMISTRY=Ca_3_Fe^3+^_2_(SiO_4_)_3_
##LOCALITY=Chifeng, Inner Mongolia
##OWNER=RRUFF
##SOURCE=Jack Lowell
##DESCRIPTION=Dark green dodecahedral crystals overlying pale green diopside R120003
##STATUS=The identification of this mineral has been confirmed only by single crystal X-ray diffraction
##URL=https://www.rruff.net/odr/rruff_sample/R120004
##DIFFRACTION SAMPLE DESCRIPTION=Single crystal, powder profile is calculated
##CELL PARAMETERS=a: 12.024 b: 12.024 c: 12.024 alpha: 90 beta: 90 gamma: 90 volume: 1738.4 crystal system: cubic
##FILETYPE=Raman Processed
##RAMAN WAVELENGTH=780

83.17554, 722.3526
85.10400, 730.7430
87.03247, 776.4584
88.96094, 821.1689
90.88940, 863.8942
92.81787, 907.5316
94.74634, 929.8840
96.67480, 886.1592
98.60327, 849.5734
100.5317, 825.5410
102.4602, 806.0372
104.3887, 790.5240
106.3171, 776.5235
108.2456, 760.1359
110.1741, 745.4156
112.1025, 735.7299
114.0310, 730.4713
115.9595, 726.3654
117.8879, 721.3906
119.8164, 720.0134
121.7449, 724.6825
123.6733, 732.1923
125.6018, 739.5569
127.5303, 746.8114
129.4587, 756.7892
131.3872, 766.8381
133.3157, 786.5739
135.2441, 825.4078
137.1726, 870.0005
139.1011, 913.5120
141.0295, 954.8503
142.9580, 987.7733
144.8865, 1011.893
146.8149, 1029.395
148.7434, 1033.458
150.6719, 1038.214
152.6003, 1049.128
154.5288, 1068.280
156.4573, 1099.234
158.3857, 1140.286
160.3142, 1200.741
162.2427, 1280.796
164.1711, 1384.339
166.0996, 1527.197
168.0281, 1693.238
169.9565, 1862.907
171.8850, 2042.632
173.8135, 2137.320
175.7419, 2094.484
177.6704, 1993.803
179.5989, 1824.422
181.5273, 1626.397
183.4558, 1452.228
185.3843, 1300.619
187.3127, 1175.254
189.2412, 1077.233
191.1697, 1008.656
193.0981, 971.7871
195.0266, 962.0643
196.9551, 983.6301
198.8835, 1029.402
200.8120, 1082.788
202.7405, 1149.519
204.6689, 1206.859
206.5974, 1252.062
208.5259, 1287.379
210.4543, 1306.524
212.3828, 1319.154
214.3113, 1339.210
216.2397, 1364.584
218.1682, 1410.910
220.0967, 1471.426
222.0251, 1561.035
223.9536, 1682.820
225.8821, 1839.821
227.8105, 2039.709
229.7390, 2279.757
231.6675, 2510.190
233.5959, 2802.504
235.5244, 2972.639
237.4529, 2989.748
239.3813, 2895.827
241.3098, 2669.002
243.2383, 2362.843
245.1667, 2082.761
247.0952, 1821.651
249.0237, 1614.345
250.9521, 1461.652
252.8806, 1354.877
254.8091, 1299.645
256.7375, 1285.207
258.6660, 1310.309
260.5945, 1371.791
262.5229, 1430.115
264.4514, 1495.011
266.3799, 1531.715
268.3083, 1524.860
270.2368, 1505.385
272.1653, 1478.497
274.0938, 1455.466
276.0222, 1453.444
277.9507, 1474.138
279.8792, 1505.279
281.8076, 1548.579
283.7361, 1596.398
285.6646, 1645.005
287.5930, 1700.056
289.5215, 1764.019
291.4500, 1836.518
293.3784, 1916.990
295.3069, 2005.448
297.2354, 2099.179
299.1638, 2189.480
301.0923, 2307.142
303.0208, 2458.816
304.9492, 2648.034
306.8777, 2896.899
308.8062, 3186.171
310.7346, 3460.891
312.6631, 3724.505
314.5916, 3929.863
316.5200, 4046.332
318.4485, 4153.436
320.3770, 4272.277
322.3054, 4399.854
324.2339, 4526.196
326.1624, 4660.462
328.0908, 4810.386
330.0193, 4970.462
331.9477, 5249.820
333.8762, 5667.816
335.8047, 6217.694
337.7331, 6923.849
339.6616, 7724.181
341.5901, 8575.235
343.5185, 9482.379
345.4470, 10472.37
347.3755, 11551.06
349.3039, 12558.26
351.2324, 13548.03
353.1609, 14316.71
355.0893, 14716.10
357.0178, 14990.60
358.9463, 15196.29
360.8747, 15456.48
362.8032, 16044.06
364.7317, 16959.15
366.6601, 17789.27
368.5886, 18816.04
370.5171, 19131.74
372.4455, 18466.82
374.3740, 17224.69
376.3025, 15359.67
378.2309, 13207.21
380.1594, 11169.62
382.0879, 9256.272
384.0163, 7579.409
385.9448, 6157.909
387.8733, 4971.715
389.8017, 4052.282
391.7302, 3312.572
393.6587, 2760.607
395.5871, 2344.465
397.5156, 2021.419
399.4441, 1781.723
401.3725, 1589.918
403.3010, 1454.740
405.2295, 1344.867
407.1579, 1264.613
409.0864, 1199.805
411.0149, 1150.266
412.9433, 1112.599
414.8718, 1086.077
416.8003, 1068.696
418.7287, 1058.966
420.6572, 1057.305
422.5857, 1056.094
424.5141, 1056.014
426.4426, 1054.550
428.3711, 1049.319
430.2995, 1046.362
432.2280, 1047.638
434.1565, 1053.381
436.0849, 1063.028
438.0134, 1077.436
439.9419, 1098.973
441.8703, 1127.893
443.7988, 1165.909
445.7273, 1215.799
447.6557, 1266.419
449.5842, 1322.504
451.5127, 1366.415
453.4411, 1389.194
455.3696, 1396.746
457.2981, 1390.178
459.2265, 1372.982
461.1550, 1358.508
463.0835, 1346.463
465.0119, 1340.739
466.9404, 1340.779
468.8689, 1349.910
470.7973, 1362.556
472.7258, 1394.954
474.6543, 1444.040
476.5827, 1524.108
478.5112, 1648.206
480.4397, 1817.327
482.3681, 2040.052
484.2966, 2313.621
486.2251, 2600.479
488.1535, 2912.737
490.0820, 3179.331
492.0105, 3391.716
493.9389, 3535.620
495.8674, 3575.020
497.7959, 3569.799
499.7243, 3538.127
501.6528, 3516.272
503.5813, 3568.146
505.5097, 3696.304
507.4382, 3941.142
509.3667, 4321.232
511.2951, 4750.517
513.2236, 5351.292
515.1521, 5801.470
517.0806, 6068.833
519.0090, 6112.922
520.9375, 5840.645
522.8660, 5366.486
524.7944, 4803.004
526.7229, 4183.319
528.6514, 3601.493
530.5798, 3056.458
532.5083, 2597.257
534.4368, 2237.430
536.3652, 1955.681
538.2937, 1763.193
540.2222, 1629.008
542.1506, 1558.543
544.0791, 1524.752
546.0076, 1517.072
547.9360, 1524.572
549.8645, 1538.207
551.7930, 1555.373
553.7214, 1547.935
555.6499, 1511.943
557.5784, 1459.745
559.5068, 1382.326
561.4353, 1305.435
563.3638, 1225.879
565.2922, 1156.934
567.2207, 1104.764
569.1492, 1066.214
571.0776, 1041.142
573.0061, 1025.331
574.9345, 1013.792
576.8630, 1005.779
578.7914, 991.0988
580.7199, 968.1172
582.6484, 943.8719
584.5768, 917.7194
586.5053, 892.1546
588.4338, 866.8929
590.3622, 843.8021
592.2907, 823.1720
594.2192, 805.8080
596.1476, 792.5924
598.0761, 782.5425
600.0046, 775.5529
601.9330, 770.6332
603.8615, 764.1523
605.7900, 756.0610
607.7184, 746.1121
609.6469, 734.4370
611.5754, 719.9581
613.5038, 701.7302
615.4323, 682.8159
617.3608, 662.7602
619.2892, 644.4232
621.2177, 629.0549
623.1462, 615.7874
625.0746, 604.4117
627.0031, 594.4128
628.9316, 584.7321
630.8600, 575.6921
632.7885, 568.8910
634.7170, 564.1510
636.6454, 558.9115
638.5739, 552.6227
640.5024, 549.1321
642.4308, 550.5903
644.3593, 551.4384
646.2878, 550.0391
648.2162, 547.9705
650.1447, 545.0643
652.0732, 542.5069
654.0016, 541.6946
655.9301, 541.3764
657.8586, 539.2340
659.7870, 536.5082
661.7155, 536.5778
663.6440, 538.8317
665.5724, 539.4962
667.5009, 538.2166
669.4294, 537.0745
671.3578, 536.3929
673.2863, 535.6031
675.2148, 534.8198
677.1432, 533.6251
679.0717, 531.0963
681.0002, 529.2183
682.9286, 529.6531
684.8571, 530.3910
686.7856, 528.5097
688.7141, 526.9897
690.6425, 531.0509
692.5710, 537.5995
694.4995, 538.6373
696.4279, 534.6157
698.3564, 532.3007
700.2849, 531.9867
702.2133, 532.6349
704.1418, 535.4301
706.0703, 536.9911
707.9987, 536.2552
709.9272, 536.1993
711.8557, 537.4983
713.7841, 539.3844
715.7126, 542.2615
717.6411, 544.6615
719.5695, 545.1956
721.4980, 545.2650
723.4265, 546.0424
725.3549, 547.1531
727.2834, 547.8935
729.2119, 548.5087
731.1403, 549.9615
733.0688, 552.1940
734.9973, 553.6840
736.9257, 554.1138
738.8542, 556.1395
740.7827, 560.1076
742.7111, 563.7180
744.6396, 566.4415
746.5681, 569.7084
748.4965, 573.8309
750.4250, 578.5630
752.3535, 583.3558
754.2819, 589.5148
756.2104, 596.8822
758.1389, 606.7341
760.0673, 620.2299
761.9958, 636.3710
763.9243, 652.4628
765.8527, 671.6603
767.7812, 698.8911
769.7097, 733.4871
771.6381, 771.3638
773.5666, 814.6010
775.4951, 872.3182
777.4235, 944.8151
779.3520, 1035.526
781.2805, 1144.712
783.2089, 1274.496
785.1374, 1427.703
787.0659, 1589.315
788.9943, 1761.592
790.9228, 1929.701
792.8513, 2083.487
794.7797, 2243.680
796.7082, 2400.890
798.6367, 2585.927
800.5651, 2801.974
802.4936, 3062.201
804.4221, 3376.432
806.3505, 3736.137
808.2790, 4166.997
810.2075, 4610.761
812.1359, 5048.045
814.0644, 5416.749
815.9929, 5640.276
817.9213, 5716.937
819.8498, 5610.994
821.7783, 5354.933
823.7067, 5058.354
825.6352, 4730.999
827.5637, 4477.521
829.4921, 4299.209
831.4206, 4215.331
833.3491, 4228.024
835.2775, 4331.226
837.2060, 4572.339
839.1345, 4818.855
841.0629, 5095.679
842.9914, 5331.337
844.9199, 5530.146
846.8483, 5663.773
848.7768, 5711.417
850.7053, 5715.798
852.6337, 5651.288
854.5622, 5613.074
856.4907, 5609.428
858.4191, 5702.505
860.3476, 5912.839
862.2761, 6259.858
864.2045, 6789.545
866.1330, 7421.232
868.0615, 8180.310
869.9899, 8911.750
871.9184, 9539.506
873.8469, 9929.518
875.7753, 9846.352
877.7038, 9356.167
879.6323, 8523.287
881.5607, 7434.133
883.4892, 6348.991
885.4177, 5283.775
887.3461, 4325.589
889.2746, 3478.537
891.2031, 2790.946
893.1315, 2259.337
895.0600, 1847.123
896.9885, 1553.704
898.9169, 1331.742
900.8454, 1180.002
902.7739, 1059.398
904.7023, 967.1289
906.6308, 894.2650
908.5593, 841.4050
910.4877, 797.0908
912.4162, 760.3605
914.3447, 728.4533
916.2731, 701.1366
918.2016, 678.0123
920.1301, 659.2985
922.0585, 644.1711
923.9870, 634.3179
925.9155, 624.8511
927.8439, 614.3992
929.7724, 604.3847
931.7009, 594.8091
933.6293, 586.2731
935.5578, 579.4149
937.4863, 573.0807
939.4147, 566.4791
941.3432, 560.7155
943.2717, 555.7909
945.2001, 552.8112
947.1286, 553.5851
949.0571, 555.2225
950.9855, 555.0583
952.9140, 555.6255
954.8425, 558.7673
956.7709, 563.7592
958.6994, 569.4860
960.6279, 577.1949
962.5563, 587.9724
964.4848, 601.4272
966.4133, 618.6633
968.3417, 636.9073
970.2702, 654.9373
972.1987, 670.4793
974.1271, 679.0972
976.0556, 684.6913
977.9841, 691.3427
979.9125, 700.0232
981.8410, 710.4192
983.7695, 725.2526
985.6979, 751.5809
987.6264, 784.7958
989.5549, 819.7282
991.4833, 851.8286
993.4118, 875.1592
995.3403, 885.2085
997.2687, 868.4653
999.1972, 829.8782
1001.126, 777.6357
1003.054, 717.0079
1004.983, 661.6201
1006.911, 612.0723
1008.840, 570.5831
1010.768, 536.6851
1012.696, 509.8549
1014.625, 489.0067
1016.553, 470.9387
1018.482, 455.3128
1020.410, 441.2104
1022.339, 428.3407
1024.267, 415.4179
1026.196, 402.8357
1028.124, 392.0920
1030.053, 383.0579
1031.981, 375.1080
1033.910, 368.3174
1035.838, 363.0446
1037.767, 359.0971
1039.695, 356.1695
1041.624, 353.8627
1043.552, 350.5720
1045.480, 346.7579
1047.409, 343.9610
1049.337, 341.9850
1051.266, 339.7485
1053.194, 337.9886
1055.123, 339.4848
1057.051, 342.9845
1058.980, 344.9285
1060.908, 346.0361
1062.837, 347.9643
1064.765, 350.7375
1066.694, 354.9311
1068.622, 359.6700
1070.550, 362.6476
1072.479, 364.7828
1074.407, 367.6047
1076.336, 371.3974
1078.264, 377.5636
1080.193, 384.4950
1082.121, 389.2593
1084.050, 392.6097
1085.978, 395.4929
1087.907, 398.1978
1089.835, 401.6949
1091.764, 404.8679
1093.692, 405.4118
1095.620, 405.2167
1097.549, 407.3382
1099.477, 409.6998
1101.406, 410.2927
1103.334, 409.2152
1105.263, 405.5569
1107.191, 401.3904
1109.120, 399.0095
1111.048, 396.7372
1112.977, 393.6187
1114.905, 389.3700
1116.834, 383.5073
1118.762, 376.7746
1120.691, 368.4028
1122.619, 361.1677
1124.547, 358.0456
1126.476, 354.4808
1128.404, 346.9209
1130.333, 340.1672
1132.261, 337.0740
1134.190, 334.1464
1136.118, 329.6123
1138.047, 325.6577
1139.975, 322.8757
1141.904, 321.3919
1143.832, 321.7024
1145.761, 322.0477
1147.689, 321.9306
1149.618, 321.7732
1151.546, 321.3618
1153.474, 322.3145
1155.403, 325.2425
1157.331, 327.8509
1159.260, 329.7295
1161.188, 331.8619
1163.117, 334.4022
1165.045, 336.9130
1166.974, 339.3434
1168.902, 341.4593
1170.831, 343.2410
1172.759, 345.1631
1174.688, 347.1281
1176.616, 348.2494
1178.545, 348.6043
1180.473, 348.6823
1182.401, 348.5662
1184.330, 348.3837
1186.258, 348.1712
1188.187, 348.2558
1190.115, 348.1384
1192.044, 346.8039
1193.972, 344.6560
1195.901, 342.0783
1197.829, 339.1828
1199.758, 335.6974
1201.686, 332.4421
1203.615, 330.4304
1205.543, 328.6161
1207.472, 326.4935
1209.400, 323.9642
1211.328, 321.0719
1213.257, 317.6407
1215.185, 313.4423
1217.114, 308.9837
1219.042, 304.1789
1220.971, 299.6559
1222.899, 295.4188
1224.828, 291.8743
1226.756, 289.3405
1228.685, 286.6370
1230.613, 283.7935
1232.542, 279.9395
1234.470, 274.7116
1236.399, 271.2855
1238.327, 269.6468
1240.255, 267.2922
1242.184, 264.4193
1244.112, 262.4041
1246.041, 260.9958
1247.969, 259.3771
1249.898, 257.7372
1251.826, 256.3185
1253.755, 255.2484
1255.683, 254.8126
1257.612, 254.6629
1259.540, 254.4414
1261.469, 254.3555
1263.397, 254.6246
1265.326, 254.9257
1267.254, 254.8006
1269.182, 255.3158
1271.111, 257.2188
1273.039, 258.6371
1274.968, 259.0554
1276.896, 259.5121
1278.825, 260.1203
1280.753, 261.2263
1282.682, 262.8314
1284.610, 263.9646
1286.539, 264.4559
1288.467, 262.8618
1290.396, 260.2448
1292.324, 261.1570
1294.253, 263.7749
1296.181, 264.2560
1298.109, 263.6198
1300.038, 262.3617
1301.966, 261.8544
1303.895, 264.1685
1305.823, 266.6314
1307.752, 267.4775
1309.680, 267.9431
1311.609, 268.2766
1313.537, 268.8462
1315.466, 270.0611
1317.394, 270.8776
1319.323, 270.8736
1321.251, 271.3201
1323.180, 272.3656
1325.108, 272.8469
1327.036, 272.8195
1328.965, 274.0198
1330.893, 276.0041
1332.822, 277.0651
1334.750, 277.6085
1336.679, 278.1578
1338.607, 278.8932
1340.536, 280.2316
1342.464, 281.5060
1344.393, 282.4529
1346.321, 282.8126
1348.250, 281.9487
1350.178, 282.1378
1352.107, 284.3720
1354.035, 286.1530
1355.964, 287.0249
1357.892, 287.9810
1359.820, 289.0991
1361.749, 290.3380
1363.677, 291.6484
1365.606, 293.0574
1367.534, 294.1629
1369.463, 293.7821
1371.391, 292.8312
1373.320, 292.4785
1375.248, 292.1068
1377.177, 290.9093
1379.105, 290.0920
1381.034, 290.0953
1382.962, 290.6476
1384.891, 291.9368
1386.819, 292.6794
1388.747, 292.7328
1390.676, 291.4570
1392.604, 289.2003
1394.533, 288.6683
1396.461, 289.5809
1398.390, 291.3072
1400.318, 293.0125
1402.247, 293.5146
1404.175, 293.2101
1406.104, 292.3323
1408.032, 290.9379
1409.961, 288.2980
1411.889, 286.5354
1413.818, 286.3095
1415.746, 287.0800
1417.674, 289.3381
1419.603, 289.4761
1421.531, 287.4762
1423.460, 283.6698
1425.388, 279.3599
1427.317, 278.9746
1429.245, 279.9254
1431.174, 278.7101
1433.102, 277.4666
1435.031, 278.0540
1436.959, 278.4442
1438.888, 278.0148
1440.816, 276.5125
1442.745, 273.0168
1444.673, 271.9206
1446.601, 273.6290
1448.530, 273.4818
1450.458, 271.8993
1452.387, 270.6581
1454.315, 269.6962
1456.244, 268.9905
1458.172, 268.4120
1460.101, 268.0655
1462.029, 267.3749
1463.958, 265.8489
1465.886, 264.9171
1467.815, 264.9883
1469.743, 265.0960
1471.672, 265.1244
1473.600, 264.7545
1475.528, 264.1924
1477.457, 264.4594
1479.385, 264.8494
1481.314, 264.1440
1483.242, 263.1666
1485.171, 262.6803
1487.099, 261.8398
1489.028, 260.0644
1490.956, 258.9950
1492.885, 258.8998
1494.813, 259.5484
1496.742, 260.6537
1498.670, 260.1876
1500.599, 258.9916
1502.527, 259.4365
1504.455, 259.7016
1506.384, 257.0545
1508.312, 254.8038
1510.241, 254.5926
1512.169, 255.6454
1514.098, 258.8559
1516.026, 258.2661
1517.955, 253.8298
1519.883, 254.9809
1521.812, 259.3102
1523.740, 259.4318
1525.669, 257.4311
1527.597, 254.9345
1529.526, 252.6592
1531.454, 250.2685
1533.382, 249.8104
1535.311, 253.8353
1537.239, 253.9738
1539.168, 249.7691
1541.096, 247.8227
1543.025, 247.2611
1544.953, 244.6992
1546.882, 242.4749
1548.810, 243.9786
1550.739, 245.3034
1552.667, 244.6222
1554.596, 242.9909
1556.524, 240.2606
1558.453, 239.3808
1560.381, 240.2923
1562.309, 239.0816
1564.238, 236.7840
1566.166, 235.7854
1568.095, 235.1473
1570.023, 233.7567
1571.952, 232.9803
1573.880, 233.4429
1575.809, 233.7674
1577.737, 233.7354
1579.666, 234.1476
1581.594, 234.8261
1583.523, 234.9749
1585.451, 234.5805
1587.380, 233.0426
1589.308, 231.8630
1591.236, 231.8820
1593.165, 232.9258
1595.093, 235.2983
1597.022, 235.2837
1598.950, 233.0038
1600.879, 230.7120
1602.807, 229.2673
1604.736, 230.8067
1606.664, 232.7642
1608.593, 233.0802
1610.521, 233.2815
1612.450, 234.1695
1614.378, 233.3477
1616.307, 230.8909
1618.235, 231.5351
1620.163, 233.9285
1622.092, 235.6095
1624.020, 235.9261
1625.949, 232.8935
1627.877, 230.9937
1629.806, 232.4883
1631.734, 234.0776
1633.663, 235.6730
1635.591, 235.0294
1637.520, 233.3165
1639.448, 233.7642
1641.377, 234.7088
1643.305, 234.9285
1645.234, 235.1065
1647.162, 235.6710
1649.090, 235.1594
1651.019, 233.4845
1652.947, 234.3097
1654.876, 236.6541
1656.804, 238.8094
1658.733, 240.5496
1660.661, 242.1733
1662.590, 241.8779
1664.518, 238.7035
1666.447, 238.0824
1668.375, 240.1971
1670.304, 241.8903
1672.232, 243.1320
1674.161, 243.7623
1676.089, 243.9932
1678.017, 243.6719
1679.946, 243.7279
1681.874, 244.3114
1683.803, 245.7366
1685.731, 247.6680
1687.660, 249.2857
1689.588, 250.0024
1691.517, 248.2711
1693.445, 247.0896
1695.374, 247.7357
1697.302, 248.2352
1699.231, 248.4262
1701.159, 248.6448
1703.088, 249.0410
1705.016, 250.1591
1706.944, 251.0764
1708.873, 251.4401
1710.801, 250.5695
1712.730, 248.0099
1714.658, 247.5960
1716.587, 248.7258
1718.515, 248.4101
1720.444, 247.9976
1722.372, 249.7806
1724.301, 250.1115
1726.229, 246.5256
1728.158, 243.7862
1730.086, 242.0310
1732.015, 242.0085
1733.943, 242.4195
1735.871, 241.2067
1737.800, 239.8183
1739.728, 239.1445
1741.657, 237.5888
1743.585, 234.8341
1745.514, 233.9443
1747.442, 234.1546
1749.371, 233.8621
1751.299, 233.6090
1753.228, 233.9774
1755.156, 233.3524
1757.085, 231.3259
1759.013, 229.3178
1760.942, 227.7071
1762.870, 227.5387
1764.798, 228.1472
1766.727, 229.4728
1768.655, 230.1061
1770.584, 229.7467
1772.512, 228.9917
1774.441, 228.2875
1776.369, 229.4397
1778.298, 230.3720
1780.226, 228.6019
1782.155, 227.1205
1784.083, 226.4261
1786.012, 228.1323
1787.940, 230.9102
1789.869, 229.9274
1791.797, 228.1878
1793.725, 228.1062
1795.654, 229.0448
1797.582, 231.1356
1799.511, 230.3964
1801.439, 227.9453
1803.368, 227.6577
1805.296, 227.9306
1807.225, 227.2332
1809.153, 227.3283
1811.082, 228.8945
1813.010, 228.2293
1814.939, 226.4299
1816.867, 226.9071
1818.796, 227.7290
1820.724, 227.6604
1822.652, 227.5131
1824.581, 227.5229
1826.509, 225.8068
1828.438, 223.5809
1830.366, 223.6696
1832.295, 224.3768
1834.223, 225.0155
1836.152, 225.7291
1838.080, 226.4743
1840.009, 225.0351
1841.937, 223.1724
1843.866, 224.3651
1845.794, 224.7831
1847.723, 222.9252
1849.651, 221.6926
1851.579, 221.3736
1853.508, 222.4340
1855.436, 223.2575
1857.365, 221.3023
1859.293, 220.7777
1861.222, 222.6373
1863.150, 222.5501
1865.079, 221.2955
1867.007, 221.4883
1868.936, 221.9289
1870.864, 222.0557
1872.793, 221.4031
1874.721, 220.0386
1876.650, 219.2911
1878.578, 218.7686
1880.506, 217.3893
1882.435, 217.1936
1884.363, 219.3455
1886.292, 219.2535
1888.220, 217.5028
1890.149, 217.0970
1892.077, 216.6788
1894.006, 214.4985
1895.934, 213.6143
1897.863, 214.3886
1899.791, 216.0123
1901.720, 217.4961
1903.648, 217.1201
1905.577, 216.7997
1907.505, 217.5234
1909.433, 218.0055
1911.362, 218.1520
1913.290, 217.4297
1915.219, 216.4332
1917.147, 214.8941
1919.076, 216.0314
1921.004, 220.2366
1922.933, 220.1124
1924.861, 218.1142
1926.790, 216.7185
1928.718, 217.0896
1930.647, 219.8694
1932.575, 221.5667
1934.504, 222.1321
1936.432, 221.0579
1938.360, 220.5257
1940.289, 221.7369
1942.217, 222.6659
1944.146, 222.9697
1946.074, 221.5165
1948.003, 220.8557
1949.931, 224.9217
1951.860, 225.4384
1953.788, 221.5966
1955.717, 221.0955
1957.645, 222.2172
1959.574, 222.4987
1961.502, 222.8898
1963.431, 223.6915
1965.359, 222.8960
1967.287, 221.5192
1969.216, 221.8084
1971.144, 222.7986
1973.073, 224.3143
1975.001, 225.3167
1976.930, 225.5758
1978.858, 223.8711
1980.787, 222.5555
1982.715, 223.8091
1984.644, 224.6983
1986.572, 224.8680
1988.501, 222.3194
1990.429, 220.0167
1992.358, 221.5637
1994.286, 220.9957
1996.214, 217.5819
1998.143, 216.3330
2000.071, 215.9437
2002.000, 215.3897
2003.928, 213.8649
2005.857, 211.0326
2007.785, 209.4004
2009.714, 208.8375
2011.642, 209.7411
2013.571, 209.9076
2015.499, 208.6683
2017.428, 206.8776
2019.356, 205.5080
2021.285, 207.2251
2023.213, 207.7187
2025.141, 205.6885
2027.070, 205.3436
2028.998, 206.2557
2030.927, 208.0515
2032.855, 208.6421
2034.784, 207.3291
2036.712, 206.4958
2038.641, 205.8822
2040.569, 203.9845
2042.498, 203.3655
2044.426, 204.9520
2046.355, 206.2974
2048.283, 206.6564
2050.212, 203.5159
2052.140, 202.4231
2054.068, 206.0589
2055.997, 205.2181
2057.925, 202.0638
2059.854, 201.7754
2061.782, 202.1197
2063.711, 202.3368
2065.639, 202.2774
2067.568, 202.0334
2069.496, 201.5569
2071.425, 201.4771
2073.353, 202.1886
2075.281, 202.7196
2077.210, 202.8165
2079.138, 201.8081
2081.067, 201.0023
2082.995, 200.9365
2084.924, 200.4408
2086.852, 200.1960
2088.781, 201.4956
2090.709, 202.3958
2092.638, 202.2825
2094.566, 203.2044
2096.495, 203.8765
2098.423, 202.4810
2100.352, 201.1101
2102.280, 200.3171
2104.208, 201.6253
2106.137, 203.1565
2108.065, 203.0858
2109.994, 202.6555
2111.922, 202.2116
2113.851, 203.2011
2115.779, 203.3781
2117.708, 200.6303
2119.636, 199.6675
2121.565, 200.3910
2123.493, 200.4207
2125.422, 200.4376
2127.350, 200.8150
2129.279, 200.9716
2131.207, 201.0391
2133.135, 201.2390
2135.064, 202.0092
2136.992, 203.5794
2138.921, 203.4182
2140.849, 202.6020
2142.778, 203.1219
2144.706, 202.6408
2146.635, 200.8284
2148.563, 199.6524
2150.492, 199.4935
2152.420, 201.5608
2154.349, 202.0257
2156.277, 201.0484
2158.206, 201.4855
2160.134, 202.5768
2162.063, 204.3630
2163.991, 204.4289
2165.919, 203.0821
2167.848, 200.4765
2169.776, 198.9417
2171.705, 199.3628
2173.633, 200.4759
2175.562, 201.7955
2177.490, 202.8831
2179.419, 203.5392
2181.347, 203.7448
2183.276, 203.5256
2185.204, 203.5954
2187.133, 204.5873
2189.061, 203.1723
2190.990, 200.8204
2192.918, 202.3813
2194.846, 203.4644
2196.775, 202.8490
2198.703, 203.1780
2200.632, 203.3405
2202.560, 201.1376
2204.489, 200.4560
2206.417, 201.1888
2208.346, 199.9450
2210.274, 200.1309
2212.203, 204.3286
2214.131, 206.1266
2216.060, 205.4239
2217.988, 201.4139
2219.917, 199.1976
2221.845, 199.6740
2223.773, 201.9546
2225.702, 204.3475
2227.630, 206.2329
2229.559, 204.7289
2231.487, 201.3707
2233.416, 200.4207
2235.344, 200.9770
2237.273, 203.0226
2239.201, 203.6028
2241.130, 203.2910
2243.058, 202.3150
2244.987, 202.4894
2246.915, 203.5370
2248.844, 204.2746
2250.772, 203.5426
2252.700, 200.7504
2254.629, 201.9114
2256.557, 203.9453
2258.486, 203.1054
2260.414, 202.5478
2262.343, 202.7478
2264.271, 203.8907
2266.200, 204.5229
2268.128, 204.1005
2270.057, 203.9885
2271.985, 204.0737
2273.914, 204.4623
2275.842, 203.5880
2277.771, 201.9917
2279.699, 202.3430
2281.627, 202.9376
2283.556, 203.1473
2285.484, 202.6966
2287.413, 202.6166
2289.341, 204.7024
2291.270, 205.1996
2293.198, 204.5697
2295.127, 205.5609
2297.055, 205.0789
2298.984, 202.1993
2300.912, 201.5280
2302.841, 201.7956
2304.769, 201.9014
2306.698, 202.7199
2308.626, 203.9364
2310.554, 205.2113
2312.483, 205.1779
2314.411, 203.7524
2316.340, 203.7731
2318.268, 203.7104
2320.197, 202.3161
2322.125, 205.8964
2324.054, 210.1086
2325.982, 208.9365
2327.911, 206.7837
2329.839, 204.8324
2331.768, 205.0633
2333.696, 204.9683
2335.625, 203.7995
2337.553, 203.8032
2339.481, 203.9318
2341.410, 203.2967
2343.338, 203.4629
2345.267, 204.0225
2347.195, 203.7303
2349.124, 204.4989
2351.052, 206.0609
2352.981, 205.7630
2354.909, 204.9268
2356.838, 204.0981
2358.766, 205.6156
2360.695, 206.8249
2362.623, 204.7637
2364.552, 203.0254
2366.480, 202.0794
2368.408, 202.6827
2370.337, 202.6473
2372.265, 202.2838
2374.194, 205.9666
2376.122, 207.8481
2378.051, 205.2505
2379.979, 205.8210
2381.908, 206.7930
2383.836, 205.9846
2385.765, 204.9154
2387.693, 204.1465
2389.622, 204.5112
2391.550, 204.0867
2393.479, 203.3719
2395.407, 206.1689
2397.335, 206.3411
2399.264, 202.8519
2401.192, 206.0022
2403.121, 208.3066
2405.049, 206.1318
2406.978, 206.3365
2408.906, 207.3260
2410.835, 207.4047
2412.763, 207.6081
2414.692, 207.5420
2416.620, 205.4760
2418.549, 205.6998
2420.477, 207.6233
2422.406, 207.0480
2424.334, 206.8645
2426.262, 207.5280
2428.191, 206.9995
2430.119, 205.7207
2432.048, 203.9180
2433.976, 203.4619
2435.905, 204.0084
2437.833, 205.9375
2439.762, 205.7605
2441.690, 204.6030
2443.619, 204.0511
2445.547, 203.1898
2447.476, 202.5392
2449.404, 204.1179
2451.333, 203.3045
2453.261, 200.8283
2455.189, 204.6996
2457.118, 206.2712
2459.046, 203.3539
2460.975, 203.5263
2462.903, 204.8447
2464.832, 206.4879
2466.760, 204.4256
2468.689, 202.1210
2470.617, 201.8855
2472.546, 201.9689
2474.474, 201.9597
2476.403, 201.4991
2478.331, 202.0614
2480.260, 202.8038
2482.188, 202.2930
2484.116, 200.8519
2486.045, 199.6193
2487.973, 202.0558
2489.902, 202.4142
2491.830, 200.6508
2493.759, 199.5545
2495.687, 199.7809
2497.616, 201.1009
2499.544, 201.8669
2501.473, 202.8255
2503.401, 204.1272
2505.330, 205.5937
2507.258, 205.4035
2509.187, 202.7105
2511.115, 202.5996
2513.043, 202.7102
2514.972, 201.3640
2516.900, 201.2247
2518.829, 201.0405
2520.757, 199.2982
2522.686, 200.2221
2524.614, 201.6395
2526.543, 201.0903
2528.471, 202.8042
2530.400, 204.5903
2532.328, 203.6237
2534.257, 202.7306
2536.185, 202.0486
2538.114, 201.4267
2540.042, 199.8927
2541.970, 198.1724
2543.899, 197.3862
2545.827, 198.8925
2547.756, 201.5106
2549.684, 202.3630
2551.613, 202.6779
2553.541, 202.5593
2555.470, 201.7277
2557.398, 200.4197
2559.327, 199.3039
2561.255, 200.6076
2563.184, 200.6636
2565.112, 199.5926
2567.041, 200.2552
2568.969, 200.7208
2570.897, 201.0508
2572.826, 204.0667
2574.754, 204.0621
2576.683, 201.0035
2578.611, 199.5671
2580.540, 198.1934
2582.468, 196.7887
2584.397, 197.5874
2586.325, 197.9293
2588.254, 197.3596
2590.182, 197.7489
2592.111, 197.2812
2594.039, 195.8903
2595.968, 196.2918
2597.896, 197.4646
2599.824, 198.8597
2601.753, 199.0334
2603.681, 197.6136
2605.610, 195.2341
2607.538, 196.5845
2609.467, 196.6795
2611.395, 194.7697
2613.324, 193.7267
2615.252, 193.7097
2617.181, 194.3211
2619.109, 193.6003
2621.038, 193.3285
2622.966, 193.9280
2624.895, 195.5121
2626.823, 196.4170
2628.751, 196.5690
2630.680, 197.1408
2632.608, 196.7453
2634.537, 195.3741
2636.465, 193.2071
2638.394, 192.4369
2640.322, 192.9914
2642.251, 194.4338
2644.179, 194.0636
2646.108, 192.5899
2648.036, 191.8019
2649.965, 192.5663
2651.893, 193.4740
2653.822, 192.1010
2655.750, 190.4285
2657.678, 189.5857
2659.607, 190.7425
2661.535, 192.4093
2663.464, 193.0421
2665.392, 191.1275
2667.321, 190.9393
2669.249, 190.9931
2671.178, 189.7879
2673.106, 189.0966
2675.035, 188.9793
2676.963, 189.3328
2678.892, 189.3622
2680.820, 189.7676
2682.749, 190.7164
2684.677, 190.1086
2686.605, 188.7126
2688.534, 187.1259
2690.462, 186.4142
2692.391, 186.6017
2694.319, 187.2302
2696.248, 186.4416
2698.176, 185.8069
2700.105, 185.7445
2702.033, 186.4176
2703.962, 187.4471
2705.890, 187.5759
2707.819, 183.6405
2709.747, 183.1723
2711.676, 184.3520
2713.604, 183.2387
2715.532, 184.4255
2717.461, 185.6731
2719.389, 184.4901
2721.318, 182.8951
2723.246, 181.6668
2725.175, 181.2760
2727.103, 180.1715
2729.032, 180.4505
2730.960, 182.6102
2732.889, 181.3870
2734.817, 180.1531
2736.746, 179.7291
2738.674, 178.9898
2740.603, 178.7372
2742.531, 179.1333
2744.459, 180.9489
2746.388, 178.6717
2748.316, 176.4558
2750.245, 180.8681
2752.173, 183.4828
2754.102, 182.1266
2756.030, 175.6641
2757.959, 173.8405
2759.887, 174.2919
2761.816, 175.5348
2763.744, 176.7254
2765.673, 177.0982
2767.601, 176.5834
2769.530, 174.8243
2771.458, 175.5614
2773.386, 177.3996
2775.315, 176.9378
2777.243, 176.1347
2779.172, 174.6740
2781.100, 171.7110
2783.029, 172.0597
2784.957, 173.3050
2786.886, 173.7886
2788.814, 170.3426
2790.743, 168.9403
2792.671, 170.7027
2794.600, 171.9151
2796.528, 172.9842
2798.457, 173.8931
2800.385, 174.5793
2802.313, 173.9167
2804.242, 173.0901
2806.170, 173.0899
2808.099, 170.5620
2810.027, 169.4403
2811.956, 170.7675
2813.884, 169.7832
2815.813, 169.3889
2817.741, 169.6969
2819.670, 169.0528
2821.598, 167.3756
2823.527, 165.5186
2825.455, 164.1335
2827.384, 166.5079
2829.312, 167.7577
2831.240, 165.0758
2833.169, 165.9700
2835.097, 166.9528
2837.026, 166.8944
2838.954, 165.7992
2840.883, 162.3611
2842.811, 159.1786
2844.740, 159.4172
2846.668, 161.9793
2848.597, 163.5004
2850.525, 162.1577
2852.454, 162.7192
2854.382, 161.3055
2856.311, 158.3615
2858.239, 158.7790
2860.167, 158.2547
2862.096, 157.3951
2864.024, 157.4037
2865.953, 156.0551
2867.881, 154.9206
2869.810, 155.5899
2871.738, 165.7185
2873.667, 164.4366
2875.595, 154.9045
2877.524, 152.5064
2879.452, 154.0779
2881.381, 154.9484
2883.309, 151.6803
2885.238, 151.4025
2887.166, 152.1159
2889.094, 152.5252
2891.023, 150.4829
2892.951, 150.2659
2894.880, 150.4357
2896.808, 148.3576
2898.737, 148.4581
2900.665, 148.9936
2902.594, 148.7952
2904.522, 145.4724
2906.451, 145.0895
2908.379, 146.4258
2910.308, 145.9752
2912.236, 147.8522
2914.165, 147.8975
2916.093, 144.3449
2918.021, 144.2979
2919.950, 143.6515
2921.878, 142.5822
2923.807, 143.6561
2925.735, 143.4832
2927.664, 142.5883
2929.592, 141.6944
2931.521, 142.8953
2933.449, 142.4773
2935.378, 140.2847
2937.306, 137.2721
2939.235, 138.1820
2941.163, 139.9213
2943.092, 140.1935
2945.020, 140.8179
2946.948, 139.5410
2948.877, 137.2971
2950.805, 136.7038
2952.734, 137.6263
2954.662, 137.6967
2956.591, 135.6787
2958.519, 139.4222
2960.448, 139.2578
2962.376, 135.7354
2964.305, 133.2511
2966.233, 131.9190
2968.162, 131.6184
2970.090, 132.0391
2972.019, 131.7654
2973.947, 130.0234
2975.875, 128.7895
2977.804, 130.6665
2979.732, 131.3128
2981.661, 130.3994
2983.589, 128.5332
2985.518, 127.1987
2987.446, 128.3909
2989.375, 129.6353
2991.303, 128.5223
2993.232, 128.0858
2995.160, 126.5495
2997.089, 124.7162
2999.017, 125.5444
3000.946, 127.1836
3002.874, 126.8037
3004.802, 123.3130
3006.731, 123.1382
3008.659, 123.5161
3010.588, 123.0587
3012.516, 120.5609
3014.445, 121.7706
3016.373, 122.9423
3018.302, 122.6086
3020.230, 121.1884
3022.159, 120.9208
3024.087, 119.6371
3026.016, 116.4071
3027.944, 118.0627
3029.873, 119.7162
3031.801, 120.2071
3033.729, 119.5727
3035.658, 118.3449
3037.586, 118.1109
3039.515, 118.7911
3041.443, 118.9761
3043.372, 116.4513
3045.300, 114.6705
3047.229, 115.2420
3049.157, 113.7803
3051.086, 113.3768
3053.014, 112.8991
3054.943, 110.0643
3056.871, 112.4325
3058.800, 112.1758
3060.728, 109.3892
3062.656, 108.5414
3064.585, 109.0789
3066.513, 110.5825
3068.442, 111.9547
3070.370, 109.5985
3072.299, 108.6517
3074.227, 108.5550
3076.156, 108.4541
3078.084, 110.1898
3080.013, 107.9316
3081.941, 104.7592
3083.870, 104.7494
3085.798, 104.3889
3087.727, 106.1301
3089.655, 107.4665
3091.583, 103.2154
3093.512, 102.9710
3095.440, 103.5334
3097.369, 103.2307
3099.297, 101.3331
3101.226, 101.9508
3103.154, 102.4842
3105.083, 101.8235
3107.011, 101.2951
3108.940, 100.2597
3110.868, 100.4283
3112.797, 102.2139
3114.725, 98.43436
3116.654, 97.22878
3118.582, 98.09145
3120.510, 99.22183
3122.439, 96.60012
3124.367, 96.71051
3126.296, 96.83467
3128.224, 93.26982
3130.153, 92.98257
3132.081, 94.12319
3134.010, 94.63769
3135.938, 92.90584
3137.867, 92.21037
3139.795, 92.04698
3141.724, 91.90953
3143.652, 91.42219
3145.581, 93.42947
3147.509, 92.87822
3149.438, 90.56911
3151.366, 90.88631
3153.294, 92.49971
3155.223, 91.17964
3157.151, 88.51759
3159.080, 90.57193
3161.008, 91.32894
3162.937, 90.58007
3164.865, 89.07581
3166.794, 88.35472
3168.722, 86.20836
3170.651, 86.84367
3172.579, 88.68305
3174.508, 84.67159
3176.436, 86.35606
3178.365, 87.47534
3180.293, 86.02299
3182.221, 83.91981
3184.150, 85.44697
3186.078, 85.52674
3188.007, 84.22441
3189.935, 85.80468
3191.864, 83.23073
3193.792, 81.50023
3195.721, 81.17860
3197.649, 79.63518
3199.578, 80.07457
3201.506, 80.64489
3203.435, 81.12282
3205.363, 82.37752
3207.292, 80.18458
3209.220, 78.51288
3211.148, 77.86873
3213.077, 77.34383
3215.005, 75.68456
3216.934, 75.57311
3218.862, 76.00091
3220.791, 75.12636
3222.719, 78.42819
3224.648, 76.21393
3226.576, 77.84938
3228.505, 90.45592
3230.433, 78.82277
3232.362, 74.38735
3234.290, 73.62848
3236.219, 71.18839
3238.147, 71.94360
3240.075, 72.36282
3242.004, 71.65468
3243.932, 70.09495
3245.861, 68.82375
3247.789, 68.95118
3249.718, 69.19239
3251.646, 68.96805
3253.575, 68.11565
3255.503, 69.54198
3257.432, 69.93549
3259.360, 68.61880
3261.289, 66.19029
3263.217, 65.71465
3265.146, 65.89627
3267.074, 65.86180
3269.002, 65.18518
3270.931, 64.73915
3272.859, 64.82851
3274.788, 64.75797
3276.716, 64.21923
3278.645, 63.77971
3280.573, 64.19325
3282.502, 64.54831
3284.430, 63.77520
3286.359, 60.94587
3288.287, 60.98231
3290.216, 63.68290
3292.144, 64.93465
3294.073, 61.68293
3296.001, 63.13256
3297.929, 62.83779
3299.858, 61.86552
3301.786, 61.77995
3303.715, 62.66697
3305.643, 61.38848
3307.572, 60.49653
3309.500, 60.45046
3311.429, 59.68497
3313.357, 62.58665
3315.286, 61.59752
3317.214, 58.36451
3319.143, 56.35252
3321.071, 56.23667
3323.000, 59.03807
3324.928, 60.97447
3326.856, 59.92985
3328.785, 56.23663
3330.713, 56.53510
3332.642, 56.25622
3334.570, 55.44431
3336.499, 55.80725
3338.427, 55.30326
3340.356, 56.10940
3342.284, 55.63132
3344.213, 53.94421
3346.141, 55.93877
3348.070, 55.81524
3349.998, 54.72227
3351.927, 53.59701
3353.855, 52.99977
3355.783, 53.97896
3357.712, 56.18400
3359.640, 55.92496
3361.569, 53.49534
3363.497, 55.15207
3365.426, 55.59288
3367.354, 54.97216
3369.283, 54.43757
3371.211, 54.62372
3373.140, 52.36306
3375.068, 52.65113
3376.997, 51.78790
3378.925, 49.92051
3380.854, 50.96500
3382.782, 50.46029
3384.710, 51.64727
3386.639, 51.63561
3388.567, 49.35715
3390.496, 50.55936
3392.424, 51.67631
3394.353, 49.94727
3396.281, 48.51364
3398.210, 50.90833
3400.138, 50.24992
3402.067, 49.14222
3403.995, 48.65133
3405.924, 49.01025
3407.852, 50.13965
3409.781, 51.28363
3411.709, 52.22375
3413.637, 50.59282
3415.566, 47.09540
3417.494, 48.44651
3419.423, 49.43617
3421.351, 49.93269
3423.280, 49.51557
3425.208, 48.44592
3427.137, 50.03706
3429.065, 47.72116
3430.994, 45.71055
3432.922, 45.60748
3434.851, 46.52935
3436.779, 45.28912
3438.708, 46.44141
3440.636, 47.12586
3442.564, 46.91620
3444.493, 47.11273
3446.421, 45.59422
3448.350, 44.46566
3450.278, 45.89754
3452.207, 48.15157
3454.135, 46.99851
3456.064, 45.31903
##END=



