##NAMES=Andradite
##RRUFFID=R060358
##IDEAL CHEMISTRY=Ca_3_Fe^3+^_2_(SiO_4_)_3_
##LOCALITY=Soghan, near Jiroft, Kerman, Iran
##OWNER=RRUFF
##SOURCE=Herb Obodda
##DESCRIPTION=Green dodecahedron
##STATUS=The identification of this mineral has been confirmed by X-ray diffraction and chemical analysis
##URL=https://www.rruff.net/odr/rruff_sample/R060358
##MEASURED CHEMISTRY=Ca_3.00_(Fe^3+^_1.89_Cr_0.11_)(Si_1.00_O_4_)_3_
##DIFFRACTION SAMPLE DESCRIPTION=Powder
##CELL PARAMETERS=a: 12.0587 b: 12.0587 c: 12.0587 alpha: 90 beta: 90 gamma: 90 volume: 1753.49 crystal system: cubic
##FILETYPE=Raman RAW
##RAMAN WAVELENGTH=780

82.06834, 195.2975
83.99681, 205.9278
85.92528, 214.5746
87.85374, 225.1963
89.78221, 235.9183
91.71068, 242.1506
93.63914, 240.0561
95.56761, 218.7263
97.49608, 194.0053
99.42455, 173.2182
101.3530, 159.2143
103.2815, 149.0398
105.2099, 137.7417
107.1384, 125.2028
109.0669, 113.1430
110.9953, 99.87543
112.9238, 88.83925
114.8523, 81.36523
116.7807, 76.55628
118.7092, 72.77628
120.6377, 69.88771
122.5661, 68.10853
124.4946, 67.04749
126.4231, 67.52538
128.3515, 70.47390
130.2800, 74.91268
132.2085, 79.48783
134.1369, 84.23551
136.0654, 88.37160
137.9939, 92.84383
139.9223, 95.32623
141.8508, 93.58037
143.7793, 90.34842
145.7077, 88.64893
147.6362, 88.45251
149.5647, 89.38352
151.4931, 91.21114
153.4216, 94.47027
155.3501, 99.63960
157.2785, 106.1016
159.2070, 112.2862
161.1355, 118.5447
163.0639, 129.4045
164.9924, 140.3313
166.9209, 163.2440
168.8493, 213.5512
170.7778, 263.1111
172.7063, 300.9579
174.6348, 324.2456
176.5632, 316.4317
178.4917, 251.7083
180.4202, 196.8881
182.3486, 151.3798
184.2771, 116.8835
186.2056, 96.32456
188.1340, 86.24422
190.0625, 82.21493
191.9910, 85.99673
193.9194, 90.56420
195.8479, 96.69353
197.7764, 102.2315
199.7048, 106.6160
201.6333, 109.6981
203.5618, 110.9447
205.4902, 110.3225
207.4187, 109.2797
209.3471, 106.8887
211.2756, 106.8066
213.2041, 109.8739
215.1325, 115.9550
217.0610, 125.5067
218.9895, 137.8790
220.9179, 150.4292
222.8464, 162.5220
224.7749, 178.9662
226.7033, 196.7242
228.6318, 226.2528
230.5603, 280.4320
232.4887, 341.1567
234.4172, 396.7850
236.3457, 443.1063
238.2741, 440.5418
240.2026, 375.9484
242.1311, 305.9513
244.0595, 235.6624
245.9880, 177.7826
247.9165, 141.9963
249.8449, 123.9066
251.7734, 113.4764
253.7019, 110.3844
255.6303, 111.5948
257.5588, 116.8454
259.4873, 126.4421
261.4157, 145.4310
263.3442, 164.5394
265.2727, 175.7506
267.2011, 179.5057
269.1296, 175.8195
271.0581, 162.3123
272.9865, 152.4262
274.9150, 149.9835
276.8435, 149.7894
278.7719, 150.1588
280.7004, 151.6512
282.6289, 154.7253
284.5573, 159.3792
286.4858, 165.9742
288.4143, 174.0568
290.3427, 185.4476
292.2712, 202.4420
294.1997, 220.2008
296.1281, 235.7977
298.0566, 250.8194
299.9851, 264.2527
301.9135, 275.5480
303.8420, 302.7797
305.7705, 348.7349
307.6989, 408.8643
309.6274, 504.4830
311.5559, 591.8627
313.4843, 646.8514
315.4128, 674.7296
317.3413, 675.2133
319.2697, 640.3253
321.1982, 622.8749
323.1267, 623.3163
325.0551, 638.1861
326.9836, 668.8231
328.9121, 712.1417
330.8405, 768.5415
332.7690, 834.4846
334.6975, 905.7825
336.6259, 983.5451
338.5544, 1055.096
340.4829, 1105.319
342.4113, 1186.319
344.3398, 1300.138
346.2683, 1464.013
348.1967, 1732.328
350.1252, 2028.220
352.0537, 2238.740
353.9821, 2360.705
355.9106, 2358.252
357.8391, 2188.551
359.7675, 2067.637
361.6960, 2012.270
363.6245, 2075.989
365.5529, 2359.469
367.4814, 2710.699
369.4099, 3000.666
371.3383, 3202.256
373.2668, 3101.682
375.1953, 2667.148
377.1237, 2208.073
379.0522, 1738.599
380.9807, 1341.325
382.9091, 1053.839
384.8376, 835.1008
386.7661, 658.9422
388.6945, 522.0875
390.6230, 412.1130
392.5515, 328.2848
394.4799, 264.3965
396.4084, 223.9080
398.3369, 193.8175
400.2654, 173.3707
402.1938, 157.8935
404.1223, 145.8021
406.0508, 136.5230
407.9792, 129.4430
409.9077, 124.2932
411.8362, 120.4818
413.7646, 118.2584
415.6931, 116.2434
417.6216, 114.4173
419.5500, 112.4656
421.4785, 110.1647
423.4070, 107.8232
425.3354, 105.3806
427.2639, 103.2494
429.1924, 102.0467
431.1208, 101.7699
433.0493, 102.9985
434.9778, 106.6348
436.9062, 110.3631
438.8347, 112.9945
440.7632, 116.9299
442.6916, 122.5646
444.6201, 130.6253
446.5486, 142.6197
448.4770, 157.3854
450.4055, 172.0061
452.3340, 188.4096
454.2624, 196.4889
456.1909, 193.5854
458.1194, 187.3932
460.0478, 175.8213
461.9763, 165.1092
463.9048, 157.0219
465.8332, 152.8556
467.7617, 153.1528
469.6902, 158.4155
471.6186, 171.0857
473.5471, 192.0476
475.4756, 218.1366
477.4040, 251.4393
479.3325, 284.0295
481.2610, 313.9016
483.1894, 343.1452
485.1179, 371.4698
487.0464, 400.9096
488.9748, 436.0267
490.9033, 473.6931
492.8318, 505.5667
494.7602, 531.8314
496.6887, 540.2631
498.6172, 526.1208
500.5456, 513.8263
502.4741, 501.3542
504.4026, 506.1833
506.3310, 527.9010
508.2595, 576.8737
510.1880, 674.7753
512.1164, 799.1266
514.0449, 930.2962
515.9733, 1055.842
517.9018, 1081.732
519.8303, 1002.600
521.7587, 881.5228
523.6872, 704.7761
525.6157, 547.1169
527.5441, 427.2055
529.4726, 336.1038
531.4011, 277.1449
533.3295, 239.1240
535.2580, 214.3427
537.1865, 200.2636
539.1149, 190.3245
541.0434, 184.4040
542.9719, 181.8322
544.9003, 182.8663
546.8288, 185.6968
548.7573, 192.0019
550.6857, 197.2173
552.6142, 203.0304
554.5427, 204.2966
556.4711, 196.4866
558.3996, 183.6874
560.3281, 168.6222
562.2565, 152.9539
564.1850, 139.8744
566.1135, 129.4913
568.0419, 122.0856
569.9704, 117.6375
571.8989, 116.5551
573.8273, 122.1727
575.7558, 125.5779
577.6843, 125.0928
579.6127, 121.8237
581.5412, 114.8792
583.4697, 106.5984
585.3981, 98.41011
587.3266, 90.87940
589.2551, 85.18143
591.1835, 81.31821
593.1120, 78.90114
595.0405, 78.72505
596.9689, 77.35035
598.8974, 73.97374
600.8259, 71.49297
602.7543, 70.76997
604.6828, 70.21009
606.6113, 69.35252
608.5397, 68.17912
610.4682, 66.39396
612.3967, 64.54502
614.3251, 63.34032
616.2536, 62.04507
618.1821, 61.06410
620.1105, 60.38727
622.0390, 59.73965
623.9675, 59.70814
625.8959, 59.57581
627.8244, 59.21187
629.7529, 59.05735
631.6813, 59.53977
633.6098, 59.66375
635.5383, 58.54293
637.4667, 57.47146
639.3952, 57.32970
641.3237, 57.63721
643.2521, 57.87332
645.1806, 57.97421
647.1091, 57.94521
649.0375, 57.85504
650.9660, 57.75066
652.8945, 57.61936
654.8229, 57.47937
656.7514, 57.34918
658.6799, 57.18156
660.6083, 57.05047
662.5368, 56.70362
664.4653, 55.69874
666.3937, 55.00469
668.3222, 55.15019
670.2507, 55.73907
672.1791, 56.76826
674.1076, 57.72659
676.0361, 57.77807
677.9645, 57.26900
679.8930, 56.78114
681.8215, 56.32038
683.7499, 56.20214
685.6784, 56.53767
687.6069, 56.59102
689.5353, 56.05949
691.4638, 55.76048
693.3923, 55.81370
695.3207, 55.98249
697.2492, 56.32677
699.1777, 56.66615
701.1061, 57.08387
703.0346, 57.30741
704.9631, 56.63866
706.8915, 55.99211
708.8200, 56.81270
710.7485, 58.24480
712.6769, 58.39269
714.6054, 57.49165
716.5339, 57.06956
718.4623, 57.16590
720.3908, 57.11763
722.3193, 56.73960
724.2477, 56.82314
726.1762, 57.53931
728.1047, 58.23947
730.0331, 58.90672
731.9616, 59.48765
733.8901, 60.16642
735.8185, 60.33212
737.7470, 58.92234
739.6755, 57.92758
741.6039, 58.99224
743.5324, 60.66338
745.4609, 61.56730
747.3893, 62.08480
749.3178, 62.70137
751.2463, 63.64476
753.1747, 65.70012
755.1032, 66.62044
757.0317, 69.90023
758.9601, 69.78008
760.8886, 70.77171
762.8171, 72.92194
764.7455, 75.79581
766.6740, 79.20506
768.6025, 84.23908
770.5309, 91.02515
772.4594, 99.60637
774.3879, 109.2758
776.3163, 122.1442
778.2448, 140.4289
780.1733, 159.9010
782.1017, 179.6657
784.0302, 198.2115
785.9587, 214.6927
787.8871, 228.7416
789.8156, 237.6644
791.7441, 245.7620
793.6725, 259.2213
795.6010, 278.2661
797.5295, 302.6418
799.4579, 332.7130
801.3864, 370.2278
803.3149, 415.1254
805.2433, 465.8260
807.1718, 522.1238
809.1003, 584.6263
811.0287, 656.2889
812.9572, 723.2268
814.8857, 795.6140
816.8141, 836.6634
818.7426, 837.9915
820.6711, 816.5793
822.5995, 759.2067
824.5280, 704.3492
826.4565, 656.5145
828.3849, 625.2584
830.3134, 611.9056
832.2419, 620.6359
834.1703, 658.0038
836.0988, 713.6385
838.0273, 793.2712
839.9557, 873.4783
841.8842, 940.5665
843.8127, 985.0692
845.7411, 990.5142
847.6696, 965.3787
849.5981, 916.9699
851.5266, 856.6265
853.4550, 818.6927
855.3835, 802.9059
857.3120, 808.5942
859.2404, 835.9186
861.1689, 878.5989
863.0974, 935.9364
865.0258, 1012.950
866.9543, 1109.315
868.8828, 1231.402
870.8112, 1391.187
872.7397, 1525.380
874.6682, 1644.428
876.5966, 1656.245
878.5251, 1530.939
880.4536, 1345.112
882.3820, 1090.247
884.3105, 855.4727
886.2390, 662.8653
888.1674, 507.0014
890.0959, 391.8290
892.0244, 303.8686
893.9528, 244.8878
895.8813, 200.6690
897.8098, 169.3678
899.7382, 145.7343
901.6667, 128.8722
903.5952, 116.1760
905.5236, 106.9374
907.4521, 99.60735
909.3806, 93.43125
911.3090, 88.02512
913.2375, 82.85087
915.1660, 78.33777
917.0944, 75.36949
919.0229, 73.21760
920.9514, 70.83327
922.8798, 68.40824
924.8083, 66.25635
926.7368, 64.26285
928.6652, 62.48899
930.5937, 60.93447
932.5222, 59.26517
934.4506, 57.63055
936.3791, 56.41750
938.3076, 55.63487
940.2360, 55.51944
942.1645, 55.82267
944.0930, 55.31247
946.0214, 55.32534
947.9499, 54.15156
949.8784, 55.02605
951.8068, 55.48296
953.7353, 55.54031
955.6638, 56.71500
957.5922, 59.13303
959.5207, 61.03968
961.4492, 62.24172
963.3776, 64.07217
965.3061, 66.96504
967.2346, 68.72452
969.1630, 68.99103
971.0915, 69.27635
973.0200, 69.42867
974.9484, 70.25437
976.8769, 71.69826
978.8054, 73.90469
980.7338, 77.17652
982.6623, 80.20296
984.5908, 82.61297
986.5192, 85.73919
988.4477, 89.59005
990.3762, 94.81770
992.3046, 102.4998
994.2331, 108.4403
996.1616, 112.4037
998.0900, 111.1951
1000.018, 103.3525
1001.947, 94.01682
1003.875, 83.66277
1005.804, 73.99650
1007.732, 65.12780
1009.661, 58.32240
1011.589, 54.27430
1013.518, 50.84672
1015.446, 47.51104
1017.375, 44.78233
1019.303, 42.90948
1021.232, 41.48747
1023.160, 40.38847
1025.089, 39.50871
1027.017, 39.02058
1028.945, 38.55455
1030.874, 37.99490
1032.802, 37.30332
1034.731, 36.46996
1036.659, 35.59628
1038.588, 34.43312
1040.516, 33.85079
1042.445, 34.34389
1044.373, 34.70656
1046.302, 34.60502
1048.230, 34.56313
1050.159, 34.73524
1052.087, 34.93364
1054.016, 35.16222
1055.944, 35.29974
1057.872, 35.17262
1059.801, 35.30074
1061.729, 35.77881
1063.658, 36.39698
1065.586, 37.27953
1067.515, 38.10371
1069.443, 38.73433
1071.372, 39.28158
1073.300, 39.73692
1075.229, 40.32511
1077.157, 41.18625
1079.086, 42.14217
1081.014, 43.26408
1082.943, 43.61974
1084.871, 44.19199
1086.799, 44.70009
1088.728, 44.49404
1090.656, 45.27217
1092.585, 44.93695
1094.513, 44.88191
1096.442, 45.13825
1098.370, 45.44153
1100.299, 46.02288
1102.227, 45.78453
1104.156, 45.75851
1106.084, 45.43937
1108.013, 44.64106
1109.941, 44.23975
1111.870, 42.62353
1113.798, 41.60694
1115.726, 41.17630
1117.655, 40.41224
1119.583, 39.29519
1121.512, 37.94629
1123.440, 36.50805
1125.369, 35.95924
1127.297, 34.81166
1129.226, 34.85406
1131.154, 33.34843
1133.083, 32.51981
1135.011, 32.12858
1136.940, 32.13895
1138.868, 32.29624
1140.797, 31.99926
1142.725, 31.50349
1144.653, 31.25068
1146.582, 31.36674
1148.510, 32.01043
1150.439, 32.65221
1152.367, 32.66535
1154.296, 32.62234
1156.224, 32.94769
1158.153, 33.41885
1160.081, 34.18851
1162.010, 34.74487
1163.938, 34.45478
1165.867, 34.34332
1167.795, 35.13310
1169.724, 35.89222
1171.652, 36.14744
1173.580, 36.32309
1175.509, 36.65638
1177.437, 36.85386
1179.366, 36.69764
1181.294, 36.48722
1183.223, 36.30624
1185.151, 36.53307
1187.080, 36.32294
1189.008, 36.16859
1190.937, 36.29084
1192.865, 35.56021
1194.794, 35.64555
1196.722, 35.04301
1198.651, 34.46214
1200.579, 33.98277
1202.507, 33.03520
1204.436, 32.72551
1206.364, 31.75905
1208.293, 31.34822
1210.221, 30.66654
1212.150, 30.63528
1214.078, 29.48002
1216.007, 29.10810
1217.935, 28.82038
1219.864, 27.45432
1221.792, 26.12903
1223.721, 26.15867
1225.649, 26.33711
1227.578, 25.74592
1229.506, 25.00127
1231.434, 24.16512
1233.363, 23.45343
1235.291, 23.39918
1237.220, 23.22857
1239.148, 22.28750
1241.077, 21.66755
1243.005, 21.89225
1244.934, 21.94680
1246.862, 21.57746
1248.791, 21.41818
1250.719, 21.46372
1252.648, 21.35344
1254.576, 21.24334
1256.505, 21.29137
1258.433, 21.29273
1260.361, 21.39028
1262.290, 21.63253
1264.218, 21.28784
1266.147, 20.68139
1268.075, 20.79334
1270.004, 21.20613
1271.932, 21.40191
1273.861, 21.48133
1275.789, 21.38839
1277.718, 21.51319
1279.646, 22.35976
1281.575, 22.86174
1283.503, 22.44504
1285.432, 22.17364
1287.360, 22.44796
1289.288, 22.60453
1291.217, 22.30259
1293.145, 22.24667
1295.074, 22.60496
1297.002, 22.71673
1298.931, 22.60616
1300.859, 22.61700
1302.788, 22.69860
1304.716, 22.70864
1306.645, 22.75398
1308.573, 22.89592
1310.502, 22.99948
1312.430, 22.93470
1314.359, 22.92466
1316.287, 23.25891
1318.215, 23.46590
1320.144, 23.16624
1322.072, 22.95411
1324.001, 23.21495
1325.929, 23.44075
1327.858, 23.14025
1329.786, 23.01135
1331.715, 23.49501
1333.643, 24.14610
1335.572, 24.73632
1337.500, 25.03966
1339.429, 24.96212
1341.357, 24.81652
1343.286, 24.97874
1345.214, 25.41012
1347.142, 25.81496
1349.071, 25.96387
1350.999, 26.01970
1352.928, 26.28589
1354.856, 26.55056
1356.785, 26.31762
1358.713, 26.18864
1360.642, 26.85682
1362.570, 27.45431
1364.499, 27.64553
1366.427, 27.59199
1368.356, 27.08803
1370.284, 26.95588
1372.213, 27.59562
1374.141, 27.81495
1376.069, 27.34444
1377.998, 26.83966
1379.926, 26.61947
1381.855, 26.78130
1383.783, 26.97094
1385.712, 27.04407
1387.640, 27.02859
1389.569, 26.86619
1391.497, 26.84929
1393.426, 27.27346
1395.354, 27.48365
1397.283, 27.06637
1399.211, 26.80083
1401.140, 26.79408
1403.068, 26.95218
1404.996, 27.28599
1406.925, 26.98769
1408.853, 27.13258
1410.782, 27.01923
1412.710, 26.81768
1414.639, 26.63538
1416.567, 26.02557
1418.496, 25.55690
1420.424, 25.16716
1422.353, 24.50717
1424.281, 24.32651
1426.210, 24.91696
1428.138, 25.20791
1430.067, 25.08762
1431.995, 24.68338
1433.923, 24.10032
1435.852, 24.05315
1437.780, 24.41565
1439.709, 24.61619
1441.637, 24.52009
1443.566, 24.30570
1445.494, 23.98707
1447.423, 23.15325
1449.351, 22.80802
1451.280, 23.33944
1453.208, 23.77660
1455.137, 24.04942
1457.065, 24.00809
1458.994, 23.65805
1460.922, 23.46139
1462.850, 23.35143
1464.779, 23.35192
1466.707, 23.43793
1468.636, 23.28835
1470.564, 23.16832
1472.493, 23.71645
1474.421, 24.04057
1476.350, 23.44231
1478.278, 23.16381
1480.207, 23.45657
1482.135, 23.82158
1484.064, 23.94794
1485.992, 23.69361
1487.921, 23.40582
1489.849, 23.11045
1491.777, 22.96099
1493.706, 22.92512
1495.634, 22.77260
1497.563, 22.75733
1499.491, 22.82491
1501.420, 22.66570
1503.348, 22.95010
1505.277, 22.81050
1507.205, 22.66052
1509.134, 22.60431
1511.062, 22.90075
1512.991, 23.10645
1514.919, 22.68113
1516.848, 22.25283
1518.776, 21.94407
1520.704, 21.74166
1522.633, 21.68580
1524.561, 21.63106
1526.490, 21.78813
1528.418, 22.16288
1530.347, 22.30759
1532.275, 21.92456
1534.204, 21.51650
1536.132, 21.68681
1538.061, 21.84540
1539.989, 21.19592
1541.918, 20.55054
1543.846, 20.25032
1545.775, 20.31967
1547.703, 20.78331
1549.631, 21.08070
1551.560, 21.04195
1553.488, 20.57898
1555.417, 19.97303
1557.345, 19.39205
1559.274, 19.09837
1561.202, 19.63875
1563.131, 19.89838
1565.059, 19.27823
1566.988, 18.82569
1568.916, 19.02615
1570.845, 19.79669
1572.773, 20.24973
1574.702, 19.70326
1576.630, 19.22259
1578.558, 19.17704
1580.487, 19.19939
1582.415, 19.13709
1584.344, 18.92208
1586.272, 18.87542
1588.201, 18.99124
1590.129, 19.08579
1592.058, 19.35488
1593.986, 19.32290
1595.915, 19.55312
1597.843, 19.29740
1599.772, 19.06788
1601.700, 18.93963
1603.629, 19.27181
1605.557, 19.39153
1607.485, 19.03365
1609.414, 18.66253
1611.342, 18.74358
1613.271, 19.41171
1615.199, 19.78507
1617.128, 20.02402
1619.056, 20.20699
1620.985, 20.10531
1622.913, 20.11547
1624.842, 20.03560
1626.770, 20.03045
1628.699, 19.79200
1630.627, 20.07691
1632.556, 20.13294
1634.484, 20.27399
1636.412, 20.62541
1638.341, 20.42569
1640.269, 20.09768
1642.198, 20.25681
1644.126, 20.42258
1646.055, 20.43484
1647.983, 20.71791
1649.912, 21.30986
1651.840, 21.93649
1653.769, 22.10473
1655.697, 21.95979
1657.626, 21.87029
1659.554, 21.99261
1661.483, 22.35754
1663.411, 22.73038
1665.339, 23.06321
1667.268, 23.20445
1669.196, 22.97314
1671.125, 22.71310
1673.053, 22.59202
1674.982, 22.99973
1676.910, 23.65613
1678.839, 23.76185
1680.767, 23.69843
1682.696, 23.91594
1684.624, 24.22433
1686.553, 24.25914
1688.481, 23.90850
1690.410, 23.71477
1692.338, 24.20755
1694.266, 24.60273
1696.195, 24.85138
1698.123, 25.09990
1700.052, 25.15699
1701.980, 25.15432
1703.909, 25.16071
1705.837, 25.31061
1707.766, 25.17272
1709.694, 24.94007
1711.623, 25.02882
1713.551, 25.02566
1715.480, 25.01924
1717.408, 25.33838
1719.337, 25.60524
1721.265, 25.31515
1723.193, 24.63786
1725.122, 24.17756
1727.050, 24.43026
1728.979, 24.47423
1730.907, 24.09371
1732.836, 23.84453
1734.764, 23.49987
1736.693, 23.39437
1738.621, 23.58171
1740.550, 23.64219
1742.478, 23.55733
1744.407, 23.17067
1746.335, 22.91696
1748.264, 22.74269
1750.192, 22.60558
1752.120, 22.69943
1754.049, 22.98656
1755.977, 23.14433
1757.906, 23.50622
1759.834, 23.60597
1761.763, 22.72114
1763.691, 22.28893
1765.620, 22.52431
1767.548, 22.79956
1769.477, 23.08879
1771.405, 23.44153
1773.334, 23.40730
1775.262, 23.53964
1777.191, 23.44471
1779.119, 23.46853
1781.047, 23.12227
1782.976, 22.98195
1784.904, 22.86068
1786.833, 22.65801
1788.761, 22.95964
1790.690, 22.92212
1792.618, 23.45861
1794.547, 23.16619
1796.475, 23.36627
1798.404, 23.40384
1800.332, 23.33612
1802.261, 23.36429
1804.189, 23.59859
1806.118, 23.78202
1808.046, 23.75718
1809.974, 23.87989
1811.903, 23.76545
1813.831, 23.90395
1815.760, 23.97130
1817.688, 23.94870
1819.617, 24.12029
1821.545, 23.97797
1823.474, 23.68174
1825.402, 23.58700
1827.331, 23.96846
1829.259, 24.20416
1831.188, 23.79803
1833.116, 23.33579
1835.045, 23.15469
1836.973, 22.94099
1838.901, 23.50913
1840.830, 24.18126
1842.758, 23.57013
1844.687, 22.77694
1846.615, 22.94554
1848.544, 23.46978
1850.472, 24.05644
1852.401, 24.54688
1854.329, 24.08631
1856.258, 23.34427
1858.186, 23.43725
1860.115, 24.00120
1862.043, 24.29071
1863.972, 23.78414
1865.900, 23.31492
1867.828, 23.58925
1869.757, 24.35363
1871.685, 24.43903
1873.614, 23.73263
1875.542, 23.46551
1877.471, 23.37745
1879.399, 23.35681
1881.328, 23.55486
1883.256, 23.86020
1885.185, 23.73143
1887.113, 23.43510
1889.042, 23.18055
1890.970, 22.94955
1892.899, 23.21793
1894.827, 23.52150
1896.755, 23.75269
1898.684, 23.83795
1900.612, 24.04061
1902.541, 24.15453
1904.469, 24.23522
1906.398, 24.42302
1908.326, 24.42482
1910.255, 24.64344
1912.183, 25.04941
1914.112, 25.39538
1916.040, 25.20282
1917.969, 25.16356
1919.897, 25.17230
1921.826, 25.00122
1923.754, 24.88719
1925.682, 24.93670
1927.611, 25.19244
1929.539, 25.33240
1931.468, 25.62477
1933.396, 25.94919
1935.325, 26.01186
1937.253, 26.04513
1939.182, 25.89135
1941.110, 25.93822
1943.039, 26.29946
1944.967, 26.35650
1946.896, 26.45690
1948.824, 26.89869
1950.753, 27.08230
1952.681, 27.00988
1954.609, 26.93320
1956.538, 26.73582
1958.466, 26.95237
1960.395, 27.35690
1962.323, 27.35842
1964.252, 27.26581
1966.180, 27.36141
1968.109, 27.48392
1970.037, 27.58688
1971.966, 27.56913
1973.894, 27.63075
1975.823, 27.81090
1977.751, 27.62348
1979.680, 27.58879
1981.608, 28.30176
1983.536, 28.50354
1985.465, 27.79388
1987.393, 27.33265
1989.322, 27.15385
1991.250, 27.11211
1993.179, 27.22850
1995.107, 26.96833
1997.036, 27.25521
1998.964, 26.62047
2000.893, 26.36150
2002.821, 26.22266
2004.750, 25.63588
2006.678, 25.42211
2008.607, 25.86799
2010.535, 26.24641
2012.464, 25.86615
2014.392, 25.17989
2016.320, 25.19413
2018.249, 25.79464
2020.177, 25.99022
2022.106, 25.77932
2024.034, 26.03553
2025.963, 25.13679
2027.891, 25.77435
2029.820, 25.74868
2031.748, 25.15049
2033.677, 25.48971
2035.605, 25.80235
2037.534, 25.51410
2039.462, 25.85194
2041.391, 25.80194
2043.319, 25.49514
2045.247, 25.94435
2047.176, 26.46775
2049.104, 26.48473
2051.033, 26.45858
2052.961, 26.62010
2054.890, 26.55223
2056.818, 26.31321
2058.747, 26.12098
2060.675, 26.03182
2062.604, 25.92351
2064.532, 26.13624
2066.460, 26.70783
2068.389, 26.79864
2070.317, 26.94375
2072.246, 27.06978
2074.174, 26.86874
2076.103, 27.15496
2078.031, 27.38395
2079.960, 26.70341
2081.888, 26.53667
2083.817, 27.15450
2085.745, 27.29014
2087.674, 27.11056
2089.602, 26.91735
2091.531, 26.98437
2093.459, 27.10196
2095.387, 26.95115
2097.316, 26.85302
2099.244, 27.07960
2101.173, 27.38004
2103.101, 27.27070
2105.030, 27.48113
2106.958, 27.63874
2108.887, 27.56346
2110.815, 27.86590
2112.744, 27.79433
2114.672, 27.63216
2116.601, 27.49618
2118.529, 27.82556
2120.458, 27.82379
2122.386, 27.47574
2124.314, 27.86394
2126.243, 27.75903
2128.171, 28.14419
2130.100, 28.02162
2132.028, 28.54821
2133.957, 28.92423
2135.885, 28.75061
2137.814, 28.63077
2139.742, 28.39906
2141.671, 28.45378
2143.599, 28.18155
2145.528, 28.54701
2147.456, 28.37974
2149.385, 28.37881
2151.313, 28.91648
2153.241, 29.34357
2155.170, 28.84726
2157.098, 28.39775
2159.027, 29.29014
2160.955, 29.51747
2162.884, 28.52262
2164.812, 28.31174
2166.741, 28.61704
2168.669, 28.59063
2170.598, 28.54041
2172.526, 28.99544
2174.455, 29.19844
2176.383, 28.83869
2178.312, 28.98507
2180.240, 29.52311
2182.168, 29.35329
2184.097, 29.67661
2186.025, 30.25102
2187.954, 29.98672
2189.882, 29.38980
2191.811, 28.66048
2193.739, 28.98692
2195.668, 29.75487
2197.596, 29.78626
2199.525, 29.85528
2201.453, 29.84217
2203.382, 29.77797
2205.310, 29.62610
2207.239, 29.72939
2209.167, 29.47132
2211.095, 29.75314
2213.024, 30.31004
2214.952, 30.33596
2216.881, 30.19350
2218.809, 30.47528
2220.738, 30.48533
2222.666, 30.42250
2224.595, 30.66963
2226.523, 30.68957
2228.452, 30.38280
2230.380, 30.34114
2232.309, 30.49021
2234.237, 30.69809
2236.166, 30.24861
2238.094, 29.68020
2240.022, 30.09341
2241.951, 30.87522
2243.879, 31.18511
2245.808, 30.87368
2247.736, 30.85815
2249.665, 30.67200
2251.593, 30.31926
2253.522, 31.04283
2255.450, 31.38258
2257.379, 30.61949
2259.307, 30.81357
2261.236, 31.77497
2263.164, 32.36681
2265.093, 32.03500
2267.021, 31.55647
2268.949, 31.08804
2270.878, 31.57235
2272.806, 32.06073
2274.735, 31.55404
2276.663, 31.22411
2278.592, 31.81840
2280.520, 31.77864
2282.449, 31.33576
2284.377, 32.04314
2286.306, 32.55108
2288.234, 32.14914
2290.163, 31.75247
2292.091, 32.24759
2294.020, 32.87493
2295.948, 32.52324
2297.876, 32.27770
2299.805, 32.17326
2301.733, 31.92970
2303.662, 32.14571
2305.590, 32.31212
2307.519, 32.25228
2309.447, 32.50209
2311.376, 32.90168
2313.304, 33.13734
2315.233, 33.20885
2317.161, 32.75802
2319.090, 32.32087
2321.018, 32.75204
2322.947, 33.09581
2324.875, 33.13515
2326.803, 33.11517
2328.732, 33.13444
2330.660, 33.00608
2332.589, 32.96670
2334.517, 32.69486
2336.446, 32.65000
2338.374, 32.46754
2340.303, 32.54503
2342.231, 33.13210
2344.160, 32.86261
2346.088, 33.16785
2348.017, 33.51825
2349.945, 33.64513
2351.874, 33.32664
2353.802, 32.75967
2355.730, 32.50875
2357.659, 33.36271
2359.587, 33.90107
2361.516, 33.96019
2363.444, 33.70184
2365.373, 33.15729
2367.301, 32.67107
2369.230, 32.82524
2371.158, 33.21237
2373.087, 33.96768
2375.015, 34.01912
2376.944, 33.49208
2378.872, 33.03329
2380.801, 33.21095
2382.729, 34.47879
2384.657, 34.84179
2386.586, 34.57058
2388.514, 33.84082
2390.443, 33.26045
2392.371, 33.51493
2394.300, 33.41674
2396.228, 33.39117
2398.157, 33.89645
2400.085, 34.52768
2402.014, 34.49702
2403.942, 34.28769
2405.871, 34.03724
2407.799, 33.61330
2409.728, 33.71880
2411.656, 33.27172
2413.584, 33.88324
2415.513, 33.96404
2417.441, 34.08783
2419.370, 34.13683
2421.298, 34.02558
2423.227, 33.66282
2425.155, 33.59811
2427.084, 33.57938
2429.012, 33.51149
2430.941, 33.93524
2432.869, 33.48501
2434.798, 33.33768
2436.726, 34.68111
2438.655, 33.85059
2440.583, 33.10136
2442.511, 34.69804
2444.440, 34.81103
2446.368, 34.16264
2448.297, 33.72376
2450.225, 33.98225
2452.154, 34.11857
2454.082, 33.34946
2456.011, 34.48780
2457.939, 35.49143
2459.868, 34.97647
2461.796, 34.58134
2463.725, 34.00094
2465.653, 33.94913
2467.582, 34.35010
2469.510, 34.21799
2471.438, 34.42894
2473.367, 35.06314
2475.295, 35.16584
2477.224, 35.10276
2479.152, 34.94832
2481.081, 34.85902
2483.009, 34.36030
2484.938, 34.27237
2486.866, 34.36085
2488.795, 33.74187
2490.723, 33.16938
2492.652, 33.89918
2494.580, 34.76753
2496.509, 34.89634
2498.437, 34.88706
2500.365, 35.03753
2502.294, 34.76640
2504.222, 34.91732
2506.151, 34.32723
2508.079, 34.87912
2510.008, 34.57914
2511.936, 34.24227
2513.865, 34.49014
2515.793, 34.24048
2517.722, 34.44533
2519.650, 34.64938
2521.579, 34.82003
2523.507, 35.16336
2525.436, 34.91465
2527.364, 35.25393
2529.292, 35.41674
2531.221, 35.36240
2533.149, 34.67500
2535.078, 35.38550
2537.006, 34.69349
2538.935, 34.58023
2540.863, 34.91737
2542.792, 34.80878
2544.720, 35.12923
2546.649, 35.55289
2548.577, 35.40211
2550.506, 35.39380
2552.434, 35.60510
2554.363, 35.70034
2556.291, 35.41010
2558.219, 34.47688
2560.148, 35.78112
2562.076, 36.28620
2564.005, 35.42771
2565.933, 35.77324
2567.862, 35.63102
2569.790, 34.73673
2571.719, 34.59764
2573.647, 34.90562
2575.576, 35.20874
2577.504, 34.37215
2579.433, 33.96266
2581.361, 34.62768
2583.290, 34.60137
2585.218, 34.60017
2587.146, 34.72350
2589.075, 34.29019
2591.003, 34.25551
2592.932, 34.28389
2594.860, 34.74423
2596.789, 34.57372
2598.717, 33.47965
2600.646, 33.91369
2602.574, 34.60635
2604.503, 34.38524
2606.431, 35.13488
2608.360, 35.52869
2610.288, 34.68489
2612.217, 34.31285
2614.145, 34.23861
2616.073, 34.15612
2618.002, 34.12832
2619.930, 34.13142
2621.859, 34.37737
2623.787, 34.33097
2625.716, 34.66040
2627.644, 34.47159
2629.573, 34.73222
2631.501, 34.12355
2633.430, 34.15331
2635.358, 33.95795
2637.287, 34.03242
2639.215, 34.16416
2641.144, 34.25829
2643.072, 34.78651
2645.000, 34.51208
2646.929, 34.13809
2648.857, 34.48713
2650.786, 35.27127
2652.714, 34.96531
2654.643, 34.18238
2656.571, 34.00802
2658.500, 33.37690
2660.428, 33.50885
2662.357, 33.08019
2664.285, 32.88639
2666.214, 32.62452
2668.142, 32.74051
2670.071, 33.13598
2671.999, 33.25605
2673.927, 33.58974
2675.856, 34.06990
2677.784, 34.65011
2679.713, 34.72669
2681.641, 34.56805
2683.570, 34.10708
2685.498, 33.30310
2687.427, 32.95363
2689.355, 33.58489
2691.284, 34.12792
2693.212, 33.21714
2695.141, 33.00579
2697.069, 33.13619
2698.998, 32.60631
2700.926, 32.06917
2702.854, 32.74648
2704.783, 32.11662
2706.711, 33.14459
2708.640, 32.17141
2710.568, 32.85098
2712.497, 33.90293
2714.425, 33.48684
2716.354, 32.05255
2718.282, 32.80078
2720.211, 33.17716
2722.139, 32.71763
2724.068, 33.18173
2725.996, 33.59474
2727.925, 33.41644
2729.853, 32.80468
2731.781, 32.14553
2733.710, 31.29177
2735.638, 31.89016
2737.567, 32.08728
2739.495, 31.52767
2741.424, 31.71732
2743.352, 32.05787
2745.281, 32.32073
2747.209, 32.16903
2749.138, 32.34821
2751.066, 31.63317
2752.995, 31.57380
2754.923, 30.99376
2756.852, 31.15267
2758.780, 31.88079
2760.708, 30.85113
2762.637, 30.77443
2764.565, 31.51432
2766.494, 31.46238
2768.422, 31.09291
2770.351, 30.96356
2772.279, 31.35888
2774.208, 31.41736
2776.136, 31.24706
2778.065, 31.45375
2779.993, 30.92429
2781.922, 30.58282
2783.850, 30.88290
2785.779, 31.06428
2787.707, 30.51813
2789.635, 29.44377
2791.564, 30.91759
2793.492, 30.87286
2795.421, 29.71173
2797.349, 29.72719
2799.278, 29.88755
2801.206, 30.07061
2803.135, 30.20300
2805.063, 30.55106
2806.992, 30.56084
2808.920, 30.27145
2810.849, 29.64426
2812.777, 29.02439
2814.706, 28.91623
2816.634, 28.60858
2818.563, 29.50177
2820.491, 28.32437
2822.419, 29.03060
2824.348, 28.67280
2826.276, 28.07034
2828.205, 27.89940
2830.133, 28.16525
2832.062, 28.64561
2833.990, 29.08451
2835.919, 28.59608
2837.847, 28.31141
2839.776, 28.33449
2841.704, 28.61770
2843.633, 27.87915
2845.561, 26.93609
2847.490, 26.33922
2849.418, 27.51627
2851.346, 28.00540
2853.275, 26.98874
2855.203, 26.69231
2857.132, 27.49150
2859.060, 28.37534
2860.989, 27.24070
2862.917, 27.28445
2864.846, 27.48389
2866.774, 27.00404
2868.703, 27.56341
2870.631, 27.15876
2872.560, 25.78054
2874.488, 26.19443
2876.417, 25.95916
2878.345, 25.47197
2880.273, 25.61654
2882.202, 26.27478
2884.130, 25.26314
2886.059, 25.92611
2887.987, 25.55935
2889.916, 25.65414
2891.844, 25.99323
2893.773, 24.81235
2895.701, 24.73585
2897.630, 25.23954
2899.558, 25.93062
2901.487, 25.57850
2903.415, 25.03722
2905.344, 24.90659
2907.272, 24.51677
2909.200, 24.81157
2911.129, 25.13870
2913.057, 24.97553
2914.986, 25.13569
2916.914, 24.83584
2918.843, 25.06116
2920.771, 24.62805
2922.700, 24.53266
2924.628, 24.67846
2926.557, 24.16585
2928.485, 24.56787
2930.414, 24.76746
2932.342, 23.88629
2934.271, 24.47424
2936.199, 24.70435
2938.127, 24.13695
2940.056, 24.04836
2941.984, 23.74598
2943.913, 23.32879
2945.841, 22.97734
2947.770, 23.14320
2949.698, 23.50201
2951.627, 23.83819
2953.555, 23.84604
2955.484, 23.54468
2957.412, 23.04301
2959.341, 22.58853
2961.269, 22.02906
2963.198, 22.39154
2965.126, 21.82666
2967.054, 22.60995
2968.983, 21.87145
2970.911, 21.91033
2972.840, 23.16462
2974.768, 21.23423
2976.697, 20.83485
2978.625, 22.51395
2980.554, 20.77122
2982.482, 21.79175
2984.411, 23.23586
2986.339, 21.74460
2988.268, 20.70550
2990.196, 20.43962
2992.125, 20.81783
2994.053, 21.13952
2995.981, 21.37278
2997.910, 21.52155
2999.838, 21.47984
3001.767, 20.90075
3003.695, 20.37369
3005.624, 20.04037
3007.552, 19.94432
3009.481, 19.76222
3011.409, 20.45199
3013.338, 21.73407
3015.266, 19.16400
3017.195, 18.94609
3019.123, 20.25436
3021.052, 20.98367
3022.980, 19.78035
3024.908, 19.10084
3026.837, 19.22896
3028.765, 19.35958
3030.694, 19.02024
3032.622, 18.76484
3034.551, 18.89936
3036.479, 18.55207
3038.408, 18.79158
3040.336, 19.32710
3042.265, 19.31597
3044.193, 19.11839
3046.122, 18.52013
3048.050, 17.77528
3049.979, 18.12773
3051.907, 17.94391
3053.835, 17.89026
3055.764, 18.47441
3057.692, 18.22026
3059.621, 19.07360
3061.549, 18.01114
3063.478, 17.61286
3065.406, 17.02737
3067.335, 17.06199
3069.263, 17.68220
3071.192, 18.25540
3073.120, 17.94761
3075.049, 17.80797
3076.977, 18.04310
3078.906, 16.81828
3080.834, 16.60018
3082.762, 16.84152
3084.691, 16.87030
3086.619, 16.81370
3088.548, 16.43747
3090.476, 16.17295
3092.405, 16.61560
3094.333, 16.06153
3096.262, 16.05250
3098.190, 16.82382
3100.119, 17.28937
3102.047, 17.02252
3103.976, 17.12743
3105.904, 16.62328
3107.833, 16.47356
3109.761, 16.50375
3111.689, 16.14904
3113.618, 16.26371
3115.546, 15.77187
3117.475, 16.10162
3119.403, 15.82325
3121.332, 15.18426
3123.260, 14.66451
3125.189, 14.84195
3127.117, 15.09521
3129.046, 14.21648
3130.974, 14.32022
3132.903, 14.28691
3134.831, 14.02967
3136.760, 14.39395
3138.688, 14.23718
3140.616, 14.38228
3142.545, 14.15638
3144.473, 14.45565
3146.402, 14.21811
3148.330, 13.81665
3150.259, 13.70130
3152.187, 14.02551
3154.116, 14.26410
3156.044, 13.83032
3157.973, 14.08206
3159.901, 14.12627
3161.830, 13.83205
3163.758, 14.22915
3165.687, 13.70682
3167.615, 13.34816
3169.543, 13.19359
3171.472, 12.98527
3173.400, 12.80610
3175.329, 12.79028
3177.257, 13.13625
3179.186, 12.95246
3181.114, 11.99521
3183.043, 12.46756
3184.971, 11.95488
3186.900, 13.18537
3188.828, 11.68284
3190.757, 12.08746
3192.685, 12.21185
3194.614, 11.87946
3196.542, 11.26058
3198.470, 12.46876
3200.399, 11.21517
3202.327, 9.946550
3204.256, 10.53844
3206.184, 10.69330
3208.113, 10.75218
3210.041, 10.88526
3211.970, 11.08323
3213.898, 10.69790
3215.827, 10.90543
3217.755, 10.80646
3219.684, 10.23222
3221.612, 10.80499
3223.541, 10.85695
3225.469, 10.67515
3227.397, 10.35545
3229.326, 9.557374
3231.254, 9.125172
3233.183, 9.534910
3235.111, 10.39778
3237.040, 9.353291
3238.968, 9.545325
3240.897, 9.626097
3242.825, 9.109517
3244.754, 9.394079
3246.682, 9.479202
3248.611, 9.767267
3250.539, 10.06184
3252.468, 9.901649
3254.396, 9.967800
3256.324, 9.293081
3258.253, 9.560744
3260.181, 9.561234
3262.110, 9.048897
3264.038, 9.175215
3265.967, 9.389510
3267.895, 9.040837
3269.824, 9.030778
3271.752, 9.250852
3273.681, 9.159950
3275.609, 9.353724
3277.538, 9.428038
3279.466, 9.471045
3281.395, 9.759597
3283.323, 9.429683
3285.251, 8.173425
3287.180, 8.557148
3289.108, 8.154410
3291.037, 7.287745
3292.965, 8.117711
3294.894, 7.993711
3296.822, 8.595846
3298.751, 9.055740
3300.679, 8.349898
3302.608, 9.015405
3304.536, 9.105497
3306.465, 8.889822
3308.393, 8.713850
3310.322, 8.718266
3312.250, 8.416800
3314.178, 8.318223
3316.107, 8.169365
3318.035, 8.047255
3319.964, 7.899022
3321.892, 7.889928
3323.821, 7.858195
3325.749, 7.655726
3327.678, 8.015965
3329.606, 7.116619
3331.535, 6.744810
3333.463, 7.426186
3335.392, 7.422185
3337.320, 6.451840
3339.249, 6.515902
3341.177, 7.256135
3343.105, 7.273930
3345.034, 7.371811
3346.962, 8.283650
3348.891, 7.801427
3350.819, 5.655247
3352.748, 7.514009
3354.676, 6.654846
3356.605, 6.202407
3358.533, 6.717133
3360.462, 6.589808
3362.390, 6.508358
3364.319, 7.484725
3366.247, 6.521758
3368.176, 6.828031
3370.104, 7.204168
3372.032, 7.247841
3373.961, 6.441808
3375.889, 5.946551
3377.818, 7.411483
3379.746, 6.531641
3381.675, 6.628697
3383.603, 7.423742
3385.532, 7.673324
3387.460, 5.846551
3389.389, 6.307219
3391.317, 6.099573
3393.246, 5.216753
3395.174, 5.412293
3397.103, 5.943007
3399.031, 6.889372
3400.959, 6.581199
3402.888, 5.343171
3404.816, 6.382926
3406.745, 6.269134
3408.673, 5.808105
3410.602, 5.945162
3412.530, 6.828837
3414.459, 6.357507
3416.387, 5.966273
3418.316, 5.499890
3420.244, 5.127151
3422.173, 5.240305
3424.101, 4.808401
3426.030, 5.941656
3427.958, 4.928679
3429.886, 5.195458
3431.815, 6.532983
3433.743, 6.730494
3435.672, 6.940263
3437.600, 6.844283
3439.529, 6.235406
3441.457, 6.060213
3443.386, 6.494140
3445.314, 6.677398
3447.243, 6.635567
3449.171, 6.460278
3451.100, 4.670474
3453.028, 4.984679
3454.957, 5.235383
3456.885, 5.192962
3458.813, 5.765548
3460.742, 5.828313
3462.670, 5.812155
3464.599, 5.392744
3466.527, 4.940534
3468.456, 5.290794
3470.384, 6.117167
3472.313, 4.775041
3474.241, 4.361922
3476.170, 5.575186
3478.098, 6.206712
3480.027, 5.550931
3481.955, 5.247449
3483.884, 4.721360
3485.812, 4.419066
3487.740, 4.121397
3489.669, 4.052810
3491.597, 3.953120
3493.526, 4.143674
3495.454, 4.214449
3497.383, 4.731204
3499.311, 4.430929
3501.240, 4.479030
3503.168, 4.227813
3505.097, 3.989091
3507.025, 5.050864
3508.954, 5.130220
3510.882, 4.688143
3512.811, 4.159459
3514.739, 4.047936
3516.667, 4.864246
3518.596, 5.078803
3520.524, 5.310737
3522.453, 5.009362
3524.381, 5.091084
3526.310, 4.808232
3528.238, 4.579817
3530.167, 4.260897
3532.095, 3.446235
3534.024, 3.314016
3535.952, 4.377132
3537.881, 3.777300
3539.809, 4.085416
3541.738, 3.416047
3543.666, 3.130912
3545.594, 4.700065
3547.523, 4.684591
3549.451, 4.081303
3551.380, 3.408674
3553.308, 3.152615
3555.237, 3.458364
3557.165, 3.971565
3559.094, 3.840220
3561.022, 4.193622
3562.951, 3.938150
3564.879, 3.607786
3566.808, 5.119039
3568.736, 4.202592
3570.665, 4.672533
3572.593, 3.422549
3574.521, 1.904671
3576.450, 2.971714
3578.378, 3.257952
3580.307, 3.428818
3582.235, 3.921793
3584.164, 4.165826
3586.092, 3.883121
3588.021, 3.737353
3589.949, 4.245134
3591.878, 3.526219
3593.806, 3.519868
3595.735, 3.972085
3597.663, 3.140023
3599.592, 3.748487
3601.520, 2.992967
3603.448, 3.058100
3605.377, 3.221381
3607.305, 2.798728
3609.234, 3.131580
3611.162, 3.483382
3613.091, 3.331881
3615.019, 3.415487
3616.948, 3.656987
3618.876, 3.537932
3620.805, 3.377899
3622.733, 2.686008
3624.662, 3.051507
3626.590, 2.814441
3628.519, 2.582991
3630.447, 2.919525
3632.375, 2.531115
3634.304, 2.625229
3636.232, 3.271391
3638.161, 3.913446
3640.089, 3.900574
3642.018, 2.795092
3643.946, 2.551525
3645.875, 2.654989
3647.803, 2.062105
3649.732, 1.758529
3651.660, 3.026992
3653.589, 4.201306
3655.517, 3.493741
3657.446, 2.014165
3659.374, 1.628636
3661.302, 2.351292
3663.231, 2.883208
3665.159, 2.952890
3667.088, 2.758322
3669.016, 2.687938
3670.945, 2.566241
3672.873, 2.676102
3674.802, 3.290960
3676.730, 3.325369
3678.659, 3.488261
3680.587, 3.639360
3682.516, 3.515752
3684.444, 3.072940
3686.373, 2.849540
3688.301, 2.955258
3690.229, 2.563970
3692.158, 2.573596
3694.086, 2.844565
3696.015, 2.461688
3697.943, 2.556329
3699.872, 2.603888
3701.800, 2.377888
3703.729, 1.905622
3705.657, 2.417364
3707.586, 3.099119
3709.514, 2.351067
3711.443, 2.613024
3713.371, 1.561326
3715.300, 2.015194
3717.228, 2.196459
3719.156, 2.167572
3721.085, 2.587448
3723.013, 1.128554
3724.942, 1.531630
3726.870, 1.537433
3728.799, 1.777536
3730.727, 1.712572
3732.656, 1.786716
3734.584, 1.384989
3736.513, 1.877988
3738.441, 1.576820
3740.370, 1.712348
3742.298, 2.294231
3744.227, 2.579940
3746.155, 2.390054
3748.083, 2.665458
3750.012, 3.152926
3751.940, 2.620191
3753.869, 2.918100
3755.797, 2.826369
3757.726, 1.960835
3759.654, 2.714109
3761.583, 2.486476
3763.511, 1.696355
3765.440, 1.953793
3767.368, 1.925613
3769.297, 1.689050
3771.225, 1.865589
3773.154, 1.784638
3775.082, 1.854452
3777.010, 1.879603
3778.939, 1.720712
3780.867, 1.861396
3782.796, 1.861087
3784.724, 2.031110
3786.653, 2.110665
3788.581, 2.351972
3790.510, 2.729034
3792.438, 2.641391
3794.367, 2.862584
3796.295, 3.007018
3798.224, 3.021188
3800.152, 2.275797
3802.081, 2.829044
3804.009, 2.093860
3805.938, 1.251320
3807.866, 2.135702
3809.794, 1.246992
3811.723, 2.338801
3813.651, 0.8421105
3815.580, 1.688360
3817.508, 1.962445
3819.437, 1.933553
3821.365, 1.711816
3823.294, 1.417983
3825.222, 2.016191
3827.151, 1.632782
3829.079, 1.699596
3831.008, 1.535192
3832.936, 1.808802
3834.865, 1.961392
3836.793, 1.689526
3838.721, 0.8536124
3840.650, 0.8867340
3842.578, 1.019504
3844.507, 1.792827
3846.435, 1.719704
3848.364, 1.282888
3850.292, 1.118273
3852.221, 1.012006
3854.149, 0.8652880
3856.078, 0.7720409
3858.006, 0.7088186
3859.935, 0.8976779
3861.863, 0.5896801
3863.792, 1.275994
3865.720, 1.221643
3867.648, 0.9639319
3869.577, 1.296877
3871.505, 1.706176
3873.434, 1.455027
3875.362, 1.186074
3877.291, 1.319853
3879.219, 1.882551
3881.148, 2.149942
3883.076, 1.791651
3885.005, 1.496656
3886.933, 1.569714
3888.862, 1.388938
3890.790, 1.407341
3892.719, 0.8807300
3894.647, 0.9302774
3896.575, 0.6977372
3898.504, 0.9819544
3900.432, 0.6186530
3902.361, 1.081711
3904.289, 1.627156
3906.218, 1.150454
3908.146, 1.695143
3910.075, 2.635820
3912.003, 1.518495
3913.932, 0.7263360
3915.860, 0.2724127
3917.789, 0.5725950
3919.717, -1.1435833E-03
3921.646, 0.4942431
3923.574, -3.0407490E-02
3925.502, 0.8954565
3927.431, 1.757055
3929.359, 1.623444
3931.288, 2.325927
3933.216, 2.831719
3935.145, 2.952281
3937.073, 2.089537
3939.002, 2.393133
3940.930, 2.021317
3942.859, 0.6949753
3944.787, 1.166528
3946.716, 0.3722088
3948.644, -0.2617370
3950.573, 1.583703
3952.501, 1.491539
3954.429, 1.682691
3956.358, 1.565831
3958.286, 1.308011
3960.215, 1.540406
3962.143, 0.9336072
3964.072, 1.075083
3966.000, 1.203568
3967.929, 0.4614719
3969.857, 1.341049
3971.786, 0.6013022
3973.714, 0.3276639
3975.643, 0.8327082
3977.571, 0.9139043
3979.500, 0.6672863
3981.428, -0.1955726
3983.356, 0.1090355
3985.285, -0.1791870
3987.213, -7.0466630E-02
3989.142, -4.6703391E-02
3991.070, 0.2666612
3992.999, 0.5944997
3994.927, 0.4046784
3996.856, 0.7063087
3998.784, -0.3785785
4000.713, 0.9234805
4002.641, 0.3986234
4004.570, 5.6279581E-02
4006.498, 1.675007
4008.427, 0.7241753
4010.355, -0.1374906
4012.283, 0.5186325
4014.212, 0.9220636
4016.140, 0.9110792
4018.069, 1.007312
4019.997, 0.6555610
4021.926, 0.6129712
4023.854, 4.0577119E-03
4025.783, -0.3018260
4027.711, 0.1059940
4029.640, 0.3188725
4031.568, 0.5825803
4033.497, 1.119833
4035.425, 0.4136558
4037.354, 0.3312805
4039.282, 1.805115
4041.210, 1.098914
4043.139, -0.1246136
4045.067, 1.025940
4046.996, 0.8501854
4048.924, 0.6485049
4050.853, 0.8903813
4052.781, 1.358770
4054.710, 1.102494
4056.638, 1.152302
4058.567, 0.5847868
4060.495, 0.9542238
4062.424, -0.2383982
4064.352, -7.0339502E-03
4066.281, -0.3543035
4068.209, -0.5768692
4070.137, -0.6622351
4072.066, -0.2929990
4073.994, -5.3228121E-02
4075.923, 0.8018759
4077.851, -0.6285288
4079.780, -0.3602793
4081.708, -0.3939763
4083.637, 0.4709317
4085.565, 1.129766
4087.494, 0.9557912
4089.422, 0.5748633
4091.351, 0.6570152
4093.279, 0.8062458
4095.208, 0.4278618
4097.136, 1.446900
4099.064, -3.4155879E-02
4100.993, -0.7434731
4102.921, 0.5048326
4104.850, 1.165892
4106.778, 0.2534245
4108.707, -0.2508531
4110.635, 0.4657168
4112.563, 0.8372065
4114.492, 0.7230643
4116.420, 1.393148
4118.349, 0.5907713
4120.277, 1.184920
4122.206, 8.7169632E-02
4124.134, -0.7858987
4126.063, 1.227333
4127.991, 0.9154555
4129.920, 4.9154431E-02
4131.848, 3.0554241E-02
4133.777, 0.2637692
4135.705, 1.004505
4137.634, 1.184852
4139.562, 1.062104
4141.491, 1.219308
4143.419, 0.6913399
4145.348, 0.6706202
4147.276, 0.8696958
4149.205, 6.9058619E-02
4151.133, 0.4745634
4153.062, -0.5131086
4154.990, 0.6835977
4156.918, 0.1154252
4158.847, 3.0246761E-02
4160.775, 0.4874607
4162.704, 0.2745869
4164.632, 1.135426
4166.561, 0.5196195
4168.489, -0.2799989
4170.417, 1.137320
4172.346, -0.1064446
4174.274, 0.3100914
4176.203, 1.101271
4178.131, -9.7286724E-02
4180.060, 3.6947161E-02
4181.988, 0.3486313
4183.917, 0.1688624
4185.845, 0.3012625
4187.774, 0.4286953
4189.702, 0.3452260
4191.631, 0.8010281
4193.559, 1.093633
4195.488, 2.250467
4197.416, 2.087094
4199.345, 1.863053
4201.273, 1.897877
4203.202, 0.9789869
4205.130, 0.2080971
4207.059, 0.4250332
4208.987, 0.2611198
4210.916, 0.8244694
4212.844, 1.291613
4214.772, 1.324569
4216.701, 0.9102684
4218.629, -0.1517533
4220.558, 2.5886370E-02
4222.486, 1.404946
4224.415, 0.1255569
4226.343, 1.428365
4228.271, 0.7159695
4230.200, -0.5099611
4232.128, 0.8833283
4234.057, 0.1579142
4235.985, -0.2454385
4237.914, 0.6042113
4239.842, 0.1424320
4241.771, -7.7472761E-02
4243.699, -0.4100183
4245.628, 0.5958610
4247.556, 0.9170016
4249.485, -0.2033339
4251.413, -4.3482771E-03
4253.342, -0.8047407
4255.270, -0.9565055
4257.199, 0.9212926
4259.127, 0.5631117
4261.056, 0.6489369
4262.984, 1.150326
4264.913, -0.2497912
4266.841, 0.3702488
4268.770, -0.6353992
4270.698, -0.1365425
4272.626, 1.001755
4274.555, -0.1204577
4276.483, 1.075177
4278.412, 1.000551
4280.340, 1.328823
4282.269, 0.6258088
4284.197, -0.7997959
4286.125, -0.3266211
4288.054, -0.2457364
4289.982, 6.8822943E-02
4291.911, 0.6938009
4293.839, -1.769481
4295.768, 0.8536480
4297.696, 0.5589837
4299.625, -1.287880
4301.553, -0.2198808
4303.482, 1.234173
4305.410, -0.5656964
4307.339, -8.1954457E-02
4309.267, 0.2903974
4311.196, 0.9164703
4313.124, 0.3292205
4315.053, 0.4822313
4316.981, 0.7761794
4318.910, 0.8798530
4320.838, 0.6091410
4322.767, 0.3844706
4324.695, 0.3787082
4326.624, 4.0833361E-02
4328.552, 5.7363495E-02
4330.480, -0.2701058
4332.409, -3.2221708E-02
4334.337, 0.2838697
4336.266, 0.2074482
4338.194, 0.2638813
4340.123, 1.083663
4342.051, 0.8366439
4343.979, 0.8333032
4345.908, 1.013100
4347.836, 0.8751714
4349.765, -0.2288207
4351.693, 0.6339823
4353.622, 0.3732607
4355.550, -0.2597466
4357.479, 0.2716102
4359.407, 0.7380398
4361.336, -5.7500459E-02
4363.264, -0.3248955
4365.193, 3.9835621E-02
4367.121, 0.1422967
4369.050, -0.8218591
4370.978, 0.5433816
4372.907, 1.205584
4374.835, 0.2783703
4376.764, 0.6876113
4378.692, 0.7138233
4380.621, 1.215117
##END=



