##NAMES=Ankerite
##RRUFFID=R050197
##IDEAL CHEMISTRY=Ca(Fe^2+^,Mg)(CO_3_)_2_
##LOCALITY=Brownley Hill mine, Nenthead, Cumbria, England
##OWNER=RRUFF
##SOURCE=Marcus Origlieri
##DESCRIPTION=Curved saddle-shaped rhombohedral crystals
##STATUS=The identification of this mineral has been confirmed by X-ray diffraction and chemical analysis
##URL=https://www.rruff.net/odr/rruff_sample/R050197
##MEASURED CHEMISTRY=Ca_1.00_(Fe^2+^_0.52_Mg_0.35_Ca_0.08_Mn^2+^_0.05_)(CO_3_)_2_ ; where C was not measured but estimated by difference and stoichiometry
##DIFFRACTION SAMPLE DESCRIPTION=Powder
##CELL PARAMETERS=a: 4.8328 b: 4.8328 c: 16.209 alpha: 90 beta: 90 gamma: 120 volume: 327.86 crystal system: hexagonal
##FILETYPE=Raman RAW
##RAMAN WAVELENGTH=532

86.70190, 23.68911
88.63037, 23.31750
90.55884, 27.34463
92.48730, 33.33135
94.41577, 40.39735
96.34424, 48.71707
98.27271, 57.72163
100.2012, 67.13169
102.1296, 77.27846
104.0581, 88.26503
105.9866, 98.98756
107.9150, 111.7682
109.8435, 127.9107
111.7720, 148.2976
113.7004, 170.6899
115.6289, 195.5864
117.5574, 222.5565
119.4858, 250.5576
121.4143, 280.9484
123.3428, 311.7159
125.2712, 341.1907
127.1997, 369.5963
129.1282, 383.5174
131.0566, 387.3091
132.9851, 387.8506
134.9136, 390.7713
136.8420, 395.8609
138.7705, 403.0726
140.6990, 411.9510
142.6274, 424.1477
144.5559, 436.0745
146.4844, 445.8568
148.4128, 452.2548
150.3413, 461.7758
152.2698, 475.9020
154.1982, 493.3499
156.1267, 512.4009
158.0552, 530.9532
159.9836, 552.4063
161.9121, 580.1115
163.8406, 614.7306
165.7690, 648.8552
167.6975, 684.8877
169.6260, 721.5994
171.5544, 745.1998
173.4829, 760.3428
175.4114, 760.6979
177.3398, 743.4990
179.2683, 701.8394
181.1968, 655.4500
183.1252, 605.0856
185.0537, 551.2552
186.9822, 504.5964
188.9106, 466.4191
190.8391, 435.4868
192.7676, 410.2980
194.6960, 393.8200
196.6245, 380.7692
198.5530, 371.5318
200.4814, 365.7780
202.4099, 361.6399
204.3384, 359.1977
206.2668, 358.1404
208.1953, 358.5164
210.1238, 360.7290
212.0523, 363.7591
213.9807, 367.3202
215.9092, 371.3135
217.8377, 376.5517
219.7661, 383.0264
221.6946, 390.6878
223.6231, 399.4193
225.5515, 408.4452
227.4800, 419.4917
229.4085, 433.0546
231.3369, 449.5958
233.2654, 467.1484
235.1939, 486.5153
237.1223, 506.4847
239.0508, 525.4592
240.9793, 541.7543
242.9077, 559.6929
244.8362, 581.1211
246.7647, 607.6922
248.6931, 633.4347
250.6216, 656.4549
252.5501, 679.3051
254.4785, 704.5038
256.4070, 728.4169
258.3354, 758.9166
260.2639, 798.8259
262.1924, 848.6962
264.1208, 903.9001
266.0493, 964.3415
267.9778, 1030.069
269.9063, 1102.274
271.8347, 1184.196
273.7632, 1269.468
275.6917, 1360.350
277.6201, 1456.235
279.5486, 1546.072
281.4771, 1635.796
283.4055, 1716.021
285.3340, 1772.727
287.2625, 1808.609
289.1909, 1821.280
291.1194, 1807.310
293.0479, 1769.979
294.9763, 1709.416
296.9048, 1616.245
298.8333, 1506.544
300.7617, 1392.189
302.6902, 1269.104
304.6187, 1150.941
306.5471, 1039.387
308.4756, 933.2068
310.4041, 841.7385
312.3325, 765.8706
314.2610, 701.8248
316.1895, 647.1433
318.1179, 601.8793
320.0464, 563.5839
321.9749, 531.7927
323.9033, 506.2595
325.8318, 484.3369
327.7603, 466.5831
329.6887, 451.5871
331.6172, 438.5927
333.5457, 427.7357
335.4742, 418.2025
337.4026, 409.9701
339.3311, 402.9003
341.2596, 396.3323
343.1880, 389.8019
345.1165, 384.3060
347.0450, 380.4620
348.9734, 378.9234
350.9019, 376.6032
352.8304, 372.6491
354.7588, 367.9362
356.6873, 363.8095
358.6158, 360.3498
360.5442, 357.2441
362.4727, 354.5616
364.4012, 352.5234
366.3296, 349.7365
368.2581, 345.2311
370.1866, 340.6857
372.1150, 337.2932
374.0435, 334.7563
375.9720, 334.2172
377.9004, 337.3958
379.8289, 343.5980
381.7574, 346.1897
383.6858, 342.5910
385.6143, 337.6848
387.5428, 333.5533
389.4712, 329.9934
391.3997, 327.8867
393.3282, 328.0191
395.2566, 329.4725
397.1851, 330.1649
399.1136, 329.2001
401.0420, 329.0094
402.9705, 331.1703
404.8990, 336.3832
406.8274, 339.2411
408.7559, 338.3139
410.6844, 335.9342
412.6128, 333.9362
414.5413, 331.8227
416.4698, 331.1882
418.3982, 333.2438
420.3267, 337.4259
422.2552, 340.3539
424.1836, 342.3392
426.1121, 343.0429
428.0406, 341.6784
429.9690, 338.1774
431.8975, 335.4735
433.8260, 334.7254
435.7544, 334.9101
437.6829, 334.5815
439.6114, 332.7304
441.5398, 331.7176
443.4683, 332.7907
445.3968, 335.4290
447.3252, 337.5005
449.2537, 339.0150
451.1822, 339.7467
453.1106, 338.9800
455.0391, 335.9410
456.9676, 334.4400
458.8960, 336.6530
460.8245, 340.5566
462.7530, 343.0478
464.6814, 341.9859
466.6099, 341.5364
468.5384, 343.1052
470.4668, 346.4633
472.3953, 348.8154
474.3238, 349.6486
476.2522, 349.5576
478.1807, 348.7738
480.1092, 345.5452
482.0376, 344.5285
483.9661, 347.4049
485.8946, 352.2839
487.8230, 355.9278
489.7515, 358.0197
491.6800, 359.2591
493.6084, 359.8066
495.5369, 359.6030
497.4654, 359.3709
499.3938, 358.9745
501.3223, 358.6846
503.2508, 358.7871
505.1792, 359.4151
507.1077, 359.7348
509.0362, 358.5461
510.9646, 357.1910
512.8931, 358.2041
514.8215, 362.9146
516.7500, 367.7007
518.6785, 372.1780
520.6069, 376.1450
522.5354, 378.2189
524.4639, 375.5459
526.3923, 373.0975
528.3208, 373.7004
530.2493, 378.2856
532.1777, 381.1839
534.1062, 380.5814
536.0347, 378.6151
537.9631, 377.2494
539.8916, 376.0129
541.8201, 376.3251
543.7485, 379.7535
545.6770, 385.0233
547.6055, 387.8807
549.5339, 386.7924
551.4624, 385.4846
553.3909, 385.8011
555.3193, 388.1834
557.2478, 388.9478
559.1763, 386.7809
561.1047, 384.0858
563.0332, 382.5975
564.9617, 382.3062
566.8901, 382.5280
568.8186, 383.4207
570.7471, 384.6618
572.6755, 385.8750
574.6040, 386.8313
576.5325, 388.0778
578.4609, 390.2146
580.3894, 392.7650
582.3179, 394.3182
584.2464, 394.0275
586.1749, 393.6363
588.1033, 393.8434
590.0318, 394.7504
591.9603, 395.5622
593.8887, 396.5423
595.8172, 397.1462
597.7457, 396.7699
599.6741, 395.2208
601.6026, 394.1078
603.5311, 394.2823
605.4595, 394.9349
607.3880, 395.0289
609.3165, 394.0557
611.2449, 393.4257
613.1734, 393.3092
615.1019, 393.7536
617.0303, 394.8958
618.9588, 397.7396
620.8873, 399.9016
622.8157, 400.2271
624.7442, 398.6097
626.6727, 397.6894
628.6011, 397.9223
630.5296, 398.3924
632.4581, 398.7170
634.3865, 398.9232
636.3150, 399.0303
638.2435, 398.7707
640.1719, 398.6411
642.1004, 399.1351
644.0289, 400.5252
645.9573, 401.7675
647.8858, 402.6921
649.8143, 403.3422
651.7427, 403.6927
653.6712, 403.1547
655.5997, 403.3664
657.5281, 404.7963
659.4566, 407.2333
661.3851, 410.0143
663.3135, 413.7089
665.2420, 416.8997
667.1705, 418.2655
669.0989, 418.3526
671.0274, 420.1488
672.9559, 425.1060
674.8843, 430.6827
676.8128, 436.2475
678.7413, 441.8474
680.6697, 447.1003
682.5982, 452.5650
684.5267, 457.2474
686.4551, 460.5786
688.3836, 462.2394
690.3121, 463.9844
692.2405, 464.1746
694.1690, 465.4090
696.0975, 470.3447
698.0259, 479.1776
699.9544, 489.6614
701.8829, 501.0128
703.8113, 514.0449
705.7398, 529.8162
707.6683, 549.9604
709.5967, 570.2371
711.5252, 589.0952
713.4537, 607.9406
715.3821, 629.9669
717.3106, 656.1971
719.2391, 682.9740
721.1675, 713.1586
723.0960, 743.3004
725.0245, 762.9326
726.9529, 771.4844
728.8814, 768.3334
730.8099, 750.4750
732.7383, 718.7589
734.6668, 682.6058
736.5953, 637.8433
738.5237, 594.9423
740.4522, 557.1009
742.3807, 524.2726
744.3091, 498.5561
746.2376, 484.3643
748.1661, 473.1558
750.0945, 461.4284
752.0230, 449.1686
753.9515, 440.3076
755.8799, 436.7251
757.8084, 434.8459
759.7369, 432.6581
761.6653, 430.0556
763.5938, 428.3199
765.5223, 428.1682
767.4507, 428.4494
769.3792, 428.4337
771.3077, 428.0426
773.2361, 428.1522
775.1646, 429.3546
777.0931, 430.5995
779.0215, 431.0527
780.9500, 430.3940
782.8785, 430.1638
784.8069, 430.9340
786.7354, 431.9002
788.6639, 432.4415
790.5923, 432.5573
792.5208, 432.5574
794.4493, 432.1779
796.3777, 431.9768
798.3062, 432.2994
800.2347, 433.1120
802.1631, 434.4688
804.0916, 437.2132
806.0201, 439.8490
807.9485, 440.5409
809.8770, 438.3802
811.8055, 437.1484
813.7339, 438.9390
815.6624, 441.0260
817.5909, 440.6148
819.5193, 436.5514
821.4478, 434.3004
823.3763, 435.8156
825.3047, 438.8675
827.2332, 441.2404
829.1617, 443.0150
831.0901, 443.6359
833.0186, 441.8242
834.9471, 439.3757
836.8755, 437.9040
838.8040, 437.4759
840.7325, 437.9080
842.6609, 439.7090
844.5894, 442.0847
846.5179, 444.2896
848.4464, 446.4110
850.3748, 448.3039
852.3033, 450.4079
854.2318, 451.9934
856.1602, 452.0238
858.0887, 450.0675
860.0172, 449.2267
861.9456, 450.9420
863.8741, 453.5938
865.8026, 455.8172
867.7310, 456.6059
869.6595, 458.9460
871.5880, 464.2795
873.5164, 470.1132
875.4449, 474.7338
877.3734, 478.2907
879.3018, 479.4080
881.2303, 475.8161
883.1588, 471.1298
885.0872, 467.5789
887.0157, 465.3632
888.9442, 464.1451
890.8726, 464.5066
892.8011, 465.4334
894.7296, 466.4883
896.6580, 467.6844
898.5865, 468.4179
900.5150, 468.2094
902.4434, 467.8756
904.3719, 467.5941
906.3004, 467.2018
908.2288, 467.8977
910.1573, 471.4970
912.0858, 474.3144
914.0142, 473.7086
915.9427, 469.9153
917.8712, 468.8682
919.7996, 472.7665
921.7281, 476.6664
923.6566, 478.6022
925.5850, 478.8289
927.5135, 477.9704
929.4420, 473.8632
931.3704, 471.4469
933.2989, 472.5955
935.2274, 476.5948
937.1558, 480.5831
939.0843, 485.3069
941.0128, 488.7852
942.9412, 489.4171
944.8697, 488.6179
946.7982, 488.8977
948.7266, 491.1241
950.6551, 492.3587
952.5836, 491.4895
954.5120, 489.4927
956.4405, 487.6129
958.3690, 484.7259
960.2974, 483.9622
962.2259, 487.6044
964.1544, 492.2000
966.0828, 493.9190
968.0113, 492.5180
969.9398, 492.4714
971.8682, 495.7740
973.7967, 499.8655
975.7252, 503.4048
977.6536, 506.5473
979.5821, 508.2729
981.5106, 506.3420
983.4390, 505.1448
985.3675, 507.5066
987.2960, 512.9736
989.2244, 517.0659
991.1529, 519.4078
993.0814, 520.6605
995.0098, 520.1600
996.9383, 518.7617
998.8668, 519.2915
1000.795, 522.9839
1002.724, 527.0276
1004.652, 532.3848
1006.581, 537.3909
1008.509, 538.0494
1010.438, 530.9581
1012.366, 527.8661
1014.294, 533.6388
1016.223, 542.4739
1018.151, 548.8975
1020.080, 552.7010
1022.008, 556.5311
1023.937, 560.3778
1025.865, 564.9034
1027.794, 570.0797
1029.722, 575.5851
1031.651, 584.1332
1033.579, 595.9284
1035.508, 610.0422
1037.436, 623.1656
1039.365, 638.2023
1041.293, 663.4025
1043.221, 696.5973
1045.150, 745.4318
1047.078, 819.8679
1049.007, 909.6469
1050.935, 1000.314
1052.864, 1100.627
1054.792, 1182.483
1056.721, 1242.171
1058.649, 1283.534
1060.578, 1303.887
1062.506, 1295.649
1064.435, 1306.030
1066.363, 1328.771
1068.292, 1379.279
1070.220, 1464.314
1072.148, 1582.678
1074.077, 1738.867
1076.005, 1934.609
1077.934, 2171.066
1079.862, 2443.035
1081.791, 2753.574
1083.719, 3109.216
1085.648, 3465.800
1087.576, 3931.627
1089.505, 4599.591
1091.433, 5328.909
1093.362, 6058.381
1095.290, 6821.655
1097.219, 7170.031
1099.147, 6920.631
1101.076, 6346.691
1103.004, 5516.192
1104.932, 4461.772
1106.861, 3536.192
1108.789, 2750.246
1110.718, 2107.618
1112.646, 1633.721
1114.575, 1298.553
1116.503, 1048.108
1118.432, 902.1409
1120.360, 792.4587
1122.289, 726.3421
1124.217, 684.5032
1126.146, 652.8687
1128.074, 631.0260
1130.003, 615.8173
1131.931, 610.1373
1133.859, 606.9407
1135.788, 603.6896
1137.716, 600.2627
1139.645, 596.0677
1141.573, 588.6251
1143.502, 583.7902
1145.430, 584.6957
1147.359, 587.4849
1149.287, 586.6000
1151.216, 581.0718
1153.144, 577.5455
1155.073, 577.8222
1157.001, 579.2074
1158.930, 580.4931
1160.858, 581.6070
1162.786, 582.2444
1164.715, 582.2045
1166.643, 581.9486
1168.572, 581.4460
1170.500, 580.9260
1172.429, 580.7451
1174.357, 581.0485
1176.286, 581.5924
1178.214, 582.1312
1180.143, 583.1587
1182.071, 585.2128
1184.000, 588.2177
1185.928, 591.1785
1187.857, 595.2186
1189.785, 597.1239
1191.714, 592.8900
1193.642, 586.8105
1195.570, 585.3044
1197.499, 589.4968
1199.427, 593.4354
1201.356, 596.2308
1203.284, 598.2434
1205.213, 599.4040
1207.141, 599.7211
1209.070, 600.3874
1210.998, 603.1452
1212.927, 604.1124
1214.855, 600.1058
1216.784, 594.7877
1218.712, 594.1758
1220.641, 598.6278
1222.569, 603.6803
1224.497, 610.5091
1226.426, 615.6739
1228.354, 616.0991
1230.283, 613.0106
1232.211, 611.1725
1234.140, 611.2056
1236.068, 611.7494
1237.997, 612.8658
1239.925, 614.0989
1241.854, 615.0276
1243.782, 615.7863
1245.711, 616.0223
1247.639, 614.3973
1249.568, 613.8693
1251.496, 616.3818
1253.424, 620.9241
1255.353, 624.4621
1257.281, 626.8829
1259.210, 628.6017
1261.138, 628.8240
1263.067, 629.0060
1264.995, 630.6307
1266.924, 633.3922
1268.852, 634.5919
1270.781, 632.4280
1272.709, 631.4595
1274.638, 634.3376
1276.566, 638.6563
1278.495, 640.6780
1280.423, 638.5314
1282.351, 639.1175
1284.280, 645.3619
1286.208, 651.1767
1288.137, 653.2242
1290.065, 652.4437
1291.994, 652.4193
1293.922, 652.8649
1295.851, 654.5222
1297.779, 658.8426
1299.708, 663.4138
1301.636, 666.4230
1303.565, 668.1053
1305.493, 669.3184
1307.422, 669.7274
1309.350, 670.6388
1311.278, 672.4996
1313.207, 675.0748
1315.135, 678.6115
1317.064, 683.6344
1318.992, 686.1787
1320.921, 683.6315
1322.849, 681.0397
1324.778, 679.2108
1326.706, 678.6936
1328.635, 681.0719
1330.563, 689.6335
1332.492, 694.6502
1334.420, 693.5093
1336.349, 691.2831
1338.277, 690.1533
1340.205, 690.3011
1342.134, 692.2307
1344.062, 696.5776
1345.991, 700.5825
1347.919, 703.7848
1349.848, 705.9911
1351.776, 706.5614
1353.705, 705.7951
1355.633, 705.8263
1357.562, 707.1606
1359.490, 708.4447
1361.419, 709.1196
1363.347, 709.7817
1365.276, 711.3328
1367.204, 714.2224
1369.132, 715.4720
1371.061, 712.2230
1372.989, 711.1078
1374.918, 716.2565
1376.846, 722.8898
1378.775, 723.7495
1380.703, 716.4491
1382.632, 713.7455
1384.560, 719.5566
1386.489, 725.1161
1388.417, 726.1334
1390.346, 725.7422
1392.274, 729.9691
1394.203, 739.3679
1396.131, 744.9309
1398.059, 741.5443
1399.988, 739.7592
1401.916, 747.3992
1403.845, 758.9711
1405.773, 765.2087
1407.702, 765.0581
1409.630, 766.8651
1411.559, 772.4840
1413.487, 779.9068
1415.416, 788.8485
1417.344, 798.7292
1419.273, 808.1924
1421.201, 816.9216
1423.130, 825.6492
1425.058, 834.0934
1426.986, 842.6735
1428.915, 851.8504
1430.843, 861.2709
1432.772, 870.0892
1434.700, 878.4510
1436.629, 886.2307
1438.557, 894.3622
1440.486, 901.1483
1442.414, 907.7197
1444.343, 911.9496
1446.271, 907.6412
1448.200, 893.0406
1450.128, 880.1527
1452.057, 872.2960
1453.985, 864.3524
1455.913, 853.1312
1457.842, 840.5602
1459.770, 830.0922
1461.699, 821.9525
1463.627, 814.1563
1465.556, 805.7950
1467.484, 798.5387
1469.413, 793.6112
1471.341, 789.9141
1473.270, 785.4727
1475.198, 780.0013
1477.127, 776.1119
1479.055, 775.1735
1480.984, 774.5851
1482.912, 773.7118
1484.840, 772.7781
1486.769, 771.8983
1488.697, 770.9271
1490.626, 771.0551
1492.554, 774.4398
1494.483, 775.9559
1496.411, 770.7777
1498.340, 765.0968
1500.268, 767.5147
1502.197, 779.2108
1504.125, 784.8076
1506.054, 779.4853
1507.982, 775.3444
1509.911, 775.5866
1511.839, 777.2103
1513.767, 777.4987
1515.696, 776.7713
1517.624, 777.3424
1519.553, 779.8935
1521.481, 782.3400
1523.410, 784.3441
1525.338, 785.9528
1527.267, 786.7286
1529.195, 787.0275
1531.124, 788.1174
1533.052, 790.0797
1534.981, 792.2684
1536.909, 794.7365
1538.838, 797.2336
1540.766, 799.9838
1542.694, 802.6022
1544.623, 804.0461
1546.551, 804.2259
1548.480, 806.1639
1550.408, 812.1542
1552.337, 816.4957
1554.265, 814.3645
1556.194, 810.8023
1558.122, 811.4682
1560.051, 815.9720
1561.979, 819.4811
1563.908, 821.4847
1565.836, 822.8997
1567.765, 823.2697
1569.693, 824.0929
1571.621, 827.0135
1573.550, 831.5463
1575.478, 834.4398
1577.407, 834.5518
1579.335, 836.5989
1581.264, 843.4835
1583.192, 849.5045
1585.121, 850.7805
1587.049, 850.0636
1588.978, 852.4082
1590.906, 858.6093
1592.835, 864.1912
1594.763, 871.3314
1596.692, 875.1574
1598.620, 873.3192
1600.548, 869.3843
1602.477, 865.6254
1604.405, 862.3335
1606.334, 861.7556
1608.262, 865.8950
1610.191, 869.4344
1612.119, 872.6152
1614.048, 874.3104
1615.976, 872.2213
1617.905, 868.5934
1619.833, 868.3910
1621.762, 872.8597
1623.690, 874.9193
1625.619, 873.4171
1627.547, 871.4849
1629.475, 869.2997
1631.404, 867.7254
1633.332, 868.7015
1635.261, 871.4384
1637.189, 870.1829
1639.118, 862.1107
1641.046, 857.2208
1642.975, 857.4795
1644.903, 859.4406
1646.832, 863.3561
1648.760, 866.9725
1650.689, 865.9808
1652.617, 859.9207
1654.546, 857.2536
1656.474, 859.4352
1658.402, 862.3378
1660.331, 867.3016
1662.259, 870.7117
1664.188, 869.5245
1666.116, 865.2491
1668.045, 861.1245
1669.973, 856.9425
1671.902, 854.7729
1673.830, 854.3193
1675.759, 856.5702
1677.687, 865.3486
1679.616, 873.9629
1681.544, 874.4725
1683.473, 869.0905
1685.401, 868.3500
1687.329, 873.1338
1689.258, 878.9091
1691.186, 888.1705
1693.115, 894.3568
1695.043, 892.8157
1696.972, 888.2174
1698.900, 884.9121
1700.829, 883.1170
1702.757, 885.0726
1704.686, 891.9861
1706.614, 898.8602
1708.543, 905.9525
1710.471, 911.4364
1712.400, 912.3412
1714.328, 912.3148
1716.256, 917.4730
1718.185, 927.3110
1720.113, 934.6111
1722.042, 937.6210
1723.970, 941.8182
1725.899, 948.0281
1727.827, 955.9987
1729.756, 965.8574
1731.684, 977.3444
1733.613, 990.1310
1735.541, 1004.299
1737.470, 1019.825
1739.398, 1037.371
1741.327, 1054.835
1743.255, 1072.583
1745.183, 1089.108
1747.112, 1105.494
1749.040, 1119.042
1750.969, 1125.287
1752.897, 1124.172
1754.826, 1118.449
1756.754, 1107.433
1758.683, 1093.815
1760.611, 1076.481
1762.540, 1058.645
1764.468, 1041.572
1766.397, 1025.243
1768.325, 1008.970
1770.254, 992.7234
1772.182, 981.0759
1774.110, 975.8046
1776.039, 971.1437
1777.967, 965.5560
1779.896, 961.3696
1781.824, 961.2559
1783.753, 962.0926
1785.681, 958.2255
1787.610, 950.3068
1789.538, 949.3478
1791.467, 961.5472
1793.395, 968.1724
1795.324, 962.9186
1797.252, 959.2933
1799.181, 964.3838
1801.109, 971.5199
1803.037, 973.4415
1804.966, 971.1383
1806.894, 970.2343
1808.823, 971.5590
1810.751, 971.9490
1812.680, 970.8604
1814.608, 969.8019
1816.537, 970.0895
1818.465, 969.8854
1820.394, 965.7928
1822.322, 960.8359
1824.251, 963.6855
1826.179, 977.2702
1828.108, 983.5854
1830.036, 976.7366
1831.964, 973.2331
1833.893, 978.2384
1835.821, 983.7262
1837.750, 985.4131
1839.678, 985.3552
1841.607, 986.5435
1843.535, 988.7894
1845.464, 989.9349
1847.392, 990.0615
1849.321, 988.9414
1851.249, 985.0773
1853.178, 982.8384
1855.106, 985.3885
1857.035, 988.9163
1858.963, 989.8698
1860.891, 989.8234
1862.820, 992.7678
1864.748, 998.6796
1866.677, 1005.751
1868.605, 1015.800
1870.534, 1020.128
1872.462, 1011.262
1874.391, 1003.323
1876.319, 1004.695
1878.248, 1010.730
1880.176, 1018.351
1882.105, 1026.100
1884.033, 1026.847
1885.962, 1018.749
1887.890, 1017.233
1889.818, 1029.822
1891.747, 1038.454
1893.675, 1034.152
1895.604, 1028.074
1897.532, 1027.406
1899.461, 1029.695
1901.389, 1030.992
1903.318, 1031.410
1905.246, 1033.000
1907.175, 1036.722
1909.103, 1039.372
1911.032, 1038.715
1912.960, 1039.797
1914.889, 1045.927
1916.817, 1052.218
1918.745, 1055.244
1920.674, 1055.888
1922.602, 1055.648
1924.531, 1054.554
1926.459, 1053.782
1928.388, 1053.353
1930.316, 1053.410
1932.245, 1051.823
1934.173, 1053.969
1936.102, 1066.613
1938.030, 1077.990
1939.959, 1077.425
1941.887, 1070.711
1943.816, 1068.634
1945.744, 1070.876
1947.672, 1075.378
1949.601, 1083.104
1951.529, 1087.026
1953.458, 1084.247
1955.386, 1081.291
1957.315, 1079.844
1959.243, 1080.175
1961.172, 1083.105
1963.100, 1087.537
1965.029, 1092.238
1966.957, 1096.947
1968.886, 1099.982
1970.814, 1101.060
1972.743, 1101.247
1974.671, 1099.166
1976.599, 1098.312
1978.528, 1099.804
1980.456, 1102.268
1982.385, 1105.894
1984.313, 1109.365
1986.242, 1110.274
1988.170, 1109.426
1990.099, 1111.359
1992.027, 1117.294
1993.956, 1119.449
1995.884, 1114.832
1997.813, 1112.945
1999.741, 1118.239
2001.670, 1122.584
2003.598, 1120.586
2005.526, 1118.496
2007.455, 1122.865
2009.383, 1130.123
2011.312, 1132.735
2013.240, 1131.512
2015.169, 1132.931
2017.097, 1137.818
2019.026, 1141.521
2020.954, 1142.372
2022.883, 1143.207
2024.811, 1144.708
2026.740, 1146.324
2028.668, 1148.770
2030.597, 1150.438
2032.525, 1148.687
2034.453, 1144.836
2036.382, 1142.976
2038.310, 1143.258
2040.239, 1145.129
2042.167, 1149.462
2044.096, 1153.411
2046.024, 1156.208
2047.953, 1159.319
2049.881, 1165.473
2051.810, 1169.392
2053.738, 1164.815
2055.667, 1158.724
2057.595, 1160.888
2059.523, 1168.544
2061.452, 1173.413
2063.381, 1175.335
2065.309, 1176.994
2067.238, 1178.192
2069.166, 1180.683
2071.094, 1186.488
2073.023, 1190.911
2074.951, 1193.215
2076.880, 1192.999
2078.808, 1186.930
2080.737, 1180.637
2082.665, 1182.570
2084.594, 1189.908
2086.522, 1192.776
2088.451, 1190.406
2090.379, 1190.081
2092.308, 1191.880
2094.236, 1195.592
2096.165, 1204.055
2098.093, 1208.160
2100.021, 1200.442
2101.950, 1195.113
2103.878, 1203.269
2105.807, 1214.201
2107.735, 1218.207
2109.664, 1218.016
2111.592, 1218.263
2113.521, 1218.813
2115.449, 1219.321
2117.378, 1219.564
2119.306, 1220.108
2121.235, 1220.223
2123.163, 1221.769
2125.092, 1226.247
2127.020, 1230.468
2128.948, 1233.299
2130.877, 1235.989
2132.805, 1240.160
2134.734, 1244.028
2136.662, 1243.617
2138.591, 1241.606
2140.519, 1246.796
2142.448, 1258.039
2144.376, 1264.385
2146.305, 1264.505
2148.233, 1265.581
2150.162, 1269.218
2152.090, 1272.008
2154.019, 1273.784
2155.947, 1273.749
2157.875, 1269.472
2159.804, 1266.064
2161.732, 1267.944
2163.661, 1272.287
2165.589, 1276.339
2167.518, 1279.803
2169.446, 1280.742
2171.375, 1279.450
2173.303, 1282.040
2175.232, 1289.093
2177.160, 1292.505
2179.089, 1289.502
2181.017, 1289.044
2182.946, 1295.072
2184.874, 1300.420
2186.802, 1303.744
2188.731, 1304.189
2190.659, 1298.283
2192.588, 1292.321
2194.516, 1293.445
2196.445, 1298.636
2198.373, 1302.111
2200.302, 1304.151
2202.230, 1307.263
2204.159, 1311.488
2206.087, 1313.328
2208.016, 1312.238
2209.944, 1311.216
2211.873, 1310.956
2213.801, 1310.449
2215.729, 1308.832
2217.658, 1308.101
2219.586, 1308.994
2221.515, 1311.073
2223.443, 1315.671
2225.372, 1319.693
2227.300, 1317.406
2229.229, 1313.105
2231.157, 1316.876
2233.086, 1327.402
2235.014, 1335.537
2236.943, 1341.314
2238.871, 1344.563
2240.800, 1344.838
2242.728, 1345.451
2244.656, 1347.351
2246.585, 1347.634
2248.513, 1344.308
2250.442, 1341.190
2252.370, 1339.279
2254.299, 1338.578
2256.227, 1338.981
2258.156, 1341.024
2260.084, 1345.726
2262.013, 1352.030
2263.941, 1359.107
2265.870, 1366.067
2267.798, 1369.981
2269.727, 1371.025
2271.655, 1370.972
2273.583, 1369.857
2275.512, 1367.914
2277.440, 1364.151
2279.369, 1363.929
2281.297, 1369.857
2283.226, 1376.558
2285.154, 1386.156
2287.083, 1392.044
2289.011, 1388.931
2290.940, 1385.344
2292.868, 1385.473
2294.797, 1387.304
2296.725, 1390.664
2298.654, 1393.824
2300.582, 1393.518
2302.510, 1391.997
2304.439, 1395.101
2306.367, 1401.657
2308.296, 1403.028
2310.224, 1398.038
2312.153, 1399.242
2314.081, 1409.691
2316.010, 1415.145
2317.938, 1412.951
2319.867, 1412.306
2321.795, 1415.480
2323.724, 1418.483
2325.652, 1420.864
2327.581, 1422.198
2329.509, 1421.771
2331.438, 1421.214
2333.366, 1420.479
2335.294, 1420.992
2337.223, 1424.906
2339.151, 1429.758
2341.080, 1431.456
2343.008, 1431.789
2344.937, 1436.690
2346.865, 1443.962
2348.794, 1443.258
2350.722, 1435.983
2352.651, 1435.936
2354.579, 1444.824
2356.508, 1448.521
2358.436, 1442.427
2360.365, 1441.655
2362.293, 1453.150
2364.221, 1458.995
2366.150, 1453.075
2368.078, 1449.057
2370.007, 1449.990
2371.935, 1452.949
2373.864, 1458.317
2375.792, 1463.212
2377.721, 1465.068
2379.649, 1467.026
2381.578, 1473.257
2383.506, 1479.716
2385.435, 1480.303
2387.363, 1478.684
2389.292, 1481.709
2391.220, 1487.687
2393.148, 1491.643
2395.077, 1493.832
2397.005, 1496.241
2398.934, 1498.621
2400.862, 1496.877
2402.791, 1489.670
2404.719, 1488.913
2406.648, 1500.009
2408.576, 1506.367
2410.505, 1504.227
2412.433, 1505.849
2414.362, 1514.973
2416.290, 1521.538
2418.219, 1521.955
2420.147, 1522.250
2422.075, 1525.207
2424.004, 1528.021
2425.932, 1529.815
2427.861, 1530.732
2429.789, 1529.286
2431.718, 1528.623
2433.646, 1530.726
2435.575, 1535.176
2437.503, 1543.692
2439.432, 1552.395
2441.360, 1555.547
2443.289, 1554.922
2445.217, 1553.758
2447.146, 1552.232
2449.074, 1549.626
2451.002, 1546.572
2452.931, 1546.846
2454.859, 1550.382
2456.788, 1560.036
2458.716, 1576.172
2460.645, 1583.252
2462.573, 1579.447
2464.502, 1573.379
2466.430, 1563.463
2468.359, 1561.682
2470.287, 1578.377
2472.216, 1588.153
2474.144, 1583.494
2476.073, 1581.011
2478.001, 1585.293
2479.929, 1587.657
2481.858, 1583.250
2483.786, 1581.000
2485.715, 1586.325
2487.643, 1593.005
2489.572, 1600.346
2491.500, 1604.779
2493.429, 1599.951
2495.357, 1595.532
2497.286, 1600.929
2499.214, 1608.695
2501.143, 1611.924
2503.071, 1613.028
2505.000, 1613.469
2506.928, 1614.778
2508.856, 1621.179
2510.785, 1629.370
2512.713, 1630.315
2514.642, 1627.432
2516.570, 1633.245
2518.499, 1644.920
2520.427, 1649.242
2522.356, 1647.303
2524.284, 1644.703
2526.213, 1641.771
2528.141, 1642.935
2530.070, 1648.529
2531.998, 1654.977
2533.927, 1663.123
2535.855, 1665.589
2537.783, 1661.298
2539.712, 1660.159
2541.640, 1663.794
2543.569, 1666.835
2545.497, 1668.295
2547.426, 1670.024
2549.354, 1672.200
2551.283, 1674.550
2553.211, 1675.739
2555.140, 1680.222
2557.068, 1691.315
2558.997, 1698.770
2560.925, 1698.959
2562.854, 1696.608
2564.782, 1688.774
2566.710, 1686.015
2568.639, 1696.561
2570.567, 1706.281
2572.496, 1708.305
2574.424, 1710.406
2576.353, 1717.036
2578.281, 1722.763
2580.210, 1724.313
2582.138, 1723.631
2584.067, 1719.009
2585.995, 1715.918
2587.924, 1720.050
2589.852, 1725.568
2591.781, 1728.530
2593.709, 1730.009
2595.637, 1731.216
2597.566, 1731.523
2599.494, 1728.609
2601.423, 1726.167
2603.351, 1730.820
2605.280, 1736.697
2607.208, 1734.375
2609.137, 1728.743
2611.065, 1725.711
2612.994, 1725.541
2614.922, 1730.225
2616.851, 1737.041
2618.779, 1740.310
2620.708, 1742.010
2622.636, 1747.701
2624.564, 1755.245
2626.493, 1758.653
2628.421, 1759.021
2630.350, 1758.151
2632.278, 1757.004
2634.207, 1758.332
2636.135, 1762.001
2638.064, 1769.456
2639.992, 1778.988
2641.921, 1778.024
2643.849, 1769.832
2645.778, 1770.623
2647.706, 1778.951
2649.635, 1782.592
2651.563, 1782.303
2653.491, 1788.690
2655.420, 1801.255
2657.348, 1805.585
2659.277, 1802.550
2661.205, 1801.385
2663.134, 1802.179
2665.062, 1803.530
2666.991, 1805.458
2668.919, 1805.969
2670.848, 1804.952
2672.776, 1809.316
2674.705, 1818.813
2676.633, 1822.345
2678.562, 1819.609
2680.490, 1817.821
2682.418, 1817.051
2684.347, 1817.668
2686.275, 1819.579
2688.204, 1823.259
2690.132, 1828.887
2692.061, 1833.371
2693.989, 1836.766
2695.918, 1837.072
2697.846, 1833.486
2699.775, 1834.229
2701.703, 1839.974
2703.632, 1845.331
2705.560, 1850.178
2707.489, 1850.606
2709.417, 1846.348
2711.345, 1846.582
2713.274, 1852.863
2715.202, 1855.412
2717.131, 1853.230
2719.059, 1854.712
2720.988, 1859.956
2722.916, 1865.867
2724.845, 1872.269
2726.773, 1871.999
2728.702, 1863.757
2730.630, 1859.530
2732.559, 1859.162
2734.487, 1865.918
2736.416, 1879.392
2738.344, 1888.180
2740.272, 1891.721
2742.201, 1891.896
2744.129, 1888.622
2746.058, 1887.786
2747.986, 1889.460
2749.915, 1888.141
2751.843, 1884.302
2753.772, 1884.152
2755.700, 1887.701
2757.629, 1891.929
2759.557, 1896.726
2761.486, 1897.566
2763.414, 1895.322
2765.343, 1901.231
2767.271, 1912.696
2769.199, 1913.140
2771.128, 1904.764
2773.056, 1902.407
2774.985, 1905.094
2776.913, 1907.721
2778.842, 1910.438
2780.770, 1913.850
2782.699, 1917.897
2784.627, 1923.386
2786.556, 1928.798
2788.484, 1928.099
2790.413, 1924.166
2792.341, 1926.438
2794.270, 1932.031
2796.198, 1934.914
2798.126, 1936.273
2800.055, 1938.509
2801.983, 1940.723
2803.912, 1939.538
2805.840, 1938.193
2807.769, 1942.800
2809.697, 1949.464
2811.626, 1953.891
2813.554, 1956.250
2815.483, 1954.741
2817.411, 1953.276
2819.340, 1957.693
2821.268, 1962.993
2823.197, 1965.001
2825.125, 1965.730
2827.053, 1968.095
2828.982, 1968.877
2830.910, 1963.179
2832.839, 1958.366
2834.767, 1957.928
2836.696, 1961.632
2838.624, 1972.283
2840.553, 1982.184
2842.481, 1989.755
2844.410, 1990.895
2846.338, 1976.006
2848.267, 1969.170
2850.195, 1985.096
2852.124, 1996.625
2854.052, 1989.863
2855.980, 1984.674
2857.909, 1986.207
2859.837, 1989.373
2861.766, 1994.911
2863.694, 1996.854
2865.623, 1990.830
2867.551, 1990.333
2869.480, 2001.304
2871.408, 2005.808
2873.337, 2001.622
2875.265, 1999.290
2877.194, 1999.521
2879.122, 2005.147
2881.051, 2018.197
2882.979, 2025.150
2884.907, 2026.219
2886.836, 2025.128
2888.764, 2022.614
2890.693, 2022.284
2892.621, 2024.413
2894.550, 2032.624
2896.478, 2044.276
2898.407, 2046.478
2900.335, 2043.182
2902.264, 2044.515
2904.192, 2048.626
2906.121, 2053.326
2908.049, 2057.312
2909.978, 2057.815
2911.906, 2056.944
2913.834, 2056.602
2915.763, 2056.879
2917.691, 2059.072
2919.620, 2060.428
2921.548, 2057.420
2923.477, 2054.926
2925.405, 2056.241
2927.334, 2058.360
2929.262, 2059.534
2931.191, 2061.803
2933.119, 2064.506
2935.048, 2071.600
2936.976, 2087.887
2938.905, 2095.109
2940.833, 2081.703
2942.761, 2075.930
2944.690, 2085.369
2946.618, 2092.741
2948.547, 2097.333
2950.475, 2100.209
2952.404, 2101.529
2954.332, 2100.476
2956.261, 2096.904
2958.189, 2094.597
2960.118, 2093.836
2962.046, 2097.579
2963.975, 2104.786
2965.903, 2114.043
2967.832, 2121.635
2969.760, 2112.877
2971.688, 2098.984
2973.617, 2102.401
2975.545, 2109.736
2977.474, 2102.886
2979.402, 2095.462
2981.331, 2102.682
2983.259, 2111.740
2985.188, 2115.800
2987.116, 2117.366
2989.045, 2118.344
2990.973, 2116.163
2992.902, 2105.315
2994.830, 2101.402
2996.759, 2111.228
2998.687, 2115.285
3000.615, 2104.015
3002.544, 2101.749
3004.472, 2111.628
3006.401, 2120.677
3008.329, 2128.053
3010.258, 2128.971
3012.186, 2123.824
3014.115, 2127.585
3016.043, 2137.773
3017.972, 2139.693
3019.900, 2137.039
3021.829, 2136.842
3023.757, 2139.513
3025.686, 2146.686
3027.614, 2155.761
3029.542, 2168.458
3031.471, 2174.911
3033.399, 2159.420
3035.328, 2147.150
3037.256, 2157.962
3039.185, 2166.445
3041.113, 2164.210
3043.042, 2160.069
3044.970, 2154.468
3046.899, 2153.147
3048.827, 2158.358
3050.756, 2161.625
3052.684, 2162.292
3054.613, 2165.992
3056.541, 2172.995
3058.469, 2174.700
3060.398, 2171.882
3062.326, 2167.622
3064.255, 2163.715
3066.183, 2164.782
3068.112, 2168.125
3070.040, 2168.732
3071.969, 2169.829
3073.897, 2175.588
3075.826, 2181.727
3077.754, 2186.915
3079.683, 2189.411
3081.611, 2185.056
3083.540, 2184.990
3085.468, 2194.370
3087.396, 2199.144
3089.325, 2193.041
3091.253, 2189.123
3093.182, 2187.598
3095.110, 2187.157
3097.039, 2188.147
3098.967, 2198.665
3100.896, 2214.992
3102.824, 2218.938
3104.753, 2214.886
3106.681, 2209.851
3108.610, 2206.111
3110.538, 2208.583
3112.467, 2210.947
3114.395, 2204.428
3116.323, 2201.030
3118.252, 2210.342
3120.180, 2216.561
3122.109, 2211.157
3124.037, 2207.270
3125.966, 2206.585
3127.894, 2206.649
3129.823, 2207.481
3131.751, 2205.264
3133.680, 2200.261
3135.608, 2207.160
3137.537, 2221.498
3139.465, 2229.223
3141.394, 2231.971
3143.322, 2229.651
3145.250, 2227.550
3147.179, 2232.395
3149.107, 2238.567
3151.036, 2246.415
3152.964, 2247.761
3154.893, 2233.145
3156.821, 2225.998
3158.750, 2231.992
3160.678, 2240.932
3162.607, 2252.932
3164.535, 2260.756
3166.464, 2264.119
3168.392, 2257.623
3170.321, 2245.770
3172.249, 2247.056
3174.177, 2253.707
3176.106, 2249.081
3178.034, 2243.722
3179.963, 2250.448
3181.891, 2256.831
3183.820, 2253.989
3185.748, 2250.021
3187.677, 2245.661
3189.605, 2246.042
3191.534, 2256.046
3193.462, 2259.263
3195.391, 2254.557
3197.319, 2262.151
3199.248, 2279.271
3201.176, 2285.146
3203.104, 2282.817
3205.033, 2277.304
3206.961, 2271.742
3208.890, 2268.636
3210.818, 2268.717
3212.747, 2275.180
3214.675, 2280.537
3216.604, 2281.550
3218.532, 2283.804
3220.461, 2291.778
3222.389, 2292.142
3224.318, 2283.918
3226.246, 2278.476
3228.175, 2276.728
3230.103, 2282.692
3232.031, 2292.244
3233.960, 2294.727
3235.888, 2296.152
3237.817, 2307.697
3239.745, 2314.513
3241.674, 2300.460
3243.602, 2290.972
3245.531, 2295.152
3247.459, 2299.183
3249.388, 2298.955
3251.316, 2300.811
3253.245, 2304.469
3255.173, 2314.931
3257.102, 2326.636
3259.030, 2317.349
3260.958, 2300.145
3262.887, 2296.965
3264.815, 2298.817
3266.744, 2300.681
3268.672, 2303.120
3270.601, 2308.363
3272.529, 2309.375
3274.458, 2302.795
3276.386, 2302.569
3278.315, 2310.843
3280.243, 2314.840
3282.172, 2315.255
3284.100, 2315.018
3286.029, 2314.797
3287.957, 2315.994
3289.885, 2317.531
3291.814, 2316.292
3293.742, 2319.116
3295.671, 2335.967
3297.599, 2342.595
3299.528, 2331.327
3301.456, 2334.403
3303.385, 2356.746
3305.313, 2356.072
3307.242, 2338.917
3309.170, 2342.029
3311.099, 2352.318
3313.027, 2352.281
3314.956, 2346.666
3316.884, 2333.725
3318.813, 2327.674
3320.741, 2338.807
3322.669, 2345.215
3324.598, 2341.390
3326.526, 2342.905
3328.455, 2349.199
3330.383, 2348.095
3332.312, 2343.225
3334.240, 2345.529
3336.169, 2352.142
3338.097, 2367.952
3340.026, 2373.889
3341.954, 2342.852
3343.883, 2329.711
3345.811, 2351.361
3347.740, 2364.619
3349.668, 2362.420
3351.596, 2361.980
3353.525, 2363.210
3355.453, 2366.681
3357.382, 2370.780
3359.310, 2374.939
3361.239, 2375.373
3363.167, 2365.566
3365.096, 2360.066
3367.024, 2368.529
3368.953, 2373.870
3370.881, 2374.923
3372.810, 2371.221
3374.738, 2364.019
3376.667, 2358.005
3378.595, 2356.249
3380.523, 2367.342
3382.452, 2380.445
3384.380, 2389.943
3386.309, 2392.057
3388.237, 2382.890
3390.166, 2378.350
3392.094, 2383.649
3394.023, 2380.185
3395.951, 2371.119
3397.880, 2377.093
3399.808, 2389.638
3401.737, 2398.372
3403.665, 2401.162
3405.594, 2393.419
3407.522, 2387.692
3409.450, 2392.632
3411.379, 2390.224
3413.307, 2379.083
3415.236, 2380.782
3417.164, 2392.453
3419.093, 2400.156
3421.021, 2404.169
3422.950, 2405.816
3424.878, 2403.584
3426.807, 2390.529
3428.735, 2386.198
3430.664, 2396.892
3432.592, 2403.824
3434.521, 2404.906
3436.449, 2410.171
3438.377, 2416.233
3440.306, 2412.272
3442.234, 2406.902
3444.163, 2412.479
3446.091, 2414.708
3448.020, 2405.565
3449.948, 2397.959
3451.877, 2393.014
3453.805, 2401.774
3455.734, 2419.882
3457.662, 2419.492
3459.591, 2412.427
3461.519, 2421.031
3463.448, 2429.219
3465.376, 2424.754
3467.304, 2419.624
3469.233, 2415.543
3471.161, 2416.070
3473.090, 2421.327
3475.018, 2423.060
3476.947, 2422.975
3478.875, 2425.289
3480.804, 2428.621
3482.732, 2432.763
3484.661, 2436.489
3486.589, 2440.434
3488.518, 2438.913
3490.446, 2429.772
3492.375, 2431.410
3494.303, 2438.478
3496.231, 2433.759
3498.160, 2425.588
3500.088, 2421.045
3502.017, 2420.548
3503.945, 2426.638
3505.874, 2428.575
3507.802, 2424.120
3509.731, 2421.975
3511.659, 2423.078
3513.588, 2433.115
3515.516, 2442.308
3517.445, 2435.393
3519.373, 2428.195
3521.302, 2430.497
3523.230, 2426.529
3525.158, 2413.614
3527.087, 2422.397
3529.015, 2445.179
3530.944, 2443.573
3532.872, 2434.712
3534.801, 2440.214
3536.729, 2444.222
3538.658, 2435.267
3540.586, 2433.975
3542.515, 2443.159
3544.443, 2452.850
3546.372, 2461.238
3548.300, 2463.457
3550.229, 2459.924
3552.157, 2444.071
3554.085, 2435.599
3556.014, 2442.980
3557.942, 2451.059
3559.871, 2457.989
3561.799, 2460.797
3563.728, 2460.167
3565.656, 2456.634
3567.585, 2452.528
3569.513, 2449.103
3571.442, 2447.891
3573.370, 2450.771
3575.299, 2449.293
3577.227, 2443.320
3579.156, 2443.594
3581.084, 2447.338
3583.012, 2451.410
3584.941, 2452.323
3586.869, 2444.993
3588.798, 2443.265
3590.726, 2454.172
3592.655, 2458.695
3594.583, 2458.608
3596.512, 2462.337
3598.440, 2468.795
3600.369, 2480.357
3602.297, 2486.853
3604.226, 2478.884
3606.154, 2477.424
3608.083, 2484.129
3610.011, 2480.989
3611.939, 2471.529
3613.868, 2462.089
3615.796, 2456.438
3617.725, 2457.068
3619.653, 2462.698
3621.582, 2474.495
3623.510, 2479.416
3625.439, 2477.481
3627.367, 2473.423
3629.296, 2472.014
3631.224, 2483.821
3633.153, 2493.457
3635.081, 2492.204
3637.010, 2488.720
3638.938, 2483.974
3640.866, 2488.183
3642.795, 2496.145
3644.723, 2495.232
3646.652, 2491.287
3648.580, 2485.427
3650.509, 2484.130
3652.437, 2488.631
3654.366, 2492.817
3656.294, 2496.659
3658.223, 2504.415
3660.151, 2509.983
3662.080, 2505.830
3664.008, 2500.550
3665.937, 2496.410
3667.865, 2492.750
3669.793, 2489.783
3671.722, 2490.618
3673.650, 2492.975
3675.579, 2493.855
3677.507, 2495.620
3679.436, 2500.259
3681.364, 2501.941
3683.293, 2500.024
3685.221, 2508.076
3687.150, 2517.672
3689.078, 2511.819
3691.007, 2504.160
3692.935, 2503.693
3694.864, 2499.416
3696.792, 2489.430
3698.720, 2482.985
3700.649, 2480.112
3702.577, 2481.155
3704.506, 2484.245
3706.434, 2487.188
3708.363, 2496.209
3710.291, 2513.631
3712.220, 2514.340
3714.148, 2504.485
3716.077, 2500.656
3718.005, 2500.667
3719.934, 2506.236
3721.862, 2507.230
3723.791, 2500.996
3725.719, 2500.145
3727.647, 2502.403
3729.576, 2497.315
3731.504, 2493.634
3733.433, 2501.589
3735.361, 2506.378
3737.290, 2505.162
3739.218, 2506.614
3741.147, 2510.355
3743.075, 2515.344
3745.004, 2518.636
3746.932, 2515.708
3748.861, 2514.830
3750.789, 2517.401
3752.718, 2520.466
3754.646, 2522.524
3756.574, 2519.880
3758.503, 2513.967
3760.431, 2502.192
3762.360, 2495.889
3764.288, 2497.232
3766.217, 2500.922
3768.145, 2506.651
3770.074, 2517.504
3772.002, 2524.431
3773.931, 2517.165
3775.859, 2513.623
3777.788, 2515.630
3779.716, 2509.905
3781.645, 2503.793
3783.573, 2513.387
3785.501, 2526.894
3787.430, 2542.796
3789.358, 2544.713
3791.287, 2531.833
3793.215, 2523.348
3795.144, 2520.502
3797.072, 2530.492
3799.001, 2534.005
3800.929, 2521.677
3802.858, 2507.721
3804.786, 2496.230
3806.715, 2511.714
3808.643, 2527.840
3810.572, 2511.065
3812.500, 2503.821
3814.428, 2518.519
3816.357, 2520.062
3818.285, 2512.502
3820.214, 2514.945
3822.142, 2520.515
3824.071, 2525.043
3825.999, 2528.818
3827.928, 2532.041
3829.856, 2533.748
3831.785, 2534.000
3833.713, 2531.281
3835.642, 2529.284
3837.570, 2531.046
3839.499, 2530.669
3841.427, 2527.613
3843.355, 2517.540
3845.284, 2510.796
3847.212, 2524.297
3849.141, 2533.762
3851.069, 2530.793
3852.998, 2523.134
3854.926, 2514.052
3856.855, 2512.018
3858.783, 2512.493
3860.712, 2510.822
3862.640, 2516.515
3864.569, 2530.666
3866.497, 2538.693
3868.426, 2539.089
3870.354, 2519.958
3872.282, 2513.732
3874.211, 2534.836
3876.139, 2535.826
3878.068, 2521.664
3879.996, 2530.912
3881.925, 2538.404
3883.853, 2515.983
3885.782, 2501.372
3887.710, 2500.962
3889.639, 2510.913
3891.567, 2523.934
3893.496, 2519.880
3895.424, 2511.448
3897.353, 2505.900
3899.281, 2510.724
3901.209, 2519.896
3903.138, 2522.510
3905.066, 2521.571
3906.995, 2515.107
3908.923, 2512.507
3910.852, 2512.475
3912.780, 2518.187
3914.709, 2526.216
3916.637, 2531.620
3918.566, 2533.279
3920.494, 2527.492
3922.423, 2521.322
3924.351, 2515.979
3926.280, 2512.029
3928.208, 2512.948
3930.136, 2514.312
3932.065, 2515.286
3933.993, 2520.958
3935.922, 2519.530
3937.850, 2514.725
3939.779, 2516.937
3941.707, 2516.173
3943.636, 2512.642
3945.564, 2513.128
3947.493, 2512.842
3949.421, 2510.982
3951.350, 2513.636
3953.278, 2517.389
3955.207, 2514.476
3957.135, 2512.361
3959.063, 2516.852
3960.992, 2513.938
3962.920, 2505.407
3964.849, 2505.372
3966.777, 2503.923
3968.706, 2505.649
3970.634, 2511.405
3972.563, 2511.790
3974.491, 2510.054
3976.420, 2506.879
3978.348, 2504.774
3980.277, 2505.058
3982.205, 2505.239
3984.134, 2510.706
3986.062, 2516.120
3987.990, 2503.142
3989.919, 2494.232
3991.847, 2495.539
3993.776, 2493.887
3995.704, 2494.335
3997.633, 2500.775
3999.561, 2506.103
4001.490, 2508.779
4003.418, 2504.219
4005.347, 2496.848
4007.275, 2495.227
4009.204, 2492.170
4011.132, 2493.575
4013.061, 2496.947
4014.989, 2497.102
4016.917, 2488.898
4018.846, 2486.118
4020.774, 2500.901
4022.703, 2502.871
4024.631, 2490.259
4026.560, 2492.337
4028.488, 2497.145
4030.417, 2489.560
4032.345, 2486.826
4034.274, 2492.030
4036.202, 2495.877
4038.131, 2492.645
4040.059, 2489.870
4041.988, 2493.890
4043.916, 2498.372
4045.844, 2491.734
4047.773, 2484.842
4049.701, 2489.438
4051.630, 2492.654
4053.558, 2488.259
4055.487, 2483.792
4057.415, 2481.717
4059.344, 2487.775
4061.272, 2492.356
4063.201, 2490.767
4065.129, 2494.384
4067.058, 2497.514
4068.986, 2489.508
4070.915, 2479.082
4072.843, 2479.857
4074.771, 2483.557
4076.700, 2481.880
4078.628, 2479.807
4080.557, 2478.649
4082.485, 2484.754
4084.414, 2490.040
4086.342, 2487.435
4088.271, 2478.551
4090.199, 2473.328
4092.128, 2473.562
4094.056, 2474.345
4095.985, 2475.649
4097.913, 2471.483
4099.842, 2469.464
4101.770, 2476.231
4103.699, 2476.546
4105.627, 2472.443
4107.556, 2469.138
4109.484, 2468.001
4111.413, 2471.081
4113.341, 2470.218
4115.270, 2467.727
4117.198, 2466.875
4119.126, 2463.912
4121.055, 2457.491
4122.983, 2454.341
4124.912, 2456.447
4126.840, 2470.768
4128.769, 2478.897
4130.697, 2458.533
4132.625, 2450.034
4134.554, 2455.014
4136.482, 2457.222
4138.411, 2460.854
4140.339, 2464.078
4142.268, 2467.217
4144.196, 2471.524
4146.125, 2462.933
4148.053, 2453.670
4149.982, 2455.161
4151.910, 2456.244
4153.839, 2457.457
4155.767, 2462.772
4157.696, 2464.966
4159.624, 2454.162
4161.553, 2451.816
4163.481, 2457.973
4165.410, 2456.146
4167.338, 2453.229
4169.267, 2454.434
4171.195, 2456.753
4173.124, 2458.608
4175.052, 2454.117
4176.980, 2448.994
4178.909, 2448.831
4180.837, 2441.945
4182.766, 2430.675
4184.694, 2435.830
4186.623, 2445.740
4188.551, 2455.856
4190.479, 2455.446
4192.408, 2446.182
4194.336, 2439.494
4196.265, 2438.782
4198.193, 2449.152
4200.122, 2450.890
4202.050, 2447.127
4203.979, 2451.552
4205.907, 2454.877
4207.836, 2453.159
4209.764, 2442.959
4211.693, 2431.874
4213.621, 2444.559
4215.550, 2449.689
4217.478, 2425.846
4219.407, 2431.674
4221.335, 2448.469
4223.264, 2441.594
4225.192, 2434.113
4227.121, 2432.491
4229.049, 2437.695
4230.978, 2443.316
4232.906, 2440.594
4234.834, 2434.724
4236.763, 2426.851
4238.691, 2419.997
4240.620, 2416.500
4242.548, 2420.059
4244.477, 2423.337
4246.405, 2425.515
4248.333, 2428.314
4250.262, 2430.250
4252.190, 2430.167
4254.119, 2431.275
4256.047, 2432.553
4257.976, 2428.267
4259.904, 2425.525
4261.833, 2428.125
4263.761, 2423.049
4265.690, 2418.018
4267.618, 2437.101
4269.547, 2440.809
4271.475, 2418.326
4273.404, 2409.791
4275.332, 2413.616
4277.261, 2432.595
4279.189, 2439.338
4281.118, 2431.089
4283.046, 2422.136
4284.975, 2415.741
4286.903, 2412.297
4288.832, 2421.777
4290.760, 2437.775
4292.688, 2432.853
4294.617, 2430.669
4296.545, 2445.751
4298.474, 2431.869
4300.402, 2405.791
4302.331, 2400.842
4304.259, 2400.997
4306.188, 2402.333
4308.116, 2412.728
4310.044, 2421.873
4311.973, 2417.351
4313.901, 2412.760
4315.830, 2408.793
4317.758, 2396.231
4319.687, 2388.531
4321.615, 2396.487
4323.544, 2404.884
4325.472, 2410.265
4327.401, 2403.963
4329.329, 2399.217
4331.258, 2400.227
4333.186, 2412.792
4335.115, 2423.075
4337.043, 2410.867
4338.972, 2403.373
4340.900, 2402.558
4342.829, 2396.466
4344.757, 2392.879
4346.686, 2397.520
4348.614, 2403.806
4350.542, 2408.554
4352.471, 2404.368
4354.399, 2399.423
4356.328, 2395.958
4358.256, 2391.318
4360.185, 2391.115
4362.113, 2404.470
4364.042, 2404.871
4365.970, 2394.958
4367.898, 2397.915
4369.827, 2400.900
4371.755, 2398.638
4373.684, 2403.150
4375.612, 2407.113
4377.541, 2398.385
4379.469, 2390.883
4381.398, 2386.863
4383.326, 2382.365
4385.255, 2385.422
4387.183, 2402.781
4389.112, 2399.787
4391.040, 2386.572
4392.969, 2387.226
4394.897, 2389.157
4396.826, 2389.001
4398.754, 2378.392
4400.683, 2370.455
4402.611, 2379.440
4404.540, 2380.363
4406.468, 2375.893
4408.396, 2376.957
4410.325, 2378.309
4412.253, 2378.072
4414.182, 2388.121
4416.110, 2394.567
4418.039, 2379.624
4419.967, 2374.317
4421.896, 2377.240
4423.824, 2375.328
4425.752, 2371.923
4427.681, 2367.929
4429.609, 2369.155
4431.538, 2370.799
4433.466, 2367.948
4435.395, 2366.270
4437.323, 2365.717
4439.252, 2359.813
4441.180, 2366.694
4443.109, 2390.389
4445.037, 2368.213
4446.966, 2341.927
4448.894, 2362.175
4450.823, 2365.469
4452.751, 2355.939
4454.680, 2365.989
4456.608, 2371.099
4458.537, 2362.135
4460.465, 2359.394
4462.394, 2359.094
4464.322, 2357.664
4466.250, 2358.859
4468.179, 2362.259
4470.107, 2368.012
4472.036, 2370.979
4473.964, 2369.778
4475.893, 2356.578
4477.821, 2349.958
4479.750, 2365.420
4481.678, 2365.345
4483.606, 2356.861
4485.535, 2357.399
4487.463, 2359.726
4489.392, 2361.791
4491.320, 2354.023
4493.249, 2356.908
4495.177, 2389.556
4497.106, 2389.725
4499.034, 2374.514
4500.963, 2365.120
4502.891, 2358.938
4504.820, 2356.585
4506.748, 2367.042
4508.677, 2372.724
4510.605, 2368.483
4512.534, 2365.690
4514.462, 2363.057
4516.391, 2357.883
4518.319, 2358.018
4520.248, 2359.119
4522.176, 2348.985
4524.104, 2340.183
4526.033, 2335.255
4527.961, 2336.031
4529.890, 2335.393
4531.818, 2330.094
4533.747, 2322.846
4535.675, 2315.130
4537.604, 2305.548
4539.532, 2309.203
4541.460, 2319.677
4543.389, 2316.447
4545.317, 2308.404
4547.246, 2299.380
4549.174, 2316.290
4551.103, 2331.615
4553.031, 2328.342
4554.960, 2305.392
4556.888, 2283.060
4558.817, 2291.042
4560.745, 2288.027
4562.674, 2277.430
4564.602, 2289.221
4566.531, 2303.183
4568.459, 2312.275
4570.388, 2301.770
4572.316, 2289.071
4574.245, 2286.041
4576.173, 2284.860
4578.102, 2282.917
4580.030, 2274.953
4581.958, 2278.020
4583.887, 2287.615
4585.815, 2287.135
4587.744, 2281.455
4589.672, 2273.177
4591.601, 2270.783
4593.529, 2270.105
4595.458, 2268.750
4597.386, 2269.063
4599.314, 2267.857
4601.243, 2260.629
4603.171, 2259.659
4605.100, 2262.199
4607.028, 2260.206
4608.957, 2260.791
4610.885, 2263.195
4612.814, 2258.604
4614.742, 2253.112
4616.671, 2249.011
4618.599, 2240.986
4620.528, 2235.268
4622.456, 2236.808
4624.385, 2233.260
4626.313, 2228.249
4628.242, 2225.021
4630.170, 2233.531
4632.099, 2245.564
4634.027, 2240.376
4635.956, 2228.014
4637.884, 2213.379
4639.813, 2218.291
4641.741, 2221.892
4643.669, 2217.553
4645.598, 2215.481
4647.526, 2215.729
4649.455, 2218.673
4651.383, 2216.621
4653.312, 2212.854
4655.240, 2212.808
4657.168, 2205.063
4659.097, 2197.195
4661.025, 2209.869
4662.954, 2212.664
4664.882, 2205.563
4666.811, 2204.972
4668.739, 2209.122
4670.668, 2216.007
4672.596, 2205.106
4674.525, 2194.267
4676.453, 2191.917
4678.382, 2205.487
4680.310, 2214.020
4682.239, 2201.070
4684.167, 2190.271
4686.096, 2185.875
4688.024, 2195.414
4689.953, 2194.700
4691.881, 2187.377
4693.810, 2185.633
4695.738, 2178.832
4697.667, 2169.284
4699.595, 2169.369
4701.523, 2170.719
4703.452, 2170.595
4705.380, 2166.155
4707.309, 2168.807
4709.237, 2182.848
4711.166, 2177.177
4713.094, 2167.508
4715.022, 2162.781
4716.951, 2156.787
4718.879, 2149.147
4720.808, 2135.032
4722.736, 2144.682
4724.665, 2159.200
4726.593, 2152.715
4728.522, 2154.527
4730.450, 2161.131
4732.379, 2160.998
4734.307, 2157.998
4736.236, 2151.577
4738.164, 2132.624
4740.093, 2130.302
4742.021, 2143.752
4743.950, 2141.915
4745.878, 2138.268
4747.807, 2136.823
4749.735, 2135.029
4751.664, 2139.728
4753.592, 2153.500
4755.521, 2130.728
4757.449, 2117.978
4759.377, 2137.975
4761.306, 2141.000
4763.234, 2138.746
4765.163, 2142.590
4767.091, 2135.803
4769.020, 2125.583
4770.948, 2118.120
4772.876, 2117.832
4774.805, 2122.316
4776.733, 2132.920
4778.662, 2124.972
4780.590, 2111.079
4782.519, 2113.692
4784.447, 2113.284
4786.376, 2110.485
4788.304, 2109.521
4790.233, 2119.262
4792.161, 2130.569
4794.090, 2112.074
4796.018, 2104.335
4797.947, 2108.431
4799.875, 2106.200
4801.804, 2096.369
4803.732, 2083.222
4805.661, 2089.669
4807.589, 2094.326
4809.518, 2093.553
4811.446, 2100.245
4813.375, 2103.316
4815.303, 2099.481
4817.231, 2092.672
4819.160, 2087.388
4821.088, 2085.444
4823.017, 2091.827
4824.945, 2091.486
4826.874, 2078.800
4828.802, 2081.662
4830.730, 2084.550
4832.659, 2080.125
4834.587, 2070.401
4836.516, 2062.867
4838.444, 2061.329
4840.373, 2067.216
4842.301, 2067.946
4844.230, 2056.337
4846.158, 2054.250
4848.087, 2050.284
4850.015, 2035.463
4851.944, 2051.193
4853.872, 2062.779
4855.801, 2045.728
4857.729, 2047.414
4859.658, 2049.743
4861.586, 2036.866
4863.515, 2041.462
4865.443, 2050.350
4867.372, 2053.700
4869.300, 2045.212
4871.229, 2034.451
4873.157, 2028.321
4875.085, 2026.716
4877.014, 2028.562
4878.942, 2033.447
4880.871, 2028.039
4882.799, 2024.803
4884.728, 2036.411
4886.656, 2039.442
4888.584, 2034.161
4890.513, 2020.798
4892.441, 2020.469
4894.370, 2022.581
4896.298, 2018.619
4898.227, 2009.109
4900.155, 2001.038
4902.084, 1998.837
4904.012, 2005.615
4905.941, 2014.928
4907.869, 2023.259
4909.798, 2022.420
4911.726, 2016.895
4913.655, 2009.664
4915.583, 2005.117
4917.512, 2003.671
4919.440, 2005.704
4921.369, 2004.307
4923.297, 2003.546
4925.226, 2004.998
4927.154, 2003.386
4929.083, 2001.863
4931.011, 2002.140
4932.939, 2009.782
4934.868, 2007.521
4936.796, 1990.251
4938.725, 1990.289
4940.653, 1990.653
4942.582, 1985.870
4944.510, 1981.644
4946.438, 1974.842
4948.367, 1966.799
4950.295, 1977.147
4952.224, 1981.262
4954.152, 1976.332
4956.081, 1975.553
4958.009, 1970.742
4959.938, 1964.644
4961.866, 1978.775
4963.795, 1973.778
4965.723, 1958.178
4967.652, 1977.208
4969.580, 1974.241
4971.509, 1956.680
4973.437, 1952.964
4975.366, 1953.691
4977.294, 1956.567
4979.223, 1961.567
4981.151, 1956.619
4983.080, 1948.613
4985.008, 1945.177
4986.937, 1951.126
4988.865, 1956.409
4990.793, 1952.011
4992.722, 1941.953
4994.650, 1936.813
4996.579, 1945.446
4998.507, 1941.556
5000.436, 1937.279
5002.364, 1938.647
5004.292, 1933.127
5006.221, 1929.639
5008.149, 1931.314
5010.078, 1934.613
5012.006, 1935.394
5013.935, 1931.690
5015.863, 1917.149
5017.792, 1908.591
5019.720, 1908.186
5021.649, 1914.438
5023.577, 1915.102
5025.506, 1912.780
5027.434, 1917.354
5029.363, 1917.349
5031.291, 1915.118
5033.220, 1915.606
5035.148, 1909.899
5037.077, 1904.855
5039.005, 1911.400
5040.934, 1896.944
5042.862, 1884.430
5044.791, 1886.880
5046.719, 1890.333
5048.647, 1887.016
5050.576, 1876.225
5052.504, 1881.623
5054.433, 1889.089
5056.361, 1891.869
5058.290, 1878.254
5060.218, 1872.566
5062.146, 1872.241
5064.075, 1860.359
5066.003, 1857.611
5067.932, 1859.594
5069.860, 1856.283
5071.789, 1859.476
5073.717, 1860.073
5075.646, 1848.886
5077.574, 1847.830
5079.503, 1852.200
5081.431, 1858.770
5083.360, 1861.432
5085.288, 1860.039
5087.217, 1854.934
5089.145, 1844.087
5091.074, 1840.953
5093.002, 1844.173
5094.931, 1841.731
5096.859, 1845.462
5098.788, 1850.528
5100.716, 1848.479
5102.645, 1834.333
5104.573, 1824.684
5106.501, 1834.436
5108.430, 1840.636
5110.358, 1836.378
5112.287, 1820.371
5114.215, 1812.575
5116.144, 1818.031
5118.072, 1830.629
5120.000, 1825.482
5121.929, 1821.238
5123.857, 1821.619
5125.786, 1830.614
5127.714, 1831.314
5129.643, 1826.915
5131.571, 1821.654
5133.500, 1814.839
5135.428, 1812.977
5137.357, 1818.839
5139.285, 1815.354
5141.214, 1816.958
5143.142, 1823.471
5145.071, 1816.313
5146.999, 1807.835
5148.928, 1799.807
5150.856, 1789.236
5152.785, 1788.971
5154.713, 1791.189
5156.642, 1787.469
5158.570, 1800.571
5160.499, 1813.850
5162.427, 1818.086
5164.355, 1802.249
5166.284, 1796.127
5168.212, 1799.302
5170.141, 1789.219
5172.069, 1778.949
5173.998, 1773.292
5175.926, 1775.675
5177.854, 1779.700
5179.783, 1784.509
5181.711, 1789.364
5183.640, 1782.801
5185.568, 1776.744
5187.497, 1774.093
5189.425, 1770.920
5191.354, 1765.543
5193.282, 1762.026
5195.211, 1767.621
5197.139, 1765.377
5199.068, 1759.091
5200.996, 1751.548
5202.925, 1760.352
5204.853, 1771.270
5206.782, 1776.415
5208.710, 1763.336
5210.639, 1752.568
5212.567, 1747.493
5214.496, 1748.421
5216.424, 1752.885
5218.353, 1756.393
5220.281, 1756.189
5222.209, 1755.978
5224.138, 1755.948
5226.066, 1753.695
5227.995, 1736.389
5229.923, 1742.551
5231.852, 1753.291
5233.780, 1732.938
5235.708, 1736.011
5237.637, 1740.269
5239.565, 1733.824
5241.494, 1726.399
5243.422, 1721.249
5245.351, 1720.632
5247.279, 1732.607
5249.208, 1728.659
5251.136, 1721.617
5253.065, 1726.234
5254.993, 1710.240
5256.922, 1700.196
5258.850, 1704.466
5260.779, 1717.609
5262.707, 1709.650
5264.636, 1695.083
5266.564, 1706.872
5268.493, 1703.233
5270.421, 1699.034
5272.350, 1702.361
5274.278, 1694.228
5276.207, 1684.155
5278.135, 1680.971
5280.063, 1703.846
5281.992, 1712.468
5283.920, 1707.669
5285.849, 1691.536
5287.777, 1698.782
5289.706, 1694.479
5291.634, 1678.419
5293.563, 1691.028
5295.491, 1688.978
5297.419, 1679.613
5299.348, 1677.308
5301.276, 1667.244
5303.205, 1666.211
5305.133, 1676.212
5307.062, 1671.601
5308.990, 1671.420
5310.919, 1671.032
5312.847, 1659.357
5314.776, 1665.456
5316.704, 1669.135
5318.633, 1661.262
5320.561, 1658.688
5322.490, 1650.022
5324.418, 1641.157
5326.347, 1643.923
5328.275, 1641.623
5330.204, 1643.028
5332.132, 1651.244
5334.061, 1653.360
5335.989, 1649.535
5337.917, 1642.378
5339.846, 1634.712
5341.774, 1631.930
5343.703, 1631.993
5345.631, 1632.633
5347.560, 1628.836
5349.488, 1619.983
5351.417, 1613.872
5353.345, 1624.092
5355.273, 1625.526
5357.202, 1619.283
5359.130, 1609.483
5361.059, 1616.829
5362.987, 1617.654
5364.916, 1612.471
5366.844, 1607.448
5368.773, 1601.794
5370.701, 1603.333
5372.630, 1610.371
5374.558, 1594.161
5376.487, 1598.405
5378.415, 1606.767
5380.344, 1595.833
5382.272, 1601.646
5384.201, 1600.755
5386.129, 1589.724
5388.058, 1581.804
5389.986, 1583.805
5391.915, 1586.688
5393.843, 1582.769
5395.771, 1586.012
5397.700, 1579.113
5399.628, 1569.254
5401.557, 1580.515
5403.485, 1568.734
5405.414, 1562.782
5407.342, 1574.963
5409.271, 1560.601
5411.199, 1563.585
5413.127, 1573.973
5415.056, 1567.647
5416.984, 1549.763
5418.913, 1546.270
5420.841, 1557.328
5422.770, 1552.566
5424.698, 1549.974
5426.627, 1545.740
5428.555, 1536.498
5430.484, 1546.509
5432.412, 1542.763
5434.341, 1532.421
5436.269, 1545.429
5438.198, 1558.505
5440.126, 1554.645
5442.055, 1535.143
5443.983, 1538.458
5445.912, 1523.304
5447.840, 1508.380
5449.769, 1514.822
5451.697, 1519.879
5453.625, 1520.155
5455.554, 1517.913
5457.482, 1517.619
5459.411, 1528.833
5461.339, 1531.514
5463.268, 1519.524
5465.196, 1506.452
5467.125, 1513.171
5469.053, 1516.758
5470.981, 1497.618
5472.910, 1501.652
5474.838, 1504.154
5476.767, 1501.772
5478.695, 1501.729
5480.624, 1499.460
5482.552, 1496.792
5484.481, 1493.839
5486.409, 1486.498
5488.338, 1489.238
5490.266, 1490.211
5492.195, 1481.170
5494.123, 1471.947
5496.052, 1472.626
5497.980, 1478.970
5499.909, 1485.912
5501.837, 1474.818
5503.766, 1466.925
5505.694, 1467.146
5507.623, 1471.946
5509.551, 1467.361
5511.479, 1461.195
5513.408, 1457.228
5515.336, 1449.576
5517.265, 1458.608
5519.193, 1461.111
5521.122, 1441.965
5523.050, 1467.637
5524.979, 1468.509
5526.907, 1449.233
5528.835, 1431.421
5530.764, 1430.570
5532.692, 1430.637
5534.621, 1430.681
5536.549, 1437.253
5538.478, 1432.601
5540.406, 1433.618
5542.335, 1438.961
5544.263, 1419.203
5546.192, 1414.802
5548.120, 1418.629
5550.049, 1423.255
5551.977, 1419.639
5553.906, 1424.470
5555.834, 1429.162
5557.763, 1425.489
5559.691, 1409.919
5561.620, 1404.644
5563.548, 1402.917
5565.477, 1395.241
5567.405, 1404.628
5569.333, 1404.378
5571.262, 1395.167
5573.190, 1385.919
5575.119, 1388.175
5577.047, 1398.081
5578.976, 1403.936
5580.904, 1388.339
5582.833, 1375.971
5584.761, 1379.580
5586.689, 1394.037
5588.618, 1402.280
5590.546, 1387.601
5592.475, 1378.220
5594.403, 1381.193
5596.332, 1373.134
5598.260, 1376.217
5600.189, 1377.088
5602.117, 1371.047
5604.046, 1372.984
5605.974, 1357.342
5607.903, 1353.309
5609.831, 1371.593
5611.760, 1371.615
5613.688, 1364.548
5615.617, 1359.970
5617.545, 1361.979
5619.474, 1365.930
5621.402, 1357.756
5623.331, 1345.998
5625.259, 1338.882
5627.188, 1341.365
5629.116, 1337.168
5631.044, 1331.058
5632.973, 1330.001
5634.901, 1343.043
5636.830, 1337.142
5638.758, 1323.782
5640.687, 1318.404
5642.615, 1322.338
5644.543, 1324.842
5646.472, 1321.402
5648.400, 1311.920
5650.329, 1319.602
5652.257, 1323.644
5654.186, 1319.847
5656.114, 1309.807
5658.043, 1325.969
5659.971, 1320.260
5661.900, 1305.425
5663.828, 1300.552
5665.757, 1299.926
5667.685, 1296.533
5669.614, 1294.226
5671.542, 1296.861
5673.471, 1303.735
5675.399, 1300.031
5677.328, 1296.295
5679.256, 1299.912
5681.185, 1292.325
5683.113, 1279.557
5685.042, 1273.064
5686.970, 1277.862
5688.898, 1282.331
5690.827, 1282.102
5692.755, 1279.927
5694.684, 1277.154
5696.612, 1268.012
5698.541, 1276.511
5700.469, 1277.607
5702.397, 1265.145
5704.326, 1273.453
5706.254, 1259.055
5708.183, 1252.445
5710.111, 1261.987
5712.040, 1263.822
5713.968, 1256.404
5715.897, 1252.850
5717.825, 1255.318
5719.754, 1258.610
5721.682, 1244.219
5723.611, 1242.604
5725.539, 1249.083
5727.468, 1239.895
5729.396, 1230.982
5731.325, 1236.493
5733.253, 1241.668
5735.182, 1228.093
5737.110, 1229.959
5739.039, 1238.568
5740.967, 1234.968
5742.896, 1211.581
5744.824, 1221.193
5746.752, 1221.715
5748.681, 1221.439
5750.609, 1227.159
5752.538, 1217.425
5754.466, 1210.594
5756.395, 1212.012
5758.323, 1215.940
5760.251, 1199.563
5762.180, 1204.354
5764.108, 1200.416
5766.037, 1190.909
5767.965, 1201.556
5769.894, 1195.518
5771.822, 1194.540
5773.751, 1198.138
5775.679, 1198.628
5777.608, 1202.405
5779.536, 1190.518
5781.465, 1181.597
5783.393, 1187.492
5785.322, 1179.614
5787.250, 1181.482
5789.179, 1183.374
5791.107, 1180.328
5793.036, 1177.115
5794.964, 1174.142
5796.893, 1171.941
5798.821, 1168.279
5800.750, 1159.094
5802.678, 1167.349
5804.606, 1163.465
5806.535, 1161.543
5808.463, 1175.355
5810.392, 1159.923
5812.320, 1153.956
5814.249, 1156.349
5816.177, 1158.028
5818.105, 1146.677
5820.034, 1145.210
5821.962, 1143.851
5823.891, 1137.696
5825.819, 1127.158
5827.748, 1135.511
5829.676, 1146.234
5831.605, 1149.216
5833.533, 1141.838
5835.462, 1138.217
5837.390, 1131.437
5839.319, 1122.233
5841.247, 1116.791
5843.176, 1130.984
5845.104, 1126.291
5847.033, 1126.059
5848.961, 1128.468
5850.890, 1122.858
5852.818, 1113.984
5854.747, 1115.898
5856.675, 1120.079
5858.604, 1120.703
5860.532, 1122.618
5862.460, 1116.411
5864.389, 1106.818
5866.317, 1100.288
5868.246, 1101.424
5870.174, 1104.364
5872.103, 1100.162
5874.031, 1095.263
5875.959, 1095.823
5877.888, 1106.830
5879.816, 1099.781
5881.745, 1095.781
5883.673, 1095.047
5885.602, 1084.733
5887.530, 1078.451
5889.459, 1087.140
5891.387, 1092.719
5893.316, 1086.286
5895.244, 1084.277
5897.173, 1085.250
5899.101, 1083.414
5901.030, 1079.097
5902.958, 1075.664
5904.887, 1080.494
5906.815, 1062.385
5908.744, 1057.340
5910.672, 1072.045
5912.601, 1057.058
5914.529, 1066.333
5916.458, 1063.771
5918.386, 1057.141
5920.314, 1062.831
5922.243, 1050.401
5924.171, 1056.612
5926.100, 1059.145
5928.028, 1052.136
5929.957, 1049.940
5931.885, 1045.928
5933.813, 1045.691
5935.742, 1048.717
5937.670, 1052.287
5939.599, 1052.015
5941.527, 1047.212
5943.456, 1035.880
5945.384, 1029.979
5947.313, 1040.635
5949.241, 1030.306
5951.170, 1019.947
5953.098, 1019.505
5955.027, 1026.988
5956.955, 1031.962
5958.884, 1035.651
5960.812, 1027.130
5962.741, 1024.318
5964.669, 1034.251
5966.598, 1032.420
5968.526, 1022.821
5970.455, 1010.201
5972.383, 1003.827
5974.312, 1009.494
5976.240, 1011.036
5978.168, 1015.383
5980.097, 1012.261
5982.025, 1006.210
5983.954, 1008.856
5985.882, 1007.584
5987.811, 997.1649
5989.739, 988.8055
5991.667, 989.7560
5993.596, 999.8924
5995.524, 986.6381
5997.453, 983.2648
5999.381, 986.7313
6001.310, 988.6370
6003.238, 986.7869
6005.167, 987.6390
6007.095, 985.5363
6009.024, 982.8372
6010.952, 980.2848
6012.881, 969.8265
6014.809, 971.5961
6016.738, 969.4324
6018.666, 967.0125
6020.595, 969.3629
6022.523, 959.9323
6024.452, 977.7856
6026.380, 977.9935
6028.309, 966.0042
6030.237, 962.8252
6032.166, 953.1232
6034.094, 951.4059
6036.022, 960.0408
6037.951, 965.1138
6039.879, 955.9438
6041.808, 967.0590
6043.736, 953.6232
6045.665, 946.6552
6047.593, 944.3107
6049.521, 930.5187
6051.450, 935.0087
6053.378, 942.5897
6055.307, 943.3442
6057.235, 937.4869
6059.164, 930.1574
6061.092, 927.6797
6063.021, 924.1620
6064.949, 927.1136
6066.878, 932.1995
6068.806, 930.5316
6070.735, 920.7001
6072.663, 920.5728
6074.592, 919.2712
6076.520, 917.9600
6078.449, 921.7953
6080.377, 915.4515
6082.306, 914.5228
6084.234, 907.6497
6086.163, 900.6292
6088.091, 901.9025
6090.020, 900.2609
6091.948, 906.5379
6093.876, 897.3299
6095.805, 888.9210
6097.733, 897.1450
6099.662, 905.5604
6101.590, 888.1254
6103.519, 889.8427
6105.447, 895.9814
6107.375, 889.8919
6109.304, 882.3763
6111.232, 882.4991
6113.161, 881.9251
6115.089, 873.4600
6117.018, 862.2659
6118.946, 865.7130
6120.875, 881.7020
6122.803, 876.2430
6124.732, 877.3301
6126.660, 886.1799
6128.589, 879.4169
6130.517, 879.4507
6132.446, 876.3289
6134.374, 863.6374
6136.303, 855.8509
6138.231, 866.5241
6140.160, 875.9603
6142.088, 869.8543
6144.017, 866.3317
6145.945, 861.0472
6147.874, 850.3978
6149.802, 845.8669
6151.730, 852.4098
6153.659, 856.8571
6155.587, 856.1784
6157.516, 850.6708
6159.444, 840.4030
6161.373, 844.9492
6163.301, 846.3494
6165.229, 854.2050
6167.158, 857.5368
6169.086, 844.3636
6171.015, 835.9510
6172.943, 832.4170
6174.872, 833.5968
6176.800, 831.7955
6178.729, 828.3951
6180.657, 839.3799
6182.586, 830.7186
6184.514, 824.3234
6186.443, 826.7048
6188.371, 829.4572
6190.300, 823.1668
6192.228, 819.2393
6194.157, 818.1989
6196.085, 823.3024
6198.014, 826.4495
6199.942, 821.1969
6201.871, 808.1774
6203.799, 813.7499
6205.728, 816.0536
6207.656, 812.4586
6209.584, 811.3702
6211.513, 816.9919
6213.441, 807.9475
6215.370, 810.2022
6217.298, 806.8818
6219.227, 804.9655
6221.155, 804.4722
6223.083, 793.7202
6225.012, 791.3052
6226.940, 802.8375
6228.869, 795.8231
6230.797, 788.5912
6232.726, 796.0856
6234.654, 782.6953
6236.583, 786.6998
6238.511, 780.6080
6240.440, 785.4156
6242.368, 790.4130
6244.297, 775.2910
6246.225, 783.2242
6248.154, 787.5267
6250.082, 787.2111
6252.011, 782.5863
6253.939, 776.9271
6255.868, 774.8887
6257.796, 769.7708
6259.725, 769.3491
6261.653, 763.1196
6263.582, 764.1677
6265.510, 772.5231
6267.438, 761.1486
6269.367, 756.8331
6271.295, 752.2267
6273.224, 750.7579
6275.152, 754.8336
6277.081, 761.5790
6279.009, 761.6937
6280.938, 759.8761
6282.866, 756.5029
6284.794, 752.6418
6286.723, 751.0499
6288.651, 751.8568
6290.580, 746.3114
6292.508, 754.6585
6294.437, 744.1664
6296.365, 747.2813
6298.294, 753.6412
6300.222, 742.1913
6302.151, 744.2252
6304.079, 750.9046
6306.008, 741.8619
6307.936, 727.0913
6309.865, 726.5857
6311.793, 742.3536
6313.722, 739.0577
6315.650, 730.5916
6317.579, 731.0549
6319.507, 730.5364
6321.436, 727.5437
6323.364, 725.7672
6325.292, 723.4263
6327.221, 712.3110
6329.149, 713.6407
6331.078, 719.6035
6333.006, 718.9337
6334.935, 711.9937
6336.863, 713.0945
6338.792, 703.2382
6340.720, 709.5665
6342.648, 711.2323
6344.577, 706.5242
6346.505, 703.0899
6348.434, 703.9596
6350.362, 702.3971
6352.291, 698.5306
6354.219, 699.4057
6356.148, 694.4963
6358.076, 687.1501
6360.005, 693.1436
6361.933, 692.8544
6363.862, 691.8071
6365.790, 686.5904
6367.719, 684.5348
6369.647, 684.4554
6371.576, 680.2154
6373.504, 672.2786
6375.433, 684.4736
6377.361, 683.7737
6379.290, 679.7281
6381.218, 679.4012
6383.146, 677.3224
6385.075, 665.0375
6387.003, 666.9357
6388.932, 671.9354
6390.860, 669.7020
6392.789, 667.0635
6394.717, 669.0128
6396.646, 672.5563
6398.574, 667.5314
6400.502, 662.2589
6402.431, 664.7734
6404.359, 668.9383
6406.288, 668.1301
6408.216, 663.9076
6410.145, 665.1344
6412.073, 659.9895
6414.002, 652.0235
6415.930, 655.3483
6417.859, 651.9758
6419.787, 643.7484
6421.716, 644.0656
6423.644, 643.7589
6425.573, 644.2989
6427.501, 646.1851
6429.430, 644.2153
6431.358, 642.9067
6433.287, 640.5653
6435.215, 631.9907
6437.144, 637.7170
6439.072, 628.7130
6441.000, 635.3643
6442.929, 642.1022
6444.857, 638.7318
6446.786, 631.1452
6448.714, 631.2360
6450.643, 632.7360
6452.571, 627.1095
6454.500, 623.3264
6456.428, 619.7465
6458.356, 621.9460
6460.285, 627.9071
6462.213, 621.2797
6464.142, 619.5450
6466.070, 619.0288
6467.999, 622.1343
6469.927, 620.9276
6471.856, 619.8585
6473.784, 619.1257
6475.713, 604.2997
6477.641, 614.7031
6479.570, 608.7812
6481.498, 607.2949
6483.427, 606.4201
6485.355, 607.5656
6487.284, 611.3463
6489.212, 605.8280
6491.141, 600.1670
6493.069, 600.4070
6494.998, 602.4015
6496.926, 595.3008
6498.854, 593.2169
6500.783, 598.8989
6502.711, 591.9760
6504.640, 590.9485
6506.568, 588.6264
6508.497, 595.6718
6510.425, 593.5195
6512.354, 589.8043
6514.282, 589.8549
6516.210, 585.1833
6518.139, 584.1096
6520.067, 579.3235
6521.996, 575.6433
6523.924, 581.5883
6525.853, 586.9227
6527.781, 584.9631
6529.710, 579.6503
6531.638, 577.1288
6533.567, 579.4788
6535.495, 576.7302
6537.424, 579.5681
6539.352, 575.0544
6541.281, 570.5103
6543.209, 571.6522
6545.138, 568.7303
6547.066, 571.4242
6548.995, 583.5914
6550.923, 573.9866
6552.852, 558.0422
6554.780, 561.4918
6556.708, 571.8710
6558.637, 566.8506
6560.565, 557.1670
6562.494, 561.8714
6564.422, 557.9666
6566.351, 553.9348
6568.279, 560.2255
6570.208, 556.1656
6572.136, 548.7363
6574.064, 560.5028
6575.993, 556.3127
6577.921, 547.7820
6579.850, 549.9068
6581.778, 545.4047
6583.707, 540.8106
6585.635, 547.2815
6587.564, 556.6123
6589.492, 553.2338
6591.421, 547.7543
6593.349, 542.5894
6595.278, 545.1774
6597.206, 550.3393
6599.135, 542.2599
6601.063, 534.3581
6602.992, 538.7258
6604.920, 545.9594
6606.849, 536.8396
6608.777, 538.2414
6610.706, 537.3968
6612.634, 534.3266
6614.563, 526.0480
6616.491, 524.3185
6618.419, 528.9554
6620.348, 527.6349
6622.276, 525.4193
6624.205, 533.6671
6626.133, 528.6045
6628.062, 527.0136
6629.990, 524.2035
##END=



