##NAMES=Aragonite
##RRUFFID=R080142
##IDEAL CHEMISTRY=Ca(CO_3_)
##LOCALITY=Miniere di Brosso, Ivrea, Torino, Italy
##OWNER=RRUFF
##SOURCE=Renato and Adriana Pagano
##DESCRIPTION=Sprays of colorless to white acicular crystals
##STATUS=The identification of this mineral is confirmed by single-crystal X-ray diffraction and chemical analysis
##URL=https://www.rruff.net/odr/rruff_sample/R080142
##MEASURED CHEMISTRY=(Ca_0.96_Sr_0.02_)CO_3_
##DIFFRACTION SAMPLE DESCRIPTION=Single crystal, powder profile is calculated
##CELL PARAMETERS=a: 4.963 b: 7.973 c: 5.746 alpha: 90 beta: 90 gamma: 90 volume: 227.34 crystal system: orthorhombic
##FILETYPE=Raman RAW
##RAMAN WAVELENGTH=532

86.91748, 110.4315
88.84595, 113.0497
90.77441, 115.0697
92.70288, 123.7374
94.63135, 134.2162
96.55981, 153.2769
98.48828, 185.6847
100.4167, 229.8679
102.3452, 292.0591
104.2737, 375.1595
106.2021, 479.3408
108.1306, 605.0423
110.0591, 750.2589
111.9875, 917.1144
113.9160, 1123.393
115.8445, 1382.466
117.7729, 1667.370
119.7014, 1981.211
121.6299, 2337.565
123.5583, 2656.380
125.4868, 2903.295
127.4153, 3090.792
129.3438, 3301.773
131.2722, 3406.904
133.2007, 3464.279
135.1292, 3584.664
137.0576, 3791.716
138.9861, 4012.372
140.9146, 4261.661
142.8430, 4524.769
144.7715, 4748.796
146.7000, 4950.056
148.6284, 5105.600
150.5569, 5192.215
152.4854, 5202.267
154.4138, 5176.780
156.3423, 5105.562
158.2708, 4997.164
160.1992, 4884.801
162.1277, 4760.749
164.0562, 4637.563
165.9846, 4525.806
167.9131, 4416.283
169.8416, 4334.505
171.7700, 4291.399
173.6985, 4289.360
175.6270, 4281.780
177.5554, 4286.861
179.4839, 4276.152
181.4124, 4227.758
183.3408, 4110.021
185.2693, 4003.822
187.1978, 3917.118
189.1262, 3853.562
191.0547, 3825.631
192.9832, 3851.100
194.9116, 3903.459
196.8401, 3962.495
198.7686, 4048.316
200.6970, 4118.687
202.6255, 4170.217
204.5540, 4207.464
206.4824, 4220.842
208.4109, 4197.271
210.3394, 4154.524
212.2678, 4103.068
214.1963, 4041.387
216.1248, 3971.179
218.0532, 3889.577
219.9817, 3796.660
221.9102, 3717.546
223.8386, 3648.909
225.7671, 3593.944
227.6956, 3560.535
229.6240, 3555.662
231.5525, 3546.247
233.4810, 3521.883
235.4094, 3484.698
237.3379, 3450.191
239.2664, 3416.990
241.1948, 3388.304
243.1233, 3363.522
245.0518, 3341.736
246.9802, 3327.344
248.9087, 3321.743
250.8372, 3324.043
252.7656, 3328.811
254.6941, 3337.837
256.6226, 3347.233
258.5510, 3355.310
260.4795, 3360.794
262.4080, 3367.366
264.3364, 3376.833
266.2649, 3386.937
268.1934, 3394.698
270.1218, 3396.639
272.0503, 3398.803
273.9788, 3403.809
275.9072, 3412.268
277.8357, 3417.852
279.7642, 3419.785
281.6926, 3416.844
283.6211, 3409.864
285.5496, 3395.682
287.4780, 3382.680
289.4065, 3371.161
291.3350, 3361.012
293.2634, 3352.562
295.1919, 3347.200
297.1204, 3344.064
299.0488, 3343.097
300.9773, 3344.875
302.9058, 3347.058
304.8342, 3348.044
306.7627, 3348.920
308.6912, 3352.828
310.6196, 3361.975
312.5481, 3370.586
314.4766, 3376.840
316.4050, 3381.048
318.3335, 3384.704
320.2620, 3385.274
322.1904, 3385.173
324.1189, 3388.639
326.0474, 3401.042
327.9758, 3411.755
329.9043, 3416.848
331.8328, 3417.361
333.7612, 3419.893
335.6897, 3427.023
337.6182, 3436.280
339.5467, 3444.843
341.4751, 3451.951
343.4036, 3459.151
345.3321, 3467.878
347.2605, 3477.414
349.1890, 3484.851
351.1175, 3487.529
353.0459, 3490.651
354.9744, 3497.470
356.9029, 3508.207
358.8313, 3518.653
360.7598, 3525.753
362.6883, 3531.217
364.6167, 3538.021
366.5452, 3548.853
368.4737, 3558.533
370.4021, 3565.951
372.3306, 3572.186
374.2591, 3580.752
376.1875, 3589.720
378.1160, 3599.593
380.0445, 3612.909
381.9729, 3631.247
383.9014, 3648.646
385.8299, 3660.876
387.7583, 3669.405
389.6868, 3677.250
391.6153, 3686.037
393.5437, 3693.412
395.4722, 3698.248
397.4007, 3701.774
399.3291, 3709.228
401.2576, 3725.774
403.1861, 3742.437
405.1145, 3753.234
407.0430, 3753.113
408.9715, 3758.388
410.8999, 3774.528
412.8284, 3794.356
414.7569, 3806.805
416.6853, 3804.108
418.6138, 3804.732
420.5423, 3814.814
422.4707, 3833.585
424.3992, 3846.269
426.3277, 3849.915
428.2561, 3851.872
430.1846, 3856.717
432.1131, 3864.999
434.0415, 3875.965
435.9700, 3889.202
437.8985, 3903.386
439.8269, 3916.681
441.7554, 3928.928
443.6839, 3939.025
445.6123, 3947.770
447.5408, 3956.183
449.4693, 3966.110
451.3977, 3974.686
453.3262, 3983.611
455.2547, 3994.357
457.1831, 4007.785
459.1116, 4019.218
461.0401, 4029.346
462.9685, 4039.435
464.8970, 4050.672
466.8255, 4061.415
468.7539, 4072.311
470.6824, 4083.184
472.6109, 4093.718
474.5393, 4102.974
476.4678, 4115.881
478.3963, 4130.349
480.3247, 4143.353
482.2532, 4151.685
484.1817, 4158.250
486.1101, 4165.719
488.0386, 4175.435
489.9671, 4188.519
491.8955, 4205.025
493.8240, 4216.804
495.7525, 4220.595
497.6809, 4221.336
499.6094, 4226.174
501.5379, 4239.484
503.4663, 4252.739
505.3948, 4263.947
507.3233, 4271.538
509.2517, 4274.971
511.1802, 4275.961
513.1086, 4279.371
515.0371, 4286.085
516.9656, 4293.626
518.8940, 4302.487
520.8225, 4312.795
522.7510, 4323.667
524.6794, 4334.286
526.6079, 4347.725
528.5364, 4360.459
530.4648, 4368.562
532.3933, 4372.112
534.3218, 4374.956
536.2502, 4379.651
538.1787, 4388.771
540.1072, 4404.853
542.0356, 4425.067
543.9641, 4445.093
545.8926, 4460.895
547.8210, 4471.538
549.7495, 4475.733
551.6780, 4477.257
553.6064, 4483.069
555.5349, 4495.114
557.4634, 4506.872
559.3918, 4515.245
561.3203, 4518.880
563.2488, 4522.437
565.1772, 4527.050
567.1057, 4533.200
569.0342, 4540.070
570.9626, 4545.530
572.8911, 4551.926
574.8196, 4561.816
576.7480, 4575.410
578.6765, 4588.188
580.6050, 4594.765
582.5335, 4602.101
584.4620, 4613.589
586.3904, 4628.739
588.3189, 4640.757
590.2474, 4648.947
592.1758, 4657.536
594.1043, 4668.133
596.0328, 4677.244
597.9612, 4686.176
599.8897, 4695.589
601.8182, 4704.482
603.7466, 4712.372
605.6751, 4719.813
607.6036, 4725.551
609.5320, 4729.219
611.4605, 4734.968
613.3890, 4745.046
615.3174, 4755.470
617.2459, 4767.841
619.1744, 4785.378
621.1028, 4804.267
623.0313, 4818.350
624.9598, 4824.331
626.8882, 4830.995
628.8167, 4841.938
630.7452, 4854.938
632.6736, 4862.946
634.6021, 4862.751
636.5306, 4865.642
638.4590, 4878.080
640.3875, 4895.947
642.3160, 4909.226
644.2444, 4918.650
646.1729, 4925.743
648.1014, 4927.877
650.0298, 4926.835
651.9583, 4932.417
653.8868, 4949.473
655.8152, 4969.218
657.7437, 4988.200
659.6722, 5003.037
661.6006, 5020.349
663.5291, 5039.432
665.4576, 5060.058
667.3860, 5082.314
669.3145, 5105.966
671.2430, 5128.286
673.1714, 5148.897
675.0999, 5169.618
677.0284, 5188.569
678.9568, 5202.144
680.8853, 5214.381
682.8138, 5218.598
684.7422, 5228.899
686.6707, 5256.679
688.5992, 5303.104
690.5276, 5354.130
692.4561, 5408.933
694.3846, 5466.134
696.3130, 5519.017
698.2415, 5572.442
700.1700, 5624.769
702.0984, 5685.826
704.0269, 5731.134
705.9554, 5752.987
707.8839, 5749.194
709.8123, 5724.212
711.7408, 5665.695
713.6693, 5598.026
715.5977, 5543.798
717.5262, 5505.675
719.4547, 5471.431
721.3831, 5432.910
723.3116, 5396.259
725.2401, 5375.811
727.1685, 5384.556
729.0970, 5392.473
731.0255, 5395.184
732.9539, 5393.661
734.8824, 5387.487
736.8109, 5371.709
738.7393, 5358.375
740.6678, 5354.190
742.5963, 5357.150
744.5247, 5358.455
746.4532, 5353.286
748.3817, 5351.890
750.3101, 5358.583
752.2386, 5370.723
754.1671, 5380.191
756.0955, 5386.525
758.0240, 5392.063
759.9525, 5397.897
761.8809, 5403.842
763.8094, 5410.058
765.7379, 5413.310
767.6663, 5420.298
769.5948, 5434.362
771.5233, 5453.022
773.4517, 5467.922
775.3802, 5475.644
777.3087, 5483.063
779.2371, 5493.696
781.1656, 5506.462
783.0941, 5515.733
785.0225, 5521.451
786.9510, 5525.803
788.8795, 5528.671
790.8079, 5530.599
792.7364, 5535.097
794.6649, 5545.319
796.5933, 5554.071
798.5218, 5555.869
800.4503, 5552.416
802.3787, 5554.722
804.3072, 5567.011
806.2357, 5579.333
808.1641, 5589.100
810.0926, 5597.228
812.0211, 5606.704
813.9495, 5617.508
815.8780, 5630.063
817.8065, 5646.091
819.7349, 5663.596
821.6634, 5676.942
823.5919, 5681.511
825.5203, 5686.976
827.4488, 5694.649
829.3773, 5700.194
831.3057, 5704.639
833.2342, 5709.792
835.1627, 5715.806
837.0911, 5722.930
839.0196, 5728.510
840.9481, 5731.677
842.8765, 5729.863
844.8050, 5730.578
846.7335, 5736.857
848.6619, 5746.937
850.5904, 5754.796
852.5189, 5758.675
854.4473, 5762.953
856.3758, 5767.532
858.3043, 5774.527
860.2327, 5785.002
862.1612, 5802.201
864.0897, 5816.215
866.0181, 5825.669
867.9466, 5829.022
869.8751, 5828.212
871.8035, 5821.381
873.7320, 5820.909
875.6605, 5837.678
877.5889, 5859.269
879.5174, 5870.072
881.4459, 5863.917
883.3743, 5862.434
885.3028, 5873.003
887.2313, 5888.573
889.1597, 5899.567
891.0882, 5905.802
893.0167, 5911.560
894.9451, 5918.050
896.8736, 5923.813
898.8021, 5927.077
900.7305, 5927.866
902.6590, 5932.161
904.5875, 5944.663
906.5159, 5959.340
908.4444, 5970.862
910.3729, 5974.245
912.3013, 5981.730
914.2298, 5996.577
916.1583, 6014.067
918.0867, 6025.876
920.0152, 6035.617
921.9437, 6045.827
923.8721, 6057.533
925.8006, 6063.462
927.7291, 6067.704
929.6575, 6076.243
931.5860, 6083.343
933.5145, 6088.066
935.4429, 6093.987
937.3714, 6104.359
939.2999, 6112.961
941.2283, 6119.708
943.1568, 6125.999
945.0853, 6135.717
947.0137, 6149.207
948.9422, 6160.651
950.8707, 6169.040
952.7991, 6172.835
954.7276, 6177.485
956.6561, 6185.861
958.5845, 6201.007
960.5130, 6214.655
962.4415, 6221.507
964.3699, 6225.503
966.2984, 6227.040
968.2269, 6233.114
970.1553, 6243.155
972.0838, 6254.886
974.0123, 6266.825
975.9407, 6279.321
977.8692, 6290.263
979.7977, 6297.588
981.7261, 6303.679
983.6546, 6310.159
985.5831, 6316.575
987.5115, 6323.621
989.4400, 6334.280
991.3685, 6345.014
993.2969, 6352.021
995.2254, 6355.705
997.1539, 6359.728
999.0823, 6364.798
1001.011, 6371.134
1002.939, 6379.992
1004.868, 6387.915
1006.796, 6393.415
1008.725, 6402.892
1010.653, 6404.694
1012.582, 6418.846
1014.510, 6429.353
1016.439, 6435.409
1018.367, 6439.937
1020.295, 6452.661
1022.224, 6473.806
1024.152, 6490.139
1026.081, 6499.149
1028.009, 6502.418
1029.938, 6508.220
1031.866, 6523.601
1033.795, 6536.964
1035.723, 6574.774
1037.652, 6648.595
1039.580, 6743.697
1041.509, 6846.578
1043.437, 6963.737
1045.365, 7049.444
1047.294, 7109.345
1049.222, 7146.509
1051.151, 7158.869
1053.079, 7171.835
1055.008, 7273.671
1056.936, 7367.431
1058.865, 7454.216
1060.793, 7547.278
1062.722, 7641.675
1064.650, 7652.507
1066.579, 7722.927
1068.507, 7867.727
1070.436, 8093.944
1072.364, 8399.404
1074.292, 8762.200
1076.221, 9132.459
1078.150, 9553.056
1080.078, 9864.888
1082.006, 10151.72
1083.935, 10579.77
1085.863, 11374.96
1087.792, 11691.97
1089.720, 11430.18
1091.649, 10931.50
1093.577, 10308.22
1095.506, 9600.280
1097.434, 8988.151
1099.363, 8484.769
1101.291, 8045.612
1103.220, 7689.565
1105.148, 7426.420
1107.077, 7263.597
1109.005, 7214.255
1110.933, 7264.581
1112.862, 7284.815
1114.790, 7222.310
1116.719, 7113.523
1118.647, 7018.628
1120.576, 6917.391
1122.504, 6846.302
1124.433, 6825.587
1126.361, 6820.642
1128.290, 6816.105
1130.218, 6817.786
1132.147, 6827.971
1134.075, 6838.756
1136.004, 6843.893
1137.932, 6846.600
1139.860, 6852.824
1141.789, 6864.879
1143.717, 6878.371
1145.646, 6888.805
1147.574, 6897.516
1149.503, 6903.480
1151.431, 6905.708
1153.360, 6909.066
1155.288, 6920.966
1157.217, 6931.487
1159.145, 6935.262
1161.074, 6936.413
1163.002, 6941.422
1164.931, 6950.919
1166.859, 6958.038
1168.787, 6959.207
1170.716, 6962.078
1172.644, 6969.452
1174.573, 6980.720
1176.501, 6992.743
1178.430, 7007.577
1180.358, 7020.144
1182.287, 7030.003
1184.215, 7036.831
1186.144, 7043.149
1188.072, 7051.005
1190.001, 7060.844
1191.929, 7065.884
1193.858, 7065.829
1195.786, 7068.713
1197.714, 7077.400
1199.643, 7091.015
1201.571, 7110.285
1203.500, 7124.681
1205.428, 7132.181
1207.357, 7138.256
1209.285, 7145.129
1211.214, 7147.216
1213.142, 7152.138
1215.071, 7171.098
1216.999, 7194.603
1218.928, 7212.411
1220.856, 7223.892
1222.785, 7233.631
1224.713, 7240.446
1226.641, 7244.340
1228.570, 7247.690
1230.498, 7249.614
1232.427, 7250.666
1234.355, 7251.741
1236.284, 7258.540
1238.212, 7273.893
1240.141, 7291.326
1242.069, 7305.678
1243.998, 7316.798
1245.926, 7330.294
1247.855, 7349.731
1249.783, 7365.087
1251.712, 7369.586
1253.640, 7370.777
1255.568, 7379.009
1257.497, 7397.772
1259.425, 7412.417
1261.354, 7422.246
1263.282, 7425.982
1265.211, 7423.594
1267.139, 7419.241
1269.068, 7418.596
1270.996, 7423.000
1272.925, 7430.583
1274.853, 7441.396
1276.782, 7452.667
1278.710, 7464.125
1280.639, 7476.238
1282.567, 7493.662
1284.495, 7520.617
1286.424, 7543.046
1288.352, 7554.650
1290.281, 7559.759
1292.209, 7565.608
1294.138, 7574.174
1296.066, 7582.134
1297.995, 7588.071
1299.923, 7594.044
1301.852, 7603.872
1303.780, 7616.756
1305.709, 7627.281
1307.637, 7632.995
1309.566, 7640.431
1311.494, 7652.953
1313.422, 7666.133
1315.351, 7672.151
1317.279, 7672.751
1319.208, 7680.552
1321.136, 7702.712
1323.065, 7718.440
1324.993, 7715.383
1326.922, 7709.676
1328.850, 7713.851
1330.779, 7728.949
1332.707, 7743.124
1334.636, 7752.173
1336.564, 7763.767
1338.493, 7781.440
1340.421, 7801.868
1342.349, 7817.827
1344.278, 7827.233
1346.206, 7836.139
1348.135, 7844.434
1350.063, 7853.226
1351.992, 7863.556
1353.920, 7873.943
1355.849, 7883.668
1357.777, 7892.705
1359.706, 7903.517
1361.634, 7919.371
1363.563, 7935.017
1365.491, 7945.587
1367.420, 7951.100
1369.348, 7955.681
1371.276, 7958.861
1373.205, 7966.665
1375.133, 7984.096
1377.062, 8001.540
1378.990, 8012.161
1380.919, 8017.521
1382.847, 8029.493
1384.776, 8056.727
1386.704, 8075.441
1388.633, 8073.834
1390.561, 8071.187
1392.490, 8083.278
1394.418, 8108.267
1396.347, 8125.721
1398.275, 8129.201
1400.203, 8135.167
1402.132, 8148.182
1404.060, 8162.763
1405.989, 8175.212
1407.917, 8185.763
1409.846, 8193.751
1411.774, 8197.558
1413.703, 8203.619
1415.631, 8216.221
1417.560, 8230.271
1419.488, 8240.756
1421.417, 8248.936
1423.345, 8260.953
1425.274, 8277.502
1427.202, 8295.146
1429.130, 8312.447
1431.059, 8330.104
1432.987, 8348.670
1434.916, 8367.162
1436.844, 8382.120
1438.773, 8394.827
1440.701, 8401.840
1442.630, 8399.157
1444.558, 8395.652
1446.487, 8397.986
1448.415, 8406.336
1450.344, 8420.835
1452.272, 8445.457
1454.201, 8471.467
1456.129, 8497.015
1458.057, 8522.898
1459.986, 8550.916
1461.914, 8578.561
1463.843, 8597.254
1465.771, 8605.600
1467.700, 8608.664
1469.628, 8603.866
1471.557, 8597.381
1473.485, 8596.258
1475.414, 8598.603
1477.342, 8593.357
1479.271, 8576.689
1481.199, 8566.105
1483.128, 8568.703
1485.056, 8576.826
1486.984, 8585.846
1488.913, 8595.380
1490.841, 8607.615
1492.770, 8623.592
1494.698, 8640.293
1496.627, 8656.533
1498.555, 8671.998
1500.484, 8689.216
1502.412, 8704.516
1504.341, 8708.819
1506.269, 8699.924
1508.198, 8697.880
1510.126, 8713.072
1512.055, 8727.069
1513.983, 8731.678
1515.911, 8731.510
1517.840, 8735.817
1519.768, 8746.382
1521.697, 8756.286
1523.625, 8760.795
1525.554, 8769.563
1527.482, 8790.131
1529.411, 8812.774
1531.339, 8825.383
1533.268, 8826.963
1535.196, 8832.131
1537.125, 8840.021
1539.053, 8853.606
1540.982, 8879.522
1542.910, 8904.438
1544.839, 8913.842
1546.767, 8911.236
1548.695, 8919.254
1550.624, 8942.363
1552.552, 8962.798
1554.481, 8982.673
1556.409, 8997.387
1558.338, 9000.653
1560.266, 8998.356
1562.195, 9005.463
1564.123, 9024.057
1566.052, 9041.360
1567.980, 9054.163
1569.909, 9067.813
1571.837, 9085.789
1573.766, 9101.147
1575.694, 9107.490
1577.622, 9106.475
1579.551, 9102.879
1581.479, 9097.334
1583.408, 9093.408
1585.336, 9091.428
1587.265, 9094.244
1589.193, 9106.822
1591.122, 9125.003
1593.050, 9138.304
1594.979, 9144.937
1596.907, 9153.659
1598.836, 9164.733
1600.764, 9176.862
1602.693, 9192.096
1604.621, 9205.922
1606.549, 9211.734
1608.478, 9209.902
1610.406, 9209.304
1612.335, 9212.359
1614.263, 9217.367
1616.192, 9226.613
1618.120, 9237.700
1620.049, 9247.362
1621.977, 9257.459
1623.906, 9275.600
1625.834, 9303.479
1627.763, 9324.520
1629.691, 9326.904
1631.620, 9332.425
1633.548, 9350.732
1635.476, 9374.562
1637.405, 9398.212
1639.333, 9421.867
1641.262, 9438.313
1643.190, 9446.463
1645.119, 9452.410
1647.047, 9455.611
1648.976, 9458.657
1650.904, 9462.150
1652.833, 9465.862
1654.761, 9469.063
1656.690, 9470.688
1658.618, 9478.191
1660.547, 9498.676
1662.475, 9516.572
1664.403, 9527.097
1666.332, 9536.553
1668.260, 9549.619
1670.189, 9566.237
1672.117, 9584.960
1674.046, 9605.830
1675.974, 9624.133
1677.903, 9629.716
1679.831, 9640.395
1681.760, 9667.547
1683.688, 9697.074
1685.617, 9713.314
1687.545, 9716.771
1689.474, 9717.532
1691.402, 9714.306
1693.330, 9716.677
1695.259, 9731.229
1697.187, 9749.014
1699.116, 9768.724
1701.044, 9788.631
1702.973, 9804.942
1704.901, 9816.431
1706.830, 9826.873
1708.758, 9827.721
1710.687, 9840.225
1712.615, 9881.978
1714.544, 9918.295
1716.472, 9925.343
1718.401, 9917.375
1720.329, 9922.563
1722.257, 9944.303
1724.186, 9958.401
1726.114, 9961.360
1728.043, 9963.677
1729.971, 9963.859
1731.900, 9966.924
1733.828, 9978.174
1735.757, 9992.550
1737.685, 9998.973
1739.614, 9996.208
1741.542, 10001.50
1743.471, 10026.48
1745.399, 10041.62
1747.328, 10029.74
1749.256, 10020.28
1751.184, 10027.95
1753.113, 10048.77
1755.041, 10077.39
1756.970, 10113.06
1758.898, 10140.06
1760.827, 10154.76
1762.755, 10162.64
1764.684, 10161.25
1766.612, 10158.68
1768.541, 10161.04
1770.469, 10166.85
1772.398, 10170.54
1774.326, 10173.46
1776.255, 10191.53
1778.183, 10232.18
1780.111, 10265.94
1782.040, 10281.29
1783.968, 10291.79
1785.897, 10299.71
1787.825, 10307.96
1789.754, 10322.83
1791.682, 10342.32
1793.611, 10353.98
1795.539, 10355.95
1797.468, 10358.05
1799.396, 10363.64
1801.325, 10368.67
1803.253, 10370.81
1805.182, 10373.10
1807.110, 10379.21
1809.038, 10388.01
1810.967, 10394.76
1812.895, 10398.84
1814.824, 10405.43
1816.752, 10418.62
1818.681, 10426.62
1820.609, 10416.31
1822.538, 10407.76
1824.466, 10418.71
1826.395, 10441.16
1828.323, 10459.74
1830.252, 10474.47
1832.180, 10484.76
1834.109, 10487.84
1836.037, 10492.26
1837.965, 10500.03
1839.894, 10508.39
1841.822, 10514.13
1843.751, 10521.04
1845.679, 10538.17
1847.608, 10563.46
1849.536, 10574.96
1851.465, 10567.43
1853.393, 10565.31
1855.322, 10569.29
1857.250, 10579.13
1859.179, 10597.31
1861.107, 10616.69
1863.036, 10631.73
1864.964, 10642.97
1866.892, 10653.76
1868.821, 10665.14
1870.749, 10670.50
1872.678, 10669.65
1874.606, 10667.53
1876.535, 10659.94
1878.463, 10660.29
1880.392, 10677.60
1882.320, 10701.51
1884.249, 10720.44
1886.177, 10734.91
1888.106, 10752.19
1890.034, 10772.13
1891.963, 10784.91
1893.891, 10789.25
1895.819, 10788.24
1897.748, 10780.34
1899.676, 10774.09
1901.605, 10777.93
1903.533, 10785.16
1905.462, 10784.12
1907.390, 10779.12
1909.319, 10789.20
1911.247, 10815.93
1913.176, 10833.95
1915.104, 10834.03
1917.033, 10836.59
1918.961, 10850.48
1920.890, 10865.92
1922.818, 10878.61
1924.746, 10888.51
1926.675, 10893.27
1928.603, 10894.60
1930.532, 10902.69
1932.460, 10918.62
1934.389, 10936.30
1936.317, 10963.21
1938.246, 10980.52
1940.174, 10976.65
1942.103, 10972.65
1944.031, 10982.08
1945.960, 10997.44
1947.888, 11008.21
1949.817, 11014.93
1951.745, 11023.57
1953.673, 11034.81
1955.602, 11042.01
1957.530, 11042.41
1959.459, 11042.26
1961.387, 11039.56
1963.316, 11041.50
1965.244, 11057.00
1967.173, 11075.90
1969.101, 11087.37
1971.030, 11094.16
1972.958, 11103.38
1974.887, 11115.17
1976.815, 11127.08
1978.744, 11137.14
1980.672, 11150.45
1982.600, 11166.99
1984.529, 11185.79
1986.457, 11213.13
1988.386, 11234.71
1990.314, 11232.85
1992.243, 11219.84
1994.171, 11221.76
1996.100, 11238.50
1998.028, 11246.83
1999.957, 11244.51
2001.885, 11243.19
2003.814, 11238.32
2005.742, 11242.75
2007.671, 11268.71
2009.599, 11293.62
2011.527, 11304.28
2013.456, 11307.48
2015.384, 11308.96
2017.313, 11309.46
2019.241, 11311.29
2021.170, 11313.67
2023.098, 11328.18
2025.027, 11361.28
2026.955, 11381.25
2028.884, 11373.49
2030.812, 11369.76
2032.741, 11391.97
2034.669, 11413.54
2036.598, 11408.86
2038.526, 11397.60
2040.454, 11409.33
2042.383, 11438.65
2044.311, 11460.07
2046.240, 11471.45
2048.168, 11482.93
2050.097, 11491.75
2052.025, 11503.09
2053.954, 11525.11
2055.882, 11538.23
2057.811, 11533.81
2059.739, 11522.70
2061.667, 11507.32
2063.596, 11496.23
2065.525, 11503.91
2067.453, 11527.94
2069.382, 11550.90
2071.310, 11571.90
2073.239, 11589.26
2075.167, 11600.21
2077.095, 11607.59
2079.024, 11607.58
2080.952, 11609.43
2082.881, 11626.79
2084.809, 11638.63
2086.738, 11627.28
2088.666, 11610.45
2090.595, 11607.98
2092.523, 11618.87
2094.452, 11640.49
2096.380, 11673.89
2098.309, 11690.15
2100.237, 11665.87
2102.166, 11666.88
2104.094, 11718.49
2106.022, 11753.95
2107.951, 11753.04
2109.879, 11745.75
2111.808, 11747.32
2113.736, 11748.61
2115.665, 11735.16
2117.593, 11719.69
2119.522, 11726.99
2121.450, 11750.22
2123.379, 11760.91
2125.307, 11756.65
2127.236, 11757.84
2129.164, 11769.58
2131.093, 11780.38
2133.021, 11791.40
2134.949, 11800.11
2136.878, 11802.16
2138.806, 11806.38
2140.735, 11819.38
2142.663, 11833.16
2144.592, 11838.42
2146.520, 11838.10
2148.449, 11839.05
2150.377, 11841.95
2152.306, 11849.10
2154.234, 11861.68
2156.163, 11877.83
2158.091, 11900.80
2160.020, 11913.85
2161.948, 11903.94
2163.876, 11898.80
2165.805, 11908.78
2167.733, 11921.79
2169.662, 11933.89
2171.590, 11944.71
2173.519, 11955.31
2175.447, 11965.42
2177.376, 11970.98
2179.304, 11974.52
2181.233, 11992.38
2183.161, 12024.33
2185.090, 12037.80
2187.018, 12026.00
2188.947, 12018.16
2190.875, 12019.91
2192.803, 12022.25
2194.732, 12024.53
2196.660, 12027.49
2198.589, 12033.83
2200.517, 12040.75
2202.446, 12045.25
2204.374, 12050.09
2206.303, 12058.95
2208.231, 12069.46
2210.160, 12075.18
2212.088, 12076.87
2214.017, 12088.52
2215.945, 12093.50
2217.874, 12097.60
2219.802, 12111.27
2221.730, 12110.17
2223.659, 12123.17
2225.587, 12139.96
2227.516, 12164.54
2229.444, 12180.12
2231.373, 12171.37
2233.301, 12161.60
2235.230, 12166.70
2237.158, 12180.05
2239.087, 12199.81
2241.015, 12220.61
2242.944, 12227.98
2244.872, 12241.01
2246.801, 12249.64
2248.729, 12251.42
2250.657, 12259.63
2252.586, 12255.37
2254.514, 12253.40
2256.443, 12256.93
2258.371, 12258.94
2260.300, 12254.26
2262.228, 12254.12
2264.157, 12268.60
2266.085, 12278.92
2268.014, 12270.89
2269.942, 12262.15
2271.871, 12266.27
2273.799, 12277.61
2275.728, 12291.32
2277.656, 12306.50
2279.584, 12320.64
2281.513, 12333.80
2283.441, 12349.28
2285.370, 12366.04
2287.298, 12365.98
2289.227, 12376.79
2291.155, 12388.56
2293.084, 12379.07
2295.012, 12404.75
2296.941, 12394.34
2298.869, 12385.12
2300.798, 12384.20
2302.726, 12386.02
2304.655, 12391.22
2306.583, 12395.12
2308.511, 12392.44
2310.440, 12389.90
2312.368, 12393.44
2314.297, 12401.35
2316.225, 12412.84
2318.154, 12426.75
2320.082, 12440.12
2322.011, 12452.82
2323.939, 12460.84
2325.868, 12473.12
2327.796, 12484.79
2329.725, 12493.26
2331.653, 12509.31
2333.582, 12519.00
2335.510, 12531.47
2337.438, 12550.10
2339.367, 12565.75
2341.295, 12573.92
2343.224, 12582.52
2345.152, 12603.89
2347.081, 12614.89
2349.009, 12594.87
2350.938, 12573.07
2352.866, 12567.68
2354.795, 12573.03
2356.723, 12591.86
2358.652, 12611.38
2360.580, 12606.68
2362.509, 12590.69
2364.437, 12597.74
2366.365, 12623.34
2368.294, 12641.19
2370.222, 12650.88
2372.151, 12653.80
2374.079, 12648.20
2376.008, 12647.18
2377.936, 12652.15
2379.865, 12658.47
2381.793, 12666.42
2383.722, 12676.36
2385.650, 12691.13
2387.579, 12704.64
2389.507, 12712.68
2391.436, 12722.89
2393.364, 12734.12
2395.292, 12751.06
2397.221, 12786.33
2399.149, 12813.55
2401.078, 12800.85
2403.006, 12784.84
2404.935, 12810.09
2406.863, 12795.51
2408.792, 12831.49
2410.720, 12800.50
2412.649, 12796.06
2414.577, 12809.83
2416.506, 12809.74
2418.434, 12797.46
2420.363, 12794.55
2422.291, 12799.85
2424.219, 12802.54
2426.148, 12802.19
2428.076, 12802.87
2430.005, 12806.13
2431.933, 12810.82
2433.862, 12818.84
2435.790, 12827.95
2437.719, 12840.71
2439.647, 12849.60
2441.576, 12849.36
2443.504, 12850.79
2445.433, 12851.23
2447.361, 12861.61
2449.290, 12901.57
2451.218, 12929.28
2453.146, 12912.65
2455.075, 12891.48
2457.003, 12888.21
2458.932, 12895.16
2460.860, 12910.56
2462.789, 12928.75
2464.717, 12950.64
2466.646, 12966.43
2468.574, 12954.45
2470.503, 12964.22
2472.431, 12960.94
2474.360, 12954.19
2476.288, 12954.45
2478.217, 12942.35
2480.145, 12938.94
2482.073, 12943.82
2484.002, 12954.62
2485.930, 12970.64
2487.859, 12990.14
2489.787, 13012.27
2491.716, 13026.22
2493.644, 13031.61
2495.573, 13027.21
2497.501, 13032.73
2499.430, 13036.70
2501.358, 13029.19
2503.287, 13047.60
2505.215, 13043.90
2507.144, 13048.58
2509.072, 13067.52
2511.000, 13090.83
2512.929, 13123.29
2514.857, 13142.90
2516.786, 13136.84
2518.714, 13128.55
2520.643, 13122.92
2522.571, 13125.01
2524.500, 13143.16
2526.428, 13161.88
2528.357, 13170.55
2530.285, 13178.98
2532.214, 13193.67
2534.142, 13206.96
2536.071, 13209.96
2537.999, 13211.59
2539.927, 13225.65
2541.856, 13239.17
2543.784, 13237.21
2545.713, 13229.22
2547.641, 13221.06
2549.570, 13217.12
2551.498, 13225.60
2553.427, 13240.24
2555.355, 13250.85
2557.284, 13258.18
2559.212, 13266.58
2561.141, 13274.37
2563.069, 13273.71
2564.998, 13268.37
2566.926, 13268.42
2568.854, 13273.26
2570.783, 13280.96
2572.711, 13290.18
2574.640, 13288.87
2576.568, 13277.39
2578.497, 13279.28
2580.425, 13293.72
2582.354, 13305.21
2584.282, 13313.23
2586.211, 13319.94
2588.139, 13324.51
2590.068, 13335.84
2591.996, 13357.79
2593.925, 13367.87
2595.853, 13364.83
2597.781, 13355.25
2599.710, 13337.20
2601.638, 13331.75
2603.567, 13344.87
2605.495, 13355.10
2607.424, 13362.33
2609.352, 13360.67
2611.281, 13347.41
2613.209, 13338.41
2615.138, 13337.24
2617.066, 13342.88
2618.995, 13358.77
2620.923, 13374.81
2622.852, 13387.48
2624.780, 13400.43
2626.708, 13409.88
2628.637, 13423.67
2630.565, 13446.26
2632.494, 13460.97
2634.422, 13461.31
2636.351, 13459.65
2638.279, 13454.04
2640.208, 13457.86
2642.136, 13480.22
2644.065, 13501.82
2645.993, 13516.58
2647.922, 13531.97
2649.850, 13553.97
2651.779, 13568.56
2653.707, 13570.09
2655.635, 13565.41
2657.564, 13553.49
2659.492, 13543.04
2661.421, 13537.86
2663.349, 13533.80
2665.278, 13527.63
2667.206, 13525.83
2669.135, 13529.07
2671.063, 13540.19
2672.992, 13569.49
2674.920, 13592.06
2676.849, 13593.91
2678.777, 13592.13
2680.706, 13591.62
2682.634, 13591.96
2684.563, 13591.64
2686.491, 13596.13
2688.419, 13613.73
2690.348, 13629.91
2692.276, 13635.85
2694.205, 13641.58
2696.133, 13648.98
2698.062, 13657.23
2699.990, 13665.17
2701.919, 13673.02
2703.847, 13683.69
2705.776, 13691.37
2707.704, 13695.75
2709.633, 13696.45
2711.561, 13690.98
2713.490, 13688.18
2715.418, 13692.22
2717.346, 13698.52
2719.275, 13701.95
2721.203, 13708.00
2723.132, 13717.78
2725.060, 13729.54
2726.989, 13746.52
2728.917, 13759.29
2730.846, 13766.06
2732.774, 13768.20
2734.703, 13766.05
2736.631, 13763.19
2738.560, 13759.18
2740.488, 13757.40
2742.417, 13754.76
2744.345, 13760.24
2746.273, 13785.91
2748.202, 13803.59
2750.130, 13795.38
2752.059, 13794.07
2753.987, 13813.70
2755.916, 13825.70
2757.844, 13818.40
2759.773, 13810.72
2761.701, 13806.51
2763.630, 13805.61
2765.558, 13809.47
2767.487, 13812.73
2769.415, 13814.55
2771.344, 13813.65
2773.272, 13803.84
2775.200, 13806.31
2777.129, 13842.51
2779.057, 13858.54
2780.986, 13846.26
2782.914, 13832.15
2784.843, 13816.95
2786.771, 13820.95
2788.700, 13855.92
2790.628, 13883.56
2792.557, 13896.24
2794.485, 13909.55
2796.414, 13922.33
2798.342, 13930.71
2800.271, 13932.71
2802.199, 13937.77
2804.127, 13951.54
2806.056, 13944.35
2807.984, 13941.45
2809.913, 13931.41
2811.841, 13912.52
2813.770, 13899.87
2815.698, 13865.46
2817.627, 13848.22
2819.555, 13847.86
2821.484, 13849.25
2823.412, 13852.25
2825.341, 13857.19
2827.269, 13864.41
2829.198, 13877.15
2831.126, 13893.80
2833.054, 13913.63
2834.983, 13932.20
2836.911, 13931.33
2838.840, 13944.60
2840.768, 13932.36
2842.697, 13947.78
2844.625, 13942.87
2846.554, 13929.06
2848.482, 13924.85
2850.411, 13924.64
2852.339, 13924.33
2854.268, 13923.38
2856.196, 13919.94
2858.125, 13917.79
2860.053, 13913.88
2861.981, 13918.68
2863.910, 13942.89
2865.838, 13969.93
2867.767, 13989.10
2869.695, 14005.86
2871.624, 14025.00
2873.552, 14037.73
2875.481, 14039.45
2877.409, 14037.93
2879.338, 14035.07
2881.266, 14034.31
2883.195, 14043.35
2885.123, 14045.14
2887.052, 14034.04
2888.980, 14025.07
2890.908, 14018.82
2892.837, 14019.21
2894.765, 14028.32
2896.694, 14038.06
2898.622, 14050.24
2900.551, 14050.57
2902.479, 14056.71
2904.408, 14040.03
2906.336, 14056.23
2908.265, 14059.33
2910.193, 14050.38
2912.122, 14058.08
2914.050, 14057.56
2915.979, 14059.06
2917.907, 14066.79
2919.835, 14069.96
2921.764, 14082.83
2923.692, 14098.61
2925.621, 14116.31
2927.549, 14139.07
2929.478, 14156.66
2931.406, 14154.84
2933.335, 14145.01
2935.263, 14138.17
2937.192, 14129.05
2939.120, 14106.11
2941.049, 14095.68
2942.977, 14129.96
2944.906, 14154.21
2946.834, 14129.70
2948.762, 14116.98
2950.691, 14134.34
2952.619, 14149.65
2954.548, 14156.19
2956.476, 14154.00
2958.405, 14155.95
2960.333, 14152.91
2962.262, 14144.04
2964.190, 14145.89
2966.119, 14135.43
2968.047, 14135.72
2969.976, 14145.86
2971.904, 14149.19
2973.833, 14146.30
2975.761, 14149.81
2977.689, 14157.28
2979.618, 14163.89
2981.546, 14169.70
2983.475, 14175.42
2985.403, 14179.39
2987.332, 14171.48
2989.260, 14169.21
2991.189, 14195.43
2993.117, 14223.72
2995.046, 14233.57
2996.974, 14239.07
2998.903, 14247.26
3000.831, 14249.08
3002.760, 14237.90
3004.688, 14223.48
3006.616, 14204.99
3008.545, 14194.87
3010.473, 14197.74
3012.402, 14197.77
3014.330, 14189.74
3016.259, 14207.66
3018.187, 14254.15
3020.116, 14275.54
3022.044, 14274.54
3023.973, 14272.90
3025.901, 14271.86
3027.830, 14278.50
3029.758, 14287.39
3031.687, 14289.88
3033.615, 14285.67
3035.543, 14270.51
3037.472, 14255.02
3039.400, 14252.48
3041.329, 14250.03
3043.257, 14239.03
3045.186, 14232.94
3047.114, 14241.90
3049.043, 14249.94
3050.971, 14245.74
3052.900, 14253.81
3054.828, 14276.93
3056.757, 14292.85
3058.685, 14296.37
3060.614, 14298.87
3062.542, 14301.25
3064.470, 14298.18
3066.399, 14291.85
3068.327, 14284.88
3070.256, 14280.27
3072.184, 14282.76
3074.113, 14290.09
3076.041, 14301.54
3077.970, 14310.69
3079.898, 14306.06
3081.827, 14303.67
3083.755, 14314.50
3085.684, 14327.33
3087.612, 14340.62
3089.541, 14348.98
3091.469, 14349.62
3093.397, 14350.34
3095.326, 14343.55
3097.254, 14345.23
3099.183, 14321.31
3101.111, 14300.97
3103.040, 14285.31
3104.968, 14280.73
3106.897, 14285.20
3108.825, 14302.44
3110.754, 14317.98
3112.682, 14310.48
3114.611, 14293.26
3116.539, 14275.90
3118.468, 14261.67
3120.396, 14256.58
3122.324, 14249.39
3124.253, 14224.51
3126.181, 14222.94
3128.110, 14224.41
3130.038, 14224.49
3131.967, 14244.13
3133.895, 14240.03
3135.824, 14258.88
3137.752, 14261.40
3139.681, 14254.00
3141.609, 14265.84
3143.538, 14262.88
3145.466, 14277.28
3147.395, 14265.68
3149.323, 14270.11
3151.251, 14271.70
3153.180, 14253.70
3155.108, 14239.80
3157.037, 14243.96
3158.965, 14238.82
3160.894, 14213.92
3162.822, 14203.94
3164.751, 14216.72
3166.679, 14230.58
3168.608, 14244.24
3170.536, 14234.36
3172.465, 14256.05
3174.393, 14239.16
3176.322, 14276.30
3178.250, 14286.15
3180.178, 14279.61
3182.107, 14257.09
3184.035, 14237.05
3185.964, 14230.08
3187.892, 14230.10
3189.821, 14238.36
3191.749, 14244.67
3193.678, 14247.52
3195.606, 14243.22
3197.535, 14232.21
3199.463, 14243.66
3201.392, 14268.27
3203.320, 14271.21
3205.249, 14263.02
3207.177, 14260.98
3209.105, 14259.83
3211.034, 14252.96
3212.962, 14250.33
3214.891, 14267.40
3216.819, 14272.90
3218.748, 14254.80
3220.676, 14251.36
3222.605, 14271.82
3224.533, 14288.92
3226.462, 14300.29
3228.390, 14311.45
3230.319, 14316.05
3232.247, 14298.44
3234.176, 14270.55
3236.104, 14250.38
3238.032, 14232.10
3239.961, 14200.41
3241.889, 14191.04
3243.818, 14237.43
3245.746, 14269.57
3247.675, 14273.95
3249.603, 14275.64
3251.532, 14275.31
3253.460, 14282.64
3255.389, 14294.89
3257.317, 14300.38
3259.246, 14299.35
3261.174, 14284.69
3263.103, 14271.65
3265.031, 14273.09
3266.959, 14280.78
3268.888, 14266.26
3270.816, 14257.28
3272.745, 14253.59
3274.673, 14244.04
3276.602, 14234.21
3278.530, 14234.60
3280.459, 14230.70
3282.387, 14230.78
3284.316, 14234.23
3286.244, 14239.84
3288.173, 14246.62
3290.101, 14257.67
3292.030, 14262.56
3293.958, 14258.69
3295.886, 14247.30
3297.815, 14223.38
3299.743, 14210.60
3301.672, 14209.69
3303.600, 14208.79
3305.529, 14209.37
3307.457, 14220.40
3309.386, 14232.99
3311.314, 14232.27
3313.243, 14227.40
3315.171, 14228.05
3317.100, 14220.59
3319.028, 14218.38
3320.957, 14216.48
3322.885, 14208.83
3324.813, 14213.32
3326.742, 14204.69
3328.670, 14204.16
3330.599, 14209.25
3332.527, 14219.38
3334.456, 14225.66
3336.384, 14215.11
3338.313, 14203.60
3340.241, 14198.36
3342.170, 14196.07
3344.098, 14199.57
3346.027, 14199.37
3347.955, 14195.75
3349.884, 14183.18
3351.812, 14187.97
3353.740, 14175.94
3355.669, 14189.66
3357.597, 14198.01
3359.526, 14197.06
3361.454, 14175.88
3363.383, 14160.91
3365.311, 14156.74
3367.240, 14163.50
3369.168, 14181.89
3371.097, 14169.37
3373.025, 14179.30
3374.954, 14154.88
3376.882, 14176.95
3378.811, 14173.45
3380.739, 14161.24
3382.667, 14148.22
3384.596, 14135.21
3386.524, 14118.37
3388.453, 14116.06
3390.381, 14127.57
3392.310, 14147.14
3394.238, 14164.39
3396.167, 14137.95
3398.095, 14111.68
3400.024, 14137.55
3401.952, 14165.94
3403.881, 14172.50
3405.809, 14167.61
3407.738, 14150.43
3409.666, 14141.46
3411.594, 14142.36
3413.523, 14149.21
3415.451, 14157.58
3417.380, 14158.54
3419.308, 14154.98
3421.237, 14143.99
3423.165, 14134.99
3425.094, 14128.57
3427.022, 14124.43
3428.951, 14121.10
3430.879, 14122.97
3432.808, 14125.08
3434.736, 14107.08
3436.665, 14083.72
3438.593, 14073.02
3440.521, 14071.43
3442.450, 14083.54
3444.378, 14090.10
3446.307, 14084.82
3448.235, 14079.17
3450.164, 14073.09
3452.092, 14071.59
3454.021, 14072.89
3455.949, 14081.06
3457.878, 14082.46
3459.806, 14080.13
3461.735, 14080.02
3463.663, 14066.93
3465.592, 14072.15
3467.520, 14054.59
3469.448, 14049.49
3471.377, 14054.75
3473.305, 14072.33
3475.234, 14086.78
3477.162, 14079.63
3479.091, 14068.78
3481.019, 14061.28
3482.948, 14052.52
3484.876, 14043.46
3486.805, 14026.06
3488.733, 14007.06
3490.662, 14008.17
3492.590, 14018.05
3494.519, 14027.02
3496.447, 14031.15
3498.375, 14026.56
3500.304, 14016.88
3502.232, 13997.37
3504.161, 14014.88
3506.089, 14002.00
3508.018, 13992.98
3509.946, 13994.55
3511.875, 13971.54
3513.803, 13956.98
3515.732, 13948.38
3517.660, 13954.57
3519.589, 13951.65
3521.517, 13978.37
3523.446, 13964.02
3525.374, 13977.89
3527.302, 13988.73
3529.231, 13949.20
3531.159, 13918.12
3533.088, 13933.80
3535.016, 13939.36
3536.945, 13929.88
3538.873, 13919.60
3540.802, 13912.80
3542.730, 13932.72
3544.659, 13949.88
3546.587, 13926.86
3548.516, 13908.46
3550.444, 13910.36
3552.373, 13915.40
3554.301, 13922.43
3556.229, 13915.56
3558.158, 13901.77
3560.086, 13894.01
3562.015, 13890.35
3563.943, 13890.27
3565.872, 13888.30
3567.800, 13881.22
3569.729, 13877.80
3571.657, 13877.79
3573.586, 13872.96
3575.514, 13865.20
3577.443, 13850.89
3579.371, 13847.96
3581.300, 13870.04
3583.228, 13885.79
3585.156, 13887.38
3587.085, 13873.63
3589.013, 13853.90
3590.942, 13863.11
3592.870, 13880.41
3594.799, 13886.78
3596.727, 13888.63
3598.656, 13887.98
3600.584, 13881.54
3602.513, 13870.20
3604.441, 13859.28
3606.370, 13854.82
3608.298, 13883.49
3610.227, 13893.50
3612.155, 13842.65
3614.083, 13809.18
3616.012, 13809.45
3617.940, 13823.38
3619.869, 13840.69
3621.797, 13826.84
3623.726, 13802.96
3625.654, 13779.08
3627.583, 13772.28
3629.511, 13800.13
3631.440, 13814.47
3633.368, 13815.49
3635.297, 13809.71
3637.225, 13803.92
3639.154, 13814.45
3641.082, 13817.16
3643.010, 13788.32
3644.939, 13777.21
3646.867, 13786.18
3648.796, 13801.50
3650.724, 13817.37
3652.653, 13827.79
3654.581, 13825.36
3656.510, 13833.20
3658.438, 13781.91
3660.367, 13817.04
3662.295, 13799.71
3664.224, 13751.38
3666.152, 13748.12
3668.081, 13754.57
3670.009, 13743.53
3671.938, 13730.00
3673.866, 13715.38
3675.794, 13706.38
3677.723, 13703.44
3679.651, 13720.52
3681.580, 13727.45
3683.508, 13680.61
3685.437, 13650.10
3687.365, 13665.45
3689.294, 13686.58
3691.222, 13706.49
3693.151, 13698.33
3695.079, 13676.60
3697.008, 13653.05
3698.936, 13636.89
3700.865, 13634.18
3702.793, 13639.35
3704.721, 13648.47
3706.650, 13637.07
3708.578, 13618.99
3710.507, 13611.48
3712.435, 13607.70
3714.364, 13608.87
3716.292, 13600.25
3718.221, 13584.89
3720.149, 13592.17
3722.078, 13602.55
3724.006, 13593.17
3725.935, 13570.28
3727.863, 13523.47
3729.792, 13507.67
3731.720, 13518.83
3733.648, 13508.52
3735.577, 13496.61
3737.505, 13514.28
3739.434, 13525.30
3741.362, 13503.64
3743.291, 13501.84
3745.219, 13514.71
3747.148, 13514.75
3749.076, 13505.89
3751.005, 13485.53
3752.933, 13475.23
3754.862, 13489.13
3756.790, 13493.54
3758.719, 13487.33
3760.647, 13464.56
3762.575, 13442.44
3764.504, 13433.97
3766.432, 13442.57
3768.361, 13429.83
3770.289, 13421.54
3772.218, 13427.53
3774.146, 13411.30
3776.075, 13414.41
3778.003, 13442.73
3779.932, 13449.18
3781.860, 13419.64
3783.789, 13401.12
3785.717, 13394.50
3787.646, 13407.14
3789.574, 13414.87
3791.502, 13401.06
3793.431, 13394.51
3795.359, 13399.35
3797.288, 13404.96
3799.216, 13403.31
3801.145, 13375.02
3803.073, 13353.78
3805.002, 13351.20
3806.930, 13349.14
3808.859, 13345.48
3810.787, 13343.21
3812.716, 13341.25
3814.644, 13340.45
3816.573, 13333.82
3818.501, 13342.47
3820.429, 13341.85
3822.358, 13347.29
3824.286, 13344.85
3826.215, 13333.62
3828.143, 13327.45
3830.072, 13315.70
3832.000, 13298.11
3833.929, 13295.51
3835.857, 13294.93
3837.786, 13275.58
3839.714, 13259.20
3841.643, 13257.25
3843.571, 13249.92
3845.500, 13240.33
3847.428, 13245.63
3849.356, 13249.46
3851.285, 13250.85
3853.213, 13256.06
3855.142, 13259.13
3857.070, 13267.62
3858.999, 13266.95
3860.927, 13260.31
3862.856, 13277.07
3864.784, 13239.65
3866.713, 13214.10
3868.641, 13201.61
3870.570, 13194.50
3872.498, 13191.35
3874.427, 13191.18
3876.355, 13190.96
3878.283, 13191.19
3880.212, 13184.03
3882.140, 13170.46
3884.069, 13145.81
3885.997, 13127.83
3887.926, 13124.74
3889.854, 13119.79
3891.783, 13111.70
3893.711, 13107.88
3895.640, 13078.39
3897.568, 13097.52
3899.497, 13082.09
3901.425, 13077.26
3903.354, 13034.06
3905.282, 13056.32
3907.210, 13030.03
3909.139, 13014.16
3911.067, 13032.69
3912.996, 13017.40
3914.924, 12981.37
3916.853, 12956.29
3918.781, 12940.17
3920.710, 12938.31
3922.638, 12945.63
3924.567, 12951.94
3926.495, 12937.50
3928.424, 12922.80
3930.352, 12914.85
3932.281, 12904.25
3934.209, 12894.08
3936.137, 12891.40
3938.066, 12890.90
3939.994, 12884.75
3941.923, 12888.37
3943.851, 12875.23
3945.780, 12890.97
3947.708, 12855.93
3949.637, 12851.28
3951.565, 12853.59
3953.494, 12834.63
3955.422, 12812.53
3957.351, 12803.16
3959.279, 12790.31
3961.208, 12766.89
3963.136, 12740.70
3965.064, 12722.86
3966.993, 12710.96
3968.921, 12707.90
3970.850, 12697.60
3972.778, 12692.11
3974.707, 12690.20
3976.635, 12682.64
3978.564, 12683.59
3980.492, 12682.79
3982.421, 12671.87
3984.349, 12653.75
3986.278, 12627.02
3988.206, 12614.01
3990.135, 12610.17
3992.063, 12601.81
3993.991, 12589.21
3995.920, 12569.57
3997.848, 12563.77
3999.777, 12571.99
4001.705, 12581.19
4003.634, 12585.20
4005.562, 12568.54
4007.491, 12557.01
4009.419, 12558.93
4011.348, 12560.13
4013.276, 12538.22
4015.205, 12535.43
4017.133, 12525.39
4019.062, 12510.33
4020.990, 12505.51
4022.918, 12491.55
4024.847, 12477.89
4026.775, 12460.55
4028.704, 12437.19
4030.632, 12424.59
4032.561, 12419.73
4034.489, 12409.30
4036.418, 12403.40
4038.346, 12402.78
4040.275, 12382.49
4042.203, 12362.89
4044.132, 12375.54
4046.060, 12373.91
4047.989, 12349.06
4049.917, 12324.82
4051.845, 12305.62
4053.774, 12291.94
4055.702, 12277.72
4057.631, 12263.39
4059.559, 12270.88
4061.488, 12283.09
4063.416, 12285.24
4065.345, 12272.77
4067.273, 12244.62
4069.202, 12234.00
4071.130, 12229.56
4073.059, 12211.56
4074.987, 12197.91
4076.916, 12194.01
4078.844, 12174.53
4080.772, 12153.40
4082.701, 12159.93
4084.629, 12161.95
4086.558, 12149.55
4088.486, 12134.66
4090.415, 12118.87
4092.343, 12103.59
4094.272, 12093.21
4096.200, 12086.14
4098.129, 12090.73
4100.057, 12081.14
4101.986, 12085.05
4103.914, 12089.82
4105.843, 12086.15
4107.771, 12060.29
4109.700, 12025.57
4111.628, 12016.42
4113.557, 12013.78
4115.485, 12001.38
4117.414, 11995.37
4119.342, 11997.75
4121.271, 11981.21
4123.199, 11967.08
4125.127, 11961.88
4127.056, 11941.08
4128.984, 11920.61
4130.913, 11919.22
4132.841, 11921.38
4134.770, 11909.81
4136.698, 11889.58
4138.626, 11878.87
4140.555, 11872.19
4142.483, 11866.48
4144.412, 11867.56
4146.340, 11857.99
4148.269, 11849.66
4150.197, 11843.68
4152.126, 11821.69
4154.054, 11807.25
4155.983, 11781.05
4157.911, 11759.25
4159.840, 11761.97
4161.768, 11764.17
4163.697, 11750.43
4165.625, 11736.19
4167.554, 11730.31
4169.482, 11728.09
4171.411, 11718.48
4173.339, 11706.13
4175.268, 11693.08
4177.196, 11673.94
4179.125, 11653.22
4181.053, 11639.97
4182.981, 11637.96
4184.910, 11631.01
4186.838, 11617.52
4188.767, 11605.18
4190.695, 11599.10
4192.624, 11595.09
4194.552, 11588.48
4196.480, 11584.04
4198.409, 11585.40
4200.337, 11570.91
4202.266, 11519.56
4204.194, 11501.56
4206.123, 11509.11
4208.051, 11508.75
4209.980, 11498.68
4211.908, 11482.24
4213.837, 11453.79
4215.765, 11426.55
4217.694, 11412.43
4219.622, 11429.11
4221.551, 11385.61
4223.479, 11374.03
4225.408, 11371.45
4227.336, 11338.83
4229.265, 11316.50
4231.193, 11311.82
4233.122, 11315.84
4235.050, 11319.17
4236.979, 11307.45
4238.907, 11292.80
4240.835, 11277.90
4242.764, 11257.65
4244.692, 11243.10
4246.621, 11250.52
4248.549, 11252.39
4250.478, 11244.67
4252.406, 11219.93
4254.334, 11202.88
4256.263, 11209.53
4258.191, 11220.13
4260.120, 11226.07
4262.048, 11207.33
4263.977, 11186.87
4265.905, 11172.85
4267.834, 11164.19
4269.762, 11151.53
4271.691, 11116.88
4273.619, 11090.65
4275.548, 11080.22
4277.476, 11066.27
4279.405, 11066.61
4281.333, 11110.89
4283.262, 11128.75
4285.190, 11115.81
4287.119, 11103.07
4289.047, 11091.21
4290.976, 11086.29
4292.904, 11060.26
4294.833, 11027.79
4296.761, 11037.21
4298.689, 11027.83
4300.618, 10972.03
4302.546, 10963.70
4304.475, 10978.17
4306.403, 10981.27
4308.332, 10973.28
4310.260, 10956.15
4312.188, 10974.80
4314.117, 10981.02
4316.045, 10914.76
4317.974, 10891.29
4319.902, 10902.29
4321.831, 10886.03
4323.759, 10863.71
4325.688, 10843.15
4327.616, 10818.44
4329.545, 10805.79
4331.473, 10807.37
4333.402, 10865.71
4335.330, 10822.01
4337.259, 10822.79
4339.187, 10826.66
4341.116, 10791.06
4343.044, 10776.60
4344.973, 10780.24
4346.901, 10772.26
4348.830, 10765.94
4350.758, 10766.80
4352.687, 10760.28
4354.615, 10755.61
4356.543, 10772.19
4358.472, 10775.78
4360.400, 10760.47
4362.329, 10722.27
4364.257, 10690.78
4366.186, 10686.61
4368.114, 10688.01
4370.042, 10689.38
4371.971, 10679.28
4373.899, 10670.69
4375.828, 10665.40
4377.756, 10652.01
4379.685, 10634.20
4381.613, 10612.98
4383.542, 10605.37
4385.470, 10609.09
4387.399, 10613.09
4389.327, 10611.11
4391.256, 10600.11
4393.184, 10582.13
4395.113, 10562.39
4397.041, 10547.82
4398.970, 10537.06
4400.898, 10527.69
4402.827, 10496.38
4404.755, 10478.19
4406.684, 10504.21
4408.612, 10490.41
4410.541, 10457.50
4412.469, 10439.78
4414.397, 10424.86
4416.326, 10410.81
4418.254, 10401.03
4420.183, 10393.51
4422.111, 10386.67
4424.040, 10392.10
4425.968, 10397.20
4427.896, 10375.73
4429.825, 10350.15
4431.753, 10327.59
4433.682, 10327.68
4435.610, 10334.13
4437.539, 10341.44
4439.467, 10317.48
4441.396, 10278.02
4443.324, 10249.62
4445.253, 10231.29
4447.181, 10223.73
4449.110, 10240.05
4451.038, 10252.95
4452.967, 10244.29
4454.895, 10220.10
4456.824, 10193.30
4458.752, 10186.48
4460.681, 10182.74
4462.609, 10177.92
4464.538, 10158.06
4466.466, 10145.48
4468.395, 10151.68
4470.323, 10152.89
4472.251, 10147.23
4474.180, 10141.97
4476.108, 10120.52
4478.037, 10115.06
4479.965, 10088.47
4481.894, 10060.03
4483.822, 10039.22
4485.750, 10034.76
4487.679, 10030.56
4489.607, 10020.51
4491.536, 10016.66
4493.464, 10010.03
4495.393, 10006.04
4497.321, 10000.76
4499.250, 9997.920
4501.178, 9988.998
4503.107, 9981.312
4505.035, 9985.058
4506.964, 9959.854
4508.892, 9922.843
4510.821, 9912.054
4512.749, 9895.059
4514.678, 9870.992
4516.606, 9887.423
4518.535, 9898.725
4520.463, 9881.058
4522.392, 9869.865
4524.320, 9858.759
4526.249, 9838.637
4528.177, 9823.600
4530.105, 9817.188
4532.034, 9797.367
4533.962, 9791.548
4535.891, 9776.491
4537.819, 9778.217
4539.748, 9791.062
4541.676, 9791.130
4543.604, 9774.209
4545.533, 9750.021
4547.461, 9730.405
4549.390, 9715.104
4551.318, 9702.064
4553.247, 9681.789
4555.175, 9666.608
4557.104, 9660.662
4559.032, 9671.654
4560.961, 9677.173
4562.889, 9656.905
4564.818, 9631.112
4566.746, 9613.224
4568.675, 9630.317
4570.603, 9631.510
4572.532, 9613.552
4574.460, 9586.191
4576.389, 9566.405
4578.317, 9557.936
4580.246, 9551.380
4582.174, 9531.418
4584.103, 9528.066
4586.031, 9521.179
4587.959, 9512.100
4589.888, 9509.810
4591.816, 9499.183
4593.745, 9483.769
4595.673, 9467.040
4597.602, 9446.389
4599.530, 9435.423
4601.458, 9422.920
4603.387, 9413.255
4605.315, 9407.517
4607.244, 9401.421
4609.172, 9402.431
4611.101, 9388.626
4613.029, 9384.757
4614.958, 9380.957
4616.886, 9353.385
4618.815, 9330.771
4620.743, 9315.954
4622.672, 9302.614
4624.600, 9287.833
4626.529, 9270.591
4628.457, 9244.307
4630.386, 9232.818
4632.314, 9226.430
4634.243, 9220.339
4636.171, 9225.153
4638.100, 9222.754
4640.028, 9225.316
4641.957, 9225.717
4643.885, 9209.406
4645.813, 9207.307
4647.742, 9213.159
4649.670, 9184.815
4651.599, 9151.540
4653.527, 9123.233
4655.456, 9122.432
4657.384, 9112.084
4659.313, 9075.703
4661.241, 9081.221
4663.169, 9095.798
4665.098, 9097.804
4667.026, 9051.672
4668.955, 9000.108
4670.883, 9001.563
4672.812, 8996.246
4674.740, 8983.240
4676.669, 8977.744
4678.597, 8975.163
4680.526, 8971.296
4682.454, 8962.951
4684.383, 8959.148
4686.311, 8946.266
4688.240, 8946.374
4690.168, 8939.759
4692.097, 8931.131
4694.025, 8916.381
4695.954, 8898.733
4697.882, 8877.201
4699.811, 8880.291
4701.739, 8880.490
4703.667, 8841.146
4705.596, 8832.584
4707.524, 8843.409
4709.453, 8849.506
4711.381, 8836.122
4713.310, 8807.311
4715.238, 8808.107
4717.167, 8761.713
4719.095, 8784.611
4721.023, 8778.357
4722.952, 8757.716
4724.880, 8730.095
4726.809, 8711.368
4728.737, 8695.029
4730.666, 8678.078
4732.594, 8673.116
4734.523, 8671.008
4736.451, 8665.764
4738.380, 8648.982
4740.308, 8632.963
4742.237, 8630.813
4744.165, 8615.200
4746.094, 8607.047
4748.022, 8598.320
4749.951, 8586.283
4751.879, 8585.094
4753.808, 8570.637
4755.736, 8565.793
4757.665, 8563.447
4759.593, 8536.773
4761.521, 8514.150
4763.450, 8499.287
4765.378, 8487.950
4767.307, 8483.150
4769.235, 8481.514
4771.164, 8460.994
4773.092, 8438.646
4775.021, 8420.576
4776.949, 8413.541
4778.877, 8410.414
4780.806, 8407.267
4782.734, 8389.533
4784.663, 8375.725
4786.591, 8375.133
4788.520, 8347.356
4790.448, 8326.318
4792.377, 8331.388
4794.305, 8328.892
4796.234, 8319.186
4798.162, 8302.439
4800.091, 8284.533
4802.019, 8268.619
4803.948, 8256.447
4805.876, 8254.311
4807.805, 8253.732
4809.733, 8247.447
4811.662, 8236.373
4813.590, 8202.834
4815.519, 8206.391
4817.447, 8190.875
4819.375, 8171.470
4821.304, 8181.652
4823.232, 8176.601
4825.161, 8156.735
4827.089, 8121.487
4829.018, 8109.901
4830.946, 8113.277
4832.875, 8110.685
4834.803, 8104.116
4836.731, 8093.424
4838.660, 8075.363
4840.588, 8064.857
4842.517, 8056.454
4844.445, 8027.223
4846.374, 8020.146
4848.302, 8026.259
4850.231, 8005.038
4852.159, 7998.891
4854.088, 8002.168
4856.016, 7977.878
4857.945, 7965.633
4859.873, 7963.222
4861.802, 7938.898
4863.730, 7933.095
4865.659, 7941.633
4867.587, 7938.992
4869.516, 7916.854
4871.444, 7884.412
4873.373, 7875.157
4875.301, 7860.529
4877.229, 7839.802
4879.158, 7822.846
4881.086, 7818.095
4883.015, 7800.822
4884.943, 7798.837
4886.872, 7782.081
4888.800, 7772.630
4890.729, 7772.716
4892.657, 7769.050
4894.585, 7759.083
4896.514, 7736.776
4898.442, 7721.730
4900.371, 7715.736
4902.299, 7697.646
4904.228, 7703.041
4906.156, 7673.131
4908.085, 7678.984
4910.013, 7670.188
4911.942, 7649.670
4913.870, 7636.892
4915.799, 7634.793
4917.727, 7632.336
4919.656, 7605.470
4921.584, 7587.034
4923.513, 7573.327
4925.441, 7559.521
4927.370, 7542.655
4929.298, 7544.663
4931.227, 7541.194
4933.155, 7539.459
4935.083, 7531.232
4937.012, 7520.920
4938.940, 7510.646
4940.869, 7495.248
4942.797, 7483.103
4944.726, 7471.999
4946.654, 7457.114
4948.583, 7448.731
4950.511, 7426.470
4952.439, 7426.326
4954.368, 7411.101
4956.296, 7390.316
4958.225, 7369.599
4960.153, 7350.257
4962.082, 7343.903
4964.010, 7343.526
4965.939, 7344.391
4967.867, 7332.750
4969.796, 7320.493
4971.724, 7313.944
4973.653, 7317.448
4975.581, 7307.590
4977.510, 7279.674
4979.438, 7259.616
4981.367, 7238.882
4983.295, 7216.630
4985.224, 7198.550
4987.152, 7194.034
4989.081, 7198.554
4991.009, 7193.505
4992.938, 7178.440
4994.866, 7157.162
4996.794, 7129.762
4998.723, 7132.602
5000.651, 7113.069
5002.580, 7118.440
5004.508, 7097.958
5006.437, 7086.231
5008.365, 7086.313
5010.293, 7069.331
5012.222, 7046.805
5014.150, 7027.662
5016.079, 7028.652
5018.007, 7026.412
5019.936, 7009.234
5021.864, 7001.444
5023.793, 6995.483
5025.721, 6986.361
5027.650, 6956.295
5029.578, 6950.191
5031.507, 6968.475
5033.435, 6956.642
5035.364, 6925.193
5037.292, 6891.475
5039.221, 6900.118
5041.149, 6884.032
5043.078, 6860.481
5045.006, 6875.711
5046.935, 6865.516
5048.863, 6843.909
5050.792, 6834.595
5052.720, 6810.669
5054.648, 6788.448
5056.577, 6779.892
5058.505, 6794.540
5060.434, 6791.084
5062.362, 6756.646
5064.291, 6733.864
5066.219, 6724.913
5068.147, 6725.520
5070.076, 6715.569
5072.004, 6709.152
5073.933, 6701.375
5075.861, 6670.557
5077.790, 6658.144
5079.718, 6656.470
5081.647, 6647.366
5083.575, 6646.380
5085.504, 6644.251
5087.432, 6633.022
5089.361, 6625.423
5091.289, 6612.065
5093.218, 6590.099
5095.146, 6576.576
5097.075, 6566.834
5099.003, 6559.718
5100.932, 6559.948
5102.860, 6553.306
5104.789, 6539.241
5106.717, 6519.677
5108.646, 6507.502
5110.574, 6499.958
5112.502, 6490.911
5114.431, 6480.447
5116.359, 6474.179
5118.288, 6462.576
5120.216, 6457.900
5122.145, 6453.292
5124.073, 6440.208
5126.001, 6431.989
5127.930, 6403.621
5129.858, 6373.158
5131.787, 6397.581
5133.715, 6405.358
5135.644, 6390.197
5137.572, 6353.136
5139.501, 6328.845
5141.429, 6323.168
5143.358, 6338.329
5145.286, 6328.937
5147.215, 6311.668
5149.143, 6294.927
5151.072, 6290.360
5153.000, 6287.735
5154.929, 6280.582
5156.857, 6255.720
5158.786, 6242.624
5160.714, 6238.013
5162.643, 6236.115
5164.571, 6240.556
5166.500, 6234.710
5168.428, 6213.602
5170.356, 6201.238
5172.285, 6190.558
5174.213, 6178.751
5176.142, 6159.672
5178.070, 6159.795
5179.999, 6162.248
5181.927, 6143.143
5183.855, 6136.082
5185.784, 6127.376
5187.712, 6108.356
5189.641, 6100.929
5191.569, 6092.737
5193.498, 6080.749
5195.426, 6063.708
5197.355, 6063.547
5199.283, 6068.533
5201.212, 6060.229
5203.140, 6048.175
5205.069, 6033.681
5206.997, 6017.323
5208.926, 6012.778
5210.854, 5997.662
5212.783, 5987.098
5214.711, 5976.739
5216.640, 5963.202
5218.568, 5955.731
5220.497, 5941.324
5222.425, 5920.948
5224.354, 5908.824
5226.282, 5909.638
5228.210, 5902.947
5230.139, 5900.266
5232.067, 5892.379
5233.996, 5841.337
5235.924, 5826.294
5237.853, 5829.309
5239.781, 5828.302
5241.709, 5824.834
5243.638, 5808.684
5245.566, 5785.143
5247.495, 5799.148
5249.423, 5787.889
5251.352, 5761.123
5253.280, 5754.549
5255.209, 5726.127
5257.137, 5701.837
5259.066, 5697.954
5260.994, 5701.119
5262.923, 5698.906
5264.851, 5690.204
5266.780, 5686.648
5268.708, 5673.610
5270.637, 5669.711
5272.565, 5654.568
5274.494, 5643.120
5276.422, 5631.547
5278.351, 5617.604
5280.279, 5603.524
5282.208, 5591.565
5284.136, 5575.475
5286.064, 5562.420
5287.993, 5553.493
5289.921, 5550.987
5291.850, 5553.176
5293.778, 5543.111
5295.707, 5526.949
5297.635, 5511.960
5299.563, 5507.950
5301.492, 5498.428
5303.420, 5495.342
5305.349, 5503.329
5307.277, 5467.591
5309.206, 5447.878
5311.134, 5446.384
5313.063, 5441.646
5314.991, 5423.116
5316.920, 5408.616
5318.848, 5408.413
5320.777, 5401.250
5322.705, 5385.060
5324.634, 5362.947
5326.562, 5340.185
5328.491, 5321.497
5330.419, 5315.351
5332.348, 5323.538
5334.276, 5320.161
5336.205, 5306.440
5338.133, 5291.417
5340.062, 5295.382
5341.990, 5287.689
5343.918, 5275.084
5345.847, 5264.416
5347.775, 5287.669
5349.704, 5277.271
5351.632, 5243.655
5353.561, 5236.065
5355.489, 5201.692
5357.417, 5171.985
5359.346, 5166.293
5361.274, 5154.318
5363.203, 5145.388
5365.131, 5137.703
5367.060, 5125.093
5368.988, 5120.861
5370.917, 5112.722
5372.845, 5131.618
5374.774, 5099.980
5376.702, 5085.677
5378.631, 5077.508
5380.559, 5045.151
5382.488, 5044.286
5384.416, 5037.710
5386.345, 5016.445
5388.273, 4996.078
5390.202, 4989.377
5392.130, 4978.785
5394.059, 4971.461
5395.987, 4967.190
5397.916, 4960.642
5399.844, 4953.064
5401.772, 4947.382
5403.701, 4938.001
5405.629, 4926.774
5407.558, 4920.186
5409.486, 4928.521
5411.415, 4906.559
5413.343, 4878.757
5415.271, 4889.608
5417.200, 4878.330
5419.128, 4864.833
5421.057, 4854.906
5422.985, 4832.576
5424.914, 4816.991
5426.842, 4808.541
5428.771, 4803.957
5430.699, 4788.313
5432.628, 4776.016
5434.556, 4768.229
5436.485, 4762.174
5438.413, 4749.396
5440.342, 4743.134
5442.270, 4731.870
5444.199, 4721.230
5446.127, 4709.792
5448.056, 4686.769
5449.984, 4674.109
5451.913, 4662.921
5453.841, 4651.224
5455.770, 4640.575
5457.698, 4633.601
5459.626, 4626.403
5461.555, 4620.209
5463.483, 4616.004
5465.412, 4607.896
5467.340, 4601.788
5469.269, 4590.375
5471.197, 4570.983
5473.125, 4560.549
5475.054, 4540.543
5476.982, 4525.055
5478.911, 4520.041
5480.839, 4530.030
5482.768, 4515.366
5484.696, 4507.565
5486.625, 4514.784
5488.553, 4506.195
5490.482, 4491.144
5492.410, 4476.588
5494.339, 4456.419
5496.267, 4439.160
5498.196, 4426.958
5500.124, 4420.155
5502.053, 4424.301
5503.981, 4418.554
5505.910, 4402.982
5507.838, 4386.067
5509.767, 4373.862
5511.695, 4363.526
5513.624, 4352.054
5515.552, 4341.414
5517.480, 4327.217
5519.409, 4321.582
5521.337, 4310.713
5523.266, 4303.149
5525.194, 4298.150
5527.123, 4288.739
5529.051, 4278.940
5530.979, 4267.269
5532.908, 4256.869
5534.836, 4241.689
5536.765, 4230.945
5538.693, 4221.934
5540.622, 4207.431
5542.550, 4187.376
5544.479, 4180.073
5546.407, 4160.616
5548.336, 4160.941
5550.264, 4157.921
5552.193, 4152.004
5554.121, 4139.893
5556.050, 4121.757
5557.978, 4101.678
5559.907, 4094.542
5561.835, 4083.735
5563.764, 4076.050
5565.692, 4076.607
5567.621, 4067.214
5569.549, 4071.570
5571.478, 4069.546
5573.406, 4046.972
5575.334, 4031.533
5577.263, 4016.217
5579.191, 4010.365
5581.120, 4027.214
5583.048, 3997.469
5584.977, 3993.352
5586.905, 4000.658
5588.833, 3980.018
5590.762, 3963.661
5592.690, 3952.531
5594.619, 3943.779
5596.547, 3933.533
5598.476, 3927.455
5600.404, 3916.656
5602.333, 3902.667
5604.261, 3896.128
5606.190, 3880.912
5608.118, 3869.835
5610.047, 3867.246
5611.975, 3855.526
5613.904, 3855.434
5615.832, 3842.653
5617.761, 3841.107
5619.689, 3838.765
5621.618, 3820.901
5623.546, 3805.485
5625.475, 3794.592
5627.403, 3765.613
5629.332, 3759.184
5631.260, 3757.109
5633.188, 3753.469
5635.117, 3766.273
5637.045, 3749.763
5638.974, 3715.613
5640.902, 3686.708
5642.831, 3706.143
5644.759, 3696.755
5646.688, 3682.934
5648.616, 3681.292
5650.544, 3672.511
5652.473, 3665.261
5654.401, 3662.568
5656.330, 3648.876
5658.258, 3643.781
5660.187, 3628.641
5662.115, 3620.455
5664.044, 3619.997
5665.972, 3609.646
5667.901, 3589.948
5669.829, 3575.979
5671.758, 3569.463
5673.686, 3560.866
5675.615, 3547.672
5677.543, 3549.374
5679.472, 3524.178
5681.400, 3507.806
5683.329, 3498.189
5685.257, 3514.758
5687.186, 3486.677
5689.114, 3493.639
5691.042, 3500.686
5692.971, 3487.221
5694.899, 3461.613
5696.828, 3442.724
5698.756, 3455.304
5700.685, 3452.186
5702.613, 3434.610
5704.542, 3419.193
5706.470, 3409.786
5708.398, 3397.472
5710.327, 3383.921
5712.255, 3372.875
5714.184, 3366.611
5716.112, 3375.442
5718.041, 3374.633
5719.969, 3351.555
5721.898, 3349.781
5723.826, 3332.564
5725.755, 3319.598
5727.683, 3318.245
5729.612, 3295.648
5731.540, 3294.630
5733.469, 3296.899
5735.397, 3291.770
5737.326, 3279.741
5739.254, 3264.722
5741.183, 3246.035
5743.111, 3235.500
5745.040, 3225.990
5746.968, 3233.191
5748.896, 3218.105
5750.825, 3215.340
5752.753, 3222.895
5754.682, 3202.481
5756.610, 3187.372
5758.539, 3186.375
5760.467, 3168.190
5762.396, 3179.197
5764.324, 3151.865
5766.252, 3140.312
5768.181, 3146.797
5770.109, 3137.154
5772.038, 3133.363
5773.966, 3119.644
5775.895, 3105.650
5777.823, 3102.753
5779.752, 3107.420
5781.680, 3093.624
5783.609, 3085.412
5785.537, 3082.163
5787.466, 3066.698
5789.394, 3058.203
5791.323, 3052.167
5793.251, 3042.691
5795.180, 3027.495
5797.108, 3022.466
5799.037, 3015.653
5800.965, 3004.794
5802.894, 3000.466
5804.822, 2985.979
5806.750, 2978.155
5808.679, 2974.246
5810.607, 2964.768
5812.536, 2968.688
5814.464, 2963.789
5816.393, 2954.125
5818.321, 2944.409
5820.250, 2928.134
5822.178, 2916.648
5824.106, 2912.962
5826.035, 2909.788
5827.963, 2894.948
5829.892, 2889.845
5831.820, 2877.873
5833.749, 2868.412
5835.677, 2856.938
5837.606, 2840.807
5839.534, 2836.090
5841.463, 2838.479
5843.391, 2839.504
5845.320, 2824.303
5847.248, 2815.027
5849.177, 2807.677
5851.105, 2803.158
5853.034, 2794.429
5854.962, 2788.583
5856.891, 2778.787
5858.819, 2769.008
5860.748, 2758.359
5862.676, 2763.959
5864.604, 2750.066
5866.533, 2740.769
5868.461, 2735.708
5870.390, 2723.868
5872.318, 2724.870
5874.247, 2709.220
5876.175, 2692.921
5878.104, 2689.703
5880.032, 2698.211
5881.960, 2693.980
5883.889, 2688.187
5885.817, 2680.657
5887.746, 2667.082
5889.674, 2667.545
5891.603, 2653.679
5893.531, 2641.160
5895.460, 2637.326
5897.388, 2627.779
5899.317, 2624.055
5901.245, 2619.942
5903.174, 2615.317
5905.102, 2611.495
5907.031, 2598.839
5908.959, 2585.260
5910.888, 2570.854
5912.816, 2561.358
5914.745, 2557.150
5916.673, 2562.510
5918.602, 2556.393
5920.530, 2558.451
5922.458, 2562.632
5924.387, 2532.267
5926.315, 2519.130
5928.244, 2514.464
5930.172, 2509.829
5932.101, 2502.954
5934.029, 2504.283
5935.958, 2501.419
5937.886, 2493.266
5939.814, 2480.586
5941.743, 2464.262
5943.671, 2461.184
5945.600, 2454.846
5947.528, 2449.469
5949.457, 2444.917
5951.385, 2441.406
5953.314, 2433.114
5955.242, 2424.294
5957.171, 2414.453
5959.099, 2409.906
5961.028, 2394.124
5962.956, 2391.016
5964.885, 2380.619
5966.813, 2367.260
5968.742, 2375.910
5970.670, 2372.624
5972.599, 2367.365
5974.527, 2365.260
5976.456, 2363.387
5978.384, 2347.426
5980.313, 2363.654
5982.241, 2361.917
5984.169, 2346.555
5986.098, 2333.328
5988.026, 2329.788
5989.955, 2313.479
5991.883, 2304.555
5993.812, 2299.396
5995.740, 2290.244
5997.668, 2288.684
5999.597, 2264.316
6001.525, 2252.918
6003.454, 2256.313
6005.382, 2258.248
6007.311, 2242.543
6009.239, 2238.191
6011.168, 2239.845
6013.096, 2239.132
6015.025, 2232.103
6016.953, 2231.361
6018.882, 2207.790
6020.810, 2196.774
6022.739, 2199.552
6024.667, 2193.419
6026.596, 2193.033
6028.524, 2176.714
6030.453, 2165.298
6032.381, 2160.024
6034.310, 2146.481
6036.238, 2145.844
6038.167, 2132.349
6040.095, 2126.717
6042.023, 2131.417
6043.952, 2129.669
6045.880, 2111.069
6047.809, 2100.397
6049.737, 2093.489
6051.666, 2088.901
6053.594, 2090.427
6055.522, 2098.293
6057.451, 2075.462
6059.379, 2068.348
6061.308, 2077.072
6063.236, 2065.139
6065.165, 2055.738
6067.093, 2047.910
6069.022, 2041.456
6070.950, 2033.328
6072.879, 2025.977
6074.807, 2020.650
6076.736, 2012.948
6078.664, 2009.961
6080.593, 2008.592
6082.521, 2007.691
6084.450, 1998.821
6086.378, 1986.431
6088.307, 1974.417
6090.235, 1960.675
6092.164, 1946.890
6094.092, 1968.691
6096.021, 1962.908
6097.949, 1950.739
6099.877, 1944.227
6101.806, 1943.524
6103.734, 1940.392
6105.663, 1935.149
6107.591, 1933.215
6109.520, 1923.615
6111.448, 1920.061
6113.376, 1913.747
6115.305, 1906.186
6117.233, 1899.597
6119.162, 1886.380
6121.090, 1875.032
6123.019, 1875.232
6124.947, 1869.536
6126.876, 1866.514
6128.804, 1858.209
6130.733, 1848.380
6132.661, 1844.540
6134.590, 1841.682
6136.518, 1829.922
6138.447, 1831.594
6140.375, 1833.016
6142.304, 1823.481
6144.232, 1821.333
6146.161, 1806.824
6148.089, 1799.992
6150.018, 1790.748
6151.946, 1779.333
6153.875, 1780.242
6155.803, 1785.480
6157.731, 1771.238
6159.660, 1769.868
6161.588, 1768.022
6163.517, 1747.370
6165.445, 1756.900
6167.374, 1755.651
6169.302, 1744.826
6171.230, 1742.101
6173.159, 1734.201
6175.087, 1731.872
6177.016, 1719.303
6178.944, 1714.657
6180.873, 1708.640
6182.801, 1701.729
6184.730, 1698.928
6186.658, 1700.400
6188.587, 1690.969
6190.515, 1684.141
6192.444, 1675.394
6194.372, 1666.913
6196.301, 1673.450
6198.229, 1658.100
6200.158, 1662.652
6202.086, 1658.836
6204.015, 1650.474
6205.943, 1649.765
6207.872, 1632.098
6209.800, 1622.541
6211.729, 1630.388
6213.657, 1626.357
6215.585, 1611.498
6217.514, 1610.970
6219.442, 1604.056
6221.371, 1597.886
6223.299, 1592.615
6225.228, 1589.686
6227.156, 1581.589
6229.084, 1578.763
6231.013, 1579.603
6232.941, 1582.466
6234.870, 1575.738
6236.798, 1568.877
6238.727, 1568.314
6240.655, 1550.759
6242.584, 1551.210
6244.512, 1544.789
6246.441, 1545.680
6248.369, 1543.845
6250.298, 1538.697
6252.226, 1538.277
6254.155, 1527.990
6256.083, 1529.784
6258.012, 1521.234
6259.940, 1516.689
6261.869, 1498.953
6263.797, 1504.308
6265.726, 1490.793
6267.654, 1479.430
6269.583, 1479.791
6271.511, 1484.820
6273.439, 1480.054
6275.368, 1470.202
6277.296, 1463.101
6279.225, 1462.529
6281.153, 1459.017
6283.082, 1453.046
6285.010, 1458.865
6286.938, 1445.369
6288.867, 1445.878
6290.795, 1443.552
6292.724, 1429.106
6294.652, 1413.076
6296.581, 1419.858
6298.509, 1411.315
6300.438, 1409.449
6302.366, 1405.081
6304.295, 1400.809
6306.223, 1399.342
6308.152, 1396.568
6310.080, 1381.177
6312.009, 1367.843
6313.937, 1376.473
6315.866, 1384.646
6317.794, 1376.289
6319.723, 1360.377
6321.651, 1366.196
6323.580, 1354.427
6325.508, 1355.127
6327.437, 1349.934
6329.365, 1340.173
6331.293, 1345.104
6333.222, 1343.806
6335.150, 1333.656
6337.079, 1333.410
6339.007, 1329.461
6340.936, 1322.396
6342.864, 1320.046
6344.792, 1311.970
6346.721, 1308.416
6348.649, 1305.103
6350.578, 1299.110
6352.506, 1291.600
6354.435, 1287.018
6356.363, 1290.315
6358.292, 1268.736
6360.220, 1280.908
6362.149, 1276.403
6364.077, 1263.809
6366.006, 1263.269
6367.934, 1258.335
6369.863, 1253.617
6371.791, 1253.840
6373.720, 1247.055
6375.648, 1244.213
6377.577, 1239.102
6379.505, 1230.191
6381.434, 1223.744
6383.362, 1233.498
6385.291, 1228.198
6387.219, 1222.651
6389.147, 1214.836
6391.076, 1209.753
6393.004, 1217.589
6394.933, 1202.312
6396.861, 1207.657
6398.790, 1210.830
6400.718, 1200.459
6402.646, 1184.964
6404.575, 1178.656
6406.503, 1188.834
6408.432, 1186.310
6410.360, 1181.844
6412.289, 1174.669
6414.217, 1171.202
6416.146, 1167.288
6418.074, 1155.768
6420.003, 1153.661
6421.931, 1156.175
6423.860, 1159.485
6425.788, 1149.334
6427.717, 1146.788
6429.645, 1151.794
6431.574, 1139.335
6433.502, 1135.612
6435.431, 1132.730
6437.359, 1121.116
6439.288, 1121.965
6441.216, 1118.429
6443.145, 1102.754
6445.073, 1099.578
6447.001, 1100.066
6448.930, 1099.437
6450.858, 1103.380
6452.787, 1093.831
6454.715, 1090.273
6456.644, 1101.555
6458.572, 1096.025
6460.500, 1083.758
6462.429, 1075.643
6464.357, 1076.992
6466.286, 1073.886
6468.214, 1074.578
6470.143, 1077.267
6472.071, 1059.533
6474.000, 1065.445
6475.928, 1055.043
6477.857, 1042.080
6479.785, 1046.720
6481.714, 1038.788
6483.642, 1037.500
6485.571, 1036.006
6487.499, 1033.116
6489.428, 1032.661
6491.356, 1029.316
6493.285, 1024.085
6495.213, 1024.489
6497.142, 1021.794
6499.070, 1021.772
6500.999, 1019.641
6502.927, 1007.423
6504.855, 1000.156
6506.784, 994.9886
6508.712, 1000.881
6510.641, 1004.803
6512.569, 992.0374
6514.498, 979.7243
6516.426, 993.2129
6518.354, 992.1425
6520.283, 978.3270
6522.211, 976.1620
6524.140, 974.0609
6526.068, 965.4007
6527.997, 966.9769
6529.925, 966.0304
6531.854, 962.3033
6533.782, 953.9911
6535.711, 954.9910
6537.639, 951.3563
6539.568, 946.7477
6541.496, 946.9493
6543.425, 944.1153
6545.353, 943.0336
6547.282, 940.6823
6549.210, 932.9329
6551.139, 928.2482
6553.067, 921.2195
6554.996, 916.2638
6556.924, 922.4081
6558.853, 924.0614
6560.781, 926.2204
6562.709, 912.1461
6564.638, 912.4631
6566.566, 909.1578
6568.495, 905.5372
6570.423, 902.1520
6572.352, 900.7477
6574.280, 899.9847
6576.208, 899.3524
6578.137, 894.0944
6580.065, 894.9502
6581.994, 886.8300
6583.922, 875.9284
6585.851, 874.3213
6587.779, 880.4662
6589.708, 885.2357
6591.636, 879.9575
6593.565, 876.2404
6595.493, 871.2424
6597.422, 869.1429
6599.350, 865.2277
6601.279, 859.1883
6603.207, 855.7417
6605.136, 848.3987
6607.064, 853.3572
6608.993, 843.7971
6610.921, 840.9594
6612.850, 843.1063
6614.778, 839.0028
6616.707, 831.5721
6618.635, 828.6063
6620.563, 824.8694
6622.492, 828.7563
6624.420, 826.6309
6626.349, 820.4937
6628.277, 817.1212
6630.206, 817.2830
##END=



