##NAMES=Arakiite
##RRUFFID=R060812
##IDEAL CHEMISTRY=ZnMn^2+^_12_Fe^3+^_2_(As^3+^O_3_)(As^5+^O_4_)_2_(OH)_23_
##LOCALITY=Nordmark, Sweden
##OWNER=RRUFF
##SOURCE=Michael Scott
##DESCRIPTION=Deep red massive between grains
##STATUS=The identification of this mineral has been confirmed by single-crystal X-ray diffraction
##URL=https://www.rruff.net/odr/rruff_sample/R060812
##DIFFRACTION SAMPLE DESCRIPTION=Single crystal, powder profile is calculated
##CELL PARAMETERS=a: 14.36 b: 8.273 c: 24.28 alpha: 90 beta: 93.52 gamma: 90 volume: 2880 crystal system: monoclinic
##FILETYPE=Raman RAW
##RAMAN WAVELENGTH=785

198.634, 6685.508
200.562, 6780.407
202.491, 6896.190
204.419, 6955.875
206.348, 6950.031
208.276, 6925.436
210.205, 6880.557
212.133, 6837.279
214.062, 6807.971
215.990, 6789.507
217.919, 6772.630
219.847, 6755.899
221.776, 6757.672
223.704, 6787.486
225.633, 6816.583
227.561, 6826.802
229.490, 6837.298
231.418, 6865.767
233.346, 6907.940
235.275, 6940.936
237.203, 6963.618
239.132, 6987.114
241.060, 7014.426
242.989, 7040.724
244.917, 7068.975
246.846, 7092.171
248.774, 7098.549
250.703, 7090.186
252.631, 7089.816
254.560, 7096.451
256.488, 7115.433
258.417, 7160.814
260.345, 7199.044
262.273, 7213.968
264.202, 7214.115
266.130, 7206.149
268.059, 7191.159
269.987, 7190.663
271.916, 7209.148
273.844, 7222.705
275.773, 7225.602
277.701, 7221.174
279.630, 7198.136
281.558, 7176.227
283.487, 7193.601
285.415, 7246.030
287.344, 7268.178
289.272, 7252.062
291.200, 7239.035
293.129, 7248.105
295.057, 7251.747
296.986, 7226.951
298.914, 7197.264
300.843, 7195.083
302.771, 7218.638
304.700, 7248.072
306.628, 7284.771
308.557, 7317.737
310.485, 7342.908
312.414, 7366.031
314.342, 7392.609
316.271, 7416.144
318.199, 7424.096
320.127, 7421.854
322.056, 7432.830
323.984, 7456.637
325.913, 7497.235
327.841, 7566.299
329.770, 7631.634
331.698, 7686.326
333.627, 7729.579
335.555, 7756.035
337.484, 7771.190
339.412, 7789.443
341.341, 7810.957
343.269, 7835.509
345.198, 7861.082
347.126, 7897.393
349.054, 7960.342
350.983, 8019.744
352.911, 8062.599
354.840, 8090.481
356.768, 8096.940
358.697, 8088.047
360.625, 8096.732
362.554, 8128.444
364.482, 8152.387
366.411, 8154.077
368.339, 8157.363
370.267, 8167.207
372.196, 8183.705
374.125, 8207.900
376.053, 8239.216
377.981, 8276.391
379.910, 8319.115
381.838, 8361.168
383.767, 8402.488
385.695, 8441.081
387.624, 8473.960
389.552, 8507.893
391.481, 8547.014
393.409, 8588.408
395.338, 8638.474
397.266, 8686.315
399.194, 8699.684
401.123, 8676.334
403.052, 8640.263
404.980, 8585.889
406.908, 8534.181
408.837, 8488.605
410.765, 8446.433
412.694, 8405.272
414.622, 8367.815
416.551, 8342.018
418.479, 8322.897
420.408, 8293.168
422.336, 8250.677
424.265, 8218.468
426.193, 8193.182
428.122, 8191.071
430.050, 8232.824
431.978, 8275.239
433.907, 8301.128
435.835, 8311.930
437.764, 8304.019
439.692, 8283.599
441.621, 8266.311
443.549, 8253.467
445.478, 8231.922
447.406, 8196.241
449.335, 8159.898
451.263, 8120.162
453.192, 8085.448
455.120, 8058.544
457.048, 8038.053
458.977, 8021.683
460.905, 8010.871
462.834, 8007.294
464.762, 8011.340
466.691, 8032.186
468.619, 8079.550
470.548, 8121.349
472.476, 8158.774
474.405, 8186.998
476.333, 8185.486
478.262, 8196.451
480.190, 8250.481
482.119, 8331.229
484.047, 8420.365
485.975, 8516.405
487.904, 8614.631
489.832, 8712.501
491.761, 8825.895
493.689, 8950.001
495.618, 9101.073
497.546, 9291.981
499.475, 9495.311
501.403, 9701.742
503.332, 9917.221
505.260, 10173.400
507.189, 10424.420
509.117, 10610.050
511.046, 10732.300
512.974, 10813.700
514.903, 10869.740
516.831, 10816.010
518.760, 10596.960
520.688, 10357.830
522.616, 10087.780
524.545, 9829.566
526.473, 9603.442
528.402, 9389.950
530.330, 9176.232
532.259, 8966.659
534.187, 8764.353
536.116, 8570.972
538.044, 8394.025
539.973, 8232.077
541.901, 8093.033
543.830, 7992.241
545.758, 7883.083
547.687, 7750.069
549.615, 7631.728
551.543, 7546.940
553.472, 7469.280
555.400, 7383.082
557.329, 7297.109
559.257, 7214.725
561.186, 7140.541
563.114, 7087.801
565.043, 7055.499
566.971, 7021.787
568.900, 6986.314
570.828, 6949.940
572.756, 6907.249
574.685, 6877.358
576.614, 6869.012
578.542, 6862.851
580.470, 6853.621
582.399, 6841.867
584.327, 6820.747
586.256, 6803.783
588.184, 6812.307
590.113, 6831.456
592.041, 6821.046
593.970, 6784.514
595.898, 6777.935
597.827, 6811.832
599.755, 6824.248
601.683, 6808.516
603.612, 6793.639
605.541, 6779.363
607.469, 6778.394
609.397, 6798.448
611.326, 6828.371
613.254, 6865.279
615.183, 6906.596
617.111, 6958.059
619.040, 7007.127
620.968, 7035.444
622.897, 7045.430
624.825, 7046.461
626.754, 7038.398
628.682, 7019.174
630.610, 6989.854
632.539, 6941.854
634.468, 6868.049
636.396, 6802.061
638.324, 6751.155
640.253, 6707.045
642.181, 6666.610
644.110, 6632.630
646.038, 6610.046
647.967, 6590.893
649.895, 6565.914
651.824, 6544.370
653.752, 6544.055
655.681, 6555.015
657.609, 6549.095
659.537, 6528.413
661.466, 6512.662
663.394, 6501.245
665.323, 6498.765
667.251, 6506.784
669.180, 6511.340
671.108, 6510.178
673.037, 6506.857
674.965, 6500.039
676.894, 6497.177
678.822, 6507.051
680.751, 6513.939
682.679, 6508.456
684.608, 6499.487
686.536, 6490.076
688.464, 6483.746
690.393, 6486.235
692.321, 6494.499
694.250, 6505.963
696.178, 6517.843
698.107, 6514.024
700.035, 6496.975
701.964, 6483.957
703.892, 6475.356
705.821, 6494.750
707.749, 6549.982
709.678, 6594.334
711.606, 6615.369
713.535, 6635.481
715.463, 6649.975
717.391, 6682.990
719.320, 6752.735
721.248, 6826.617
723.177, 6885.432
725.105, 6949.834
727.034, 7044.380
728.962, 7142.378
730.891, 7218.911
732.819, 7279.269
734.748, 7341.212
736.676, 7389.694
738.605, 7379.458
740.533, 7323.761
742.462, 7266.986
744.390, 7208.688
746.318, 7138.091
748.247, 7054.675
750.175, 6982.347
752.104, 6924.035
754.032, 6871.369
755.961, 6813.915
757.889, 6792.933
759.818, 6816.644
761.746, 6876.708
763.675, 6923.135
765.603, 7076.849
767.532, 7395.671
769.460, 7796.780
771.389, 8274.682
773.317, 8782.078
775.245, 9373.283
777.174, 9888.209
779.102, 10245.070
781.031, 10395.040
782.959, 10226.710
784.888, 9850.244
786.816, 9356.104
788.745, 8823.455
790.673, 8397.829
792.602, 8070.844
794.530, 7818.040
796.459, 7638.426
798.387, 7538.609
800.316, 7517.187
802.244, 7530.128
804.172, 7573.467
806.101, 7673.209
808.029, 7836.448
809.958, 8034.575
811.886, 8295.162
813.815, 8514.116
815.743, 8718.584
817.672, 8816.555
819.600, 8789.455
821.529, 8676.362
823.457, 8450.183
825.386, 8196.289
827.314, 7920.327
829.243, 7648.408
831.171, 7380.378
833.099, 7133.182
835.028, 6905.947
836.956, 6713.738
838.885, 6584.479
840.813, 6471.414
842.742, 6331.682
844.670, 6199.189
846.599, 6101.469
848.527, 6030.728
850.456, 5988.538
852.384, 5958.708
854.313, 5917.735
856.241, 5875.970
858.170, 5857.263
860.098, 5849.105
862.026, 5818.040
863.955, 5774.841
865.883, 5758.775
867.812, 5762.139
869.740, 5741.854
871.669, 5701.703
873.597, 5677.745
875.526, 5669.433
877.454, 5649.788
879.383, 5617.270
881.311, 5598.513
883.240, 5594.740
885.168, 5593.405
887.097, 5595.531
889.025, 5592.520
890.953, 5582.719
892.882, 5573.861
894.810, 5570.457
896.739, 5552.020
898.667, 5511.975
900.596, 5479.823
902.524, 5456.170
904.453, 5449.330
906.381, 5469.553
908.310, 5471.337
910.238, 5436.882
912.167, 5422.071
914.095, 5445.205
916.024, 5459.257
917.952, 5453.792
919.880, 5437.554
921.809, 5404.600
923.737, 5387.299
925.666, 5402.908
927.594, 5412.459
929.523, 5406.627
931.451, 5386.881
933.380, 5345.747
935.308, 5311.901
937.237, 5295.485
939.165, 5288.810
941.094, 5292.328
943.022, 5298.369
944.951, 5308.284
946.879, 5309.718
948.807, 5289.790
950.736, 5274.372
952.664, 5281.667
954.593, 5280.664
956.521, 5247.546
958.450, 5221.333
960.378, 5224.669
962.307, 5229.672
964.235, 5229.121
966.164, 5221.134
968.092, 5195.967
970.021, 5177.046
971.949, 5180.938
973.878, 5184.122
975.806, 5172.747
977.734, 5163.434
979.663, 5165.211
981.591, 5168.133
983.520, 5173.894
985.448, 5170.427
987.377, 5145.672
989.305, 5119.958
991.234, 5096.279
993.162, 5083.279
995.091, 5099.000
997.019, 5105.481
998.948, 5073.089
1000.876, 5046.096
1002.805, 5047.839
1004.733, 5052.723
1006.661, 5050.229
1008.590, 5048.112
1010.518, 5046.844
1012.447, 5051.300
1014.375, 5076.465
1016.304, 5088.063
1018.232, 5059.021
1020.161, 5037.596
1022.089, 5052.744
1024.018, 5057.315
1025.946, 5024.330
1027.875, 4997.615
1029.803, 4994.876
1031.732, 4991.438
1033.660, 4977.153
1035.589, 4968.753
1037.517, 4982.282
1039.445, 4981.384
1041.374, 4936.107
1043.302, 4916.790
1045.231, 4952.234
1047.159, 4979.369
1049.088, 4994.880
1051.016, 4987.238
1052.945, 4940.332
1054.873, 4906.676
1056.802, 4899.480
1058.730, 4886.152
1060.659, 4853.859
1062.587, 4850.344
1064.516, 4894.362
1066.444, 4910.065
1068.372, 4884.750
1070.301, 4863.182
1072.229, 4846.900
1074.158, 4841.618
1076.086, 4849.046
1078.015, 4852.564
1079.943, 4851.456
1081.872, 4847.686
1083.800, 4841.208
1085.729, 4821.844
1087.657, 4791.329
1089.586, 4777.908
1091.514, 4780.125
1093.443, 4788.981
1095.371, 4800.156
1097.299, 4787.554
1099.228, 4762.978
1101.156, 4772.673
1103.085, 4798.321
1105.013, 4790.977
1106.942, 4767.551
1108.870, 4758.551
1110.799, 4756.532
1112.727, 4750.760
1114.656, 4744.464
1116.584, 4741.032
1118.513, 4739.112
1120.441, 4738.938
1122.370, 4737.864
1124.298, 4732.111
1126.226, 4728.247
1128.155, 4739.844
1130.083, 4739.860
1132.012, 4705.087
1133.940, 4672.147
1135.869, 4657.359
1137.797, 4647.457
1139.726, 4636.659
1141.654, 4631.646
1143.583, 4633.510
1145.511, 4644.094
1147.440, 4672.378
1149.368, 4675.648
1151.297, 4638.626
1153.225, 4617.536
1155.153, 4622.028
1157.082, 4615.552
1159.010, 4594.896
1160.939, 4581.438
1162.867, 4575.339
1164.796, 4579.041
1166.724, 4589.634
1168.653, 4578.282
1170.581, 4554.773
1172.510, 4559.810
1174.438, 4579.235
1176.367, 4578.178
1178.295, 4570.315
1180.224, 4582.600
1182.152, 4595.722
1184.080, 4582.044
1186.009, 4565.481
1187.937, 4568.533
1189.866, 4572.654
1191.794, 4570.371
1193.723, 4560.385
1195.651, 4537.197
1197.580, 4517.902
1199.508, 4508.770
1201.437, 4501.974
1203.365, 4496.271
1205.294, 4491.250
1207.222, 4487.052
1209.151, 4482.449
1211.079, 4477.170
1213.007, 4466.069
1214.936, 4450.172
1216.864, 4451.540
1218.793, 4467.098
1220.721, 4477.053
1222.650, 4483.565
1224.578, 4499.170
1226.507, 4510.532
1228.435, 4489.468
1230.364, 4455.080
1232.292, 4415.883
1234.221, 4393.792
1236.149, 4427.019
1238.078, 4453.878
1240.006, 4425.387
1241.934, 4407.604
1243.863, 4434.243
1245.791, 4449.692
1247.720, 4441.500
1249.648, 4428.500
1251.577, 4412.258
1253.505, 4395.996
1255.434, 4380.067
1257.362, 4364.611
1259.291, 4352.996
1261.219, 4375.079
1263.148, 4412.957
1265.076, 4404.516
1267.005, 4376.354
1268.933, 4374.505
1270.861, 4379.078
1272.790, 4366.710
1274.718, 4351.329
1276.647, 4339.782
1278.575, 4335.089
1280.504, 4341.343
1282.432, 4350.839
1284.361, 4371.108
1286.289, 4374.579
1288.218, 4354.080
1290.146, 4331.056
1292.075, 4304.843
1294.003, 4307.115
1295.932, 4331.696
1297.860, 4314.621
1299.788, 4276.562
1301.717, 4290.355
1303.645, 4316.680
1305.574, 4285.742
1307.502, 4252.411
1309.431, 4274.594
1311.359, 4301.000
1313.288, 4308.768
1315.216, 4300.013
1317.145, 4262.040
1319.073, 4235.044
1321.002, 4228.341
1322.930, 4229.081
1324.859, 4240.772
1326.787, 4235.160
1328.715, 4214.091
1330.644, 4193.195
1332.572, 4176.961
1334.501, 4184.326
1336.429, 4198.103
1338.358, 4196.596
1340.286, 4188.197
1342.215, 4174.000
1344.143, 4164.436
1346.072, 4169.130
1348.000, 4165.759
1349.929, 4143.300
1351.857, 4133.288
1353.786, 4143.635
1355.714, 4137.866
1357.642, 4118.247
1359.571, 4137.117
1361.499, 4171.214
1363.428, 4139.083
1365.356, 4089.804
1367.285, 4099.831
1369.213, 4113.764
1371.142, 4093.793
1373.070, 4068.016
1374.999, 4041.289
1376.927, 4035.228
1378.856, 4061.757
1380.784, 4051.622
1382.713, 3995.223
1384.641, 3979.310
1386.569, 3995.879
1388.498, 4006.013
1390.426, 4007.634
1392.355, 3989.860
1394.283, 3970.436
1396.212, 3969.208
1398.140, 3968.652
1400.069, 3960.369
1401.997, 3954.012
1403.926, 3952.631
1405.854, 3948.143
1407.783, 3939.514
1409.711, 3928.842
1411.640, 3915.969
1413.568, 3896.994
1415.496, 3877.141
1417.425, 3865.986
1419.353, 3859.675
1421.282, 3854.525
1423.210, 3852.527
1425.139, 3854.979
1427.067, 3860.031
1428.996, 3869.037
1430.924, 3867.061
1432.853, 3852.857
1434.781, 3824.541
1436.710, 3791.280
1438.638, 3782.087
1440.567, 3786.106
1442.495, 3792.547
1444.423, 3798.070
1446.352, 3806.454
1448.280, 3801.031
1450.209, 3768.675
1452.137, 3748.073
1454.066, 3743.448
1455.994, 3752.594
1457.923, 3767.289
1459.851, 3738.863
1461.780, 3697.353
1463.708, 3696.053
1465.637, 3706.065
1467.565, 3706.170
1469.494, 3702.971
1471.422, 3702.706
1473.350, 3688.546
1475.279, 3653.042
1477.207, 3654.276
1479.136, 3684.773
1481.064, 3680.341
1482.993, 3655.893
1484.921, 3629.377
1486.850, 3614.654
1488.778, 3638.172
1490.707, 3649.683
1492.635, 3611.477
1494.564, 3597.773
1496.492, 3623.808
1498.421, 3619.509
1500.349, 3592.373
1502.277, 3604.088
1504.206, 3623.989
1506.134, 3597.246
1508.063, 3568.503
1509.991, 3570.184
1511.920, 3570.585
1513.848, 3556.014
1515.777, 3552.678
1517.705, 3564.003
1519.634, 3537.817
1521.562, 3493.422
1523.491, 3499.909
1525.419, 3519.403
1527.348, 3517.383
1529.276, 3503.753
1531.204, 3475.656
1533.133, 3462.184
1535.061, 3473.075
1536.990, 3473.952
1538.918, 3464.938
1540.847, 3449.966
1542.775, 3431.931
1544.704, 3410.649
1546.632, 3396.757
1548.561, 3398.731
1550.489, 3401.559
1552.418, 3401.759
1554.346, 3397.461
1556.275, 3389.477
1558.203, 3390.919
1560.131, 3396.652
1562.060, 3399.788
1563.988, 3395.917
1565.917, 3373.302
1567.845, 3367.927
1569.774, 3395.353
1571.702, 3387.524
1573.631, 3341.480
1575.559, 3322.260
1577.488, 3322.313
1579.416, 3331.010
1581.344, 3338.893
1583.273, 3341.537
1585.201, 3330.987
1587.130, 3302.277
1589.058, 3282.523
1590.987, 3274.816
1592.915, 3281.326
1594.844, 3293.100
1596.772, 3295.672
1598.701, 3292.138
1600.629, 3288.677
1602.558, 3266.698
1604.486, 3216.702
1606.415, 3204.157
1608.343, 3225.936
1610.271, 3243.150
1612.200, 3248.046
1614.128, 3224.314
1616.057, 3193.991
1617.985, 3161.420
1619.914, 3148.494
1621.842, 3159.603
1623.771, 3158.096
1625.699, 3147.341
1627.628, 3150.828
1629.556, 3150.242
1631.485, 3115.167
1633.413, 3088.703
1635.342, 3099.792
1637.270, 3093.833
1639.198, 3069.123
1641.127, 3047.912
1643.055, 3033.877
1644.984, 3039.904
1646.912, 3042.029
1648.841, 3018.037
1650.769, 2996.497
1652.698, 2981.360
1654.626, 2983.453
1656.555, 2996.267
1658.483, 2988.703
1660.412, 2970.627
1662.340, 2944.260
1664.269, 2926.961
1666.197, 2931.540
1668.125, 2928.630
1670.054, 2917.366
1671.982, 2920.772
1673.911, 2923.694
1675.839, 2893.286
1677.768, 2865.928
1679.696, 2863.442
1681.625, 2858.789
1683.553, 2846.470
1685.482, 2844.976
1687.410, 2852.048
1689.339, 2867.039
1691.267, 2879.842
1693.196, 2889.125
1695.124, 2874.393
1697.052, 2824.345
1698.981, 2810.876
1700.909, 2820.979
1702.838, 2796.913
1704.766, 2773.094
1706.695, 2783.966
1708.623, 2784.596
1710.552, 2760.550
1712.480, 2749.413
1714.409, 2750.093
1716.337, 2757.095
1718.266, 2754.842
1720.194, 2715.341
1722.123, 2689.629
1724.051, 2691.835
1725.979, 2705.976
1727.908, 2720.843
1729.836, 2676.374
1731.765, 2631.832
1733.693, 2673.184
1735.622, 2692.289
1737.550, 2659.519
1739.479, 2637.968
1741.407, 2632.608
1743.336, 2641.857
1745.264, 2652.028
1747.193, 2652.315
1749.121, 2638.575
1751.050, 2608.109
1752.978, 2594.327
1754.906, 2594.162
1756.835, 2586.722
1758.763, 2579.516
1760.692, 2584.891
1762.620, 2577.427
1764.549, 2550.970
1766.477, 2561.080
1768.406, 2587.080
1770.334, 2560.595
1772.263, 2529.590
1774.191, 2532.478
1776.120, 2537.503
1778.048, 2540.270
1779.977, 2527.429
1781.905, 2509.972
1783.833, 2509.744
1785.762, 2512.787
1787.690, 2513.973
1789.619, 2509.471
1791.547, 2499.067
1793.476, 2475.971
1795.404, 2453.812
1797.333, 2451.812
1799.261, 2452.305
1801.190, 2450.767
1803.118, 2441.053
1805.047, 2426.366
1806.975, 2425.110
1808.904, 2425.052
1810.832, 2417.169
1812.760, 2405.396
1814.689, 2390.013
1816.617, 2373.005
1818.546, 2358.557
1820.474, 2358.837
1822.403, 2358.282
1824.331, 2346.051
1826.260, 2342.197
1828.188, 2346.702
1830.117, 2343.576
1832.045, 2335.531
1833.974, 2320.891
1835.902, 2318.674
1837.831, 2338.674
1839.759, 2330.832
1841.688, 2307.173
1843.616, 2299.487
1845.544, 2300.877
1847.473, 2311.459
1849.401, 2307.445
1851.330, 2288.276
1853.258, 2277.733
1855.187, 2272.600
1857.115, 2272.167
1859.044, 2268.135
1860.972, 2258.109
1862.901, 2247.999
1864.829, 2239.949
1866.758, 2236.051
1868.686, 2236.463
1870.615, 2243.826
1872.543, 2233.731
1874.471, 2209.615
1876.400, 2197.887
1878.328, 2195.493
1880.257, 2208.955
1882.185, 2202.748
1884.114, 2175.252
1886.042, 2170.663
1887.971, 2171.275
1889.899, 2145.296
1891.828, 2135.339
1893.756, 2151.731
1895.685, 2155.612
1897.613, 2149.078
1899.542, 2136.151
1901.470, 2127.239
1903.398, 2131.985
1905.327, 2131.678
1907.255, 2123.996
1909.184, 2113.828
1911.112, 2101.674
1913.041, 2080.364
1914.969, 2069.780
1916.898, 2072.320
1918.826, 2062.770
1920.755, 2052.676
1922.683, 2058.689
1924.612, 2055.109
1926.540, 2039.569
1928.469, 2036.063
1930.397, 2036.251
1932.325, 2031.972
1934.254, 2027.617
1936.182, 2023.542
1938.111, 2024.023
1940.039, 2023.175
1941.968, 2007.808
1943.896, 1996.953
1945.825, 2003.307
1947.753, 2010.017
1949.682, 2007.925
1951.610, 1990.188
1953.539, 1975.748
1955.467, 1967.598
1957.396, 1952.176
1959.324, 1938.762
1961.252, 1942.995
1963.181, 1944.035
1965.109, 1938.377
1967.038, 1922.859
1968.966, 1900.184
1970.895, 1886.340
1972.823, 1884.827
1974.752, 1894.832
1976.680, 1884.244
1978.609, 1860.987
1980.537, 1874.949
1982.466, 1886.270
1984.394, 1870.179
1986.323, 1854.832
1988.251, 1843.630
1990.179, 1835.120
1992.108, 1827.309
1994.036, 1817.700
1995.965, 1822.360
1997.893, 1834.132
1999.822, 1824.540
2001.750, 1815.310
2003.679, 1815.540
2005.607, 1809.205
2007.536, 1796.773
2009.464, 1768.953
2011.393, 1748.866
2013.321, 1756.143
2015.250, 1773.287
2017.178, 1786.768
2019.106, 1769.366
2021.035, 1745.873
2022.963, 1725.707
2024.892, 1722.128
2026.820, 1726.924
2028.749, 1722.893
2030.677, 1718.353
2032.606, 1703.679
2034.534, 1689.106
2036.463, 1686.009
2038.391, 1711.088
2040.320, 1719.478
2042.248, 1691.462
2044.177, 1687.981
2046.105, 1691.084
2048.033, 1662.814
2049.962, 1640.720
2051.890, 1639.861
2053.819, 1628.265
2055.747, 1617.432
2057.676, 1626.213
2059.604, 1635.218
2061.533, 1642.009
2063.461, 1619.036
2065.390, 1596.069
2067.318, 1620.243
2069.247, 1625.221
2071.175, 1599.758
2073.104, 1583.426
2075.032, 1580.325
2076.960, 1595.986
2078.889, 1590.332
2080.817, 1571.208
2082.746, 1564.426
2084.674, 1562.617
2086.603, 1569.233
2088.531, 1538.171
2090.460, 1497.009
2092.388, 1495.463
2094.317, 1507.485
2096.245, 1529.444
2098.174, 1518.157
2100.102, 1504.149
2102.031, 1519.938
2103.959, 1508.204
2105.887, 1476.162
2107.816, 1475.784
2109.744, 1481.376
2111.673, 1476.208
2113.601, 1461.943
2115.530, 1451.155
2117.458, 1452.048
2119.387, 1444.751
2121.315, 1425.271
2123.244, 1419.428
2125.172, 1413.351
2127.101, 1409.867
2129.029, 1407.767
2130.958, 1404.316
2132.886, 1410.090
2134.814, 1410.843
2136.743, 1401.740
2138.671, 1392.479
2140.600, 1384.174
2142.528, 1393.222
2144.457, 1390.164
2146.385, 1366.128
2148.314, 1366.015
2150.242, 1374.621
2152.171, 1371.969
2154.099, 1351.636
2156.028, 1329.059
2157.956, 1329.537
2159.885, 1329.636
2161.813, 1331.962
2163.741, 1338.570
2165.670, 1338.419
2167.598, 1315.693
2169.527, 1312.952
2171.455, 1333.275
2173.384, 1327.850
2175.312, 1313.121
2177.241, 1298.428
2179.169, 1295.273
2181.098, 1298.606
2183.026, 1293.781
2184.955, 1287.489
2186.883, 1280.501
2188.812, 1271.826
2190.740, 1262.435
2192.668, 1253.259
2194.597, 1252.443
2196.525, 1252.429
2198.454, 1255.400
2200.382, 1247.387
2202.311, 1224.311
2204.239, 1217.844
2206.168, 1215.550
2208.096, 1212.907
2210.025, 1201.850
2211.953, 1190.161
2213.882, 1194.669
2215.810, 1195.926
2217.739, 1183.335
2219.667, 1180.070
2221.595, 1178.504
2223.524, 1171.273
2225.452, 1152.060
2227.381, 1132.333
2229.309, 1143.842
2231.238, 1147.062
2233.166, 1134.651
2235.095, 1123.137
2237.023, 1116.931
2238.952, 1119.991
2240.880, 1124.340
2242.809, 1121.784
2244.737, 1115.146
2246.666, 1106.438
2248.594, 1095.927
2250.522, 1106.460
2252.451, 1108.197
2254.379, 1090.636
2256.308, 1084.252
2258.236, 1081.670
2260.165, 1075.403
2262.093, 1064.982
2264.022, 1056.472
2265.950, 1063.750
2267.879, 1070.471
2269.807, 1069.221
2271.736, 1052.246
2273.664, 1040.786
2275.593, 1044.978
2277.521, 1042.019
2279.449, 1038.654
2281.378, 1048.058
2283.306, 1040.379
2285.235, 1017.721
2287.163, 1023.388
2289.092, 1029.203
2291.020, 1027.625
2292.949, 1012.367
2294.877, 998.265
2296.806, 999.347
2298.734, 998.184
2300.663, 994.924
2302.591, 993.190
2304.520, 986.306
2306.448, 974.599
2308.376, 964.349
2310.305, 954.542
2312.233, 946.510
2314.162, 950.263
2316.090, 953.317
2318.019, 946.020
2319.947, 936.977
2321.876, 930.760
2323.804, 934.095
2325.733, 942.524
2327.661, 950.212
2329.590, 930.768
2331.518, 926.946
2333.447, 945.807
2335.375, 921.937
2337.303, 900.696
2339.232, 909.424
2341.160, 904.846
2343.089, 895.396
2345.017, 895.885
2346.946, 893.862
2348.874, 888.416
2350.803, 878.484
2352.731, 870.109
2354.660, 865.381
2356.588, 863.089
2358.517, 862.537
2360.445, 862.308
2362.374, 873.486
2364.302, 875.452
2366.230, 850.317
2368.159, 855.149
2370.087, 863.579
2372.016, 843.611
2373.944, 836.627
2375.873, 836.852
2377.801, 828.933
2379.730, 825.467
2381.658, 827.552
2383.587, 823.349
2385.515, 819.737
2387.444, 821.663
2389.372, 817.415
2391.301, 812.300
2393.229, 809.087
2395.157, 808.688
2397.086, 807.030
2399.014, 800.646
2400.943, 784.328
2402.871, 772.321
2404.800, 783.513
2406.728, 795.229
2408.657, 797.045
2410.585, 774.852
2412.514, 765.781
2414.442, 767.551
2416.371, 762.273
2418.299, 760.199
2420.228, 757.992
2422.156, 743.030
2424.084, 740.950
2426.013, 747.897
2427.941, 739.662
2429.870, 732.722
2431.798, 730.686
2433.727, 725.287
2435.655, 719.024
2437.584, 717.205
2439.512, 717.492
2441.441, 712.756
2443.369, 709.200
2445.298, 710.639
2447.226, 705.361
2449.155, 699.027
2451.083, 701.584
2453.011, 698.100
2454.940, 686.543
2456.868, 688.723
2458.797, 692.656
2460.725, 681.206
2462.654, 674.414
2464.582, 678.736
2466.511, 687.320
2468.439, 685.442
2470.368, 673.082
2472.296, 662.487
2474.225, 656.084
2476.153, 645.206
2478.082, 638.454
2480.010, 643.755
2481.938, 655.890
2483.867, 646.426
2485.795, 638.915
2487.724, 636.634
2489.652, 636.251
2491.581, 642.958
2493.509, 640.764
2495.438, 633.424
2497.366, 627.857
2499.295, 616.544
2501.223, 613.727
2503.152, 613.151
2505.080, 607.541
2507.009, 603.444
2508.937, 600.972
2510.865, 593.738
2512.794, 589.761
2514.722, 588.640
2516.651, 592.306
2518.579, 589.528
2520.508, 582.256
2522.436, 574.046
2524.365, 567.836
2526.293, 560.047
2528.222, 559.146
2530.150, 560.236
2532.079, 551.808
2534.007, 557.523
2535.936, 555.270
2537.864, 548.529
2539.792, 542.238
2541.721, 549.762
2543.649, 555.770
2545.578, 537.215
2547.506, 539.428
2549.435, 546.663
2551.363, 540.937
2553.292, 534.716
2555.220, 529.445
2557.149, 522.586
2559.077, 520.666
2561.006, 526.318
2562.934, 521.605
2564.863, 527.321
2566.791, 531.599
2568.719, 514.002
2570.648, 509.056
2572.576, 510.717
2574.505, 506.113
2576.433, 501.921
2578.362, 502.036
2580.290, 494.675
2582.219, 489.586
2584.147, 489.625
2586.076, 487.664
2588.004, 488.829
2589.933, 489.414
2591.861, 475.033
2593.790, 467.751
2595.718, 469.944
2597.646, 473.423
2599.575, 476.792
2601.503, 472.390
2603.432, 461.970
2605.360, 466.575
2607.289, 461.426
2609.217, 452.150
2611.146, 453.785
2613.074, 447.669
2615.003, 444.737
2616.931, 450.585
2618.860, 441.325
2620.788, 438.057
2622.717, 439.961
2624.645, 430.244
2626.573, 430.676
2628.502, 430.815
2630.430, 430.081
2632.359, 417.227
2634.287, 408.272
2636.216, 423.658
2638.144, 422.948
2640.073, 407.247
2642.001, 398.267
2643.930, 401.081
2645.858, 407.880
2647.787, 402.923
2649.715, 404.773
2651.644, 406.578
2653.572, 394.819
2655.500, 390.110
2657.429, 394.211
2659.357, 398.946
2661.286, 395.669
2663.214, 389.428
2665.143, 383.502
2667.071, 377.667
2669.000, 377.511
2670.928, 384.347
2672.857, 388.224
2674.785, 380.778
2676.714, 371.368
2678.642, 374.871
2680.571, 371.040
2682.499, 369.127
2684.427, 373.871
2686.356, 367.061
2688.284, 358.670
2690.213, 355.646
2692.141, 352.328
2694.070, 346.601
2695.998, 351.302
2697.927, 351.839
2699.855, 349.588
2701.784, 349.132
2703.712, 344.155
2705.641, 339.236
2707.569, 343.713
2709.498, 347.392
2711.426, 345.090
2713.354, 335.737
2715.283, 325.617
2717.211, 324.152
2719.140, 319.942
2721.068, 308.562
2722.997, 314.061
2724.925, 321.799
2726.854, 315.222
2728.782, 313.979
2730.711, 315.761
2732.639, 309.936
2734.568, 300.717
2736.496, 296.863
2738.425, 301.598
2740.353, 300.890
2742.281, 295.426
2744.210, 293.662
2746.138, 299.603
2748.067, 295.275
2749.995, 294.292
2751.924, 300.353
2753.852, 295.128
2755.781, 288.786
2757.709, 284.375
2759.638, 277.050
2761.566, 274.963
2763.495, 277.672
2765.423, 290.222
2767.352, 282.409
2769.280, 270.925
2771.208, 264.681
2773.137, 266.773
2775.065, 270.639
2776.994, 272.691
2778.922, 267.717
2780.851, 269.517
2782.779, 272.739
2784.708, 270.125
2786.636, 264.911
2788.565, 258.940
2790.493, 253.962
2792.422, 252.316
2794.350, 253.903
2796.279, 255.054
2798.207, 246.671
2800.135, 241.394
2802.064, 238.929
2803.992, 233.870
2805.921, 233.269
2807.849, 235.816
2809.778, 239.401
2811.706, 234.419
2813.635, 230.290
2815.563, 229.699
2817.492, 232.000
2819.420, 230.948
2821.349, 226.716
2823.277, 220.227
2825.206, 226.678
2827.134, 231.730
2829.063, 227.020
2830.991, 216.458
2832.919, 214.419
2834.848, 216.967
2836.776, 208.446
2838.705, 212.061
2840.633, 218.779
2842.562, 221.851
2844.490, 207.827
2846.419, 200.938
2848.347, 203.689
2850.276, 199.094
2852.204, 203.170
2854.133, 207.892
2856.061, 203.413
2857.990, 195.098
2859.918, 192.045
2861.846, 194.881
2863.775, 195.078
2865.703, 192.519
2867.632, 188.073
2869.560, 184.164
2871.489, 180.842
2873.417, 180.792
2875.346, 185.132
2877.274, 178.934
2879.203, 176.413
2881.131, 179.370
2883.060, 174.136
2884.988, 171.525
2886.917, 173.240
2888.845, 174.746
2890.773, 167.092
2892.702, 163.636
2894.630, 165.463
2896.559, 169.090
2898.487, 168.095
2900.416, 162.385
2902.344, 159.400
2904.273, 163.850
2906.201, 161.503
2908.130, 155.496
2910.058, 160.243
2911.987, 156.924
2913.915, 154.643
2915.844, 151.601
2917.772, 144.509
2919.700, 139.731
2921.629, 140.126
2923.557, 151.450
2925.486, 143.851
2927.414, 133.875
2929.343, 136.094
2931.271, 134.866
2933.200, 134.587
2935.128, 135.389
2937.057, 141.891
2938.985, 142.949
2940.914, 136.936
2942.842, 130.546
2944.771, 131.842
2946.699, 134.221
2948.627, 132.739
2950.556, 128.478
2952.484, 126.107
2954.413, 125.891
2956.341, 127.333
2958.270, 128.835
2960.198, 120.943
2962.127, 115.648
2964.055, 110.654
2965.984, 114.309
2967.912, 112.691
2969.841, 109.336
2971.769, 118.133
2973.698, 122.710
2975.626, 117.077
2977.554, 105.735
2979.483, 110.821
2981.411, 112.235
2983.340, 118.774
2985.268, 119.296
2987.197, 111.192
2989.125, 105.265
2991.054, 103.656
2992.982, 109.208
2994.911, 107.450
2996.839, 108.191
2998.768, 108.173
3000.696, 103.575
3002.625, 102.355
3004.553, 102.036
3006.481, 98.250
3008.410, 95.598
3010.338, 95.035
3012.267, 96.429
3014.195, 98.211
3016.124, 96.384
3018.052, 95.113
3019.981, 95.225
3021.909, 88.364
3023.838, 84.719
3025.766, 89.108
3027.695, 91.763
3029.623, 88.189
3031.552, 86.875
3033.480, 84.254
3035.408, 86.740
3037.337, 89.403
3039.265, 87.024
3041.194, 83.438
3043.122, 81.910
3045.051, 77.288
3046.979, 79.592
3048.907, 84.390
3050.836, 84.065
3052.764, 79.070
3054.693, 74.178
3056.621, 70.649
3058.550, 69.976
3060.478, 75.222
3062.407, 77.803
3064.335, 71.206
3066.264, 76.300
3068.192, 79.524
3070.121, 76.569
3072.049, 64.197
3073.978, 59.737
3075.906, 64.226
3077.834, 69.410
3079.763, 70.789
3081.691, 70.078
3083.620, 67.088
3085.548, 61.288
3087.477, 58.157
3089.405, 61.673
3091.334, 62.617
3093.262, 61.962
3095.191, 58.501
3097.119, 51.610
3099.048, 47.916
3100.976, 54.499
3102.905, 56.870
3104.833, 53.737
3106.761, 53.200
3108.690, 57.528
3110.618, 56.666
3112.547, 54.939
3114.475, 52.316
3116.404, 49.335
3118.332, 62.666
3120.261, 64.539
3122.189, 56.807
3124.118, 52.285
3126.046, 52.576
3127.975, 50.455
3129.903, 44.070
3131.832, 45.738
3133.760, 42.558
3135.688, 39.905
3137.617, 39.259
3139.545, 45.559
3141.474, 43.998
3143.402, 47.662
3145.331, 48.937
3147.259, 44.427
3149.188, 42.959
3151.116, 46.531
3153.045, 43.173
3154.973, 33.202
3156.902, 31.862
3158.830, 41.086
3160.759, 44.623
3162.687, 42.328
3164.615, 36.164
3166.544, 36.240
3168.472, 38.270
3170.401, 42.268
3172.329, 46.068
3174.258, 42.750
3176.186, 40.539
3178.115, 42.476
3180.043, 47.248
3181.972, 42.311
3183.900, 37.226
3185.829, 39.542
3187.757, 40.561
3189.686, 41.315
3191.614, 41.580
3193.542, 39.659
3195.471, 35.776
3197.399, 29.699
3199.328, 35.818
3201.256, 44.778
3203.185, 32.648
3205.113, 39.342
3207.042, 38.518
3208.970, 32.475
3210.899, 28.443
3212.827, 23.461
3214.756, 27.958
3216.684, 30.845
3218.613, 25.202
3220.541, 33.716
3222.469, 38.168
3224.398, 28.757
3226.326, 16.003
3228.255, 32.691
3230.183, 29.079
3232.112, 30.346
3234.040, 37.238
3235.969, 31.721
3237.897, 23.614
3239.826, 24.477
3241.754, 28.605
3243.683, 25.098
3245.611, 30.658
3247.540, 32.262
3249.468, 27.888
3251.396, 20.973
3253.325, 28.231
3255.253, 30.511
3257.182, 28.647
3259.110, 26.161
3261.039, 26.704
3262.967, 29.013
3264.896, 29.838
3266.824, 27.063
3268.753, 19.614
3270.681, 35.091
3272.610, 35.441
3274.538, 30.759
3276.467, 29.594
3278.395, 23.404
3280.323, 19.612
3282.252, 13.765
3284.180, 7.881
3286.109, 8.224
3288.037, 20.978
3289.966, 31.937
3291.894, 34.849
3293.823, 30.271
3295.751, 31.279
3297.680, 27.217
3299.608, 26.588
3301.537, 28.544
3303.465, 24.935
3305.394, 29.726
3307.322, 31.980
3309.250, 27.857
3311.179, 19.674
3313.107, 19.613
3315.036, 20.600
3316.964, 23.159
3318.893, 27.910
3320.821, 34.406
3322.750, 22.628
3324.678, 17.577
3326.607, 19.980
3328.535, 22.969
3330.464, 17.655
3332.392, 18.453
3334.321, 21.481
3336.249, 23.042
3338.177, 18.518
3340.106, 22.388
3342.034, 20.534
3343.963, 14.417
3345.891, 11.386
3347.820, 22.309
3349.748, 16.096
3351.677, 16.159
3353.605, 20.994
3355.534, 23.578
3357.462, 15.823
3359.391, 28.260
3361.319, 29.874
3363.248, 16.865
3365.176, 5.439
3367.104, 15.030
3369.033, 23.434
3370.961, 25.767
3372.890, 22.359
3374.818, 14.293
3376.747, 20.453
3378.675, 24.541
3380.604, 25.018
3382.532, 24.936
3384.461, 25.529
3386.389, 19.622
3388.318, 24.165
3390.246, 32.562
3392.175, 34.307
3394.103, 29.119
3396.031, 18.247
3397.960, 20.935
3399.888, 27.317
3401.817, 20.401
3403.745, 9.665
3405.674, 12.910
3407.602, 13.225
3409.531, 10.437
3411.459, 14.152
3413.388, 12.685
3415.316, 7.749
3417.245, 9.719
3419.173, 12.832
3421.102, 5.455
3423.030, 15.022
3424.958, 11.232
3426.887, 5.883
3428.815, 6.901
3430.744, 12.891
3432.672, 20.736
3434.601, 11.163
3436.529, 3.370
3438.458, 7.815
3440.386, 21.066
3442.315, 10.172
3444.243, 23.163
3446.172, 21.724
3448.100, 7.186
3450.029, 13.031
3451.957, 18.348
3453.885, 27.217
3455.814, 17.628
3457.742, 3.658
3459.671, 14.112
3461.599, 16.770
3463.528, 13.639
3465.456, 9.911
3467.385, 11.072
3469.313, 19.461
3471.242, 24.565
3473.170, 19.072
3475.099, 9.870
3477.027, 8.309
3478.956, 17.406
3480.884, 17.639
3482.813, 12.869
3484.741, 4.047
3486.669, -1.643
3488.598, 1.740
3490.526, 15.262
3492.455, 14.121
3494.383, 1.794
3496.312, -0.711
3498.240, 8.088
3500.169, 10.074
3502.097, -2.718
3504.026, 0.457
3505.954, 2.892
3507.883, -0.609
3509.811, -3.783
3511.740, -2.318
3513.668, 1.269
3515.596, 8.054
3517.525, 7.642
3519.453, -0.754
3521.382, 1.945
3523.310, 3.654
3525.239, 1.305
3527.167, 7.257
3529.096, 18.460
3531.024, 21.093
3532.953, 12.724
3534.881, 9.319
3536.810, 10.798
3538.738, 10.650
3540.667, 6.682
3542.595, 7.002
3544.523, 14.549
3546.452, 17.142
3548.380, 18.963
3550.309, 16.993
3552.237, 5.539
3554.166, 20.260
3556.094, 14.866
3558.023, 9.184
3559.951, 10.420
3561.880, 15.775
3563.808, 19.972
3565.737, 13.954
3567.665, 4.750
3569.594, 2.049
3571.522, 7.361
3573.450, 12.344
3575.379, -5.524
3577.307, -0.762
3579.236, 3.229
3581.164, 7.295
3583.093, 11.864
3585.021, 11.783
3586.950, 5.833
3588.878, -0.895
3590.807, -1.677
3592.735, 3.117
3594.664, 11.310
3596.592, 19.282
3598.521, 7.887
3600.449, 5.684
3602.377, 8.593
3604.306, 6.897
3606.234, 2.129
3608.163, 5.489
3610.091, -1.694
3612.020, 1.564
3613.948, 3.782
3615.877, 4.855
3617.805, 6.606
3619.734, 5.486
3621.662, 6.776
3623.591, 4.384
3625.519, 7.265
3627.448, 6.179
3629.376, 2.279
3631.304, 13.787
3633.233, 7.812
3635.161, 10.553
3637.090, 11.710
3639.018, 12.157
3640.947, 12.262
3642.875, 6.229
3644.804, 3.149
3646.732, 3.363
3648.661, 7.704
3650.589, -0.796
3652.518, -10.652
3654.446, 4.432
3656.375, 8.889
3658.303, -2.577
3660.231, 0.887
3662.160, 0.368
3664.088, -5.319
3666.017, -4.125
3667.945, -1.077
3669.874, 7.283
3671.802, 0.367
3673.731, -2.870
3675.659, -1.236
3677.588, 0.255
3679.516, 3.597
3681.445, 5.702
3683.373, 0.972
3685.302, -4.371
3687.230, 5.768
3689.158, 13.449
3691.087, -1.728
3693.015, -2.559
3694.944, -3.011
3696.872, -0.068
3698.801, 0.460
3700.729, 0.305
3702.658, 2.692
3704.586, 7.100
3706.515, 21.901
3708.443, 10.580
3710.372, 4.670
3712.300, 2.654
3714.229, 4.972
3716.157, 10.339
3718.085, -1.970
3720.014, 5.396
3721.942, 11.788
3723.871, 5.760
3725.799, 4.143
3727.728, 4.706
3729.656, -3.602
3731.585, -0.903
3733.513, 7.212
3735.442, 1.131
3737.370, -4.529
3739.299, 0.556
3741.227, 6.513
3743.156, 1.704
3745.084, 2.891
3747.012, -2.970
3748.941, -7.256
3750.869, -10.518
3752.798, -11.512
3754.726, -6.954
3756.655, 0.479
3758.583, -4.796
3760.512, -1.703
3762.440, 5.489
3764.369, 0.321
3766.297, -1.934
3768.226, 1.165
3770.154, 1.513
3772.083, 2.829
3774.011, -4.217
3775.939, -3.261
3777.868, 11.271
3779.796, 6.891
3781.725, -3.324
3783.653, 0.635
3785.582, 6.917
3787.510, 7.173
3789.439, 6.713
3791.367, 11.173
3793.296, 1.524
3795.224, 0.898
3797.153, 8.072
3799.081, 1.460
3801.010, 7.077
3802.938, 4.797
3804.866, 1.388
3806.795, -1.155
3808.723, -3.607
3810.652, -6.601
3812.580, -2.388
3814.509, 15.382
3816.437, 5.998
3818.366, -4.991
3820.294, -0.562
3822.223, -2.559
3824.151, 0.331
3826.080, 4.158
3828.008, -0.661
3829.937, -4.725
3831.865, -0.441
3833.793, -1.668
3835.722, -6.194
3837.650, 5.860
3839.579, 12.065
3841.507, 5.427
3843.436, -5.879
3845.364, -15.727
3847.293, 6.367
3849.221, -8.112
3851.150, -3.439
3853.078, 6.822
3855.007, 9.159
3856.935, 8.170
3858.864, 6.537
3860.792, 1.303
3862.720, 5.601
3864.649, 9.742
3866.577, 7.304
3868.506, 6.291
3870.434, 6.038
3872.363, 6.888
3874.291, 10.449
3876.220, 11.680
3878.148, -0.444
3880.077, 14.014
3882.005, 10.935
3883.934, 6.783
3885.862, 4.071
3887.791, 1.301
3889.719, 1.039
3891.647, -0.938
3893.576, -4.647
3895.504, 12.495
3897.433, 0.379
3899.361, -11.318
3901.290, -2.142
3903.218, 2.630
3905.147, 2.075
3907.075, 5.036
3909.004, 6.094
3910.932, -2.615
3912.861, -6.379
3914.789, -1.493
3916.718, -7.173
3918.646, -2.599
3920.574, 0.122
3922.503, 4.081
3924.431, 6.269
3926.360, 2.780
3928.288, -1.116
3930.217, 1.308
3932.145, -1.807
3934.074, 9.680
3936.002, 2.470
3937.931, 2.111
3939.859, 7.328
3941.788, 3.779
3943.716, 0.315
3945.645, 1.652
3947.573, -4.141
3949.501, -3.052
3951.430, 6.788
3953.358, 11.504
3955.287, 4.591
3957.215, -1.530
3959.144, -0.849
3961.072, -1.557
3963.001, -4.982
3964.929, -4.817
3966.858, 0.093
3968.786, 3.930
3970.715, 5.861
3972.643, -0.647
3974.572, 4.124
3976.500, -3.611
3978.428, -9.396
3980.357, -14.331
3982.285, -12.141
3984.214, 0.165
3986.142, 7.279
3988.071, 0.055
3989.999, 6.925
3991.928, -0.138
3993.856, -2.246
3995.785, -4.823
3997.713, -6.140
3999.642, -2.261
4001.570, -7.594
4003.499, -4.543
4005.427, 4.928
4007.355, -2.883
4009.284, 0.312
4011.212, 9.497
4013.141, 6.308
4015.069, -10.891
4016.998, -0.470
4018.926, -4.465
4020.855, 12.262
4022.783, 0.823
4024.712, -4.318
4026.640, 13.213
4028.569, 14.581
4030.497, 9.387
4032.426, 8.663
4034.354, -9.062
4036.282, 2.008
4038.211, -7.724
4040.139, -7.975
4042.068, -7.701
4043.996, -4.034
4045.925, -5.144
4047.853, -11.103
4049.782, -9.292
4051.710, -7.768
4053.639, -17.135
4055.567, -0.539
4057.496, -12.364
4059.424, -2.968
4061.353, 1.489
4063.281, -3.606
4065.209, -0.627
4067.138, 3.803
4069.066, 2.142
4070.995, -0.841
4072.923, -0.903
4074.852, 0.431
4076.780, -1.496
4078.709, -4.989
4080.637, 1.355
4082.566, 4.209
4084.494, 2.953
4086.423, 4.600
4088.351, -0.578
4090.280, 1.513
4092.208, -3.752
4094.136, -4.201
4096.065, -1.257
4097.993, -5.498
4099.922, -5.311
4101.850, -5.048
4103.779, -4.864
4105.707, 8.449
4107.636, 4.181
4109.564, -4.218
4111.493, 3.889
4113.421, -0.954
4115.350, 1.237
4117.278, 0.068
4119.207, -8.268
4121.135, -6.887
4123.063, -7.944
4124.992, -6.200
4126.920, -11.643
4128.849, -6.906
4130.777, -6.524
4132.706, -18.263
4134.634, -10.649
4136.563, -5.597
4138.491, -17.296
4140.419, -2.154
4142.348, -4.676
4144.276, -21.549
4146.205, -4.508
4148.133, 10.434
4150.062, 3.875
4151.990, 3.323
4153.919, -0.742
4155.847, -11.062
4157.776, -9.187
4159.704, 10.033
4161.633, 7.432
4163.561, -7.801
4165.490, -2.530
4167.418, 2.186
4169.347, -2.539
4171.275, 4.574
4173.204, -11.903
4175.132, 3.098
4177.061, -5.514
4178.989, 12.222
4180.917, -0.435
4182.846, 10.178
4184.774, 5.074
4186.703, -9.103
4188.631, -6.107
4190.560, -7.575
4192.488, -7.918
4194.417, -0.956
4196.345, -2.041
4198.273, -8.549
4200.202, 1.322
4202.130, 6.231
4204.059, 3.174
4205.987, 10.044
4207.916, -3.421
4209.844, -11.568
4211.773, 4.318
4213.701, -17.602
4215.630, 2.480
4217.558, -10.733
4219.487, -16.992
4221.415, 5.433
4223.344, -2.612
4225.272, -6.348
4227.201, -0.675
4229.129, 7.388
4231.058, -3.625
4232.986, 1.738
4234.915, 10.002
4236.843, 3.312
4238.771, 3.910
4240.700, 3.369
4242.628, 3.294
4244.557, -2.729
4246.485, 2.122
4248.414, 0.708
4250.342, -5.145
4252.271, -4.770
4254.199, -8.796
4256.127, 0.537
4258.056, -13.877
4259.984, -9.477
4261.913, 5.428
4263.841, -3.243
4265.770, -13.461
4267.698, -9.247
4269.627, -6.147
4271.555, -5.869
4273.484, -14.816
4275.412, 0.273
4277.341, -7.200
4279.269, 1.241
4281.198, 6.392
4283.126, -3.087
4285.055, 0.997
4286.983, -5.109
4288.912, -0.180
4290.840, 1.630
4292.769, -9.161
4294.697, 0.081
4296.625, 1.657
4298.554, 6.119
4300.482, 12.656
4302.411, -5.622
4304.339, 3.176
4306.268, 0.086
4308.196, -5.707
4310.125, -1.098
4312.053, 3.931
4313.981, -0.222
4315.910, -1.132
4317.838, -1.754
4319.767, -4.063
4321.695, -11.637
4323.624, -9.617
4325.552, -1.752
4327.481, -9.031
4329.409, -6.261
4331.338, -12.353
4333.266, -14.554
4335.195, -10.050
4337.123, -13.050
4339.052, -3.147
4340.980, -15.263
4342.909, -4.374
4344.837, -4.083
4346.766, 6.535
##END=



