##NAMES=Aravaipaite
##RRUFFID=R100004
##IDEAL CHEMISTRY=Pb_3_AlF_9_·H_2_O
##LOCALITY=Grand Reef mine, Klondyke, Aravaipa District, Graham County, Arizona, USA
##OWNER=RRUFF
##SOURCE=William W. Pinch
##DESCRIPTION=Colorless thin plates. Same sample as used in Kampf (2001) and Kampf et al (2011).
##STATUS=The identification of this mineral has been confirmed by single-crystal X-ray diffraction
##URL=https://www.rruff.net/odr/rruff_sample/R100004
##DIFFRACTION SAMPLE DESCRIPTION=Single crystal, powder profile is calculated
##CELL PARAMETERS=a: 5.654 b: 5.681 c: 12.703 alpha: 98.75 beta: 93.99 gamma: 90.75 volume: 415 crystal system: triclinic
##FILETYPE=Raman RAW
##RAMAN WAVELENGTH=532

86.44141, 68.22527
88.36987, 62.79114
90.29834, 60.30950
92.22681, 60.79298
94.15527, 61.49863
96.08374, 61.81174
98.01221, 61.95704
99.94067, 62.56462
101.8691, 64.70679
103.7976, 66.28926
105.7261, 66.27817
107.6545, 63.84649
109.5830, 62.08072
111.5115, 61.95411
113.4399, 62.98404
115.3684, 63.01324
117.2969, 59.75312
119.2253, 57.38384
121.1538, 58.40901
123.0823, 62.63557
125.0107, 70.78504
126.9392, 79.52387
128.8677, 90.82848
130.7961, 117.5431
132.7246, 157.0059
134.6531, 213.0650
136.5815, 294.6786
138.5100, 402.0959
140.4385, 525.4003
142.3669, 663.0590
144.2954, 816.1730
146.2239, 972.4439
148.1523, 1131.355
150.0808, 1293.950
152.0093, 1459.630
153.9377, 1629.900
155.8662, 1800.675
157.7947, 1970.057
159.7231, 2137.451
161.6516, 2304.919
163.5801, 2474.310
165.5085, 2563.336
167.4370, 2678.938
169.3655, 2698.551
171.2939, 2713.045
173.2224, 2722.769
175.1509, 2729.058
177.0793, 2729.756
179.0078, 2725.675
180.9363, 2717.796
182.8647, 2705.577
184.7932, 2686.289
186.7217, 2668.404
188.6501, 2653.447
190.5786, 2640.231
192.5071, 2632.305
194.4355, 2628.954
196.3640, 2629.536
198.2925, 2632.868
200.2209, 2639.254
202.1494, 2645.943
204.0779, 2651.587
206.0063, 2655.257
207.9348, 2662.734
209.8633, 2673.708
211.7918, 2688.446
213.7202, 2706.675
215.6487, 2726.083
217.5772, 2752.857
219.5056, 2789.016
221.4341, 2835.083
223.3626, 2887.974
225.2910, 2952.969
227.2195, 3022.264
229.1480, 3087.242
231.0764, 3151.663
233.0049, 3206.830
234.9334, 3248.696
236.8618, 3278.170
238.7903, 3293.633
240.7188, 3292.532
242.6472, 3279.140
244.5757, 3254.425
246.5042, 3216.755
248.4326, 3176.491
250.3611, 3137.953
252.2896, 3101.313
254.2180, 3061.938
256.1465, 3020.564
258.0750, 2977.628
260.0034, 2933.649
261.9319, 2889.855
263.8604, 2840.544
265.7888, 2783.589
267.7173, 2719.343
269.6458, 2650.277
271.5742, 2571.335
273.5027, 2490.404
275.4312, 2412.270
277.3596, 2338.665
279.2881, 2267.152
281.2166, 2197.310
283.1450, 2130.668
285.0735, 2068.867
287.0020, 2013.253
288.9304, 1958.977
290.8589, 1904.164
292.7874, 1848.491
294.7158, 1795.118
296.6443, 1742.235
298.5728, 1692.397
300.5012, 1647.474
302.4297, 1608.825
304.3582, 1573.785
306.2866, 1540.971
308.2151, 1510.797
310.1436, 1484.714
312.0720, 1466.357
314.0005, 1449.762
315.9290, 1430.766
317.8574, 1406.540
319.7859, 1382.762
321.7144, 1359.892
323.6428, 1337.721
325.5713, 1315.596
327.4998, 1292.580
329.4282, 1270.592
331.3567, 1250.217
333.2852, 1231.294
335.2137, 1214.617
337.1421, 1201.760
339.0706, 1191.753
340.9991, 1183.047
342.9275, 1175.967
344.8560, 1169.511
346.7845, 1162.943
348.7129, 1156.705
350.6414, 1153.224
352.5699, 1152.381
354.4983, 1155.760
356.4268, 1164.251
358.3553, 1181.118
360.2837, 1198.832
362.2122, 1219.192
364.1407, 1240.206
366.0691, 1258.547
367.9976, 1271.137
369.9261, 1277.880
371.8545, 1278.256
373.7830, 1270.795
375.7115, 1260.639
377.6399, 1249.930
379.5684, 1238.594
381.4969, 1225.542
383.4253, 1209.017
385.3538, 1195.322
387.2823, 1186.595
389.2107, 1181.703
391.1392, 1176.356
393.0677, 1169.869
394.9961, 1162.434
396.9246, 1154.615
398.8531, 1147.400
400.7815, 1137.584
402.7100, 1122.313
404.6385, 1103.453
406.5669, 1084.113
408.4954, 1065.564
410.4239, 1047.596
412.3523, 1029.855
414.2808, 1013.254
416.2093, 998.7048
418.1377, 986.4030
420.0662, 976.2568
421.9947, 968.2451
423.9231, 963.1288
425.8516, 958.3859
427.7801, 953.4693
429.7085, 947.8524
431.6370, 941.1793
433.5655, 933.1852
435.4939, 926.8392
437.4224, 923.0749
439.3509, 921.2004
441.2793, 919.1846
443.2078, 916.3609
445.1363, 914.2162
447.0647, 913.7748
448.9932, 915.6925
450.9217, 917.2481
452.8501, 916.9036
454.7786, 916.2186
456.7071, 917.3823
458.6355, 921.7380
460.5640, 925.8629
462.4925, 927.8787
464.4209, 927.9918
466.3494, 929.3316
468.2779, 934.4611
470.2063, 940.1775
472.1348, 945.5033
474.0633, 949.8114
475.9917, 953.5307
477.9202, 956.0914
479.8487, 959.1107
481.7771, 963.4918
483.7056, 970.3530
485.6341, 977.6873
487.5625, 984.9185
489.4910, 992.4154
491.4195, 1001.334
493.3479, 1011.976
495.2764, 1023.741
497.2049, 1036.048
499.1333, 1049.047
501.0618, 1063.964
502.9903, 1081.882
504.9187, 1101.696
506.8472, 1122.543
508.7757, 1143.842
510.7041, 1166.391
512.6326, 1189.144
514.5610, 1213.881
516.4895, 1242.954
518.4180, 1276.515
520.3464, 1311.385
522.2749, 1348.173
524.2034, 1384.438
526.1318, 1419.936
528.0603, 1457.176
529.9888, 1489.955
531.9172, 1516.943
533.8457, 1537.447
535.7742, 1551.978
537.7026, 1558.546
539.6311, 1561.942
541.5596, 1562.170
543.4880, 1560.860
545.4165, 1561.186
547.3450, 1564.903
549.2734, 1568.181
551.2019, 1570.010
553.1304, 1570.413
555.0588, 1566.103
556.9873, 1557.751
558.9158, 1544.367
560.8442, 1524.125
562.7727, 1495.987
564.7012, 1466.667
566.6296, 1436.563
568.5581, 1406.603
570.4866, 1377.627
572.4150, 1349.097
574.3435, 1323.028
576.2720, 1300.052
578.2004, 1280.383
580.1289, 1263.074
582.0574, 1247.945
583.9859, 1235.526
585.9144, 1226.957
587.8428, 1223.090
589.7713, 1218.165
591.6998, 1208.855
593.6282, 1200.775
595.5567, 1199.125
597.4852, 1204.647
599.4136, 1210.789
601.3421, 1214.917
603.2706, 1219.193
605.1990, 1227.164
607.1275, 1241.213
609.0560, 1254.471
610.9844, 1266.142
612.9129, 1276.489
614.8414, 1285.848
616.7698, 1295.046
618.6983, 1301.519
620.6268, 1305.617
622.5552, 1306.663
624.4837, 1302.510
626.4122, 1290.957
628.3406, 1277.896
630.2691, 1265.041
632.1976, 1252.238
634.1260, 1240.292
636.0545, 1230.646
637.9830, 1221.075
639.9114, 1209.746
641.8399, 1196.424
643.7684, 1184.142
645.6968, 1173.600
647.6253, 1164.079
649.5538, 1154.916
651.4822, 1145.663
653.4107, 1137.601
655.3392, 1131.085
657.2676, 1125.540
659.1961, 1120.184
661.1246, 1114.774
663.0530, 1109.852
664.9815, 1105.844
666.9100, 1102.613
668.8384, 1099.495
670.7669, 1096.699
672.6954, 1093.785
674.6238, 1090.276
676.5523, 1086.900
678.4808, 1084.547
680.4092, 1083.612
682.3377, 1082.780
684.2662, 1081.609
686.1946, 1080.202
688.1231, 1078.991
690.0516, 1077.344
691.9800, 1076.574
693.9085, 1077.667
695.8370, 1080.053
697.7654, 1081.961
699.6939, 1082.656
701.6224, 1083.397
703.5508, 1084.868
705.4793, 1087.259
707.4078, 1088.697
709.3362, 1088.223
711.2647, 1087.743
713.1932, 1088.599
715.1216, 1090.745
717.0501, 1092.366
718.9786, 1092.076
720.9070, 1092.119
722.8355, 1094.099
724.7640, 1099.261
726.6924, 1102.795
728.6209, 1103.053
730.5494, 1102.842
732.4778, 1104.501
734.4063, 1108.285
736.3348, 1110.879
738.2632, 1110.439
740.1917, 1109.932
742.1202, 1111.400
744.0486, 1115.367
745.9771, 1118.160
747.9056, 1118.359
749.8340, 1118.007
751.7625, 1119.235
753.6910, 1122.979
755.6194, 1125.553
757.5479, 1125.353
759.4764, 1124.448
761.4048, 1125.103
763.3333, 1127.452
765.2618, 1129.546
767.1902, 1130.571
769.1187, 1131.392
771.0472, 1132.893
772.9756, 1135.490
774.9041, 1137.586
776.8326, 1138.630
778.7610, 1139.360
780.6895, 1140.346
782.6180, 1141.019
784.5464, 1141.368
786.4749, 1141.450
788.4034, 1141.949
790.3318, 1142.632
792.2603, 1143.427
794.1888, 1144.951
796.1172, 1147.979
798.0457, 1150.353
799.9742, 1151.304
801.9026, 1151.024
803.8311, 1151.236
805.7596, 1151.924
807.6880, 1153.524
809.6165, 1156.434
811.5450, 1161.598
813.4734, 1165.240
815.4019, 1165.630
817.3304, 1164.672
819.2589, 1165.626
821.1873, 1168.681
823.1158, 1171.496
825.0443, 1173.531
826.9727, 1174.622
828.9012, 1175.317
830.8297, 1176.299
832.7581, 1177.930
834.6866, 1178.602
836.6151, 1180.322
838.5435, 1180.861
840.4720, 1182.258
842.4005, 1184.110
844.3289, 1186.230
846.2574, 1188.046
848.1859, 1190.265
850.1143, 1193.678
852.0428, 1196.258
853.9713, 1196.032
855.8997, 1194.648
857.8282, 1195.118
859.7567, 1198.892
861.6851, 1202.634
863.6136, 1205.077
865.5421, 1205.191
867.4705, 1205.379
869.3990, 1206.533
871.3275, 1207.933
873.2559, 1209.247
875.1844, 1210.983
877.1129, 1212.465
879.0413, 1211.854
880.9698, 1211.397
882.8983, 1212.170
884.8267, 1213.689
886.7552, 1214.590
888.6837, 1215.428
890.6121, 1216.190
892.5406, 1215.662
894.4691, 1216.464
896.3975, 1220.318
898.3260, 1225.775
900.2545, 1229.572
902.1829, 1230.996
904.1114, 1231.743
906.0399, 1233.249
907.9683, 1236.152
909.8968, 1238.964
911.8253, 1241.101
913.7537, 1241.650
915.6822, 1240.703
917.6107, 1241.388
919.5391, 1244.324
921.4676, 1248.684
923.3961, 1252.397
925.3245, 1255.221
927.2530, 1258.105
929.1815, 1259.944
931.1099, 1260.452
933.0384, 1261.571
934.9669, 1266.338
936.8953, 1271.912
938.8238, 1273.713
940.7523, 1270.669
942.6807, 1268.856
944.6092, 1271.483
946.5377, 1277.718
948.4661, 1283.008
950.3946, 1286.835
952.3231, 1289.717
954.2515, 1291.512
956.1800, 1291.824
958.1085, 1292.720
960.0369, 1296.419
961.9654, 1300.292
963.8939, 1302.686
965.8223, 1304.870
967.7508, 1309.833
969.6793, 1316.838
971.6077, 1322.497
973.5362, 1325.730
975.4647, 1328.025
977.3931, 1332.558
979.3216, 1339.568
981.2501, 1344.125
983.1785, 1344.863
985.1070, 1343.237
987.0355, 1340.867
988.9639, 1338.868
990.8924, 1337.867
992.8209, 1336.760
994.7493, 1336.274
996.6778, 1337.738
998.6063, 1342.843
1000.535, 1346.397
1002.463, 1346.442
1004.392, 1345.008
1006.320, 1344.070
1008.249, 1344.804
1010.177, 1346.262
1012.106, 1348.854
1014.034, 1352.247
1015.962, 1355.682
1017.891, 1358.463
1019.819, 1360.967
1021.748, 1362.047
1023.676, 1362.475
1025.605, 1364.642
1027.533, 1369.518
1029.462, 1375.577
1031.390, 1377.962
1033.319, 1376.723
1035.247, 1375.271
1037.176, 1376.040
1039.104, 1379.004
1041.032, 1382.361
1042.961, 1384.595
1044.889, 1385.647
1046.818, 1387.001
1048.746, 1389.500
1050.675, 1393.242
1052.603, 1396.260
1054.532, 1398.568
1056.460, 1399.589
1058.389, 1399.154
1060.317, 1398.462
1062.246, 1399.849
1064.174, 1401.074
1066.103, 1402.801
1068.031, 1406.241
1069.959, 1408.621
1071.888, 1413.074
1073.816, 1418.325
1075.745, 1421.528
1077.673, 1422.849
1079.602, 1423.211
1081.530, 1423.521
1083.459, 1423.885
1085.387, 1426.636
1087.316, 1432.707
1089.244, 1437.837
1091.173, 1440.226
1093.101, 1440.929
1095.030, 1442.439
1096.958, 1445.083
1098.887, 1447.272
1100.815, 1448.731
1102.744, 1449.561
1104.672, 1450.109
1106.600, 1450.103
1108.529, 1451.041
1110.457, 1453.348
1112.386, 1457.041
1114.314, 1461.190
1116.243, 1465.109
1118.171, 1467.920
1120.100, 1469.910
1122.028, 1472.960
1123.957, 1477.697
1125.885, 1484.086
1127.814, 1490.793
1129.742, 1497.434
1131.671, 1499.533
1133.599, 1498.204
1135.527, 1496.144
1137.456, 1495.455
1139.384, 1496.036
1141.313, 1496.968
1143.241, 1498.576
1145.170, 1500.521
1147.098, 1503.567
1149.027, 1507.641
1150.955, 1510.247
1152.884, 1509.726
1154.812, 1508.996
1156.741, 1510.422
1158.669, 1513.524
1160.598, 1516.511
1162.526, 1518.894
1164.454, 1521.567
1166.383, 1525.093
1168.311, 1527.997
1170.240, 1529.754
1172.168, 1530.565
1174.097, 1533.750
1176.025, 1540.864
1177.954, 1546.172
1179.882, 1548.139
1181.811, 1548.498
1183.739, 1549.490
1185.668, 1551.025
1187.596, 1553.298
1189.525, 1557.366
1191.453, 1561.214
1193.381, 1564.171
1195.310, 1568.753
1197.238, 1570.774
1199.167, 1577.144
1201.095, 1582.188
1203.024, 1586.120
1204.952, 1589.870
1206.881, 1592.711
1208.809, 1593.358
1210.738, 1592.911
1212.666, 1592.732
1214.595, 1595.311
1216.523, 1599.603
1218.452, 1604.448
1220.380, 1607.333
1222.308, 1607.474
1224.237, 1608.452
1226.165, 1611.930
1228.094, 1617.217
1230.022, 1621.547
1231.951, 1624.007
1233.879, 1625.748
1235.808, 1626.913
1237.736, 1628.754
1239.665, 1632.098
1241.593, 1637.223
1243.522, 1641.175
1245.450, 1642.517
1247.379, 1644.554
1249.307, 1649.322
1251.235, 1653.241
1253.164, 1655.870
1255.092, 1658.488
1257.021, 1661.969
1258.949, 1665.410
1260.878, 1667.644
1262.806, 1669.977
1264.735, 1673.045
1266.663, 1676.573
1268.592, 1680.637
1270.520, 1683.962
1272.449, 1686.388
1274.377, 1688.815
1276.306, 1691.425
1278.234, 1694.135
1280.162, 1697.387
1282.091, 1701.792
1284.019, 1706.150
1285.948, 1710.035
1287.876, 1713.839
1289.805, 1717.893
1291.733, 1721.838
1293.662, 1725.131
1295.590, 1726.936
1297.519, 1729.398
1299.447, 1733.364
1301.376, 1737.492
1303.304, 1740.418
1305.233, 1741.973
1307.161, 1744.044
1309.089, 1747.863
1311.018, 1751.758
1312.946, 1754.173
1314.875, 1755.082
1316.803, 1757.595
1318.732, 1762.923
1320.660, 1768.417
1322.589, 1773.420
1324.517, 1777.941
1326.446, 1781.970
1328.374, 1785.282
1330.303, 1788.753
1332.231, 1792.458
1334.160, 1796.236
1336.088, 1800.864
1338.016, 1805.558
1339.945, 1808.704
1341.873, 1810.175
1343.802, 1811.827
1345.730, 1814.107
1347.659, 1816.716
1349.587, 1819.057
1351.516, 1821.457
1353.444, 1825.114
1355.373, 1830.116
1357.301, 1836.008
1359.230, 1844.382
1361.158, 1851.799
1363.087, 1855.776
1365.015, 1856.807
1366.943, 1858.127
1368.872, 1860.590
1370.800, 1862.292
1372.729, 1861.424
1374.657, 1861.383
1376.586, 1865.872
1378.514, 1874.382
1380.443, 1879.924
1382.371, 1880.756
1384.300, 1881.981
1386.228, 1885.626
1388.157, 1889.652
1390.085, 1891.844
1392.014, 1892.455
1393.942, 1893.775
1395.870, 1896.355
1397.799, 1898.990
1399.727, 1901.444
1401.656, 1903.744
1403.584, 1906.117
1405.513, 1908.759
1407.441, 1911.059
1409.370, 1912.367
1411.298, 1914.456
1413.227, 1918.677
1415.155, 1923.240
1417.084, 1925.584
1419.012, 1925.132
1420.941, 1927.616
1422.869, 1935.460
1424.797, 1942.383
1426.726, 1946.276
1428.654, 1949.033
1430.583, 1953.278
1432.511, 1959.526
1434.440, 1964.185
1436.368, 1966.693
1438.297, 1968.707
1440.225, 1969.361
1442.154, 1970.232
1444.082, 1974.350
1446.011, 1981.428
1447.939, 1986.305
1449.868, 1987.138
1451.796, 1988.340
1453.724, 1992.301
1455.653, 1997.086
1457.581, 2000.932
1459.510, 2003.869
1461.438, 2006.387
1463.367, 2008.614
1465.295, 2010.631
1467.224, 2011.779
1469.152, 2013.536
1471.081, 2017.063
1473.009, 2021.631
1474.938, 2025.245
1476.866, 2027.261
1478.795, 2030.031
1480.723, 2035.108
1482.651, 2039.762
1484.580, 2041.900
1486.508, 2041.618
1488.437, 2042.098
1490.365, 2043.670
1492.294, 2046.998
1494.222, 2053.502
1496.151, 2060.116
1498.079, 2064.317
1500.008, 2066.127
1501.936, 2068.143
1503.865, 2070.389
1505.793, 2073.000
1507.722, 2077.460
1509.650, 2081.192
1511.578, 2081.848
1513.507, 2080.831
1515.435, 2082.594
1517.364, 2087.816
1519.292, 2092.526
1521.221, 2096.276
1523.149, 2099.600
1525.078, 2101.660
1527.006, 2103.092
1528.935, 2105.967
1530.863, 2110.302
1532.792, 2113.746
1534.720, 2115.293
1536.649, 2117.504
1538.577, 2122.842
1540.505, 2128.554
1542.434, 2131.138
1544.362, 2131.146
1546.291, 2133.952
1548.219, 2141.331
1550.148, 2147.989
1552.076, 2152.017
1554.005, 2154.837
1555.933, 2156.482
1557.862, 2157.132
1559.790, 2159.507
1561.719, 2164.711
1563.647, 2169.474
1565.576, 2173.368
1567.504, 2176.718
1569.432, 2179.818
1571.361, 2182.920
1573.289, 2185.726
1575.218, 2186.871
1577.146, 2190.737
1579.075, 2201.248
1581.003, 2210.622
1582.932, 2215.022
1584.860, 2218.006
1586.789, 2224.083
1588.717, 2233.233
1590.646, 2239.776
1592.574, 2240.880
1594.503, 2243.560
1596.431, 2249.637
1598.359, 2256.074
1600.288, 2261.535
1602.216, 2266.019
1604.145, 2269.364
1606.073, 2270.953
1608.002, 2274.707
1609.930, 2281.986
1611.859, 2289.428
1613.787, 2296.308
1615.716, 2302.464
1617.644, 2307.502
1619.573, 2311.387
1621.501, 2315.087
1623.430, 2317.582
1625.358, 2321.794
1627.286, 2328.872
1629.215, 2337.113
1631.143, 2345.829
1633.072, 2354.967
1635.000, 2364.480
1636.929, 2374.496
1638.857, 2384.402
1640.786, 2395.362
1642.714, 2404.353
1644.643, 2410.462
1646.571, 2413.915
1648.500, 2414.267
1650.428, 2411.744
1652.357, 2408.430
1654.285, 2404.356
1656.214, 2399.369
1658.142, 2393.679
1660.070, 2387.142
1661.999, 2378.542
1663.927, 2369.972
1665.856, 2364.527
1667.784, 2362.027
1669.713, 2359.915
1671.641, 2357.602
1673.570, 2356.999
1675.498, 2358.780
1677.427, 2362.313
1679.355, 2368.323
1681.284, 2375.360
1683.212, 2380.548
1685.141, 2383.705
1687.069, 2385.719
1688.997, 2385.140
1690.926, 2386.138
1692.854, 2392.132
1694.783, 2398.339
1696.711, 2400.642
1698.640, 2400.405
1700.568, 2400.950
1702.497, 2402.368
1704.425, 2404.611
1706.354, 2408.071
1708.282, 2411.638
1710.211, 2414.959
1712.139, 2418.298
1714.068, 2421.963
1715.996, 2426.136
1717.924, 2431.490
1719.853, 2438.677
1721.781, 2444.127
1723.710, 2445.628
1725.638, 2447.626
1727.567, 2451.052
1729.495, 2455.801
1731.424, 2463.549
1733.352, 2472.360
1735.281, 2474.144
1737.209, 2466.641
1739.138, 2462.950
1741.066, 2468.494
1742.995, 2474.243
1744.923, 2476.518
1746.851, 2477.863
1748.780, 2480.691
1750.708, 2484.869
1752.637, 2489.594
1754.565, 2494.882
1756.494, 2499.598
1758.422, 2503.591
1760.351, 2506.343
1762.279, 2506.264
1764.208, 2505.798
1766.136, 2508.253
1768.065, 2512.676
1769.993, 2514.092
1771.922, 2511.546
1773.850, 2511.438
1775.778, 2516.129
1777.707, 2521.226
1779.635, 2526.163
1781.564, 2530.172
1783.492, 2531.664
1785.421, 2531.567
1787.349, 2533.332
1789.278, 2537.351
1791.206, 2540.983
1793.135, 2543.990
1795.063, 2546.863
1796.992, 2549.489
1798.920, 2552.445
1800.849, 2556.248
1802.777, 2560.757
1804.705, 2566.055
1806.634, 2568.927
1808.562, 2576.775
1810.491, 2575.421
1812.419, 2576.257
1814.348, 2579.531
1816.276, 2585.389
1818.205, 2595.613
1820.133, 2607.093
1822.062, 2616.060
1823.990, 2622.391
1825.919, 2624.755
1827.847, 2619.923
1829.776, 2618.229
1831.704, 2624.350
1833.632, 2628.736
1835.561, 2626.422
1837.489, 2623.234
1839.418, 2624.943
1841.346, 2625.082
1843.275, 2626.753
1845.203, 2631.422
1847.132, 2633.592
1849.060, 2641.430
1850.989, 2648.288
1852.917, 2653.061
1854.846, 2655.753
1856.774, 2654.815
1858.703, 2652.782
1860.631, 2654.048
1862.559, 2658.097
1864.488, 2659.632
1866.416, 2657.631
1868.345, 2658.086
1870.273, 2663.863
1872.202, 2669.262
1874.130, 2671.712
1876.059, 2673.349
1877.987, 2675.254
1879.916, 2677.761
1881.844, 2681.645
1883.773, 2686.724
1885.701, 2692.042
1887.630, 2697.866
1889.558, 2701.638
1891.486, 2700.918
1893.415, 2700.185
1895.343, 2701.539
1897.272, 2704.192
1899.200, 2708.731
1901.129, 2714.226
1903.057, 2715.996
1904.986, 2713.219
1906.914, 2713.527
1908.843, 2718.404
1910.771, 2724.450
1912.700, 2731.942
1914.628, 2738.959
1916.557, 2743.540
1918.485, 2747.275
1920.413, 2752.316
1922.342, 2758.249
1924.270, 2763.585
1926.199, 2768.827
1928.127, 2772.333
1930.056, 2772.938
1931.984, 2774.335
1933.913, 2777.396
1935.841, 2781.157
1937.770, 2786.358
1939.698, 2790.911
1941.627, 2790.257
1943.555, 2786.547
1945.484, 2791.858
1947.412, 2807.490
1949.340, 2814.400
1951.269, 2807.583
1953.197, 2801.683
1955.126, 2800.850
1957.054, 2802.204
1958.983, 2804.014
1960.911, 2807.513
1962.840, 2815.724
1964.768, 2826.237
1966.697, 2832.077
1968.625, 2832.806
1970.554, 2832.603
1972.482, 2830.164
1974.411, 2829.724
1976.339, 2832.983
1978.267, 2837.006
1980.196, 2841.832
1982.124, 2846.423
1984.053, 2849.935
1985.981, 2852.886
1987.910, 2855.710
1989.838, 2858.311
1991.767, 2862.742
1993.695, 2870.285
1995.624, 2875.114
1997.552, 2874.321
1999.481, 2874.322
2001.409, 2877.305
2003.338, 2881.070
2005.266, 2885.121
2007.194, 2889.024
2009.123, 2891.925
2011.051, 2894.105
2012.980, 2896.761
2014.908, 2899.883
2016.837, 2901.965
2018.765, 2902.598
2020.694, 2903.376
2022.622, 2904.173
2024.551, 2906.457
2026.479, 2913.466
2028.408, 2919.892
2030.336, 2919.182
2032.265, 2915.923
2034.193, 2919.113
2036.121, 2927.821
2038.050, 2933.240
2039.978, 2933.410
2041.907, 2935.383
2043.835, 2941.563
2045.764, 2945.988
2047.692, 2945.624
2049.621, 2947.100
2051.549, 2954.920
2053.478, 2964.044
2055.406, 2969.861
2057.334, 2973.683
2059.263, 2978.059
2061.191, 2982.551
2063.120, 2986.313
2065.049, 2989.136
2066.977, 2991.098
2068.906, 2992.184
2070.834, 2993.046
2072.762, 2994.493
2074.691, 2995.678
2076.619, 2996.019
2078.548, 2996.613
2080.476, 2999.204
2082.405, 3002.279
2084.333, 3002.467
2086.262, 3000.356
2088.190, 3000.556
2090.119, 3002.919
2092.047, 3008.613
2093.976, 3018.723
2095.904, 3028.988
2097.833, 3039.720
2099.761, 3047.707
2101.689, 3050.675
2103.618, 3051.127
2105.546, 3049.262
2107.475, 3047.109
2109.403, 3047.543
2111.332, 3050.097
2113.260, 3053.359
2115.189, 3057.615
2117.117, 3060.497
2119.046, 3064.888
2120.974, 3070.035
2122.903, 3072.466
2124.831, 3076.663
2126.760, 3081.665
2128.688, 3082.759
2130.616, 3083.685
2132.545, 3085.341
2134.473, 3089.157
2136.402, 3094.020
2138.330, 3097.757
2140.259, 3100.741
2142.187, 3104.833
2144.116, 3109.786
2146.044, 3112.747
2147.973, 3112.884
2149.901, 3114.376
2151.830, 3120.595
2153.758, 3124.233
2155.687, 3120.306
2157.615, 3118.122
2159.543, 3122.148
2161.472, 3129.077
2163.400, 3137.356
2165.329, 3144.917
2167.257, 3147.767
2169.186, 3146.909
2171.114, 3148.851
2173.043, 3153.857
2174.971, 3157.184
2176.900, 3159.368
2178.828, 3159.247
2180.757, 3155.113
2182.685, 3154.381
2184.614, 3160.741
2186.542, 3167.396
2188.470, 3170.657
2190.399, 3173.157
2192.327, 3176.978
2194.256, 3180.813
2196.184, 3182.945
2198.113, 3184.410
2200.041, 3187.511
2201.970, 3192.249
2203.898, 3196.717
2205.827, 3200.737
2207.755, 3205.622
2209.684, 3211.878
2211.612, 3215.757
2213.541, 3215.723
2215.469, 3215.741
2217.397, 3217.133
2219.326, 3219.273
2221.254, 3221.204
2223.183, 3224.567
2225.111, 3233.009
2227.040, 3241.378
2228.968, 3240.448
2230.897, 3247.846
2232.825, 3251.301
2234.754, 3252.999
2236.682, 3258.446
2238.611, 3255.874
2240.539, 3257.085
2242.468, 3263.824
2244.396, 3268.287
2246.324, 3268.190
2248.253, 3268.286
2250.181, 3270.270
2252.110, 3272.407
2254.038, 3274.566
2255.967, 3276.638
2257.895, 3278.255
2259.824, 3280.222
2261.752, 3282.897
2263.681, 3286.471
2265.609, 3291.776
2267.538, 3297.973
2269.466, 3302.324
2271.395, 3305.071
2273.323, 3309.744
2275.251, 3316.797
2277.180, 3320.284
2279.108, 3317.530
2281.037, 3318.088
2282.965, 3325.506
2284.894, 3332.470
2286.822, 3338.140
2288.751, 3342.643
2290.679, 3344.871
2292.608, 3347.122
2294.536, 3351.578
2296.465, 3355.520
2298.393, 3355.460
2300.322, 3354.606
2302.250, 3357.026
2304.178, 3361.862
2306.107, 3368.055
2308.035, 3375.164
2309.964, 3379.339
2311.892, 3380.261
2313.821, 3381.210
2315.749, 3381.632
2317.678, 3383.728
2319.606, 3387.260
2321.535, 3393.858
2323.463, 3406.075
2325.392, 3415.489
2327.320, 3420.952
2329.249, 3421.450
2331.177, 3411.624
2333.105, 3403.476
2335.034, 3404.633
2336.962, 3409.423
2338.891, 3413.504
2340.819, 3417.262
2342.748, 3421.058
2344.676, 3424.763
2346.605, 3428.588
2348.533, 3432.535
2350.462, 3437.014
2352.390, 3442.073
2354.319, 3445.497
2356.247, 3447.006
2358.176, 3451.766
2360.104, 3462.783
2362.032, 3469.449
2363.961, 3468.546
2365.889, 3468.780
2367.818, 3470.285
2369.746, 3474.606
2371.675, 3485.585
2373.603, 3493.559
2375.532, 3492.199
2377.460, 3490.843
2379.389, 3494.000
2381.317, 3499.431
2383.246, 3505.280
2385.174, 3511.698
2387.103, 3520.038
2389.031, 3527.831
2390.959, 3531.610
2392.888, 3532.296
2394.816, 3531.342
2396.745, 3529.927
2398.673, 3531.861
2400.602, 3536.986
2402.530, 3539.834
2404.459, 3539.865
2406.387, 3539.976
2408.316, 3538.753
2410.244, 3540.504
2412.173, 3540.656
2414.101, 3540.520
2416.030, 3544.474
2417.958, 3546.679
2419.886, 3548.383
2421.815, 3554.614
2423.743, 3560.165
2425.672, 3564.473
2427.600, 3565.577
2429.529, 3567.960
2431.457, 3574.124
2433.386, 3582.578
2435.314, 3594.583
2437.243, 3605.883
2439.171, 3611.504
2441.100, 3614.375
2443.028, 3616.521
2444.957, 3618.234
2446.885, 3620.943
2448.813, 3623.546
2450.742, 3624.148
2452.670, 3623.229
2454.599, 3621.151
2456.527, 3618.788
2458.456, 3618.706
2460.384, 3621.320
2462.313, 3624.901
2464.241, 3629.229
2466.170, 3635.088
2468.098, 3641.965
2470.027, 3649.050
2471.955, 3656.495
2473.884, 3660.934
2475.812, 3659.816
2477.740, 3660.730
2479.669, 3666.895
2481.597, 3670.353
2483.526, 3668.758
2485.454, 3667.243
2487.383, 3668.523
2489.311, 3670.524
2491.240, 3672.122
2493.168, 3675.109
2495.097, 3679.330
2497.025, 3685.604
2498.954, 3696.442
2500.882, 3705.639
2502.811, 3706.405
2504.739, 3705.210
2506.667, 3707.557
2508.596, 3711.806
2510.524, 3719.367
2512.453, 3725.909
2514.381, 3721.341
2516.310, 3729.003
2518.238, 3719.921
2520.167, 3734.092
2522.095, 3739.205
2524.024, 3738.429
2525.952, 3743.134
2527.881, 3751.495
2529.809, 3754.973
2531.738, 3753.629
2533.666, 3753.017
2535.594, 3753.310
2537.523, 3752.486
2539.451, 3750.899
2541.380, 3752.511
2543.308, 3757.956
2545.237, 3763.304
2547.165, 3768.104
2549.094, 3772.434
2551.022, 3778.333
2552.951, 3780.190
2554.879, 3788.876
2556.808, 3795.397
2558.736, 3798.976
2560.665, 3800.605
2562.593, 3798.697
2564.521, 3799.562
2566.450, 3806.866
2568.378, 3812.758
2570.307, 3812.489
2572.235, 3816.167
2574.164, 3828.446
2576.092, 3839.348
2578.021, 3846.617
2579.949, 3849.954
2581.878, 3844.553
2583.806, 3842.455
2585.735, 3851.360
2587.663, 3861.412
2589.592, 3869.588
2591.520, 3875.104
2593.448, 3874.748
2595.377, 3875.307
2597.305, 3882.794
2599.234, 3890.078
2601.162, 3893.483
2603.091, 3892.943
2605.019, 3884.306
2606.948, 3876.949
2608.876, 3880.187
2610.805, 3887.954
2612.733, 3897.138
2614.662, 3906.084
2616.590, 3912.636
2618.519, 3917.955
2620.447, 3922.214
2622.375, 3926.323
2624.304, 3931.273
2626.232, 3936.710
2628.161, 3943.887
2630.089, 3950.183
2632.018, 3950.503
2633.946, 3955.917
2635.875, 3953.407
2637.803, 3960.384
2639.732, 3962.573
2641.660, 3962.335
2643.589, 3964.574
2645.517, 3967.947
2647.446, 3968.653
2649.374, 3968.963
2651.302, 3975.388
2653.231, 3978.782
2655.159, 3989.813
2657.088, 3991.487
2659.016, 3997.497
2660.945, 4005.724
2662.873, 4011.375
2664.802, 4014.098
2666.730, 4010.778
2668.659, 4004.109
2670.587, 4003.688
2672.516, 4008.693
2674.444, 4017.000
2676.373, 4026.929
2678.301, 4032.958
2680.229, 4035.525
2682.158, 4037.362
2684.086, 4038.597
2686.015, 4039.099
2687.943, 4039.528
2689.872, 4043.552
2691.800, 4050.005
2693.729, 4053.794
2695.657, 4055.166
2697.586, 4056.019
2699.514, 4056.632
2701.443, 4057.089
2703.371, 4058.338
2705.300, 4067.420
2707.228, 4081.514
2709.156, 4086.782
2711.085, 4084.996
2713.013, 4087.123
2714.942, 4092.249
2716.870, 4097.477
2718.799, 4102.873
2720.727, 4110.942
2722.656, 4120.151
2724.584, 4122.297
2726.513, 4119.760
2728.441, 4121.974
2730.370, 4127.892
2732.298, 4132.787
2734.227, 4136.765
2736.155, 4140.884
2738.083, 4144.904
2740.012, 4148.839
2741.940, 4152.340
2743.869, 4153.544
2745.797, 4153.606
2747.726, 4155.368
2749.654, 4159.275
2751.583, 4168.159
2753.511, 4179.189
2755.440, 4185.850
2757.368, 4188.961
2759.297, 4189.481
2761.225, 4188.725
2763.154, 4189.311
2765.082, 4191.569
2767.010, 4198.244
2768.939, 4205.872
2770.867, 4208.321
2772.796, 4207.815
2774.724, 4205.564
2776.653, 4204.901
2778.581, 4214.582
2780.510, 4213.724
2782.438, 4225.888
2784.367, 4222.979
2786.295, 4230.603
2788.224, 4240.510
2790.152, 4241.907
2792.081, 4241.175
2794.009, 4244.926
2795.938, 4250.410
2797.866, 4256.540
2799.794, 4261.109
2801.723, 4260.748
2803.651, 4259.012
2805.580, 4256.651
2807.508, 4256.941
2809.437, 4266.198
2811.365, 4273.826
2813.294, 4272.558
2815.222, 4269.808
2817.151, 4268.168
2819.079, 4269.423
2821.008, 4274.554
2822.936, 4281.283
2824.865, 4289.529
2826.793, 4296.001
2828.721, 4295.956
2830.650, 4298.274
2832.578, 4307.603
2834.507, 4314.192
2836.435, 4313.806
2838.364, 4316.201
2840.292, 4330.632
2842.221, 4337.191
2844.149, 4328.416
2846.078, 4324.072
2848.006, 4326.797
2849.935, 4331.391
2851.863, 4337.177
2853.792, 4343.283
2855.720, 4350.995
2857.648, 4353.475
2859.577, 4349.641
2861.505, 4350.701
2863.434, 4357.430
2865.362, 4363.463
2867.291, 4368.029
2869.219, 4375.271
2871.148, 4384.979
2873.076, 4390.306
2875.005, 4391.759
2876.933, 4390.075
2878.862, 4387.414
2880.790, 4393.302
2882.719, 4404.279
2884.647, 4407.806
2886.575, 4407.230
2888.504, 4411.159
2890.432, 4416.170
2892.361, 4415.806
2894.289, 4414.703
2896.218, 4419.817
2898.146, 4427.893
2900.075, 4436.313
2902.003, 4444.378
2903.932, 4451.712
2905.860, 4457.083
2907.789, 4457.326
2909.717, 4457.865
2911.646, 4462.671
2913.574, 4467.476
2915.502, 4470.744
2917.431, 4474.264
2919.359, 4480.400
2921.288, 4484.238
2923.216, 4489.585
2925.145, 4497.783
2927.073, 4500.605
2929.002, 4513.331
2930.930, 4520.486
2932.859, 4524.854
2934.787, 4526.241
2936.716, 4526.086
2938.644, 4524.582
2940.573, 4532.292
2942.501, 4550.445
2944.429, 4553.465
2946.358, 4542.632
2948.286, 4536.354
2950.215, 4534.519
2952.143, 4537.588
2954.072, 4543.991
2956.000, 4551.471
2957.929, 4558.401
2959.857, 4560.843
2961.786, 4564.539
2963.714, 4564.080
2965.643, 4565.979
2967.571, 4563.563
2969.500, 4560.851
2971.428, 4559.125
2973.356, 4561.209
2975.285, 4574.993
2977.213, 4583.109
2979.142, 4572.090
2981.070, 4566.055
2982.999, 4572.218
2984.927, 4577.990
2986.856, 4580.936
2988.784, 4582.260
2990.713, 4580.142
2992.641, 4581.423
2994.570, 4586.384
2996.498, 4590.328
2998.427, 4593.109
3000.355, 4597.422
3002.283, 4598.490
3004.212, 4603.058
3006.140, 4600.129
3008.069, 4597.614
3009.997, 4597.211
3011.926, 4603.118
3013.854, 4612.219
3015.783, 4622.405
3017.711, 4630.719
3019.640, 4633.243
3021.568, 4634.085
3023.497, 4635.551
3025.425, 4635.914
3027.354, 4637.815
3029.282, 4640.926
3031.210, 4640.214
3033.139, 4646.802
3035.067, 4646.017
3036.996, 4645.482
3038.924, 4645.219
3040.853, 4650.288
3042.781, 4660.891
3044.710, 4666.022
3046.638, 4665.416
3048.567, 4664.970
3050.495, 4665.874
3052.424, 4676.449
3054.352, 4691.080
3056.281, 4697.004
3058.209, 4700.315
3060.137, 4710.823
3062.066, 4720.476
3063.994, 4718.883
3065.923, 4717.169
3067.851, 4722.843
3069.780, 4729.268
3071.708, 4737.307
3073.637, 4739.462
3075.565, 4733.205
3077.494, 4727.148
3079.422, 4720.774
3081.351, 4722.279
3083.279, 4731.942
3085.208, 4737.490
3087.136, 4738.664
3089.064, 4740.935
3090.993, 4744.151
3092.921, 4747.461
3094.850, 4750.482
3096.778, 4751.785
3098.707, 4752.216
3100.635, 4749.933
3102.564, 4750.245
3104.492, 4759.309
3106.421, 4769.729
3108.349, 4779.576
3110.278, 4787.634
3112.206, 4793.617
3114.135, 4796.407
3116.063, 4802.856
3117.991, 4806.745
3119.920, 4809.885
3121.848, 4815.110
3123.777, 4813.859
3125.705, 4816.986
3127.634, 4823.255
3129.562, 4828.682
3131.491, 4833.252
3133.419, 4836.351
3135.348, 4838.935
3137.276, 4840.674
3139.205, 4844.362
3141.133, 4854.751
3143.062, 4863.312
3144.990, 4864.977
3146.918, 4869.091
3148.847, 4878.373
3150.775, 4885.560
3152.704, 4887.735
3154.632, 4894.011
3156.561, 4903.924
3158.489, 4914.142
3160.418, 4923.752
3162.346, 4929.092
3164.275, 4933.041
3166.203, 4943.057
3168.132, 4946.911
3170.060, 4956.229
3171.989, 4958.530
3173.917, 4963.963
3175.845, 4970.556
3177.774, 4979.143
3179.702, 4985.734
3181.631, 4986.297
3183.559, 4993.050
3185.488, 5006.054
3187.416, 5019.125
3189.345, 5032.003
3191.273, 5049.443
3193.202, 5068.064
3195.130, 5080.116
3197.059, 5087.337
3198.987, 5089.982
3200.916, 5093.445
3202.844, 5104.921
3204.772, 5114.433
3206.701, 5116.938
3208.629, 5122.438
3210.558, 5133.302
3212.486, 5149.259
3214.415, 5170.469
3216.343, 5188.387
3218.272, 5203.142
3220.200, 5221.179
3222.129, 5239.643
3224.057, 5249.000
3225.986, 5257.057
3227.914, 5274.495
3229.843, 5293.448
3231.771, 5310.986
3233.699, 5324.411
3235.628, 5332.709
3237.556, 5339.307
3239.485, 5343.548
3241.413, 5352.120
3243.342, 5365.272
3245.270, 5379.013
3247.199, 5392.208
3249.127, 5399.524
3251.056, 5405.134
3252.984, 5418.071
3254.913, 5432.406
3256.841, 5445.484
3258.770, 5454.070
3260.698, 5454.521
3262.626, 5454.037
3264.555, 5453.759
3266.483, 5454.889
3268.412, 5454.598
3270.340, 5458.318
3272.269, 5456.577
3274.197, 5457.860
3276.126, 5461.891
3278.054, 5469.778
3279.983, 5478.776
3281.911, 5484.500
3283.840, 5493.331
3285.768, 5510.870
3287.697, 5527.751
3289.625, 5540.370
3291.553, 5555.258
3293.482, 5569.214
3295.410, 5579.915
3297.339, 5596.106
3299.267, 5607.391
3301.196, 5620.217
3303.124, 5631.181
3305.053, 5638.985
3306.981, 5651.467
3308.910, 5667.927
3310.838, 5689.786
3312.767, 5710.675
3314.695, 5728.466
3316.624, 5746.528
3318.552, 5765.240
3320.480, 5785.080
3322.409, 5807.879
3324.337, 5843.841
3326.266, 5883.561
3328.194, 5910.957
3330.123, 5938.163
3332.051, 5978.842
3333.980, 6011.301
3335.908, 6026.566
3337.837, 6046.401
3339.765, 6076.736
3341.694, 6100.358
3343.622, 6119.055
3345.551, 6150.946
3347.479, 6172.856
3349.407, 6206.993
3351.336, 6223.331
3353.264, 6245.592
3355.193, 6269.166
3357.121, 6290.854
3359.050, 6313.739
3360.978, 6338.277
3362.907, 6359.140
3364.835, 6375.888
3366.764, 6388.359
3368.692, 6398.502
3370.621, 6413.236
3372.549, 6424.681
3374.478, 6421.359
3376.406, 6417.990
3378.334, 6422.372
3380.263, 6423.423
3382.191, 6417.359
3384.120, 6413.787
3386.048, 6412.906
3387.977, 6409.117
3389.905, 6402.345
3391.834, 6389.709
3393.762, 6378.679
3395.691, 6381.448
3397.619, 6381.881
3399.548, 6369.942
3401.476, 6362.052
3403.405, 6361.545
3405.333, 6353.842
3407.261, 6339.415
3409.190, 6332.021
3411.118, 6327.934
3413.047, 6320.807
3414.975, 6311.174
3416.904, 6298.626
3418.832, 6286.063
3420.761, 6275.439
3422.689, 6263.515
3424.618, 6249.942
3426.546, 6236.681
3428.475, 6224.602
3430.403, 6219.351
3432.332, 6217.346
3434.260, 6216.644
3436.188, 6212.084
3438.117, 6200.338
3440.045, 6185.797
3441.974, 6169.154
3443.902, 6153.625
3445.831, 6139.570
3447.759, 6125.185
3449.688, 6113.455
3451.616, 6101.197
3453.545, 6092.584
3455.473, 6084.377
3457.402, 6076.870
3459.330, 6065.394
3461.259, 6055.243
3463.187, 6043.134
3465.115, 6029.226
3467.044, 6019.435
3468.972, 6001.073
3470.901, 5981.936
3472.829, 5972.110
3474.758, 5962.320
3476.686, 5948.381
3478.615, 5930.195
3480.543, 5907.630
3482.472, 5880.861
3484.400, 5863.824
3486.329, 5836.297
3488.257, 5825.454
3490.186, 5806.046
3492.114, 5787.565
3494.042, 5777.539
3495.971, 5764.962
3497.899, 5744.167
3499.828, 5730.056
3501.756, 5721.575
3503.685, 5710.766
3505.613, 5698.354
3507.542, 5688.977
3509.470, 5675.148
3511.399, 5649.713
3513.327, 5628.975
3515.256, 5620.528
3517.184, 5613.555
3519.113, 5607.421
3521.041, 5596.609
3522.969, 5589.882
3524.898, 5578.146
3526.826, 5571.990
3528.755, 5562.119
3530.683, 5550.066
3532.612, 5535.575
3534.540, 5522.909
3536.469, 5512.288
3538.397, 5502.475
3540.326, 5491.609
3542.254, 5473.523
3544.183, 5458.244
3546.111, 5455.681
3548.040, 5450.462
3549.968, 5439.233
3551.896, 5433.718
3553.825, 5432.658
3555.753, 5426.373
3557.682, 5418.078
3559.610, 5414.167
3561.539, 5407.003
3563.467, 5390.034
3565.396, 5380.510
3567.324, 5382.984
3569.253, 5382.851
3571.181, 5380.423
3573.110, 5379.995
3575.038, 5376.930
3576.967, 5361.612
3578.895, 5351.966
3580.823, 5356.466
3582.752, 5356.950
3584.680, 5351.519
3586.609, 5350.406
3588.537, 5351.787
3590.466, 5352.136
3592.394, 5352.301
3594.323, 5353.132
3596.251, 5353.277
3598.180, 5352.616
3600.108, 5349.444
3602.037, 5344.786
3603.965, 5344.826
3605.894, 5340.827
3607.822, 5338.580
3609.750, 5335.499
3611.679, 5332.750
3613.607, 5330.099
3615.536, 5328.979
3617.464, 5326.109
3619.393, 5323.856
3621.321, 5325.460
3623.250, 5320.057
3625.178, 5320.073
3627.107, 5321.095
3629.035, 5321.138
3630.964, 5327.612
3632.892, 5327.806
3634.821, 5336.198
3636.749, 5331.426
3638.677, 5333.648
3640.606, 5333.482
3642.534, 5323.593
3644.463, 5317.701
3646.391, 5316.146
3648.320, 5320.594
3650.248, 5326.301
3652.177, 5325.133
3654.105, 5321.678
3656.034, 5317.111
3657.962, 5315.519
3659.891, 5312.539
3661.819, 5314.673
3663.748, 5309.820
3665.676, 5309.279
3667.604, 5310.992
3669.533, 5306.389
3671.461, 5315.789
3673.390, 5302.609
3675.318, 5297.505
3677.247, 5299.499
3679.175, 5302.918
3681.104, 5303.800
3683.032, 5295.393
3684.961, 5289.456
3686.889, 5288.553
3688.818, 5294.909
3690.746, 5290.071
3692.675, 5299.360
3694.603, 5291.401
3696.531, 5299.282
3698.460, 5307.699
3700.388, 5310.478
3702.317, 5317.402
3704.245, 5318.488
3706.174, 5325.143
3708.102, 5318.658
3710.031, 5315.343
3711.959, 5313.202
3713.888, 5314.341
3715.816, 5305.480
3717.745, 5288.773
3719.673, 5286.776
3721.602, 5291.055
3723.530, 5290.106
3725.458, 5289.502
3727.387, 5290.571
3729.315, 5294.546
3731.244, 5300.692
3733.172, 5307.673
3735.101, 5312.954
3737.029, 5311.708
3738.958, 5311.438
3740.886, 5319.657
3742.815, 5316.490
3744.743, 5304.575
3746.672, 5305.609
3748.600, 5313.257
3750.529, 5320.685
3752.457, 5325.593
3754.385, 5325.070
3756.314, 5323.541
3758.242, 5321.802
3760.171, 5327.670
3762.099, 5332.873
3764.028, 5327.857
3765.956, 5321.314
3767.885, 5315.354
3769.813, 5312.764
3771.742, 5313.249
3773.670, 5316.408
3775.599, 5318.492
3777.527, 5319.331
3779.456, 5314.072
3781.384, 5319.928
3783.313, 5319.263
3785.241, 5316.235
3787.169, 5327.041
3789.098, 5334.720
3791.026, 5323.105
3792.955, 5321.753
3794.883, 5337.516
3796.812, 5343.125
3798.740, 5342.326
3800.669, 5340.364
3802.597, 5340.771
3804.526, 5340.513
3806.454, 5339.641
3808.383, 5341.954
3810.311, 5340.722
3812.240, 5342.461
3814.168, 5347.590
3816.096, 5351.002
3818.025, 5349.634
3819.953, 5354.180
3821.882, 5362.792
3823.810, 5364.009
3825.739, 5361.413
3827.667, 5357.808
3829.596, 5353.432
3831.524, 5349.107
3833.453, 5338.169
3835.381, 5328.170
3837.310, 5338.394
3839.238, 5351.436
3841.167, 5358.697
3843.095, 5357.211
3845.023, 5367.382
3846.952, 5359.294
3848.880, 5373.593
3850.809, 5367.550
3852.737, 5359.962
3854.666, 5356.465
3856.594, 5354.186
3858.523, 5354.410
3860.451, 5366.701
3862.380, 5376.438
3864.308, 5368.504
3866.237, 5366.407
3868.165, 5371.669
3870.094, 5365.845
3872.022, 5358.063
3873.950, 5362.374
3875.879, 5371.083
3877.807, 5384.211
3879.736, 5388.398
3881.664, 5385.979
3883.593, 5388.775
3885.521, 5389.535
3887.450, 5383.538
3889.378, 5377.114
3891.307, 5371.564
3893.235, 5372.682
3895.164, 5378.332
3897.092, 5388.958
3899.021, 5394.369
3900.949, 5390.356
3902.877, 5390.327
3904.806, 5393.391
3906.734, 5400.927
3908.663, 5406.377
3910.591, 5408.123
3912.520, 5405.609
3914.448, 5398.594
3916.377, 5399.245
3918.305, 5404.061
3920.234, 5411.197
3922.162, 5407.050
3924.091, 5407.178
3926.019, 5388.048
3927.948, 5400.208
3929.876, 5401.477
3931.804, 5401.326
3933.733, 5409.036
3935.661, 5412.532
3937.590, 5409.667
3939.518, 5409.733
3941.447, 5412.408
3943.375, 5416.763
3945.304, 5419.760
3947.232, 5418.806
3949.161, 5412.772
3951.089, 5409.349
3953.018, 5417.807
3954.946, 5422.228
3956.875, 5420.669
3958.803, 5420.521
3960.731, 5418.849
3962.660, 5424.081
3964.588, 5424.829
3966.517, 5426.650
3968.445, 5413.615
3970.374, 5427.189
3972.302, 5417.952
3974.231, 5409.712
3976.159, 5421.076
3978.088, 5431.858
3980.016, 5433.947
3981.945, 5426.497
3983.873, 5420.749
3985.802, 5422.990
3987.730, 5424.874
3989.658, 5421.178
3991.587, 5428.553
3993.515, 5437.801
3995.444, 5442.188
3997.372, 5446.034
3999.301, 5443.244
4001.229, 5440.101
4003.158, 5441.224
4005.086, 5442.273
4007.015, 5438.607
4008.943, 5438.135
4010.872, 5438.523
4012.800, 5436.334
4014.729, 5437.755
4016.657, 5441.169
4018.585, 5440.024
4020.514, 5443.502
4022.442, 5449.351
4024.371, 5455.354
4026.299, 5463.630
4028.228, 5468.952
4030.156, 5464.600
4032.085, 5457.864
4034.013, 5459.954
4035.942, 5463.984
4037.870, 5469.082
4039.799, 5466.452
4041.727, 5461.109
4043.656, 5464.471
4045.584, 5468.011
4047.512, 5470.060
4049.441, 5473.050
4051.369, 5472.774
4053.298, 5463.238
4055.226, 5457.866
4057.155, 5460.911
4059.083, 5467.067
4061.012, 5473.220
4062.940, 5470.451
4064.869, 5470.592
4066.797, 5474.258
4068.726, 5476.043
4070.654, 5478.390
4072.583, 5474.050
4074.511, 5466.597
4076.439, 5459.763
4078.368, 5457.781
4080.296, 5459.203
4082.225, 5462.932
4084.153, 5465.792
4086.082, 5465.628
4088.010, 5466.400
4089.939, 5468.336
4091.867, 5470.871
4093.796, 5471.025
4095.724, 5466.760
4097.653, 5463.334
4099.581, 5461.469
4101.510, 5458.910
4103.438, 5456.900
4105.367, 5455.382
4107.295, 5458.554
4109.224, 5465.118
4111.152, 5467.489
4113.081, 5467.731
4115.009, 5465.819
4116.938, 5467.601
4118.866, 5467.812
4120.794, 5470.807
4122.723, 5469.736
4124.651, 5472.128
4126.580, 5472.472
4128.508, 5470.815
4130.437, 5468.397
4132.365, 5466.797
4134.293, 5467.112
4136.222, 5468.008
4138.150, 5469.076
4140.079, 5468.811
4142.007, 5468.440
4143.936, 5467.874
4145.864, 5465.962
4147.793, 5463.837
4149.721, 5464.475
4151.650, 5466.556
4153.578, 5468.517
4155.507, 5467.848
4157.435, 5466.286
4159.364, 5464.159
4161.292, 5463.992
4163.221, 5463.618
4165.149, 5469.247
4167.078, 5464.012
4169.006, 5463.661
4170.935, 5462.978
4172.863, 5459.100
4174.792, 5458.372
4176.720, 5459.663
4178.648, 5457.761
4180.577, 5458.361
4182.505, 5465.618
4184.434, 5468.104
4186.362, 5467.189
4188.291, 5461.007
4190.219, 5451.454
4192.147, 5440.137
4194.076, 5440.625
4196.004, 5447.156
4197.933, 5450.212
4199.861, 5451.799
4201.790, 5453.950
4203.718, 5455.764
4205.647, 5454.455
4207.575, 5457.335
4209.504, 5457.445
4211.432, 5454.772
4213.361, 5456.383
4215.289, 5459.994
4217.218, 5463.310
4219.146, 5464.015
4221.075, 5461.253
4223.003, 5459.215
4224.932, 5457.619
4226.860, 5456.354
4228.789, 5451.106
4230.717, 5442.463
4232.646, 5437.501
4234.574, 5438.298
4236.502, 5437.199
4238.431, 5436.930
4240.359, 5442.649
4242.288, 5439.885
4244.216, 5442.030
4246.145, 5446.455
4248.073, 5439.164
4250.001, 5442.440
4251.930, 5433.211
4253.858, 5441.244
4255.787, 5435.364
4257.715, 5433.636
4259.644, 5436.767
4261.572, 5431.587
4263.501, 5449.295
4265.429, 5430.087
4267.358, 5429.756
4269.286, 5436.382
4271.215, 5421.290
4273.143, 5419.242
4275.072, 5435.323
4277.000, 5437.707
4278.929, 5433.635
4280.857, 5429.690
4282.786, 5431.037
4284.714, 5436.500
4286.643, 5436.473
4288.571, 5433.767
4290.500, 5430.100
4292.428, 5425.928
4294.356, 5422.595
4296.285, 5424.502
4298.213, 5427.450
4300.142, 5429.950
4302.070, 5425.189
4303.999, 5417.497
4305.927, 5412.616
4307.855, 5413.139
4309.784, 5418.042
4311.712, 5409.360
4313.641, 5401.042
4315.569, 5405.453
4317.498, 5412.756
4319.426, 5419.572
4321.355, 5418.233
4323.283, 5414.940
4325.212, 5412.272
4327.140, 5411.628
4329.069, 5412.740
4330.997, 5414.405
4332.926, 5420.521
4334.854, 5415.809
4336.783, 5422.484
4338.711, 5410.228
4340.640, 5407.969
4342.568, 5409.134
4344.497, 5411.336
4346.425, 5409.226
4348.354, 5403.074
4350.282, 5389.603
4352.210, 5388.091
4354.139, 5394.338
4356.067, 5404.953
4357.996, 5407.396
4359.924, 5409.184
4361.853, 5402.901
4363.781, 5407.587
4365.709, 5405.758
4367.638, 5405.289
4369.566, 5406.671
4371.495, 5410.403
4373.423, 5409.283
4375.352, 5410.157
4377.280, 5412.169
4379.209, 5407.912
4381.137, 5411.562
4383.066, 5408.120
4384.994, 5399.532
4386.923, 5398.335
4388.851, 5392.683
4390.780, 5376.125
4392.708, 5387.835
4394.637, 5375.812
4396.565, 5377.543
4398.494, 5367.110
4400.422, 5377.844
4402.351, 5375.956
4404.279, 5370.750
4406.208, 5368.010
4408.136, 5366.546
4410.064, 5368.070
4411.993, 5363.331
4413.921, 5364.500
4415.850, 5360.143
4417.778, 5363.107
4419.707, 5370.745
4421.635, 5368.566
4423.563, 5361.749
4425.492, 5354.910
4427.420, 5363.127
4429.349, 5361.908
4431.277, 5345.922
4433.206, 5354.783
4435.134, 5362.218
4437.063, 5345.146
4438.991, 5350.654
4440.920, 5367.357
4442.848, 5358.250
4444.777, 5348.618
4446.705, 5344.727
4448.634, 5340.672
4450.562, 5340.068
4452.491, 5340.442
4454.419, 5341.320
4456.348, 5345.288
4458.276, 5346.893
4460.205, 5350.394
4462.133, 5354.146
4464.062, 5355.974
4465.990, 5354.319
4467.918, 5352.947
4469.847, 5344.215
4471.775, 5342.278
4473.704, 5335.418
4475.632, 5322.829
4477.561, 5307.435
4479.489, 5310.431
4481.417, 5313.337
4483.346, 5305.758
4485.274, 5306.915
4487.203, 5312.166
4489.131, 5316.048
4491.060, 5311.813
4492.988, 5311.312
4494.917, 5301.908
4496.845, 5301.732
4498.774, 5296.534
4500.702, 5290.492
4502.631, 5284.741
4504.559, 5280.782
4506.488, 5274.117
4508.416, 5268.457
4510.345, 5276.873
4512.273, 5283.933
4514.202, 5285.564
4516.130, 5280.335
4518.059, 5276.474
4519.987, 5281.416
4521.916, 5279.064
4523.844, 5273.935
4525.772, 5276.440
4527.701, 5273.704
4529.629, 5266.325
4531.558, 5264.299
4533.486, 5265.194
4535.415, 5267.947
4537.343, 5275.629
4539.271, 5276.141
4541.200, 5255.088
4543.128, 5249.201
4545.057, 5254.494
4546.985, 5259.155
4548.914, 5262.328
4550.842, 5263.304
4552.771, 5256.325
4554.699, 5249.961
4556.628, 5248.240
4558.556, 5248.608
4560.485, 5246.604
4562.413, 5237.703
4564.342, 5225.470
4566.270, 5216.603
4568.199, 5227.553
4570.127, 5232.772
4572.056, 5228.655
4573.984, 5229.240
4575.913, 5229.915
4577.841, 5228.261
4579.770, 5227.264
4581.698, 5227.203
4583.626, 5229.228
4585.555, 5224.806
4587.483, 5218.067
4589.412, 5219.235
4591.340, 5215.953
4593.269, 5209.595
4595.197, 5219.853
4597.125, 5223.736
4599.054, 5210.322
4600.982, 5214.322
4602.911, 5220.499
4604.839, 5219.146
4606.768, 5213.253
4608.696, 5206.102
4610.625, 5203.544
4612.553, 5195.778
4614.482, 5184.916
4616.410, 5176.675
4618.339, 5175.127
4620.267, 5180.274
4622.196, 5174.854
4624.124, 5187.211
4626.053, 5173.273
4627.981, 5173.589
4629.910, 5174.670
4631.838, 5160.082
4633.767, 5158.899
4635.695, 5165.560
4637.624, 5172.783
4639.552, 5169.813
4641.480, 5160.275
4643.409, 5161.326
4645.337, 5153.462
4647.266, 5152.425
4649.194, 5143.762
4651.123, 5149.657
4653.051, 5141.558
4654.979, 5138.228
4656.908, 5133.552
4658.836, 5121.631
4660.765, 5119.293
4662.693, 5119.113
4664.622, 5107.110
4666.550, 5114.493
4668.479, 5110.623
4670.407, 5119.666
4672.336, 5112.584
4674.264, 5112.962
4676.193, 5116.442
4678.121, 5110.273
4680.050, 5093.378
4681.978, 5093.180
4683.907, 5094.282
4685.835, 5088.388
4687.764, 5094.259
4689.692, 5100.737
4691.621, 5097.436
4693.549, 5095.459
4695.478, 5094.303
4697.406, 5093.011
4699.334, 5085.969
4701.263, 5076.677
4703.191, 5076.776
4705.120, 5068.291
4707.048, 5054.543
4708.977, 5059.067
4710.905, 5054.963
4712.833, 5039.804
4714.762, 5035.991
4716.690, 5038.290
4718.619, 5044.213
4720.547, 5038.073
4722.476, 5034.096
4724.404, 5040.720
4726.333, 5032.786
4728.261, 5019.911
4730.190, 5008.812
4732.118, 5007.949
4734.047, 5008.635
4735.975, 4999.395
4737.904, 4993.172
4739.832, 4990.102
4741.761, 4988.795
4743.689, 4987.789
4745.618, 4987.419
4747.546, 4986.993
4749.475, 4994.806
4751.403, 4991.591
4753.332, 4998.078
4755.260, 4990.063
4757.188, 4986.849
4759.117, 4984.881
4761.045, 4984.915
4762.974, 4986.912
4764.902, 4989.947
4766.831, 4986.968
4768.759, 4975.865
4770.688, 4977.080
4772.616, 4976.556
4774.544, 4964.563
4776.473, 4963.342
4778.401, 4968.423
4780.330, 4977.568
4782.258, 4972.607
4784.187, 4966.615
4786.115, 4974.507
4788.044, 4965.920
4789.972, 4955.419
4791.901, 4962.555
4793.829, 4970.450
4795.758, 4972.084
4797.686, 4957.772
4799.615, 4943.595
4801.543, 4933.205
4803.472, 4922.693
4805.400, 4918.095
4807.329, 4910.490
4809.257, 4914.564
4811.186, 4920.224
4813.114, 4922.925
4815.042, 4915.521
4816.971, 4914.162
4818.899, 4918.337
4820.828, 4919.631
4822.756, 4914.830
4824.685, 4906.117
4826.613, 4901.573
4828.542, 4897.456
4830.470, 4893.601
4832.398, 4890.666
4834.327, 4887.832
4836.255, 4885.579
4838.184, 4882.617
4840.112, 4880.054
4842.041, 4875.990
4843.969, 4874.224
4845.898, 4869.588
4847.826, 4862.523
4849.755, 4867.661
4851.683, 4869.804
4853.612, 4864.409
4855.540, 4871.570
4857.469, 4873.003
4859.397, 4863.677
4861.326, 4859.266
4863.254, 4856.313
4865.183, 4853.475
4867.111, 4854.690
4869.040, 4847.672
4870.968, 4850.789
4872.896, 4841.325
4874.825, 4849.046
4876.753, 4841.430
4878.682, 4828.910
4880.610, 4820.352
4882.539, 4818.692
4884.467, 4807.245
4886.396, 4802.145
4888.324, 4808.626
4890.252, 4805.917
4892.181, 4805.498
4894.109, 4810.554
4896.038, 4797.517
4897.966, 4788.572
4899.895, 4790.661
4901.823, 4778.895
4903.752, 4772.461
4905.680, 4778.072
4907.609, 4784.563
4909.537, 4788.333
4911.466, 4787.474
4913.394, 4781.873
4915.323, 4773.844
4917.251, 4765.485
4919.180, 4767.066
4921.108, 4762.086
4923.037, 4750.210
4924.965, 4751.111
4926.894, 4747.438
4928.822, 4737.161
4930.750, 4736.462
4932.679, 4735.021
4934.607, 4731.526
4936.536, 4732.148
4938.464, 4726.612
4940.393, 4717.099
4942.321, 4720.541
4944.250, 4715.589
4946.178, 4705.992
4948.106, 4713.479
4950.035, 4714.454
4951.963, 4706.843
4953.892, 4689.092
4955.820, 4679.741
4957.749, 4680.993
4959.677, 4696.993
4961.606, 4691.822
4963.534, 4678.265
4965.463, 4681.179
4967.391, 4676.019
4969.320, 4669.019
4971.248, 4669.112
4973.177, 4660.517
4975.105, 4657.555
4977.034, 4652.241
4978.962, 4651.050
4980.891, 4649.612
4982.819, 4650.633
4984.748, 4650.005
4986.676, 4648.665
4988.604, 4650.485
4990.533, 4636.501
4992.461, 4628.451
4994.390, 4635.110
4996.318, 4614.007
4998.247, 4606.289
5000.175, 4617.248
5002.104, 4608.131
5004.032, 4598.685
5005.960, 4593.500
5007.889, 4590.213
5009.817, 4590.559
5011.746, 4591.172
5013.674, 4580.887
5015.603, 4579.428
5017.531, 4584.398
5019.460, 4590.281
5021.388, 4582.757
5023.317, 4572.348
5025.245, 4573.005
5027.174, 4565.799
5029.102, 4557.019
5031.031, 4552.976
5032.959, 4552.555
5034.888, 4551.877
5036.816, 4548.649
5038.745, 4552.365
5040.673, 4551.350
5042.602, 4542.646
5044.530, 4534.013
5046.458, 4529.647
5048.387, 4529.357
5050.315, 4528.756
5052.244, 4523.991
5054.172, 4516.619
5056.101, 4510.885
5058.029, 4508.610
5059.958, 4507.952
5061.886, 4508.027
5063.814, 4502.582
5065.743, 4496.607
5067.671, 4494.305
5069.600, 4494.254
5071.528, 4490.170
5073.457, 4487.625
5075.385, 4484.634
5077.314, 4479.470
5079.242, 4478.100
5081.171, 4472.165
5083.099, 4470.237
5085.028, 4471.491
5086.956, 4469.081
5088.885, 4464.968
5090.813, 4459.708
5092.742, 4452.221
5094.670, 4455.929
5096.599, 4459.120
5098.527, 4450.346
5100.456, 4442.200
5102.384, 4434.854
5104.313, 4428.148
5106.241, 4424.699
5108.169, 4421.172
5110.098, 4421.785
5112.026, 4419.517
5113.955, 4422.332
5115.883, 4425.631
5117.812, 4423.330
5119.740, 4419.234
5121.668, 4416.163
5123.597, 4417.350
5125.525, 4415.854
5127.454, 4412.541
5129.382, 4407.799
5131.311, 4406.620
5133.239, 4403.107
5135.168, 4398.047
5137.096, 4394.319
5139.025, 4380.269
5140.953, 4366.846
5142.882, 4374.844
5144.810, 4387.604
5146.739, 4394.932
5148.667, 4385.972
5150.596, 4377.400
5152.524, 4367.317
5154.453, 4355.439
5156.381, 4356.833
5158.310, 4361.056
5160.238, 4362.480
5162.167, 4351.834
5164.095, 4343.182
5166.023, 4338.278
5167.952, 4335.338
5169.880, 4338.793
5171.809, 4342.213
5173.737, 4340.514
5175.666, 4345.945
5177.594, 4345.167
5179.522, 4333.702
5181.451, 4328.577
5183.379, 4316.364
5185.308, 4311.542
5187.236, 4307.525
5189.165, 4301.816
5191.093, 4304.248
5193.022, 4301.873
5194.950, 4304.397
5196.879, 4304.264
5198.807, 4298.312
5200.736, 4296.194
5202.664, 4287.889
5204.593, 4277.198
5206.521, 4277.485
5208.450, 4286.148
5210.378, 4292.298
5212.307, 4285.151
5214.235, 4264.254
5216.164, 4253.066
5218.092, 4260.053
5220.021, 4270.068
5221.949, 4256.347
5223.877, 4233.304
5225.806, 4247.583
5227.734, 4246.478
5229.663, 4240.619
5231.591, 4244.622
5233.520, 4234.744
5235.448, 4229.130
5237.376, 4231.954
5239.305, 4226.245
5241.233, 4224.758
5243.162, 4224.385
5245.090, 4214.281
5247.019, 4213.216
5248.947, 4210.138
5250.876, 4198.208
5252.804, 4195.086
5254.733, 4194.900
5256.661, 4194.604
5258.590, 4189.930
5260.518, 4194.380
5262.447, 4196.250
5264.375, 4178.943
5266.304, 4178.642
5268.232, 4180.303
5270.161, 4176.313
5272.089, 4160.247
5274.018, 4162.296
5275.946, 4173.423
5277.875, 4172.944
5279.803, 4153.603
5281.731, 4138.999
5283.660, 4142.934
5285.588, 4143.937
5287.517, 4140.447
5289.445, 4134.300
5291.374, 4128.349
5293.302, 4128.615
5295.230, 4130.790
5297.159, 4130.994
5299.087, 4130.094
5301.016, 4125.960
5302.944, 4119.672
5304.873, 4115.326
5306.801, 4116.966
5308.730, 4116.404
5310.658, 4105.206
5312.587, 4096.651
5314.515, 4092.853
5316.444, 4093.207
5318.372, 4094.994
5320.301, 4084.916
5322.229, 4070.762
5324.158, 4062.833
5326.086, 4060.250
5328.015, 4057.926
5329.943, 4054.370
5331.872, 4052.730
5333.800, 4050.879
5335.729, 4047.495
5337.657, 4041.399
5339.585, 4037.266
5341.514, 4031.678
5343.442, 4024.679
5345.371, 4019.588
5347.299, 4010.984
5349.228, 4003.210
5351.156, 4000.731
5353.084, 4001.020
5355.013, 3998.978
5356.941, 3994.117
5358.870, 3992.419
5360.798, 3992.697
5362.727, 3986.250
5364.655, 3965.553
5366.584, 3959.055
5368.512, 3964.025
5370.441, 3973.011
5372.369, 3968.986
5374.298, 3961.179
5376.226, 3955.437
5378.155, 3954.787
5380.083, 3947.454
5382.012, 3943.699
5383.940, 3942.465
5385.869, 3935.269
5387.797, 3926.888
5389.726, 3921.669
5391.654, 3921.368
5393.583, 3913.742
5395.511, 3912.489
5397.439, 3913.405
5399.368, 3906.199
5401.296, 3907.589
5403.225, 3903.595
5405.153, 3890.197
5407.082, 3878.274
5409.010, 3877.155
5410.938, 3877.672
5412.867, 3868.483
5414.795, 3872.339
5416.724, 3872.276
5418.652, 3865.977
5420.581, 3861.133
5422.509, 3852.269
5424.438, 3844.301
5426.366, 3840.566
5428.295, 3837.883
5430.223, 3831.141
5432.152, 3827.037
5434.080, 3824.358
5436.009, 3819.488
5437.937, 3824.398
5439.866, 3828.600
5441.794, 3820.204
5443.723, 3810.929
5445.651, 3802.783
5447.580, 3796.240
5449.508, 3790.445
5451.437, 3795.552
5453.365, 3801.658
5455.293, 3790.202
5457.222, 3779.337
5459.150, 3779.094
5461.079, 3770.796
5463.007, 3764.843
5464.936, 3764.130
5466.864, 3752.830
5468.792, 3751.056
5470.721, 3745.874
5472.649, 3734.713
5474.578, 3724.003
5476.506, 3723.270
5478.435, 3725.558
5480.363, 3719.457
5482.292, 3710.252
5484.220, 3720.040
5486.149, 3714.173
5488.077, 3704.233
5490.006, 3699.665
5491.934, 3704.226
5493.863, 3702.463
5495.791, 3695.516
5497.720, 3686.941
5499.648, 3677.606
5501.577, 3672.880
5503.505, 3672.588
5505.434, 3674.318
5507.362, 3671.340
5509.291, 3663.569
5511.219, 3654.033
5513.147, 3650.340
5515.076, 3645.745
5517.004, 3645.784
5518.933, 3652.326
5520.861, 3655.714
5522.790, 3646.936
5524.718, 3633.108
5526.646, 3622.296
5528.575, 3621.823
5530.503, 3621.507
5532.432, 3614.502
5534.360, 3609.460
5536.289, 3602.360
5538.217, 3590.885
5540.146, 3586.742
5542.074, 3572.534
5544.003, 3567.705
5545.931, 3566.457
5547.860, 3564.425
5549.788, 3555.168
5551.717, 3562.277
5553.645, 3568.958
5555.574, 3563.987
5557.502, 3553.594
5559.431, 3533.726
5561.359, 3520.630
5563.288, 3525.575
5565.216, 3524.581
5567.145, 3523.336
5569.073, 3522.606
5571.001, 3518.631
5572.930, 3514.893
5574.858, 3509.814
5576.787, 3502.345
5578.715, 3496.823
5580.644, 3482.848
5582.572, 3483.753
5584.500, 3479.994
5586.429, 3470.135
5588.357, 3475.512
5590.286, 3473.273
5592.214, 3462.346
5594.143, 3463.964
5596.071, 3456.984
5598.000, 3451.731
5599.928, 3448.831
5601.857, 3435.298
5603.785, 3429.932
5605.714, 3422.656
5607.642, 3412.024
5609.571, 3415.074
5611.499, 3408.080
5613.428, 3396.534
5615.356, 3387.042
5617.285, 3387.758
5619.213, 3388.154
5621.142, 3384.085
5623.070, 3377.354
5624.999, 3376.711
5626.927, 3369.457
5628.855, 3371.344
5630.784, 3358.585
5632.712, 3355.042
5634.641, 3352.024
5636.569, 3344.831
5638.498, 3332.941
5640.426, 3324.255
5642.354, 3324.602
5644.283, 3326.124
5646.211, 3322.673
5648.140, 3312.548
5650.068, 3304.222
5651.997, 3300.644
5653.925, 3302.231
5655.854, 3308.100
5657.782, 3299.663
5659.711, 3290.977
5661.639, 3290.960
5663.568, 3280.238
5665.496, 3279.131
5667.425, 3283.758
5669.353, 3287.528
5671.282, 3283.596
5673.210, 3273.321
5675.139, 3260.180
5677.067, 3248.521
5678.996, 3251.949
5680.924, 3245.309
5682.853, 3239.422
5684.781, 3238.928
5686.709, 3229.833
5688.638, 3229.332
5690.566, 3229.466
5692.495, 3223.051
5694.423, 3203.452
5696.352, 3198.707
5698.280, 3198.729
5700.208, 3197.698
5702.137, 3198.032
5704.065, 3197.232
5705.994, 3187.644
5707.922, 3173.745
5709.851, 3172.126
5711.779, 3165.607
5713.708, 3161.676
5715.636, 3159.227
5717.565, 3151.841
5719.493, 3146.268
5721.422, 3140.737
5723.350, 3138.419
5725.279, 3143.106
5727.207, 3151.452
5729.136, 3145.255
5731.064, 3129.575
5732.993, 3114.504
5734.921, 3108.649
5736.850, 3112.368
5738.778, 3107.717
5740.707, 3089.123
5742.635, 3102.430
5744.563, 3089.221
5746.492, 3072.379
5748.420, 3066.923
5750.349, 3068.684
5752.277, 3062.806
5754.206, 3054.805
5756.134, 3048.218
5758.063, 3043.967
5759.991, 3045.728
5761.919, 3042.786
5763.848, 3034.155
5765.776, 3023.573
5767.705, 3015.638
5769.633, 3017.573
5771.562, 3018.278
5773.490, 3008.278
5775.419, 2995.969
5777.347, 2995.044
5779.276, 2998.636
5781.204, 2999.526
5783.133, 2989.544
5785.061, 2981.437
5786.990, 2972.289
5788.918, 2965.430
5790.847, 2972.875
5792.775, 2968.041
5794.704, 2964.516
5796.632, 2960.565
5798.561, 2950.391
5800.489, 2951.993
5802.417, 2954.230
5804.346, 2944.426
5806.274, 2942.193
5808.203, 2936.012
5810.131, 2927.172
5812.060, 2922.853
5813.988, 2913.562
5815.917, 2908.294
5817.845, 2916.231
5819.773, 2914.248
5821.702, 2907.313
5823.630, 2907.786
5825.559, 2891.081
5827.487, 2882.116
5829.416, 2873.246
5831.344, 2859.888
5833.273, 2857.701
5835.201, 2850.058
5837.130, 2849.608
5839.058, 2856.940
5840.987, 2863.954
5842.915, 2855.397
5844.844, 2843.727
5846.772, 2830.165
5848.701, 2815.600
5850.629, 2815.193
5852.558, 2820.034
5854.486, 2813.286
5856.415, 2801.848
5858.343, 2813.809
5860.271, 2794.609
5862.200, 2782.023
5864.128, 2777.642
5866.057, 2772.073
5867.985, 2775.013
5869.914, 2772.377
5871.842, 2774.465
5873.771, 2781.431
5875.699, 2777.284
5877.627, 2756.336
5879.556, 2748.931
5881.484, 2753.255
5883.413, 2757.127
5885.341, 2758.557
5887.270, 2752.412
5889.198, 2740.750
5891.127, 2726.875
5893.055, 2714.320
5894.984, 2716.846
5896.912, 2712.485
5898.841, 2704.148
5900.769, 2700.023
5902.698, 2694.645
5904.626, 2687.775
5906.555, 2686.393
5908.483, 2688.330
5910.412, 2684.406
5912.340, 2680.513
5914.269, 2682.002
5916.197, 2680.154
5918.125, 2670.942
5920.054, 2668.093
5921.982, 2660.028
5923.911, 2650.400
5925.839, 2644.792
5927.768, 2646.341
5929.696, 2643.658
5931.625, 2640.651
5933.553, 2635.397
5935.481, 2629.291
5937.410, 2631.805
5939.338, 2614.580
5941.267, 2619.460
5943.195, 2620.182
5945.124, 2616.962
5947.052, 2598.008
5948.981, 2599.371
5950.909, 2592.593
5952.838, 2585.480
5954.766, 2589.706
5956.695, 2573.039
5958.623, 2577.084
5960.552, 2572.861
5962.480, 2572.423
5964.409, 2563.789
5966.337, 2557.689
5968.266, 2559.782
5970.194, 2557.341
5972.123, 2547.763
5974.051, 2547.567
5975.979, 2530.614
5977.908, 2528.362
5979.836, 2532.457
5981.765, 2523.292
5983.693, 2523.245
5985.622, 2519.724
5987.550, 2500.428
5989.479, 2508.567
5991.407, 2504.843
5993.335, 2488.936
5995.264, 2496.135
5997.192, 2481.907
5999.121, 2475.325
6001.049, 2474.503
6002.978, 2467.677
6004.906, 2470.316
6006.835, 2463.836
6008.763, 2456.544
6010.692, 2452.805
6012.620, 2438.997
6014.549, 2443.870
6016.477, 2435.983
6018.406, 2434.438
6020.334, 2434.332
6022.263, 2423.214
6024.191, 2423.755
6026.120, 2406.217
6028.048, 2403.807
6029.977, 2399.765
6031.905, 2405.394
6033.833, 2387.947
6035.762, 2385.113
6037.690, 2388.507
6039.619, 2383.188
6041.547, 2381.515
6043.476, 2369.059
6045.404, 2366.732
6047.333, 2361.611
6049.261, 2366.137
6051.189, 2363.050
6053.118, 2350.777
6055.046, 2345.524
6056.975, 2345.638
6058.903, 2335.440
6060.832, 2327.910
6062.760, 2326.237
6064.689, 2320.639
6066.617, 2315.970
6068.546, 2310.646
6070.474, 2304.674
6072.403, 2298.565
6074.331, 2288.074
6076.260, 2282.589
6078.188, 2275.094
6080.117, 2276.762
6082.045, 2266.015
6083.974, 2266.673
6085.902, 2272.108
6087.831, 2259.523
6089.759, 2258.257
6091.688, 2254.558
6093.616, 2256.706
6095.544, 2258.136
6097.473, 2233.223
6099.401, 2235.955
6101.330, 2231.800
6103.258, 2225.149
6105.187, 2222.314
6107.115, 2223.086
6109.043, 2215.238
6110.972, 2205.972
6112.900, 2206.872
6114.829, 2207.682
6116.757, 2193.728
6118.686, 2190.972
6120.614, 2181.485
6122.543, 2178.007
6124.471, 2176.385
6126.400, 2169.942
6128.328, 2167.117
6130.257, 2166.440
6132.185, 2159.822
6134.114, 2167.400
6136.042, 2159.709
6137.971, 2162.532
6139.899, 2150.032
6141.828, 2154.084
6143.756, 2149.595
6145.685, 2140.016
6147.613, 2131.053
6149.542, 2120.048
6151.470, 2118.067
6153.398, 2111.286
6155.327, 2119.740
6157.255, 2107.216
6159.184, 2101.821
6161.112, 2106.274
6163.041, 2093.254
6164.969, 2077.004
6166.897, 2071.939
6168.826, 2076.723
6170.754, 2072.701
6172.683, 2066.462
6174.611, 2061.309
6176.540, 2058.244
6178.468, 2056.707
6180.397, 2051.108
6182.325, 2048.598
6184.254, 2059.262
6186.182, 2058.966
6188.111, 2041.881
6190.039, 2042.874
6191.968, 2023.029
6193.896, 2018.659
6195.825, 2026.225
6197.753, 2027.178
6199.682, 2009.170
6201.610, 2002.510
6203.539, 1998.279
6205.467, 1997.656
6207.396, 1993.670
6209.324, 1992.811
6211.252, 1991.419
6213.181, 1989.141
6215.109, 1986.681
6217.038, 1980.839
6218.966, 1978.290
6220.895, 1973.759
6222.823, 1969.460
6224.751, 1964.851
6226.680, 1958.051
6228.608, 1952.610
6230.537, 1949.829
6232.465, 1949.983
6234.394, 1940.362
6236.322, 1930.091
6238.251, 1934.465
6240.179, 1938.969
6242.108, 1931.602
6244.036, 1918.023
6245.965, 1916.164
6247.893, 1910.356
6249.822, 1901.269
6251.750, 1900.153
6253.679, 1905.923
6255.607, 1890.648
6257.536, 1889.519
6259.464, 1896.293
6261.393, 1905.452
6263.321, 1906.233
6265.250, 1891.977
6267.178, 1873.789
6269.106, 1870.535
6271.035, 1864.379
6272.963, 1858.485
6274.892, 1858.029
6276.820, 1850.654
6278.749, 1843.328
6280.677, 1840.405
6282.605, 1838.200
6284.534, 1834.797
6286.462, 1834.555
6288.391, 1838.474
6290.319, 1825.150
6292.248, 1831.199
6294.176, 1827.017
6296.105, 1820.367
6298.033, 1816.498
6299.962, 1808.460
6301.890, 1805.887
6303.819, 1799.655
6305.747, 1793.260
6307.676, 1789.574
6309.604, 1787.438
6311.533, 1783.247
6313.461, 1780.295
6315.390, 1777.773
6317.318, 1773.874
6319.247, 1771.321
6321.175, 1768.550
6323.104, 1766.116
6325.032, 1762.799
6326.960, 1760.295
6328.889, 1755.952
6330.817, 1749.161
6332.746, 1745.059
6334.674, 1742.908
6336.603, 1742.445
6338.531, 1729.912
6340.459, 1717.863
6342.388, 1720.515
6344.316, 1726.026
6346.245, 1720.075
6348.173, 1710.581
6350.102, 1708.829
6352.030, 1703.895
6353.959, 1702.092
6355.887, 1700.140
6357.816, 1694.166
6359.744, 1687.357
6361.673, 1688.900
6363.601, 1678.268
6365.530, 1681.073
6367.458, 1684.264
6369.387, 1676.934
6371.315, 1664.106
6373.244, 1657.585
6375.172, 1661.161
6377.101, 1659.121
6379.029, 1654.764
6380.958, 1649.271
6382.886, 1642.493
6384.814, 1638.938
6386.743, 1638.640
6388.671, 1629.822
6390.600, 1623.915
6392.528, 1626.759
6394.457, 1630.124
6396.385, 1622.432
6398.313, 1623.423
6400.242, 1610.469
6402.170, 1615.134
6404.099, 1612.783
6406.027, 1604.781
6407.956, 1599.928
6409.884, 1601.843
6411.813, 1599.867
6413.741, 1580.841
6415.670, 1582.870
6417.598, 1582.986
6419.527, 1575.165
6421.455, 1576.234
6423.384, 1575.805
6425.312, 1571.832
6427.241, 1566.913
6429.169, 1569.064
6431.098, 1566.763
6433.026, 1556.417
6434.955, 1550.478
6436.883, 1555.300
6438.812, 1548.152
6440.740, 1544.452
6442.668, 1537.163
6444.597, 1533.509
6446.525, 1534.098
6448.454, 1524.585
6450.382, 1530.330
6452.311, 1530.837
6454.239, 1529.269
6456.167, 1520.918
6458.096, 1509.611
6460.024, 1503.275
6461.953, 1506.168
6463.881, 1504.073
6465.810, 1499.720
6467.738, 1496.482
6469.667, 1494.415
6471.595, 1491.147
6473.524, 1488.421
6475.452, 1485.466
6477.381, 1481.444
6479.309, 1476.864
6481.238, 1471.330
6483.166, 1474.256
6485.095, 1467.137
6487.023, 1465.528
6488.952, 1459.975
6490.880, 1460.263
6492.809, 1461.049
6494.737, 1460.657
6496.666, 1453.733
6498.594, 1453.372
6500.522, 1457.040
6502.451, 1443.583
6504.379, 1432.455
6506.308, 1429.987
6508.236, 1432.459
6510.165, 1427.010
6512.093, 1422.988
6514.021, 1424.848
6515.950, 1424.625
6517.878, 1418.060
6519.807, 1416.015
6521.735, 1420.732
6523.664, 1411.334
6525.592, 1411.964
6527.521, 1395.213
6529.449, 1403.893
6531.378, 1396.631
6533.306, 1387.170
6535.235, 1388.914
6537.163, 1384.151
6539.092, 1374.926
6541.020, 1374.313
6542.949, 1374.248
6544.877, 1363.696
6546.806, 1370.596
6548.734, 1368.863
6550.663, 1360.620
6552.591, 1365.444
6554.520, 1362.103
6556.448, 1354.917
6558.376, 1358.321
6560.305, 1352.258
6562.233, 1359.048
6564.162, 1346.925
6566.090, 1349.583
6568.019, 1350.062
6569.947, 1346.771
6571.875, 1342.297
6573.804, 1338.382
6575.732, 1336.462
6577.661, 1330.786
6579.589, 1327.888
6581.518, 1320.674
6583.446, 1319.814
6585.375, 1314.757
6587.303, 1309.360
6589.232, 1309.151
6591.160, 1305.979
6593.089, 1302.998
6595.017, 1290.827
6596.946, 1297.537
6598.874, 1292.678
6600.803, 1289.630
6602.731, 1294.446
6604.660, 1291.081
6606.588, 1277.058
6608.517, 1272.261
6610.445, 1276.738
6612.374, 1269.465
6614.302, 1270.909
6616.230, 1272.751
6618.159, 1273.158
6620.087, 1273.823
6622.016, 1267.905
6623.944, 1263.387
6625.873, 1262.780
6627.801, 1252.888
6629.729, 1252.047
##END=



