##NAMES=Arhbarite
##RRUFFID=R060730
##IDEAL CHEMISTRY=Cu_2_Mg(AsO_4_)(OH)_3_
##LOCALITY=Guanaco, Chile
##OWNER=RRUFF
##SOURCE=Bob Jenkins
##DESCRIPTION=Dark blue spherical aggregates associated with enargite. The bright, darker, green phase is conichalcite, the light green is unidentified.
##STATUS=The identification of this mineral is not yet confirmed
##URL=https://www.rruff.net/odr/rruff_sample/R060730
##FILETYPE=Raman Processed
##RAMAN WAVELENGTH=785

136.9220, 515.1090
138.8510, 520.6640
140.7790, 549.9630
142.7080, 600.3280
144.6360, 655.6290
146.5650, 721.5600
148.4930, 765.1650
150.4220, 771.7360
152.3500, 757.1170
154.2790, 716.3040
156.2070, 660.9480
158.1350, 618.1580
160.0640, 586.8000
161.9920, 571.7310
163.9210, 579.8630
165.8490, 595.1300
167.7780, 616.9110
169.7060, 638.7190
171.6350, 654.7570
173.5630, 664.2070
175.4920, 660.8150
177.4200, 641.5100
179.3490, 617.7680
181.2770, 586.6780
183.2060, 558.7130
185.1340, 541.6020
187.0620, 532.8890
188.9910, 524.1200
190.9190, 514.8570
192.8480, 511.4760
194.7760, 522.0130
196.7050, 528.2530
198.6330, 518.3210
200.5620, 504.4060
202.4900, 502.2020
204.4190, 510.1840
206.3470, 518.4240
208.2760, 525.6290
210.2040, 535.9070
212.1330, 552.8350
214.0610, 570.4500
215.9900, 588.3610
217.9180, 603.8650
219.8460, 610.5000
221.7750, 608.7350
223.7030, 603.6830
225.6320, 592.1860
227.5600, 585.1740
229.4890, 589.5960
231.4170, 595.8960
233.3460, 595.7730
235.2740, 590.6800
237.2030, 585.9470
239.1310, 581.5500
241.0600, 577.8650
242.9880, 574.7040
244.9170, 572.7470
246.8450, 572.2680
248.7730, 573.0830
250.7020, 575.3860
252.6300, 578.8910
254.5590, 583.0380
256.4870, 588.7040
258.4160, 590.7580
260.3440, 587.1910
262.2730, 580.7350
264.2010, 571.7940
266.1300, 560.8130
268.0580, 546.3530
269.9870, 529.9400
271.9150, 519.0560
273.8440, 515.4880
275.7720, 513.3280
277.7000, 511.0400
279.6290, 510.1710
281.5570, 513.0460
283.4860, 516.7930
285.4140, 517.3100
287.3430, 515.0950
289.2710, 511.4170
291.2000, 505.1830
293.1280, 501.5600
295.0570, 502.7550
296.9850, 505.1200
298.9140, 506.7750
300.8420, 509.0140
302.7710, 515.2380
304.6990, 523.7350
306.6270, 526.9960
308.5560, 522.6710
310.4840, 520.1660
312.4130, 520.0830
314.3410, 523.4060
316.2700, 533.1980
318.1980, 544.6450
320.1270, 551.5830
322.0550, 555.8760
323.9840, 563.3320
325.9120, 575.2500
327.8410, 583.9070
329.7690, 586.6770
331.6980, 587.8190
333.6260, 589.6020
335.5550, 588.8720
337.4830, 579.4060
339.4110, 566.6810
341.3400, 561.1930
343.2680, 563.2090
345.1970, 570.2320
347.1250, 588.4570
349.0540, 600.4220
350.9820, 593.6880
352.9110, 591.4690
354.8390, 611.3300
356.7680, 640.8770
358.6960, 665.7400
360.6250, 685.4550
362.5530, 697.0830
364.4820, 700.3980
366.4100, 695.0160
368.3380, 677.2280
370.2670, 656.5420
372.1950, 634.4750
374.1240, 611.9320
376.0520, 586.1380
377.9810, 561.8670
379.9090, 549.0280
381.8380, 548.1400
383.7660, 550.6640
385.6950, 558.9650
387.6230, 565.3630
389.5520, 565.0050
391.4800, 567.6480
393.4090, 578.6160
395.3370, 594.3950
397.2650, 615.7460
399.1940, 638.2180
401.1220, 646.3860
403.0510, 636.3340
404.9790, 631.0280
406.9080, 637.3460
408.8360, 640.3610
410.7650, 638.2590
412.6930, 632.0750
414.6220, 618.8190
416.5500, 604.4340
418.4780, 596.2200
420.4070, 592.4950
422.3360, 585.1040
424.2640, 570.4890
426.1920, 566.3840
428.1210, 579.8730
430.0490, 593.7610
431.9780, 603.1290
433.9060, 615.2280
435.8350, 637.1450
437.7630, 661.2450
439.6920, 679.4520
441.6200, 693.2550
443.5490, 707.5360
445.4770, 721.6230
447.4050, 740.0500
449.3340, 761.2670
451.2630, 789.5130
453.1910, 829.6740
455.1190, 871.1770
457.0480, 915.5910
458.9760, 953.5160
460.9050, 979.6100
462.8330, 992.9650
464.7620, 990.9470
466.6900, 973.2060
468.6190, 943.3270
470.5470, 889.5620
472.4760, 844.2320
474.4040, 809.6390
476.3330, 780.1560
478.2610, 753.9950
480.1900, 732.7760
482.1180, 717.7780
484.0460, 708.3280
485.9750, 706.4130
487.9030, 710.1460
489.8320, 707.8160
491.7600, 696.3140
493.6890, 691.1690
495.6170, 696.6220
497.5460, 699.1680
499.4740, 697.4200
501.4030, 692.2310
503.3310, 679.3780
505.2600, 668.4670
507.1880, 666.7780
509.1160, 671.1570
511.0450, 679.2880
512.9730, 690.0200
514.9020, 692.5670
516.8300, 685.4120
518.7590, 674.7100
520.6870, 659.4510
522.6160, 643.3140
524.5440, 627.9810
526.4730, 609.9640
528.4010, 583.2980
530.3300, 558.8440
532.2580, 544.9350
534.1870, 536.9720
536.1150, 528.6890
538.0440, 520.5230
539.9720, 515.6660
541.9000, 515.4220
543.8290, 509.5630
545.7570, 495.6200
547.6860, 484.2740
549.6140, 477.4630
551.5430, 472.1360
553.4710, 467.1350
555.4000, 463.4840
557.3280, 463.7670
559.2570, 463.8440
561.1850, 458.1790
563.1140, 449.8380
565.0420, 446.1630
566.9710, 446.9750
568.8990, 448.1330
570.8270, 450.0540
572.7560, 450.0360
574.6840, 448.0230
576.6130, 443.4130
578.5410, 432.7180
580.4700, 426.7060
582.3980, 434.0260
584.3270, 442.0890
586.2550, 442.9390
588.1840, 441.2900
590.1120, 442.4400
592.0410, 444.8460
593.9690, 445.0770
595.8980, 443.1270
597.8260, 438.3940
599.7550, 430.3560
601.6830, 425.0900
603.6110, 423.2190
605.5400, 422.7640
607.4680, 423.5140
609.3970, 425.4120
611.3250, 430.5930
613.2540, 433.7030
615.1820, 429.2230
617.1110, 424.8460
619.0390, 429.1960
620.9680, 436.1340
622.8960, 434.2630
624.8250, 426.8210
626.7530, 427.2920
628.6820, 435.4880
630.6100, 437.5280
632.5380, 432.6750
634.4670, 430.6770
636.3950, 433.2350
638.3240, 435.7020
640.2520, 437.2210
642.1810, 437.9610
644.1090, 437.4750
646.0380, 436.9150
647.9660, 435.8370
649.8950, 435.9790
651.8230, 441.2090
653.7520, 446.6270
655.6800, 442.8400
657.6090, 434.5760
659.5370, 436.5700
661.4650, 446.7950
663.3940, 447.9650
665.3220, 440.3100
667.2510, 438.4770
669.1790, 444.3270
671.1080, 449.5780
673.0360, 453.6140
674.9650, 454.2720
676.8930, 448.2550
678.8220, 443.8690
680.7500, 447.2090
682.6790, 448.3530
684.6070, 437.3410
686.5360, 427.9080
688.4640, 436.0330
690.3920, 448.1820
692.3210, 444.1150
694.2490, 432.0710
696.1780, 430.6900
698.1060, 437.3490
700.0350, 442.0460
701.9630, 444.6690
703.8920, 443.8430
705.8200, 439.3750
707.7490, 436.5560
709.6770, 436.1110
711.6060, 436.6580
713.5340, 438.1250
715.4630, 440.0870
717.3910, 444.3380
719.3190, 446.1070
721.2480, 444.1630
723.1760, 439.3670
725.1050, 425.3150
727.0330, 416.5820
728.9620, 430.9640
730.8900, 449.4080
732.8190, 450.5780
734.7470, 442.8680
736.6760, 438.3660
738.6040, 435.8690
740.5320, 431.5820
742.4610, 426.8010
744.3900, 425.8760
746.3180, 429.0140
748.2460, 439.5220
750.1750, 458.1330
752.1030, 463.2970
754.0320, 448.5310
755.9600, 444.0260
757.8890, 460.5960
759.8170, 470.1750
761.7460, 461.6850
763.6740, 456.4680
765.6030, 460.3250
767.5310, 464.4560
769.4590, 466.1290
771.3880, 467.2460
773.3170, 467.3570
775.2450, 468.9300
777.1730, 475.4920
779.1020, 482.3840
781.0300, 485.3000
782.9590, 486.2080
784.8870, 486.1650
786.8160, 486.6160
788.7440, 488.7360
790.6730, 493.4700
792.6010, 503.4970
794.5300, 517.8260
796.4580, 534.5040
798.3860, 552.5730
800.3150, 563.4170
802.2440, 566.6970
804.1720, 578.5510
806.1000, 598.9520
808.0290, 634.8080
809.9570, 694.1490
811.8860, 743.7850
813.8140, 778.7120
815.7430, 809.8110
817.6710, 841.1000
819.6000, 862.6980
821.5280, 869.5100
823.4570, 873.6080
825.3850, 868.9350
827.3130, 875.6310
829.2420, 898.0620
831.1700, 935.7590
833.0990, 991.4810
835.0270, 1058.343
836.9560, 1144.476
838.8840, 1225.492
840.8130, 1298.453
842.7410, 1344.774
844.6700, 1351.189
846.5980, 1322.336
848.5270, 1245.814
850.4550, 1151.594
852.3840, 1063.915
854.3120, 985.6610
856.2400, 922.8980
858.1690, 871.3170
860.0970, 822.5040
862.0260, 778.8080
863.9540, 749.0550
865.8830, 729.1370
867.8110, 702.8910
869.7400, 672.5090
871.6680, 651.1950
873.5970, 638.1050
875.5250, 622.1940
877.4540, 603.4370
879.3820, 590.2230
881.3110, 583.4180
883.2390, 568.8310
885.1670, 543.5950
887.0960, 529.9250
889.0240, 531.1160
890.9530, 529.2730
892.8810, 523.9330
894.8100, 516.8000
896.7380, 506.5090
898.6670, 499.8280
900.5950, 498.1810
902.5240, 496.6260
904.4520, 495.5590
906.3810, 491.5120
908.3090, 482.8260
910.2380, 475.4630
912.1660, 470.8410
914.0940, 465.4630
916.0230, 456.8420
917.9510, 453.7070
919.8800, 461.0400
921.8080, 464.4100
923.7370, 457.9090
925.6650, 453.3860
927.5940, 454.6240
929.5220, 457.5460
931.4510, 462.0630
933.3790, 464.9590
935.3080, 463.9420
937.2360, 464.3780
939.1650, 470.6540
941.0930, 473.0970
943.0210, 465.4540
944.9500, 458.6130
946.8780, 458.0380
948.8070, 456.8490
950.7350, 450.1660
952.6640, 445.8750
954.5920, 449.5580
956.5210, 452.4850
958.4490, 448.2460
960.3780, 446.5340
962.3060, 453.1110
964.2350, 461.0750
966.1630, 469.8940
968.0920, 475.6440
970.0200, 477.0530
971.9480, 474.3640
973.8770, 464.3260
975.8050, 455.0710
977.7340, 449.0910
979.6620, 446.7010
981.5910, 450.8640
983.5190, 454.6120
985.4480, 457.9670
987.3760, 455.1440
989.3050, 432.5030
991.2330, 418.5450
993.1620, 435.3780
995.0900, 452.4900
997.0190, 454.9560
998.9470, 454.3400
1000.876, 454.8360
1002.804, 455.4450
1004.732, 456.3220
1006.661, 456.2350
1008.589, 454.6180
1010.518, 451.9170
1012.446, 447.0110
1014.375, 443.1110
1016.303, 440.5500
1018.232, 440.8590
1020.160, 447.5800
1022.089, 452.7030
1024.017, 452.0440
1025.946, 451.2240
1027.874, 452.2100
1029.802, 453.1380
1031.731, 452.7070
1033.659, 453.3150
1035.588, 457.0190
1037.516, 459.5920
1039.445, 459.9590
1041.373, 459.1750
1043.302, 456.6250
1045.230, 454.4330
1047.159, 453.2890
1049.087, 451.8150
1051.016, 449.5370
1052.944, 447.3070
1054.873, 444.4270
1056.801, 443.9780
1058.729, 448.6050
1060.658, 449.4650
1062.586, 444.3930
1064.515, 438.6420
1066.443, 430.5070
1068.372, 431.8260
1070.300, 447.0290
1072.229, 454.4390
1074.157, 451.0000
1076.086, 449.0330
1078.014, 449.7170
1079.943, 446.7510
1081.871, 439.4360
1083.800, 438.2020
1085.728, 443.4010
1087.657, 448.8880
1089.585, 454.2320
1091.514, 456.9190
1093.442, 457.1110
1095.370, 455.7360
1097.299, 453.5430
1099.227, 454.6140
1101.156, 457.5430
1103.084, 456.5790
1105.013, 453.8710
1106.941, 456.3710
1108.870, 460.3530
1110.798, 456.5570
1112.727, 450.6560
1114.655, 453.5910
1116.584, 457.6770
1118.512, 452.9420
1120.441, 445.0960
1122.369, 436.7990
1124.297, 431.9360
1126.226, 435.4350
1128.154, 441.4930
1130.083, 449.2890
1132.011, 453.3880
1133.940, 449.6630
1135.868, 443.0730
1137.797, 432.7570
1139.725, 426.0240
1141.654, 425.2040
1143.582, 429.6100
1145.511, 445.1930
1147.439, 450.6190
1149.368, 435.1100
1151.296, 426.6870
1153.224, 431.5800
1155.153, 436.1920
1157.081, 439.6010
1159.010, 442.9530
1160.938, 447.1200
1162.867, 445.0660
1164.795, 436.4660
1166.724, 431.8610
1168.652, 431.0280
1170.581, 432.9050
1172.509, 436.0270
1174.438, 432.3940
1176.366, 425.5980
1178.295, 424.3860
1180.223, 427.1000
1182.151, 432.8890
1184.080, 438.7330
1186.008, 441.5430
1187.937, 441.8660
1189.865, 436.9120
1191.794, 434.3660
1193.722, 440.3890
1195.651, 447.1740
1197.579, 452.8660
1199.508, 454.4120
1201.436, 449.1070
1203.365, 444.6270
1205.293, 442.4490
1207.222, 444.5300
1209.150, 452.3510
1211.078, 454.9170
1213.007, 450.3280
1214.935, 451.7700
1216.864, 459.9370
1218.792, 467.0140
1220.721, 472.4760
1222.649, 473.2340
1224.578, 470.1840
1226.506, 463.9760
1228.435, 457.9740
1230.363, 460.1770
1232.292, 465.1450
1234.220, 466.3950
1236.149, 466.2460
1238.077, 467.2550
1240.005, 466.8850
1241.934, 462.6530
1243.862, 458.3390
1245.791, 454.9920
1247.719, 451.6810
1249.648, 446.3070
1251.576, 450.4850
1253.505, 468.0950
1255.433, 474.5050
1257.362, 467.2990
1259.290, 458.9840
1261.219, 451.5180
1263.147, 454.2080
1265.076, 463.5870
1267.004, 467.2960
1268.932, 467.3070
1270.861, 466.3750
1272.789, 465.2550
1274.718, 466.4410
1276.646, 465.7470
1278.575, 456.7150
1280.503, 449.4580
1282.432, 448.4330
1284.360, 451.9600
1286.289, 463.4230
1288.217, 469.9430
1290.146, 468.4570
1292.074, 469.3310
1294.003, 473.5760
1295.931, 472.8100
1297.859, 467.8370
1299.788, 468.0700
1301.716, 471.8350
1303.645, 475.1640
1305.573, 476.1120
1307.502, 468.1050
1309.430, 460.6360
1311.359, 466.5190
1313.287, 471.8130
1315.216, 466.1850
1317.144, 460.0870
1319.073, 456.4610
1321.001, 455.0100
1322.930, 457.2010
1324.858, 456.4780
1326.786, 451.4220
1328.715, 456.1810
1330.643, 469.4640
1332.572, 476.7520
1334.500, 478.4570
1336.429, 472.6600
1338.357, 466.4450
1340.286, 471.3720
1342.214, 477.2480
1344.143, 476.2570
1346.071, 472.6330
1348.000, 465.1540
1349.928, 461.8560
1351.857, 468.0170
1353.785, 471.1370
1355.714, 468.5030
1357.642, 471.3320
1359.570, 479.3690
1361.499, 481.0090
1363.427, 477.9530
1365.356, 475.5220
1367.284, 472.8410
1369.213, 466.5420
1371.141, 462.5060
1373.070, 466.2810
1374.998, 471.2100
1376.927, 476.3820
1378.855, 476.0990
1380.784, 466.7290
1382.712, 459.7870
1384.641, 455.9750
1386.569, 458.8900
1388.497, 466.5540
1390.426, 462.1200
1392.354, 454.8880
1394.283, 471.3110
1396.211, 487.5400
1398.140, 474.3530
1400.068, 461.8420
1401.997, 466.2940
1403.925, 467.9050
1405.854, 459.8510
1407.782, 454.4970
1409.711, 453.7140
1411.639, 454.2600
1413.568, 455.9650
1415.496, 459.5280
1417.424, 463.2450
1419.353, 464.8220
1421.281, 462.7450
1423.210, 448.5350
1425.138, 442.1440
1427.067, 455.8990
1428.995, 468.3480
1430.924, 475.5950
1432.852, 468.1390
1434.781, 445.5570
1436.709, 440.9510
1438.638, 449.6060
1440.566, 451.4710
1442.495, 450.5890
1444.423, 453.6960
1446.351, 456.5380
1448.280, 455.1290
1450.208, 453.8080
1452.137, 453.5190
1454.065, 455.1940
1455.994, 459.0780
1457.922, 460.0950
1459.851, 458.6640
1461.779, 459.9610
1463.708, 461.8150
1465.636, 458.9700
1467.565, 455.6550
1469.493, 455.6510
1471.422, 456.7950
1473.350, 458.7070
1475.278, 461.0340
1477.207, 464.2810
1479.135, 457.7540
1481.064, 443.4590
1482.992, 437.2360
1484.921, 436.7990
1486.849, 439.4400
1488.778, 441.6440
1490.706, 437.3250
1492.635, 436.4650
1494.563, 448.5480
1496.492, 452.0760
1498.420, 444.0380
1500.349, 438.4060
1502.277, 436.3920
1504.205, 443.4810
1506.134, 452.0860
1508.062, 447.4110
1509.991, 442.9280
1511.919, 452.6560
1513.848, 458.3680
1515.776, 450.9040
1517.705, 446.0280
1519.633, 444.4620
1521.562, 444.4160
1523.490, 444.7740
1525.419, 439.7380
1527.347, 436.1160
1529.276, 443.9770
1531.204, 451.4620
1533.132, 454.3220
1535.061, 450.8610
1536.989, 437.2050
1538.918, 430.9010
1540.846, 431.5720
1542.775, 437.8730
1544.703, 444.8940
1546.632, 444.7250
1548.560, 441.3330
1550.489, 434.5800
1552.417, 431.5940
1554.346, 437.4530
1556.274, 435.4190
1558.203, 425.4740
1560.131, 431.8720
1562.059, 444.3340
1563.988, 437.2550
1565.916, 428.2700
1567.845, 429.7160
1569.773, 433.6760
1571.702, 438.2700
1573.630, 443.0480
1575.559, 447.9040
1577.487, 440.1760
1579.416, 425.7970
1581.344, 414.6450
1583.273, 411.7120
1585.201, 424.3200
1587.130, 435.3000
1589.058, 439.7640
1590.986, 438.0350
1592.915, 430.4400
1594.843, 422.1150
1596.772, 416.9750
1598.700, 429.7790
1600.629, 440.3620
1602.557, 431.8630
1604.486, 424.8780
1606.414, 424.5450
1608.343, 429.2560
1610.271, 436.9360
1612.200, 428.6440
1614.128, 416.1530
1616.057, 425.0930
1617.985, 429.0620
1619.913, 406.1380
1621.842, 402.1290
1623.770, 426.7110
1625.699, 427.7310
1627.627, 410.5580
1629.556, 412.5010
1631.484, 419.5830
1633.413, 412.9660
1635.341, 409.5020
1637.270, 416.8250
1639.198, 418.7580
1641.127, 414.3920
1643.055, 421.3530
1644.984, 431.6780
1646.912, 426.0400
1648.840, 417.3080
1650.769, 414.5440
1652.697, 413.2710
1654.626, 412.6460
1656.554, 415.9750
1658.483, 420.3090
1660.411, 409.9110
1662.340, 397.6970
1664.268, 398.2700
1666.197, 403.7540
1668.125, 415.6060
1670.054, 414.4500
1671.982, 400.8600
1673.911, 393.2050
1675.839, 392.5420
1677.767, 404.3230
1679.696, 414.1830
1681.624, 412.5790
1683.553, 407.6740
1685.481, 400.1080
1687.410, 397.5170
1689.338, 399.4450
1691.267, 409.1180
1693.195, 414.0930
1695.124, 396.7760
1697.052, 389.8150
1698.981, 404.8350
1700.909, 406.4900
1702.838, 399.1930
1704.766, 403.7000
1706.694, 408.9530
1708.623, 403.3190
1710.551, 399.4170
1712.480, 403.5980
1714.408, 401.5870
1716.337, 394.6550
1718.265, 387.7410
1720.194, 385.1490
1722.122, 392.7220
1724.051, 401.3830
1725.979, 410.7000
1727.908, 405.1330
1729.836, 388.9160
1731.765, 393.6370
1733.693, 402.8210
1735.621, 399.3320
1737.550, 394.9160
1739.478, 393.3980
1741.407, 391.3550
1743.335, 389.3890
1745.264, 396.3000
1747.192, 399.8660
1749.121, 382.4100
1751.049, 373.1910
1752.978, 382.3840
1754.906, 386.1460
1756.835, 385.0600
1758.763, 389.5480
1760.692, 392.1330
1762.620, 383.0380
1764.548, 379.4900
1766.477, 386.1260
1768.405, 388.9610
1770.334, 387.6060
1772.262, 378.2400
1774.191, 373.5660
1776.119, 387.5520
1778.048, 390.4130
1779.976, 377.4020
1781.905, 378.1890
1783.833, 385.8990
1785.762, 385.4130
1787.690, 381.7620
1789.619, 376.8620
1791.547, 371.9410
1793.475, 368.3300
1795.404, 379.4000
1797.332, 392.7910
1799.261, 390.9070
1801.189, 384.9010
1803.118, 377.2420
1805.046, 374.0190
1806.975, 374.8090
1808.903, 375.0260
1810.832, 374.3160
1812.760, 371.3820
1814.689, 370.9570
1816.617, 374.0290
1818.546, 367.4810
1820.474, 357.3660
1822.402, 357.9650
1824.331, 360.5330
1826.259, 357.7900
1828.188, 362.4150
1830.116, 372.9530
1832.045, 372.8240
1833.973, 367.5860
1835.902, 359.3440
1837.830, 359.3160
1839.759, 373.2800
1841.687, 365.5800
1843.616, 347.9470
1845.544, 349.6780
1847.473, 356.2800
1849.401, 361.9230
1851.329, 363.6600
1853.258, 361.6200
1855.186, 359.6870
1857.115, 359.6210
1859.043, 367.4530
1860.972, 367.2490
1862.900, 350.6510
1864.829, 349.4440
1866.757, 356.1440
1868.686, 353.1100
1870.614, 351.0100
1872.543, 355.6680
1874.471, 359.6010
1876.400, 361.8730
1878.328, 354.3630
1880.256, 347.4510
1882.185, 350.7660
1884.113, 353.2390
1886.042, 351.8560
1887.970, 358.2230
1889.899, 365.1420
1891.827, 360.7600
1893.756, 353.1460
1895.684, 344.0930
1897.613, 346.1560
1899.541, 354.1300
1901.470, 355.4760
1903.398, 352.3850
1905.327, 344.7910
1907.255, 342.3200
1909.183, 344.6580
1911.112, 346.3460
1913.040, 345.8080
1914.969, 341.7580
1916.897, 335.5650
1918.826, 328.4410
1920.754, 329.1220
1922.683, 332.5940
1924.611, 332.9250
1926.540, 335.4490
1928.468, 340.7790
1930.397, 340.6960
1932.325, 338.2240
1934.254, 338.9240
1936.182, 337.4700
1938.110, 332.4430
1940.039, 327.7110
1941.967, 325.3430
1943.896, 331.4470
1945.824, 335.2830
1947.753, 332.3340
1949.681, 334.5020
1951.610, 338.9850
1953.538, 335.8060
1955.467, 331.4770
1957.395, 329.2300
1959.324, 325.6010
1961.252, 322.6870
1963.181, 330.7470
1965.109, 336.4580
1967.037, 328.9720
1968.966, 321.9430
1970.894, 317.6010
1972.823, 316.7270
1974.751, 317.7640
1976.680, 336.2690
1978.608, 336.6220
1980.537, 314.3700
1982.465, 307.0360
1984.394, 306.1990
1986.322, 314.0520
1988.251, 312.2180
1990.179, 301.1030
1992.108, 302.2780
1994.036, 309.4110
1995.964, 314.8120
1997.893, 317.4360
1999.821, 310.0910
2001.750, 300.7070
2003.678, 295.4780
2005.607, 291.9060
2007.535, 294.1910
2009.464, 299.6090
2011.392, 293.4930
2013.321, 288.0510
2015.249, 292.1250
2017.178, 296.1500
2019.106, 299.2170
2021.035, 305.7150
2022.963, 305.6470
2024.891, 291.9020
2026.820, 289.9010
2028.748, 295.7100
2030.677, 292.7190
2032.605, 292.0210
2034.534, 297.5420
2036.462, 300.0230
2038.391, 300.9290
2040.319, 298.3460
2042.248, 294.7070
2044.176, 294.9330
2046.105, 284.6210
2048.033, 271.6970
2049.961, 279.8480
2051.890, 292.2330
2053.818, 302.6050
2055.747, 295.5230
2057.676, 283.6810
2059.604, 285.3930
2061.532, 282.8850
2063.461, 275.8930
2065.389, 275.8000
2067.318, 278.0110
2069.246, 277.6490
2071.175, 279.6170
2073.103, 285.0600
2075.032, 286.2670
2076.960, 285.2880
2078.889, 283.5210
2080.817, 279.2980
2082.746, 277.3400
2084.674, 282.6900
2086.603, 284.1690
2088.531, 280.0800
2090.459, 285.8100
2092.388, 289.1560
2094.316, 290.2470
2096.245, 282.3290
2098.173, 285.8870
2100.102, 279.8210
2102.030, 268.4200
2103.959, 273.4190
2105.887, 277.0140
2107.816, 272.6930
2109.744, 260.6700
2111.673, 255.5070
2113.601, 263.2700
2115.530, 262.3030
2117.458, 260.7110
2119.386, 267.5080
2121.315, 270.1210
2123.243, 266.8210
2125.172, 263.9540
2127.100, 262.0840
2129.029, 264.9260
2130.957, 262.5330
2132.886, 257.1890
2134.814, 259.9380
2136.743, 258.0630
2138.671, 248.6280
2140.600, 247.1900
2142.528, 247.7940
2144.457, 250.4770
2146.385, 252.3160
2148.313, 250.9830
2150.242, 248.8960
2152.170, 249.3030
2154.099, 254.9140
2156.027, 254.5850
2157.956, 250.6410
2159.884, 251.1690
2161.813, 251.3670
2163.741, 250.4840
2165.670, 247.8510
2167.598, 244.8560
2169.527, 250.8280
2171.455, 248.8300
2173.384, 239.7370
2175.312, 237.9380
2177.240, 235.9750
2179.169, 238.4680
2181.097, 241.2770
2183.026, 238.5700
2184.954, 238.6590
2186.883, 242.1780
2188.811, 242.3450
2190.740, 240.1220
2192.668, 239.0290
2194.597, 230.1090
2196.525, 232.3970
2198.454, 240.6130
2200.382, 234.1050
2202.311, 230.9050
2204.239, 230.5540
2206.167, 221.6660
2208.096, 216.9020
2210.024, 226.5900
2211.953, 225.3140
2213.881, 217.2600
2215.810, 221.6850
2217.738, 225.7170
2219.667, 223.7780
2221.595, 222.2580
2223.524, 224.7950
2225.452, 227.9440
2227.381, 226.6470
2229.309, 224.6650
2231.238, 224.4480
2233.166, 221.8230
2235.094, 218.7740
2237.023, 216.1190
2238.951, 216.9920
2240.880, 223.1050
2242.808, 216.5630
2244.737, 209.8720
2246.665, 216.5870
2248.594, 219.6330
2250.522, 218.7170
2252.451, 215.9520
2254.379, 212.6390
2256.308, 214.5750
2258.236, 216.3050
2260.165, 215.6610
2262.093, 215.6580
2264.021, 217.0670
2265.950, 218.4370
2267.878, 213.3610
2269.807, 208.8560
2271.735, 208.0640
2273.664, 219.6590
2275.592, 225.9560
2277.521, 215.1670
2279.449, 215.1100
2281.378, 219.7370
2283.306, 210.6110
2285.235, 200.8950
2287.163, 198.9680
2289.092, 203.5770
2291.020, 202.9130
2292.948, 200.4570
2294.877, 203.0050
2296.805, 202.4730
2298.734, 199.4700
2300.662, 198.6680
2302.591, 195.8640
2304.519, 193.2590
2306.448, 195.2670
2308.376, 200.4850
2310.305, 193.8300
2312.233, 190.9260
2314.162, 198.0590
2316.090, 199.5750
2318.019, 198.3570
2319.947, 198.2620
2321.875, 199.7470
2323.804, 198.6840
2325.732, 193.0810
2327.661, 191.9000
2329.589, 192.4570
2331.518, 189.0180
2333.446, 189.2990
2335.375, 193.7100
2337.303, 191.6050
2339.232, 188.1040
2341.160, 188.0860
2343.089, 187.6230
2345.017, 184.2510
2346.946, 175.3230
2348.874, 178.4490
2350.802, 185.9830
2352.731, 187.5000
2354.659, 186.3960
2356.588, 181.7740
2358.516, 173.9400
2360.445, 171.0880
2362.373, 175.1300
2364.302, 177.0280
2366.230, 179.5990
2368.159, 185.2680
2370.087, 181.0770
2372.016, 176.3330
2373.944, 181.1440
2375.873, 181.8010
2377.801, 180.0780
2379.729, 182.5800
2381.658, 178.9460
2383.586, 172.0810
2385.515, 177.4210
2387.443, 181.8400
2389.372, 181.7990
2391.300, 174.9040
2393.229, 169.5880
2395.157, 168.8200
2397.086, 171.7190
2399.014, 173.4310
2400.943, 171.2500
2402.871, 167.8040
2404.800, 162.8950
2406.728, 155.5220
2408.656, 159.6270
2410.585, 166.6610
2412.513, 162.5490
2414.442, 164.1890
2416.370, 168.0090
2418.299, 159.9960
2420.227, 155.4210
2422.156, 155.9240
2424.084, 154.5490
2426.013, 153.9800
2427.941, 156.4410
2429.870, 155.3480
2431.798, 152.5940
2433.727, 153.2890
2435.655, 155.0700
2437.583, 155.0670
2439.512, 152.3380
2441.440, 147.7610
2443.369, 146.8860
2445.297, 147.2850
2447.226, 154.8820
2449.154, 164.1870
2451.083, 168.6750
2453.011, 165.2880
2454.940, 161.8870
2456.868, 161.7780
2458.797, 155.8240
2460.725, 148.8390
2462.654, 155.4930
2464.582, 157.3040
2466.510, 154.1730
2468.439, 156.3730
2470.367, 160.9780
2472.296, 164.1500
2474.224, 152.6020
2476.153, 149.1870
2478.081, 152.2750
2480.010, 149.0690
2481.938, 147.2250
2483.867, 153.0490
2485.795, 155.6260
2487.724, 148.6160
2489.652, 141.9670
2491.581, 149.9730
2493.509, 150.1860
2495.438, 143.0810
2497.366, 146.3520
2499.294, 145.8830
2501.223, 132.2780
2503.151, 132.4990
2505.080, 139.0010
2507.008, 129.1030
2508.937, 126.6680
2510.865, 129.3220
2512.794, 129.5200
2514.722, 129.0180
2516.651, 131.3130
2518.579, 133.4570
2520.508, 131.8140
2522.436, 130.3780
2524.365, 128.2340
2526.293, 126.6780
2528.221, 127.0110
2530.150, 126.4410
2532.078, 120.5450
2534.007, 121.5950
2535.935, 127.4060
2537.864, 132.6220
2539.792, 127.2980
2541.721, 113.2240
2543.649, 124.2770
2545.578, 133.5210
2547.506, 120.8690
2549.435, 119.4330
2551.363, 124.2820
2553.292, 123.0300
2555.220, 123.8760
2557.148, 123.0190
2559.077, 113.9920
2561.005, 118.6620
2562.934, 126.1080
2564.862, 121.6640
2566.791, 115.6310
2568.719, 117.2450
2570.648, 119.7940
2572.576, 123.6910
2574.505, 125.5220
2576.433, 122.0640
2578.362, 119.3340
2580.290, 121.0370
2582.219, 121.2520
2584.147, 111.6740
2586.075, 111.5490
2588.004, 111.0750
2589.932, 116.8610
2591.861, 117.5800
2593.789, 111.0180
2595.718, 123.1630
2597.646, 129.1370
2599.575, 118.7630
2601.503, 106.1580
2603.432, 104.0940
2605.360, 110.7530
2607.289, 116.1320
2609.217, 119.9380
2611.146, 111.0270
2613.074, 101.9900
2615.002, 101.2550
2616.931, 98.49300
2618.859, 99.32700
2620.788, 98.91300
2622.716, 97.18000
2624.645, 99.01100
2626.573, 102.1570
2628.502, 106.1330
2630.430, 102.6830
2632.359, 101.0590
2634.287, 102.6660
2636.216, 107.5820
2638.144, 105.7360
2640.073, 100.5030
2642.001, 104.8250
2643.929, 103.2600
2645.858, 101.2840
2647.786, 96.09600
2649.715, 87.78100
2651.643, 87.68300
2653.572, 94.31000
2655.500, 95.15500
2657.429, 100.3180
2659.357, 101.2380
2661.286, 98.99500
2663.214, 102.8380
2665.143, 102.2950
2667.071, 98.79700
2669.000, 86.11800
2670.928, 85.19200
2672.856, 93.00700
2674.785, 99.08500
2676.713, 99.20900
2678.642, 94.67400
2680.570, 91.44400
2682.499, 95.28300
2684.427, 96.33500
2686.356, 93.04500
2688.284, 91.04300
2690.213, 88.30000
2692.141, 90.72000
2694.070, 93.60900
2695.998, 92.57000
2697.927, 86.58300
2699.855, 83.77800
2701.783, 85.59600
2703.712, 89.08300
2705.640, 82.60200
2707.569, 79.33300
2709.497, 79.42100
2711.426, 78.27400
2713.354, 78.24300
2715.283, 78.45800
2717.211, 75.72200
2719.140, 74.03500
2721.068, 79.67300
2722.997, 84.12500
2724.925, 79.84800
2726.854, 71.69600
2728.782, 73.38400
2730.710, 85.82800
2732.639, 77.75100
2734.567, 66.72300
2736.496, 72.83000
2738.424, 72.75300
2740.353, 70.06100
2742.281, 69.82600
2744.210, 73.89000
2746.138, 77.11600
2748.067, 71.81000
2749.995, 70.63300
2751.924, 72.13000
2753.852, 70.58300
2755.781, 78.56600
2757.709, 81.13100
2759.637, 75.87100
2761.566, 68.50400
2763.494, 70.49200
2765.423, 76.84900
2767.351, 78.31900
2769.280, 75.21700
2771.208, 76.40300
2773.137, 84.30400
2775.065, 84.74000
2776.994, 79.66300
2778.922, 69.78500
2780.851, 65.74600
2782.779, 62.69400
2784.708, 64.46200
2786.636, 74.06500
2788.564, 66.94700
2790.493, 62.78500
2792.421, 74.61900
2794.350, 67.87200
2796.278, 63.53700
2798.207, 66.09900
2800.135, 70.14100
2802.064, 64.44800
2803.992, 55.54700
2805.921, 51.92000
2807.849, 55.91200
2809.778, 55.19100
2811.706, 51.59200
2813.635, 63.45400
2815.563, 61.91900
2817.491, 52.31300
2819.420, 56.20100
2821.348, 60.32000
2823.277, 61.06900
2825.205, 60.08200
2827.134, 57.25200
2829.062, 57.65800
2830.991, 60.24900
2832.919, 47.09700
2834.848, 49.37300
2836.776, 57.33400
2838.705, 54.42400
2840.633, 49.04000
2842.562, 49.02800
2844.490, 55.24700
2846.418, 54.03200
2848.347, 58.01400
2850.275, 61.59200
2852.204, 46.63800
2854.132, 50.81200
2856.061, 58.03500
2857.989, 54.96100
2859.918, 52.79600
2861.846, 54.34900
2863.775, 57.00000
2865.703, 52.07600
2867.632, 49.76500
2869.560, 51.65000
2871.489, 59.23800
2873.417, 50.48100
2875.345, 47.33800
2877.274, 54.62500
2879.202, 53.18900
2881.131, 49.04900
2883.059, 45.52300
2884.988, 41.98600
2886.916, 44.06800
2888.845, 45.99300
2890.773, 45.50500
2892.702, 50.59800
2894.630, 46.22700
2896.559, 42.40200
2898.487, 43.90800
2900.416, 45.55100
2902.344, 44.88000
2904.272, 41.23900
2906.201, 42.02500
2908.129, 48.24200
2910.058, 50.85500
2911.986, 43.45200
2913.915, 42.80400
2915.843, 40.03500
2917.772, 36.14400
2919.700, 39.49400
2921.629, 39.03300
2923.557, 37.19100
2925.486, 33.88500
2927.414, 29.02600
2929.343, 34.79700
2931.271, 45.43700
2933.199, 32.98200
2935.128, 28.27200
2937.056, 31.01700
2938.985, 33.43800
2940.913, 31.42300
2942.842, 30.19100
2944.770, 31.84700
2946.699, 33.74500
2948.627, 35.35400
2950.556, 34.37800
2952.484, 26.40100
2954.413, 35.99900
2956.341, 39.90000
2958.270, 33.88400
2960.198, 32.72900
2962.126, 32.31700
2964.055, 34.78300
2965.983, 35.16500
2967.912, 31.67600
2969.840, 31.94600
2971.769, 33.67300
2973.697, 36.62600
2975.626, 32.56400
2977.554, 31.58600
2979.483, 33.05800
2981.411, 31.09800
2983.340, 29.49000
2985.268, 24.55200
2987.197, 22.49600
2989.125, 21.23300
2991.053, 28.15800
2992.982, 32.08100
2994.910, 23.41100
2996.839, 34.66200
2998.767, 33.47400
3000.696, 25.26200
3002.624, 27.53400
3004.553, 23.77200
3006.481, 16.49100
3008.410, 11.85900
3010.338, 18.70000
3012.267, 26.09500
3014.195, 24.24600
3016.124, 21.49700
3018.052, 26.27600
3019.980, 26.84500
3021.909, 20.73000
3023.837, 11.68500
3025.766, 18.89200
3027.694, 23.66400
3029.623, 23.62300
3031.551, 19.72700
3033.480, 23.87600
3035.408, 24.58600
3037.337, 20.58000
3039.265, 27.86200
3041.194, 32.17700
3043.122, 26.43400
3045.051, 15.14000
3046.979, 14.18600
3048.907, 19.99100
3050.836, 23.12900
3052.764, 17.41800
3054.693, 26.77700
3056.621, 30.21200
3058.550, 21.42500
3060.478, 21.67500
3062.407, 24.90100
3064.335, 22.76300
3066.264, 19.27500
3068.192, 23.09200
3070.121, 21.85200
3072.049, 20.45300
3073.978, 20.38600
3075.906, 24.61200
3077.834, 14.32300
3079.763, 5.702000
3081.691, 18.97100
3083.620, 28.19400
3085.548, 24.86100
3087.477, 20.80600
3089.405, 17.73600
3091.334, 14.64900
3093.262, 7.928000
3095.191, 4.023000
3097.119, 11.68600
3099.048, 12.69800
3100.976, 10.93900
3102.905, 4.988000
3104.833, 2.674000
3106.761, 5.776000
3108.690, 7.953000
3110.618, 14.58500
3112.547, 16.77300
3114.475, 4.526000
3116.404, -1.610000
3118.332, 5.954000
3120.261, -1.062000
3122.189, 7.699000
3124.118, 17.51600
3126.046, 18.50800
3127.975, 15.56800
3129.903, 12.30000
3131.832, 17.72400
3133.760, 21.99700
3135.688, 8.523000
3137.617, 4.484000
3139.545, 8.776000
3141.474, 13.58700
3143.402, 22.35900
3145.331, 18.35700
3147.259, 12.74200
3149.188, 8.175000
3151.116, 12.47200
3153.045, 9.679000
3154.973, 11.55400
3156.902, 15.97700
3158.830, 12.02000
3160.759, 11.58300
3162.687, 8.292000
3164.615, 5.524000
3166.544, 6.637000
3168.472, 5.577000
3170.401, 1.175000
3172.329, 0.2450000
3174.258, 9.170000
3176.186, 13.03300
3178.115, 7.930000
3180.043, 2.910000
3181.972, 4.876000
3183.900, 4.501000
3185.829, 10.35800
3187.757, 12.78500
3189.686, 7.155000
3191.614, -0.4810000
3193.542, -3.415000
3195.471, -0.9510000
3197.399, 7.460000
3199.328, 2.492000
3201.256, 6.493000
3203.185, 11.97900
3205.113, 9.455000
3207.042, 2.670000
3208.970, -10.80200
3210.899, -6.897000
3212.827, 11.23500
3214.756, 13.84200
3216.684, 9.594000
3218.613, 7.767000
3220.541, 6.697000
3222.469, 4.249000
3224.398, 4.091000
3226.326, 6.009000
3228.255, 10.94300
3230.183, 13.53500
3232.112, 5.430000
3234.040, 3.151000
3235.969, 2.762000
3237.897, 1.569000
3239.826, 1.695000
3241.754, 4.9999999E-03
3243.683, -1.558000
3245.611, -1.113000
3247.540, 1.683000
3249.468, 5.900000
3251.396, 3.850000
3253.325, 2.816000
3255.253, 13.27700
3257.182, 10.09700
3259.110, 0.1460000
3261.039, -4.211000
3262.967, -0.3300000
3264.896, 0.7200000
3266.824, 2.767000
3268.753, 5.721000
3270.681, 7.546000
3272.610, 7.425000
3274.538, 5.468000
3276.467, 5.463000
3278.395, 4.044000
3280.323, -1.538000
3282.252, 1.980000
3284.180, 5.009000
3286.109, 5.340000
3288.037, 1.256000
3289.966, -10.14800
3291.894, -10.71500
3293.823, -1.701000
3295.751, 4.203000
3297.680, -6.495000
3299.608, -3.230000
3301.537, 0.7310000
3303.465, 2.787000
3305.394, 2.176000
3307.322, -3.180000
3309.250, -0.1070000
3311.179, 2.745000
3313.107, 3.458000
3315.036, 2.350000
3316.964, 4.086000
3318.893, 12.59400
3320.821, 14.85800
3322.750, 7.723000
3324.678, 0.6920000
3326.607, 2.551000
3328.535, -4.053000
3330.464, -7.738000
3332.392, 2.170000
3334.321, 3.174000
3336.249, 4.453000
3338.177, -0.9950000
3340.106, -5.616000
3342.034, 5.730000
3343.963, 7.369000
3345.891, 6.351000
3347.820, 0.2400000
3349.748, -8.738000
3351.677, -7.491000
3353.605, -11.38200
3355.534, -5.410000
3357.462, -1.250000
3359.391, -11.55600
3361.319, -17.34300
3363.248, -7.060000
3365.176, -3.861000
3367.104, -4.091000
3369.033, 9.203000
3370.961, -2.140000
3372.890, -12.28300
3374.818, -6.846000
3376.747, 4.459000
3378.675, -11.62300
3380.604, -2.662000
3382.532, -1.469000
3384.461, -5.410000
3386.389, -5.241000
3388.318, -1.760000
3390.246, 4.558000
3392.175, 4.166000
3394.103, -0.8280000
3396.031, -4.467000
3397.960, 7.669000
3399.888, -2.516000
3401.817, 1.831000
3403.745, 8.788000
3405.674, -6.776000
3407.602, -6.305000
3409.531, -6.249000
3411.459, -6.440000
3413.388, -4.647000
3415.316, 0.1760000
3417.245, -0.2460000
3419.173, -8.139000
3421.102, -9.760000
3423.030, -3.833000
3424.958, 1.359000
3426.887, -9.001000
3428.815, -0.8620000
3430.744, -2.3000000E-02
3432.672, -11.15300
3434.601, -18.19200
3436.529, -7.249000
3438.458, -5.547000
3440.386, -1.899000
3442.315, 2.716000
3444.243, -2.070000
3446.172, -10.61600
3448.100, -9.719000
3450.029, -7.313000
3451.957, -8.605000
3453.885, -12.81400
3455.814, -9.884000
3457.742, 3.773000
3459.671, -4.679000
3461.599, -13.87000
3463.528, 4.380000
3465.456, 1.087000
3467.385, 2.043000
3469.313, -6.045000
3471.242, -10.68200
3473.170, -2.634000
3475.099, -16.08800
3477.027, 0.4340000
3478.956, 3.173000
3480.884, 0.6370000
3482.813, 6.769000
3484.741, 14.63300
3486.669, 0.3920000
3488.598, 1.711000
3490.526, 7.675000
3492.455, 6.319000
3494.383, -2.427000
3496.312, 7.533000
3498.240, 10.66100
3500.169, -0.5860000
3502.097, -14.20900
3504.026, -14.21100
3505.954, -3.690000
3507.883, -3.348000
3509.811, 1.164000
3511.740, 0.5210000
3513.668, -11.35500
3515.596, -15.43900
3517.525, -0.9130000
3519.453, 9.3000002E-02
3521.382, -8.065000
3523.310, -15.59600
3525.239, -17.55700
3527.167, -14.43400
3529.096, -11.13000
3531.024, -4.416000
3532.953, -2.165000
3534.881, -9.369000
3536.810, -11.29500
3538.738, -9.198000
3540.667, 1.041000
3542.595, -2.767000
3544.523, -11.65200
3546.452, 2.023000
3548.380, -20.51900
3550.309, -15.93600
3552.237, -9.130000
3554.166, -6.786000
3556.094, -4.695000
3558.023, -4.168000
3559.951, 0.7720000
3561.880, -22.44000
3563.808, -18.28000
3565.737, 0.6550000
3567.665, -9.265000
3569.594, 8.601000
3571.522, -7.4000001E-02
3573.450, 0.4800000
3575.379, 1.317000
3577.307, -4.829000
3579.236, -8.409000
3581.164, -0.9940000
3583.093, -9.711000
3585.021, -10.06000
3586.950, -7.418000
3588.878, -12.61600
3590.807, -23.92700
3592.735, -18.87900
3594.664, -16.57500
3596.592, -3.670000
3598.521, 5.839000
3600.449, 0.8560000
3602.377, -0.9730000
3604.306, -2.732000
3606.234, 1.475000
3608.163, -6.660000
3610.091, -11.33600
3612.020, 3.714000
3613.948, 14.37400
3615.877, -16.66200
3617.805, -12.67800
3619.734, -9.910000
3621.662, -8.658000
3623.591, 0.4680000
3625.519, -9.812000
3627.448, -12.43000
3629.376, -4.474000
3631.304, -1.639000
3633.233, -5.157000
3635.161, -7.791000
3637.090, -3.950000
3639.018, -12.62500
3640.947, -14.58400
3642.875, -6.661000
3644.804, 4.184000
3646.732, 7.576000
3648.661, -5.098000
3650.589, -3.942000
3652.518, -1.345000
3654.446, -16.34700
3656.375, -20.63000
3658.303, -9.195000
3660.231, -6.161000
3662.160, -1.021000
3664.088, -15.46800
3666.017, -14.55600
3667.945, -23.35000
3669.874, -29.70500
3671.802, -13.25500
3673.731, -11.01900
3675.659, -12.40700
3677.588, -13.80400
3679.516, -11.19000
3681.445, -13.95100
3683.373, -19.78400
3685.302, -11.60300
3687.230, -1.948000
3689.158, -13.69200
3691.087, -20.65900
3693.015, -12.01400
3694.944, -1.155000
3696.872, -3.972000
3698.801, -14.55100
3700.729, 10.41800
3702.658, 1.288000
3704.586, -15.59400
3706.515, -13.38800
3708.443, -5.389000
3710.372, -14.12200
3712.300, 9.042000
3714.229, 5.333000
3716.157, -10.90600
3718.085, -11.35900
3720.014, 2.847000
3721.942, 8.731000
3723.871, -15.32500
3725.799, -15.78400
3727.728, -10.99500
3729.656, -10.27900
3731.585, -14.80000
3733.513, -15.87500
3735.442, -8.500000
3737.370, 0.6880000
3739.299, -3.636000
3741.227, -7.352000
3743.156, -13.50400
3745.084, -16.25300
3747.012, -9.722000
3748.941, -4.926000
3750.869, -21.73400
3752.798, -14.19300
3754.726, -14.03200
3756.655, -18.48900
3758.583, -22.35100
3760.512, -12.19000
3762.440, 2.381000
3764.369, -5.730000
3766.297, -11.03500
3768.226, -12.21200
3770.154, -29.11500
3772.083, -28.33500
3774.011, -17.78600
3775.939, -16.40600
3777.868, -23.02900
3779.796, -19.19400
3781.725, -8.408000
3783.653, -6.775000
3785.582, -11.56700
3787.510, -12.97600
3789.439, -10.81000
3791.367, -10.14900
3793.296, -12.82700
3795.224, -12.59200
3797.153, -8.296000
3799.081, -1.830000
3801.010, 1.347000
3802.938, -3.206000
3804.866, -8.903000
3806.795, -8.395000
3808.723, -13.83400
3810.652, -17.79900
3812.580, -0.7190000
3814.509, -4.891000
3816.437, -12.00300
3818.366, -9.273000
3820.294, -10.59200
3822.223, -23.27400
3824.151, -6.132000
3826.080, -17.22700
3828.008, -17.64700
3829.937, -10.19300
3831.865, -17.74800
3833.793, -19.31300
3835.722, -13.75900
3837.650, -24.93500
3839.579, -8.312000
3841.507, -9.685000
3843.436, -18.41200
3845.364, -7.101000
3847.293, -1.311000
3849.221, -3.886000
3851.150, -4.973000
3853.078, -5.837000
3855.007, -13.17000
3856.935, -21.27900
3858.864, -16.93100
3860.792, -4.666000
3862.720, 4.450000
3864.649, -8.323000
3866.577, -11.05200
3868.506, 6.009000
3870.434, -19.34500
3872.363, -0.5770000
3874.291, -5.773000
3876.220, -14.89400
3878.148, 0.6090000
3880.077, -1.815000
3882.005, -16.18400
3883.934, -11.40900
3885.862, 2.608000
3887.791, -19.28500
3889.719, 0.1660000
3891.647, -3.438000
3893.576, -3.687000
3895.504, -22.28500
3897.433, -13.67800
3899.361, -13.23900
3901.290, -31.99900
3903.218, -23.33800
3905.147, -14.77700
3907.075, -19.39100
3909.004, -22.87800
3910.932, -9.172000
3912.861, -5.803000
3914.789, -16.09600
3916.718, -11.90700
3918.646, -3.885000
3920.574, -15.39700
3922.503, -11.52300
3924.431, -14.31400
3926.360, -13.48800
3928.288, -27.66600
3930.217, -14.16400
3932.145, -13.70000
3934.074, -14.54400
3936.002, -8.384000
3937.931, -7.498000
3939.859, -11.61500
3941.788, -12.47000
3943.716, -7.208000
3945.645, -4.341000
3947.573, 5.345000
3949.501, -5.558000
3951.430, 4.460000
3953.358, 1.249000
3955.287, -9.968000
3957.215, -1.878000
3959.144, 2.428000
3961.072, 9.113000
3963.001, -1.590000
3964.929, -7.955000
3966.858, -3.614000
3968.786, -5.991000
3970.715, -11.88600
3972.643, -17.37800
3974.572, -18.78500
3976.500, -16.56100
3978.428, -13.98300
3980.357, -10.33400
3982.285, -23.56600
3984.214, -17.64200
3986.142, -6.700000
3988.071, -14.82100
3989.999, -9.916000
3991.928, -9.186000
3993.856, -11.60100
3995.785, -15.83000
3997.713, -16.96800
3999.642, -5.591000
4001.570, -7.816000
4003.499, -24.00100
4005.427, -11.84400
4007.355, -20.85700
4009.284, -14.32200
4011.212, -12.24400
4013.141, -19.23500
4015.069, -2.215000
4016.998, 0.9250000
4018.926, -11.59700
4020.855, -2.660000
4022.783, -12.11500
4024.712, -11.69700
4026.640, -7.221000
4028.569, -6.065000
4030.497, 10.58500
4032.426, -11.93400
4034.354, -21.01400
4036.282, -13.82400
4038.211, -16.66700
4040.139, -23.21100
4042.068, -19.34800
4043.996, -13.50000
4045.925, -15.39800
4047.853, -13.79300
4049.782, -18.99700
4051.710, -17.50800
4053.639, -17.04400
4055.567, -18.33600
4057.496, -19.29800
4059.424, -10.69800
4061.353, -16.98300
4063.281, -24.24200
4065.209, -9.442000
4067.138, -0.1100000
4069.066, -17.80100
4070.995, -25.43500
4072.923, -24.91400
4074.852, -14.12400
4076.780, -11.22600
4078.709, -10.31300
4080.637, -10.26100
4082.566, -9.069000
4084.494, -15.08600
4086.423, -0.6310000
4088.351, -6.407000
4090.280, -10.31000
4092.208, -9.799000
4094.136, -13.64200
4096.065, -7.302000
4097.994, -20.06900
4099.922, -6.105000
4101.851, -13.45100
4103.779, -9.985000
4105.708, -18.82400
4107.636, -12.73600
4109.564, -19.61700
4111.493, -29.15700
4113.421, -23.93900
4115.350, -29.61200
4117.278, -19.72500
4119.207, -12.72700
4121.135, -9.376000
4123.063, -3.516000
4124.992, -19.72900
4126.920, -33.50300
4128.849, -13.91300
4130.777, -32.45500
4132.706, -16.74500
4134.634, -13.89200
4136.563, -32.36800
4138.491, -24.40600
4140.420, -16.06000
4142.348, -18.73100
4144.277, -31.66600
4146.205, -13.77700
4148.134, -20.02900
4150.062, -16.52200
4151.991, -0.8050000
4153.919, -7.967000
4155.848, -12.40900
4157.776, -6.487000
4159.705, -21.59600
4161.633, -23.92900
4163.562, -18.55300
4165.490, -11.45800
4167.418, -9.766000
4169.347, -8.459000
4171.275, -5.041000
4173.204, -10.78300
4175.132, -2.417000
4177.061, -10.11700
4178.989, -17.59500
4180.917, -6.238000
4182.846, -10.97200
4184.774, -23.39800
4186.703, -18.03700
4188.631, -7.800000
4190.560, -1.082000
4192.488, -6.121000
4194.417, -17.61800
4196.345, -15.61100
4198.274, -21.33700
4200.202, -24.60300
4202.131, -21.49800
4204.059, -20.71800
4205.988, -17.71200
4207.916, -21.86800
4209.845, -21.06100
4211.773, -6.454000
4213.702, -21.29900
4215.630, -11.56500
4217.559, -15.55500
4219.487, -15.20300
4221.416, -10.43500
4223.344, -22.60400
4225.272, -8.922000
4227.201, -13.49600
4229.129, -6.575000
4231.058, 0.1830000
4232.986, -1.3000000E-02
4234.915, -16.10300
4236.843, -23.19100
4238.771, -10.33500
4240.700, -2.363000
4242.628, -5.901000
4244.557, -23.61600
4246.485, -12.04900
4248.414, -6.351000
4250.342, -4.638000
4252.271, -10.72400
4254.199, -23.03300
4256.128, -13.34700
4258.056, -31.41300
4259.985, -17.79300
4261.913, 2.626000
4263.842, -9.483000
4265.770, -18.46900
4267.699, -37.34000
4269.627, -13.96000
4271.556, -30.86300
4273.484, -32.69900
4275.413, -18.65500
4277.341, -21.12400
4279.270, -10.05000
4281.198, -14.43400
4283.126, 3.825000
4285.055, -6.809000
4286.983, -16.67800
4288.912, -22.02000
4290.840, -27.27100
4292.769, -12.75100
4294.697, -10.65800
4296.625, -11.51600
##END=



