##NAMES=Artroeite
##RRUFFID=R100034
##IDEAL CHEMISTRY=PbAlF_3_(OH)_2_
##LOCALITY=Grand Reef mine, Klondyke, Aravaipa District, Graham County, Arizona, USA
##OWNER=RRUFF
##SOURCE=Natural History Museum of Los Angeles County
##DESCRIPTION=Colorless fragments from the type specimen, associated with calcioaravaipaite R100033.  Photos of type specimen are courtesy of LACMNH.
##STATUS=The identification of this mineral has been confirmed by single-crystal X-ray diffraction
##URL=https://www.rruff.net/odr/rruff_sample/R100034
##DIFFRACTION SAMPLE DESCRIPTION=Single crystal, powder profile is calculated
##CELL PARAMETERS=a: 6.277 b: 6.842 c: 5.072 alpha: 90.73 beta: 107.66 gamma: 104.47 volume: 200.05 crystal system: triclinic
##FILETYPE=Raman Processed
##RAMAN WAVELENGTH=780

85.63525, 611.8358
87.56372, 664.7406
89.49219, 728.9529
91.42065, 820.0990
93.34912, 879.5364
95.27759, 861.4260
97.20605, 834.1543
99.13452, 802.9910
101.0630, 768.6668
102.9915, 737.1393
104.9199, 705.1184
106.8484, 677.4899
108.7769, 648.8621
110.7053, 627.8616
112.6338, 617.6238
114.5623, 617.2830
116.4907, 627.1257
118.4192, 646.5311
120.3477, 674.2992
122.2761, 713.6183
124.2046, 758.0298
126.1331, 806.6692
128.0615, 858.2605
129.9900, 897.4310
131.9185, 931.2233
133.8469, 938.7219
135.7754, 909.1496
137.7039, 857.1693
139.6323, 785.8087
141.5608, 699.2730
143.4893, 624.2057
145.4177, 558.7751
147.3462, 507.6884
149.2747, 475.8684
151.2031, 454.6920
153.1316, 440.5184
155.0601, 432.2472
156.9885, 426.6740
158.9170, 424.2921
160.8455, 421.5226
162.7739, 418.0573
164.7024, 413.7378
166.6309, 407.6282
168.5593, 400.9725
170.4878, 395.4515
172.4163, 390.6377
174.3447, 392.2476
176.2732, 402.8527
178.2017, 416.7359
180.1301, 434.5792
182.0586, 452.2242
183.9871, 464.0043
185.9155, 469.9369
187.8440, 472.8752
189.7725, 470.9088
191.7009, 471.2252
193.6294, 474.1422
195.5579, 481.8352
197.4863, 497.1069
199.4148, 519.5367
201.3433, 544.4755
203.2717, 572.2139
205.2002, 600.9380
207.1287, 632.5999
209.0571, 662.5092
210.9856, 695.5060
212.9141, 722.7565
214.8425, 725.4424
216.7710, 704.0702
218.6995, 668.5974
220.6279, 609.5758
222.5564, 551.6912
224.4849, 497.1006
226.4133, 450.6163
228.3418, 420.2917
230.2703, 403.5764
232.1987, 393.3519
234.1272, 391.3586
236.0557, 390.3916
237.9841, 389.7414
239.9126, 388.8078
241.8411, 387.8711
243.7695, 386.0907
245.6980, 381.2862
247.6265, 372.7305
249.5549, 366.6621
251.4834, 364.0501
253.4119, 363.8688
255.3403, 367.4370
257.2688, 372.2611
259.1973, 375.9549
261.1257, 378.7032
263.0542, 381.2106
264.9827, 383.7806
266.9111, 385.5172
268.8396, 386.5255
270.7681, 386.4986
272.6965, 385.2285
274.6250, 382.7570
276.5535, 379.3659
278.4819, 375.1850
280.4104, 368.8038
282.3389, 360.1498
284.2673, 349.4170
286.1958, 334.2950
288.1243, 319.3269
290.0527, 307.0097
291.9812, 297.2421
293.9097, 290.1148
295.8381, 286.0575
297.7666, 283.7027
299.6951, 283.3280
301.6235, 284.0348
303.5520, 286.1456
305.4805, 288.7309
307.4089, 291.0131
309.3374, 293.1024
311.2659, 295.5767
313.1943, 298.5804
315.1228, 301.6501
317.0513, 304.3661
318.9797, 307.8402
320.9082, 312.6927
322.8367, 318.4494
324.7651, 324.7306
326.6936, 331.5559
328.6221, 339.2320
330.5505, 348.0000
332.4790, 356.7202
334.4075, 366.0251
336.3359, 373.9183
338.2644, 380.0958
340.1929, 383.9489
342.1213, 384.3418
344.0498, 381.6208
345.9783, 377.6954
347.9067, 372.2274
349.8352, 368.0479
351.7637, 366.0948
353.6921, 364.4150
355.6206, 362.9654
357.5491, 360.7458
359.4775, 357.0070
361.4060, 351.7588
363.3345, 344.7245
365.2629, 335.8980
367.1914, 327.0407
369.1199, 318.5818
371.0483, 309.6549
372.9768, 298.7281
374.9053, 288.4065
376.8337, 280.5965
378.7622, 274.8183
380.6907, 269.7905
382.6191, 265.4887
384.5476, 262.8856
386.4761, 262.5664
388.4045, 262.6352
390.3330, 261.9621
392.2615, 262.1972
394.1899, 264.4904
396.1184, 268.1018
398.0469, 272.2399
399.9753, 276.7134
401.9038, 280.7423
403.8323, 284.4956
405.7607, 286.7588
407.6892, 285.9456
409.6177, 285.3069
411.5461, 285.8134
413.4746, 286.9576
415.4031, 288.1787
417.3315, 289.6854
419.2600, 291.7613
421.1885, 294.3767
423.1169, 298.4655
425.0454, 304.1942
426.9739, 311.4847
428.9023, 322.9339
430.8308, 332.9189
432.7593, 338.7436
434.6877, 340.8735
436.6162, 338.9071
438.5447, 333.8701
440.4731, 330.2466
442.4016, 327.9054
444.3301, 328.3155
446.2585, 331.9691
448.1870, 337.5624
450.1155, 345.3114
452.0439, 354.3664
453.9724, 365.3506
455.9009, 376.6066
457.8293, 386.8916
459.7578, 396.0917
461.6863, 398.7688
463.6147, 393.9975
465.5432, 383.5942
467.4717, 364.5526
469.4001, 344.2953
471.3286, 323.2481
473.2571, 303.6043
475.1855, 285.9914
477.1140, 271.1592
479.0425, 260.8666
480.9709, 255.1804
482.8994, 251.5325
484.8279, 250.4879
486.7563, 250.1759
488.6848, 250.7266
490.6133, 251.6350
492.5417, 252.9811
494.4702, 254.3247
496.3987, 255.0267
498.3271, 255.7657
500.2556, 257.6350
502.1841, 260.5897
504.1125, 263.8856
506.0410, 267.4407
507.9695, 271.7760
509.8979, 277.2663
511.8264, 282.6168
513.7549, 287.0950
515.6833, 291.7980
517.6118, 297.4850
519.5403, 303.5235
521.4688, 308.8384
523.3972, 313.9038
525.3257, 320.3127
527.2542, 328.0607
529.1826, 338.1446
531.1111, 350.9093
533.0396, 364.6707
534.9680, 379.4055
536.8965, 394.4010
538.8250, 410.7258
540.7534, 425.7291
542.6819, 437.3754
544.6104, 447.8910
546.5388, 454.9057
548.4673, 462.1362
550.3958, 466.7307
552.3242, 468.6507
554.2527, 470.1994
556.1812, 470.7152
558.1096, 474.0619
560.0381, 483.0392
561.9666, 492.8888
563.8950, 504.6915
565.8235, 514.0131
567.7520, 519.3210
569.6804, 518.5629
571.6089, 506.3748
573.5374, 484.8781
575.4658, 459.4242
577.3943, 429.9774
579.3228, 402.5658
581.2512, 376.7861
583.1797, 356.1911
585.1082, 342.3382
587.0366, 332.0826
588.9651, 325.3124
590.8936, 320.8058
592.8220, 318.2510
594.7505, 317.0430
596.6790, 316.7431
598.6074, 316.9685
600.5359, 317.3589
602.4644, 317.9305
604.3928, 314.5724
606.3213, 305.5316
608.2498, 296.2152
610.1782, 287.0760
612.1067, 277.7335
614.0352, 266.9572
615.9636, 257.4039
617.8921, 251.3017
619.8206, 246.3144
621.7490, 240.3666
623.6775, 234.0412
625.6060, 228.0403
627.5344, 222.4673
629.4629, 218.1475
631.3914, 215.4066
633.3198, 212.6019
635.2483, 209.3718
637.1768, 206.8042
639.1052, 205.4349
641.0337, 203.8847
642.9622, 201.6214
644.8906, 199.2645
646.8191, 196.7809
648.7476, 194.7643
650.6760, 194.2603
652.6045, 194.2173
654.5330, 192.4064
656.4614, 191.8467
658.3899, 190.8585
660.3184, 189.1004
662.2468, 188.6465
664.1753, 186.2695
666.1038, 184.6383
668.0322, 184.3058
669.9607, 183.8548
671.8892, 182.6623
673.8176, 181.7665
675.7461, 182.0073
677.6746, 182.2926
679.6030, 181.8573
681.5315, 181.8634
683.4600, 181.0306
685.3884, 181.0152
687.3169, 180.4290
689.2454, 179.3660
691.1738, 178.4016
693.1023, 177.5357
695.0308, 177.4388
696.9592, 178.3028
698.8877, 178.5272
700.8162, 177.5666
702.7446, 176.9364
704.6731, 177.2561
706.6016, 177.6253
708.5300, 178.0098
710.4585, 177.9954
712.3870, 176.9478
714.3154, 175.8155
716.2439, 175.6297
718.1724, 175.8520
720.1008, 175.7878
722.0293, 175.3894
723.9578, 174.1581
725.8862, 172.4229
727.8147, 172.0957
729.7432, 173.2439
731.6716, 174.2518
733.6001, 175.0644
735.5286, 175.0973
737.4570, 173.4656
739.3855, 172.7488
741.3140, 174.1362
743.2424, 175.3474
745.1709, 175.6918
747.0994, 175.7557
749.0278, 175.6475
750.9563, 175.5911
752.8848, 175.9224
754.8132, 176.2702
756.7417, 176.0921
758.6702, 175.6646
760.5986, 175.4264
762.5271, 175.3360
764.4556, 175.3222
766.3840, 175.3592
768.3125, 174.9402
770.2410, 173.8142
772.1694, 173.6627
774.0979, 174.9837
776.0264, 176.3067
777.9548, 177.9805
779.8833, 178.9801
781.8118, 178.5754
783.7402, 178.5014
785.6687, 179.4361
787.5972, 180.3973
789.5256, 180.9244
791.4541, 181.3846
793.3826, 181.9328
795.3110, 182.6037
797.2395, 183.9876
799.1680, 185.0158
801.0964, 183.8987
803.0249, 181.8469
804.9534, 181.2150
806.8818, 181.6309
808.8103, 181.8932
810.7388, 181.9772
812.6672, 181.4915
814.5957, 180.3809
816.5242, 179.4080
818.4526, 178.5134
820.3811, 178.1801
822.3096, 178.5648
824.2380, 178.6257
826.1665, 177.9463
828.0950, 178.1836
830.0234, 180.0266
831.9519, 181.7737
833.8804, 182.7601
835.8088, 183.8965
837.7373, 185.7773
839.6658, 187.5311
841.5942, 188.5947
843.5227, 189.6661
845.4512, 191.1987
847.3796, 192.8491
849.3081, 194.4999
851.2366, 195.9600
853.1650, 196.8282
855.0935, 197.5163
857.0220, 198.8955
858.9504, 199.2552
860.8789, 200.7720
862.8074, 200.3798
864.7358, 200.7553
866.6643, 201.5134
868.5928, 201.0987
870.5212, 199.6286
872.4497, 198.0228
874.3782, 196.2723
876.3066, 193.6178
878.2351, 189.9827
880.1636, 186.4926
882.0920, 183.2397
884.0205, 180.3104
885.9490, 177.8206
887.8774, 175.2710
889.8059, 172.4505
891.7344, 169.9134
893.6628, 168.0486
895.5913, 165.9321
897.5198, 162.7284
899.4482, 160.4157
901.3767, 159.9393
903.3052, 159.6411
905.2336, 159.1565
907.1621, 158.4856
909.0906, 157.6603
911.0190, 156.6084
912.9475, 155.0641
914.8760, 153.5802
916.8044, 152.3568
918.7329, 151.5152
920.6614, 151.3464
922.5898, 151.3828
924.5183, 151.2103
926.4468, 151.0587
928.3752, 151.4653
930.3037, 151.7215
932.2322, 150.5082
934.1606, 149.0248
936.0891, 148.9588
938.0176, 149.8551
939.9460, 151.1435
941.8745, 152.6470
943.8030, 154.0410
945.7314, 155.3055
947.6599, 156.3473
949.5884, 157.2095
951.5168, 158.0558
953.4453, 158.8591
955.3738, 159.4950
957.3022, 159.9487
959.2307, 159.8378
961.1592, 159.2882
963.0876, 160.1440
965.0161, 162.3616
966.9446, 164.6381
968.8730, 166.9772
970.8015, 168.2508
972.7300, 168.4443
974.6584, 168.8584
976.5869, 169.5261
978.5154, 169.8450
980.4438, 169.8046
982.3723, 168.2591
984.3008, 165.0967
986.2292, 162.5854
988.1577, 160.9484
990.0862, 158.7128
992.0146, 155.6892
993.9431, 152.8323
995.8716, 150.2065
997.8000, 148.4127
999.7285, 147.5844
1001.657, 146.8678
1003.585, 146.0137
1005.514, 146.5225
1007.442, 148.8743
1009.371, 150.7563
1011.299, 151.7400
1013.228, 152.8902
1015.156, 154.5478
1017.085, 155.4362
1019.013, 155.0075
1020.942, 155.2203
1022.870, 156.2682
1024.799, 158.2612
1026.727, 161.9317
1028.656, 164.4341
1030.584, 165.2412
1032.512, 165.3804
1034.441, 164.6307
1036.369, 164.0236
1038.298, 163.9692
1040.226, 163.3878
1042.155, 162.4011
1044.083, 160.4753
1046.012, 157.4402
1047.940, 153.7038
1049.869, 148.4659
1051.797, 144.1113
1053.726, 140.8676
1055.654, 138.2322
1057.583, 136.7607
1059.511, 134.7207
1061.439, 131.1295
1063.368, 129.0771
1065.296, 129.4592
1067.225, 129.4748
1069.153, 128.5616
1071.082, 128.5067
1073.010, 129.7808
1074.939, 130.7731
1076.867, 131.5624
1078.796, 131.3339
1080.724, 129.6624
1082.653, 128.5723
1084.581, 128.2780
1086.510, 128.0207
1088.438, 127.7669
1090.366, 127.6005
1092.295, 127.5847
1094.223, 127.0490
1096.152, 125.8291
1098.080, 125.9840
1100.009, 127.7106
1101.937, 128.2138
1103.866, 127.3887
1105.794, 126.6420
1107.723, 125.9966
1109.651, 124.8651
1111.580, 125.0215
1113.508, 123.6135
1115.437, 125.4553
1117.365, 126.7982
1119.293, 127.5688
1121.222, 127.0225
1123.150, 127.1757
1125.079, 125.2584
1127.007, 125.6337
1128.936, 124.7455
1130.864, 123.2309
1132.793, 122.9346
1134.721, 123.4158
1136.650, 123.9194
1138.578, 124.2894
1140.507, 124.1231
1142.435, 123.6639
1144.364, 123.0745
1146.292, 122.6978
1148.220, 123.1190
1150.149, 123.8691
1152.077, 124.7882
1154.006, 125.3081
1155.934, 124.4680
1157.863, 123.4497
1159.791, 123.3229
1161.720, 123.3492
1163.648, 122.6679
1165.577, 122.4304
1167.505, 124.0286
1169.434, 125.1907
1171.362, 124.5074
1173.291, 123.6328
1175.219, 123.0388
1177.147, 122.7057
1179.076, 122.6756
1181.004, 122.7508
1182.933, 122.8914
1184.861, 123.1405
1186.790, 123.8014
1188.718, 123.9441
1190.647, 123.3026
1192.575, 122.5884
1194.504, 121.6627
1196.432, 121.1365
1198.361, 121.0833
1200.289, 121.3402
1202.218, 121.8861
1204.146, 122.2548
1206.074, 122.4799
1208.003, 123.1761
1209.931, 124.0628
1211.860, 122.9348
1213.788, 123.8570
1215.717, 121.7236
1217.645, 123.9752
1219.574, 124.0834
1221.502, 123.3359
1223.431, 123.7458
1225.359, 124.3273
1227.288, 124.1407
1229.216, 123.4193
1231.145, 121.5482
1233.073, 120.3398
1235.001, 121.5643
1236.930, 122.7103
1238.858, 122.5302
1240.787, 122.5599
1242.715, 123.5863
1244.644, 124.0243
1246.572, 123.2921
1248.501, 122.7496
1250.429, 122.6155
1252.358, 122.5959
1254.286, 122.6854
1256.215, 122.7622
1258.143, 122.8353
1260.072, 123.4265
1262.000, 124.4083
1263.928, 125.0540
1265.857, 125.2775
1267.785, 124.3372
1269.714, 123.0148
1271.642, 123.1539
1273.571, 124.0771
1275.499, 125.0520
1277.428, 125.7188
1279.356, 125.8605
1281.285, 125.4480
1283.213, 123.3993
1285.142, 122.3214
1287.070, 124.9957
1288.999, 126.6215
1290.927, 124.1069
1292.855, 122.9145
1294.784, 125.2327
1296.712, 126.7230
1298.641, 127.0349
1300.569, 126.6050
1302.498, 125.1032
1304.426, 125.0870
1306.355, 126.5396
1308.283, 127.3068
1310.212, 127.4844
1312.140, 127.7697
1314.069, 127.9069
1315.997, 126.9817
1317.926, 126.0766
1319.854, 126.8247
1321.782, 127.6219
1323.711, 127.1135
1325.639, 126.8262
1327.568, 127.6253
1329.496, 128.3417
1331.425, 128.8815
1333.353, 128.4970
1335.282, 126.5899
1337.210, 125.5634
1339.139, 125.8546
1341.067, 126.6134
1342.996, 127.6307
1344.924, 127.8083
1346.853, 128.4052
1348.781, 128.1042
1350.709, 128.8680
1352.638, 128.9779
1354.566, 128.8153
1356.495, 128.2351
1358.423, 128.0188
1360.352, 129.6610
1362.280, 130.8351
1364.209, 129.9040
1366.137, 129.3156
1368.066, 129.7708
1369.994, 130.5437
1371.923, 131.4625
1373.851, 132.1841
1375.780, 132.7349
1377.708, 133.0629
1379.636, 133.2098
1381.565, 133.3766
1383.493, 133.3770
1385.422, 132.4755
1387.350, 131.8328
1389.279, 132.9699
1391.207, 134.5074
1393.136, 135.8115
1395.064, 136.8946
1396.993, 137.4379
1398.921, 138.0915
1400.850, 138.5507
1402.778, 138.7838
1404.707, 139.2631
1406.635, 139.2342
1408.563, 139.7615
1410.492, 140.3638
1412.420, 140.9687
1414.349, 141.1094
1416.277, 141.3879
1418.206, 142.8022
1420.134, 144.2434
1422.063, 144.8324
1423.991, 145.3949
1425.920, 146.4453
1427.848, 147.1940
1429.777, 147.3370
1431.705, 147.4208
1433.634, 147.4112
1435.562, 147.7755
1437.490, 148.4468
1439.419, 148.3163
1441.347, 147.8716
1443.276, 148.1691
1445.204, 148.8648
1447.133, 149.7157
1449.061, 150.3978
1450.990, 151.0344
1452.918, 151.1105
1454.847, 151.3092
1456.775, 151.1728
1458.704, 150.6598
1460.632, 150.4344
1462.561, 149.6644
1464.489, 148.3099
1466.417, 148.0482
1468.346, 147.1081
1470.274, 146.3481
1472.203, 147.4604
1474.131, 148.3994
1476.060, 147.8208
1477.988, 146.8615
1479.917, 145.4804
1481.845, 145.1133
1483.774, 144.1967
1485.702, 143.7272
1487.631, 143.3937
1489.559, 142.9900
1491.488, 143.5559
1493.416, 143.1753
1495.344, 142.7631
1497.273, 144.1338
1499.201, 144.8910
1501.130, 142.8239
1503.058, 141.1665
1504.987, 140.8153
1506.915, 140.4953
1508.844, 140.0258
1510.772, 140.1940
1512.701, 140.8013
1514.629, 140.8954
1516.558, 140.5106
1518.486, 139.4034
1520.415, 138.8065
1522.343, 140.2310
1524.271, 140.6901
1526.200, 138.7419
1528.128, 137.4772
1530.057, 136.9875
1531.985, 137.4216
1533.914, 138.1584
1535.842, 137.0445
1537.771, 135.8228
1539.699, 136.8592
1541.628, 137.5525
1543.556, 136.3935
1545.485, 135.5469
1547.413, 135.5423
1549.342, 134.9691
1551.270, 133.8243
1553.198, 134.6002
1555.127, 133.5269
1557.055, 134.8574
1558.984, 132.8956
1560.912, 133.4978
1562.841, 134.2570
1564.769, 133.9818
1566.698, 133.1198
1568.626, 131.8457
1570.555, 131.7743
1572.483, 132.6476
1574.412, 133.3658
1576.340, 133.9763
1578.269, 133.3790
1580.197, 132.5667
1582.125, 133.7169
1584.054, 133.9380
1585.982, 131.6909
1587.911, 130.3544
1589.839, 130.1227
1591.768, 130.2773
1593.696, 131.0218
1595.625, 131.3739
1597.553, 131.3501
1599.482, 131.2604
1601.410, 130.6707
1603.339, 129.0829
1605.267, 128.4093
1607.196, 128.8983
1609.124, 129.1418
1611.052, 128.9687
1612.981, 127.6659
1614.909, 126.1338
1616.838, 125.8967
1618.766, 126.1524
1620.695, 126.6358
1622.623, 126.8018
1624.552, 125.9123
1626.480, 125.5148
1628.409, 126.2630
1630.337, 126.5100
1632.266, 126.1205
1634.194, 126.6895
1636.123, 126.6258
1638.051, 124.3024
1639.979, 122.5677
1641.908, 122.2415
1643.836, 123.0206
1645.765, 124.8657
1647.693, 124.9458
1649.622, 123.6268
1651.550, 121.7111
1653.479, 120.7983
1655.407, 122.4936
1657.336, 123.6711
1659.264, 123.0917
1661.193, 122.5893
1663.121, 122.5972
1665.050, 122.5076
1666.978, 122.0879
1668.906, 122.3008
1670.835, 122.3835
1672.763, 121.3470
1674.692, 120.3690
1676.620, 119.7928
1678.549, 119.6943
1680.477, 119.9827
1682.406, 120.4181
1684.334, 120.6900
1686.263, 120.6478
1688.191, 120.4375
1690.120, 120.0828
1692.048, 119.7968
1693.977, 119.4601
1695.905, 119.5112
1697.833, 119.3911
1699.762, 117.8293
1701.690, 116.7255
1703.619, 118.2304
1705.547, 118.9557
1707.476, 117.7807
1709.404, 116.7832
1711.333, 116.1945
1713.261, 116.8116
1715.190, 117.5110
1717.118, 116.5318
1719.047, 115.6242
1720.975, 115.4416
1722.904, 115.5848
1724.832, 114.7664
1726.760, 115.4815
1728.689, 113.8809
1730.617, 113.5839
1732.546, 113.5634
1734.474, 112.1372
1736.403, 111.9541
1738.331, 114.5377
1740.260, 114.8685
1742.188, 113.3951
1744.117, 112.5312
1746.045, 111.9453
1747.974, 111.3393
1749.902, 110.8409
1751.831, 110.4894
1753.759, 109.5438
1755.688, 108.5887
1757.616, 108.5462
1759.544, 108.7525
1761.473, 109.6475
1763.401, 110.0192
1765.330, 109.0777
1767.258, 107.9501
1769.187, 106.7916
1771.115, 106.5552
1773.044, 106.4024
1774.972, 105.7762
1776.901, 106.1351
1778.829, 105.8954
1780.758, 107.0977
1782.686, 106.0925
1784.615, 106.4299
1786.543, 106.9090
1788.471, 105.8492
1790.400, 105.0437
1792.328, 104.4112
1794.257, 103.8241
1796.185, 103.2974
1798.114, 103.1272
1800.042, 103.3452
1801.971, 103.2652
1803.899, 102.9931
1805.828, 102.8331
1807.756, 102.5668
1809.685, 102.2192
1811.613, 101.7085
1813.542, 101.0599
1815.470, 100.8074
1817.398, 100.6495
1819.327, 100.1882
1821.255, 100.3833
1823.184, 100.1843
1825.112, 99.44298
1827.041, 98.93791
1828.969, 100.1656
1830.898, 101.1528
1832.826, 100.1483
1834.755, 98.51376
1836.683, 97.49824
1838.612, 97.60088
1840.540, 97.65767
1842.469, 97.51350
1844.397, 96.73001
1846.325, 96.91852
1848.254, 95.80971
1850.182, 96.46584
1852.111, 95.79395
1854.039, 94.85986
1855.968, 94.50785
1857.896, 94.93346
1859.825, 94.33754
1861.753, 95.07360
1863.682, 93.92139
1865.610, 93.99763
1867.539, 93.53783
1869.467, 93.52914
1871.396, 93.64059
1873.324, 93.85111
1875.252, 94.00795
1877.181, 94.03447
1879.109, 94.25565
1881.038, 93.58556
1882.966, 92.64075
1884.895, 92.12457
1886.823, 92.04296
1888.752, 92.42003
1890.680, 92.66837
1892.609, 93.28114
1894.537, 92.57558
1896.466, 90.38496
1898.394, 89.88612
1900.323, 90.52781
1902.251, 90.31832
1904.179, 90.18252
1906.108, 90.96276
1908.036, 90.78671
1909.965, 90.21387
1911.893, 90.16312
1913.822, 90.14716
1915.750, 90.23145
1917.679, 89.90590
1919.607, 89.76633
1921.536, 89.95307
1923.464, 89.94422
1925.393, 89.55357
1927.321, 89.51627
1929.250, 90.30622
1931.178, 89.00467
1933.106, 86.97050
1935.035, 86.78284
1936.963, 87.64958
1938.892, 86.37830
1940.820, 88.62479
1942.749, 86.12904
1944.677, 86.19024
1946.606, 87.29572
1948.534, 87.62671
1950.463, 87.23360
1952.391, 86.70162
1954.320, 86.10802
1956.248, 85.58520
1958.177, 85.53962
1960.105, 84.85455
1962.033, 83.27115
1963.962, 82.80347
1965.890, 83.47034
1967.819, 84.32308
1969.747, 84.74110
1971.676, 83.95363
1973.604, 83.14738
1975.533, 83.31575
1977.461, 83.35737
1979.390, 82.76265
1981.318, 82.91642
1983.247, 82.04570
1985.175, 82.47672
1987.104, 82.09290
1989.032, 81.37819
1990.960, 80.51420
1992.889, 80.24610
1994.817, 80.39822
1996.746, 80.02697
1998.674, 79.33582
2000.603, 78.80321
2002.531, 78.96365
2004.460, 79.19112
2006.388, 78.19075
2008.317, 77.33672
2010.245, 78.15173
2012.174, 78.31367
2014.102, 76.61420
2016.031, 76.22648
2017.959, 76.73958
2019.887, 76.38076
2021.816, 75.76283
2023.744, 74.62852
2025.673, 74.02202
2027.601, 74.96826
2029.530, 76.66987
2031.458, 76.47374
2033.387, 74.14888
2035.315, 72.59056
2037.244, 71.90934
2039.172, 73.15791
2041.101, 73.56728
2043.029, 72.08469
2044.958, 71.94387
2046.886, 72.57171
2048.814, 72.39274
2050.743, 71.43007
2052.671, 70.83684
2054.600, 70.59818
2056.528, 70.66242
2058.457, 71.12466
2060.385, 70.26883
2062.314, 68.58455
2064.242, 68.13427
2066.171, 68.38674
2068.099, 68.38403
2070.028, 66.97330
2071.956, 66.34843
2073.885, 66.84077
2075.813, 66.39211
2077.741, 66.07433
2079.670, 65.85039
2081.598, 65.89076
2083.527, 65.74441
2085.455, 64.93786
2087.384, 64.74780
2089.312, 64.21859
2091.241, 63.67259
2093.169, 63.30362
2095.098, 62.62516
2097.026, 62.27362
2098.955, 61.90565
2100.883, 62.01225
2102.812, 60.92436
2104.740, 60.13961
2106.668, 61.39346
2108.597, 62.16413
2110.525, 61.48867
2112.454, 60.55989
2114.382, 60.31064
2116.311, 60.34846
2118.239, 59.86728
2120.168, 59.55106
2122.096, 59.46581
2124.025, 59.12850
2125.953, 59.15546
2127.882, 58.04911
2129.810, 56.94082
2131.739, 57.85353
2133.667, 58.32700
2135.595, 57.69835
2137.524, 56.94294
2139.452, 56.39888
2141.381, 56.62994
2143.309, 56.84959
2145.238, 56.54181
2147.166, 56.33011
2149.095, 56.60851
2151.023, 56.59873
2152.952, 56.45932
2154.880, 56.13339
2156.809, 55.87553
2158.737, 55.24454
2160.666, 54.24124
2162.594, 54.03581
2164.522, 54.13499
2166.451, 54.27562
2168.379, 54.37769
2170.308, 54.46495
2172.236, 54.34035
2174.165, 53.95573
2176.093, 53.96991
2178.022, 53.49650
2179.950, 53.22151
2181.879, 52.78860
2183.807, 52.26264
2185.736, 52.19890
2187.664, 51.22887
2189.593, 51.89378
2191.521, 52.31384
2193.449, 51.81305
2195.378, 51.33611
2197.306, 50.84563
2199.235, 50.79639
2201.163, 49.98606
2203.092, 49.53693
2205.020, 50.50653
2206.949, 50.84837
2208.877, 50.51523
2210.806, 49.53717
2212.734, 48.94564
2214.663, 49.09460
2216.591, 48.88372
2218.520, 48.57307
2220.448, 48.71064
2222.376, 48.17646
2224.305, 48.40366
2226.233, 48.49851
2228.162, 47.69746
2230.090, 47.97589
2232.019, 48.24632
2233.947, 48.30846
2235.876, 48.25993
2237.804, 48.14421
2239.733, 47.75410
2241.661, 47.37873
2243.590, 46.74740
2245.518, 46.75908
2247.447, 47.39900
2249.375, 47.82167
2251.303, 47.16793
2253.232, 47.48388
2255.160, 46.01130
2257.089, 46.85227
2259.017, 46.53157
2260.946, 45.57105
2262.874, 45.90377
2264.803, 46.37711
2266.731, 45.74254
2268.660, 45.47160
2270.588, 44.46336
2272.517, 43.42614
2274.445, 43.93186
2276.374, 44.41473
2278.302, 43.72171
2280.230, 43.28919
2282.159, 43.83198
2284.087, 44.01789
2286.016, 43.92459
2287.944, 43.18570
2289.873, 43.23536
2291.801, 43.16292
2293.730, 43.15765
2295.658, 43.49654
2297.587, 42.74445
2299.515, 42.41069
2301.444, 42.96468
2303.372, 42.92719
2305.301, 41.94392
2307.229, 40.63875
2309.157, 40.40620
2311.086, 40.51212
2313.014, 40.17348
2314.943, 40.07356
2316.871, 40.73853
2318.800, 40.99205
2320.728, 41.19272
2322.657, 41.43801
2324.585, 41.35720
2326.514, 41.37165
2328.442, 40.73891
2330.371, 40.12786
2332.299, 39.87222
2334.228, 39.41384
2336.156, 39.26134
2338.084, 39.46133
2340.013, 39.57011
2341.941, 39.36155
2343.870, 39.70099
2345.798, 39.92056
2347.727, 38.68821
2349.655, 37.84086
2351.584, 37.88172
2353.512, 38.14143
2355.441, 38.36734
2357.369, 38.01009
2359.298, 37.61982
2361.226, 36.75539
2363.155, 37.19087
2365.083, 37.89530
2367.011, 37.47025
2368.940, 36.20624
2370.868, 35.02127
2372.797, 35.88078
2374.725, 36.38871
2376.654, 35.73902
2378.582, 36.30150
2380.511, 36.34921
2382.439, 35.92334
2384.368, 35.57222
2386.296, 35.31131
2388.225, 36.66726
2390.153, 35.76661
2392.082, 34.48944
2394.010, 36.18420
2395.938, 36.39758
2397.867, 35.31992
2399.795, 34.87492
2401.724, 34.14665
2403.652, 34.05207
2405.581, 34.01701
2407.509, 33.73622
2409.438, 34.01377
2411.366, 34.02456
2413.295, 34.43471
2415.223, 34.56626
2417.152, 34.48149
2419.080, 34.54057
2421.009, 33.81752
2422.937, 33.47496
2424.865, 34.03630
2426.794, 33.27254
2428.722, 32.46044
2430.651, 32.11059
2432.579, 32.87062
2434.508, 33.80980
2436.436, 32.98576
2438.365, 31.87534
2440.293, 31.90260
2442.222, 32.65052
2444.150, 32.14907
2446.079, 31.61626
2448.007, 31.92236
2449.936, 31.69381
2451.864, 31.44263
2453.792, 31.26728
2455.721, 31.13680
2457.649, 30.85643
2459.578, 31.15897
2461.506, 30.60014
2463.435, 31.02499
2465.363, 31.48340
2467.292, 30.65210
2469.220, 29.35533
2471.149, 30.28638
2473.077, 30.60829
2475.006, 30.01437
2476.934, 30.42593
2478.863, 30.30161
2480.791, 30.11793
2482.719, 29.55358
2484.648, 29.08140
2486.576, 29.10989
2488.505, 29.37339
2490.433, 29.31949
2492.362, 29.15863
2494.290, 28.12165
2496.219, 28.72991
2498.147, 28.01080
2500.076, 27.92559
2502.004, 29.01877
2503.933, 27.94100
2505.861, 27.76776
2507.790, 28.18552
2509.718, 27.13627
2511.646, 26.85042
2513.575, 27.62706
2515.503, 28.33994
2517.432, 28.69500
2519.360, 27.63160
2521.289, 26.71627
2523.217, 26.59103
2525.146, 26.36329
2527.074, 25.99870
2529.003, 26.14383
2530.931, 26.69674
2532.860, 26.97267
2534.788, 26.88296
2536.717, 26.88893
2538.645, 26.55206
2540.573, 26.26588
2542.502, 25.73823
2544.430, 25.16516
2546.359, 24.95253
2548.287, 25.26617
2550.216, 25.85414
2552.144, 26.01416
2554.073, 25.36525
2556.001, 25.51234
2557.930, 24.97161
2559.858, 25.52493
2561.787, 24.20793
2563.715, 23.79173
2565.644, 23.93223
2567.572, 23.84619
2569.500, 23.98803
2571.429, 23.94066
2573.357, 23.78569
2575.286, 24.08797
2577.214, 23.65646
2579.143, 24.15615
2581.071, 24.67179
2583.000, 24.00510
2584.928, 23.12566
2586.857, 22.76165
2588.785, 23.42490
2590.714, 23.57341
2592.642, 22.98095
2594.571, 23.67015
2596.499, 23.80897
2598.427, 22.65960
2600.356, 22.75839
2602.284, 23.33158
2604.213, 23.15907
2606.141, 23.66625
2608.070, 23.71827
2609.998, 24.00938
2611.927, 23.85692
2613.855, 23.08643
2615.784, 23.02348
2617.712, 22.00714
2619.641, 21.10546
2621.569, 21.08235
2623.498, 20.61677
2625.426, 20.53081
2627.354, 20.66391
2629.283, 20.88562
2631.211, 21.23427
2633.140, 21.25959
2635.068, 21.66485
2636.997, 21.29579
2638.925, 21.57471
2640.854, 21.35767
2642.782, 21.29107
2644.711, 21.20205
2646.639, 20.56439
2648.568, 19.62516
2650.496, 19.32361
2652.425, 18.68959
2654.353, 18.71895
2656.281, 18.19540
2658.210, 18.95251
2660.138, 19.71963
2662.067, 19.69909
2663.995, 18.83972
2665.924, 18.91879
2667.852, 19.46009
2669.781, 19.90895
2671.709, 19.27938
2673.638, 18.20008
2675.566, 17.98436
2677.495, 18.29723
2679.423, 18.46111
2681.352, 18.07502
2683.280, 18.62590
2685.208, 19.10137
2687.137, 18.67330
2689.065, 18.52971
2690.994, 18.76011
2692.922, 19.36368
2694.851, 18.92447
2696.779, 17.51545
2698.708, 18.09976
2700.636, 17.01277
2702.565, 17.91715
2704.493, 17.26666
2706.422, 16.69713
2708.350, 17.09040
2710.279, 17.93249
2712.207, 16.47298
2714.135, 15.95448
2716.064, 16.39188
2717.992, 17.60090
2719.921, 17.48337
2721.849, 16.59175
2723.778, 17.25800
2725.706, 17.26779
2727.635, 17.02371
2729.563, 17.33872
2731.492, 16.77751
2733.420, 16.48283
2735.349, 16.12792
2737.277, 15.70612
2739.206, 16.04686
2741.134, 16.25007
2743.063, 15.48765
2744.991, 15.79689
2746.919, 17.12545
2748.848, 17.26250
2750.776, 16.86831
2752.705, 16.18139
2754.633, 16.19332
2756.562, 15.61490
2758.490, 15.48875
2760.419, 15.12807
2762.347, 15.06789
2764.276, 15.53968
2766.204, 15.03180
2768.133, 14.32882
2770.061, 14.23407
2771.990, 14.97600
2773.918, 15.20152
2775.846, 15.22474
2777.775, 15.15385
2779.703, 15.27120
2781.632, 14.45543
2783.560, 13.34782
2785.489, 14.24745
2787.417, 14.15607
2789.346, 13.68567
2791.274, 14.15400
2793.203, 14.07711
2795.131, 13.69183
2797.060, 13.77742
2798.988, 15.26942
2800.917, 15.73347
2802.845, 14.37624
2804.773, 13.69646
2806.702, 13.30933
2808.630, 13.00281
2810.559, 12.92643
2812.487, 12.44876
2814.416, 12.33905
2816.344, 12.45864
2818.273, 13.27960
2820.201, 12.66208
2822.130, 12.67704
2824.058, 12.35274
2825.987, 11.95670
2827.915, 11.73085
2829.844, 12.34904
2831.772, 12.61943
2833.700, 12.61355
2835.629, 12.86263
2837.557, 12.99962
2839.486, 12.64762
2841.414, 11.55046
2843.343, 12.26389
2845.271, 12.48149
2847.200, 11.74829
2849.128, 12.64739
2851.057, 12.69327
2852.985, 12.23677
2854.914, 13.06675
2856.842, 13.27073
2858.771, 13.00285
2860.699, 12.40070
2862.627, 12.51015
2864.556, 12.43535
2866.484, 11.97976
2868.413, 12.75261
2870.341, 12.85857
2872.270, 12.26491
2874.198, 11.44318
2876.127, 12.00775
2878.055, 12.33154
2879.984, 11.25457
2881.912, 11.21145
2883.841, 11.64578
2885.769, 11.91819
2887.698, 11.03351
2889.626, 10.48720
2891.554, 10.23077
2893.483, 10.26140
2895.411, 10.89004
2897.340, 11.51734
2899.268, 12.00111
2901.197, 11.43037
2903.125, 10.96553
2905.054, 10.65831
2906.982, 9.929841
2908.911, 10.01950
2910.839, 10.02527
2912.768, 9.770894
2914.696, 11.24445
2916.625, 11.68218
2918.553, 11.15473
2920.481, 11.69171
2922.410, 11.46888
2924.338, 11.07401
2926.267, 11.39262
2928.195, 11.30397
2930.124, 11.29037
2932.052, 11.42502
2933.981, 10.91996
2935.909, 11.43802
2937.838, 11.71026
2939.766, 9.961745
2941.695, 9.995313
2943.623, 10.75962
2945.552, 11.21524
2947.480, 10.49925
2949.408, 9.602338
2951.337, 9.234833
2953.265, 10.23692
2955.194, 10.80151
2957.122, 10.47200
2959.051, 9.139490
2960.979, 9.133033
2962.908, 9.604072
2964.836, 9.786180
2966.765, 9.109470
2968.693, 9.765685
2970.622, 9.547079
2972.550, 8.168504
2974.479, 7.400616
2976.407, 7.154701
2978.335, 7.948002
2980.264, 9.727363
2982.192, 9.011561
2984.121, 7.541250
2986.049, 6.920009
2987.978, 8.642948
2989.906, 9.292199
2991.835, 9.019895
2993.763, 8.490807
2995.692, 8.933289
2997.620, 8.335084
2999.549, 8.258802
3001.477, 7.914656
3003.406, 7.819732
3005.334, 7.595385
3007.262, 7.911477
3009.191, 7.318791
3011.119, 7.334063
3013.048, 7.505462
3014.976, 7.034881
3016.905, 6.569323
3018.833, 6.833495
3020.762, 7.385783
3022.690, 6.731108
3024.619, 6.865808
3026.547, 7.012826
3028.476, 6.053370
3030.404, 4.485664
3032.333, 5.887281
3034.261, 7.925097
3036.189, 6.060544
3038.118, 6.697682
3040.046, 7.373563
3041.975, 7.217845
3043.903, 5.875056
3045.832, 6.031889
3047.760, 6.238076
3049.689, 5.778989
3051.617, 6.735835
3053.546, 6.152772
3055.474, 5.460073
3057.403, 5.970806
3059.331, 6.314119
3061.260, 6.256163
3063.188, 5.471896
3065.116, 5.527524
3067.045, 6.962877
3068.973, 7.352758
3070.902, 6.277450
3072.830, 5.938964
3074.759, 5.065992
3076.687, 4.766684
3078.616, 4.387412
3080.544, 5.038013
3082.473, 4.339086
3084.401, 4.889277
3086.330, 6.042459
3088.258, 5.609776
3090.187, 5.450697
3092.115, 5.824935
3094.043, 6.703150
3095.972, 6.159026
3097.900, 5.370798
3099.829, 4.971079
3101.757, 4.066835
3103.686, 5.092743
3105.614, 6.261075
3107.543, 4.849130
3109.471, 4.597027
3111.400, 5.865105
3113.328, 6.849725
3115.257, 4.922433
3117.185, 4.710480
3119.114, 5.272577
3121.042, 5.543140
3122.970, 5.737127
3124.899, 5.123434
3126.827, 4.969553
3128.756, 5.208140
3130.684, 5.644819
3132.613, 5.806123
3134.541, 5.727927
3136.470, 5.772186
3138.398, 5.057417
3140.327, 4.378355
3142.255, 3.585383
3144.184, 3.050128
3146.112, 5.233531
3148.041, 6.230064
3149.969, 4.980031
3151.897, 2.442744
3153.826, 3.375462
3155.754, 4.351801
3157.683, 5.327214
3159.611, 4.963379
3161.540, 4.324385
3163.468, 4.214218
3165.397, 4.657896
3167.325, 5.558155
3169.254, 5.386296
3171.182, 4.094481
3173.111, 3.433881
3175.039, 4.796991
3176.968, 4.630665
3178.896, 4.873774
3180.824, 5.309727
3182.753, 5.131862
3184.681, 4.651473
3186.610, 4.396602
3188.538, 4.678465
3190.467, 4.888658
3192.395, 4.923736
3194.324, 4.964835
3196.252, 4.927859
3198.181, 4.149317
3200.109, 5.158534
3202.038, 4.690248
3203.966, 4.136298
3205.895, 5.190176
3207.823, 6.539809
3209.751, 5.382440
3211.680, 4.408217
3213.608, 6.132589
3215.537, 5.520158
3217.465, 4.786468
3219.394, 4.161173
3221.322, 3.601028
3223.251, 3.039888
3225.179, 4.376090
3227.108, 5.497333
3229.036, 5.264865
3230.965, 5.027339
3232.893, 5.621920
3234.822, 5.417668
3236.750, 5.445847
3238.678, 4.620542
3240.607, 5.146008
3242.535, 5.067351
3244.464, 4.538374
3246.392, 5.857108
3248.321, 4.959295
3250.249, 4.612802
3252.178, 5.070570
3254.106, 5.813142
3256.035, 6.084355
3257.963, 5.040456
3259.892, 3.985787
3261.820, 5.190841
3263.749, 4.002564
3265.677, 4.514740
3267.605, 5.942964
3269.534, 6.078840
3271.462, 5.393142
3273.391, 5.372198
3275.319, 5.667077
3277.248, 6.008222
3279.176, 6.574331
3281.105, 6.681301
3283.033, 6.377217
3284.962, 6.725134
3286.890, 5.437545
3288.819, 4.676039
3290.747, 4.353220
3292.676, 5.228430
3294.604, 5.174880
3296.532, 5.562207
3298.461, 6.185370
3300.389, 6.408264
3302.318, 6.606497
3304.246, 7.193070
3306.175, 7.516546
3308.103, 7.602504
3310.032, 7.328020
3311.960, 6.664169
3313.889, 8.540442
3315.817, 9.566098
3317.746, 8.924845
3319.674, 7.707966
3321.603, 7.731425
3323.531, 7.736943
3325.459, 7.981384
3327.388, 8.898132
3329.316, 9.095469
3331.245, 10.05065
3333.173, 10.32419
3335.102, 10.45449
3337.030, 12.99123
3338.959, 12.87251
3340.887, 13.19164
3342.816, 14.16806
3344.744, 14.39280
3346.673, 14.69542
3348.601, 14.33203
3350.530, 13.94306
3352.458, 14.08226
3354.386, 13.88905
3356.315, 13.92787
3358.243, 12.94103
3360.172, 12.86282
3362.100, 11.21794
3364.029, 11.87362
3365.957, 11.00141
3367.886, 10.04095
3369.814, 9.735111
3371.743, 8.938892
3373.671, 8.600771
3375.600, 7.554248
3377.528, 6.952262
3379.457, 5.701074
3381.385, 7.243193
3383.313, 8.010103
3385.242, 7.792599
3387.170, 7.096372
3389.099, 8.190437
3391.027, 7.210490
3392.956, 7.111899
3394.884, 7.357208
3396.813, 6.311423
3398.741, 5.557027
3400.670, 7.493004
3402.598, 6.978559
3404.527, 4.515785
3406.455, 6.249283
3408.384, 8.360076
3410.312, 6.347911
3412.240, 4.372640
3414.169, 4.823986
3416.097, 3.544066
3418.026, 4.405818
3419.954, 4.542387
3421.883, 3.939046
3423.811, 3.840737
3425.740, 4.901447
3427.668, 5.354944
3429.597, 5.125648
3431.525, 4.604317
3433.454, 4.263155
3435.382, 3.487186
3437.311, 3.766297
3439.239, 2.953694
3441.167, 1.897432
3443.096, 5.355700
3445.024, 4.401571
3446.953, 4.588614
3448.881, 4.482165
3450.810, 3.085159
3452.738, 4.122520
3454.667, 3.384541
3456.595, 4.264120
3458.524, 4.617522
3460.452, 2.864229
3462.381, 3.912510
3464.309, 3.346587
3466.238, 4.680444
3468.166, 5.655055
3470.094, 3.686988
3472.023, 3.065663
3473.951, 3.208045
3475.880, 3.982092
3477.808, 4.413577
3479.737, 3.573507
3481.665, 1.637053
3483.594, 2.763493
3485.522, 2.651277
3487.451, 2.207198
3489.379, 3.448806
3491.308, -0.8917795
3493.236, 1.981266
3495.165, 1.468845
3497.093, -0.4329528
3499.021, 2.377926
3500.950, 1.315608
3502.878, 0.2760163
3504.807, 2.160104
3506.735, 3.385833
3508.664, 0.5534991
3510.592, 1.900378
3512.521, 3.306831
3514.449, 2.655007
3516.378, 1.547412
3518.306, 1.651352
3520.235, 0.9911539
3522.163, 1.524933
3524.092, 2.121109
3526.020, 1.810779
3527.948, 1.060398
3529.877, 2.736805
3531.805, 1.870537
3533.734, 0.4979595
3535.662, 0.6621816
3537.591, 1.679011
3539.519, 0.2843879
3541.448, 1.536547
3543.376, 4.014792
3545.305, 4.194376
3547.233, 2.903132
3549.162, 3.677869
3551.090, 1.461333
3553.019, 1.361763
3554.947, 0.5935722
3556.875, 4.1504141E-02
3558.804, 1.698171
3560.732, 0.5741438
3562.661, 1.611071
3564.589, 1.045712
3566.518, 0.7689397
3568.446, 2.330221
3570.375, 1.623226
3572.303, 1.368902
3574.232, 2.938068
3576.160, 3.797878
3578.089, 2.788457
3580.017, 0.9915631
3581.946, 1.245730
3583.874, 1.450088
3585.802, 1.474145
3587.731, 1.267061
3589.659, 1.108451
3591.588, 1.051197
3593.516, 0.9998990
3595.445, 0.9118057
3597.373, 1.008974
3599.302, 1.074341
3601.230, 1.034172
3603.159, 1.996409
3605.087, 2.755288
3607.016, 0.5120873
3608.944, -0.8313555
3610.873, 1.504658
3612.801, 1.266513
3614.729, 1.860110
3616.658, 1.144028
3618.586, 1.635682
3620.515, 1.612906
3622.443, 2.551435
3624.372, 1.470289
3626.300, 1.584727
3628.229, 0.8886756
3630.157, 1.138447
3632.086, 2.260185
3634.014, 2.2099489E-02
3635.943, 0.1037519
3637.871, 0.5184516
3639.800, 1.923294
3641.728, 2.378800
3643.656, 1.559397
3645.585, 1.812970
3647.513, 1.985872
3649.442, 0.7054123
3651.370, 0.2082199
3653.299, -0.3126989
3655.227, -0.4374598
3657.156, -1.252492
3659.084, 1.689427
3661.013, 2.706232
3662.941, 1.625812
3664.870, 0.5192154
3666.798, 0.5520610
3668.727, -0.7163770
3670.655, 0.2401659
3672.583, 2.043064
3674.512, 3.014257
3676.440, 2.274476
3678.369, 0.2767836
3680.297, 1.185205
3682.226, 1.180122
3684.154, 1.653307
3686.083, 0.9823604
3688.011, 0.4320892
3689.940, 2.496724
3691.868, 3.115167
3693.797, 1.098741
3695.725, -1.426926
3697.654, -1.399000
3699.582, 0.4003400
3701.510, 1.274744
3703.439, 1.167630
3705.367, 4.1762859E-02
3707.296, -0.8419034
3709.224, -0.3611994
3711.153, 0.7912613
3713.081, 1.416660
3715.010, 1.395886
3716.938, 1.304691
3718.867, -0.2955598
3720.795, 0.8703258
3722.724, 0.5231549
3724.652, -1.884832
3726.581, 1.866949
3728.509, -1.710769
3730.438, -2.144920
3732.366, 7.4016541E-02
3734.294, 1.662405
3736.223, 1.175217
3738.151, -0.4576178
3740.080, -0.7858954
3742.008, -1.019327
3743.937, 8.9067340E-02
3745.865, 1.609286
3747.794, 1.714618
3749.722, 0.1848321
3751.651, -0.7235038
3753.579, 0.6013833
3755.508, 1.904036
3757.436, 2.000966
3759.365, 1.347446
3761.293, 1.016236
3763.221, 1.102466
3765.150, -1.186972
3767.078, 1.178059
3769.007, 1.830455
3770.935, 0.7511251
3772.864, 5.7660349E-02
3774.792, 2.2494230E-02
3776.721, -0.8172821
3778.649, -0.9921917
3780.578, -1.173734
3782.506, -1.045377
3784.435, -1.508063
3786.363, -0.5045068
3788.292, -0.7770990
3790.220, -0.8199251
3792.148, 2.373536
3794.077, 1.039300
3796.005, 0.8097584
3797.934, -0.2428404
3799.862, -1.297178
3801.791, -9.6079707E-02
3803.719, 1.685303
3805.648, -0.1962825
3807.576, 1.098025
3809.505, -0.2512327
3811.433, -0.9622668
3813.362, 0.6461441
3815.290, 2.127308
3817.219, 0.5927786
3819.147, -0.7990636
3821.075, -0.7231105
3823.004, 0.1613902
3824.932, 0.7511715
3826.861, 0.9586635
3828.789, 1.197346
3830.718, 1.590445
3832.646, 2.013715
3834.575, 1.987211
3836.503, 2.767665
3838.432, 1.587209
3840.360, 1.233602
3842.289, 0.2213502
3844.217, -1.861687
3846.146, -0.2876282
3848.074, 3.632419
3850.002, 2.804882
3851.931, 0.3594264
3853.859, -0.9549220
3855.788, -1.761425
3857.716, -2.183564
3859.645, 0.2441722
3861.573, -0.7987359
3863.502, -0.3181993
3865.430, -4.3078191E-03
3867.359, -0.6410932
3869.287, 4.1729771E-03
3871.216, 0.4252472
3873.144, -2.292608
3875.073, -2.931318
3877.001, 0.6575708
3878.929, 4.206052
3880.858, 1.586908
3882.786, -0.1766889
3884.715, 0.3880717
3886.643, 0.4987053
3888.572, -0.1271894
3890.500, 0.3403547
3892.429, -4.7137290E-02
3894.357, 6.9876283E-02
3896.286, 0.1415902
3898.214, -0.9545464
3900.143, -0.3920347
3902.071, 1.719851
3904.000, 1.166344
3905.928, -0.7815731
3907.856, -0.2237982
3909.785, -1.824575
3911.713, 0.6366543
3913.642, 1.167358
3915.570, -0.6358415
3917.499, -1.420980
3919.427, -0.7060724
3921.356, 0.6960914
3923.284, -1.133183
3925.213, 0.1621600
3927.141, 1.681663
3929.070, 0.3070052
3930.998, -0.1854175
3932.927, 3.9323710E-02
3934.855, -1.182886
3936.783, -4.5261860E-02
3938.712, 0.1351058
3940.640, 0.4271431
3942.569, 1.321897
3944.497, 1.734715
3946.426, 1.634085
3948.354, 1.371394
3950.283, 0.4963958
3952.211, -0.2182845
3954.140, 1.307351
3956.068, 2.361585
3957.997, 0.4629046
3959.925, -0.6814708
3961.854, -0.4794829
3963.782, 0.4271298
3965.710, 0.5247868
3967.639, -5.4554600E-02
3969.567, -9.4544448E-02
3971.496, -0.6267098
3973.424, -0.6702901
3975.353, 0.2174352
3977.281, 0.6533376
3979.210, 9.3145899E-02
3981.138, 0.8773436
3983.067, 0.9841200
3984.995, -0.1925344
3986.924, -7.5745128E-02
3988.852, 1.306557
3990.781, 2.267955
3992.709, 0.6760617
3994.637, -0.1422322
3996.566, -0.8135495
3998.494, -1.242589
4000.423, -0.9863676
4002.351, 0.1384525
4004.280, 1.070170
4006.208, 0.4226813
4008.137, 1.906441
4010.065, -0.9115556
4011.994, -0.8863894
4013.922, -0.6912506
4015.851, -0.1063024
4017.779, -0.8026018
4019.708, -0.6631158
4021.636, 0.4941730
4023.564, -0.8682719
4025.493, -9.2691787E-02
4027.421, 0.5322832
4029.350, 1.176448
4031.278, 1.842682
4033.207, -9.4657503E-02
4035.135, 1.727088
4037.064, 1.870015
4038.992, -0.9500605
4040.921, -0.8674504
4042.849, 1.598743
4044.778, -1.494969
4046.706, -0.4793131
4048.635, -0.8478556
4050.563, -0.4222637
4052.491, -4.8653115E-02
4054.420, 0.1066697
4056.348, 0.2255287
4058.277, 0.7611554
4060.205, 0.2203811
4062.134, 0.3025381
4064.062, 1.156150
4065.991, 1.228104
4067.919, -0.9370996
4069.848, -1.225019
4071.776, -0.1783345
4073.705, -1.393271
4075.633, -1.243394
4077.562, -1.222934
4079.490, -1.527547
4081.418, 0.1496687
4083.347, 0.2204265
4085.275, 2.917849
4087.204, 2.817348
4089.132, 2.175597
4091.061, 3.573811
4092.989, 1.083195
4094.918, 1.498397
4096.846, 0.1035703
4098.774, -1.398396
4100.703, -1.208453
4102.632, -1.582565
4104.560, -0.4554263
4106.488, -2.299920
4108.417, -2.362089
4110.346, -0.9599155
4112.274, -1.670761
4114.202, 1.116215
4116.131, -3.058538
4118.060, -3.423598
4119.988, -0.4618534
4121.916, -7.5352222E-02
4123.845, -1.759361
4125.773, -2.501045
4127.702, -0.3861981
4129.630, -0.2629443
4131.559, -2.678856
4133.487, -1.669974
4135.416, 0.1225427
4137.344, 0.1045384
4139.272, 1.766562
4141.201, 0.9507775
4143.129, -4.0489059E-02
4145.058, 0.1020830
4146.986, 0.8484452
4148.915, 1.468911
4150.843, -0.3781680
4152.771, 0.4657516
4154.700, -9.5294341E-02
4156.629, -0.8396805
4158.557, 0.6317760
4160.485, 0.9144646
4162.414, 0.9611111
4164.343, -0.4701099
4166.271, -0.5183105
4168.199, -9.0117209E-02
4170.128, -0.7087170
4172.057, -0.2588019
4173.985, 0.8550612
4175.913, -0.2643488
4177.842, 0.4470052
4179.771, -0.2588683
4181.699, 0.5297354
4183.627, 0.6338519
4185.556, -0.5867492
4187.484, 1.338462
4189.413, -2.067327
4191.341, -2.411304
4193.270, -1.915176
4195.198, -1.304466
4197.126, 0.1207065
4199.055, 0.9260235
4200.983, 0.5676156
4202.912, 0.4017491
4204.840, 0.9125007
4206.769, -0.2453284
4208.697, 0.5852916
4210.626, 1.2249850E-02
4212.554, -0.4054103
4214.482, -0.2837327
4216.411, -0.4444646
4218.340, 5.0635770E-02
4220.268, -1.328092
4222.196, -7.8923158E-02
4224.125, 1.271083
4226.054, -0.3445218
4227.982, -1.857713
4229.910, 0.2545471
4231.839, 2.739937
4233.768, 1.028916
4235.696, 9.5655970E-02
4237.624, 1.186042
4239.553, -7.3916674E-02
4241.481, 1.344584
4243.410, -0.7327865
4245.338, 0.8331090
4247.267, -1.467748
4249.195, -1.100125
4251.124, -0.2123395
4253.052, -1.085539
4254.980, -0.2868799
4256.909, -1.171207
4258.837, -1.106676
4260.766, 1.155863
4262.694, -1.337007
4264.623, 0.2323464
4266.551, 0.1664152
4268.479, -1.430941
4270.408, -0.5201340
4272.337, -0.3919873
4274.265, -1.170782
4276.193, 3.1247189E-02
4278.122, -0.5692619
4280.051, -0.3465706
4281.979, -0.8993489
4283.907, -1.104949
4285.836, 1.390018
4287.765, -0.7093382
4289.693, 0.8455772
4291.621, 0.5802573
4293.550, 0.4085762
4295.479, 1.319299
4297.407, -0.5741273
4299.335, 1.748582
4301.264, 1.902936
4303.192, 0.9209787
4305.121, -6.6269487E-02
4307.049, -0.6741160
4308.978, 0.4091396
4310.906, 0.9118885
4312.834, -0.9020068
4314.763, 0.5428716
4316.691, 0.1301696
4318.620, -5.9817180E-02
4320.548, -0.5703409
4322.477, -0.9860021
4324.405, 0.3915551
4326.334, 0.9644276
4328.262, -0.9040280
4330.190, -4.8007570E-02
4332.119, -0.6923033
4334.048, 1.221485
4335.976, 0.5364853
4337.904, -0.1585726
4339.833, -4.1829720E-02
4341.762, -0.5081566
4343.690, -0.8800256
4345.618, -0.1927920
4347.547, -0.2067456
4349.476, -0.6775087
4351.404, -1.198616
4353.332, -1.803512
4355.261, -0.2690938
4357.189, 1.274621
4359.118, 0.3144718
4361.046, -0.1930169
4362.975, -0.9871401
4364.903, -1.641056
4366.832, -1.066108
4368.760, -2.559048
4370.688, 1.8933451E-02
4372.617, 0.5526648
4374.545, -1.812304
4376.474, 0.4157764
4378.402, -1.526599
##END=



