##NAMES=Asbecasite
##RRUFFID=R060719
##IDEAL CHEMISTRY=Ca_3_TiAs_6_Be_2_Si_2_O_20_
##LOCALITY=Binntal, Wallis, Switzerland
##OWNER=RRUFF
##SOURCE=Bob Jenkins
##DESCRIPTION=Brownish-yellow transparent fragments associated with dark green chamosite
##STATUS=The identification of this mineral has been confirmed by single-crystal X-ray diffraction
##URL=https://www.rruff.net/odr/rruff_sample/R060719
##DIFFRACTION SAMPLE DESCRIPTION=Single crystal, powder profile is calculated
##CELL PARAMETERS=a: 8.2993 b: 8.2993 c: 15.247 alpha: 90 beta: 90 gamma: 120 volume: 909.5 crystal system: hexagonal
##FILETYPE=Raman RAW
##RAMAN WAVELENGTH=785

117.6380, 749.8810
119.5670, 800.6300
121.4950, 1064.706
123.4240, 1535.755
125.3520, 2169.457
127.2810, 3130.558
129.2090, 4010.188
131.1380, 4634.342
133.0660, 5034.840
134.9950, 5176.497
136.9230, 5001.298
138.8520, 5181.427
140.7800, 5830.448
142.7080, 6763.267
144.6370, 8126.363
146.5650, 9562.413
148.4940, 10665.81
150.4220, 11411.49
152.3510, 11909.73
154.2790, 12074.45
156.2080, 12230.99
158.1360, 12419.84
160.0650, 12708.81
161.9930, 13192.85
163.9220, 13832.16
165.8500, 14433.53
167.7790, 15002.15
169.7070, 15510.25
171.6350, 15931.52
173.5640, 16316.06
175.4920, 16657.22
177.4210, 16992.30
179.3490, 17430.35
181.2780, 17974.23
183.2060, 18336.91
185.1350, 18462.70
187.0630, 18488.56
188.9920, 18349.39
190.9200, 18234.84
192.8490, 18278.26
194.7770, 18480.77
196.7060, 18834.77
198.6340, 19355.28
200.5620, 19904.81
202.4910, 20520.36
204.4190, 21060.50
206.3480, 21414.02
208.2760, 21682.96
210.2050, 22029.74
212.1330, 22450.67
214.0620, 22869.30
215.9900, 23312.29
217.9190, 23661.12
219.8470, 23870.46
221.7760, 23980.95
223.7040, 23992.59
225.6330, 23922.94
227.5610, 23789.49
229.4900, 23586.03
231.4180, 23503.01
233.3460, 23590.82
235.2750, 23766.46
237.2030, 24007.90
239.1320, 24305.29
241.0600, 24641.66
242.9890, 25028.27
244.9170, 25490.63
246.8460, 26026.81
248.7740, 26656.70
250.7030, 27420.79
252.6310, 28237.82
254.5600, 29083.73
256.4880, 29958.32
258.4170, 30889.51
260.3450, 31857.27
262.2730, 32762.32
264.2020, 33618.36
266.1300, 34333.29
268.0590, 34882.39
269.9870, 35274.64
271.9160, 35471.73
273.8440, 35535.24
275.7730, 35541.16
277.7010, 35487.60
279.6300, 35368.18
281.5580, 35194.93
283.4870, 34900.68
285.4150, 34424.84
287.3440, 33869.43
289.2720, 33262.55
291.2000, 32603.08
293.1290, 31833.94
295.0570, 30997.90
296.9860, 30314.20
298.9140, 29811.09
300.8430, 29381.54
302.7710, 28988.99
304.7000, 28680.02
306.6280, 28464.77
308.5570, 28347.87
310.4850, 28323.92
312.4140, 28405.87
314.3420, 28641.25
316.2710, 29035.30
318.1990, 29566.68
320.1270, 30364.84
322.0560, 31126.55
323.9840, 31907.97
325.9130, 32493.08
327.8410, 32659.80
329.7700, 32443.40
331.6980, 31949.66
333.6270, 31165.74
335.5550, 30339.74
337.4840, 29435.66
339.4120, 28630.98
341.3410, 28019.70
343.2690, 27465.10
345.1980, 26873.65
347.1260, 26278.24
349.0540, 25725.24
350.9830, 25218.50
352.9110, 24794.07
354.8400, 24453.71
356.7680, 24203.13
358.6970, 24064.36
360.6250, 23977.07
362.5540, 23922.28
364.4820, 23899.33
366.4110, 23948.41
368.3390, 24025.00
370.2670, 24002.56
372.1960, 23873.06
374.1250, 23677.24
376.0530, 23395.71
377.9810, 23085.89
379.9100, 22727.74
381.8380, 22379.98
383.7670, 22082.08
385.6950, 21819.55
387.6240, 21565.01
389.5520, 21321.52
391.4810, 21112.91
393.4090, 20953.37
395.3380, 20787.50
397.2660, 20593.95
399.1940, 20411.98
401.1230, 20273.90
403.0520, 20129.94
404.9800, 19910.18
406.9080, 19666.85
408.8370, 19497.38
410.7650, 19396.90
412.6940, 19294.65
414.6220, 19176.87
416.5510, 19081.31
418.4790, 19004.50
420.4080, 18961.71
422.3360, 18966.69
424.2650, 19001.34
426.1930, 19051.72
428.1220, 19120.95
430.0500, 19223.52
431.9780, 19356.20
433.9070, 19465.31
435.8350, 19542.60
437.7640, 19605.88
439.6920, 19676.79
441.6210, 19708.36
443.5490, 19684.75
445.4780, 19619.53
447.4060, 19534.91
449.3350, 19406.82
451.2630, 19185.70
453.1920, 18882.33
455.1200, 18581.84
457.0490, 18275.19
458.9770, 18009.86
460.9050, 17796.67
462.8340, 17607.31
464.7620, 17438.98
466.6910, 17289.41
468.6190, 17177.23
470.5480, 17069.65
472.4760, 16926.90
474.4050, 16761.57
476.3330, 16611.57
478.2620, 16480.60
480.1900, 16347.25
482.1190, 16218.49
484.0470, 16071.12
485.9760, 15898.42
487.9040, 15710.36
489.8320, 15517.07
491.7610, 15301.41
493.6890, 15042.60
495.6180, 14758.36
497.5460, 14460.65
499.4750, 14156.48
501.4030, 13898.01
503.3320, 13699.60
505.2600, 13507.93
507.1890, 13313.47
509.1170, 13140.17
511.0460, 12986.71
512.9740, 12858.20
514.9030, 12754.70
516.8310, 12677.51
518.7600, 12657.40
520.6880, 12645.90
522.6170, 12569.43
524.5450, 12430.27
526.4730, 12240.83
528.4020, 11967.54
530.3300, 11762.94
532.2590, 11651.87
534.1870, 11556.66
536.1160, 11476.97
538.0440, 11399.30
539.9730, 11308.71
541.9010, 11228.80
543.8300, 11179.06
545.7580, 11146.42
547.6870, 11120.73
549.6150, 11098.58
551.5440, 11064.29
553.4720, 11015.19
555.4000, 10977.27
557.3290, 10959.51
559.2570, 10932.58
561.1860, 10909.21
563.1140, 10848.21
565.0430, 10732.05
566.9710, 10585.35
568.9000, 10405.36
570.8280, 10216.97
572.7570, 10033.90
574.6850, 9859.544
576.6140, 9694.009
578.5420, 9540.703
580.4700, 9431.309
582.3990, 9377.248
584.3270, 9296.756
586.2560, 9184.354
588.1840, 9065.953
590.1130, 8947.155
592.0410, 8813.266
593.9700, 8636.979
595.8980, 8480.425
597.8270, 8388.870
599.7550, 8317.962
601.6830, 8235.712
603.6120, 8153.606
605.5410, 8090.546
607.4690, 8042.993
609.3970, 7995.133
611.3260, 7947.037
613.2540, 7911.187
615.1830, 7892.459
617.1110, 7856.352
619.0400, 7789.730
620.9680, 7740.119
622.8970, 7719.242
624.8250, 7714.421
626.7540, 7728.479
628.6820, 7745.761
630.6100, 7754.841
632.5390, 7765.673
634.4680, 7808.405
636.3960, 7846.363
638.3240, 7807.253
640.2530, 7706.383
642.1810, 7608.973
644.1100, 7515.329
646.0380, 7423.380
647.9670, 7334.306
649.8950, 7237.798
651.8240, 7127.310
653.7520, 7037.381
655.6810, 6980.497
657.6090, 6932.641
659.5370, 6885.190
661.4660, 6844.038
663.3940, 6798.131
665.3230, 6773.572
667.2510, 6804.416
669.1800, 6853.665
671.1080, 6876.555
673.0370, 6884.019
674.9650, 6892.286
676.8940, 6906.017
678.8220, 6963.758
680.7510, 7061.923
682.6790, 7109.488
684.6080, 7101.375
686.5360, 7075.071
688.4640, 7035.398
690.3930, 6971.519
692.3210, 6871.640
694.2500, 6773.498
696.1780, 6703.279
698.1070, 6614.025
700.0350, 6479.438
701.9640, 6332.977
703.8920, 6187.276
705.8210, 6045.653
707.7490, 5910.191
709.6780, 5781.327
711.6060, 5655.550
713.5350, 5537.800
715.4630, 5445.984
717.3910, 5373.746
719.3200, 5285.229
721.2480, 5184.465
723.1770, 5115.683
725.1050, 5081.830
727.0340, 5040.385
728.9620, 4985.900
730.8910, 4930.238
732.8190, 4869.982
734.7480, 4826.444
736.6760, 4809.008
738.6050, 4801.126
740.5330, 4815.739
742.4620, 4812.919
744.3900, 4759.403
746.3180, 4705.849
748.2470, 4688.450
750.1750, 4678.485
752.1040, 4645.867
754.0320, 4610.667
755.9610, 4613.827
757.8890, 4622.879
759.8180, 4570.937
761.7460, 4478.986
763.6750, 4400.959
765.6030, 4333.791
767.5320, 4263.564
769.4600, 4191.742
771.3890, 4134.667
773.3170, 4093.350
775.2450, 4078.298
777.1740, 4096.207
779.1020, 4101.519
781.0310, 4079.710
782.9590, 4076.188
784.8880, 4115.720
786.8160, 4139.034
788.7450, 4123.253
790.6730, 4111.013
792.6020, 4117.779
794.5300, 4121.066
796.4590, 4108.950
798.3870, 4095.804
800.3160, 4088.735
802.2440, 4084.089
804.1720, 4086.061
806.1010, 4081.904
808.0290, 4059.300
809.9580, 4024.390
811.8860, 3975.814
813.8150, 3925.552
815.7430, 3888.009
817.6720, 3863.481
819.6000, 3851.507
821.5290, 3854.195
823.4570, 3888.161
825.3860, 3940.715
827.3140, 3967.869
829.2430, 3965.815
831.1710, 3904.185
833.0990, 3782.224
835.0280, 3667.379
836.9560, 3561.836
838.8850, 3464.811
840.8130, 3374.259
842.7420, 3301.500
844.6700, 3249.785
846.5990, 3209.251
848.5270, 3183.152
850.4560, 3161.317
852.3840, 3143.813
854.3130, 3129.203
856.2410, 3117.461
858.1700, 3108.031
860.0980, 3099.368
862.0270, 3095.563
863.9550, 3105.880
865.8830, 3108.718
867.8120, 3090.372
869.7400, 3073.561
871.6690, 3067.196
873.5970, 3065.573
875.5260, 3066.238
877.4540, 3070.331
879.3830, 3082.357
881.3110, 3092.781
883.2400, 3095.500
885.1680, 3093.208
887.0970, 3089.976
889.0250, 3079.973
890.9540, 3048.694
892.8820, 3018.052
894.8100, 3014.166
896.7390, 3017.026
898.6670, 3002.655
900.5960, 2983.915
902.5240, 2974.933
904.4530, 2974.656
906.3810, 2985.897
908.3100, 3001.402
910.2380, 3009.856
912.1670, 3011.362
914.0950, 3001.025
916.0240, 2986.281
917.9520, 2990.288
919.8810, 3004.414
921.8090, 3000.987
923.7370, 2985.941
925.6660, 2981.552
927.5940, 2984.682
929.5230, 2980.447
931.4510, 2970.894
933.3800, 2963.655
935.3080, 2960.443
937.2370, 2975.285
939.1650, 3005.734
941.0940, 3032.587
943.0220, 3054.460
944.9510, 3047.910
946.8790, 3015.270
948.8080, 3002.858
950.7360, 3009.462
952.6640, 3004.203
954.5930, 2987.305
956.5210, 2988.762
958.4500, 3008.457
960.3780, 3012.355
962.3070, 3000.201
964.2350, 3009.395
966.1640, 3040.909
968.0920, 3047.406
970.0210, 3028.397
971.9490, 3015.026
973.8780, 3007.275
975.8060, 3027.079
977.7350, 3074.783
979.6630, 3104.881
981.5910, 3116.594
983.5200, 3120.961
985.4480, 3118.305
987.3770, 3116.759
989.3050, 3116.869
991.2340, 3136.212
993.1620, 3174.096
995.0910, 3191.019
997.0190, 3187.650
998.9480, 3207.455
1000.876, 3249.572
1002.805, 3276.806
1004.733, 3289.022
1006.662, 3303.566
1008.590, 3320.352
1010.518, 3331.073
1012.447, 3336.794
1014.375, 3350.922
1016.304, 3372.340
1018.232, 3383.548
1020.161, 3387.956
1022.089, 3413.260
1024.018, 3457.170
1025.946, 3508.035
1027.875, 3561.267
1029.803, 3592.167
1031.732, 3605.349
1033.660, 3618.932
1035.589, 3636.662
1037.517, 3681.020
1039.446, 3739.824
1041.374, 3765.408
1043.302, 3768.965
1045.231, 3779.368
1047.159, 3798.199
1049.088, 3832.316
1051.016, 3877.052
1052.945, 3928.711
1054.873, 3978.976
1056.802, 4004.026
1058.730, 4020.999
1060.659, 4060.314
1062.587, 4112.515
1064.516, 4168.598
1066.444, 4222.098
1068.373, 4257.360
1070.301, 4291.083
1072.229, 4345.727
1074.158, 4408.005
1076.086, 4458.406
1078.015, 4514.916
1079.943, 4601.958
1081.872, 4693.785
1083.800, 4764.206
1085.729, 4837.075
1087.657, 4939.795
1089.586, 5036.732
1091.514, 5089.906
1093.443, 5153.754
1095.371, 5261.551
1097.299, 5380.505
1099.228, 5496.869
1101.156, 5621.076
1103.085, 5773.465
1105.013, 5906.853
1106.942, 5985.321
1108.870, 6084.535
1110.799, 6229.059
1112.727, 6378.479
1114.656, 6521.475
1116.584, 6678.828
1118.513, 6853.945
1120.441, 7036.195
1122.370, 7222.440
1124.298, 7419.868
1126.226, 7616.414
1128.155, 7885.003
1130.083, 8233.357
1132.012, 8602.198
1133.940, 8990.501
1135.869, 9463.300
1137.797, 10022.61
1139.726, 10687.14
1141.654, 11448.50
1143.583, 12242.50
1145.511, 13103.57
1147.440, 14148.40
1149.368, 15335.20
1151.297, 16569.21
1153.225, 17903.52
1155.153, 19378.66
1157.082, 21035.25
1159.010, 22876.48
1160.939, 24967.43
1162.867, 27290.95
1164.796, 29994.41
1166.724, 33040.48
1168.653, 36723.30
1170.581, 41160.29
1172.510, 46341.05
1174.438, 52360.09
1176.367, 58923.18
1178.295, 66172.30
1180.224, 73316.59
1182.152, 80365.40
1184.080, 86700.54
1186.009, 92362.76
1187.937, 96712.36
1189.866, 99673.20
1191.794, 101413.9
1193.723, 101938.6
1195.651, 101550.0
1197.580, 100267.8
1199.508, 98166.98
1201.437, 95350.97
1203.365, 92065.18
1205.294, 88415.44
1207.222, 84615.81
1209.151, 80619.83
1211.079, 76333.59
1213.007, 71850.44
1214.936, 67111.83
1216.864, 62417.49
1218.793, 57879.42
1220.721, 53582.79
1222.650, 49522.93
1224.578, 45802.79
1226.507, 42455.55
1228.435, 39436.92
1230.364, 36733.55
1232.292, 34377.32
1234.221, 32381.29
1236.149, 30647.56
1238.078, 29168.24
1240.006, 27951.75
1241.934, 26980.23
1243.863, 26059.12
1245.791, 25203.77
1247.720, 24470.26
1249.648, 23861.72
1251.577, 23394.87
1253.505, 23041.77
1255.434, 22782.07
1257.362, 22594.95
1259.291, 22434.40
1261.219, 22383.50
1263.148, 22501.46
1265.076, 22725.04
1267.005, 23017.64
1268.933, 23448.65
1270.861, 24039.03
1272.790, 24718.38
1274.718, 25468.24
1276.647, 26446.41
1278.575, 27655.12
1280.504, 28922.51
1282.432, 30283.54
1284.361, 31965.20
1286.289, 33884.65
1288.218, 35858.22
1290.146, 37915.13
1292.075, 40169.81
1294.003, 42425.02
1295.932, 44578.26
1297.860, 46543.08
1299.788, 48301.79
1301.717, 49798.31
1303.645, 51047.74
1305.574, 51940.42
1307.502, 52412.81
1309.431, 52738.73
1311.359, 52939.94
1313.288, 52898.84
1315.216, 52642.64
1317.145, 52339.06
1319.073, 52039.08
1321.002, 51776.74
1322.930, 51687.61
1324.859, 51864.26
1326.787, 52435.53
1328.715, 53399.16
1330.644, 54986.19
1332.572, 57068.23
1334.501, 60263.46
1336.429, 64518.17
1338.358, 70413.38
1340.286, 77761.55
1342.215, 87262.84
1344.143, 98903.82
1346.072, 113871.2
1348.000, 132065.1
1349.929, 153528.2
1351.857, 177297.8
1353.786, 204133.1
1355.714, 229124.7
1357.642, 250997.5
1359.571, 264041.3
1361.499, 265252.6
1363.428, 256048.9
1365.356, 233874.2
1367.285, 208708.8
1369.213, 180158.1
1371.142, 154526.3
1373.070, 131813.0
1374.999, 113034.1
1376.927, 97826.96
1378.856, 85239.66
1380.784, 74876.56
1382.713, 66529.13
1384.641, 59631.12
1386.569, 53939.73
1388.498, 49127.32
1390.426, 45149.08
1392.355, 41779.66
1394.283, 39002.55
1396.212, 36672.22
1398.140, 34792.79
1400.069, 33313.57
1401.997, 32191.03
1403.926, 31217.51
1405.854, 30416.09
1407.783, 29835.29
1409.711, 29447.05
1411.640, 29288.88
1413.568, 29206.57
1415.496, 29147.33
1417.425, 29132.22
1419.353, 29168.21
1421.282, 29230.69
1423.210, 29316.53
1425.139, 29445.10
1427.067, 29601.63
1428.996, 29737.52
1430.924, 29862.59
1432.853, 30010.91
1434.781, 30130.53
1436.710, 30169.90
1438.638, 30192.37
1440.567, 30216.65
1442.495, 30216.09
1444.423, 30183.13
1446.352, 30234.35
1448.280, 30357.46
1450.209, 30392.82
1452.137, 30382.07
1454.066, 30379.24
1455.994, 30431.70
1457.923, 30556.55
1459.851, 30811.71
1461.780, 31251.18
1463.708, 31749.30
1465.637, 32288.83
1467.565, 32826.53
1469.494, 33360.99
1471.422, 33918.05
1473.350, 34507.89
1475.279, 35201.46
1477.207, 35885.33
1479.136, 36469.00
1481.064, 36945.33
1482.993, 37287.32
1484.921, 37575.75
1486.850, 37836.53
1488.778, 37944.35
1490.707, 37905.54
1492.635, 37843.49
1494.564, 37752.90
1496.492, 37633.01
1498.421, 37455.67
1500.349, 37180.23
1502.277, 36862.45
1504.206, 36491.39
1506.134, 36176.34
1508.063, 35945.71
1509.991, 35658.34
1511.920, 35318.86
1513.848, 34966.90
1515.777, 34629.94
1517.705, 34326.99
1519.634, 34088.99
1521.562, 33949.72
1523.491, 33861.83
1525.419, 33785.18
1527.348, 33827.89
1529.276, 33994.51
1531.204, 34262.24
1533.133, 34637.20
1535.061, 35103.27
1536.990, 35743.33
1538.918, 36605.03
1540.847, 37723.29
1542.775, 39145.66
1544.704, 40758.27
1546.632, 42535.84
1548.561, 44553.80
1550.489, 46812.74
1552.418, 49320.82
1554.346, 52059.18
1556.275, 55032.99
1558.203, 58147.08
1560.131, 61302.91
1562.060, 64752.65
1563.988, 68599.83
1565.917, 72528.60
1567.845, 76548.27
1569.774, 80869.15
1571.702, 85358.63
1573.631, 89950.05
1575.559, 94381.75
1577.488, 98613.00
1579.416, 102390.1
1581.345, 105707.1
1583.273, 107975.4
1585.202, 109195.4
1587.130, 109343.5
1589.058, 108628.7
1590.987, 107202.6
1592.915, 105361.7
1594.844, 103174.6
1596.772, 100984.9
1598.701, 98851.35
1600.629, 97059.02
1602.558, 95636.71
1604.486, 94709.34
1606.415, 94098.17
1608.343, 93609.86
1610.272, 93268.82
1612.200, 93157.07
1614.129, 92880.02
1616.057, 92374.15
1617.985, 91654.92
1619.914, 90705.05
1621.842, 89424.12
1623.771, 87913.92
1625.699, 86202.73
1627.628, 84417.16
1629.556, 82564.96
1631.485, 80826.36
1633.413, 79224.13
1635.342, 77739.55
1637.270, 76424.59
1639.199, 75382.09
1641.127, 74569.81
1643.056, 73935.46
1644.984, 73603.69
1646.912, 73596.74
1648.841, 73724.59
1650.769, 73971.16
1652.698, 74375.17
1654.626, 74806.24
1656.555, 75131.32
1658.483, 75426.01
1660.412, 75766.19
1662.340, 75920.00
1664.269, 75857.85
1666.197, 75506.27
1668.126, 74856.19
1670.054, 73948.92
1671.983, 72699.76
1673.911, 71017.97
1675.839, 69057.76
1677.768, 66844.15
1679.696, 64469.17
1681.625, 61965.15
1683.553, 59393.79
1685.482, 56739.19
1687.410, 53907.43
1689.339, 51134.02
1691.267, 48463.48
1693.196, 45882.11
1695.124, 43399.63
1697.053, 41096.96
1698.981, 38916.33
1700.910, 36762.57
1702.838, 34798.73
1704.766, 33134.03
1706.695, 31489.39
1708.623, 29877.62
1710.552, 28475.18
1712.480, 27183.46
1714.409, 25883.13
1716.337, 24676.66
1718.266, 23615.84
1720.194, 22602.92
1722.123, 21639.14
1724.051, 20818.29
1725.980, 20088.62
1727.908, 19382.41
1729.837, 18745.62
1731.765, 18198.96
1733.693, 17708.17
1735.622, 17261.65
1737.550, 16808.59
1739.479, 16384.73
1741.407, 16048.64
1743.336, 15734.77
1745.264, 15422.33
1747.193, 15140.60
1749.121, 14890.81
1751.050, 14662.22
1752.978, 14449.13
1754.907, 14230.52
1756.835, 14056.61
1758.764, 13944.36
1760.692, 13821.29
1762.620, 13698.97
1764.549, 13649.29
1766.477, 13654.87
1768.406, 13712.33
1770.334, 13798.95
1772.263, 13911.62
1774.191, 14042.54
1776.120, 14209.22
1778.048, 14470.75
1779.977, 14775.03
1781.905, 15076.64
1783.834, 15424.19
1785.762, 15823.95
1787.691, 16253.59
1789.619, 16730.15
1791.547, 17275.60
1793.476, 17908.81
1795.404, 18630.13
1797.333, 19474.05
1799.261, 20439.59
1801.190, 21496.86
1803.118, 22657.68
1805.047, 23908.40
1806.975, 25343.22
1808.904, 26994.47
1810.832, 28767.53
1812.761, 30696.75
1814.689, 32896.56
1816.618, 35282.97
1818.546, 37798.67
1820.474, 40486.52
1822.403, 43342.98
1824.331, 46375.89
1826.260, 49393.79
1828.188, 52161.48
1830.117, 54713.46
1832.045, 57212.77
1833.974, 59052.76
1835.902, 60219.43
1837.831, 60684.10
1839.759, 60441.03
1841.688, 59497.37
1843.616, 57772.95
1845.545, 55217.80
1847.473, 52142.77
1849.401, 48672.26
1851.330, 44930.68
1853.258, 41204.20
1855.187, 37576.62
1857.115, 34118.07
1859.044, 30862.44
1860.972, 28018.29
1862.901, 25487.71
1864.829, 23167.44
1866.758, 21149.68
1868.686, 19465.08
1870.615, 17936.01
1872.543, 16578.50
1874.472, 15444.99
1876.400, 14430.39
1878.328, 13508.02
1880.257, 12719.49
1882.185, 12027.30
1884.114, 11320.54
1886.042, 10680.52
1887.971, 10150.03
1889.899, 9665.569
1891.828, 9217.374
1893.756, 8794.978
1895.685, 8425.723
1897.613, 8146.698
1899.542, 7887.182
1901.470, 7636.077
1903.399, 7393.029
1905.327, 7164.995
1907.255, 6958.483
1909.184, 6784.263
1911.112, 6646.578
1913.041, 6484.028
1914.969, 6320.320
1916.898, 6224.897
1918.826, 6145.762
1920.755, 6059.132
1922.683, 5978.170
1924.612, 5898.210
1926.540, 5798.540
1928.469, 5700.720
1930.397, 5617.806
1932.326, 5538.513
1934.254, 5460.433
1936.182, 5354.698
1938.111, 5263.326
1940.039, 5246.953
1941.968, 5188.995
1943.896, 5082.622
1945.825, 4994.101
1947.753, 4912.791
1949.682, 4818.077
1951.610, 4745.038
1953.539, 4699.514
1955.467, 4627.797
1957.396, 4553.813
1959.324, 4525.654
1961.253, 4480.242
1963.181, 4398.518
1965.109, 4336.456
1967.038, 4290.918
1968.966, 4255.813
1970.895, 4214.411
1972.823, 4163.591
1974.752, 4111.252
1976.680, 4057.979
1978.609, 4019.232
1980.537, 3982.059
1982.466, 3939.124
1984.394, 3905.170
1986.323, 3874.409
1988.251, 3841.157
1990.180, 3805.620
1992.108, 3767.603
1994.036, 3727.723
1995.965, 3687.802
1997.893, 3661.291
1999.822, 3617.564
2001.750, 3540.911
2003.679, 3493.794
2005.607, 3462.864
2007.536, 3414.225
2009.464, 3375.148
2011.393, 3355.613
2013.321, 3317.729
2015.250, 3272.621
2017.178, 3232.095
2019.107, 3188.168
2021.035, 3150.731
2022.964, 3113.796
2024.892, 3073.457
2026.820, 3037.100
2028.749, 3022.563
2030.677, 3029.292
2032.606, 2967.731
2034.534, 2885.834
2036.463, 2867.290
2038.391, 2862.107
2040.320, 2851.740
2042.248, 2820.740
2044.177, 2783.029
2046.105, 2748.174
2048.034, 2709.488
2049.962, 2675.199
2051.891, 2645.214
2053.819, 2614.073
2055.748, 2585.232
2057.676, 2567.960
2059.604, 2557.158
2061.533, 2520.446
2063.461, 2478.926
2065.390, 2453.049
2067.318, 2433.499
2069.247, 2407.542
2071.175, 2389.705
2073.104, 2371.708
2075.032, 2336.908
2076.960, 2302.552
2078.889, 2288.959
2080.817, 2316.579
2082.746, 2307.605
2084.674, 2254.325
2086.603, 2251.115
2088.531, 2248.531
2090.460, 2183.747
2092.388, 2146.195
2094.317, 2139.447
2096.245, 2164.067
2098.174, 2180.131
2100.102, 2159.197
2102.031, 2149.089
2103.959, 2138.758
2105.887, 2115.981
2107.816, 2106.509
2109.744, 2110.829
2111.673, 2086.029
2113.601, 2062.907
2115.530, 2065.255
2117.458, 2063.328
2119.387, 2051.725
2121.315, 2053.572
2123.244, 2050.877
2125.172, 2023.624
2127.101, 2000.194
2129.029, 1986.345
2130.958, 1963.200
2132.886, 1949.708
2134.814, 1949.598
2136.743, 1941.822
2138.671, 1928.687
2140.600, 1895.202
2142.528, 1867.989
2144.457, 1860.970
2146.385, 1848.259
2148.314, 1840.557
2150.242, 1845.839
2152.171, 1838.281
2154.099, 1827.591
2156.028, 1811.872
2157.956, 1796.783
2159.885, 1788.622
2161.813, 1775.079
2163.741, 1766.084
2165.670, 1766.251
2167.598, 1759.749
2169.527, 1755.206
2171.455, 1735.373
2173.384, 1715.970
2175.312, 1708.316
2177.241, 1708.442
2179.169, 1713.639
2181.098, 1718.505
2183.026, 1709.378
2184.955, 1699.549
2186.883, 1707.409
2188.812, 1703.452
2190.740, 1690.651
2192.668, 1683.882
2194.597, 1681.594
2196.525, 1692.864
2198.454, 1699.191
2200.382, 1695.781
2202.311, 1688.911
2204.239, 1677.835
2206.168, 1658.805
2208.096, 1623.767
2210.025, 1594.088
2211.953, 1598.520
2213.882, 1599.094
2215.810, 1584.316
2217.739, 1566.097
2219.667, 1553.906
2221.595, 1543.210
2223.524, 1552.046
2225.452, 1561.517
2227.381, 1553.155
2229.309, 1551.358
2231.238, 1552.259
2233.166, 1541.465
2235.095, 1535.578
2237.023, 1535.123
2238.952, 1539.690
2240.880, 1546.026
2242.809, 1543.743
2244.737, 1536.067
2246.666, 1519.803
2248.594, 1502.864
2250.522, 1484.527
2252.451, 1465.349
2254.379, 1458.477
2256.308, 1446.939
2258.236, 1427.336
2260.165, 1408.433
2262.093, 1392.640
2264.022, 1397.233
2265.950, 1387.855
2267.879, 1367.788
2269.807, 1355.909
2271.736, 1355.023
2273.664, 1373.251
2275.593, 1370.440
2277.521, 1360.883
2279.449, 1376.500
2281.378, 1381.902
2283.306, 1379.576
2285.235, 1387.898
2287.163, 1395.818
2289.092, 1403.824
2291.020, 1421.833
2292.949, 1438.887
2294.877, 1450.701
2296.806, 1445.805
2298.734, 1436.562
2300.663, 1427.662
2302.591, 1403.497
2304.520, 1373.157
2306.448, 1334.311
2308.376, 1303.278
2310.305, 1283.018
2312.233, 1257.968
2314.162, 1243.811
2316.090, 1245.958
2318.019, 1228.774
2319.947, 1213.039
2321.876, 1215.281
2323.804, 1204.107
2325.733, 1189.973
2327.661, 1204.928
2329.590, 1206.960
2331.518, 1191.188
2333.447, 1196.443
2335.375, 1201.551
2337.303, 1200.571
2339.232, 1201.542
2341.160, 1191.454
2343.089, 1161.498
2345.017, 1149.397
2346.946, 1151.686
2348.874, 1166.531
2350.803, 1168.235
2352.731, 1160.520
2354.660, 1165.152
2356.588, 1164.165
2358.517, 1155.474
2360.445, 1147.508
2362.374, 1137.603
2364.302, 1125.276
2366.230, 1124.263
2368.159, 1112.949
2370.087, 1073.538
2372.016, 1051.398
2373.944, 1039.049
2375.873, 1024.234
2377.801, 1016.870
2379.730, 1010.543
2381.658, 989.4380
2383.587, 980.9190
2385.515, 983.4110
2387.444, 990.4920
2389.372, 999.3880
2391.301, 1004.716
2393.229, 1001.797
2395.157, 1003.563
2397.086, 1013.333
2399.014, 1024.532
2400.943, 1030.823
2402.871, 1025.439
2404.800, 1028.257
2406.728, 1027.776
2408.657, 1013.592
2410.585, 1003.545
2412.514, 998.9940
2414.442, 996.6180
2416.371, 990.8850
2418.299, 981.7680
2420.228, 965.5670
2422.156, 965.3010
2424.084, 972.8990
2426.013, 962.5140
2427.941, 955.7720
2429.870, 947.1260
2431.798, 946.8870
2433.727, 945.7540
2435.655, 928.5230
2437.584, 913.5040
2439.512, 910.6140
2441.441, 920.4380
2443.369, 926.1270
2445.298, 928.5530
2447.226, 921.6700
2449.155, 909.4440
2451.083, 899.7160
2453.011, 905.3850
2454.940, 911.3630
2456.868, 909.9210
2458.797, 901.2160
2460.725, 899.0160
2462.654, 902.5360
2464.582, 901.8490
2466.511, 894.7100
2468.439, 898.7190
2470.368, 923.1560
2472.296, 944.3340
2474.225, 967.4270
2476.153, 998.7030
2478.082, 1023.484
2480.010, 1058.346
2481.938, 1100.161
2483.867, 1135.078
2485.795, 1164.158
2487.724, 1177.024
2489.652, 1185.495
2491.581, 1190.870
2493.509, 1170.011
2495.438, 1134.583
2497.366, 1088.573
2499.295, 1035.065
2501.223, 992.4640
2503.152, 956.4310
2505.080, 934.2890
2507.009, 916.1930
2508.937, 869.6920
2510.865, 837.9500
2512.794, 824.3380
2514.722, 819.9920
2516.651, 798.6840
2518.579, 785.9050
2520.508, 778.7670
2522.436, 762.1760
2524.365, 741.7810
2526.293, 734.2110
2528.222, 730.8550
2530.150, 716.5380
2532.079, 705.7150
2534.007, 698.7270
2535.936, 695.3350
2537.864, 687.4830
2539.792, 673.8970
2541.721, 649.6380
2543.649, 643.0200
2545.578, 636.4500
2547.506, 627.2400
2549.435, 632.6160
2551.363, 627.2480
2553.292, 627.4450
2555.220, 622.0970
2557.149, 616.6980
2559.077, 625.4390
2561.006, 619.2550
2562.934, 605.9880
2564.863, 591.2500
2566.791, 585.5200
2568.719, 592.5730
2570.648, 594.5100
2572.576, 588.7440
2574.505, 588.6110
2576.433, 587.4400
2578.362, 596.3800
2580.290, 602.4780
2582.219, 602.3520
2584.147, 613.6120
2586.076, 618.5700
2588.004, 603.2860
2589.933, 607.8000
2591.861, 621.9270
2593.790, 629.8930
2595.718, 624.2300
2597.646, 630.8500
2599.575, 645.8340
2601.503, 644.7680
2603.432, 622.6640
2605.360, 618.1530
2607.289, 615.4250
2609.217, 602.3960
2611.146, 590.2480
2613.074, 582.5960
2615.003, 583.4260
2616.931, 575.3210
2618.860, 559.4270
2620.788, 552.9190
2622.717, 556.9390
2624.645, 539.5790
2626.573, 519.6600
2628.502, 514.2310
2630.430, 503.2930
2632.359, 500.6370
2634.287, 503.3360
2636.216, 491.3150
2638.144, 480.9760
2640.073, 477.8350
2642.001, 487.4040
2643.930, 490.3860
2645.858, 476.2190
2647.787, 474.0480
2649.715, 474.9110
2651.644, 467.3520
2653.572, 467.6400
2655.500, 477.7040
2657.429, 481.8940
2659.357, 472.7620
2661.286, 456.3530
2663.214, 445.1620
2665.143, 436.0440
2667.071, 433.7730
2669.000, 442.8650
2670.928, 445.4150
2672.857, 434.6320
2674.785, 423.8540
2676.714, 418.6260
2678.642, 432.8020
2680.571, 446.7120
2682.499, 436.4380
2684.427, 426.7600
2686.356, 426.1930
2688.284, 424.0730
2690.213, 410.6870
2692.141, 404.2470
2694.070, 403.3880
2695.998, 403.2860
2697.927, 414.2460
2699.855, 419.0610
2701.784, 408.9110
2703.712, 403.3010
2705.641, 403.1720
2707.569, 399.8630
2709.498, 400.2280
2711.426, 400.7820
2713.354, 389.0650
2715.283, 387.6820
2717.211, 397.8330
2719.140, 407.9700
2721.068, 402.7680
2722.997, 394.1040
2724.925, 392.0210
2726.854, 383.7960
2728.782, 387.7420
2730.711, 396.1360
2732.639, 387.0430
2734.568, 378.9120
2736.496, 371.6670
2738.425, 372.0730
2740.353, 375.4140
2742.281, 379.1880
2744.210, 385.6730
2746.138, 390.4270
2748.067, 386.8950
2749.995, 374.3240
2751.924, 360.8100
2753.852, 363.1630
2755.781, 370.2820
2757.709, 353.4330
2759.638, 354.6910
2761.566, 358.1350
2763.495, 356.0910
2765.423, 353.6400
2767.352, 353.3460
2769.280, 353.3440
2771.208, 351.7030
2773.137, 347.1620
2775.065, 342.5850
2776.994, 347.4110
2778.922, 348.8240
2780.851, 345.0230
2782.779, 337.3720
2784.708, 331.3230
2786.636, 332.3500
2788.565, 335.3260
2790.493, 326.0370
2792.422, 319.2700
2794.350, 319.2120
2796.279, 323.3340
2798.207, 322.8920
2800.135, 318.1050
2802.064, 316.5560
2803.992, 309.1670
2805.921, 307.5180
2807.849, 316.3900
2809.778, 303.3220
2811.706, 302.1220
2813.635, 312.4240
2815.563, 312.2160
2817.492, 309.2880
2819.420, 307.5520
2821.349, 309.8160
2823.277, 302.0120
2825.206, 300.3520
2827.134, 308.3530
2829.063, 301.2700
2830.991, 300.3160
2832.919, 303.5280
2834.848, 301.3220
2836.776, 291.7860
2838.705, 287.1010
2840.633, 294.3480
2842.562, 298.9450
2844.490, 292.3210
2846.419, 281.6280
2848.347, 287.8650
2850.276, 289.1570
2852.204, 287.4900
2854.133, 285.8510
2856.061, 290.0940
2857.990, 285.9270
2859.918, 273.1130
2861.846, 284.3180
2863.775, 293.4400
2865.703, 294.9340
2867.632, 285.6890
2869.560, 270.9410
2871.489, 270.2540
2873.417, 284.6490
2875.346, 279.7560
2877.274, 276.7990
2879.203, 278.5270
2881.131, 278.0330
2883.060, 268.0830
2884.988, 261.9880
2886.917, 266.9370
2888.845, 277.6100
2890.773, 276.4390
2892.702, 268.0360
2894.630, 262.8490
2896.559, 261.5500
2898.487, 260.7390
2900.416, 256.8730
2902.344, 260.4190
2904.273, 258.9710
2906.201, 254.0150
2908.130, 255.9200
2910.058, 257.9630
2911.987, 257.4190
2913.915, 251.1380
2915.844, 248.4560
2917.772, 248.4180
2919.700, 245.3290
2921.629, 237.2680
2923.557, 230.5170
2925.486, 230.9390
2927.414, 234.1220
2929.343, 242.1140
2931.271, 250.3430
2933.200, 256.2830
2935.128, 248.8140
2937.057, 246.6680
2938.985, 243.0140
2940.914, 239.4350
2942.842, 238.1900
2944.771, 232.9660
2946.699, 221.3270
2948.627, 227.6360
2950.556, 232.4270
2952.484, 226.1710
2954.413, 213.3250
2956.341, 228.9760
2958.270, 227.9840
2960.198, 221.6090
2962.127, 224.9930
2964.055, 227.1640
2965.984, 224.7280
2967.912, 219.0600
2969.841, 216.7880
2971.769, 213.9390
2973.698, 221.9860
2975.626, 234.4670
2977.554, 223.5590
2979.483, 211.5040
2981.411, 203.5640
2983.340, 210.0800
2985.268, 226.6130
2987.197, 221.9520
2989.125, 213.5670
2991.054, 216.7120
2992.982, 223.7520
2994.911, 219.1370
2996.839, 204.3900
2998.768, 215.6740
3000.696, 220.8010
3002.625, 215.7270
3004.553, 210.7050
3006.481, 203.1340
3008.410, 200.3020
3010.338, 205.8430
3012.267, 215.1330
3014.195, 213.7990
3016.124, 207.6810
3018.052, 207.8190
3019.981, 211.0270
3021.909, 205.3500
3023.838, 207.2120
3025.766, 211.8110
3027.695, 197.8630
3029.623, 200.4850
3031.552, 206.7300
3033.480, 199.0150
3035.408, 200.6970
3037.337, 205.6350
3039.265, 211.8590
3041.194, 216.7660
3043.122, 206.7990
3045.051, 202.1170
3046.979, 206.1910
3048.908, 209.9510
3050.836, 208.9210
3052.765, 195.7670
3054.693, 185.2350
3056.622, 189.9420
3058.550, 205.1210
3060.479, 216.6540
3062.407, 204.8970
3064.335, 203.7620
3066.264, 211.2780
3068.192, 209.4720
3070.121, 216.1480
3072.049, 211.1950
3073.978, 220.9790
3075.906, 232.3420
3077.835, 233.3560
3079.763, 230.9740
3081.692, 228.6550
3083.620, 231.5420
3085.549, 243.2110
3087.477, 244.2530
3089.406, 242.5140
3091.334, 249.4810
3093.262, 252.8210
3095.191, 258.4260
3097.119, 267.0560
3099.048, 277.2770
3100.976, 270.2860
3102.905, 272.8420
3104.833, 281.9990
3106.762, 297.4290
3108.690, 292.1680
3110.619, 294.8530
3112.547, 307.9010
3114.476, 327.5780
3116.404, 341.0740
3118.333, 351.8320
3120.261, 362.9250
3122.189, 362.3640
3124.118, 385.3610
3126.046, 403.6940
3127.975, 419.9910
3129.903, 449.5310
3131.832, 483.1470
3133.760, 500.7670
3135.689, 520.0480
3137.617, 563.9920
3139.546, 617.9270
3141.474, 654.3440
3143.403, 692.9210
3145.331, 743.4680
3147.260, 819.0350
3149.188, 889.6860
3151.116, 963.2390
3153.045, 1044.835
3154.973, 1088.546
3156.902, 1109.152
3158.830, 1125.391
3160.759, 1135.573
3162.687, 1115.468
3164.616, 1108.424
3166.544, 1093.561
3168.473, 1073.940
3170.401, 1071.218
3172.330, 1041.324
3174.258, 1013.592
3176.187, 995.8940
3178.115, 957.2700
3180.043, 903.7480
3181.972, 864.0990
3183.900, 839.0540
3185.829, 791.9900
3187.757, 755.4130
3189.686, 727.0400
3191.614, 701.6250
3193.543, 684.4160
3195.471, 671.5600
3197.400, 664.4390
3199.328, 659.7900
3201.257, 666.0100
3203.185, 663.7610
3205.114, 672.5350
3207.042, 702.9200
3208.970, 745.9880
3210.899, 768.6500
3212.827, 795.2530
3214.756, 842.3730
3216.684, 915.8590
3218.613, 992.4480
3220.541, 1035.821
3222.470, 1085.702
3224.398, 1152.186
3226.327, 1184.349
3228.255, 1224.529
3230.184, 1230.648
3232.112, 1204.345
3234.041, 1169.194
3235.969, 1157.893
3237.897, 1157.734
3239.826, 1149.382
3241.754, 1116.557
3243.683, 1119.347
3245.611, 1114.084
3247.540, 1110.673
3249.468, 1122.708
3251.397, 1141.745
3253.325, 1194.848
3255.254, 1255.702
3257.182, 1312.033
3259.111, 1372.917
3261.039, 1441.217
3262.968, 1493.484
3264.896, 1533.355
3266.824, 1574.291
3268.753, 1549.100
3270.681, 1557.681
3272.610, 1562.092
3274.538, 1535.696
3276.467, 1538.730
3278.395, 1546.092
3280.324, 1560.941
3282.252, 1583.362
3284.181, 1608.949
3286.109, 1648.996
3288.038, 1680.359
3289.966, 1688.639
3291.895, 1677.450
3293.823, 1738.273
3295.751, 1765.781
3297.680, 1786.341
3299.608, 1815.928
3301.537, 1844.968
3303.465, 1880.713
3305.394, 1974.460
3307.322, 2102.405
3309.251, 2239.029
3311.179, 2433.957
3313.108, 2603.144
3315.036, 2880.214
3316.965, 3282.078
3318.893, 3702.268
3320.822, 4205.612
3322.750, 4711.948
3324.678, 5116.278
3326.607, 5367.083
3328.535, 5508.297
3330.464, 5473.901
3332.392, 5140.986
3334.321, 4578.975
3336.249, 3966.517
3338.178, 3372.873
3340.106, 2864.745
3342.035, 2432.203
3343.963, 2065.049
3345.892, 1799.567
3347.820, 1590.567
3349.749, 1447.394
3351.677, 1349.749
3353.605, 1272.473
3355.534, 1192.674
3357.462, 1177.698
3359.391, 1164.569
3361.319, 1136.349
3363.248, 1113.664
3365.176, 1108.077
3367.105, 1153.379
3369.033, 1220.659
3370.962, 1286.698
3372.890, 1342.949
3374.819, 1442.401
3376.747, 1565.242
3378.676, 1684.704
3380.604, 1782.588
3382.532, 1844.815
3384.461, 1949.448
3386.389, 2085.698
3388.318, 2207.672
3390.246, 2273.273
3392.175, 2303.792
3394.103, 2286.900
3396.032, 2229.340
3397.960, 2145.596
3399.889, 2048.037
3401.817, 1965.864
3403.746, 1870.538
3405.674, 1785.631
3407.603, 1700.655
3409.531, 1574.395
3411.459, 1458.824
3413.388, 1337.365
3415.316, 1273.798
3417.245, 1269.690
3419.173, 1257.500
3421.102, 1251.949
3423.030, 1283.481
3424.959, 1328.509
3426.887, 1357.879
3428.816, 1353.092
3430.744, 1385.441
3432.673, 1376.626
3434.601, 1358.190
3436.530, 1354.830
3438.458, 1351.616
3440.386, 1304.469
3442.315, 1238.976
3444.243, 1184.899
3446.172, 1143.802
3448.100, 1087.845
3450.029, 1054.649
3451.957, 1032.857
3453.886, 1018.001
3455.814, 1015.397
3457.743, 1039.407
3459.671, 1029.782
3461.600, 1066.843
3463.528, 1112.110
3465.457, 1126.628
3467.385, 1094.836
3469.313, 1120.652
3471.242, 1095.742
3473.170, 1050.413
3475.099, 1002.349
3477.027, 944.9990
3478.956, 867.9580
3480.884, 816.9190
3482.813, 732.5270
3484.741, 653.8340
3486.670, 627.9130
3488.598, 591.3520
3490.527, 562.5450
3492.455, 522.0060
3494.384, 479.4890
3496.312, 446.2840
3498.240, 420.3270
3500.169, 419.1530
3502.097, 408.3870
3504.026, 402.7160
3505.954, 407.9280
3507.883, 410.6490
3509.811, 394.7740
3511.740, 345.4050
3513.668, 320.0480
3515.597, 315.0510
3517.525, 303.3010
3519.454, 298.1030
3521.382, 286.7990
3523.311, 300.5120
3525.239, 319.7460
3527.167, 327.8660
3529.096, 334.0870
3531.024, 351.9440
3532.953, 368.9220
3534.881, 370.7590
3536.810, 375.3840
3538.738, 402.0560
3540.667, 411.0290
3542.595, 425.7610
3544.524, 457.8840
3546.452, 494.9540
3548.381, 518.2070
3550.309, 510.9100
3552.238, 492.6890
3554.166, 452.7100
3556.094, 445.6920
3558.023, 442.4690
3559.951, 405.6820
3561.880, 406.0640
3563.808, 349.1720
3565.737, 314.4610
3567.665, 293.7410
3569.594, 268.7440
3571.522, 238.2790
3573.451, 208.7700
3575.379, 224.0500
3577.308, 225.2660
3579.236, 202.5700
3581.165, 181.4050
3583.093, 192.3220
3585.021, 182.1080
3586.950, 169.5900
3588.878, 159.2530
3590.807, 153.2190
3592.735, 151.2170
3594.664, 149.2870
3596.592, 148.0940
3598.521, 157.7610
3600.449, 154.0470
3602.378, 141.9370
3604.306, 143.6380
3606.235, 172.5140
3608.163, 166.0420
3610.092, 153.1640
3612.020, 146.5220
3613.948, 149.0850
3615.877, 160.6520
3617.805, 182.6180
3619.734, 171.6650
3621.662, 177.3190
3623.591, 201.1280
3625.519, 215.4070
3627.448, 208.8680
3629.376, 225.5250
3631.305, 223.0010
3633.233, 228.9800
3635.162, 226.6520
3637.090, 212.7930
3639.019, 203.6800
3640.947, 232.2840
3642.875, 216.1630
3644.804, 201.6390
3646.732, 199.2100
3648.661, 200.8630
3650.589, 194.1930
3652.518, 169.3420
3654.446, 159.2550
3656.375, 149.4510
3658.303, 146.8120
3660.232, 142.6010
3662.160, 134.4830
3664.089, 130.3140
3666.017, 120.0730
3667.946, 121.2010
3669.874, 101.8980
3671.802, 79.72400
3673.731, 86.09500
3675.659, 117.7520
3677.588, 98.18900
3679.516, 96.40400
3681.445, 110.5660
3683.373, 106.3900
3685.302, 100.3220
3687.230, 100.1620
3689.159, 79.30100
3691.087, 83.39200
3693.016, 75.98500
3694.944, 67.90000
3696.873, 67.77100
3698.801, 74.09900
3700.729, 79.42500
3702.658, 73.85700
3704.586, 77.23000
3706.515, 71.33500
3708.443, 68.35300
3710.372, 68.13600
3712.300, 67.89300
3714.229, 70.12200
3716.157, 84.71300
3718.086, 58.44900
3720.014, 66.83900
3721.943, 77.46800
3723.871, 72.63300
3725.800, 65.99900
3727.728, 75.72600
3729.656, 73.22500
3731.585, 88.22600
3733.513, 79.06700
3735.442, 67.98100
3737.370, 65.34400
3739.299, 61.24400
3741.227, 49.61400
3743.156, 54.43400
3745.084, 45.36800
3747.013, 50.21200
3748.941, 51.72100
3750.870, 47.46800
3752.798, 50.22600
3754.727, 62.24900
3756.655, 51.71700
3758.583, 61.78800
3760.512, 63.83900
3762.440, 60.86200
3764.369, 49.30800
3766.297, 34.16600
3768.226, 34.71600
3770.154, 51.67400
3772.083, 39.71700
3774.011, 50.88300
3775.940, 48.64600
3777.868, 50.02400
3779.797, 54.51100
3781.725, 38.33000
3783.654, 40.85800
3785.582, 38.24500
3787.510, 37.47100
3789.439, 39.82800
3791.367, 45.09400
3793.296, 47.53600
3795.224, 45.23300
3797.153, 46.03400
3799.081, 45.77600
3801.010, 31.17700
3802.938, 44.68300
3804.867, 49.28300
3806.795, 50.77500
3808.724, 53.33100
3810.652, 47.32700
3812.581, 53.91400
3814.509, 52.72900
3816.438, 51.58100
3818.366, 52.37300
3820.294, 42.77600
3822.223, 30.91000
3824.151, 32.56100
3826.080, 43.05300
3828.008, 27.34100
3829.937, 38.37000
3831.865, 45.75200
3833.794, 26.68700
3835.722, 25.67800
3837.651, 36.72700
3839.579, 35.35900
3841.508, 28.79300
3843.436, 48.67000
3845.365, 31.24100
3847.293, 37.70900
3849.221, 39.35100
3851.150, 36.40100
3853.078, 43.33000
3855.007, 52.03300
3856.935, 47.30800
3858.864, 45.07300
3860.792, 29.70500
3862.721, 42.59700
3864.649, 42.66800
3866.578, 43.17800
3868.506, 45.98800
3870.435, 46.72500
3872.363, 43.06000
3874.292, 35.28900
3876.220, 46.96900
3878.148, 36.12900
3880.077, 33.95600
3882.005, 38.40600
3883.934, 39.52100
3885.862, 39.43000
3887.791, 47.02800
3889.719, 58.66800
3891.648, 52.42300
3893.576, 46.47900
3895.505, 39.54900
3897.433, 40.13600
3899.362, 40.23100
3901.290, 43.89700
3903.219, 44.01800
3905.147, 38.81400
3907.075, 38.58700
3909.004, 44.25300
3910.932, 31.60600
3912.861, 42.07700
3914.789, 34.73400
3916.718, 35.16800
3918.646, 44.92000
3920.575, 33.92600
3922.503, 23.77300
3924.432, 40.79000
3926.360, 34.04800
3928.289, 38.79800
3930.217, 35.37100
3932.146, 39.16400
3934.074, 39.78800
3936.002, 42.27000
3937.931, 57.04000
3939.859, 60.35100
3941.788, 44.94000
3943.716, 40.86600
3945.645, 47.75200
3947.573, 36.04900
3949.502, 36.24600
3951.430, 31.91500
3953.359, 29.15900
3955.287, 41.19400
3957.216, 56.24100
3959.144, 55.18900
3961.073, 48.23000
3963.001, 55.07000
3964.929, 47.91100
3966.858, 39.30800
3968.786, 45.43100
3970.715, 37.77600
3972.643, 41.69400
3974.572, 42.13700
3976.500, 50.69300
3978.429, 52.08200
3980.357, 44.25600
3982.286, 47.27200
3984.214, 43.69100
3986.143, 40.18200
3988.071, 26.06700
3990.000, 52.52800
3991.928, 39.35600
3993.856, 32.24600
3995.785, 43.05700
3997.713, 57.20300
3999.642, 56.78700
4001.570, 41.81400
4003.499, 32.43000
4005.427, 40.43500
4007.356, 37.06600
4009.284, 43.27400
4011.213, 29.22500
4013.141, 34.86200
4015.070, 38.56500
4016.998, 50.57900
4018.927, 43.86900
4020.855, 35.36800
4022.783, 33.47000
4024.712, 24.34000
4026.640, 34.89600
4028.569, 66.97600
4030.497, 42.96300
4032.426, 40.85300
4034.354, 46.61200
4036.283, 31.04200
4038.211, 35.08100
4040.140, 46.38000
4042.068, 50.44100
4043.997, 46.78700
4045.925, 40.46700
4047.854, 37.58500
4049.782, 40.40100
4051.710, 44.41400
4053.639, 43.71000
4055.567, 28.57300
4057.496, 35.79800
4059.424, 33.51400
4061.353, 38.06600
4063.281, 39.25700
4065.210, 55.02200
4067.138, 54.67500
4069.067, 43.84900
4070.995, 38.27700
4072.924, 38.53400
4074.852, 55.38000
4076.781, 37.34100
4078.709, 44.36500
4080.637, 18.86900
4082.566, 40.31100
4084.494, 31.81300
4086.423, 42.30500
4088.351, 42.47800
4090.280, 41.00200
4092.208, 44.14900
4094.137, 42.15800
4096.065, 36.37600
4097.994, 34.37900
4099.922, 40.15600
4101.851, 53.39000
4103.779, 46.62500
4105.708, 45.17000
4107.636, 63.46900
4109.564, 49.23300
4111.493, 32.20200
4113.421, 39.18600
4115.350, 51.68200
4117.278, 38.13600
4119.207, 47.52400
4121.135, 40.14200
4123.063, 35.71900
4124.992, 39.24500
4126.920, 27.54500
4128.849, 25.28600
4130.777, 32.96500
4132.706, 22.60300
4134.634, 30.22700
4136.563, 33.75900
4138.491, 53.01400
4140.420, 37.69800
4142.348, 37.57800
4144.277, 39.46200
4146.205, 16.41100
4148.134, 36.94500
4150.062, 37.59600
4151.991, 29.21200
4153.919, 33.86000
4155.848, 32.54400
4157.776, 24.97500
4159.705, 30.75300
4161.633, 41.14500
4163.562, 39.08800
4165.490, 49.40300
4167.418, 55.22600
4169.347, 39.11300
4171.275, 24.34700
4173.204, 51.04900
4175.132, 33.46200
4177.061, 36.84800
4178.989, 48.68700
4180.917, 42.85200
4182.846, 26.04100
4184.774, 34.77500
4186.703, 39.86600
4188.631, 28.22000
4190.560, 28.79900
4192.488, 35.83800
4194.417, 35.49800
4196.345, 41.05900
4198.274, 49.41500
4200.202, 47.50000
4202.131, 43.98400
4204.059, 32.71100
4205.988, 38.49300
4207.916, 42.51800
4209.845, 35.90100
4211.773, 32.57900
4213.702, 35.49400
4215.630, 30.61500
4217.559, 27.41000
4219.487, 22.10000
4221.416, 41.25900
4223.344, 42.64600
4225.272, 33.20900
4227.201, 35.48500
4229.129, 35.39400
4231.058, 27.12700
4232.986, 23.44700
4234.915, 35.70100
4236.843, 30.68500
4238.771, 35.84000
4240.700, 45.10400
4242.628, 31.29200
4244.557, 32.02000
4246.485, 38.98400
4248.414, 34.19700
4250.342, 37.09300
4252.271, 47.09300
4254.199, 48.25400
4256.128, 27.08600
4258.056, 26.48100
4259.985, 44.67700
4261.913, 5.576000
4263.842, 19.58800
4265.770, 46.50000
4267.699, 37.43200
4269.627, 21.55500
4271.556, 36.84500
4273.484, 43.54800
4275.413, 50.95900
4277.341, 38.39900
4279.270, 52.92100
4281.198, 36.07200
4283.126, 54.35000
4285.055, 52.63600
4286.983, 33.55100
4288.912, 35.30000
4290.840, 32.06500
4292.769, 29.72300
4294.697, 24.79100
4296.625, 43.61100
4298.554, 59.81600
4300.482, 37.32200
4302.411, 38.86800
4304.339, 42.62600
4306.268, 37.23300
4308.196, 43.71200
4310.125, 45.22900
4312.053, 44.42400
4313.982, 40.72400
4315.910, 47.21600
4317.839, 31.44600
4319.767, 21.74200
4321.696, 45.88000
4323.624, 35.57400
4325.553, 47.43700
4327.481, 29.51600
4329.410, 35.00300
4331.338, 38.58800
4333.267, 24.97100
4335.195, 39.76600
4337.124, 20.17400
##END=



