##NAMES=Asbolane
##RRUFFID=R070359
##IDEAL CHEMISTRY=Mn^4+^(O,OH)_2_·(Co,Ni,Mg,Ca)_x_(OH)_2x_·nH_2_O
##LOCALITY=Hachberg, Saint Avold, Moselle, France
##OWNER=RRUFF
##SOURCE=Michael Scott
##DESCRIPTION=Thin black platelets coating grains of quartz
##STATUS=The identification of this mineral is not yet confirmed
##URL=https://www.rruff.net/odr/rruff_sample/R070359
##FILETYPE=Raman RAW
##RAMAN WAVELENGTH=532

146.9233, 80.12475
148.8518, 83.19839
150.7802, 86.27653
152.7087, 89.23161
154.6372, 91.82322
156.5656, 94.29940
158.4941, 97.19155
160.4226, 100.7234
162.3510, 104.1643
164.2795, 107.4495
166.2080, 111.0356
168.1364, 113.1972
170.0649, 113.1215
171.9934, 111.7810
173.9218, 110.8345
175.8503, 110.1936
177.7788, 110.1896
179.7072, 111.0880
181.6357, 113.3012
183.5642, 115.1236
185.4926, 116.6175
187.4211, 117.7150
189.3496, 118.1114
191.2780, 117.3146
193.2065, 116.1308
195.1350, 114.4252
197.0634, 112.2061
198.9919, 110.8794
200.9204, 111.7614
202.8488, 113.4193
204.7773, 113.6040
206.7058, 111.1920
208.6342, 109.0360
210.5627, 108.2215
212.4912, 108.5215
214.4196, 109.1865
216.3481, 110.7119
218.2766, 112.4710
220.2050, 112.9402
222.1335, 110.9253
224.0620, 109.3974
225.9904, 109.9452
227.9189, 114.2009
229.8474, 115.7225
231.7758, 112.2722
233.7043, 106.7264
235.6328, 103.2096
237.5612, 102.7186
239.4897, 102.9025
241.4182, 102.8815
243.3466, 102.5534
245.2751, 102.8644
247.2036, 104.7867
249.1320, 107.0147
251.0605, 108.1489
252.9890, 106.7218
254.9174, 105.6821
256.8459, 106.0720
258.7744, 107.8873
260.7029, 109.0209
262.6313, 109.0696
264.5598, 108.3322
266.4883, 107.1614
268.4167, 104.3175
270.3452, 102.4883
272.2737, 103.0250
274.2021, 105.2019
276.1306, 106.1011
278.0591, 103.7469
279.9875, 100.9641
281.9160, 99.69811
283.8445, 100.6071
285.7729, 101.4168
287.7014, 101.5709
289.6299, 101.1692
291.5583, 100.9757
293.4868, 101.3515
295.4153, 101.6626
297.3437, 101.4728
299.2722, 100.7969
301.2007, 99.84944
303.1291, 98.11456
305.0576, 96.16769
306.9861, 95.25592
308.9145, 95.75247
310.8430, 96.81976
312.7715, 98.82606
314.6999, 101.7606
316.6284, 103.1539
318.5569, 101.4622
320.4853, 98.69135
322.4138, 97.26579
324.3423, 98.06456
326.2707, 98.03228
328.1992, 95.39092
330.1277, 90.30508
332.0561, 87.42403
333.9846, 87.29511
335.9131, 88.77374
337.8415, 91.76581
339.7700, 96.64375
341.6985, 100.1111
343.6269, 100.8349
345.5554, 99.75133
347.4839, 98.80909
349.4123, 98.84312
351.3408, 98.12002
353.2693, 95.17419
355.1977, 90.06847
357.1262, 87.49382
359.0547, 89.88133
360.9831, 93.60082
362.9116, 95.54016
364.8401, 95.56825
366.7685, 95.34787
368.6970, 94.84301
370.6255, 93.89043
372.5539, 93.38997
374.4824, 94.09151
376.4109, 95.14211
378.3393, 95.24203
380.2678, 94.07507
382.1963, 93.19715
384.1247, 93.52715
386.0532, 94.51431
387.9817, 95.01964
389.9101, 94.39140
391.8386, 94.01485
393.7671, 94.45098
395.6955, 95.30595
397.6240, 96.02473
399.5525, 97.03680
401.4809, 97.88921
403.4094, 97.66952
405.3379, 96.07646
407.2663, 94.46803
409.1948, 92.54735
411.1233, 90.79626
413.0517, 90.50666
414.9802, 93.99674
416.9087, 96.96854
418.8371, 97.42301
420.7656, 95.32606
422.6941, 93.69953
424.6225, 93.84974
426.5510, 94.90016
428.4795, 95.42047
430.4079, 94.45998
432.3364, 93.56278
434.2649, 94.07495
436.1933, 95.50748
438.1218, 96.51169
440.0503, 97.00603
441.9787, 97.46922
443.9072, 96.02888
445.8357, 91.77671
447.7641, 89.08342
449.6926, 90.99895
451.6211, 95.07276
453.5495, 98.05155
455.4780, 99.56133
457.4065, 99.70299
459.3349, 97.88754
461.2634, 95.56815
463.1919, 94.57394
465.1203, 94.90861
467.0488, 95.98399
468.9773, 98.85641
470.9057, 103.2227
472.8342, 104.8786
474.7627, 101.6540
476.6911, 98.06123
478.6196, 96.65336
480.5481, 97.49932
482.4765, 99.07359
484.4050, 99.74277
486.3335, 99.49934
488.2619, 99.35263
490.1904, 100.1257
492.1189, 101.4378
494.0473, 102.6197
495.9758, 103.1406
497.9043, 102.9503
499.8327, 102.2775
501.7612, 103.1273
503.6897, 105.3305
505.6181, 108.4296
507.5466, 109.7550
509.4751, 108.3463
511.4035, 106.0854
513.3320, 104.8854
515.2604, 105.9260
517.1889, 107.4503
519.1174, 107.9457
521.0458, 107.7876
522.9743, 107.2156
524.9028, 105.7293
526.8312, 103.5751
528.7597, 102.6210
530.6882, 103.1957
532.6166, 104.6625
534.5451, 104.9124
536.4736, 105.3694
538.4020, 107.0599
540.3305, 109.6928
542.2590, 111.4637
544.1874, 112.3848
546.1159, 113.0764
548.0444, 113.2968
549.9728, 111.7810
551.9013, 110.1013
553.8298, 109.6757
555.7582, 110.0793
557.6867, 110.6478
559.6152, 111.2369
561.5436, 111.7555
563.4721, 111.5021
565.4006, 110.8589
567.3290, 111.0172
569.2575, 113.3985
571.1860, 115.5556
573.1144, 115.6819
575.0429, 113.8568
576.9714, 112.7120
578.8998, 114.2931
580.8283, 116.1882
582.7568, 117.1801
584.6852, 116.8843
586.6137, 116.7413
588.5422, 117.9482
590.4706, 119.7772
592.3991, 121.5437
594.3276, 121.2481
596.2560, 120.9229
598.1845, 122.6628
600.1130, 124.8413
602.0414, 125.0160
603.9699, 122.0386
605.8984, 119.6805
607.8268, 119.2947
609.7553, 119.8791
611.6838, 119.4481
613.6122, 119.2010
615.5407, 119.8108
617.4692, 121.1702
619.3976, 121.2765
621.3261, 120.1014
623.2546, 119.4274
625.1830, 118.3201
627.1115, 115.7824
629.0400, 112.0600
630.9684, 110.2048
632.8969, 110.5965
634.8254, 111.0298
636.7538, 110.3626
638.6823, 109.6761
640.6108, 109.7978
642.5392, 110.0627
644.4677, 109.8905
646.3962, 109.0479
648.3246, 109.2808
650.2531, 109.9365
652.1816, 110.2444
654.1100, 109.3066
656.0385, 107.1119
657.9670, 105.7339
659.8954, 105.0108
661.8239, 104.4233
663.7524, 103.4737
665.6808, 102.7490
667.6093, 102.9987
669.5378, 102.5651
671.4662, 100.2685
673.3947, 97.22451
675.3232, 94.88225
677.2516, 93.11372
679.1801, 91.94984
681.1086, 92.32002
683.0370, 93.17694
684.9655, 91.83183
686.8940, 87.20100
688.8224, 84.33331
690.7509, 86.05439
692.6794, 89.84319
694.6078, 92.13367
696.5363, 92.84252
698.4648, 92.75909
700.3932, 91.28271
702.3217, 89.56839
704.2502, 88.90808
706.1786, 89.52372
708.1071, 89.38243
710.0356, 87.75262
711.9641, 86.89814
713.8925, 87.01133
715.8210, 87.67024
717.7495, 87.63946
719.6779, 86.25497
721.6064, 84.40757
723.5349, 83.35152
725.4633, 83.55511
727.3918, 84.30381
729.3203, 85.49779
731.2487, 86.72601
733.1772, 87.23948
735.1057, 86.32909
737.0341, 85.17367
738.9626, 84.07102
740.8911, 83.56630
742.8195, 83.66271
744.7480, 85.10717
746.6765, 85.98627
748.6049, 85.84097
750.5334, 84.69660
752.4619, 84.01752
754.3903, 84.23518
756.3188, 84.36102
758.2473, 83.76275
760.1757, 82.63398
762.1042, 81.84034
764.0327, 81.59688
765.9611, 81.48434
767.8896, 81.42860
769.8181, 81.58434
771.7465, 82.13162
773.6750, 83.93827
775.6035, 85.36857
777.5319, 85.30368
779.4604, 83.77626
781.3889, 82.64068
783.3173, 82.33620
785.2458, 82.37659
787.1743, 82.66417
789.1027, 83.09961
791.0312, 83.08664
792.9597, 82.04439
794.8881, 81.14679
796.8166, 81.07924
798.7451, 81.86938
800.6735, 82.55153
802.6020, 82.88816
804.5305, 83.10664
806.4589, 83.31979
808.3874, 83.31204
810.3159, 83.53435
812.2443, 84.17775
814.1728, 84.86761
816.1013, 85.46667
818.0297, 85.97226
819.9582, 86.18090
821.8867, 85.86326
823.8151, 85.45011
825.7436, 84.92995
827.6721, 84.20708
829.6005, 83.91886
831.5290, 84.67468
833.4575, 85.35751
835.3859, 84.63911
837.3144, 82.87381
839.2429, 81.99710
841.1713, 82.90179
843.0998, 83.48677
845.0283, 83.57700
846.9567, 84.20004
848.8852, 85.19495
850.8137, 86.75361
852.7421, 87.39149
854.6706, 86.29520
856.5991, 84.57150
858.5275, 84.41938
860.4560, 87.31297
862.3845, 89.55418
864.3129, 89.64659
866.2414, 88.08054
868.1699, 86.66409
870.0983, 85.33700
872.0268, 84.06190
873.9553, 83.12540
875.8837, 84.12786
877.8122, 84.69279
879.7407, 83.70929
881.6691, 81.90988
883.5976, 81.25436
885.5261, 83.15961
887.4545, 85.00436
889.3830, 85.36897
891.3115, 84.64275
893.2399, 84.81678
895.1684, 85.68261
897.0969, 85.78835
899.0253, 85.37072
900.9538, 85.41521
902.8823, 85.33978
904.8107, 85.23746
906.7392, 86.64781
908.6677, 90.01329
910.5961, 91.69179
912.5246, 89.29652
914.4531, 87.04710
916.3815, 87.41932
918.3100, 88.73264
920.2385, 88.84537
922.1669, 87.78659
924.0954, 88.09159
926.0239, 88.57755
927.9523, 89.22121
929.8808, 89.84528
931.8093, 90.77303
933.7377, 90.74480
935.6662, 89.26433
937.5947, 87.35867
939.5231, 87.04153
941.4516, 88.99787
943.3801, 92.07908
945.3085, 94.23351
947.2370, 94.70625
949.1655, 94.24523
951.0939, 93.31881
953.0224, 92.65162
954.9509, 90.90110
956.8793, 88.62257
958.8078, 87.97974
960.7363, 89.49710
962.6647, 91.44595
964.5932, 91.96412
966.5217, 90.35574
968.4501, 88.63690
970.3786, 87.68736
972.3071, 87.93392
974.2355, 89.03334
976.1640, 89.67609
978.0925, 89.05503
980.0209, 87.80673
981.9494, 87.48736
983.8779, 88.75566
985.8063, 90.55427
987.7348, 91.85538
989.6633, 92.09491
991.5917, 91.56633
993.5202, 90.80708
995.4487, 92.39380
997.3771, 96.18317
999.3056, 99.07804
1001.234, 99.24799
1003.163, 96.91212
1005.091, 94.97573
1007.019, 95.25934
1008.948, 95.31540
1010.876, 94.82035
1012.805, 95.36237
1014.733, 98.09379
1016.662, 99.60863
1018.590, 98.78868
1020.519, 97.94981
1022.447, 96.96321
1024.376, 95.08900
1026.304, 93.09606
1028.233, 92.34014
1030.161, 92.85729
1032.090, 94.00008
1034.018, 94.95139
1035.947, 95.20547
1037.875, 95.40225
1039.803, 97.05769
1041.732, 99.18016
1043.660, 100.6458
1045.589, 100.8636
1047.517, 100.1189
1049.446, 99.06287
1051.374, 98.94494
1053.303, 100.4672
1055.231, 101.8497
1057.160, 101.4912
1059.088, 99.55988
1061.017, 97.79869
1062.945, 97.05225
1064.874, 96.96021
1066.802, 97.65327
1068.730, 98.84191
1070.659, 99.50993
1072.587, 96.76104
1074.516, 94.66426
1076.444, 95.79777
1078.373, 99.22091
1080.301, 102.8311
1082.230, 102.1431
1084.158, 99.55155
1086.087, 97.54797
1088.015, 97.07970
1089.944, 97.52038
1091.872, 97.22620
1093.801, 96.46816
1095.729, 96.84464
1097.657, 98.13574
1099.586, 99.94695
1101.514, 101.5031
1103.443, 103.9829
1105.371, 105.8990
1107.300, 105.8859
1109.228, 103.9357
1111.157, 102.0504
1113.085, 99.33022
1115.014, 98.09678
1116.942, 99.47576
1118.871, 101.6094
1120.799, 102.1796
1122.728, 100.8579
1124.656, 100.2655
1126.584, 101.3704
1128.513, 104.0319
1130.441, 104.3796
1132.370, 100.7075
1134.298, 97.14832
1136.227, 96.11427
1138.155, 97.80097
1140.084, 99.96734
1142.012, 101.5063
1143.941, 101.7047
1145.869, 99.66461
1147.798, 98.78857
1149.726, 99.58514
1151.655, 102.0235
1153.583, 104.4566
1155.511, 106.9382
1157.440, 108.1470
1159.368, 107.1117
1161.297, 105.6133
1163.225, 104.7983
1165.154, 104.5254
1167.082, 105.3530
1169.011, 108.8156
1170.939, 111.3848
1172.868, 111.2782
1174.796, 109.4223
1176.725, 107.4188
1178.653, 104.1229
1180.582, 102.1227
1182.510, 103.0563
1184.438, 105.2911
1186.367, 106.4797
1188.295, 105.8144
1190.224, 105.6932
1192.152, 107.5825
1194.081, 108.7693
1196.009, 106.3896
1197.938, 102.0358
1199.866, 100.0436
1201.795, 101.1708
1203.723, 103.0426
1205.652, 106.1126
1207.580, 108.9377
1209.509, 109.6669
1211.437, 107.6775
1213.365, 106.3891
1215.294, 106.4333
1217.222, 106.7454
1219.151, 106.9201
1221.079, 107.0298
1223.008, 107.6306
1224.936, 109.5665
1226.865, 110.5640
1228.793, 109.2543
1230.722, 107.5022
1232.650, 107.4570
1234.579, 109.1744
1236.507, 110.3011
1238.436, 109.9114
1240.364, 109.4363
1242.292, 110.0534
1244.221, 111.3103
1246.149, 111.4381
1248.078, 109.5464
1250.006, 108.5716
1251.935, 110.1581
1253.863, 112.2705
1255.792, 112.6431
1257.720, 109.8568
1259.649, 108.7310
1261.577, 111.2408
1263.506, 113.4486
1265.434, 113.8986
1267.363, 112.7988
1269.291, 111.0773
1271.219, 108.6677
1273.148, 107.8074
1275.076, 109.4963
1277.005, 111.7735
1278.933, 113.8860
1280.862, 116.3377
1282.790, 118.3073
1284.719, 119.6226
1286.647, 119.1789
1288.576, 115.5813
1290.504, 111.8683
1292.433, 109.9959
1294.361, 109.9853
1296.290, 110.6356
1298.218, 113.2782
1300.146, 114.9739
1302.075, 113.2558
1304.003, 109.6717
1305.932, 109.2635
1307.860, 115.1787
1309.789, 119.0291
1311.717, 119.3067
1313.646, 118.5409
1315.574, 118.4392
1317.503, 118.8976
1319.431, 119.2956
1321.360, 120.1173
1323.288, 120.7108
1325.217, 120.8607
1327.145, 120.3585
1329.073, 118.7565
1331.002, 115.8513
1332.930, 114.9856
1334.859, 118.9347
1336.787, 122.3741
1338.716, 122.1843
1340.644, 119.3399
1342.573, 117.4707
1344.501, 116.7063
1346.430, 116.8728
1348.358, 120.0987
1350.287, 123.0957
1352.215, 123.1028
1354.144, 120.0183
1356.072, 118.3589
1358.000, 120.1147
1359.929, 121.9329
1361.857, 123.5813
1363.786, 125.0288
1365.714, 126.4498
1367.643, 127.5749
1369.571, 127.7395
1371.500, 127.1833
1373.428, 127.4048
1375.357, 128.7012
1377.285, 129.5556
1379.214, 129.1625
1381.142, 128.8564
1383.071, 127.8141
1384.999, 123.6800
1386.927, 121.0763
1388.856, 124.0184
1390.784, 128.9909
1392.713, 130.8864
1394.641, 129.0892
1396.570, 127.4554
1398.498, 127.5898
1400.427, 128.3158
1402.355, 128.5361
1404.284, 128.4907
1406.212, 129.6790
1408.141, 132.8664
1410.069, 133.5107
1411.998, 129.9851
1413.926, 127.8974
1415.854, 129.4895
1417.783, 132.4284
1419.711, 132.9159
1421.640, 133.1704
1423.568, 134.7559
1425.497, 135.0131
1427.425, 134.5745
1429.354, 135.9345
1431.282, 139.1938
1433.211, 140.3102
1435.139, 136.6028
1437.068, 133.0118
1438.996, 130.8194
1440.925, 129.4062
1442.853, 128.7509
1444.781, 129.1144
1446.710, 130.7050
1448.638, 134.1248
1450.567, 136.6181
1452.495, 135.5441
1454.424, 133.6639
1456.352, 133.5587
1458.281, 135.2240
1460.209, 137.5266
1462.138, 140.1867
1464.066, 140.7094
1465.995, 137.8008
1467.923, 136.1008
1469.852, 137.6483
1471.780, 140.8234
1473.708, 141.9684
1475.637, 141.3300
1477.565, 141.8935
1479.494, 143.5365
1481.422, 144.3978
1483.351, 144.3522
1485.279, 143.8475
1487.208, 143.5528
1489.136, 143.4804
1491.065, 143.6118
1492.993, 142.9402
1494.922, 142.3610
1496.850, 143.1656
1498.779, 144.8470
1500.707, 145.7193
1502.635, 144.9382
1504.564, 144.9800
1506.492, 146.6329
1508.421, 148.3170
1510.349, 149.0015
1512.278, 148.7338
1514.206, 148.4014
1516.135, 148.3031
1518.063, 147.7874
1519.992, 146.0336
1521.920, 145.0689
1523.849, 145.5133
1525.777, 146.8297
1527.706, 148.1882
1529.634, 149.4416
1531.563, 150.0008
1533.491, 149.5147
1535.419, 149.7032
1537.348, 151.0603
1539.276, 152.6087
1541.205, 154.1611
1543.133, 155.6467
1545.062, 155.4452
1546.990, 152.2077
1548.919, 150.3632
1550.847, 152.1731
1552.776, 155.1021
1554.704, 157.2071
1556.633, 158.4285
1558.561, 159.9131
1560.490, 162.5710
1562.418, 162.5371
1564.346, 155.7154
1566.275, 149.1784
1568.203, 147.4697
1570.132, 149.1183
1572.060, 152.0592
1573.989, 156.4812
1575.917, 160.4420
1577.846, 164.6698
1579.774, 166.4631
1581.703, 162.0989
1583.631, 156.4760
1585.560, 155.9820
1587.488, 160.2960
1589.417, 161.6704
1591.345, 157.2425
1593.273, 155.0201
1595.202, 160.5723
1597.130, 166.5504
1599.059, 166.6219
1600.987, 162.2465
1602.916, 160.9780
1604.844, 163.9914
1606.773, 166.3153
1608.701, 166.5155
1610.630, 166.4823
1612.558, 167.2201
1614.487, 168.1292
1616.415, 168.0314
1618.344, 166.7505
1620.272, 166.2799
1622.200, 167.1652
1624.129, 168.2001
1626.057, 168.3680
1627.986, 169.1049
1629.914, 172.7462
1631.843, 178.7371
1633.771, 180.4468
1635.700, 175.6938
1637.628, 172.5799
1639.557, 174.4893
1641.485, 176.0338
1643.414, 173.2303
1645.342, 169.2357
1647.271, 170.6122
1649.199, 178.5588
1651.127, 182.9152
1653.056, 181.7236
1654.984, 179.3392
1656.913, 174.8526
1658.841, 171.3822
1660.770, 171.8392
1662.698, 175.5540
1664.627, 179.2651
1666.555, 183.8330
1668.484, 185.6790
1670.412, 181.5558
1672.341, 178.1008
1674.269, 178.0759
1676.198, 179.6633
1678.126, 180.4005
1680.054, 180.1988
1681.983, 181.8994
1683.911, 187.7231
1685.840, 190.6859
1687.768, 185.9606
1689.697, 181.9414
1691.625, 184.6657
1693.554, 190.6468
1695.482, 191.8507
1697.411, 187.1994
1699.339, 186.1549
1701.268, 192.2650
1703.196, 196.6452
1705.125, 195.5242
1707.053, 193.4066
1708.981, 193.3968
1710.910, 194.9877
1712.838, 196.4565
1714.767, 197.8967
1716.695, 198.6690
1718.624, 198.0604
1720.552, 197.8206
1722.481, 198.9360
1724.409, 200.3039
1726.338, 201.1803
1728.266, 201.5089
1730.195, 200.7040
1732.123, 198.3000
1734.052, 197.1296
1735.980, 199.7170
1737.908, 200.3009
1739.837, 192.7904
1741.765, 185.1159
1743.694, 186.4073
1745.622, 194.8249
1747.551, 200.5172
1749.479, 202.5308
1751.408, 204.9796
1753.336, 210.2677
1755.265, 213.5170
1757.193, 209.7932
1759.122, 204.9062
1761.050, 205.8835
1762.979, 211.1328
1764.907, 212.8240
1766.835, 209.8866
1768.764, 207.2717
1770.692, 205.2246
1772.621, 204.9031
1774.549, 209.7645
1776.478, 214.4143
1778.406, 211.5129
1780.335, 203.5248
1782.263, 200.4333
1784.192, 203.1166
1786.120, 207.8471
1788.049, 217.1346
1789.977, 223.2596
1791.906, 220.6899
1793.834, 215.3487
1795.762, 211.8964
1797.691, 210.5202
1799.619, 212.4826
1801.548, 218.9395
1803.476, 222.3620
1805.405, 219.2051
1807.333, 216.9056
1809.262, 217.8679
1811.190, 220.3078
1813.119, 224.4384
1815.047, 228.6958
1816.976, 227.8665
1818.904, 220.0857
1820.833, 215.3398
1822.761, 213.8526
1824.689, 215.0631
1826.618, 222.0889
1828.546, 228.3465
1830.475, 228.4264
1832.403, 225.5644
1834.332, 226.1582
1836.260, 230.6826
1838.189, 232.2766
1840.117, 228.0611
1842.046, 226.2823
1843.974, 229.6096
1845.903, 233.0049
1847.831, 234.3388
1849.760, 234.8029
1851.688, 235.7057
1853.616, 236.9603
1855.545, 238.1234
1857.473, 239.5151
1859.402, 238.8143
1861.330, 232.8612
1863.259, 230.3783
1865.187, 238.7380
1867.116, 246.8981
1869.044, 245.5428
1870.973, 239.6761
1872.901, 239.1157
1874.830, 243.5990
1876.758, 247.6980
1878.687, 251.2174
1880.615, 253.3957
1882.543, 253.0515
1884.472, 252.7901
1886.400, 253.4865
1888.329, 255.2188
1890.257, 259.4568
1892.186, 264.8415
1894.114, 265.8194
1896.043, 261.5897
1897.971, 258.2063
1899.900, 256.9449
1901.828, 255.2212
1903.757, 249.8635
1905.685, 246.8912
1907.614, 251.9078
1909.542, 260.2252
1911.470, 265.1080
1913.399, 266.7296
1915.327, 267.8470
1917.256, 269.2434
1919.184, 268.2481
1921.113, 262.1671
1923.041, 257.3780
1924.970, 255.0616
1926.898, 254.7226
1928.827, 257.1088
1930.755, 260.7314
1932.684, 262.8323
1934.612, 263.5861
1936.541, 265.3293
1938.469, 268.6220
1940.397, 270.1712
1942.326, 268.3257
1944.254, 266.8973
1946.183, 267.7030
1948.111, 269.1147
1950.040, 269.3919
1951.968, 269.7697
1953.897, 273.4250
1955.825, 279.7090
1957.754, 281.5058
1959.682, 276.1104
1961.611, 275.3860
1963.539, 287.4682
1965.468, 294.7473
1967.396, 288.7639
1969.324, 280.5724
1971.253, 276.1018
1973.181, 275.1860
1975.110, 279.2764
1977.038, 287.8357
1978.967, 290.9061
1980.895, 286.1411
1982.824, 284.1039
1984.752, 287.0353
1986.681, 289.7739
1988.609, 290.6942
1990.538, 291.4907
1992.466, 293.2722
1994.395, 295.2249
1996.323, 296.0716
1998.251, 296.3374
2000.180, 297.7404
2002.108, 300.3399
2004.037, 303.3406
2005.965, 306.7813
2007.894, 310.2824
2009.822, 316.3277
2011.751, 319.0378
2013.679, 312.0510
2015.608, 304.4147
2017.536, 305.5843
2019.465, 311.5965
2021.393, 313.5898
2023.322, 311.4614
2025.250, 310.2722
2027.178, 309.9841
2029.107, 310.7972
2031.035, 313.7465
2032.964, 316.0736
2034.892, 316.2260
2036.821, 316.6358
2038.749, 319.4591
2040.678, 322.4606
2042.606, 322.6293
2044.535, 321.0747
2046.463, 321.1989
2048.392, 322.9661
2050.320, 322.7707
2052.249, 319.1915
2054.177, 317.9135
2056.105, 322.3147
2058.034, 325.8156
2059.962, 325.7156
2061.891, 324.9055
2063.819, 325.0001
2065.748, 325.7345
2067.676, 326.5208
2069.605, 327.6002
2071.533, 329.8809
2073.462, 333.1680
2075.390, 340.1493
2077.319, 353.9490
2079.247, 361.0193
2081.176, 356.0108
2083.104, 350.0081
2085.032, 346.9991
2086.961, 344.4673
2088.889, 339.9856
2090.818, 335.6396
2092.746, 333.4949
2094.675, 333.6278
2096.603, 336.8242
2098.532, 343.4307
2100.460, 348.9585
2102.389, 353.4641
2104.317, 356.7840
2106.246, 358.6742
2108.174, 359.7234
2110.103, 359.3722
2112.031, 359.0478
2113.959, 360.3993
2115.888, 361.2748
2117.816, 358.1894
2119.745, 353.6413
2121.673, 353.1537
2123.602, 356.2519
2125.530, 360.6728
2127.459, 366.7997
2129.387, 368.1232
2131.316, 359.6837
2133.244, 356.7577
2135.173, 369.9829
2137.101, 378.7850
2139.030, 371.7109
2140.958, 362.3629
2142.886, 358.9911
2144.815, 359.8129
2146.743, 364.6059
2148.672, 371.4005
2150.600, 372.1734
2152.529, 367.4041
2154.457, 367.7369
2156.386, 374.5932
2158.314, 378.6009
2160.243, 377.1541
2162.171, 376.4575
2164.100, 380.8317
2166.028, 382.6604
2167.957, 374.0326
2169.885, 367.1352
2171.813, 372.7524
2173.742, 384.0007
2175.670, 393.4893
2177.599, 400.6745
2179.527, 403.4024
2181.456, 401.6913
2183.384, 399.0806
2185.313, 395.5656
2187.241, 391.1333
2189.170, 384.2297
2191.098, 382.1476
2193.027, 390.0544
2194.955, 396.8876
2196.884, 397.2309
2198.812, 396.4911
2200.740, 398.6479
2202.669, 400.7551
2204.597, 398.0536
2206.526, 393.7857
2208.454, 395.2767
2210.383, 401.7495
2212.311, 407.3558
2214.240, 412.1774
2216.168, 412.6596
2218.097, 407.2892
2220.025, 405.7362
2221.954, 411.2143
2223.882, 416.2353
2225.811, 418.1190
2227.739, 419.7748
2229.667, 424.2545
2231.596, 426.6924
2233.524, 419.0457
2235.453, 411.5925
2237.381, 419.6479
2239.310, 435.3911
2241.238, 441.3455
2243.167, 439.0235
2245.095, 437.5320
2247.024, 436.9325
2248.952, 432.7586
2250.881, 422.8374
2252.809, 421.9944
2254.738, 439.2003
2256.666, 450.4155
2258.594, 446.7494
2260.523, 441.9255
2262.451, 437.1798
2264.380, 436.4683
2266.308, 447.2034
2268.237, 457.7782
2270.165, 455.0544
2272.094, 447.4445
2274.022, 448.2977
2275.951, 454.1674
2277.879, 455.9588
2279.808, 454.0348
2281.736, 452.3372
2283.665, 450.7047
2285.593, 450.8162
2287.521, 454.6824
2289.450, 456.5357
2291.378, 454.7403
2293.307, 453.7574
2295.235, 452.2958
2297.164, 455.3125
2299.092, 468.4884
2301.021, 480.9535
2302.949, 488.2786
2304.878, 490.2389
2306.806, 482.7717
2308.735, 472.8267
2310.663, 469.9442
2312.592, 472.0057
2314.520, 474.1581
2316.448, 476.4214
2318.377, 479.0774
2320.305, 482.1417
2322.234, 484.2770
2324.162, 485.2533
2326.091, 487.4489
2328.019, 491.6831
2329.948, 494.8877
2331.876, 495.7980
2333.805, 496.8055
2335.733, 500.1927
2337.662, 501.3003
2339.590, 495.6945
2341.519, 490.7945
2343.447, 490.8384
2345.375, 493.2085
2347.304, 497.2581
2349.232, 501.2161
2351.161, 503.8504
2353.089, 504.4529
2355.018, 499.6044
2356.946, 491.6400
2358.875, 490.5440
2360.803, 496.2070
2362.732, 499.6079
2364.660, 499.8732
2366.589, 504.5465
2368.517, 515.3830
2370.446, 520.4893
2372.374, 516.4049
2374.302, 515.1035
2376.231, 522.2777
2378.159, 525.7813
2380.088, 515.7474
2382.016, 510.7905
2383.945, 524.2024
2385.873, 535.7957
2387.802, 531.5292
2389.730, 525.1942
2391.659, 529.8663
2393.587, 534.6402
2395.516, 522.4988
2397.444, 508.2899
2399.373, 518.2072
2401.301, 540.8077
2403.229, 548.7603
2405.158, 544.4749
2407.086, 540.3573
2409.015, 536.4141
2410.943, 529.7178
2412.872, 519.9747
2414.800, 521.6323
2416.729, 537.2647
2418.657, 546.2686
2420.586, 543.8912
2422.514, 542.4463
2424.443, 545.4113
2426.371, 546.8149
2428.300, 543.8059
2430.228, 542.3184
2432.156, 540.8667
2434.085, 545.9205
2436.013, 568.4304
2437.942, 584.9741
2439.870, 576.7922
2441.799, 564.5508
2443.727, 561.4753
2445.656, 562.8967
2447.584, 564.9112
2449.513, 568.2476
2451.441, 575.7888
2453.370, 584.1104
2455.298, 585.1277
2457.227, 582.8546
2459.155, 589.7516
2461.083, 601.6526
2463.012, 598.2200
2464.940, 581.3205
2466.869, 580.9020
2468.797, 599.7159
2470.726, 602.7542
2472.654, 587.4812
2474.583, 585.1317
2476.511, 599.6040
2478.440, 608.5068
2480.368, 607.4135
2482.297, 606.6877
2484.225, 609.2488
2486.154, 610.1643
2488.082, 606.4401
2490.010, 605.2186
2491.939, 609.2332
2493.867, 612.7684
2495.796, 614.9057
2497.724, 614.7062
2499.653, 608.2969
2501.581, 604.2060
2503.510, 608.7012
2505.438, 614.5536
2507.367, 617.0361
2509.295, 619.0719
2511.224, 624.6288
2513.152, 629.0900
2515.081, 625.9493
2517.009, 621.5789
2518.938, 623.1863
2520.866, 628.2486
2522.794, 635.4514
2524.723, 641.8330
2526.651, 640.3561
2528.580, 633.3914
2530.508, 624.5944
2532.437, 616.7934
2534.365, 622.2030
2536.294, 637.4244
2538.222, 643.3887
2540.151, 640.7202
2542.079, 641.5927
2544.008, 646.1305
2545.936, 653.7375
2547.865, 664.7382
2549.793, 666.9314
2551.721, 659.2357
2553.650, 653.7681
2555.578, 651.0101
2557.507, 654.0981
2559.435, 667.7679
2561.364, 677.9032
2563.292, 684.0497
2565.221, 688.2260
2567.149, 691.3146
2569.078, 689.1500
2571.006, 677.1817
2572.935, 670.6097
2574.863, 677.0483
2576.792, 682.6447
2578.720, 683.5811
2580.648, 685.2679
2582.577, 687.9651
2584.505, 693.5175
2586.434, 707.0518
2588.362, 714.7476
2590.291, 703.2169
2592.219, 695.7301
2594.148, 705.5209
2596.076, 717.2718
2598.005, 729.3162
2599.933, 733.2897
2601.862, 719.0116
2603.790, 704.3838
2605.719, 699.7667
2607.647, 699.9041
2609.575, 702.9213
2611.504, 707.0820
2613.432, 711.4251
2615.361, 715.8481
2617.289, 720.2213
2619.218, 724.6515
2621.146, 730.0048
2623.075, 734.6614
2625.003, 735.9426
2626.932, 736.6412
2628.860, 740.5208
2630.789, 745.2767
2632.717, 746.8362
2634.646, 748.4813
2636.574, 757.1885
2638.502, 766.3106
2640.431, 765.4141
2642.359, 759.3337
2644.288, 753.4019
2646.216, 749.8105
2648.145, 754.2185
2650.073, 762.9038
2652.002, 771.3465
2653.930, 777.1171
2655.859, 772.7340
2657.787, 763.5444
2659.716, 762.0010
2661.644, 765.5322
2663.573, 767.5612
2665.501, 769.0818
2667.429, 774.6736
2669.358, 781.0405
2671.286, 776.2527
2673.215, 766.1730
2675.143, 771.8566
2677.072, 787.4594
2679.000, 791.0592
2680.929, 786.6108
2682.857, 786.7822
2684.786, 790.3674
2686.714, 791.9532
2688.643, 792.9053
2690.571, 800.5408
2692.500, 812.3742
2694.428, 815.6519
2696.356, 812.9583
2698.285, 813.3533
2700.213, 816.4240
2702.142, 819.8574
2704.070, 823.8408
2705.999, 831.3984
2707.927, 840.3191
2709.856, 836.0726
2711.784, 823.7003
2713.713, 822.6567
2715.641, 830.3255
2717.570, 835.4572
2719.498, 838.7317
2721.427, 843.5953
2723.355, 849.3947
2725.283, 854.7413
2727.212, 857.8650
2729.140, 848.0958
2731.069, 831.8413
2732.997, 834.4410
2734.926, 849.3892
2736.854, 849.6072
2738.783, 840.8507
2740.711, 846.0072
2742.640, 859.4449
2744.568, 865.2510
2746.497, 866.0225
2748.425, 868.8291
2750.354, 873.1438
2752.282, 878.1650
2754.210, 883.0659
2756.139, 884.6971
2758.067, 885.1514
2759.996, 890.5136
2761.924, 897.1399
2763.853, 895.6450
2765.781, 890.2441
2767.710, 888.1642
2769.638, 889.7271
2771.567, 896.8501
2773.495, 906.5573
2775.424, 915.6587
2777.352, 922.7402
2779.281, 922.9359
2781.209, 921.8167
2783.137, 929.5900
2785.066, 938.7083
2786.994, 940.4418
2788.923, 938.1666
2790.851, 933.6421
2792.780, 929.7577
2794.708, 928.8714
2796.637, 931.2571
2798.565, 939.2571
2800.494, 947.9107
2802.422, 953.2020
2804.351, 956.7010
2806.279, 958.4199
2808.208, 960.5359
2810.136, 965.6193
2812.064, 969.9289
2813.993, 970.5482
2815.921, 970.2716
2817.850, 969.8438
2819.778, 970.4393
2821.707, 975.4890
2823.635, 976.5449
2825.564, 963.1403
2827.492, 956.2433
2829.421, 971.3224
2831.349, 983.2328
2833.278, 981.9423
2835.206, 980.5961
2837.135, 980.0044
2839.063, 986.2700
2840.991, 1013.260
2842.920, 1024.565
2844.848, 1000.345
2846.777, 992.9453
2848.705, 1013.778
2850.634, 1024.767
2852.562, 1014.335
2854.491, 1014.574
2856.419, 1040.004
2858.348, 1045.849
2860.276, 1028.788
2862.205, 1017.308
2864.133, 1013.453
2866.062, 1018.665
2867.990, 1034.073
2869.918, 1044.414
2871.847, 1049.692
2873.775, 1052.526
2875.704, 1052.917
2877.632, 1047.586
2879.561, 1039.728
2881.489, 1047.705
2883.418, 1066.567
2885.346, 1080.565
2887.275, 1088.488
2889.203, 1082.503
2891.132, 1072.108
2893.060, 1076.570
2894.989, 1085.954
2896.917, 1081.566
2898.845, 1076.367
2900.774, 1089.825
2902.702, 1104.096
2904.631, 1099.380
2906.559, 1092.121
2908.488, 1096.759
2910.416, 1101.935
2912.345, 1100.625
2914.273, 1099.054
2916.202, 1098.515
2918.130, 1101.651
2920.059, 1110.104
2921.987, 1122.021
2923.916, 1139.524
2925.844, 1153.220
2927.772, 1162.924
2929.701, 1162.055
2931.629, 1143.260
2933.558, 1131.545
2935.486, 1128.684
2937.415, 1130.970
2939.343, 1138.048
2941.272, 1152.476
2943.200, 1175.893
2945.129, 1187.384
2947.057, 1187.724
2948.986, 1180.005
2950.914, 1167.901
2952.843, 1168.066
2954.771, 1177.661
2956.699, 1190.699
2958.628, 1204.175
2960.556, 1214.505
2962.485, 1218.658
2964.413, 1206.639
2966.342, 1192.194
2968.270, 1189.430
2970.199, 1193.047
2972.127, 1203.258
2974.056, 1211.544
2975.984, 1209.836
2977.913, 1209.218
2979.841, 1216.547
2981.770, 1222.107
2983.698, 1221.529
2985.626, 1223.951
2987.555, 1234.089
2989.483, 1243.825
2991.412, 1254.125
2993.340, 1255.981
2995.269, 1247.950
2997.197, 1241.861
2999.126, 1238.360
3001.054, 1243.873
3002.983, 1257.590
3004.911, 1271.110
3006.840, 1283.074
3008.768, 1288.188
3010.697, 1289.493
3012.625, 1293.955
3014.553, 1299.332
3016.482, 1301.591
3018.410, 1303.496
3020.339, 1309.245
3022.267, 1313.750
3024.196, 1311.154
3026.124, 1308.949
3028.053, 1310.267
3029.981, 1313.315
3031.910, 1315.857
3033.838, 1323.501
3035.767, 1341.224
3037.695, 1351.060
3039.624, 1349.998
3041.552, 1344.884
3043.480, 1332.583
3045.409, 1346.487
3047.337, 1384.579
3049.266, 1385.816
3051.194, 1360.276
3053.123, 1357.019
3055.051, 1367.405
3056.980, 1369.289
3058.908, 1368.916
3060.837, 1377.644
3062.765, 1387.081
3064.694, 1387.445
3066.622, 1387.512
3068.551, 1396.336
3070.479, 1401.663
3072.407, 1392.490
3074.336, 1392.327
3076.264, 1420.370
3078.193, 1434.020
3080.121, 1425.606
3082.050, 1422.984
3083.978, 1429.501
3085.907, 1441.162
3087.835, 1457.641
3089.764, 1470.144
3091.692, 1477.087
3093.621, 1465.363
3095.549, 1447.755
3097.478, 1454.737
3099.406, 1468.281
3101.334, 1457.399
3103.263, 1449.330
3105.191, 1471.385
3107.120, 1494.563
3109.048, 1506.120
3110.977, 1507.245
3112.905, 1491.974
3114.834, 1487.260
3116.762, 1505.960
3118.691, 1521.036
3120.619, 1532.338
3122.548, 1523.457
3124.476, 1498.273
3126.405, 1511.838
3128.333, 1550.011
3130.261, 1545.540
3132.190, 1523.951
3134.118, 1538.353
3136.047, 1560.908
3137.975, 1563.067
3139.904, 1558.222
3141.832, 1549.292
3143.761, 1548.029
3145.689, 1562.686
3147.618, 1579.482
3149.546, 1598.761
3151.475, 1610.295
3153.403, 1613.201
3155.332, 1607.920
3157.260, 1594.645
3159.188, 1594.647
3161.117, 1605.590
3163.045, 1618.284
3164.974, 1630.992
3166.902, 1644.241
3168.831, 1651.677
3170.759, 1633.687
3172.688, 1625.307
3174.616, 1661.703
3176.545, 1688.250
3178.473, 1674.206
3180.402, 1664.750
3182.330, 1666.316
3184.259, 1669.428
3186.187, 1673.012
3188.115, 1677.012
3190.044, 1681.559
3191.972, 1689.469
3193.901, 1698.715
3195.829, 1706.580
3197.758, 1710.591
3199.686, 1699.284
3201.615, 1693.863
3203.543, 1721.273
3205.472, 1738.522
3207.400, 1711.606
3209.329, 1701.557
3211.257, 1722.510
3213.186, 1733.772
3215.114, 1727.046
3217.042, 1730.491
3218.971, 1742.906
3220.899, 1748.370
3222.828, 1749.641
3224.756, 1751.706
3226.685, 1755.647
3228.613, 1760.911
3230.542, 1771.790
3232.470, 1800.423
3234.399, 1819.028
3236.327, 1806.923
3238.256, 1803.586
3240.184, 1815.050
3242.113, 1821.710
3244.041, 1821.273
3245.969, 1817.620
3247.898, 1814.323
3249.826, 1830.949
3251.755, 1857.989
3253.683, 1891.042
3255.612, 1912.570
3257.540, 1896.619
3259.469, 1881.208
3261.397, 1885.974
3263.326, 1892.018
3265.254, 1896.518
3267.183, 1897.683
3269.111, 1895.277
3271.040, 1892.813
3272.968, 1892.131
3274.896, 1911.261
3276.825, 1934.587
3278.753, 1929.537
3280.682, 1918.804
3282.610, 1922.813
3284.539, 1932.685
3286.467, 1947.996
3288.396, 1958.356
3290.324, 1954.085
3292.253, 1961.576
3294.181, 1981.402
3296.110, 1991.958
3298.038, 1993.212
3299.967, 1984.407
3301.895, 1975.309
3303.823, 1989.722
3305.752, 2004.517
3307.680, 1998.069
3309.609, 1989.960
3311.537, 1981.701
3313.466, 1994.624
3315.394, 2043.956
3317.323, 2060.381
3319.251, 2041.670
3321.180, 2028.908
3323.108, 2023.824
3325.037, 2032.319
3326.965, 2045.422
3328.894, 2052.710
3330.822, 2057.433
3332.750, 2057.462
3334.679, 2063.754
3336.607, 2083.945
3338.536, 2091.376
3340.464, 2083.143
3342.393, 2084.833
3344.321, 2094.831
3346.250, 2099.325
3348.178, 2103.152
3350.107, 2115.672
3352.035, 2127.891
3353.964, 2130.438
3355.892, 2134.725
3357.821, 2147.011
3359.749, 2150.415
3361.677, 2137.489
3363.606, 2147.971
3365.534, 2175.819
3367.463, 2184.629
3369.391, 2185.558
3371.320, 2202.203
3373.248, 2219.497
3375.177, 2229.236
3377.105, 2229.362
3379.034, 2208.690
3380.962, 2206.529
3382.891, 2228.190
3384.819, 2245.862
3386.748, 2258.467
3388.676, 2270.932
3390.604, 2279.206
3392.533, 2278.642
3394.461, 2269.539
3396.390, 2239.021
3398.318, 2224.667
3400.247, 2240.480
3402.175, 2264.414
3404.104, 2295.714
3406.032, 2314.088
3407.961, 2321.584
3409.889, 2322.769
3411.818, 2325.841
3413.746, 2356.539
3415.675, 2373.167
3417.603, 2330.066
3419.531, 2309.843
3421.460, 2338.323
3423.388, 2354.734
3425.317, 2355.356
3427.245, 2362.791
3429.174, 2377.200
3431.102, 2410.497
3433.031, 2434.170
3434.959, 2409.858
3436.888, 2384.879
3438.816, 2373.533
3440.745, 2383.598
3442.673, 2423.813
3444.602, 2431.174
3446.530, 2413.450
3448.458, 2427.279
3450.387, 2454.724
3452.315, 2477.145
3454.244, 2490.112
3456.172, 2486.583
3458.101, 2487.408
3460.029, 2505.442
3461.958, 2506.526
3463.886, 2495.420
3465.815, 2536.812
3467.743, 2596.050
3469.672, 2594.931
3471.600, 2578.039
3473.529, 2581.658
3475.457, 2578.865
3477.385, 2551.934
3479.314, 2550.779
3481.242, 2577.642
3483.171, 2579.731
3485.099, 2566.476
3487.028, 2567.665
3488.956, 2574.145
3490.885, 2574.400
3492.813, 2583.698
3494.742, 2611.424
3496.670, 2628.429
3498.599, 2628.044
3500.527, 2650.651
3502.456, 2680.288
3504.384, 2642.930
3506.313, 2602.083
3508.241, 2633.948
3510.169, 2667.364
3512.098, 2675.171
3514.026, 2687.509
3515.955, 2712.204
3517.883, 2708.256
3519.812, 2689.000
3521.740, 2691.200
3523.669, 2704.160
3525.597, 2720.147
3527.526, 2735.925
3529.454, 2749.472
3531.383, 2765.118
3533.311, 2783.137
3535.240, 2804.143
3537.168, 2819.257
3539.096, 2791.059
3541.025, 2764.910
3542.953, 2787.411
3544.882, 2806.255
3546.810, 2795.827
3548.739, 2803.385
3550.667, 2829.366
3552.596, 2842.739
3554.524, 2848.145
3556.453, 2861.082
3558.381, 2865.711
3560.310, 2837.732
3562.238, 2823.713
3564.167, 2830.775
3566.095, 2879.462
3568.023, 2957.207
3569.952, 2951.343
3571.880, 2916.565
3573.809, 2929.130
3575.737, 2948.831
3577.666, 2956.690
3579.594, 2958.904
3581.523, 2955.706
3583.451, 2954.791
3585.380, 2956.543
3587.308, 2962.742
3589.237, 2970.650
3591.165, 2971.936
3593.094, 2988.464
3595.022, 3032.599
3596.950, 3051.497
3598.879, 3042.050
3600.807, 3044.690
3602.736, 3054.028
3604.664, 3066.734
3606.593, 3070.819
3608.521, 3054.361
3610.450, 3046.170
3612.378, 3052.691
3614.307, 3075.735
3616.235, 3105.803
3618.164, 3111.812
3620.092, 3108.698
3622.021, 3104.100
3623.949, 3109.559
3625.877, 3131.875
3627.806, 3153.819
3629.734, 3173.810
3631.663, 3188.451
3633.591, 3195.369
3635.520, 3178.631
3637.448, 3174.958
3639.377, 3211.698
3641.305, 3221.180
3643.234, 3194.928
3645.162, 3201.968
3647.091, 3228.573
3649.019, 3247.644
3650.948, 3263.930
3652.876, 3283.618
3654.804, 3291.167
3656.733, 3277.790
3658.661, 3289.365
3660.590, 3318.437
3662.518, 3344.369
3664.447, 3362.234
3666.375, 3367.070
3668.304, 3365.238
3670.232, 3357.061
3672.161, 3341.760
3674.089, 3326.625
3676.018, 3344.549
3677.946, 3375.464
3679.875, 3405.878
3681.803, 3421.693
3683.731, 3403.020
3685.660, 3410.417
3687.588, 3437.550
3689.517, 3440.137
3691.445, 3430.061
3693.374, 3408.877
3695.302, 3409.618
3697.231, 3462.579
3699.159, 3500.827
3701.088, 3521.036
3703.016, 3511.426
3704.945, 3493.995
3706.873, 3498.441
3708.802, 3511.378
3710.730, 3535.268
3712.658, 3542.745
3714.587, 3534.959
3716.515, 3528.642
3718.444, 3531.728
3720.372, 3563.477
3722.301, 3597.299
3724.229, 3632.320
3726.158, 3625.801
3728.086, 3585.138
3730.015, 3600.232
3731.943, 3636.536
3733.872, 3654.421
3735.800, 3653.567
3737.729, 3618.835
3739.657, 3618.920
3741.585, 3650.810
3743.514, 3665.905
3745.442, 3674.646
3747.371, 3689.334
3749.299, 3706.759
3751.228, 3728.040
3753.156, 3743.273
3755.085, 3753.018
3757.013, 3756.685
3758.942, 3766.557
3760.870, 3816.652
3762.799, 3833.052
3764.727, 3772.319
3766.656, 3795.580
3768.584, 3871.067
3770.512, 3859.635
3772.441, 3826.811
3774.369, 3822.990
3776.298, 3832.876
3778.226, 3854.338
3780.155, 3900.956
3782.083, 3949.338
3784.012, 3930.637
3785.940, 3906.091
3787.869, 3915.609
3789.797, 3924.442
3791.726, 3926.261
3793.654, 3962.956
3795.583, 4009.498
3797.511, 4028.657
3799.439, 4032.593
3801.368, 4025.827
3803.296, 4009.558
3805.225, 3988.040
3807.153, 4002.441
3809.082, 4027.451
3811.010, 4037.870
3812.939, 4038.753
3814.867, 4029.100
3816.796, 4051.437
3818.724, 4094.503
3820.653, 4120.515
3822.581, 4133.571
3824.510, 4128.637
3826.438, 4126.202
3828.366, 4130.106
3830.295, 4174.565
3832.223, 4224.005
3834.152, 4206.712
3836.080, 4183.256
3838.009, 4177.699
3839.937, 4183.845
3841.866, 4198.908
3843.794, 4208.078
3845.723, 4216.216
3847.651, 4227.773
3849.580, 4236.650
3851.508, 4243.236
3853.437, 4267.773
3855.365, 4294.732
3857.293, 4284.284
3859.222, 4274.357
3861.150, 4285.080
3863.079, 4292.724
3865.007, 4296.569
3866.936, 4292.916
3868.864, 4326.712
3870.793, 4480.125
3872.721, 4519.641
3874.650, 4441.063
3876.578, 4415.767
3878.507, 4414.340
3880.435, 4404.495
3882.364, 4396.046
3884.292, 4390.068
3886.220, 4408.895
3888.149, 4448.313
3890.077, 4477.914
3892.006, 4495.799
3893.934, 4495.032
3895.863, 4492.292
3897.791, 4490.603
3899.720, 4503.410
3901.648, 4520.962
3903.577, 4529.004
3905.505, 4529.219
3907.434, 4516.390
3909.362, 4516.632
3911.291, 4533.975
3913.219, 4586.319
3915.147, 4621.843
3917.076, 4600.221
3919.004, 4573.283
3920.933, 4548.434
3922.861, 4567.801
3924.790, 4604.254
3926.718, 4636.116
3928.647, 4650.861
3930.575, 4637.379
3932.504, 4638.714
3934.432, 4652.611
3936.361, 4669.338
3938.289, 4684.240
3940.218, 4704.550
3942.146, 4710.123
3944.074, 4706.602
3946.003, 4725.680
3947.931, 4747.567
3949.860, 4760.894
3951.788, 4762.886
3953.717, 4767.182
3955.645, 4793.261
3957.574, 4812.451
3959.502, 4816.772
3961.431, 4812.547
3963.359, 4798.659
3965.288, 4811.180
3967.216, 4842.495
3969.145, 4862.749
3971.073, 4873.918
3973.001, 4888.403
3974.930, 4889.395
3976.858, 4882.239
3978.787, 4894.228
3980.715, 4909.051
3982.644, 4894.192
3984.572, 4900.646
3986.501, 4934.720
3988.429, 4954.095
3990.358, 4961.111
3992.286, 4937.942
3994.215, 4954.765
3996.143, 4991.774
3998.072, 4950.840
4000.000, 4939.672
4001.928, 5035.136
4003.857, 5088.040
4005.785, 5073.831
4007.714, 5053.634
4009.642, 5032.126
4011.571, 5035.263
4013.499, 5058.895
4015.428, 5063.611
4017.356, 5054.981
4019.285, 5072.916
4021.213, 5130.768
4023.142, 5176.189
4025.070, 5163.570
4026.999, 5108.230
4028.927, 5103.420
4030.855, 5174.950
4032.784, 5200.093
4034.712, 5184.274
4036.641, 5227.745
4038.569, 5276.901
4040.498, 5273.336
4042.426, 5248.537
4044.355, 5237.077
4046.283, 5241.803
4048.212, 5230.614
4050.140, 5246.849
4052.069, 5302.310
4053.997, 5340.148
4055.926, 5362.993
4057.854, 5381.865
4059.782, 5373.526
4061.711, 5358.534
4063.639, 5356.862
4065.568, 5378.450
4067.496, 5401.347
4069.425, 5414.171
4071.353, 5410.342
4073.282, 5416.351
4075.210, 5446.240
4077.139, 5465.906
4079.067, 5485.397
4080.996, 5501.198
4082.924, 5512.857
4084.853, 5505.745
4086.781, 5498.255
4088.709, 5511.177
4090.638, 5510.652
4092.566, 5525.195
4094.495, 5568.823
4096.423, 5595.118
4098.352, 5597.923
4100.280, 5600.436
4102.208, 5598.937
4104.137, 5614.653
4106.065, 5645.207
4107.994, 5680.291
4109.922, 5688.088
4111.851, 5673.484
4113.779, 5673.490
4115.708, 5681.106
4117.636, 5692.105
4119.565, 5722.194
4121.493, 5771.194
4123.422, 5769.393
4125.350, 5752.712
4127.279, 5748.922
4129.207, 5771.770
4131.136, 5820.823
4133.064, 5829.192
4134.993, 5828.948
4136.921, 5851.156
4138.850, 5872.678
4140.778, 5890.032
4142.707, 5857.247
4144.635, 5824.420
4146.563, 5862.520
4148.492, 5896.650
4150.420, 5910.978
4152.349, 5954.239
4154.277, 5988.876
4156.206, 5975.186
4158.134, 5968.101
4160.063, 5968.938
4161.991, 5983.911
4163.919, 6007.453
4165.848, 6004.600
4167.776, 6035.771
4169.705, 6108.628
4171.633, 6098.095
4173.562, 6057.761
4175.490, 6095.145
4177.419, 6119.559
4179.347, 6092.801
4181.276, 6131.400
4183.204, 6174.737
4185.133, 6127.510
4187.061, 6108.578
4188.990, 6127.536
4190.918, 6140.330
4192.847, 6165.747
4194.775, 6210.638
4196.704, 6237.381
4198.632, 6245.767
4200.561, 6276.862
4202.489, 6313.942
4204.417, 6331.520
4206.346, 6345.193
4208.274, 6360.941
4210.203, 6343.237
4212.131, 6331.427
4214.060, 6380.943
4215.988, 6410.862
4217.917, 6416.362
4219.845, 6398.066
4221.773, 6381.086
4223.702, 6406.658
4225.630, 6426.374
4227.559, 6438.529
4229.487, 6509.532
4231.416, 6572.444
4233.344, 6557.200
4235.273, 6563.992
4237.201, 6591.170
4239.130, 6580.923
4241.058, 6568.063
4242.987, 6575.082
4244.915, 6588.673
4246.844, 6610.969
4248.772, 6666.014
4250.701, 6713.946
4252.629, 6739.982
4254.558, 6714.919
4256.486, 6683.333
4258.415, 6756.902
4260.343, 6806.419
4262.271, 6777.669
4264.200, 6818.872
4266.128, 6879.414
4268.057, 6887.995
4269.985, 6884.073
4271.914, 6875.854
4273.842, 6884.266
4275.771, 6905.593
4277.699, 6944.702
4279.627, 6967.534
4281.556, 6977.372
4283.484, 7038.657
4285.413, 7084.658
4287.341, 7042.854
4289.270, 7051.562
4291.198, 7099.097
4293.127, 7147.948
4295.055, 7160.929
4296.984, 7097.713
4298.912, 7116.375
4300.841, 7170.346
4302.769, 7167.975
4304.698, 7178.776
4306.626, 7221.427
4308.555, 7247.536
4310.483, 7257.302
4312.412, 7230.018
4314.340, 7268.199
4316.269, 7365.046
4318.197, 7353.923
4320.125, 7339.240
4322.054, 7383.503
4323.982, 7423.476
4325.911, 7460.479
4327.839, 7520.060
4329.768, 7564.661
4331.696, 7582.380
4333.625, 7584.853
4335.553, 7581.301
4337.481, 7578.121
4339.410, 7587.825
4341.338, 7607.930
4343.267, 7595.882
4345.195, 7597.569
4347.124, 7647.981
4349.052, 7687.299
4350.981, 7714.322
4352.909, 7747.874
4354.838, 7757.738
4356.766, 7733.071
4358.695, 7799.681
4360.623, 7878.346
4362.552, 7851.698
4364.480, 7839.090
4366.409, 7856.845
4368.337, 7874.029
4370.266, 7894.739
4372.194, 7919.171
4374.123, 7963.790
4376.051, 8014.554
4377.979, 8034.408
4379.908, 8051.904
4381.836, 8073.175
4383.765, 8155.404
4385.693, 8218.354
4387.622, 8150.708
4389.550, 8176.784
4391.479, 8274.022
4393.407, 8180.881
4395.335, 8135.941
4397.264, 8244.195
4399.192, 8292.912
4401.121, 8302.033
4403.049, 8301.055
4404.978, 8325.642
4406.906, 8374.706
4408.835, 8412.132
4410.763, 8446.031
4412.692, 8485.048
4414.620, 8493.319
4416.549, 8494.943
4418.477, 8557.755
4420.406, 8573.863
4422.334, 8521.562
4424.263, 8567.976
4426.191, 8641.990
4428.120, 8697.867
4430.048, 8711.018
4431.977, 8706.892
4433.905, 8764.414
4435.833, 8804.144
4437.762, 8804.728
4439.690, 8748.826
4441.619, 8729.307
4443.547, 8841.281
4445.476, 8876.055
4447.404, 8857.896
4449.333, 8914.319
4451.261, 8952.601
4453.189, 8947.519
4455.118, 9004.318
4457.046, 9055.222
4458.975, 9018.138
4460.903, 9004.388
4462.832, 9019.866
4464.760, 9065.552
4466.689, 9118.608
4468.617, 9173.548
4470.546, 9191.539
4472.474, 9202.707
4474.403, 9228.644
4476.331, 9268.406
4478.260, 9308.691
4480.188, 9317.259
4482.117, 9317.686
4484.045, 9321.529
4485.974, 9408.246
4487.902, 9473.183
4489.831, 9386.828
4491.759, 9446.499
4493.688, 9572.517
4495.616, 9589.542
4497.544, 9588.236
4499.473, 9584.920
4501.401, 9526.117
4503.330, 9541.182
4505.258, 9707.541
4507.187, 9749.497
4509.115, 9732.127
4511.043, 9763.897
4512.972, 9791.548
4514.900, 9807.208
4516.829, 9792.223
4518.757, 9825.142
4520.686, 9961.049
4522.614, 9945.941
4524.543, 9895.962
4526.471, 9920.028
4528.400, 9933.979
4530.328, 9945.614
4532.257, 10009.88
4534.185, 10040.80
4536.114, 10033.26
4538.042, 10108.36
4539.971, 10187.77
4541.899, 10214.44
4543.828, 10251.13
4545.756, 10300.68
4547.685, 10385.73
4549.613, 10404.58
4551.542, 10371.42
4553.470, 10391.96
4555.398, 10414.96
4557.327, 10425.15
4559.255, 10424.76
4561.184, 10448.72
4563.112, 10547.70
4565.041, 10546.11
4566.969, 10510.20
4568.897, 10572.13
4570.826, 10645.89
4572.754, 10707.79
4574.683, 10675.58
4576.611, 10698.68
4578.540, 10816.49
4580.468, 10747.86
4582.397, 10686.35
4584.325, 10815.35
4586.254, 10901.89
4588.182, 10946.85
4590.111, 10964.85
4592.039, 10973.93
4593.968, 10982.78
4595.896, 11023.75
4597.825, 11064.21
4599.753, 11093.49
4601.682, 11092.37
4603.610, 11117.17
4605.539, 11239.72
4607.467, 11222.47
4609.396, 11171.08
4611.324, 11265.01
4613.252, 11305.40
4615.181, 11297.50
4617.109, 11329.34
4619.038, 11372.71
4620.966, 11416.60
4622.895, 11430.01
4624.823, 11454.78
4626.751, 11523.23
4628.680, 11561.46
4630.608, 11583.63
4632.537, 11598.22
4634.465, 11628.71
4636.394, 11676.97
4638.322, 11765.53
4640.251, 11794.29
4642.179, 11773.39
4644.108, 11797.37
4646.036, 11840.89
4647.965, 11895.33
4649.893, 11900.64
4651.822, 11917.18
4653.750, 11977.11
4655.679, 11972.61
4657.607, 11958.43
4659.536, 11995.12
4661.464, 12048.68
4663.393, 12100.79
4665.321, 12119.47
4667.250, 12134.22
4669.178, 12157.41
4671.106, 12222.42
4673.035, 12287.82
4674.963, 12341.33
4676.892, 12384.87
4678.820, 12407.21
4680.749, 12396.02
4682.677, 12450.08
4684.605, 12510.69
4686.534, 12535.52
4688.462, 12562.01
4690.391, 12604.06
4692.319, 12690.65
4694.248, 12734.90
4696.176, 12746.35
4698.105, 12749.58
4700.033, 12786.39
4701.962, 12845.41
4703.890, 12869.92
4705.819, 12847.06
4707.747, 12788.58
4709.676, 12850.99
4711.604, 12924.67
4713.533, 12961.58
4715.461, 12993.85
4717.390, 13030.96
4719.318, 13076.46
4721.247, 13181.05
4723.175, 13255.62
4725.104, 13177.55
4727.032, 13135.73
4728.960, 13157.42
4730.889, 13296.98
4732.817, 13342.67
4734.746, 13333.12
4736.674, 13418.04
4738.603, 13508.42
4740.531, 13573.91
4742.459, 13534.95
4744.388, 13542.90
4746.316, 13613.32
4748.245, 13602.80
4750.173, 13617.27
4752.102, 13700.64
4754.030, 13771.71
4755.959, 13812.30
4757.887, 13813.91
4759.816, 13833.91
4761.744, 13868.76
4763.673, 13914.76
4765.601, 13976.90
4767.530, 14024.16
4769.458, 14018.39
4771.387, 14062.70
4773.315, 14123.07
4775.244, 14133.70
4777.172, 14195.23
4779.101, 14265.54
4781.029, 14234.72
4782.958, 14262.09
4784.886, 14328.27
4786.814, 14320.77
4788.743, 14366.88
4790.671, 14455.51
4792.600, 14453.86
4794.528, 14479.67
4796.457, 14535.64
4798.385, 14473.22
4800.313, 14480.20
4802.242, 14593.64
4804.170, 14632.05
4806.099, 14684.18
4808.027, 14771.52
4809.956, 14731.87
4811.884, 14772.53
4813.813, 14987.58
4815.741, 14986.26
4817.670, 14930.09
4819.598, 14904.80
4821.527, 14981.48
4823.455, 15063.23
4825.384, 15084.93
4827.312, 15111.92
4829.241, 15155.02
4831.169, 15223.69
4833.098, 15237.55
4835.026, 15244.91
4836.955, 15302.74
4838.883, 15288.33
4840.812, 15284.22
4842.740, 15374.48
4844.668, 15481.42
4846.597, 15554.37
4848.525, 15521.33
4850.454, 15556.40
4852.382, 15619.46
4854.311, 15653.88
4856.239, 15692.72
4858.167, 15731.24
4860.096, 15751.51
4862.024, 15809.89
4863.953, 15863.39
4865.881, 15832.11
4867.810, 15891.39
4869.738, 15982.12
4871.667, 15975.99
4873.595, 16002.11
4875.524, 16037.20
4877.452, 16005.31
4879.381, 16095.53
4881.309, 16241.74
4883.238, 16307.97
4885.166, 16321.78
4887.095, 16327.39
4889.023, 16413.41
4890.952, 16418.63
4892.880, 16383.66
4894.809, 16388.97
4896.737, 16503.62
4898.666, 16640.93
4900.594, 16658.34
4902.522, 16592.86
4904.451, 16542.81
4906.379, 16677.80
4908.308, 16744.54
4910.236, 16749.94
4912.165, 16721.03
4914.093, 16803.87
4916.021, 16904.26
4917.950, 16852.62
4919.878, 16876.40
4921.807, 16960.00
4923.735, 17071.42
4925.664, 17108.65
4927.592, 17100.63
4929.521, 17085.27
4931.449, 17059.57
4933.378, 17072.50
4935.306, 17195.47
4937.235, 17243.55
4939.163, 17277.57
4941.092, 17370.99
4943.020, 17523.78
4944.949, 17612.47
4946.877, 17518.85
4948.806, 17578.58
4950.734, 17654.00
4952.663, 17574.95
4954.591, 17713.59
4956.520, 17824.31
4958.448, 17745.81
4960.376, 17789.96
4962.305, 17850.92
4964.233, 17856.55
4966.162, 17908.48
4968.090, 17959.20
4970.019, 17983.56
4971.947, 18000.39
4973.875, 18040.52
4975.804, 18111.39
4977.732, 18171.61
4979.661, 18244.09
4981.589, 18334.01
4983.518, 18437.83
4985.446, 18463.47
4987.375, 18412.72
4989.303, 18376.28
4991.232, 18391.06
4993.160, 18456.56
4995.089, 18576.03
4997.017, 18619.97
4998.946, 18607.90
5000.874, 18635.58
5002.803, 18630.47
5004.731, 18635.12
5006.660, 18752.72
5008.588, 18851.01
5010.517, 18901.32
5012.445, 18851.76
5014.374, 19055.18
5016.302, 19192.64
5018.230, 18931.50
5020.159, 18990.04
5022.087, 19139.78
5024.016, 19190.80
5025.944, 19172.52
5027.873, 19196.96
5029.801, 19305.91
5031.729, 19367.66
5033.658, 19415.20
5035.586, 19459.32
5037.515, 19470.43
5039.443, 19466.85
5041.372, 19481.78
5043.300, 19662.54
5045.229, 19691.61
5047.157, 19614.68
5049.086, 19664.39
5051.014, 19681.95
5052.943, 19696.75
5054.871, 19790.52
5056.800, 19870.60
5058.728, 19917.49
5060.657, 19916.85
5062.585, 19978.48
5064.514, 20075.30
5066.442, 20191.04
5068.371, 20145.54
5070.299, 20135.57
5072.228, 20235.15
5074.156, 20282.36
5076.084, 20327.88
5078.013, 20380.79
5079.941, 20415.79
5081.870, 20463.18
5083.798, 20508.03
5085.727, 20480.66
5087.655, 20559.45
5089.583, 20639.41
5091.512, 20547.17
5093.440, 20563.28
5095.369, 20655.04
5097.297, 20799.28
5099.226, 20747.53
5101.154, 20696.07
5103.083, 20739.43
5105.011, 20889.26
5106.940, 20913.69
5108.868, 20817.05
5110.797, 20875.94
5112.725, 20957.04
5114.654, 21038.30
5116.582, 21160.53
5118.511, 21138.04
5120.439, 21113.19
5122.368, 21271.31
5124.296, 21394.61
5126.225, 21399.12
5128.153, 21229.67
5130.082, 21329.42
5132.010, 21438.88
5133.938, 21475.24
5135.867, 21613.95
5137.795, 21689.12
5139.724, 21705.73
5141.652, 21762.21
5143.581, 21805.16
5145.509, 21816.77
5147.438, 21758.09
5149.366, 21799.89
5151.294, 21891.40
5153.223, 21989.17
5155.151, 22030.91
5157.080, 22068.81
5159.008, 22120.04
5160.937, 22140.25
5162.865, 22239.16
5164.794, 22373.87
5166.722, 22407.72
5168.651, 22367.26
5170.579, 22374.35
5172.508, 22553.41
5174.436, 22641.77
5176.365, 22594.87
5178.293, 22411.30
5180.222, 22545.19
5182.150, 22693.41
5184.079, 22776.81
5186.007, 22840.02
5187.936, 22891.86
5189.864, 22936.58
5191.792, 22978.51
5193.721, 22997.50
5195.649, 23037.02
5197.578, 23127.65
5199.506, 23238.92
5201.435, 23293.14
5203.363, 23293.02
5205.292, 23338.61
5207.220, 23412.36
5209.148, 23490.19
5211.077, 23539.71
5213.005, 23598.43
5214.934, 23613.35
5216.862, 23548.48
5218.791, 23674.75
5220.719, 23771.89
5222.648, 23789.57
5224.576, 23833.15
5226.505, 23875.71
5228.433, 23888.02
5230.362, 23789.57
5232.290, 23899.30
5234.219, 24021.29
5236.147, 24026.62
5238.076, 24035.50
5240.004, 24095.00
5241.933, 24193.02
5243.861, 24272.78
5245.790, 24264.12
5247.718, 24254.36
5249.646, 24373.97
5251.575, 24435.21
5253.503, 24509.76
5255.432, 24619.53
5257.360, 24628.33
5259.289, 24615.12
5261.217, 24618.28
5263.146, 24676.95
5265.074, 24760.61
5267.002, 24824.29
5268.931, 24829.93
5270.859, 24881.84
5272.788, 24923.96
5274.716, 24945.77
5276.645, 24981.39
5278.573, 25022.52
5280.502, 25084.70
5282.430, 25211.97
5284.359, 25191.47
5286.287, 25173.03
5288.216, 25234.38
5290.144, 25370.41
5292.073, 25464.43
5294.001, 25506.95
5295.930, 25514.03
5297.858, 25652.94
5299.787, 25745.78
5301.715, 25668.09
5303.644, 25762.47
5305.572, 25766.30
5307.500, 25701.08
5309.429, 25816.41
5311.357, 25897.14
5313.286, 25929.18
5315.214, 25931.78
5317.143, 26061.11
5319.071, 26181.93
5321.000, 26247.27
5322.928, 26254.15
5324.856, 26288.09
5326.785, 26332.26
5328.713, 26360.34
5330.642, 26529.03
5332.570, 26552.44
5334.499, 26444.59
5336.427, 26631.75
5338.356, 26677.82
5340.284, 26647.13
5342.213, 26657.89
5344.141, 26683.38
5346.070, 26719.46
5347.998, 26777.57
5349.927, 26922.76
5351.855, 26977.30
5353.784, 26984.18
5355.712, 27011.44
5357.641, 27005.29
5359.569, 27098.31
5361.498, 27268.95
5363.426, 27266.57
5365.354, 27260.37
5367.283, 27259.17
5369.211, 27251.44
5371.140, 27352.39
5373.068, 27453.57
5374.997, 27526.50
5376.925, 27602.61
5378.854, 27621.37
5380.782, 27629.77
5382.710, 27668.20
5384.639, 27738.77
5386.567, 27726.69
5388.496, 27698.54
5390.424, 27867.80
5392.353, 27922.09
5394.281, 27925.67
5396.210, 27950.89
5398.138, 28100.61
5400.067, 28166.14
5401.995, 28152.36
5403.924, 28117.87
5405.852, 28106.23
5407.781, 28191.97
5409.709, 28360.85
5411.638, 28397.09
5413.566, 28472.45
5415.495, 28537.96
5417.423, 28523.82
5419.352, 28533.41
5421.280, 28537.28
5423.208, 28536.83
5425.137, 28545.19
5427.065, 28684.49
5428.994, 28807.93
5430.922, 28828.23
5432.851, 28875.83
5434.779, 28924.30
5436.708, 28995.65
5438.636, 29126.85
5440.564, 29059.71
5442.493, 29053.23
5444.421, 29161.64
5446.350, 29175.59
5448.278, 29260.24
5450.207, 29332.33
5452.135, 29319.12
5454.064, 29422.81
5455.992, 29385.42
5457.921, 29330.09
5459.849, 29538.15
5461.778, 29603.38
5463.706, 29546.68
5465.635, 29468.31
5467.563, 29646.51
5469.492, 29678.96
5471.420, 29695.21
5473.349, 29823.34
5475.277, 29861.97
5477.206, 29876.93
5479.134, 29890.08
5481.063, 29907.14
5482.991, 29942.55
5484.919, 29991.68
5486.848, 30063.19
5488.776, 30198.76
5490.705, 30243.58
5492.633, 30286.35
5494.562, 30371.22
5496.490, 30280.06
5498.418, 30322.52
5500.347, 30450.40
5502.275, 30550.55
5504.204, 30655.18
5506.132, 30658.85
5508.061, 30651.41
5509.989, 30848.00
5511.918, 30919.69
5513.846, 30872.38
5515.775, 30798.26
5517.703, 30986.14
5519.632, 30922.58
5521.560, 30837.43
5523.489, 30915.93
5525.417, 31101.66
5527.346, 31228.88
5529.274, 31244.47
5531.203, 31132.47
5533.131, 31238.57
5535.060, 31340.60
5536.988, 31384.94
5538.917, 31386.28
5540.845, 31493.56
5542.773, 31566.81
5544.702, 31577.51
5546.630, 31599.44
5548.559, 31654.87
5550.487, 31658.76
5552.416, 31618.60
5554.344, 31815.29
5556.272, 31891.42
5558.201, 31856.56
5560.129, 31787.78
5562.058, 31984.04
5563.986, 32006.56
5565.915, 32024.12
5567.843, 32236.21
5569.772, 32170.49
5571.700, 32186.12
5573.629, 32285.32
5575.557, 32354.88
5577.486, 32443.82
5579.414, 32466.00
5581.343, 32431.53
5583.271, 32380.41
5585.200, 32559.05
5587.128, 32636.11
5589.057, 32599.04
5590.985, 32697.43
5592.914, 32720.60
5594.842, 32753.62
5596.771, 32810.22
5598.699, 32764.41
5600.627, 32974.23
5602.556, 33085.70
5604.484, 32975.26
5606.413, 32985.53
5608.341, 33134.44
5610.270, 33269.36
5612.198, 33303.16
5614.126, 33233.58
5616.055, 33243.54
5617.983, 33352.50
5619.912, 33512.69
5621.840, 33456.63
5623.769, 33466.05
5625.697, 33531.14
5627.626, 33594.92
5629.554, 33574.98
5631.483, 33607.51
5633.411, 33691.75
5635.340, 33800.06
5637.268, 33869.55
5639.197, 33834.55
5641.125, 33831.83
5643.054, 33973.05
5644.982, 33928.10
5646.911, 33864.55
5648.839, 33902.95
5650.768, 34088.83
5652.696, 34033.02
5654.625, 33983.84
5656.553, 34085.51
5658.481, 34367.92
5660.410, 34422.98
5662.338, 34472.21
5664.267, 34493.13
5666.195, 34447.89
5668.124, 34568.08
5670.052, 34658.45
5671.980, 34694.93
5673.909, 34698.07
5675.837, 34785.21
5677.766, 34788.29
5679.694, 34812.89
5681.623, 34944.36
5683.551, 34946.38
5685.480, 34848.59
5687.408, 34830.82
5689.337, 34984.19
5691.265, 35108.91
5693.194, 35098.47
5695.122, 35075.20
5697.051, 35132.86
5698.979, 35313.43
5700.908, 35285.38
5702.836, 35235.75
5704.765, 35280.10
5706.693, 35335.28
5708.622, 35416.26
5710.550, 35521.66
5712.479, 35629.11
5714.407, 35678.48
5716.335, 35661.72
5718.264, 35757.84
5720.192, 35919.09
5722.121, 35875.49
5724.049, 35844.66
5725.978, 35858.95
5727.906, 35924.45
5729.834, 36040.53
5731.763, 36032.14
5733.691, 36133.47
5735.620, 36242.33
5737.548, 36171.33
5739.477, 36172.94
5741.405, 36272.11
5743.334, 36357.96
5745.262, 36341.11
5747.191, 36338.43
5749.119, 36428.42
5751.048, 36553.25
5752.976, 36655.04
5754.905, 36688.20
5756.833, 36724.79
5758.762, 36745.14
5760.690, 36758.82
5762.619, 36857.30
5764.547, 36775.26
5766.476, 36778.96
5768.404, 36860.18
5770.333, 36804.08
5772.261, 36929.05
5774.189, 37006.13
5776.118, 37060.02
5778.046, 37181.26
5779.975, 37022.55
5781.903, 37148.38
5783.832, 37315.73
5785.760, 37290.85
5787.688, 37379.37
5789.617, 37486.45
5791.545, 37467.00
5793.474, 37349.85
5795.402, 37450.32
5797.331, 37621.91
5799.259, 37665.89
5801.188, 37644.29
5803.116, 37798.74
5805.045, 37850.19
5806.973, 37856.40
5808.902, 37816.84
5810.830, 37740.07
5812.759, 37911.53
5814.687, 38029.84
5816.616, 38102.11
5818.544, 38134.73
5820.473, 38025.07
5822.401, 38188.62
5824.330, 38275.90
5826.258, 38275.11
5828.187, 38386.85
5830.115, 38396.93
5832.043, 38413.40
5833.972, 38435.06
5835.900, 38445.80
5837.829, 38504.95
5839.757, 38584.92
5841.686, 38667.42
5843.614, 38714.77
5845.542, 38634.12
5847.471, 38664.09
5849.399, 38679.95
5851.328, 38733.66
5853.256, 38931.38
5855.185, 39033.90
5857.113, 39142.21
5859.042, 39137.59
5860.970, 39039.69
5862.899, 39257.46
5864.827, 39199.01
5866.756, 39132.66
5868.684, 39065.50
5870.613, 38862.59
5872.541, 39091.14
5874.470, 39440.43
5876.398, 39599.51
5878.327, 39482.69
5880.255, 39397.38
5882.184, 39357.45
5884.112, 39548.09
5886.041, 39765.99
5887.969, 39684.28
5889.897, 39723.30
5891.826, 39857.16
5893.754, 39971.93
5895.683, 39971.69
5897.611, 39765.20
5899.540, 39936.64
5901.468, 40049.27
5903.396, 40033.09
5905.325, 40039.43
5907.253, 40177.55
5909.182, 40276.73
5911.110, 40171.29
5913.039, 39968.91
5914.967, 40222.81
5916.896, 40436.88
5918.824, 40392.26
5920.753, 40294.82
5922.681, 40383.60
5924.610, 40435.79
5926.538, 40624.41
5928.467, 40650.77
5930.395, 40544.28
5932.324, 40673.68
5934.252, 40778.88
5936.181, 40714.21
5938.109, 40651.80
5940.038, 40710.67
5941.966, 40790.96
5943.895, 40841.68
5945.823, 40985.82
5947.751, 41069.67
5949.680, 40906.45
5951.608, 41096.44
5953.537, 41171.21
5955.465, 41177.27
5957.394, 41201.34
5959.322, 41285.99
5961.250, 41259.20
5963.179, 41234.93
5965.107, 41311.66
5967.036, 41474.02
5968.964, 41547.51
5970.893, 41409.53
5972.821, 41421.99
5974.750, 41462.99
5976.678, 41393.23
5978.607, 41601.24
5980.535, 41655.01
5982.464, 41712.50
5984.392, 41812.06
5986.321, 41882.47
5988.249, 41783.71
5990.178, 41832.49
5992.106, 41941.60
5994.035, 42010.09
5995.963, 41996.57
5997.892, 41900.40
5999.820, 41987.93
6001.749, 42122.75
6003.677, 42167.87
6005.605, 42097.44
6007.534, 42168.17
6009.462, 42220.09
6011.391, 42303.42
6013.319, 42402.88
6015.248, 42294.88
6017.176, 42345.05
6019.104, 42481.19
6021.033, 42561.46
6022.961, 42550.92
6024.890, 42648.00
6026.818, 42623.93
6028.747, 42653.20
6030.675, 42651.71
6032.604, 42551.70
6034.532, 42630.93
6036.461, 42683.14
6038.389, 42781.63
6040.318, 42817.64
6042.246, 42735.14
6044.175, 42941.31
6046.103, 42985.71
6048.032, 43026.62
6049.960, 43079.22
6051.889, 43092.16
6053.817, 43087.03
6055.746, 43124.44
6057.674, 43124.29
6059.603, 43155.32
6061.531, 43291.00
6063.459, 43429.79
6065.388, 43482.63
6067.316, 43517.64
6069.245, 43450.36
6071.173, 43276.06
6073.102, 43534.08
6075.030, 43495.00
6076.958, 43462.73
6078.887, 43562.64
6080.815, 43706.13
6082.744, 43467.56
6084.672, 43513.51
6086.601, 43612.32
6088.529, 43663.80
6090.458, 43682.93
6092.386, 43755.81
6094.315, 43830.57
6096.243, 43863.41
6098.172, 43868.85
6100.100, 43881.79
6102.029, 43946.02
6103.957, 44000.36
6105.886, 43976.56
6107.814, 44013.91
6109.743, 44097.58
6111.671, 44037.66
6113.600, 44114.33
6115.528, 44102.48
6117.457, 44115.46
6119.385, 44143.72
6121.313, 44107.33
6123.242, 44454.32
6125.170, 44368.46
6127.099, 44228.00
6129.027, 44309.05
6130.956, 44578.26
6132.884, 44538.92
6134.813, 44545.60
6136.741, 44398.30
6138.669, 44323.87
6140.598, 44473.61
6142.526, 44622.00
6144.455, 44595.15
6146.383, 44635.80
6148.312, 44682.98
6150.240, 44652.56
6152.169, 44550.28
6154.097, 44574.95
6156.026, 44696.01
6157.954, 44700.90
6159.883, 44645.36
6161.811, 44685.06
6163.740, 44796.79
6165.668, 44980.54
6167.597, 44900.12
6169.525, 44784.64
6171.454, 44830.13
6173.382, 44901.82
6175.311, 44876.95
6177.239, 44967.50
6179.167, 45091.78
6181.096, 45119.13
6183.024, 45009.27
6184.953, 45022.36
6186.881, 45059.69
6188.810, 45128.22
6190.738, 45097.60
6192.667, 44974.60
6194.595, 45053.92
6196.523, 45073.66
6198.452, 45305.67
6200.380, 45327.94
6202.309, 45198.95
6204.237, 45285.26
6206.166, 45398.25
6208.094, 45405.27
6210.023, 45337.01
6211.951, 45341.73
6213.880, 45492.70
6215.808, 45744.98
6217.737, 45438.55
6219.665, 45529.75
6221.594, 45503.25
6223.522, 45451.78
6225.451, 45702.04
6227.379, 45819.88
6229.308, 45469.05
6231.236, 45620.03
6233.165, 45818.96
6235.093, 45768.17
6237.021, 45666.56
6238.950, 45674.85
6240.878, 45655.79
6242.807, 45855.36
6244.735, 45897.68
6246.664, 45726.86
6248.592, 45965.24
6250.521, 45981.36
6252.449, 45875.54
6254.377, 45975.77
6256.306, 46012.02
6258.234, 45804.97
6260.163, 45871.32
6262.091, 45982.11
6264.020, 46206.89
6265.948, 46127.79
6267.877, 45926.91
6269.805, 45991.15
6271.734, 46139.07
6273.662, 46043.27
6275.591, 45990.87
6277.519, 46130.07
6279.448, 46257.38
6281.376, 46151.00
6283.305, 46248.45
6285.233, 46022.71
6287.162, 46117.72
6289.090, 46333.97
6291.019, 46385.88
6292.947, 46234.87
6294.875, 46373.97
6296.804, 46402.70
6298.732, 46279.79
6300.661, 46310.35
6302.589, 46448.84
6304.518, 46401.65
6306.446, 46307.93
6308.375, 46549.23
6310.303, 46595.14
6312.231, 46491.89
6314.160, 46378.63
6316.088, 46318.33
6318.017, 46473.45
6319.945, 46572.18
6321.874, 46573.70
6323.802, 46578.62
6325.731, 46590.26
6327.659, 46585.50
6329.588, 46704.26
6331.516, 46820.33
6333.445, 46737.59
6335.373, 46622.06
6337.302, 46658.61
6339.230, 46823.52
6341.159, 46766.37
6343.087, 46820.39
6345.016, 47070.18
6346.944, 47038.27
6348.873, 46850.08
6350.801, 46772.88
6352.729, 46765.72
6354.658, 46936.00
6356.586, 46876.98
6358.515, 46968.44
6360.443, 47022.17
6362.372, 46915.29
6364.300, 46850.66
6366.229, 47077.96
6368.157, 47212.48
6370.085, 47279.82
6372.014, 47211.71
6373.942, 47112.09
6375.871, 47092.42
6377.799, 46977.20
6379.728, 47227.40
6381.656, 47190.25
6383.585, 47307.60
6385.513, 47362.59
6387.442, 47243.24
6389.370, 47394.07
6391.299, 47296.46
6393.227, 47342.16
6395.156, 47361.13
6397.084, 47326.00
6399.013, 47305.46
6400.941, 47340.36
6402.870, 47335.97
6404.798, 47450.40
6406.727, 47611.20
6408.655, 47557.13
6410.583, 47480.99
6412.512, 47540.11
6414.440, 47606.46
6416.369, 47622.92
6418.297, 47650.77
6420.226, 47730.77
6422.154, 47717.59
6424.083, 47685.31
6426.011, 47705.62
6427.939, 47628.65
6429.868, 47868.32
6431.796, 47782.04
6433.725, 47744.22
6435.653, 47816.55
6437.582, 47749.00
6439.510, 47487.71
6441.439, 47838.73
6443.367, 47810.26
6445.296, 47710.97
6447.224, 47928.67
6449.153, 48039.11
6451.081, 47834.46
6453.010, 47669.89
6454.938, 48027.78
6456.867, 47999.63
6458.795, 48212.75
6460.724, 48301.70
6462.652, 48227.71
6464.581, 48126.56
6466.509, 48082.67
6468.438, 48190.82
6470.366, 48125.51
6472.294, 48189.73
6474.223, 48208.95
6476.151, 48172.23
6478.080, 48157.19
6480.008, 48189.29
6481.937, 48212.02
6483.865, 48286.22
6485.793, 48334.98
6487.722, 48300.55
6489.650, 48345.94
6491.579, 48412.91
6493.507, 48340.46
6495.436, 48322.22
6497.364, 48584.97
6499.293, 48607.04
6501.221, 48496.97
6503.150, 48454.76
6505.078, 48388.33
6507.007, 48301.90
6508.935, 48714.87
6510.864, 48439.12
6512.792, 48546.77
6514.721, 48580.29
6516.649, 48729.00
6518.578, 48764.38
6520.506, 48599.36
6522.435, 48619.41
6524.363, 48701.42
6526.292, 48661.02
6528.220, 48958.94
6530.148, 48908.91
6532.077, 48791.92
6534.005, 48883.79
6535.934, 49028.75
6537.862, 49029.66
6539.791, 49000.58
6541.719, 48995.04
6543.647, 48949.80
6545.576, 48959.79
6547.504, 49042.64
6549.433, 49097.66
6551.361, 48942.07
6553.290, 48770.16
6555.218, 48404.35
6557.147, 48348.45
6559.075, 48156.37
6561.004, 47910.89
6562.932, 47684.64
6564.861, 47493.28
6566.789, 47340.91
6568.718, 47124.87
6570.646, 46946.31
6572.575, 46820.66
6574.503, 46480.76
6576.432, 46353.65
6578.360, 46247.76
6580.289, 45941.38
6582.217, 45805.00
6584.146, 45565.74
##END=



