##NAMES=Ashburtonite
##RRUFFID=R200010
##IDEAL CHEMISTRY=HCu_4_Pb_4_Si_4_O_12_(HCO_3_)_4_(OH)_4_Cl
##LOCALITY=Rowley mine, Maricopa County, Arizona, USA
##OWNER=Bruce Murphy
##SOURCE=Bruce Murphy
##DESCRIPTION=Sprays of blue prismatic or acicular crystals, associated with calendonite, cerussite.
##STATUS=The identification of this mineral has been confirmed by X-ray diffraction
##URL=https://www.rruff.net/odr/rruff_sample/R200010
##DIFFRACTION SAMPLE DESCRIPTION=Single crystal, powder profile is calculated
##CELL PARAMETERS=a: 14.1193 b: 14.1193 c: 6.0423 alpha: 90 beta: 90 gamma: 90 volume: 1204.6 crystal system: tetragonal
##FILETYPE=Raman RAW
##RAMAN WAVELENGTH=780

7.084375e+001, 9.748195e+002
7.277222e+001, 9.116074e+002
7.470068e+001, 9.064236e+002
7.662915e+001, 9.704873e+002
7.855762e+001, 1.058087e+003
8.048608e+001, 1.168536e+003
8.241455e+001, 1.292854e+003
8.434302e+001, 1.422159e+003
8.627148e+001, 1.557151e+003
8.819995e+001, 1.712955e+003
9.012842e+001, 1.897493e+003
9.205688e+001, 2.077501e+003
9.398535e+001, 2.256653e+003
9.591382e+001, 2.279379e+003
9.784229e+001, 2.138408e+003
9.977075e+001, 2.006687e+003
1.016992e+002, 1.892435e+003
1.036277e+002, 1.788604e+003
1.055562e+002, 1.700988e+003
1.074846e+002, 1.625814e+003
1.094131e+002, 1.562671e+003
1.113416e+002, 1.510600e+003
1.132700e+002, 1.467705e+003
1.151985e+002, 1.433795e+003
1.171270e+002, 1.406040e+003
1.190554e+002, 1.385982e+003
1.209839e+002, 1.374755e+003
1.229124e+002, 1.367918e+003
1.248408e+002, 1.363557e+003
1.267693e+002, 1.360905e+003
1.286978e+002, 1.358474e+003
1.306262e+002, 1.356385e+003
1.325547e+002, 1.352076e+003
1.344832e+002, 1.345236e+003
1.364116e+002, 1.335207e+003
1.383401e+002, 1.321105e+003
1.402686e+002, 1.303208e+003
1.421970e+002, 1.283502e+003
1.441255e+002, 1.262320e+003
1.460540e+002, 1.237629e+003
1.479824e+002, 1.207522e+003
1.499109e+002, 1.175251e+003
1.518394e+002, 1.140714e+003
1.537678e+002, 1.105375e+003
1.556963e+002, 1.072230e+003
1.576248e+002, 1.041364e+003
1.595532e+002, 1.010870e+003
1.614817e+002, 9.781359e+002
1.634102e+002, 9.484742e+002
1.653386e+002, 9.259246e+002
1.672671e+002, 9.063802e+002
1.691956e+002, 8.833158e+002
1.711240e+002, 8.570443e+002
1.730525e+002, 8.345604e+002
1.749810e+002, 8.191700e+002
1.769094e+002, 8.048573e+002
1.788379e+002, 7.911243e+002
1.807664e+002, 7.776835e+002
1.826948e+002, 7.640259e+002
1.846233e+002, 7.503558e+002
1.865518e+002, 7.376302e+002
1.884802e+002, 7.260186e+002
1.904087e+002, 7.152231e+002
1.923372e+002, 7.052850e+002
1.942656e+002, 6.960238e+002
1.961941e+002, 6.874333e+002
1.981226e+002, 6.794435e+002
2.000510e+002, 6.721024e+002
2.019795e+002, 6.656572e+002
2.039080e+002, 6.592411e+002
2.058364e+002, 6.533823e+002
2.077649e+002, 6.468864e+002
2.096934e+002, 6.386177e+002
2.116218e+002, 6.298917e+002
2.135503e+002, 6.217597e+002
2.154788e+002, 6.140316e+002
2.174072e+002, 6.089323e+002
2.193357e+002, 6.086989e+002
2.212642e+002, 6.070673e+002
2.231926e+002, 6.017235e+002
2.251211e+002, 5.958209e+002
2.270496e+002, 5.916476e+002
2.289780e+002, 5.887167e+002
2.309065e+002, 5.848543e+002
2.328350e+002, 5.788246e+002
2.347634e+002, 5.753513e+002
2.366919e+002, 5.763994e+002
2.386204e+002, 5.771442e+002
2.405488e+002, 5.748832e+002
2.424773e+002, 5.712963e+002
2.444058e+002, 5.682053e+002
2.463342e+002, 5.656317e+002
2.482627e+002, 5.627014e+002
2.501912e+002, 5.591504e+002
2.521196e+002, 5.560988e+002
2.540481e+002, 5.541320e+002
2.559766e+002, 5.524924e+002
2.579050e+002, 5.507993e+002
2.598335e+002, 5.490991e+002
2.617620e+002, 5.473151e+002
2.636904e+002, 5.453661e+002
2.656189e+002, 5.445518e+002
2.675474e+002, 5.454310e+002
2.694758e+002, 5.464613e+002
2.714043e+002, 5.467869e+002
2.733328e+002, 5.472454e+002
2.752612e+002, 5.489173e+002
2.771897e+002, 5.514003e+002
2.791182e+002, 5.522256e+002
2.810466e+002, 5.509908e+002
2.829751e+002, 5.519756e+002
2.849036e+002, 5.572956e+002
2.868320e+002, 5.631420e+002
2.887605e+002, 5.684967e+002
2.906890e+002, 5.733138e+002
2.926174e+002, 5.772287e+002
2.945459e+002, 5.805021e+002
2.964744e+002, 5.848765e+002
2.984028e+002, 5.912285e+002
3.003313e+002, 5.948538e+002
3.022598e+002, 5.925709e+002
3.041882e+002, 5.896472e+002
3.061167e+002, 5.881389e+002
3.080452e+002, 5.870436e+002
3.099736e+002, 5.843176e+002
3.119021e+002, 5.805740e+002
3.138306e+002, 5.789908e+002
3.157590e+002, 5.806203e+002
3.176875e+002, 5.820616e+002
3.196160e+002, 5.836397e+002
3.215445e+002, 5.838223e+002
3.234729e+002, 5.813016e+002
3.254014e+002, 5.773173e+002
3.273299e+002, 5.731114e+002
3.292583e+002, 5.688409e+002
3.311868e+002, 5.656178e+002
3.331153e+002, 5.636912e+002
3.350437e+002, 5.624446e+002
3.369722e+002, 5.619902e+002
3.389007e+002, 5.618913e+002
3.408291e+002, 5.612545e+002
3.427576e+002, 5.614623e+002
3.446861e+002, 5.645123e+002
3.466145e+002, 5.699655e+002
3.485430e+002, 5.743231e+002
3.504715e+002, 5.765597e+002
3.523999e+002, 5.794769e+002
3.543284e+002, 5.840609e+002
3.562569e+002, 5.881840e+002
3.581853e+002, 5.908618e+002
3.601138e+002, 5.927138e+002
3.620423e+002, 5.943267e+002
3.639707e+002, 5.956733e+002
3.658992e+002, 5.965854e+002
3.678277e+002, 5.968185e+002
3.697561e+002, 5.973228e+002
3.716846e+002, 5.988136e+002
3.736131e+002, 5.995560e+002
3.755415e+002, 5.989343e+002
3.774700e+002, 5.973956e+002
3.793985e+002, 5.945927e+002
3.813269e+002, 5.912858e+002
3.832554e+002, 5.900698e+002
3.851839e+002, 5.918411e+002
3.871123e+002, 5.904841e+002
3.890408e+002, 5.841982e+002
3.909693e+002, 5.794120e+002
3.928977e+002, 5.785252e+002
3.948262e+002, 5.785026e+002
3.967547e+002, 5.778474e+002
3.986831e+002, 5.768376e+002
4.006116e+002, 5.751013e+002
4.025401e+002, 5.728265e+002
4.044685e+002, 5.745658e+002
4.063970e+002, 5.810746e+002
4.083255e+002, 5.865743e+002
4.102539e+002, 5.896666e+002
4.121824e+002, 5.926198e+002
4.141109e+002, 5.960350e+002
4.160393e+002, 6.001033e+002
4.179678e+002, 6.048776e+002
4.198963e+002, 6.104749e+002
4.218247e+002, 6.176506e+002
4.237532e+002, 6.263416e+002
4.256817e+002, 6.340022e+002
4.276101e+002, 6.401871e+002
4.295386e+002, 6.463209e+002
4.314671e+002, 6.533456e+002
4.333955e+002, 6.595715e+002
4.353240e+002, 6.643994e+002
4.372525e+002, 6.680114e+002
4.391809e+002, 6.712084e+002
4.411094e+002, 6.732966e+002
4.430379e+002, 6.717794e+002
4.449663e+002, 6.667189e+002
4.468948e+002, 6.613699e+002
4.488233e+002, 6.570901e+002
4.507517e+002, 6.502699e+002
4.526802e+002, 6.390111e+002
4.546087e+002, 6.264197e+002
4.565371e+002, 6.121212e+002
4.584656e+002, 5.985569e+002
4.603941e+002, 5.897529e+002
4.623225e+002, 5.841534e+002
4.642510e+002, 5.774211e+002
4.661795e+002, 5.692758e+002
4.681079e+002, 5.619864e+002
4.700364e+002, 5.563564e+002
4.719649e+002, 5.507013e+002
4.738933e+002, 5.446459e+002
4.758218e+002, 5.386400e+002
4.777503e+002, 5.326649e+002
4.796787e+002, 5.270846e+002
4.816072e+002, 5.219797e+002
4.835357e+002, 5.176699e+002
4.854641e+002, 5.154347e+002
4.873926e+002, 5.156411e+002
4.893211e+002, 5.147883e+002
4.912495e+002, 5.117936e+002
4.931780e+002, 5.089251e+002
4.951065e+002, 5.058598e+002
4.970349e+002, 5.035164e+002
4.989634e+002, 5.028387e+002
5.008919e+002, 5.025289e+002
5.028203e+002, 5.013398e+002
5.047488e+002, 4.997689e+002
5.066773e+002, 4.986919e+002
5.086057e+002, 4.980803e+002
5.105342e+002, 4.987711e+002
5.124626e+002, 5.022447e+002
5.143911e+002, 5.040906e+002
5.163196e+002, 5.030781e+002
5.182480e+002, 5.024932e+002
5.201765e+002, 5.040497e+002
5.221050e+002, 5.054063e+002
5.240334e+002, 5.043409e+002
5.259619e+002, 5.027043e+002
5.278904e+002, 5.037586e+002
5.298188e+002, 5.064861e+002
5.317473e+002, 5.048282e+002
5.336758e+002, 4.974378e+002
5.356042e+002, 4.929831e+002
5.375327e+002, 4.922567e+002
5.394612e+002, 4.919922e+002
5.413896e+002, 4.920358e+002
5.433181e+002, 4.915416e+002
5.452466e+002, 4.892370e+002
5.471750e+002, 4.871406e+002
5.491035e+002, 4.870336e+002
5.510320e+002, 4.877040e+002
5.529604e+002, 4.872035e+002
5.548889e+002, 4.856552e+002
5.568174e+002, 4.840812e+002
5.587458e+002, 4.825153e+002
5.606743e+002, 4.802711e+002
5.626028e+002, 4.770620e+002
5.645313e+002, 4.741797e+002
5.664598e+002, 4.721590e+002
5.683882e+002, 4.701099e+002
5.703167e+002, 4.665246e+002
5.722452e+002, 4.640192e+002
5.741736e+002, 4.654917e+002
5.761021e+002, 4.684390e+002
5.780306e+002, 4.694920e+002
5.799590e+002, 4.687833e+002
5.818875e+002, 4.664743e+002
5.838160e+002, 4.627647e+002
5.857444e+002, 4.605919e+002
5.876729e+002, 4.606661e+002
5.896014e+002, 4.602031e+002
5.915298e+002, 4.576772e+002
5.934583e+002, 4.562358e+002
5.953868e+002, 4.578747e+002
5.973152e+002, 4.592228e+002
5.992437e+002, 4.580961e+002
6.011722e+002, 4.560627e+002
6.031006e+002, 4.540702e+002
6.050291e+002, 4.527009e+002
6.069576e+002, 4.540338e+002
6.088860e+002, 4.570633e+002
6.108145e+002, 4.563446e+002
6.127430e+002, 4.510428e+002
6.146714e+002, 4.473712e+002
6.165999e+002, 4.472008e+002
6.185284e+002, 4.462488e+002
6.204568e+002, 4.439036e+002
6.223853e+002, 4.409929e+002
6.243138e+002, 4.373240e+002
6.262422e+002, 4.337114e+002
6.281707e+002, 4.309728e+002
6.300992e+002, 4.282744e+002
6.320276e+002, 4.242651e+002
6.339561e+002, 4.198972e+002
6.358846e+002, 4.172651e+002
6.378130e+002, 4.161740e+002
6.397415e+002, 4.141361e+002
6.416700e+002, 4.103673e+002
6.435984e+002, 4.084833e+002
6.455269e+002, 4.103730e+002
6.474554e+002, 4.105577e+002
6.493839e+002, 4.079073e+002
6.513123e+002, 4.049827e+002
6.532408e+002, 4.020214e+002
6.551693e+002, 3.996688e+002
6.570977e+002, 3.987925e+002
6.590262e+002, 3.981643e+002
6.609547e+002, 3.965100e+002
6.628831e+002, 3.947022e+002
6.648116e+002, 3.944285e+002
6.667401e+002, 3.950985e+002
6.686685e+002, 3.941964e+002
6.705970e+002, 3.916068e+002
6.725255e+002, 3.898258e+002
6.744539e+002, 3.890440e+002
6.763824e+002, 3.877639e+002
6.783109e+002, 3.856249e+002
6.802393e+002, 3.841396e+002
6.821678e+002, 3.840681e+002
6.840963e+002, 3.836789e+002
6.860247e+002, 3.821738e+002
6.879532e+002, 3.804022e+002
6.898817e+002, 3.779467e+002
6.918101e+002, 3.763148e+002
6.937386e+002, 3.773045e+002
6.956671e+002, 3.794000e+002
6.975955e+002, 3.808456e+002
6.995240e+002, 3.815620e+002
7.014525e+002, 3.810150e+002
7.033809e+002, 3.793876e+002
7.053094e+002, 3.782851e+002
7.072379e+002, 3.776995e+002
7.091663e+002, 3.770425e+002
7.110948e+002, 3.761392e+002
7.130233e+002, 3.761519e+002
7.149517e+002, 3.778078e+002
7.168802e+002, 3.788286e+002
7.188087e+002, 3.785502e+002
7.207371e+002, 3.776086e+002
7.226656e+002, 3.751535e+002
7.245941e+002, 3.734839e+002
7.265225e+002, 3.743953e+002
7.284510e+002, 3.760166e+002
7.303795e+002, 3.771234e+002
7.323079e+002, 3.776673e+002
7.342364e+002, 3.770186e+002
7.361649e+002, 3.759955e+002
7.380933e+002, 3.767869e+002
7.400218e+002, 3.786216e+002
7.419503e+002, 3.783973e+002
7.438787e+002, 3.762156e+002
7.458072e+002, 3.753642e+002
7.477357e+002, 3.762648e+002
7.496641e+002, 3.772210e+002
7.515926e+002, 3.781721e+002
7.535211e+002, 3.790131e+002
7.554495e+002, 3.799986e+002
7.573780e+002, 3.804667e+002
7.593065e+002, 3.798201e+002
7.612349e+002, 3.793429e+002
7.631634e+002, 3.784031e+002
7.650919e+002, 3.790961e+002
7.670203e+002, 3.840059e+002
7.689488e+002, 3.893715e+002
7.708773e+002, 3.917868e+002
7.728057e+002, 3.935084e+002
7.747342e+002, 3.971525e+002
7.766627e+002, 4.015286e+002
7.785911e+002, 4.050733e+002
7.805196e+002, 4.075752e+002
7.824481e+002, 4.082843e+002
7.843765e+002, 4.072372e+002
7.863050e+002, 4.043517e+002
7.882335e+002, 3.993001e+002
7.901619e+002, 3.955825e+002
7.920904e+002, 3.938022e+002
7.940189e+002, 3.910401e+002
7.959473e+002, 3.868930e+002
7.978758e+002, 3.829163e+002
7.998043e+002, 3.786411e+002
8.017327e+002, 3.767480e+002
8.036612e+002, 3.791956e+002
8.055897e+002, 3.806016e+002
8.075181e+002, 3.786816e+002
8.094466e+002, 3.763152e+002
8.113751e+002, 3.744726e+002
8.133035e+002, 3.730192e+002
8.152320e+002, 3.721234e+002
8.171605e+002, 3.712325e+002
8.190889e+002, 3.698497e+002
8.210174e+002, 3.683839e+002
8.229459e+002, 3.671791e+002
8.248743e+002, 3.662412e+002
8.268028e+002, 3.655624e+002
8.287313e+002, 3.651935e+002
8.306597e+002, 3.658149e+002
8.325882e+002, 3.667154e+002
8.345167e+002, 3.646954e+002
8.364451e+002, 3.605246e+002
8.383736e+002, 3.590303e+002
8.403021e+002, 3.599567e+002
8.422305e+002, 3.613339e+002
8.441590e+002, 3.630308e+002
8.460875e+002, 3.640421e+002
8.480159e+002, 3.643117e+002
8.499444e+002, 3.633416e+002
8.518729e+002, 3.608039e+002
8.538013e+002, 3.586206e+002
8.557298e+002, 3.571133e+002
8.576583e+002, 3.559541e+002
8.595867e+002, 3.551905e+002
8.615152e+002, 3.545570e+002
8.634437e+002, 3.538398e+002
8.653721e+002, 3.534976e+002
8.673006e+002, 3.537756e+002
8.692291e+002, 3.542558e+002
8.711575e+002, 3.552599e+002
8.730860e+002, 3.557655e+002
8.750145e+002, 3.547696e+002
8.769429e+002, 3.537330e+002
8.788714e+002, 3.536605e+002
8.807999e+002, 3.538278e+002
8.827283e+002, 3.535046e+002
8.846568e+002, 3.532774e+002
8.865853e+002, 3.538313e+002
8.885137e+002, 3.546839e+002
8.904422e+002, 3.555944e+002
8.923707e+002, 3.562057e+002
8.942991e+002, 3.559800e+002
8.962276e+002, 3.551470e+002
8.981561e+002, 3.538247e+002
9.000845e+002, 3.523731e+002
9.020130e+002, 3.516978e+002
9.039415e+002, 3.517297e+002
9.058699e+002, 3.522759e+002
9.077984e+002, 3.532759e+002
9.097269e+002, 3.541388e+002
9.116553e+002, 3.548974e+002
9.135838e+002, 3.560839e+002
9.155123e+002, 3.577137e+002
9.174407e+002, 3.589893e+002
9.193692e+002, 3.598154e+002
9.212977e+002, 3.607375e+002
9.232261e+002, 3.614957e+002
9.251546e+002, 3.638323e+002
9.270831e+002, 3.681364e+002
9.290115e+002, 3.715276e+002
9.309400e+002, 3.735098e+002
9.328685e+002, 3.769127e+002
9.347969e+002, 3.822101e+002
9.367254e+002, 3.878192e+002
9.386539e+002, 3.936952e+002
9.405823e+002, 3.991492e+002
9.425108e+002, 4.039856e+002
9.444393e+002, 4.086997e+002
9.463677e+002, 4.130671e+002
9.482962e+002, 4.184916e+002
9.502247e+002, 4.249472e+002
9.521531e+002, 4.336557e+002
9.540816e+002, 4.448902e+002
9.560101e+002, 4.583028e+002
9.579385e+002, 4.712816e+002
9.598670e+002, 4.922160e+002
9.617955e+002, 5.242276e+002
9.637239e+002, 5.635968e+002
9.656524e+002, 6.186046e+002
9.675809e+002, 6.655258e+002
9.695093e+002, 7.051575e+002
9.714378e+002, 7.230487e+002
9.733663e+002, 7.093607e+002
9.752947e+002, 6.802132e+002
9.772232e+002, 6.327297e+002
9.791517e+002, 5.848315e+002
9.810801e+002, 5.414684e+002
9.830086e+002, 5.041581e+002
9.849371e+002, 4.744592e+002
9.868655e+002, 4.498680e+002
9.887940e+002, 4.296400e+002
9.907225e+002, 4.132953e+002
9.926509e+002, 4.013526e+002
9.945794e+002, 3.921680e+002
9.965079e+002, 3.853987e+002
9.984363e+002, 3.801616e+002
1.000365e+003, 3.765008e+002
1.002293e+003, 3.733051e+002
1.004222e+003, 3.695262e+002
1.006150e+003, 3.662712e+002
1.008079e+003, 3.644783e+002
1.010007e+003, 3.632855e+002
1.011936e+003, 3.620847e+002
1.013864e+003, 3.612552e+002
1.015793e+003, 3.613789e+002
1.017721e+003, 3.616572e+002
1.019649e+003, 3.612964e+002
1.021578e+003, 3.611270e+002
1.023506e+003, 3.607870e+002
1.025435e+003, 3.621662e+002
1.027363e+003, 3.679730e+002
1.029292e+003, 3.743673e+002
1.031220e+003, 3.777410e+002
1.033149e+003, 3.814260e+002
1.035077e+003, 3.889653e+002
1.037006e+003, 3.964830e+002
1.038934e+003, 4.025278e+002
1.040863e+003, 4.056415e+002
1.042791e+003, 4.037176e+002
1.044719e+003, 3.998369e+002
1.046648e+003, 3.952576e+002
1.048576e+003, 3.906403e+002
1.050505e+003, 3.857575e+002
1.052433e+003, 3.818637e+002
1.054362e+003, 3.799666e+002
1.056290e+003, 3.791377e+002
1.058219e+003, 3.786759e+002
1.060147e+003, 3.792122e+002
1.062076e+003, 3.820576e+002
1.064004e+003, 3.847987e+002
1.065933e+003, 3.854535e+002
1.067861e+003, 3.862117e+002
1.069790e+003, 3.884490e+002
1.071718e+003, 3.909789e+002
1.073647e+003, 3.938063e+002
1.075575e+003, 3.957733e+002
1.077504e+003, 3.952985e+002
1.079432e+003, 3.952776e+002
1.081360e+003, 3.976347e+002
1.083289e+003, 4.000407e+002
1.085217e+003, 4.010502e+002
1.087146e+003, 4.025655e+002
1.089074e+003, 4.063670e+002
1.091003e+003, 4.092276e+002
1.092931e+003, 4.091366e+002
1.094860e+003, 4.091832e+002
1.096788e+003, 4.115208e+002
1.098717e+003, 4.121836e+002
1.100645e+003, 4.080759e+002
1.102574e+003, 4.054892e+002
1.104502e+003, 4.073782e+002
1.106431e+003, 4.085064e+002
1.108359e+003, 4.066945e+002
1.110287e+003, 4.060720e+002
1.112216e+003, 4.084956e+002
1.114144e+003, 4.099708e+002
1.116073e+003, 4.101302e+002
1.118001e+003, 4.089938e+002
1.119930e+003, 4.055114e+002
1.121858e+003, 4.029034e+002
1.123787e+003, 4.016986e+002
1.125715e+003, 4.005679e+002
1.127644e+003, 3.993858e+002
1.129572e+003, 3.984230e+002
1.131501e+003, 3.973238e+002
1.133429e+003, 3.978754e+002
1.135358e+003, 4.010815e+002
1.137286e+003, 4.019604e+002
1.139214e+003, 4.002312e+002
1.141143e+003, 3.975357e+002
1.143071e+003, 3.935556e+002
1.145000e+003, 3.942771e+002
1.146928e+003, 3.995717e+002
1.148857e+003, 3.998854e+002
1.150785e+003, 3.960135e+002
1.152714e+003, 3.967324e+002
1.154642e+003, 4.009127e+002
1.156571e+003, 4.025246e+002
1.158499e+003, 4.025609e+002
1.160428e+003, 4.052376e+002
1.162356e+003, 4.085976e+002
1.164285e+003, 4.063930e+002
1.166213e+003, 4.023958e+002
1.168141e+003, 4.040965e+002
1.170070e+003, 4.081967e+002
1.171998e+003, 4.099758e+002
1.173927e+003, 4.111479e+002
1.175855e+003, 4.144423e+002
1.177784e+003, 4.172279e+002
1.179712e+003, 4.159893e+002
1.181641e+003, 4.146444e+002
1.183569e+003, 4.156956e+002
1.185498e+003, 4.182669e+002
1.187426e+003, 4.230672e+002
1.189355e+003, 4.274256e+002
1.191283e+003, 4.298934e+002
1.193212e+003, 4.320706e+002
1.195140e+003, 4.340099e+002
1.197068e+003, 4.366386e+002
1.198997e+003, 4.407354e+002
1.200925e+003, 4.440350e+002
1.202854e+003, 4.456956e+002
1.204782e+003, 4.484678e+002
1.206711e+003, 4.532758e+002
1.208639e+003, 4.561723e+002
1.210568e+003, 4.563647e+002
1.212496e+003, 4.589535e+002
1.214425e+003, 4.643091e+002
1.216353e+003, 4.703505e+002
1.218282e+003, 4.766362e+002
1.220210e+003, 4.802988e+002
1.222139e+003, 4.817984e+002
1.224067e+003, 4.841187e+002
1.225995e+003, 4.868250e+002
1.227924e+003, 4.875738e+002
1.229852e+003, 4.880375e+002
1.231781e+003, 4.922751e+002
1.233709e+003, 4.979583e+002
1.235638e+003, 5.020524e+002
1.237566e+003, 5.054132e+002
1.239495e+003, 5.085834e+002
1.241423e+003, 5.118915e+002
1.243352e+003, 5.157667e+002
1.245280e+003, 5.196461e+002
1.247209e+003, 5.232289e+002
1.249137e+003, 5.266113e+002
1.251066e+003, 5.289706e+002
1.252994e+003, 5.330009e+002
1.254922e+003, 5.416299e+002
1.256851e+003, 5.464768e+002
1.258779e+003, 5.440572e+002
1.260708e+003, 5.432244e+002
1.262636e+003, 5.449061e+002
1.264565e+003, 5.492944e+002
1.266493e+003, 5.573136e+002
1.268422e+003, 5.611608e+002
1.270350e+003, 5.609861e+002
1.272279e+003, 5.634039e+002
1.274207e+003, 5.676993e+002
1.276136e+003, 5.697495e+002
1.278064e+003, 5.708309e+002
1.279993e+003, 5.747089e+002
1.281921e+003, 5.797238e+002
1.283849e+003, 5.835997e+002
1.285778e+003, 5.867648e+002
1.287706e+003, 5.899653e+002
1.289635e+003, 5.923890e+002
1.291563e+003, 5.912866e+002
1.293492e+003, 5.928775e+002
1.295420e+003, 6.021133e+002
1.297349e+003, 6.093498e+002
1.299277e+003, 6.106687e+002
1.301206e+003, 6.136593e+002
1.303134e+003, 6.206046e+002
1.305063e+003, 6.232924e+002
1.306991e+003, 6.203306e+002
1.308920e+003, 6.217183e+002
1.310848e+003, 6.279174e+002
1.312776e+003, 6.348361e+002
1.314705e+003, 6.415673e+002
1.316633e+003, 6.442555e+002
1.318562e+003, 6.446708e+002
1.320490e+003, 6.462430e+002
1.322419e+003, 6.491610e+002
1.324347e+003, 6.547985e+002
1.326276e+003, 6.605012e+002
1.328204e+003, 6.632825e+002
1.330133e+003, 6.657681e+002
1.332061e+003, 6.696022e+002
1.333990e+003, 6.736929e+002
1.335918e+003, 6.783904e+002
1.337847e+003, 6.818236e+002
1.339775e+003, 6.813682e+002
1.341703e+003, 6.847383e+002
1.343632e+003, 6.935870e+002
1.345560e+003, 6.999273e+002
1.347489e+003, 7.034964e+002
1.349417e+003, 7.066417e+002
1.351346e+003, 7.096600e+002
1.353274e+003, 7.135280e+002
1.355203e+003, 7.186199e+002
1.357131e+003, 7.259952e+002
1.359060e+003, 7.347050e+002
1.360988e+003, 7.444852e+002
1.362917e+003, 7.535858e+002
1.364845e+003, 7.588148e+002
1.366774e+003, 7.669283e+002
1.368702e+003, 7.825837e+002
1.370630e+003, 7.969557e+002
1.372559e+003, 8.066707e+002
1.374487e+003, 8.190090e+002
1.376416e+003, 8.357485e+002
1.378344e+003, 8.499427e+002
1.380273e+003, 8.614442e+002
1.382201e+003, 8.769684e+002
1.384130e+003, 8.954777e+002
1.386058e+003, 9.130236e+002
1.387987e+003, 9.299237e+002
1.389915e+003, 9.460502e+002
1.391844e+003, 9.625807e+002
1.393772e+003, 9.805975e+002
1.395701e+003, 9.996706e+002
1.397629e+003, 1.019964e+003
1.399557e+003, 1.040678e+003
1.401486e+003, 1.062781e+003
1.403414e+003, 1.079669e+003
1.405343e+003, 1.089458e+003
1.407271e+003, 1.107310e+003
1.409200e+003, 1.133690e+003
1.411128e+003, 1.154654e+003
1.413057e+003, 1.171449e+003
1.414985e+003, 1.191423e+003
1.416914e+003, 1.212406e+003
1.418842e+003, 1.232214e+003
1.420771e+003, 1.248948e+003
1.422699e+003, 1.259730e+003
1.424628e+003, 1.268406e+003
1.426556e+003, 1.275472e+003
1.428484e+003, 1.284030e+003
1.430413e+003, 1.295106e+003
1.432341e+003, 1.307085e+003
1.434270e+003, 1.320000e+003
1.436198e+003, 1.333042e+003
1.438127e+003, 1.345500e+003
1.440055e+003, 1.351331e+003
1.441984e+003, 1.353468e+003
1.443912e+003, 1.359533e+003
1.445841e+003, 1.366016e+003
1.447769e+003, 1.368511e+003
1.449698e+003, 1.370290e+003
1.451626e+003, 1.373267e+003
1.453555e+003, 1.376352e+003
1.455483e+003, 1.380503e+003
1.457411e+003, 1.381478e+003
1.459340e+003, 1.377413e+003
1.461268e+003, 1.376007e+003
1.463197e+003, 1.377250e+003
1.465125e+003, 1.377605e+003
1.467054e+003, 1.376967e+003
1.468982e+003, 1.375000e+003
1.470911e+003, 1.371456e+003
1.472839e+003, 1.365015e+003
1.474768e+003, 1.358127e+003
1.476696e+003, 1.351219e+003
1.478625e+003, 1.346217e+003
1.480553e+003, 1.344375e+003
1.482482e+003, 1.340755e+003
1.484410e+003, 1.334438e+003
1.486339e+003, 1.329723e+003
1.488267e+003, 1.326138e+003
1.490195e+003, 1.319732e+003
1.492124e+003, 1.311130e+003
1.494052e+003, 1.299633e+003
1.495981e+003, 1.289042e+003
1.497909e+003, 1.284914e+003
1.499838e+003, 1.279104e+003
1.501766e+003, 1.267353e+003
1.503695e+003, 1.258188e+003
1.505623e+003, 1.253553e+003
1.507552e+003, 1.245597e+003
1.509480e+003, 1.234415e+003
1.511409e+003, 1.228503e+003
1.513337e+003, 1.226095e+003
1.515266e+003, 1.225092e+003
1.517194e+003, 1.221908e+003
1.519122e+003, 1.210308e+003
1.521051e+003, 1.198600e+003
1.522979e+003, 1.192436e+003
1.524908e+003, 1.184709e+003
1.526836e+003, 1.173605e+003
1.528765e+003, 1.165603e+003
1.530693e+003, 1.160790e+003
1.532622e+003, 1.154545e+003
1.534550e+003, 1.147092e+003
1.536479e+003, 1.138236e+003
1.538407e+003, 1.130348e+003
1.540336e+003, 1.128095e+003
1.542264e+003, 1.124027e+003
1.544193e+003, 1.111745e+003
1.546121e+003, 1.101370e+003
1.548049e+003, 1.094593e+003
1.549978e+003, 1.090502e+003
1.551906e+003, 1.088809e+003
1.553835e+003, 1.083064e+003
1.555763e+003, 1.075431e+003
1.557692e+003, 1.071576e+003
1.559620e+003, 1.067964e+003
1.561549e+003, 1.062163e+003
1.563477e+003, 1.054404e+003
1.565406e+003, 1.042171e+003
1.567334e+003, 1.036072e+003
1.569263e+003, 1.039487e+003
1.571191e+003, 1.039581e+003
1.573120e+003, 1.036486e+003
1.575048e+003, 1.030554e+003
1.576976e+003, 1.023507e+003
1.578905e+003, 1.017111e+003
1.580833e+003, 1.012774e+003
1.582762e+003, 1.012795e+003
1.584690e+003, 1.010369e+003
1.586619e+003, 1.003154e+003
1.588547e+003, 9.973991e+002
1.590476e+003, 9.937648e+002
1.592404e+003, 9.929818e+002
1.594333e+003, 9.928329e+002
1.596261e+003, 9.871173e+002
1.598190e+003, 9.809562e+002
1.600118e+003, 9.804498e+002
1.602047e+003, 9.779788e+002
1.603975e+003, 9.704857e+002
1.605903e+003, 9.657991e+002
1.607832e+003, 9.648465e+002
1.609760e+003, 9.655602e+002
1.611689e+003, 9.668076e+002
1.613617e+003, 9.656111e+002
1.615546e+003, 9.636400e+002
1.617474e+003, 9.639393e+002
1.619403e+003, 9.615712e+002
1.621331e+003, 9.520436e+002
1.623260e+003, 9.470308e+002
1.625188e+003, 9.476949e+002
1.627117e+003, 9.474677e+002
1.629045e+003, 9.462679e+002
1.630974e+003, 9.455912e+002
1.632902e+003, 9.436487e+002
1.634830e+003, 9.368102e+002
1.636759e+003, 9.310257e+002
1.638687e+003, 9.294383e+002
1.640616e+003, 9.288040e+002
1.642544e+003, 9.290593e+002
1.644473e+003, 9.261812e+002
1.646401e+003, 9.213417e+002
1.648330e+003, 9.192020e+002
1.650258e+003, 9.167692e+002
1.652187e+003, 9.103382e+002
1.654115e+003, 9.044789e+002
1.656044e+003, 9.000930e+002
1.657972e+003, 9.004432e+002
1.659901e+003, 9.061771e+002
1.661829e+003, 9.051603e+002
1.663757e+003, 8.996797e+002
1.665686e+003, 8.940190e+002
1.667614e+003, 8.893959e+002
1.669543e+003, 8.863138e+002
1.671471e+003, 8.855762e+002
1.673400e+003, 8.883306e+002
1.675328e+003, 8.878871e+002
1.677257e+003, 8.840428e+002
1.679185e+003, 8.788395e+002
1.681114e+003, 8.735131e+002
1.683042e+003, 8.696466e+002
1.684971e+003, 8.675631e+002
1.686899e+003, 8.680739e+002
1.688828e+003, 8.674420e+002
1.690756e+003, 8.649100e+002
1.692684e+003, 8.610485e+002
1.694613e+003, 8.568824e+002
1.696541e+003, 8.571680e+002
1.698470e+003, 8.570285e+002
1.700398e+003, 8.493292e+002
1.702327e+003, 8.432743e+002
1.704255e+003, 8.419230e+002
1.706184e+003, 8.395894e+002
1.708112e+003, 8.361699e+002
1.710041e+003, 8.377474e+002
1.711969e+003, 8.398290e+002
1.713898e+003, 8.337430e+002
1.715826e+003, 8.266873e+002
1.717755e+003, 8.233734e+002
1.719683e+003, 8.192864e+002
1.721611e+003, 8.138472e+002
1.723540e+003, 8.120031e+002
1.725468e+003, 8.118333e+002
1.727397e+003, 8.073395e+002
1.729325e+003, 8.021722e+002
1.731254e+003, 7.997491e+002
1.733182e+003, 7.969911e+002
1.735111e+003, 7.927818e+002
1.737039e+003, 7.898148e+002
1.738968e+003, 7.876281e+002
1.740896e+003, 7.833279e+002
1.742825e+003, 7.779080e+002
1.744753e+003, 7.716601e+002
1.746682e+003, 7.664742e+002
1.748610e+003, 7.641981e+002
1.750538e+003, 7.589978e+002
1.752467e+003, 7.510991e+002
1.754395e+003, 7.479078e+002
1.756324e+003, 7.473895e+002
1.758252e+003, 7.483543e+002
1.760181e+003, 7.469855e+002
1.762109e+003, 7.413127e+002
1.764038e+003, 7.334469e+002
1.765966e+003, 7.239934e+002
1.767895e+003, 7.225035e+002
1.769823e+003, 7.241915e+002
1.771752e+003, 7.211730e+002
1.773680e+003, 7.162753e+002
1.775609e+003, 7.099606e+002
1.777537e+003, 7.069771e+002
1.779465e+003, 7.078118e+002
1.781394e+003, 7.051134e+002
1.783322e+003, 7.001432e+002
1.785251e+003, 6.940736e+002
1.787179e+003, 6.889868e+002
1.789108e+003, 6.859131e+002
1.791036e+003, 6.831199e+002
1.792965e+003, 6.802401e+002
1.794893e+003, 6.762101e+002
1.796822e+003, 6.723724e+002
1.798750e+003, 6.726940e+002
1.800679e+003, 6.713595e+002
1.802607e+003, 6.645897e+002
1.804536e+003, 6.589531e+002
1.806464e+003, 6.552347e+002
1.808392e+003, 6.554246e+002
1.810321e+003, 6.561993e+002
1.812249e+003, 6.515943e+002
1.814178e+003, 6.475712e+002
1.816106e+003, 6.485666e+002
1.818035e+003, 6.446035e+002
1.819963e+003, 6.364467e+002
1.821892e+003, 6.347576e+002
1.823820e+003, 6.351957e+002
1.825749e+003, 6.323121e+002
1.827677e+003, 6.295873e+002
1.829606e+003, 6.284440e+002
1.831534e+003, 6.278918e+002
1.833463e+003, 6.274144e+002
1.835391e+003, 6.233041e+002
1.837319e+003, 6.189691e+002
1.839248e+003, 6.181415e+002
1.841176e+003, 6.162640e+002
1.843105e+003, 6.114118e+002
1.845033e+003, 6.087689e+002
1.846962e+003, 6.080135e+002
1.848890e+003, 6.098529e+002
1.850819e+003, 6.098755e+002
1.852747e+003, 6.044252e+002
1.854676e+003, 6.003508e+002
1.856604e+003, 5.989674e+002
1.858533e+003, 5.996363e+002
1.860461e+003, 6.002812e+002
1.862390e+003, 5.950868e+002
1.864318e+003, 5.931097e+002
1.866246e+003, 5.988614e+002
1.868175e+003, 5.981317e+002
1.870103e+003, 5.914059e+002
1.872032e+003, 5.903530e+002
1.873960e+003, 5.909063e+002
1.875889e+003, 5.880769e+002
1.877817e+003, 5.876217e+002
1.879746e+003, 5.906645e+002
1.881674e+003, 5.938800e+002
1.883603e+003, 5.958436e+002
1.885531e+003, 5.924856e+002
1.887460e+003, 5.893193e+002
1.889388e+003, 5.894658e+002
1.891317e+003, 5.898102e+002
1.893245e+003, 5.901434e+002
1.895173e+003, 5.924205e+002
1.897102e+003, 5.937505e+002
1.899030e+003, 5.893668e+002
1.900959e+003, 5.863492e+002
1.902887e+003, 5.863237e+002
1.904816e+003, 5.887448e+002
1.906744e+003, 5.915087e+002
1.908673e+003, 5.893583e+002
1.910601e+003, 5.869687e+002
1.912530e+003, 5.866333e+002
1.914458e+003, 5.882921e+002
1.916387e+003, 5.913990e+002
1.918315e+003, 5.919319e+002
1.920244e+003, 5.912729e+002
1.922172e+003, 5.902963e+002
1.924100e+003, 5.899120e+002
1.926029e+003, 5.905497e+002
1.927957e+003, 5.899267e+002
1.929886e+003, 5.886470e+002
1.931814e+003, 5.881403e+002
1.933743e+003, 5.867299e+002
1.935671e+003, 5.833505e+002
1.937600e+003, 5.808755e+002
1.939528e+003, 5.794435e+002
1.941457e+003, 5.793365e+002
1.943385e+003, 5.795739e+002
1.945314e+003, 5.793582e+002
1.947242e+003, 5.803580e+002
1.949171e+003, 5.825966e+002
1.951099e+003, 5.827822e+002
1.953027e+003, 5.821832e+002
1.954956e+003, 5.827474e+002
1.956884e+003, 5.813275e+002
1.958813e+003, 5.772887e+002
1.960741e+003, 5.759515e+002
1.962670e+003, 5.753445e+002
1.964598e+003, 5.712969e+002
1.966527e+003, 5.671586e+002
1.968455e+003, 5.639962e+002
1.970384e+003, 5.612068e+002
1.972312e+003, 5.580837e+002
1.974241e+003, 5.519547e+002
1.976169e+003, 5.469921e+002
1.978098e+003, 5.461980e+002
1.980026e+003, 5.438364e+002
1.981954e+003, 5.401063e+002
1.983883e+003, 5.374474e+002
1.985811e+003, 5.353296e+002
1.987740e+003, 5.344386e+002
1.989668e+003, 5.299258e+002
1.991597e+003, 5.222198e+002
1.993525e+003, 5.202135e+002
1.995454e+003, 5.178899e+002
1.997382e+003, 5.077285e+002
1.999311e+003, 4.997277e+002
2.001239e+003, 4.953757e+002
2.003168e+003, 4.911208e+002
2.005096e+003, 4.865722e+002
2.007025e+003, 4.804033e+002
2.008953e+003, 4.764313e+002
2.010881e+003, 4.761988e+002
2.012810e+003, 4.691118e+002
2.014738e+003, 4.600487e+002
2.016667e+003, 4.564207e+002
2.018595e+003, 4.526654e+002
2.020524e+003, 4.470399e+002
2.022452e+003, 4.409151e+002
2.024381e+003, 4.345741e+002
2.026309e+003, 4.279366e+002
2.028238e+003, 4.227555e+002
2.030166e+003, 4.197853e+002
2.032095e+003, 4.144085e+002
2.034023e+003, 4.083307e+002
2.035952e+003, 4.065044e+002
2.037880e+003, 4.027890e+002
2.039808e+003, 3.950839e+002
2.041737e+003, 3.909784e+002
2.043665e+003, 3.877483e+002
2.045594e+003, 3.764810e+002
2.047522e+003, 3.695733e+002
2.049451e+003, 3.711790e+002
2.051379e+003, 3.693422e+002
2.053308e+003, 3.645074e+002
2.055236e+003, 3.573351e+002
2.057165e+003, 3.529693e+002
2.059093e+003, 3.532366e+002
2.061022e+003, 3.484763e+002
2.062950e+003, 3.413063e+002
2.064879e+003, 3.378150e+002
2.066807e+003, 3.340666e+002
2.068736e+003, 3.286761e+002
2.070664e+003, 3.252451e+002
2.072593e+003, 3.224569e+002
2.074521e+003, 3.180637e+002
2.076449e+003, 3.127028e+002
2.078378e+003, 3.063231e+002
2.080306e+003, 3.033940e+002
2.082235e+003, 3.014370e+002
2.084163e+003, 2.959180e+002
2.086092e+003, 2.921313e+002
2.088020e+003, 2.918531e+002
2.089949e+003, 2.881102e+002
2.091877e+003, 2.831171e+002
2.093806e+003, 2.791191e+002
2.095734e+003, 2.762142e+002
2.097663e+003, 2.744128e+002
2.099591e+003, 2.723951e+002
2.101520e+003, 2.699678e+002
2.103448e+003, 2.668904e+002
2.105376e+003, 2.636164e+002
2.107305e+003, 2.602592e+002
2.109233e+003, 2.575019e+002
2.111162e+003, 2.542036e+002
2.113090e+003, 2.489644e+002
2.115019e+003, 2.476945e+002
2.116947e+003, 2.495500e+002
2.118876e+003, 2.476927e+002
2.120804e+003, 2.443998e+002
2.122733e+003, 2.407052e+002
2.124661e+003, 2.379207e+002
2.126590e+003, 2.358560e+002
2.128518e+003, 2.339332e+002
2.130447e+003, 2.318635e+002
2.132375e+003, 2.295250e+002
2.134303e+003, 2.284968e+002
2.136232e+003, 2.277644e+002
2.138160e+003, 2.253291e+002
2.140089e+003, 2.229530e+002
2.142017e+003, 2.210209e+002
2.143946e+003, 2.195509e+002
2.145874e+003, 2.179578e+002
2.147803e+003, 2.151133e+002
2.149731e+003, 2.136525e+002
2.151660e+003, 2.133340e+002
2.153588e+003, 2.106725e+002
2.155517e+003, 2.079666e+002
2.157445e+003, 2.072829e+002
2.159374e+003, 2.054618e+002
2.161302e+003, 2.030669e+002
2.163230e+003, 2.021286e+002
2.165159e+003, 2.013535e+002
2.167087e+003, 2.000827e+002
2.169016e+003, 2.005112e+002
2.170944e+003, 2.005036e+002
2.172873e+003, 1.964516e+002
2.174801e+003, 1.931347e+002
2.176730e+003, 1.915715e+002
2.178658e+003, 1.920421e+002
2.180587e+003, 1.929490e+002
2.182515e+003, 1.934594e+002
2.184444e+003, 1.917994e+002
2.186372e+003, 1.886532e+002
2.188301e+003, 1.860688e+002
2.190229e+003, 1.848189e+002
2.192157e+003, 1.853652e+002
2.194086e+003, 1.834135e+002
2.196014e+003, 1.805021e+002
2.197943e+003, 1.788567e+002
2.199871e+003, 1.786599e+002
2.201800e+003, 1.795269e+002
2.203728e+003, 1.772045e+002
2.205657e+003, 1.748360e+002
2.207585e+003, 1.746563e+002
2.209514e+003, 1.742438e+002
2.211442e+003, 1.734809e+002
2.213371e+003, 1.727657e+002
2.215299e+003, 1.718733e+002
2.217228e+003, 1.707325e+002
2.219156e+003, 1.681537e+002
2.221084e+003, 1.662277e+002
2.223013e+003, 1.680323e+002
2.224941e+003, 1.697568e+002
2.226870e+003, 1.704448e+002
2.228798e+003, 1.672452e+002
2.230727e+003, 1.646791e+002
2.232655e+003, 1.651147e+002
2.234584e+003, 1.647617e+002
2.236512e+003, 1.638303e+002
2.238441e+003, 1.622104e+002
2.240369e+003, 1.621829e+002
2.242298e+003, 1.635510e+002
2.244226e+003, 1.620440e+002
2.246155e+003, 1.601868e+002
2.248083e+003, 1.594638e+002
2.250011e+003, 1.589885e+002
2.251940e+003, 1.582916e+002
2.253868e+003, 1.563616e+002
2.255797e+003, 1.550520e+002
2.257725e+003, 1.546595e+002
2.259654e+003, 1.537911e+002
2.261582e+003, 1.534814e+002
2.263511e+003, 1.546233e+002
2.265439e+003, 1.527842e+002
2.267368e+003, 1.499847e+002
2.269296e+003, 1.505214e+002
2.271225e+003, 1.511081e+002
2.273153e+003, 1.510020e+002
2.275082e+003, 1.499145e+002
2.277010e+003, 1.485135e+002
2.278938e+003, 1.470543e+002
2.280867e+003, 1.474639e+002
2.282795e+003, 1.483130e+002
2.284724e+003, 1.468586e+002
2.286652e+003, 1.456195e+002
2.288581e+003, 1.448836e+002
2.290509e+003, 1.438338e+002
2.292438e+003, 1.426656e+002
2.294366e+003, 1.414221e+002
2.296295e+003, 1.412058e+002
2.298223e+003, 1.415596e+002
2.300152e+003, 1.420715e+002
2.302080e+003, 1.422809e+002
2.304009e+003, 1.419948e+002
2.305937e+003, 1.407661e+002
2.307865e+003, 1.390273e+002
2.309794e+003, 1.368964e+002
2.311722e+003, 1.367272e+002
2.313651e+003, 1.368271e+002
2.315579e+003, 1.351358e+002
2.317508e+003, 1.344576e+002
2.319436e+003, 1.346057e+002
2.321365e+003, 1.348612e+002
2.323293e+003, 1.347665e+002
2.325222e+003, 1.342708e+002
2.327150e+003, 1.352296e+002
2.329079e+003, 1.354028e+002
2.331007e+003, 1.331570e+002
2.332936e+003, 1.320410e+002
2.334864e+003, 1.313511e+002
2.336792e+003, 1.295321e+002
2.338721e+003, 1.303665e+002
2.340649e+003, 1.328506e+002
2.342578e+003, 1.302899e+002
2.344506e+003, 1.281872e+002
2.346435e+003, 1.282551e+002
2.348363e+003, 1.276955e+002
2.350292e+003, 1.275428e+002
2.352220e+003, 1.287863e+002
2.354149e+003, 1.267579e+002
2.356077e+003, 1.238819e+002
2.358006e+003, 1.253192e+002
2.359934e+003, 1.258902e+002
2.361863e+003, 1.250518e+002
2.363791e+003, 1.231473e+002
2.365719e+003, 1.228467e+002
2.367648e+003, 1.246548e+002
2.369576e+003, 1.247739e+002
2.371505e+003, 1.238282e+002
2.373433e+003, 1.219397e+002
2.375362e+003, 1.223437e+002
2.377290e+003, 1.231722e+002
2.379219e+003, 1.205661e+002
2.381147e+003, 1.208095e+002
2.383076e+003, 1.228654e+002
2.385004e+003, 1.209971e+002
2.386933e+003, 1.191918e+002
2.388861e+003, 1.185018e+002
2.390790e+003, 1.170690e+002
2.392718e+003, 1.160700e+002
2.394646e+003, 1.163076e+002
2.396575e+003, 1.177678e+002
2.398503e+003, 1.185463e+002
2.400432e+003, 1.164302e+002
2.402360e+003, 1.150244e+002
2.404289e+003, 1.145055e+002
2.406217e+003, 1.146688e+002
2.408146e+003, 1.150587e+002
2.410074e+003, 1.151902e+002
2.412003e+003, 1.125397e+002
2.413931e+003, 1.104297e+002
2.415860e+003, 1.100211e+002
2.417788e+003, 1.109764e+002
2.419717e+003, 1.116327e+002
2.421645e+003, 1.110979e+002
2.423573e+003, 1.092190e+002
2.425502e+003, 1.083325e+002
2.427430e+003, 1.111939e+002
2.429359e+003, 1.121700e+002
2.431287e+003, 1.114741e+002
2.433216e+003, 1.100557e+002
2.435144e+003, 1.085862e+002
2.437073e+003, 1.077898e+002
2.439001e+003, 1.106908e+002
2.440930e+003, 1.107900e+002
2.442858e+003, 1.073831e+002
2.444787e+003, 1.057278e+002
2.446715e+003, 1.047120e+002
2.448644e+003, 1.037999e+002
2.450572e+003, 1.039428e+002
2.452500e+003, 1.042179e+002
2.454429e+003, 1.039772e+002
2.456357e+003, 1.033260e+002
2.458286e+003, 1.028792e+002
2.460214e+003, 1.038019e+002
2.462143e+003, 1.030407e+002
2.464071e+003, 1.016584e+002
2.466000e+003, 1.019720e+002
2.467928e+003, 1.009891e+002
2.469857e+003, 9.934122e+001
2.471785e+003, 1.000964e+002
2.473714e+003, 1.001883e+002
2.475642e+003, 9.914568e+001
2.477571e+003, 9.769965e+001
2.479499e+003, 9.710513e+001
2.481427e+003, 9.766231e+001
2.483356e+003, 9.727820e+001
2.485284e+003, 9.741040e+001
2.487213e+003, 9.864300e+001
2.489141e+003, 9.793447e+001
2.491070e+003, 9.688896e+001
2.492998e+003, 9.648863e+001
2.494927e+003, 9.728676e+001
2.496855e+003, 9.740236e+001
2.498784e+003, 9.524513e+001
2.500712e+003, 9.291311e+001
2.502641e+003, 9.113953e+001
2.504569e+003, 9.053686e+001
2.506498e+003, 9.135472e+001
2.508426e+003, 9.255423e+001
2.510354e+003, 9.250665e+001
2.512283e+003, 9.146777e+001
2.514211e+003, 9.015504e+001
2.516140e+003, 9.027261e+001
2.518068e+003, 8.960822e+001
2.519997e+003, 8.852559e+001
2.521925e+003, 8.923689e+001
2.523854e+003, 8.955752e+001
2.525782e+003, 8.905166e+001
2.527711e+003, 8.725060e+001
2.529639e+003, 8.669120e+001
2.531568e+003, 8.760518e+001
2.533496e+003, 8.739855e+001
2.535425e+003, 8.683816e+001
2.537353e+003, 8.619940e+001
2.539281e+003, 8.566547e+001
2.541210e+003, 8.535648e+001
2.543138e+003, 8.534392e+001
2.545067e+003, 8.651018e+001
2.546995e+003, 8.669740e+001
2.548924e+003, 8.475822e+001
2.550852e+003, 8.366384e+001
2.552781e+003, 8.335564e+001
2.554709e+003, 8.378164e+001
2.556638e+003, 8.409254e+001
2.558566e+003, 8.484223e+001
2.560495e+003, 8.629387e+001
2.562423e+003, 8.562289e+001
2.564352e+003, 8.440385e+001
2.566280e+003, 8.372193e+001
2.568208e+003, 8.281763e+001
2.570137e+003, 8.179646e+001
2.572065e+003, 8.073018e+001
2.573994e+003, 8.145244e+001
2.575922e+003, 8.214395e+001
2.577851e+003, 8.132530e+001
2.579779e+003, 8.047449e+001
2.581708e+003, 7.957905e+001
2.583636e+003, 7.854333e+001
2.585565e+003, 7.706225e+001
2.587493e+003, 7.612934e+001
2.589422e+003, 7.689491e+001
2.591350e+003, 7.779913e+001
2.593279e+003, 7.811879e+001
2.595207e+003, 7.675880e+001
2.597135e+003, 7.646137e+001
2.599064e+003, 7.640514e+001
2.600992e+003, 7.574010e+001
2.602921e+003, 7.460551e+001
2.604849e+003, 7.374426e+001
2.606778e+003, 7.398405e+001
2.608706e+003, 7.361845e+001
2.610635e+003, 7.311505e+001
2.612563e+003, 7.296404e+001
2.614492e+003, 7.259238e+001
2.616420e+003, 7.202550e+001
2.618349e+003, 7.128641e+001
2.620277e+003, 7.122093e+001
2.622206e+003, 7.118998e+001
2.624134e+003, 7.071629e+001
2.626063e+003, 7.068816e+001
2.627991e+003, 7.078638e+001
2.629919e+003, 7.077187e+001
2.631848e+003, 7.125292e+001
2.633776e+003, 7.105035e+001
2.635705e+003, 6.959983e+001
2.637633e+003, 6.908387e+001
2.639562e+003, 6.781767e+001
2.641490e+003, 6.517146e+001
2.643419e+003, 6.510864e+001
2.645347e+003, 6.613330e+001
2.647276e+003, 6.719729e+001
2.649204e+003, 6.523701e+001
2.651133e+003, 6.408262e+001
2.653061e+003, 6.492849e+001
2.654990e+003, 6.522627e+001
2.656918e+003, 6.511201e+001
2.658846e+003, 6.470671e+001
2.660775e+003, 6.414989e+001
2.662703e+003, 6.326429e+001
2.664632e+003, 6.246961e+001
2.666560e+003, 6.482931e+001
2.668489e+003, 6.506198e+001
2.670417e+003, 6.316904e+001
2.672346e+003, 6.283411e+001
2.674274e+003, 6.343846e+001
2.676203e+003, 6.415611e+001
2.678131e+003, 6.356292e+001
2.680060e+003, 6.167515e+001
2.681988e+003, 5.999401e+001
2.683917e+003, 6.128683e+001
2.685845e+003, 6.064658e+001
2.687773e+003, 5.913356e+001
2.689702e+003, 5.866497e+001
2.691630e+003, 5.888445e+001
2.693559e+003, 5.946535e+001
2.695487e+003, 6.018637e+001
2.697416e+003, 6.039854e+001
2.699344e+003, 5.994722e+001
2.701273e+003, 5.883223e+001
2.703201e+003, 5.806599e+001
2.705130e+003, 5.769258e+001
2.707058e+003, 5.766487e+001
2.708987e+003, 5.825331e+001
2.710915e+003, 5.761221e+001
2.712844e+003, 5.584554e+001
2.714772e+003, 5.704278e+001
2.716700e+003, 5.676278e+001
2.718629e+003, 5.491053e+001
2.720557e+003, 5.459916e+001
2.722486e+003, 5.566476e+001
2.724414e+003, 5.655095e+001
2.726343e+003, 5.344279e+001
2.728271e+003, 5.403690e+001
2.730200e+003, 5.599677e+001
2.732128e+003, 5.480962e+001
2.734057e+003, 5.441025e+001
2.735985e+003, 5.382862e+001
2.737914e+003, 5.171781e+001
2.739842e+003, 5.139687e+001
2.741771e+003, 5.143348e+001
2.743699e+003, 5.095978e+001
2.745627e+003, 5.167878e+001
2.747556e+003, 5.137983e+001
2.749484e+003, 4.954325e+001
2.751413e+003, 4.757114e+001
2.753341e+003, 4.792815e+001
2.755270e+003, 4.975633e+001
2.757198e+003, 4.910435e+001
2.759127e+003, 4.843199e+001
2.761055e+003, 4.863941e+001
2.762984e+003, 5.087813e+001
2.764912e+003, 4.992486e+001
2.766841e+003, 4.804973e+001
2.768769e+003, 4.737293e+001
2.770698e+003, 4.756817e+001
2.772626e+003, 4.737339e+001
2.774554e+003, 4.650551e+001
2.776483e+003, 4.768864e+001
2.778411e+003, 4.757053e+001
2.780340e+003, 4.588886e+001
2.782268e+003, 4.483231e+001
2.784197e+003, 4.441943e+001
2.786125e+003, 4.443560e+001
2.788054e+003, 4.464974e+001
2.789982e+003, 4.428226e+001
2.791911e+003, 4.419911e+001
2.793839e+003, 4.574355e+001
2.795768e+003, 4.583059e+001
2.797696e+003, 4.535654e+001
2.799625e+003, 4.484789e+001
2.801553e+003, 4.546348e+001
2.803481e+003, 4.481383e+001
2.805410e+003, 4.302003e+001
2.807338e+003, 4.274820e+001
2.809267e+003, 4.164613e+001
2.811195e+003, 4.079172e+001
2.813124e+003, 4.222209e+001
2.815052e+003, 4.312877e+001
2.816981e+003, 4.300060e+001
2.818909e+003, 4.187006e+001
2.820838e+003, 4.216129e+001
2.822766e+003, 4.178965e+001
2.824695e+003, 4.041324e+001
2.826623e+003, 4.079002e+001
2.828552e+003, 4.045714e+001
2.830480e+003, 3.954676e+001
2.832408e+003, 3.909090e+001
2.834337e+003, 3.989611e+001
2.836265e+003, 4.060792e+001
2.838194e+003, 4.008379e+001
2.840122e+003, 3.823569e+001
2.842051e+003, 3.789347e+001
2.843979e+003, 3.932966e+001
2.845908e+003, 3.896010e+001
2.847836e+003, 3.808392e+001
2.849765e+003, 3.743064e+001
2.851693e+003, 3.786446e+001
2.853622e+003, 3.764648e+001
2.855550e+003, 3.754580e+001
2.857479e+003, 3.853246e+001
2.859407e+003, 3.763501e+001
2.861335e+003, 3.627259e+001
2.863264e+003, 3.519523e+001
2.865192e+003, 3.538685e+001
2.867121e+003, 3.545914e+001
2.869049e+003, 3.554052e+001
2.870978e+003, 3.625609e+001
2.872906e+003, 3.497769e+001
2.874835e+003, 3.434885e+001
2.876763e+003, 3.588509e+001
2.878692e+003, 3.635326e+001
2.880620e+003, 3.565662e+001
2.882549e+003, 3.444243e+001
2.884477e+003, 3.464252e+001
2.886406e+003, 3.325181e+001
2.888334e+003, 3.187781e+001
2.890262e+003, 3.223731e+001
2.892191e+003, 3.353336e+001
2.894119e+003, 3.390054e+001
2.896048e+003, 3.309676e+001
2.897976e+003, 3.278197e+001
2.899905e+003, 3.242403e+001
2.901833e+003, 3.217942e+001
2.903762e+003, 3.248435e+001
2.905690e+003, 3.284143e+001
2.907619e+003, 3.219222e+001
2.909547e+003, 3.047413e+001
2.911476e+003, 3.131677e+001
2.913404e+003, 3.200927e+001
2.915333e+003, 3.193810e+001
2.917261e+003, 3.100486e+001
2.919189e+003, 3.031408e+001
2.921118e+003, 3.029400e+001
2.923046e+003, 3.112665e+001
2.924975e+003, 3.106023e+001
2.926903e+003, 3.142562e+001
2.928832e+003, 3.189984e+001
2.930760e+003, 3.121709e+001
2.932689e+003, 2.959805e+001
2.934617e+003, 2.838938e+001
2.936546e+003, 2.839698e+001
2.938474e+003, 2.875999e+001
2.940403e+003, 2.891166e+001
2.942331e+003, 2.858469e+001
2.944260e+003, 2.737302e+001
2.946188e+003, 2.725165e+001
2.948116e+003, 2.796436e+001
2.950045e+003, 2.896848e+001
2.951973e+003, 2.848164e+001
2.953902e+003, 2.729009e+001
2.955830e+003, 2.637218e+001
2.957759e+003, 2.750841e+001
2.959687e+003, 2.743797e+001
2.961616e+003, 2.689679e+001
2.963544e+003, 2.653772e+001
2.965473e+003, 2.684399e+001
2.967401e+003, 2.733420e+001
2.969330e+003, 2.748010e+001
2.971258e+003, 2.625073e+001
2.973187e+003, 2.746218e+001
2.975115e+003, 2.729718e+001
2.977043e+003, 2.464460e+001
2.978972e+003, 2.653749e+001
2.980900e+003, 2.777229e+001
2.982829e+003, 2.765115e+001
2.984757e+003, 2.644403e+001
2.986686e+003, 2.695453e+001
2.988614e+003, 2.684144e+001
2.990543e+003, 2.574756e+001
2.992471e+003, 2.582557e+001
2.994400e+003, 2.579023e+001
2.996328e+003, 2.560482e+001
2.998257e+003, 2.541135e+001
3.000185e+003, 2.548521e+001
3.002114e+003, 2.539961e+001
3.004042e+003, 2.507682e+001
3.005970e+003, 2.453362e+001
3.007899e+003, 2.480126e+001
3.009827e+003, 2.518838e+001
3.011756e+003, 2.533140e+001
3.013684e+003, 2.566223e+001
3.015613e+003, 2.443695e+001
3.017541e+003, 2.303878e+001
3.019470e+003, 2.316147e+001
3.021398e+003, 2.309976e+001
3.023327e+003, 2.345963e+001
3.025255e+003, 2.435522e+001
3.027184e+003, 2.616967e+001
3.029112e+003, 2.478789e+001
3.031041e+003, 2.349594e+001
3.032969e+003, 2.401062e+001
3.034897e+003, 2.313982e+001
3.036826e+003, 2.255587e+001
3.038754e+003, 2.279052e+001
3.040683e+003, 2.410569e+001
3.042611e+003, 2.518582e+001
3.044540e+003, 2.475493e+001
3.046468e+003, 2.331368e+001
3.048397e+003, 2.241362e+001
3.050325e+003, 2.380888e+001
3.052254e+003, 2.415494e+001
3.054182e+003, 2.239447e+001
3.056111e+003, 2.141063e+001
3.058039e+003, 2.104355e+001
3.059968e+003, 2.158348e+001
3.061896e+003, 2.298713e+001
3.063824e+003, 2.333868e+001
3.065753e+003, 2.273523e+001
3.067681e+003, 2.206662e+001
3.069610e+003, 2.237955e+001
3.071538e+003, 2.268248e+001
3.073467e+003, 2.282808e+001
3.075395e+003, 2.304179e+001
3.077324e+003, 2.412260e+001
3.079252e+003, 2.390152e+001
3.081181e+003, 2.336346e+001
3.083109e+003, 2.325760e+001
3.085038e+003, 2.447748e+001
3.086966e+003, 2.474922e+001
3.088895e+003, 2.417255e+001
3.090823e+003, 2.312292e+001
3.092751e+003, 2.216857e+001
3.094680e+003, 2.383444e+001
3.096608e+003, 2.498861e+001
3.098537e+003, 2.209145e+001
3.100465e+003, 2.342665e+001
3.102394e+003, 2.385977e+001
3.104322e+003, 2.316827e+001
3.106251e+003, 2.299684e+001
3.108179e+003, 2.361993e+001
3.110108e+003, 2.360326e+001
3.112036e+003, 2.332083e+001
3.113965e+003, 2.459505e+001
3.115893e+003, 2.322412e+001
3.117822e+003, 2.354370e+001
3.119750e+003, 2.572334e+001
3.121678e+003, 2.411188e+001
3.123607e+003, 2.392959e+001
3.125535e+003, 2.452948e+001
3.127464e+003, 2.525929e+001
3.129392e+003, 2.625268e+001
3.131321e+003, 2.533171e+001
3.133249e+003, 2.484637e+001
3.135178e+003, 2.579314e+001
3.137106e+003, 2.457366e+001
3.139035e+003, 2.419461e+001
3.140963e+003, 2.446501e+001
3.142892e+003, 2.484091e+001
3.144820e+003, 2.532047e+001
3.146749e+003, 2.478835e+001
3.148677e+003, 2.473851e+001
3.150605e+003, 2.642251e+001
3.152534e+003, 2.621703e+001
3.154462e+003, 2.482892e+001
3.156391e+003, 2.428960e+001
3.158319e+003, 2.604309e+001
3.160248e+003, 2.708363e+001
3.162176e+003, 2.670466e+001
3.164105e+003, 2.572472e+001
3.166033e+003, 2.516085e+001
3.167962e+003, 2.625250e+001
3.169890e+003, 2.687338e+001
3.171819e+003, 2.686887e+001
3.173747e+003, 2.659832e+001
3.175676e+003, 2.594503e+001
3.177604e+003, 2.503539e+001
3.179532e+003, 2.491121e+001
3.181461e+003, 2.632987e+001
3.183389e+003, 2.715339e+001
3.185318e+003, 2.628252e+001
3.187246e+003, 2.507537e+001
3.189175e+003, 2.502035e+001
3.191103e+003, 2.528781e+001
3.193032e+003, 2.589138e+001
3.194960e+003, 2.610618e+001
3.196889e+003, 2.534162e+001
3.198817e+003, 2.535737e+001
3.200746e+003, 2.598814e+001
3.202674e+003, 2.597647e+001
3.204603e+003, 2.455029e+001
3.206531e+003, 2.495197e+001
3.208459e+003, 2.439334e+001
3.210388e+003, 2.415062e+001
3.212316e+003, 2.520743e+001
3.214245e+003, 2.521677e+001
3.216173e+003, 2.584015e+001
3.218102e+003, 2.627932e+001
3.220030e+003, 2.604229e+001
3.221959e+003, 2.569403e+001
3.223887e+003, 2.685434e+001
3.225816e+003, 2.774412e+001
3.227744e+003, 2.776432e+001
3.229673e+003, 2.854362e+001
3.231601e+003, 2.711480e+001
3.233530e+003, 2.664783e+001
3.235458e+003, 2.768307e+001
3.237386e+003, 2.825920e+001
3.239315e+003, 2.846973e+001
3.241243e+003, 2.803504e+001
3.243172e+003, 2.774745e+001
3.245100e+003, 2.915340e+001
3.247029e+003, 2.902222e+001
3.248957e+003, 2.846875e+001
3.250886e+003, 2.842692e+001
3.252814e+003, 2.960738e+001
3.254743e+003, 2.817273e+001
3.256671e+003, 2.848854e+001
3.258600e+003, 2.927207e+001
3.260528e+003, 2.894551e+001
3.262457e+003, 2.930653e+001
3.264385e+003, 2.854255e+001
3.266313e+003, 2.872641e+001
3.268242e+003, 3.059114e+001
3.270170e+003, 3.217214e+001
3.272099e+003, 3.069048e+001
3.274027e+003, 3.069317e+001
3.275956e+003, 3.241224e+001
3.277884e+003, 3.245893e+001
3.279813e+003, 3.404424e+001
3.281741e+003, 3.497008e+001
3.283670e+003, 3.535456e+001
3.285598e+003, 3.591889e+001
3.287527e+003, 3.309851e+001
3.289455e+003, 3.396537e+001
3.291384e+003, 3.654118e+001
3.293312e+003, 3.823658e+001
3.295240e+003, 3.898505e+001
3.297169e+003, 4.105036e+001
3.299097e+003, 4.017180e+001
3.301026e+003, 3.749184e+001
3.302954e+003, 4.029306e+001
3.304883e+003, 4.308733e+001
3.306811e+003, 4.355173e+001
3.308740e+003, 4.250113e+001
3.310668e+003, 4.158175e+001
3.312597e+003, 4.350443e+001
3.314525e+003, 4.483945e+001
3.316454e+003, 4.470695e+001
3.318382e+003, 4.356313e+001
3.320311e+003, 4.337211e+001
3.322239e+003, 4.677391e+001
3.324167e+003, 4.695489e+001
3.326096e+003, 4.456634e+001
3.328024e+003, 4.477222e+001
3.329953e+003, 4.613482e+001
3.331881e+003, 4.644024e+001
3.333810e+003, 4.578998e+001
3.335738e+003, 4.518243e+001
3.337667e+003, 4.688076e+001
3.339595e+003, 4.709425e+001
3.341524e+003, 4.764370e+001
3.343452e+003, 4.846224e+001
3.345381e+003, 4.779095e+001
3.347309e+003, 4.649018e+001
3.349238e+003, 4.776746e+001
3.351166e+003, 4.857507e+001
3.353094e+003, 4.653210e+001
3.355023e+003, 4.728102e+001
3.356951e+003, 4.511250e+001
3.358880e+003, 4.541117e+001
3.360808e+003, 4.785988e+001
3.362737e+003, 4.727911e+001
3.364665e+003, 4.835195e+001
3.366594e+003, 4.779908e+001
3.368522e+003, 4.686579e+001
3.370451e+003, 4.681433e+001
3.372379e+003, 4.674680e+001
3.374308e+003, 4.590189e+001
3.376236e+003, 4.760668e+001
3.378165e+003, 4.900344e+001
3.380093e+003, 4.586238e+001
3.382021e+003, 4.900612e+001
3.383950e+003, 4.786710e+001
3.385878e+003, 4.534685e+001
3.387807e+003, 4.452032e+001
3.389735e+003, 4.582169e+001
3.391664e+003, 4.509153e+001
3.393592e+003, 4.557702e+001
3.395521e+003, 4.612667e+001
3.397449e+003, 4.497124e+001
3.399378e+003, 4.238142e+001
3.401306e+003, 4.374606e+001
3.403235e+003, 4.364022e+001
3.405163e+003, 4.243168e+001
3.407092e+003, 4.398614e+001
3.409020e+003, 4.293147e+001
3.410948e+003, 4.221139e+001
3.412877e+003, 4.163526e+001
3.414805e+003, 4.123987e+001
3.416734e+003, 4.191952e+001
3.418662e+003, 4.110392e+001
3.420591e+003, 3.979362e+001
3.422519e+003, 3.948652e+001
3.424448e+003, 4.028588e+001
3.426376e+003, 3.981316e+001
3.428305e+003, 3.789569e+001
3.430233e+003, 3.885849e+001
3.432162e+003, 3.911816e+001
3.434090e+003, 3.573052e+001
3.436019e+003, 3.769428e+001
3.437947e+003, 3.641768e+001
3.439875e+003, 3.629106e+001
3.441804e+003, 3.648621e+001
3.443732e+003, 3.433020e+001
3.445661e+003, 3.529939e+001
3.447589e+003, 3.641239e+001
3.449518e+003, 3.375647e+001
3.451446e+003, 3.054131e+001
##END=



