##NAMES=Astrophyllite
##RRUFFID=R060202
##IDEAL CHEMISTRY=K_2_NaFe^2+^_7_Ti_2_(Si_4_O_12_)_2_O_2_(OH)_4_F
##LOCALITY=Demix Quarry, Mont Saint-Hilaire, Rouville County, Quebec, Canada
##OWNER=RRUFF
##SOURCE=Royal Ontario Museum
##DESCRIPTION=Aggregate of brown splintered wafers
##STATUS=The identification of this mineral has been confirmed by X-ray diffraction and chemical analysis
##URL=https://www.rruff.net/odr/rruff_sample/R060202
##MEASURED CHEMISTRY=(K_0.56_Na_0.38_Ca_0.06_)_3_(Fe^2+^_0.52_Mn_0.44_Mg_0.04_)_7_(Ti_0.75_Zr_0.15_Al_0.15_)_2_Si_8_O_24_(O_0.27_OH_0.73_)_7_
##DIFFRACTION SAMPLE DESCRIPTION=Powder, cell parameters are from single crystal
##CELL PARAMETERS=a: 5.411 b: 11.926 c: 11.696 alpha: 113.06 beta: 94.73 gamma: 103.16 volume: 663.8 crystal system: triclinic
##FILETYPE=Raman Processed
##RAMAN WAVELENGTH=785

185.1015, 4416.083
187.0300, 4453.819
188.9585, 4501.255
190.8869, 4561.064
192.8154, 4643.424
194.7439, 4705.758
196.6723, 4735.400
198.6008, 4758.331
200.5293, 4783.518
202.4577, 4811.811
204.3862, 4843.943
206.3147, 4878.645
208.2431, 4917.071
210.1716, 4960.567
212.1001, 5010.350
214.0285, 5063.771
215.9570, 5126.411
217.8855, 5203.943
219.8139, 5289.705
221.7424, 5380.982
223.6709, 5475.755
225.5993, 5553.423
227.5278, 5609.798
229.4563, 5666.634
231.3847, 5720.866
233.3132, 5788.902
235.2417, 5886.822
237.1701, 5991.893
239.0986, 6087.158
241.0271, 6170.696
242.9555, 6225.812
244.8840, 6244.951
246.8125, 6260.007
248.7409, 6287.661
250.6694, 6296.180
252.5979, 6265.477
254.5263, 6221.814
256.4548, 6193.454
258.3833, 6166.911
260.3117, 6110.918
262.2402, 6019.069
264.1687, 5925.766
266.0971, 5835.319
268.0256, 5736.918
269.9541, 5621.672
271.8825, 5505.648
273.8110, 5396.942
275.7395, 5295.039
277.6679, 5199.066
279.5964, 5108.765
281.5249, 5027.501
283.4533, 4959.142
285.3818, 4886.852
287.3103, 4799.150
289.2387, 4720.586
291.1672, 4666.095
293.0957, 4624.550
295.0241, 4585.157
296.9526, 4548.049
298.8811, 4514.937
300.8095, 4485.429
302.7380, 4463.133
304.6665, 4453.283
306.5949, 4439.320
308.5234, 4407.285
310.4519, 4378.063
312.3803, 4366.450
314.3088, 4365.914
316.2373, 4364.108
318.1657, 4361.649
320.0942, 4366.565
322.0227, 4383.093
323.9511, 4390.980
325.8796, 4373.863
327.8081, 4362.852
329.7365, 4374.815
331.6650, 4391.781
333.5935, 4392.494
335.5219, 4381.885
337.4504, 4378.949
339.3789, 4387.250
341.3073, 4402.223
343.2358, 4425.049
345.1643, 4442.429
347.0927, 4456.659
349.0212, 4472.577
350.9497, 4493.269
352.8781, 4500.933
354.8066, 4475.548
356.7351, 4434.369
358.6635, 4430.278
360.5920, 4472.327
362.5205, 4507.311
364.4489, 4542.089
366.3774, 4552.961
368.3059, 4519.558
370.2343, 4485.088
372.1628, 4477.742
374.0913, 4477.333
376.0197, 4466.947
377.9482, 4453.708
379.8767, 4453.048
381.8051, 4464.688
383.7336, 4470.853
385.6621, 4474.266
387.5905, 4465.720
389.5190, 4432.104
391.4474, 4403.102
393.3759, 4399.570
395.3044, 4401.313
397.2328, 4392.048
399.1613, 4374.259
401.0898, 4357.553
403.0182, 4345.738
404.9467, 4349.461
406.8752, 4371.768
408.8036, 4372.946
410.7321, 4327.561
412.6606, 4288.481
414.5891, 4285.287
416.5175, 4291.298
418.4460, 4284.760
420.3745, 4269.042
422.3029, 4258.615
424.2314, 4252.612
426.1599, 4236.433
428.0883, 4207.468
430.0168, 4180.551
431.9453, 4164.556
433.8737, 4140.175
435.8022, 4095.104
437.7307, 4054.338
439.6591, 4017.603
441.5876, 3985.417
443.5161, 3975.975
445.4445, 3980.735
447.3730, 3983.542
449.3015, 3982.107
451.2299, 3972.852
453.1584, 3954.545
455.0869, 3950.879
457.0153, 3965.541
458.9438, 3977.577
460.8723, 3982.551
462.8007, 3995.001
464.7292, 4024.039
466.6577, 4038.337
468.5861, 4029.078
470.5146, 4021.426
472.4431, 4026.022
474.3715, 4032.359
476.3000, 4029.183
478.2285, 4020.602
480.1569, 4020.805
482.0854, 4027.300
484.0139, 4019.895
485.9423, 4000.023
487.8708, 3994.956
489.7993, 4012.109
491.7277, 4017.305
493.6562, 4008.463
495.5847, 3988.481
497.5131, 3942.497
499.4416, 3894.795
501.3701, 3886.452
503.2985, 3901.030
505.2270, 3901.547
507.1555, 3886.574
509.0839, 3869.064
511.0124, 3858.086
512.9409, 3844.505
514.8693, 3821.187
516.7978, 3810.163
518.7263, 3805.971
520.6547, 3798.329
522.5832, 3790.676
524.5117, 3786.016
526.4401, 3780.941
528.3686, 3773.486
530.2971, 3766.496
532.2255, 3766.551
534.1540, 3777.957
536.0825, 3799.204
538.0109, 3825.025
539.9394, 3846.094
541.8679, 3865.865
543.7963, 3896.517
545.7248, 3927.676
547.6533, 3951.997
549.5817, 3973.285
551.5102, 3995.150
553.4387, 4013.498
555.3671, 4026.677
557.2956, 4035.602
559.2241, 4034.223
561.1525, 4022.344
563.0810, 4020.318
565.0095, 4030.106
566.9379, 4008.522
568.8664, 3959.419
570.7949, 3919.276
572.7233, 3888.425
574.6518, 3861.351
576.5803, 3843.753
578.5087, 3824.544
580.4372, 3798.708
582.3657, 3773.112
584.2941, 3747.070
586.2226, 3727.357
588.1511, 3717.777
590.0795, 3710.942
592.0080, 3706.218
593.9365, 3704.449
595.8649, 3693.161
597.7934, 3678.030
599.7219, 3689.149
601.6503, 3720.447
603.5788, 3727.442
605.5073, 3710.511
607.4357, 3721.000
609.3642, 3771.891
611.2927, 3804.940
613.2211, 3806.453
615.1496, 3827.434
617.0781, 3885.699
619.0065, 3939.042
620.9350, 3966.685
622.8635, 3994.228
624.7919, 4033.163
626.7204, 4087.276
628.6489, 4157.471
630.5773, 4236.525
632.5058, 4316.383
634.4343, 4400.066
636.3627, 4503.096
638.2912, 4618.430
640.2197, 4709.214
642.1481, 4784.331
644.0766, 4874.496
646.0051, 4976.562
647.9335, 5085.556
649.8620, 5204.099
651.7905, 5304.591
653.7189, 5381.790
655.6474, 5432.993
657.5759, 5452.718
659.5043, 5439.950
661.4328, 5389.912
663.3613, 5341.649
665.2897, 5299.758
667.2182, 5263.637
669.1467, 5238.494
671.0751, 5210.805
673.0036, 5162.292
674.9321, 5119.028
676.8605, 5095.967
678.7890, 5085.828
680.7175, 5101.377
682.6459, 5136.382
684.5744, 5161.496
686.5029, 5177.049
688.4313, 5198.692
690.3598, 5226.555
692.2883, 5235.394
694.2167, 5221.858
696.1452, 5214.214
698.0737, 5215.470
700.0021, 5203.960
701.9306, 5174.628
703.8591, 5145.405
705.7875, 5123.192
707.7160, 5091.458
709.6445, 5041.762
711.5729, 4988.469
713.5014, 4939.871
715.4299, 4884.735
717.3583, 4819.400
719.2868, 4745.282
721.2153, 4657.331
723.1437, 4566.016
725.0722, 4483.153
727.0007, 4405.837
728.9291, 4333.137
730.8576, 4261.370
732.7861, 4174.955
734.7145, 4080.464
736.6430, 4006.315
738.5715, 3948.396
740.4999, 3883.603
742.4284, 3811.163
744.3569, 3743.439
746.2853, 3683.256
748.2138, 3632.860
750.1423, 3591.969
752.0707, 3549.874
753.9992, 3503.835
755.9277, 3462.922
757.8561, 3430.618
759.7845, 3407.667
761.7130, 3396.661
763.6415, 3373.363
765.5699, 3330.804
767.4984, 3288.799
769.4269, 3253.605
771.3553, 3223.233
773.2838, 3192.230
775.2123, 3163.208
777.1407, 3144.749
779.0692, 3126.441
780.9977, 3099.214
782.9261, 3072.842
784.8546, 3049.345
786.7831, 3020.679
788.7115, 2985.578
790.6400, 2953.003
792.5685, 2937.807
794.4969, 2931.683
796.4254, 2906.715
798.3539, 2869.016
800.2823, 2839.902
802.2108, 2816.202
804.1393, 2788.864
806.0677, 2758.782
807.9962, 2739.919
809.9247, 2729.774
811.8531, 2710.024
813.7816, 2684.599
815.7101, 2663.221
817.6385, 2647.638
819.5670, 2632.576
821.4955, 2611.323
823.4240, 2593.914
825.3524, 2585.213
827.2809, 2580.185
829.2094, 2584.989
831.1378, 2591.059
833.0663, 2581.808
834.9948, 2563.817
836.9232, 2548.967
838.8517, 2548.223
840.7802, 2565.570
842.7086, 2579.808
844.6371, 2584.755
846.5656, 2583.901
848.4940, 2572.294
850.4225, 2568.874
852.3510, 2575.686
854.2794, 2586.629
856.2079, 2611.410
858.1364, 2633.412
860.0648, 2642.973
861.9933, 2663.626
863.9218, 2700.232
865.8502, 2731.400
867.7787, 2742.873
869.7072, 2757.085
871.6356, 2800.799
873.5641, 2856.109
875.4926, 2900.923
877.4210, 2939.377
879.3495, 2990.846
881.2780, 3058.562
883.2064, 3101.766
885.1349, 3123.988
887.0634, 3181.781
888.9918, 3258.990
890.9203, 3325.584
892.8488, 3390.709
894.7772, 3439.915
896.7057, 3486.897
898.6342, 3545.885
900.5626, 3597.814
902.4911, 3661.222
904.4196, 3745.032
906.3480, 3820.764
908.2765, 3886.351
910.2050, 3947.379
912.1334, 3999.085
914.0619, 4045.121
915.9904, 4081.036
917.9188, 4119.392
919.8473, 4166.198
921.7758, 4187.615
923.7042, 4187.992
925.6327, 4190.447
927.5612, 4184.487
929.4896, 4163.425
931.4181, 4138.522
933.3466, 4117.137
935.2750, 4086.388
937.2035, 4038.273
939.1320, 3975.255
941.0604, 3898.654
942.9889, 3816.703
944.9174, 3737.172
946.8458, 3664.108
948.7743, 3592.580
950.7028, 3513.168
952.6312, 3428.879
954.5597, 3346.633
956.4882, 3262.281
958.4166, 3167.383
960.3451, 3076.364
962.2736, 3003.896
964.2020, 2944.503
966.1305, 2899.786
968.0590, 2867.352
969.9874, 2818.224
971.9159, 2744.002
973.8444, 2685.895
975.7728, 2661.369
977.7013, 2633.716
979.6298, 2593.221
981.5582, 2576.532
983.4867, 2571.976
985.4152, 2541.021
987.3436, 2513.780
989.2721, 2519.760
991.2006, 2519.512
993.1290, 2494.586
995.0575, 2479.905
996.9860, 2493.376
998.9144, 2502.830
1000.843, 2484.622
1002.771, 2468.501
1004.700, 2474.552
1006.628, 2490.273
1008.557, 2496.822
1010.485, 2490.779
1012.414, 2494.876
1014.342, 2509.293
1016.271, 2514.159
1018.199, 2505.062
1020.128, 2485.361
1022.056, 2474.684
1023.984, 2488.690
1025.913, 2496.596
1027.841, 2474.727
1029.770, 2452.928
1031.698, 2452.172
1033.627, 2452.311
1035.555, 2436.135
1037.484, 2409.504
1039.412, 2385.213
1041.341, 2369.735
1043.269, 2349.200
1045.198, 2329.713
1047.126, 2327.411
1049.055, 2331.043
1050.983, 2334.019
1052.911, 2325.991
1054.840, 2305.491
1056.768, 2293.200
1058.697, 2293.653
1060.625, 2279.226
1062.554, 2237.424
1064.482, 2209.984
1066.411, 2210.687
1068.339, 2214.784
1070.268, 2217.448
1072.196, 2214.317
1074.125, 2202.901
1076.053, 2193.239
1077.982, 2189.118
1079.910, 2189.979
1081.839, 2194.747
1083.767, 2181.894
1085.695, 2151.402
1087.624, 2132.116
1089.552, 2123.353
1091.481, 2122.386
1093.409, 2127.629
1095.338, 2117.198
1097.266, 2095.883
1099.195, 2082.300
1101.123, 2072.854
1103.052, 2064.633
1104.980, 2057.256
1106.909, 2046.438
1108.837, 2033.282
1110.766, 2020.027
1112.694, 2007.649
1114.622, 1993.253
1116.551, 1981.284
1118.479, 1980.659
1120.408, 1980.793
1122.336, 1974.330
1124.265, 1964.830
1126.193, 1947.713
1128.122, 1936.812
1130.050, 1945.036
1131.979, 1954.316
1133.907, 1958.557
1135.836, 1957.387
1137.764, 1948.977
1139.693, 1938.614
1141.621, 1925.313
1143.549, 1917.248
1145.478, 1917.896
1147.406, 1917.338
1149.335, 1913.455
1151.263, 1909.686
1153.192, 1904.091
1155.120, 1918.634
1157.049, 1956.120
1158.977, 1959.818
1160.906, 1933.828
1162.834, 1914.110
1164.763, 1899.563
1166.691, 1896.215
1168.620, 1898.318
1170.548, 1887.529
1172.476, 1875.904
1174.405, 1888.940
1176.333, 1910.607
1178.262, 1920.590
1180.190, 1923.365
1182.119, 1919.490
1184.047, 1916.273
1185.976, 1924.260
1187.904, 1928.699
1189.833, 1915.176
1191.761, 1907.276
1193.690, 1919.870
1195.618, 1930.127
1197.547, 1927.859
1199.475, 1922.727
1201.403, 1918.382
1203.332, 1919.831
1205.260, 1928.984
1207.189, 1923.256
1209.117, 1899.508
1211.046, 1895.680
1212.974, 1911.669
1214.903, 1922.227
1216.831, 1926.159
1218.760, 1920.253
1220.688, 1911.790
1222.617, 1908.106
1224.545, 1904.479
1226.474, 1903.523
1228.402, 1904.072
1230.330, 1899.355
1232.259, 1895.520
1234.187, 1897.036
1236.116, 1902.788
1238.044, 1918.109
1239.973, 1924.567
1241.901, 1915.746
1243.830, 1903.506
1245.758, 1885.695
1247.687, 1875.559
1249.615, 1878.831
1251.544, 1879.773
1253.472, 1875.650
1255.401, 1877.506
1257.329, 1885.291
1259.257, 1894.390
1261.186, 1897.765
1263.114, 1883.282
1265.043, 1866.995
1266.971, 1863.693
1268.900, 1863.609
1270.828, 1859.002
1272.757, 1854.286
1274.685, 1858.470
1276.614, 1859.687
1278.542, 1845.506
1280.471, 1832.174
1282.399, 1829.743
1284.328, 1827.476
1286.256, 1822.707
1288.184, 1818.369
1290.113, 1811.186
1292.041, 1815.250
1293.970, 1828.557
1295.898, 1826.572
1297.827, 1818.437
1299.755, 1826.251
1301.684, 1833.303
1303.612, 1814.475
1305.541, 1798.578
1307.469, 1813.855
1309.398, 1827.410
1311.326, 1825.221
1313.255, 1810.500
1315.183, 1770.396
1317.111, 1754.276
1319.040, 1773.015
1320.968, 1785.304
1322.897, 1792.396
1324.825, 1783.434
1326.754, 1764.035
1328.682, 1769.472
1330.611, 1784.109
1332.539, 1774.128
1334.468, 1756.014
1336.396, 1740.659
1338.325, 1735.591
1340.253, 1752.353
1342.182, 1760.764
1344.110, 1745.710
1346.038, 1739.403
1347.967, 1751.993
1349.895, 1750.008
1351.824, 1730.447
1353.752, 1724.657
1355.681, 1729.937
1357.609, 1733.328
1359.538, 1736.172
1361.466, 1744.331
1363.395, 1748.123
1365.323, 1730.316
1367.252, 1717.274
1369.180, 1722.958
1371.109, 1732.051
1373.037, 1742.546
1374.965, 1743.399
1376.894, 1731.223
1378.822, 1734.792
1380.751, 1752.523
1382.679, 1746.095
1384.608, 1726.584
1386.536, 1722.238
1388.465, 1727.403
1390.393, 1742.284
1392.322, 1751.214
1394.250, 1741.445
1396.179, 1727.863
1398.107, 1712.310
1400.036, 1702.450
1401.964, 1699.891
1403.892, 1699.268
1405.821, 1700.350
1407.749, 1708.843
1409.678, 1718.341
1411.606, 1704.813
1413.535, 1691.506
1415.463, 1717.428
1417.392, 1739.827
1419.320, 1725.758
1421.249, 1712.229
1423.177, 1708.374
1425.106, 1701.966
1427.034, 1691.540
1428.963, 1703.315
1430.891, 1731.026
1432.819, 1739.526
1434.748, 1733.615
1436.676, 1711.509
1438.605, 1694.646
1440.533, 1714.244
1442.462, 1726.088
1444.390, 1698.362
1446.319, 1684.518
1448.247, 1693.585
1450.176, 1705.290
1452.104, 1716.321
1454.033, 1698.689
1455.961, 1671.368
1457.890, 1687.585
1459.818, 1710.100
1461.746, 1693.950
1463.675, 1679.354
1465.603, 1692.138
1467.532, 1702.866
1469.460, 1708.422
1471.389, 1700.110
1473.317, 1678.424
1475.246, 1671.990
1477.174, 1675.979
1479.103, 1679.979
1481.031, 1681.459
1482.960, 1674.766
1484.888, 1670.188
1486.817, 1678.160
1488.745, 1677.688
1490.673, 1657.080
1492.602, 1652.376
1494.530, 1662.426
1496.459, 1657.874
1498.387, 1648.255
1500.316, 1661.273
1502.244, 1671.875
1504.173, 1657.438
1506.101, 1640.526
1508.030, 1629.873
1509.958, 1618.236
1511.886, 1603.002
1513.815, 1598.617
1515.743, 1602.806
1517.672, 1603.447
1519.600, 1604.823
1521.529, 1617.446
1523.457, 1626.438
1525.386, 1622.839
1527.314, 1618.052
1529.243, 1615.656
1531.171, 1606.906
1533.100, 1591.611
1535.028, 1572.493
1536.957, 1556.654
1538.885, 1564.112
1540.813, 1575.937
1542.742, 1580.266
1544.670, 1577.722
1546.599, 1568.529
1548.527, 1548.520
1550.456, 1518.387
1552.384, 1504.744
1554.313, 1507.121
1556.241, 1535.646
1558.170, 1561.954
1560.098, 1556.572
1562.027, 1540.493
1563.955, 1517.510
1565.884, 1498.825
1567.812, 1485.955
1569.740, 1477.130
1571.669, 1474.147
1573.597, 1487.861
1575.526, 1502.441
1577.454, 1502.596
1579.383, 1495.547
1581.311, 1480.823
1583.240, 1473.221
1585.168, 1473.750
1587.097, 1474.614
1589.025, 1472.061
1590.954, 1449.119
1592.882, 1432.828
1594.811, 1463.200
1596.739, 1477.593
1598.667, 1448.419
1600.596, 1439.408
1602.524, 1452.134
1604.453, 1453.809
1606.381, 1450.063
1608.310, 1453.614
1610.238, 1457.761
1612.167, 1460.317
1614.095, 1456.139
1616.024, 1443.152
1617.952, 1425.733
1619.881, 1407.441
1621.809, 1413.161
1623.738, 1424.871
1625.666, 1416.015
1627.594, 1409.636
1629.523, 1421.894
1631.451, 1429.660
1633.380, 1430.682
1635.308, 1424.282
1637.237, 1415.424
1639.165, 1426.845
1641.094, 1431.732
1643.022, 1400.338
1644.951, 1375.982
1646.879, 1371.376
1648.808, 1385.133
1650.736, 1412.012
1652.665, 1404.736
1654.593, 1384.165
1656.521, 1371.829
1658.450, 1372.360
1660.378, 1395.332
1662.307, 1400.558
1664.235, 1381.561
1666.164, 1382.805
1668.092, 1394.370
1670.021, 1395.888
1671.949, 1393.211
1673.878, 1389.435
1675.806, 1382.907
1677.735, 1372.356
1679.663, 1376.687
1681.592, 1390.158
1683.520, 1394.465
1685.448, 1392.933
1687.377, 1386.818
1689.305, 1379.373
1691.234, 1370.572
1693.162, 1373.200
1695.091, 1384.532
1697.019, 1390.543
1698.948, 1391.223
1700.876, 1382.451
1702.805, 1377.663
1704.733, 1382.378
1706.662, 1369.509
1708.590, 1342.715
1710.519, 1338.866
1712.447, 1344.971
1714.375, 1352.470
1716.304, 1346.286
1718.232, 1317.489
1720.161, 1310.786
1722.089, 1323.393
1724.018, 1313.084
1725.946, 1296.768
1727.875, 1292.457
1729.803, 1299.293
1731.732, 1320.332
1733.660, 1333.635
1735.589, 1337.246
1737.517, 1328.293
1739.446, 1313.080
1741.374, 1293.641
1743.302, 1280.080
1745.231, 1275.463
1747.159, 1281.383
1749.088, 1293.594
1751.016, 1291.001
1752.945, 1282.669
1754.873, 1273.586
1756.802, 1270.415
1758.730, 1277.592
1760.659, 1280.579
1762.587, 1277.625
1764.516, 1254.741
1766.444, 1236.229
1768.373, 1251.247
1770.301, 1253.576
1772.229, 1227.179
1774.158, 1231.089
1776.086, 1251.659
1778.015, 1261.168
1779.943, 1253.891
1781.872, 1211.422
1783.800, 1198.123
1785.729, 1222.522
1787.657, 1232.600
1789.586, 1231.132
1791.514, 1217.987
1793.443, 1205.460
1795.371, 1196.784
1797.300, 1201.397
1799.228, 1215.532
1801.156, 1214.028
1803.085, 1206.036
1805.013, 1195.612
1806.942, 1197.946
1808.870, 1218.902
1810.799, 1225.583
1812.727, 1217.872
1814.656, 1185.161
1816.584, 1162.776
1818.513, 1171.354
1820.441, 1179.628
1822.370, 1182.075
1824.298, 1171.176
1826.227, 1158.815
1828.155, 1165.221
1830.083, 1164.586
1832.012, 1149.750
1833.940, 1147.403
1835.869, 1155.341
1837.797, 1166.279
1839.726, 1171.344
1841.654, 1163.358
1843.583, 1157.943
1845.511, 1156.242
1847.440, 1150.392
1849.368, 1143.197
1851.297, 1139.198
1853.225, 1133.587
1855.154, 1124.498
1857.082, 1121.774
1859.010, 1121.780
1860.939, 1107.349
1862.867, 1096.550
1864.796, 1105.372
1866.724, 1108.702
1868.653, 1106.185
1870.581, 1111.135
1872.510, 1114.510
1874.438, 1099.712
1876.367, 1089.910
1878.295, 1091.837
1880.224, 1090.438
1882.152, 1088.469
1884.081, 1093.778
1886.009, 1095.522
1887.938, 1088.685
1889.866, 1080.751
1891.794, 1075.865
1893.723, 1085.241
1895.651, 1090.561
1897.580, 1081.467
1899.508, 1075.498
1901.437, 1070.790
1903.365, 1060.244
1905.294, 1049.406
1907.222, 1034.639
1909.151, 1039.019
1911.079, 1065.839
1913.008, 1054.527
1914.936, 1034.402
1916.865, 1036.257
1918.793, 1043.323
1920.721, 1054.800
1922.650, 1039.123
1924.578, 1014.271
1926.507, 1009.850
1928.435, 1019.219
1930.364, 1043.509
1932.292, 1048.504
1934.221, 1040.502
1936.149, 1034.521
1938.078, 1028.753
1940.006, 1021.938
1941.935, 1011.525
1943.863, 1001.128
1945.792, 1003.423
1947.720, 1008.481
1949.648, 1011.541
1951.577, 1007.836
1953.505, 998.8824
1955.434, 995.1437
1957.362, 991.7009
1959.291, 984.7166
1961.219, 994.7067
1963.148, 1012.849
1965.076, 998.6827
1967.005, 977.5796
1968.933, 963.1849
1970.862, 964.2164
1972.790, 975.3201
1974.719, 968.0065
1976.647, 957.6401
1978.575, 959.0419
1980.504, 956.3840
1982.432, 952.2485
1984.361, 957.9556
1986.289, 959.2949
1988.218, 948.3557
1990.146, 932.8516
1992.075, 916.9659
1994.003, 929.9336
1995.932, 940.5188
1997.860, 919.5277
1999.789, 909.1846
2001.717, 908.8604
2003.646, 907.7958
2005.574, 904.2363
2007.502, 893.0015
2009.431, 889.8862
2011.359, 893.8076
2013.288, 894.5707
2015.216, 891.5446
2017.145, 883.5478
2019.073, 875.8608
2021.002, 868.6876
2022.930, 857.5024
2024.859, 853.3080
2026.787, 860.9630
2028.716, 878.4680
2030.644, 894.5468
2032.573, 874.2535
2034.501, 851.7419
2036.429, 837.8802
2038.358, 819.8751
2040.286, 806.0470
2042.215, 817.7753
2044.143, 826.9407
2046.072, 826.3004
2048.000, 823.4050
2049.929, 823.7531
2051.857, 841.9167
2053.786, 836.8298
2055.714, 804.3918
2057.643, 804.3615
2059.571, 810.2452
2061.500, 793.9374
2063.428, 787.5895
2065.356, 793.7105
2067.285, 801.4822
2069.213, 808.6475
2071.142, 816.9652
2073.070, 799.0287
2074.999, 768.2417
2076.927, 777.7789
2078.856, 781.8865
2080.784, 761.4843
2082.713, 751.4608
2084.641, 751.6918
2086.570, 765.6478
2088.498, 766.6909
2090.427, 751.0464
2092.355, 751.7895
2094.283, 759.1037
2096.212, 762.8581
2098.140, 771.5837
2100.069, 782.2440
2101.997, 769.6898
2103.926, 756.8746
2105.854, 762.9109
2107.783, 763.5843
2109.711, 760.3750
2111.640, 763.0208
2113.568, 760.5426
2115.497, 747.8159
2117.425, 738.8947
2119.354, 736.7584
2121.282, 746.0317
2123.210, 755.1490
2125.139, 760.9282
2127.067, 735.3151
2128.996, 717.0945
2130.924, 736.7164
2132.853, 747.7662
2134.781, 749.5499
2136.710, 745.1760
2138.638, 745.7166
2140.567, 756.8267
2142.495, 760.4916
2144.424, 753.9019
2146.352, 735.0209
2148.281, 718.8500
2150.209, 707.7966
2152.137, 708.6094
2154.066, 715.2733
2155.994, 726.5013
2157.923, 721.2775
2159.851, 709.1531
2161.780, 709.8203
2163.708, 705.4348
2165.637, 696.9600
2167.565, 716.7366
2169.494, 723.9903
2171.422, 694.3755
2173.351, 699.7523
2175.279, 722.2912
2177.208, 711.6494
2179.136, 695.0373
2181.064, 684.7486
2182.993, 686.3331
2184.921, 689.3814
2186.850, 685.8958
2188.778, 686.6044
2190.707, 684.3632
2192.635, 687.3856
2194.564, 686.9737
2196.492, 671.1951
2198.421, 657.5889
2200.349, 653.2354
2202.278, 657.5984
2204.206, 657.1346
2206.135, 660.8773
2208.063, 656.0478
2209.991, 643.0089
2211.920, 631.1617
2213.848, 632.7448
2215.777, 638.1142
2217.705, 639.6860
2219.634, 623.7990
2221.562, 611.3577
2223.491, 627.8768
2225.419, 636.4977
2227.348, 637.9118
2229.276, 628.6481
2231.205, 622.5357
2233.133, 640.6635
2235.062, 637.2891
2236.990, 618.5057
2238.918, 607.1315
2240.847, 608.0723
2242.775, 614.1889
2244.704, 598.8169
2246.632, 591.3863
2248.561, 609.2775
2250.489, 608.9717
2252.418, 601.2951
2254.346, 603.9391
2256.275, 606.6453
2258.203, 603.7133
2260.132, 595.5256
2262.060, 587.2495
2263.989, 576.5898
2265.917, 578.9535
2267.845, 576.9903
2269.774, 567.1229
2271.702, 576.3794
2273.631, 590.1535
2275.559, 578.6588
2277.488, 572.7916
2279.416, 570.7715
2281.345, 549.8007
2283.273, 539.8624
2285.202, 543.6946
2287.130, 550.4991
2289.059, 551.1269
2290.987, 548.2242
2292.916, 554.6884
2294.844, 552.9085
2296.772, 544.7628
2298.701, 543.6836
2300.629, 548.5478
2302.558, 550.5422
2304.486, 546.9722
2306.415, 541.8339
2308.343, 533.9764
2310.272, 526.0780
2312.200, 534.1263
2314.129, 535.8275
2316.057, 532.9462
2317.986, 528.4036
2319.914, 530.1973
2321.843, 536.4844
2323.771, 527.6080
2325.699, 522.3823
2327.628, 517.8311
2329.556, 505.3502
2331.485, 497.7466
2333.413, 505.2081
2335.342, 514.3228
2337.270, 513.0289
2339.199, 501.7233
2341.127, 503.1910
2343.056, 504.2209
2344.984, 505.9192
2346.913, 500.6039
2348.841, 488.6284
2350.770, 511.7262
2352.698, 510.7435
2354.626, 475.8292
2356.555, 478.3000
2358.483, 489.2383
2360.412, 488.2695
2362.340, 495.2685
2364.269, 498.2487
2366.197, 490.1926
2368.126, 483.6884
2370.054, 474.9584
2371.983, 481.3179
2373.911, 488.5256
2375.840, 479.7548
2377.768, 477.2141
2379.697, 468.8701
2381.625, 455.1112
2383.553, 470.0028
2385.482, 474.0402
2387.410, 462.6367
2389.339, 457.5001
2391.267, 456.4485
2393.196, 462.0153
2395.124, 465.2145
2397.053, 459.9721
2398.981, 443.1273
2400.910, 446.2549
2402.838, 450.9812
2404.767, 449.9411
2406.695, 448.4210
2408.624, 442.8739
2410.552, 438.9575
2412.480, 433.9648
2414.409, 433.3588
2416.337, 430.5068
2418.266, 427.0631
2420.194, 430.4015
2422.123, 429.1974
2424.051, 427.7888
2425.980, 426.7901
2427.908, 428.6807
2429.837, 429.3332
2431.765, 422.8320
2433.694, 427.6272
2435.622, 422.4035
2437.551, 405.6726
2439.479, 409.9510
2441.407, 413.2329
2443.336, 411.1190
2445.264, 416.1133
2447.193, 412.2170
2449.121, 407.7652
2451.050, 407.4499
2452.978, 403.8100
2454.907, 407.5334
2456.835, 404.5957
2458.764, 397.6978
2460.692, 399.7858
2462.621, 395.0096
2464.549, 386.1217
2466.478, 389.8495
2468.406, 384.7343
2470.334, 378.1497
2472.263, 379.0965
2474.191, 383.0341
2476.120, 385.5975
2478.048, 371.2321
2479.977, 365.9153
2481.905, 367.5291
2483.834, 356.1702
2485.762, 348.4106
2487.691, 344.7694
2489.619, 345.8433
2491.548, 348.3352
2493.476, 351.7184
2495.405, 361.8597
2497.333, 359.0530
2499.261, 348.5724
2501.190, 342.8854
2503.118, 348.7998
2505.047, 363.2629
2506.975, 346.5330
2508.904, 330.0025
2510.832, 322.3873
2512.761, 328.2026
2514.689, 329.3732
2516.618, 321.9228
2518.546, 323.1598
2520.475, 329.3970
2522.403, 336.7848
2524.332, 324.9499
2526.260, 322.5469
2528.188, 334.8908
2530.117, 325.2685
2532.045, 316.7774
2533.974, 316.6645
2535.902, 321.7042
2537.831, 321.2245
2539.759, 312.7608
2541.688, 312.3074
2543.616, 309.2531
2545.545, 304.2212
2547.473, 312.4031
2549.402, 312.3393
2551.330, 303.0370
2553.259, 312.4037
2555.187, 318.9672
2557.115, 319.4792
2559.044, 320.8762
2560.972, 310.1169
2562.901, 292.8216
2564.829, 292.2421
2566.758, 294.1872
2568.686, 294.8629
2570.615, 290.3546
2572.543, 291.6008
2574.472, 294.2573
2576.400, 288.5950
2578.329, 293.2876
2580.257, 300.8621
2582.186, 289.8437
2584.114, 285.8130
2586.042, 284.4692
2587.971, 277.6385
2589.899, 278.4164
2591.828, 283.1228
2593.756, 277.2053
2595.685, 277.6475
2597.613, 281.1281
2599.542, 289.0118
2601.470, 280.3890
2603.399, 268.2763
2605.327, 285.7921
2607.256, 294.3154
2609.184, 290.2306
2611.113, 275.8605
2613.041, 270.7675
2614.969, 271.9995
2616.898, 270.6707
2618.826, 272.3310
2620.755, 278.7116
2622.683, 273.3138
2624.612, 257.2708
2626.540, 256.1808
2628.469, 259.2405
2630.397, 264.2644
2632.326, 270.9043
2634.254, 269.0713
2636.183, 261.2801
2638.111, 253.8396
2640.040, 246.9421
2641.968, 256.4596
2643.896, 263.9642
2645.825, 252.7066
2647.753, 257.7867
2649.682, 261.2675
2651.610, 252.9190
2653.539, 248.5695
2655.467, 253.5055
2657.396, 257.5965
2659.324, 242.5106
2661.253, 231.4088
2663.181, 230.3032
2665.110, 229.6831
2667.038, 232.9473
2668.967, 237.4799
2670.895, 227.2565
2672.823, 226.0363
2674.752, 225.5383
2676.680, 229.1786
2678.609, 225.4332
2680.537, 222.7435
2682.466, 226.9585
2684.394, 222.6329
2686.323, 212.1629
2688.251, 212.6948
2690.180, 227.9241
2692.108, 228.5078
2694.037, 225.3414
2695.965, 213.4634
2697.894, 214.9744
2699.822, 219.2647
2701.750, 226.5820
2703.679, 213.4263
2705.607, 197.1041
2707.536, 201.9022
2709.464, 205.9666
2711.393, 208.0827
2713.321, 205.7546
2715.250, 204.4235
2717.178, 199.3871
2719.107, 198.3244
2721.035, 182.4288
2722.964, 186.0399
2724.892, 193.9491
2726.821, 186.1360
2728.749, 191.7750
2730.677, 196.2867
2732.606, 197.9643
2734.534, 200.5131
2736.463, 183.8223
2738.391, 176.9628
2740.320, 182.0724
2742.248, 188.2679
2744.177, 194.4489
2746.105, 186.4897
2748.034, 185.3206
2749.962, 176.3418
2751.891, 176.6898
2753.819, 213.0595
2755.748, 207.0201
2757.676, 184.6537
2759.604, 164.3932
2761.533, 161.1184
2763.461, 165.0594
2765.390, 172.8108
2767.318, 179.0488
2769.247, 189.2819
2771.175, 177.8626
2773.104, 160.8231
2775.032, 168.8417
2776.961, 179.9980
2778.889, 170.1624
2780.818, 156.6764
2782.746, 147.1596
2784.675, 151.9767
2786.603, 155.4126
2788.531, 154.5947
2790.460, 155.9506
2792.388, 158.9102
2794.317, 144.6272
2796.245, 141.7575
2798.174, 148.4865
2800.102, 140.3059
2802.031, 147.8301
2803.959, 154.4977
2805.888, 150.0070
2807.816, 141.6682
2809.745, 145.1030
2811.673, 151.3876
2813.602, 148.8549
2815.530, 144.5548
2817.458, 143.3995
2819.387, 137.5687
2821.315, 133.6888
2823.244, 130.5718
2825.172, 133.5789
2827.101, 143.8511
2829.029, 138.6651
2830.958, 131.6993
2832.886, 136.4896
2834.815, 139.6832
2836.743, 142.8233
2838.672, 135.1844
2840.600, 130.0624
2842.529, 133.5270
2844.457, 136.5011
2846.385, 129.6109
2848.314, 125.0029
2850.242, 122.4800
2852.171, 124.0156
2854.099, 128.9990
2856.028, 134.3718
2857.956, 134.0302
2859.885, 130.2279
2861.813, 126.8983
2863.742, 124.5960
2865.670, 130.6094
2867.599, 133.4244
2869.527, 134.1515
2871.456, 129.0024
2873.384, 114.3255
2875.313, 116.3387
2877.241, 126.4047
2879.169, 113.7809
2881.098, 118.1993
2883.026, 120.0424
2884.955, 110.3937
2886.883, 114.4495
2888.812, 103.7333
2890.740, 88.64267
2892.669, 98.93229
2894.597, 113.8731
2896.526, 118.7827
2898.454, 112.5472
2900.383, 109.3121
2902.311, 109.1090
2904.240, 108.9139
2906.168, 104.4669
2908.096, 98.90298
2910.025, 97.65337
2911.953, 101.3096
2913.882, 105.5677
2915.810, 111.6211
2917.739, 109.2503
2919.667, 90.46214
2921.596, 91.45539
2923.524, 99.40199
2925.453, 104.4255
2927.381, 90.42602
2929.310, 89.73794
2931.238, 94.53802
2933.167, 95.43226
2935.095, 85.36040
2937.023, 81.49708
2938.952, 84.16640
2940.880, 85.51028
2942.809, 84.66883
2944.737, 80.65030
2946.666, 76.04573
2948.594, 87.40826
2950.523, 84.24596
2952.451, 74.02542
2954.380, 73.13631
2956.308, 80.30933
2958.237, 80.36297
2960.165, 73.76984
2962.094, 76.64835
2964.022, 83.06963
2965.950, 83.60189
2967.879, 72.50899
2969.807, 73.11635
2971.736, 65.76608
2973.664, 60.83725
2975.593, 80.97943
2977.521, 79.07826
2979.450, 72.00552
2981.378, 66.87187
2983.306, 60.43944
2985.235, 63.07537
2987.163, 65.88065
2989.092, 70.86674
2991.020, 70.88246
2992.949, 66.76646
2994.877, 60.24627
2996.806, 49.65592
2998.734, 59.30359
3000.663, 64.93177
3002.591, 62.33961
3004.520, 60.65281
3006.448, 59.44877
3008.376, 61.75583
3010.305, 64.65544
3012.233, 63.82701
3014.162, 60.71420
3016.090, 60.81656
3018.019, 55.22631
3019.947, 56.57479
3021.876, 55.76411
3023.804, 50.47644
3025.733, 41.92828
3027.661, 48.15388
3029.590, 53.52847
3031.518, 48.33684
3033.447, 45.62571
3035.375, 52.98138
3037.303, 53.25377
3039.232, 53.64850
3041.160, 57.36441
3043.089, 56.16884
3045.017, 50.83988
3046.946, 51.11728
3048.874, 52.79529
3050.803, 45.01010
3052.731, 40.90515
3054.660, 52.48388
3056.588, 49.86711
3058.517, 45.67670
3060.445, 47.37207
3062.374, 49.80911
3064.302, 54.51848
3066.230, 53.71637
3068.159, 44.59413
3070.087, 44.15330
3072.016, 46.63559
3073.944, 47.33194
3075.873, 45.94583
3077.801, 44.54126
3079.730, 42.82755
3081.658, 40.52001
3083.587, 53.01734
3085.515, 42.26385
3087.444, 38.96750
3089.372, 34.05161
3091.301, 39.98055
3093.229, 57.20168
3095.157, 52.38960
3097.086, 45.02707
3099.014, 45.90813
3100.943, 51.31397
3102.871, 45.96719
3104.800, 39.32157
3106.728, 34.11302
3108.657, 37.74841
3110.585, 41.19777
3112.514, 35.56402
3114.442, 38.68426
3116.371, 40.22702
3118.299, 32.60061
3120.228, 27.37446
3122.156, 30.67828
3124.084, 29.88817
3126.013, 26.61828
3127.941, 22.62204
3129.870, 34.65103
3131.798, 34.37260
3133.727, 33.16949
3135.655, 34.92708
3137.584, 14.75993
3139.512, 21.61359
3141.441, 23.54737
3143.369, 17.18753
3145.298, 22.31763
3147.226, 25.85454
3149.155, 30.85410
3151.083, 28.99742
3153.011, 27.23228
3154.940, 34.79234
3156.868, 32.63756
3158.797, 22.61750
3160.725, 22.33237
3162.654, 23.50507
3164.582, 16.93370
3166.511, 19.71567
3168.439, 34.97063
3170.368, 21.62780
3172.296, 20.41870
3174.225, 26.06761
3176.153, 21.79768
3178.082, 21.58608
3180.010, 21.91009
3181.938, 22.50820
3183.867, 23.20045
3185.795, 29.92575
3187.724, 30.62452
3189.652, 20.80760
3191.581, 10.69232
3193.509, 29.73997
3195.438, 26.12703
3197.366, 21.67629
3199.295, 25.71104
3201.223, 13.38425
3203.152, 18.94712
3205.080, 18.69227
3207.009, 12.50799
3208.937, 17.57185
3210.865, 16.90189
3212.794, 9.609329
3214.722, 10.19120
3216.651, 20.71578
3218.579, 17.61555
3220.508, 27.73906
3222.436, 31.47942
3224.365, 14.25643
3226.293, 18.58757
3228.222, 10.57730
3230.150, 5.969759
3232.079, 12.75513
3234.007, 9.835511
3235.936, 15.56912
3237.864, 19.36235
3239.792, 16.92957
3241.721, 10.65571
3243.649, 28.83182
3245.578, 27.20888
3247.506, 11.57596
3249.435, 5.786170
3251.363, 3.043698
3253.292, 18.49007
3255.220, 23.85987
3257.149, 13.89473
3259.077, 17.56427
3261.006, 10.06118
3262.934, 9.778088
3264.863, 16.45914
3266.791, 15.01687
3268.719, 16.78344
3270.648, 22.92384
3272.576, 23.09036
3274.505, 16.23579
3276.433, 13.70485
3278.362, 16.95511
3280.290, 13.72325
3282.219, 5.391467
3284.147, 5.103130
3286.076, 6.768305
3288.004, 0.7129506
3289.933, 6.684156
3291.861, 36.62641
3293.790, 2.330356
3295.718, 13.98812
3297.646, 15.36159
3299.575, -5.099840
3301.503, 0.1699189
3303.432, 2.566162
3305.360, 14.06035
3307.289, 16.51487
3309.217, -2.292568
3311.146, 9.112068
3313.074, 8.480791
3315.003, -1.167272
3316.931, -6.859863
3318.860, 3.840504
3320.788, 6.788937
3322.717, 4.731117
3324.645, 2.035396
3326.573, 3.721869
3328.502, 21.19237
3330.430, 27.20999
3332.359, 23.26960
3334.287, 17.55993
3336.216, 18.43131
3338.144, 25.96570
3340.073, 21.84870
3342.001, 13.62717
3343.930, 8.151725
3345.858, 3.949173
3347.787, 10.98350
3349.715, 11.21564
3351.644, 8.737007
3353.572, 10.77085
3355.500, 11.62384
3357.429, 13.14876
3359.357, 14.60024
3361.286, 17.37648
3363.214, 22.47623
3365.143, 6.467159
3367.071, -3.754511
3369.000, 5.189994
3370.928, 20.25508
3372.857, -3.244593
3374.785, 12.48586
3376.714, 10.83253
3378.642, 6.070084
3380.571, 12.43981
3382.499, 16.72979
3384.427, 3.810653
3386.356, 5.252778
3388.284, 18.70849
3390.213, 29.02330
3392.141, 14.14055
3394.070, 3.873837
3395.998, -1.447759
3397.927, -0.3346573
3399.855, 6.636065
3401.784, 4.637682
3403.712, 14.12975
3405.641, 3.722241
3407.569, -3.459286
3409.498, 24.63188
3411.426, 10.35079
3413.354, -6.092660
3415.283, -1.487977
3417.211, 8.875435
3419.140, 2.065992
3421.068, 9.455603
3422.997, 5.752351
3424.925, 5.824862
3426.854, 11.01921
3428.782, 12.75578
3430.711, 6.515819
3432.639, 8.524183
3434.568, 10.75097
3436.496, 7.712240
3438.425, 0.4966081
3440.353, 4.769895
3442.281, 2.083128
3444.210, 0.1697298
3446.138, 2.721311
3448.067, 7.180115
3449.995, 0.4314062
3451.924, 7.487200
3453.852, 9.004304
3455.781, 2.220235
3457.709, -5.087428
3459.638, -0.7113548
3461.566, -4.547604
3463.495, 5.418012
3465.423, 12.31099
3467.352, 0.8302751
3469.280, -1.998704
3471.208, -11.59955
3473.137, -13.27036
3475.065, -7.487886
3476.994, 1.873033
3478.922, 14.10220
3480.851, 6.031940
3482.779, -7.469940
3484.708, -17.10614
3486.636, -11.78155
3488.565, 16.94812
3490.493, -4.453046
3492.422, -6.197883
3494.350, -6.117249
3496.279, -8.247243
3498.207, -3.941747
3500.135, -8.610846
3502.064, -5.915383
3503.992, -1.314292
3505.921, -4.807772
3507.849, -16.02935
3509.778, -17.30241
3511.706, -13.30087
3513.635, 9.243158
3515.563, 13.77373
3517.492, 4.883715
3519.420, 15.91041
3521.349, -19.50557
3523.277, -11.57516
3525.206, -0.7476671
3527.134, -1.011330
3529.063, -3.732346
3530.991, 1.458487
3532.919, -2.825249
3534.848, 0.2725391
3536.776, 3.304767
3538.705, 1.828052
3540.633, 0.3686120
3542.562, -2.698333
3544.490, -6.239677
3546.419, 0.8108255
3548.347, 0.7983788
3550.276, -10.84804
3552.204, 16.98572
3554.133, -3.433097
3556.061, -10.25171
3557.990, 2.730365
3559.918, 10.77463
3561.846, -6.070941
3563.775, -8.141124
3565.703, -2.879147
3567.632, 2.650103
3569.560, 1.403239
3571.489, -3.312498
3573.417, -0.3863555
3575.346, -1.320169
3577.274, 10.62276
3579.203, 2.666521
3581.131, -5.054203
3583.060, 3.175852
3584.988, 4.762042
3586.917, 16.25187
3588.845, -6.188890
3590.773, -7.527125
3592.702, -1.922955
3594.630, -14.23713
3596.559, -9.009670
3598.487, -1.714869
3600.416, -1.762707
3602.344, -0.4063242
3604.273, 5.365278
3606.201, 11.22680
3608.130, 9.865488
3610.058, -11.89436
3611.987, -7.658886
3613.915, -10.86007
3615.844, -13.20553
3617.772, 3.240797
3619.700, 7.903296
3621.629, -0.8160583
3623.557, -3.544162
3625.486, -5.853396
3627.414, -2.763208
3629.343, 7.379918
3631.271, 2.378765
3633.200, -20.75024
3635.128, 1.453140
3637.057, -4.280038
3638.985, -8.641315
3640.914, 13.43823
3642.842, -2.399809
3644.771, 4.201639
3646.699, 3.171730
3648.627, -5.558332
3650.556, -5.332079
3652.484, -2.618134
3654.413, -19.71321
3656.341, -7.409042
3658.270, -15.81731
3660.198, -5.944375
3662.127, -2.365145
3664.055, -5.003679
3665.984, 3.182273
3667.912, -9.059738
3669.841, -17.34303
3671.769, 2.430204
3673.698, 3.415182
3675.626, 2.058717
3677.554, 8.148499
3679.483, -19.75168
3681.411, 3.874042
3683.340, -5.640138
3685.268, -0.3471079
3687.197, -6.9421111E-03
3689.125, -1.169514
3691.054, 15.31703
3692.982, -9.955939
3694.911, -12.80365
3696.839, 7.026707
3698.768, -1.802308
3700.696, -15.83945
3702.625, -14.06587
3704.553, -19.21204
3706.481, -5.453217
3708.410, -10.47770
3710.338, -15.90157
3712.267, -11.48485
3714.195, -0.1703809
3716.124, 1.242139
3718.052, -28.74212
3719.981, -12.25324
3721.909, -5.672576
3723.838, -10.70111
3725.766, -5.380954
3727.695, 3.221296
3729.623, -0.3769425
3731.552, -2.720956
3733.480, 13.47633
3735.408, -9.573777
3737.337, -6.871627
3739.265, -2.347579
3741.194, -13.08642
3743.122, -21.99814
3745.051, -12.22087
3746.979, -22.08493
3748.908, 15.12808
3750.836, -3.989537
3752.765, -12.24388
3754.693, -6.721216
3756.622, -16.02273
3758.550, -0.7716594
3760.479, -10.28852
3762.407, -6.411779
3764.335, -12.28161
3766.264, -13.45150
3768.192, -9.130748
3770.121, -5.126695
3772.049, -9.2242658E-02
3773.978, -10.16628
3775.906, -13.15085
3777.835, -2.494066
3779.763, 1.974282
3781.692, -9.250152
3783.620, -17.47014
3785.549, -4.096856
3787.477, 5.038606
3789.406, 7.883196
3791.334, -10.53215
3793.262, -8.492535
3795.191, -11.76582
3797.119, -20.16369
3799.048, -19.15709
3800.976, -12.10975
3802.905, -0.9053160
3804.833, -6.335937
3806.762, -6.104476
3808.690, -9.661317
3810.619, -3.441747
3812.547, 1.862535
3814.476, -8.159256
3816.404, -16.80273
3818.333, -28.04833
3820.261, -6.794084
3822.189, -21.91752
3824.118, -23.69008
3826.046, -19.83740
3827.975, -7.399583
3829.903, 11.90925
3831.832, -16.41151
3833.760, -6.786669
3835.689, 8.217401
3837.617, -13.34211
3839.546, -15.13600
3841.474, -6.180691
3843.403, -8.7747797E-02
3845.331, 3.613046
3847.260, -3.467143
3849.188, -12.45159
3851.116, -17.81100
3853.045, -12.37762
3854.973, -11.08359
3856.902, -4.676344
3858.830, -2.762242
3860.759, -7.122051
3862.687, -1.367339
3864.616, 1.785812
3866.544, -31.30656
3868.473, -5.134972
3870.401, -9.071815
3872.330, -18.39559
3874.258, -11.40604
3876.187, -13.50174
3878.115, -24.03926
3880.043, 3.014347
3881.972, 2.602997
3883.900, -1.254683
3885.829, -19.42551
3887.757, 4.947025
3889.686, 5.248816
3891.614, -12.39293
3893.543, -12.28476
3895.471, -0.1898399
3897.400, -5.598712
3899.328, -15.24413
3901.257, -15.51518
3903.185, 9.695133
3905.114, 7.924149
3907.042, -1.784182
3908.970, 6.725345
3910.899, 6.503548
3912.827, -11.17548
3914.756, -0.2679980
3916.684, -27.81520
3918.613, 1.944770
3920.541, 10.10701
3922.470, -4.209482
3924.398, -9.545798
3926.327, 0.8181469
3928.255, 6.298605
3930.184, -1.614414
3932.112, -7.628380
3934.041, -4.324647
3935.969, -2.129716
3937.897, -2.426509
3939.826, -15.03129
3941.754, 1.053390
3943.683, -19.10783
3945.611, -23.48070
3947.540, -3.694249
3949.468, -4.031385
3951.397, -18.38165
3953.325, -28.38663
3955.254, -12.49736
3957.182, -7.540061
3959.111, -16.63299
3961.039, -12.58665
3962.968, -5.588920
3964.896, 1.244746
3966.824, 3.020144
3968.753, -4.728765
3970.681, -10.52555
3972.610, 3.151312
3974.538, 0.4955274
3976.467, -0.6658584
3978.395, -12.98931
3980.324, -3.334413
3982.252, -7.242413
3984.181, -3.699908
3986.109, -6.080882
3988.038, -7.894764
3989.966, 1.813814
3991.895, -5.730967
3993.823, -22.47138
3995.751, -4.033672
3997.680, -3.954815
3999.608, -2.313704
4001.537, -0.8666255
4003.465, -20.13799
4005.394, -17.57891
4007.322, -9.457921
4009.251, 0.8962191
4011.179, 13.43808
4013.108, 2.964278
4015.036, -13.64520
4016.965, -19.83102
4018.893, -32.93004
4020.822, -18.07409
4022.750, -16.06280
4024.678, -3.906119
4026.607, -8.104951
4028.535, 9.675512
4030.464, 6.950773
4032.392, -10.50768
4034.321, -2.406062
4036.249, 0.6376047
4038.178, -7.775291
4040.106, -4.510426
4042.035, -3.049713
4043.963, 7.416039
4045.892, -0.9622886
4047.820, 8.607080
4049.749, 1.153801
4051.677, -20.70994
4053.605, -17.17603
4055.534, -8.068011
4057.462, -14.00251
4059.391, -16.03835
4061.319, -10.10118
4063.248, -2.312392
4065.176, 3.944004
4067.105, -5.982067
4069.033, 9.076289
4070.962, -19.72677
4072.890, -22.46060
4074.819, -10.90292
4076.747, -15.90420
4078.676, -10.98061
4080.604, -6.289205
4082.532, -13.28975
4084.461, -8.865367
4086.389, -0.2387855
4088.318, -19.20979
4090.246, -11.29145
4092.175, -15.42227
4094.103, 3.972787
4096.032, 4.544778
4097.960, 5.564620
4099.889, -3.748524
4101.817, -17.81774
4103.746, -4.709895
4105.674, -1.416909
4107.603, -27.16648
4109.531, -20.00541
4111.459, -7.693698
4113.388, -20.89706
4115.316, -7.714345
4117.245, -11.95708
4119.173, 3.850625
4121.102, 8.339011
4123.030, -5.101001
4124.958, -2.526647
4126.887, -5.012379
4128.815, 7.939661
4130.744, -10.26723
4132.672, -4.699849
4134.601, 9.395792
4136.529, 2.337215
4138.458, -16.50761
4140.386, -27.32373
4142.315, -20.40008
4144.243, -0.8825566
4146.172, 3.655698
4148.100, -10.93946
4150.029, -4.656128
4151.957, -12.41233
4153.886, -24.67523
4155.814, -31.13618
4157.743, -2.654517
4159.671, 11.29293
4161.600, 13.22868
4163.528, -7.583889
4165.457, 7.067148
4167.385, -5.119276
4169.313, -11.51909
4171.242, -11.41669
4173.170, -5.584080
4175.099, -11.64548
4177.027, -23.43508
4178.956, -19.47254
4180.884, -12.03499
4182.813, -6.329508
4184.741, 6.757784
4186.669, -1.883015
4188.598, -1.988715
4190.526, -2.289180
4192.455, -8.849961
4194.383, 6.632458
4196.312, -17.84219
4198.240, -27.84162
4200.169, 0.2635018
4202.097, 12.28593
4204.026, -5.889473
4205.954, -21.18799
4207.883, -7.304278
4209.811, -10.01392
4211.740, -8.164236
4213.668, -4.385553
4215.597, 1.730263
4217.525, 19.17986
4219.454, 3.620556
4221.382, -19.88536
4223.311, -19.14659
4225.239, -14.88641
4227.167, -7.189659
4229.096, -13.44552
4231.024, -3.937609
4232.953, -3.603576
4234.881, -6.373570
4236.810, 11.63258
4238.738, -20.62581
4240.667, -13.67852
4242.595, -10.11987
4244.523, -26.58658
4246.452, -26.15720
4248.380, -5.725406
4250.309, -0.8136706
4252.237, 5.204533
4254.166, -10.09068
4256.094, -2.427981
4258.023, -20.73441
4259.951, -17.44326
4261.880, -10.85659
4263.808, -17.09527
4265.737, -6.307822
4267.665, -5.476197
4269.594, 5.431269
4271.522, -8.193215
4273.451, -25.02979
4275.379, -12.43244
4277.308, -13.56027
4279.236, -7.012213
4281.165, -0.2800107
4283.093, -1.575709
4285.021, 6.686150
4286.950, -4.734175
4288.878, 5.040155
4290.807, 4.988494
4292.735, -11.76007
4294.664, -14.51899
4296.592, -15.11735
4298.521, -27.82972
4300.449, -14.88193
4302.377, -7.200927
4304.306, -14.95396
4306.234, -11.40208
4308.163, -12.63396
4310.091, -7.501067
4312.020, -24.92072
4313.948, -5.318328
4315.877, -44.20436
4317.805, 11.59171
4319.734, 2.771212
4321.662, -20.50046
4323.591, -15.05331
4325.519, 27.84720
4327.448, -20.22087
4329.376, -39.64112
4331.305, -2.225734
4333.233, -17.79114
4335.162, 14.55078
4337.090, -5.423708
4339.019, -17.53080
4340.947, 8.771565
4342.875, 3.067365
4344.804, -0.3774486
4346.732, -13.20159
4348.661, -10.26178
4350.589, -11.07686
4352.518, -9.522501
4354.446, 7.459767
4356.375, -8.377562
4358.303, -8.734660
4360.231, -5.594193
4362.160, -0.4836447
4364.088, -4.532309
4366.017, -6.259000
4367.945, -24.58308
4369.874, -5.039865
4371.802, -18.44497
4373.731, -31.25127
4375.659, -11.34448
4377.588, -8.346963
4379.516, -17.15528
4381.445, -9.981201
##END=



