##NAMES=Augite
##RRUFFID=R110063
##IDEAL CHEMISTRY=(Ca,Mg,Fe)_2_Si_2_O_6_
##LOCALITY=Betroka, Madagascar
##OWNER=RRUFF
##SOURCE=Marcus Origlieri
##DESCRIPTION=Dark green, almost black, single euhedral crystal
##STATUS=The identification of this mineral has been confirmed only by single crystal X-ray diffraction
##URL=https://www.rruff.net/odr/rruff_sample/R110063
##DIFFRACTION SAMPLE DESCRIPTION=Single crystal, powder profile is calculated
##CELL PARAMETERS=a: 9.745 b: 8.928 c: 5.261 alpha: 90 beta: 105.8 gamma: 90 volume: 440.4 crystal system: monoclinic
##FILETYPE=Raman Processed
##RAMAN WAVELENGTH=532

262.0201, 61.14221
263.9486, 59.82146
265.8770, 59.18443
267.8055, 59.44575
269.7340, 59.81812
271.6624, 60.11545
273.5909, 60.48399
275.5194, 61.20848
277.4478, 62.31497
279.3763, 63.79598
281.3048, 65.59237
283.2332, 67.68395
285.1617, 70.25953
287.0902, 73.09840
289.0186, 76.33569
290.9471, 80.39715
292.8756, 85.12719
294.8040, 90.84079
296.7325, 98.30592
298.6610, 107.1713
300.5894, 115.8231
302.5179, 123.4298
304.4464, 131.3863
306.3748, 140.7237
308.3033, 150.9922
310.2318, 163.6636
312.1602, 179.6583
314.0887, 198.3069
316.0172, 217.7571
317.9456, 242.2775
319.8741, 263.9783
321.8026, 278.3899
323.7310, 285.8564
325.6595, 288.2795
327.5880, 281.7091
329.5164, 268.7961
331.4449, 254.7988
333.3734, 241.3777
335.3018, 228.5966
337.2303, 217.0483
339.1588, 207.0084
341.0872, 201.9907
343.0157, 201.1902
344.9442, 204.7051
346.8727, 213.2662
348.8011, 226.7698
350.7296, 243.2390
352.6581, 263.5251
354.5865, 286.1265
356.5150, 305.6765
358.4435, 320.5995
360.3719, 332.0063
362.3004, 339.6730
364.2289, 343.3614
366.1573, 341.7391
368.0858, 333.7190
370.0143, 324.2486
371.9427, 318.2882
373.8712, 313.7628
375.7997, 319.1804
377.7281, 339.0194
379.6566, 371.7623
381.5851, 409.6498
383.5135, 463.5027
385.4420, 514.4459
387.3705, 551.8419
389.2989, 575.1325
391.2274, 582.8352
393.1559, 560.2392
395.0843, 516.2189
397.0128, 462.1686
398.9413, 405.4054
400.8697, 350.7516
402.7982, 301.3265
404.7267, 259.2687
406.6551, 225.1447
408.5836, 199.5639
410.5121, 179.0589
412.4405, 163.4436
414.3690, 151.9768
416.2975, 141.8704
418.2259, 132.2699
420.1544, 123.1547
422.0829, 115.3299
424.0113, 108.2103
425.9398, 102.0398
427.8683, 97.09827
429.7967, 93.42056
431.7252, 90.67398
433.6537, 89.13149
435.5821, 88.06171
437.5106, 87.11870
439.4391, 86.32848
441.3675, 85.82059
443.2960, 85.70022
445.2245, 85.79317
447.1529, 85.87815
449.0814, 85.97353
451.0099, 86.27535
452.9383, 86.83393
454.8668, 87.51147
456.7953, 88.20287
458.7237, 89.08513
460.6522, 89.96938
462.5807, 90.76514
464.5091, 91.45191
466.4376, 92.04786
468.3661, 92.42953
470.2945, 92.46169
472.2230, 92.03023
474.1515, 91.35954
476.0799, 90.93802
478.0084, 90.97738
479.9369, 91.35859
481.8653, 91.66635
483.7938, 91.70963
485.7223, 91.86893
487.6507, 92.35467
489.5792, 93.09452
491.5077, 93.81873
493.4361, 94.21015
495.3646, 94.73292
497.2931, 95.71787
499.2215, 97.35807
501.1500, 99.13423
503.0785, 101.2102
505.0069, 103.2360
506.9354, 104.9732
508.8639, 106.1109
510.7923, 106.9987
512.7208, 107.6519
514.6493, 108.0304
516.5778, 108.1386
518.5062, 107.8964
520.4347, 108.0183
522.3632, 108.7512
524.2916, 110.0167
526.2201, 111.2709
528.1486, 112.5171
530.0770, 113.7471
532.0055, 115.1567
533.9340, 116.6112
535.8624, 117.4974
537.7909, 117.4613
539.7194, 117.1738
541.6478, 117.0615
543.5763, 116.9198
545.5048, 116.9645
547.4332, 117.2603
549.3617, 117.8718
551.2902, 118.6612
553.2186, 120.1438
555.1471, 121.2423
557.0756, 121.7633
559.0040, 121.3601
560.9325, 120.4963
562.8610, 118.9589
564.7894, 117.3515
566.7179, 115.7916
568.6464, 114.2081
570.5748, 113.0097
572.5033, 112.4291
574.4318, 112.1179
576.3602, 111.6700
578.2887, 110.9977
580.2172, 110.4561
582.1456, 110.2910
584.0741, 110.2215
586.0026, 109.9422
587.9310, 109.3300
589.8595, 108.8674
591.7880, 108.5308
593.7164, 108.4160
595.6449, 108.6981
597.5734, 109.6180
599.5018, 110.6218
601.4303, 111.4162
603.3588, 112.1378
605.2872, 113.3865
607.2157, 115.3436
609.1442, 117.6144
611.0726, 119.6608
613.0011, 121.5586
614.9296, 124.8812
616.8580, 129.7137
618.7865, 135.9465
620.7150, 143.5250
622.6434, 152.3480
624.5719, 162.7982
626.5004, 175.4413
628.4288, 189.3505
630.3573, 203.9428
632.2858, 218.0647
634.2142, 235.2425
636.1427, 255.0705
638.0712, 278.4265
639.9996, 306.0990
641.9281, 338.5150
643.8566, 373.4168
645.7850, 406.7520
647.7135, 442.1032
649.6420, 488.9328
651.5704, 540.9503
653.4989, 611.7526
655.4274, 710.5461
657.3558, 831.5760
659.2843, 959.9250
661.2128, 1114.895
663.1412, 1246.426
665.0697, 1345.219
666.9982, 1414.333
668.9266, 1424.131
670.8551, 1355.683
672.7836, 1253.999
674.7120, 1122.945
676.6405, 963.7982
678.5690, 818.6478
680.4974, 695.4932
682.4259, 590.1536
684.3544, 502.9633
686.2828, 438.3668
688.2113, 383.8213
690.1398, 342.8041
692.0682, 310.1733
693.9967, 281.1837
695.9252, 256.2220
697.8536, 234.3249
699.7821, 215.0134
701.7106, 198.4798
703.6390, 184.6326
705.5675, 173.6550
707.4960, 164.6761
709.4244, 158.4453
711.3529, 153.9452
713.2814, 149.8788
715.2098, 146.0060
717.1383, 142.9861
719.0668, 141.3490
720.9952, 140.5944
722.9237, 139.6383
724.8522, 138.3479
726.7806, 137.2071
728.7091, 136.3440
730.6376, 135.7614
732.5660, 135.4268
734.4945, 135.4347
736.4230, 135.5248
738.3514, 135.7564
740.2799, 136.0092
742.2084, 136.1069
744.1368, 136.0160
746.0653, 136.0181
747.9938, 136.1242
749.9222, 136.3874
751.8507, 136.8430
753.7792, 137.6866
755.7076, 138.3830
757.6361, 138.9808
759.5646, 139.6531
761.4930, 140.3019
763.4215, 140.8874
765.3500, 141.6592
767.2784, 142.8009
769.2069, 144.0517
771.1354, 145.0554
773.0638, 145.3749
774.9923, 145.8103
776.9208, 146.8087
778.8492, 148.7756
780.7777, 150.3950
782.7062, 151.2794
784.6346, 151.6604
786.5631, 152.2138
788.4916, 153.0696
790.4200, 154.0202
792.3485, 155.1155
794.2770, 156.2491
796.2054, 157.0055
798.1339, 157.3348
800.0624, 158.3356
801.9908, 160.4104
803.9193, 162.2365
805.8478, 162.7565
807.7762, 162.7721
809.7047, 163.8923
811.6332, 166.9722
813.5616, 170.4961
815.4901, 173.4623
817.4186, 176.1966
819.3470, 179.2207
821.2755, 182.7644
823.2040, 186.7135
825.1324, 190.0676
827.0609, 192.8142
828.9894, 196.6154
830.9178, 202.1298
832.8463, 207.8683
834.7748, 213.8945
836.7032, 221.2317
838.6317, 230.0641
840.5602, 240.2079
842.4886, 254.4806
844.4171, 274.4960
846.3456, 297.7298
848.2740, 325.0781
850.2025, 359.0567
852.1310, 388.6691
854.0594, 411.6096
855.9879, 429.9184
857.9164, 434.1083
859.8448, 422.5325
861.7733, 402.3080
863.7018, 378.0945
865.6302, 348.2775
867.5587, 320.9590
869.4872, 297.9559
871.4156, 278.9147
873.3441, 263.3221
875.2726, 251.1521
877.2010, 241.9898
879.1295, 235.2350
881.0580, 229.8422
882.9865, 225.2287
884.9149, 222.2377
886.8434, 219.6030
888.7719, 217.1605
890.7003, 215.0052
892.6288, 213.1402
894.5573, 211.4955
896.4857, 210.5227
898.4142, 210.3682
900.3427, 210.6602
902.2711, 210.9901
904.1996, 211.1597
906.1281, 211.3001
908.0565, 211.5930
909.9850, 212.2359
911.9135, 213.4510
913.8419, 214.5441
915.7704, 215.0786
917.6989, 215.4428
919.6273, 216.0777
921.5558, 216.7657
923.4843, 217.7852
925.4127, 218.3817
927.3412, 219.3606
929.2697, 220.3383
931.1981, 220.8273
933.1266, 220.7198
935.0551, 221.3442
936.9835, 222.7445
938.9120, 224.3063
940.8405, 225.5872
942.7689, 226.6458
944.6974, 227.9564
946.6259, 229.5427
948.5543, 231.4147
950.4828, 233.5086
952.4113, 235.7172
954.3397, 238.5700
956.2682, 242.3531
958.1967, 246.0733
960.1251, 249.1731
962.0536, 252.1407
963.9821, 256.7220
965.9105, 262.2115
967.8390, 268.6280
969.7675, 277.3773
971.6959, 288.9138
973.6244, 302.6479
975.5529, 319.8496
977.4813, 335.1281
979.4098, 350.1046
981.3383, 365.1366
983.2667, 380.8135
985.1952, 397.6128
987.1237, 417.7791
989.0521, 436.7928
990.9806, 459.2151
992.9091, 488.9087
994.8375, 523.7115
996.7660, 560.5803
998.6945, 615.5860
1000.623, 687.3222
1002.551, 776.9998
1004.480, 893.9413
1006.408, 1032.457
1008.337, 1172.889
1010.265, 1308.736
1012.194, 1421.088
1014.122, 1497.538
1016.051, 1500.394
1017.979, 1440.032
1019.908, 1325.557
1021.836, 1182.517
1023.765, 1017.001
1025.693, 879.8277
1027.621, 777.7965
1029.550, 699.0158
1031.478, 640.8036
1033.407, 602.7636
1035.335, 580.5502
1037.264, 575.6513
1039.192, 580.4264
1041.121, 589.2228
1043.049, 600.4289
1044.978, 609.8422
1046.906, 617.5533
1048.835, 615.1059
1050.763, 602.3911
1052.692, 578.4871
1054.620, 546.9577
1056.548, 506.3883
1058.477, 470.0399
1060.405, 437.4776
1062.334, 409.3983
1064.262, 386.5500
1066.191, 369.3723
1068.119, 355.3904
1070.048, 344.3359
1071.976, 335.7103
1073.905, 329.5088
1075.833, 324.5358
1077.762, 319.9520
1079.690, 315.8158
1081.619, 312.8822
1083.547, 311.0684
1085.475, 309.5973
1087.404, 308.2319
1089.332, 307.0326
1091.261, 306.5022
1093.189, 306.9548
1095.118, 307.8065
1097.046, 308.0459
1098.975, 307.3282
1100.903, 306.9538
1102.832, 307.4899
1104.760, 308.7609
1106.689, 310.0553
1108.617, 310.9474
1110.546, 311.3780
1112.474, 310.9115
1114.402, 310.9515
1116.331, 312.1557
1118.259, 314.1093
1120.188, 315.2963
1122.116, 315.1278
1124.045, 314.7867
1125.973, 314.4401
1127.902, 314.6969
1129.830, 315.3586
1131.759, 315.9932
1133.687, 316.4687
1135.616, 316.9978
1137.544, 317.3593
1139.473, 317.0323
1141.401, 316.2968
1143.329, 316.2672
1145.258, 318.0941
1147.186, 319.0234
1149.115, 317.5298
1151.043, 315.2709
1152.972, 314.7563
1154.900, 316.7811
1156.829, 317.9669
1158.757, 317.6081
1160.686, 316.8146
1162.614, 316.2363
1164.543, 316.1671
1166.471, 316.6194
1168.400, 317.7155
1170.328, 318.5331
1172.256, 318.7733
1174.185, 319.0508
1176.113, 319.5736
1178.042, 320.3621
1179.970, 321.1175
1181.899, 321.8419
1183.827, 322.4316
1185.756, 322.7817
1187.684, 323.1044
1189.613, 323.7806
1191.541, 324.9947
1193.470, 326.0993
1195.398, 326.9201
1197.327, 327.6364
1199.255, 328.3192
1201.183, 328.9468
1203.112, 329.7492
1205.040, 330.6793
1206.969, 331.8094
1208.897, 333.3125
1210.826, 334.9951
1212.754, 336.3297
1214.683, 337.1179
1216.611, 337.8763
1218.540, 338.6549
1220.468, 339.4849
1222.397, 340.4840
1224.325, 341.6552
1226.254, 342.5536
1228.182, 342.6460
1230.110, 343.1802
1232.039, 345.1465
1233.967, 347.6990
1235.896, 349.3937
1237.824, 349.9225
1239.753, 350.3286
1241.681, 350.9485
1243.610, 351.4874
1245.538, 351.5768
1247.467, 351.2615
1249.395, 351.5117
1251.324, 352.6030
1253.252, 353.9579
1255.181, 355.7768
1257.109, 357.7211
1259.037, 359.2646
1260.966, 360.3040
1262.894, 361.2624
1264.823, 362.2124
1266.751, 363.0951
1268.680, 363.6819
1270.608, 364.1461
1272.537, 364.9888
1274.465, 366.4086
1276.394, 367.7043
1278.322, 368.5284
1280.251, 369.1879
1282.179, 370.1857
1284.108, 371.9674
1286.036, 373.1791
1287.964, 372.7115
1289.893, 372.6202
1291.821, 373.5898
1293.750, 375.4512
1295.678, 377.3626
1297.607, 379.1689
1299.535, 380.4472
1301.464, 380.6379
1303.392, 380.8756
1305.321, 381.8767
1307.249, 383.3821
1309.178, 384.5288
1311.106, 385.1709
1313.035, 385.8674
1314.963, 386.8690
1316.891, 387.6497
1318.820, 388.8415
1320.748, 389.5964
1322.677, 390.5909
1324.605, 391.7871
1326.534, 393.0734
1328.462, 394.5119
1330.391, 396.0153
1332.319, 397.4055
1334.248, 398.9232
1336.176, 400.2105
1338.105, 400.9579
1340.033, 401.7637
1341.962, 403.2058
1343.890, 404.6449
1345.818, 404.8487
1347.747, 403.9534
1349.675, 403.8046
1351.604, 404.8634
1353.532, 405.7944
1355.461, 405.8731
1357.389, 405.7122
1359.318, 405.9788
1361.246, 406.7797
1363.175, 407.7054
1365.103, 408.7411
1367.032, 409.4748
1368.960, 409.5746
1370.889, 409.7010
1372.817, 410.5795
1374.745, 412.4042
1376.674, 413.5347
1378.602, 413.2357
1380.531, 412.5683
1382.459, 412.1324
1384.388, 411.8309
1386.316, 412.0556
1388.245, 414.1092
1390.173, 415.8421
1392.102, 416.6945
1394.030, 416.6385
1395.959, 415.5169
1397.887, 413.8813
1399.816, 414.1457
1401.744, 417.4245
1403.672, 419.6128
1405.601, 418.9154
1407.529, 417.4715
1409.458, 417.4831
1411.386, 418.3385
1413.315, 418.8310
1415.243, 419.1981
1417.172, 419.6891
1419.100, 419.9275
1421.029, 420.2746
1422.957, 421.6130
1424.886, 423.8722
1426.814, 425.0536
1428.743, 424.9606
1430.671, 424.7499
1432.599, 424.2274
1434.528, 423.7437
1436.456, 424.0056
1438.385, 425.0230
1440.313, 426.0207
1442.242, 427.5141
1444.170, 428.7143
1446.099, 429.4033
1448.027, 429.6574
1449.956, 429.4584
1451.884, 428.7404
1453.813, 428.6728
1455.741, 429.3344
1457.670, 430.0027
1459.598, 430.6873
1461.526, 431.3947
1463.455, 431.9321
1465.383, 432.1869
1467.312, 432.7267
1469.240, 433.9199
1471.169, 435.3088
1473.097, 437.0962
1475.026, 438.3440
1476.954, 437.7668
1478.883, 435.8575
1480.811, 435.3169
1482.740, 436.7773
1484.668, 437.9297
1486.597, 437.8656
1488.525, 437.5884
1490.453, 437.8857
1492.382, 438.8009
1494.310, 440.0143
1496.239, 441.1487
1498.167, 442.6125
1500.096, 445.2521
1502.024, 447.4223
1503.953, 447.9398
1505.881, 447.1904
1507.810, 446.9153
1509.738, 447.1001
1511.667, 447.2019
1513.595, 447.0908
1515.524, 446.9333
1517.452, 447.1500
1519.380, 447.7117
1521.309, 448.0750
1523.237, 448.0339
1525.166, 448.0719
1527.094, 447.6488
1529.023, 447.4043
1530.951, 447.9770
1532.880, 449.0646
1534.808, 449.7951
1536.737, 449.7983
1538.665, 450.1505
1540.594, 452.0439
1542.522, 453.1366
1544.451, 451.6606
1546.379, 449.7079
1548.307, 450.2829
1550.236, 453.5344
1552.164, 454.8531
1554.093, 452.6886
1556.021, 451.0096
1557.950, 450.9656
1559.878, 451.6832
1561.807, 452.7699
1563.735, 453.9463
1565.664, 454.2294
1567.592, 453.3604
1569.521, 452.7836
1571.449, 453.0474
1573.378, 453.5294
1575.306, 453.5665
1577.234, 453.4606
1579.163, 454.1520
1581.091, 455.7608
1583.020, 456.5498
1584.948, 455.9056
1586.877, 455.2569
1588.805, 455.1398
1590.734, 455.3772
1592.662, 455.7063
1594.591, 456.0400
1596.519, 456.1977
1598.448, 456.0500
1600.376, 456.3516
1602.305, 457.5728
1604.233, 458.7419
1606.161, 459.3838
1608.090, 459.5123
1610.018, 459.0379
1611.947, 457.8496
1613.875, 457.2707
1615.804, 458.1711
1617.732, 458.6595
1619.661, 457.5634
1621.589, 456.2186
1623.518, 456.0595
1625.446, 457.0047
1627.375, 457.7744
1629.303, 458.1815
1631.232, 458.6053
1633.160, 458.9367
1635.089, 459.3223
1637.017, 460.0728
1638.945, 460.8076
1640.874, 460.4840
1642.802, 458.8033
1644.731, 458.1667
1646.659, 459.6192
1648.588, 460.9594
1650.516, 461.7120
1652.445, 462.0773
1654.373, 462.0798
1656.302, 461.7575
1658.230, 461.5808
1660.159, 461.7438
1662.087, 461.3490
1664.016, 459.5318
1665.944, 457.9853
1667.872, 457.4821
1669.801, 457.5186
1671.729, 457.3197
1673.658, 456.8250
1675.586, 457.2238
1677.515, 459.2857
1679.443, 460.8227
1681.372, 461.2375
1683.300, 461.3729
1685.229, 461.6879
1687.157, 462.0250
1689.086, 462.0450
1691.014, 461.6683
1692.943, 461.1119
1694.871, 460.1012
1696.799, 459.2639
1698.728, 458.9467
1700.656, 458.6539
1702.585, 457.7196
1704.513, 456.6034
1706.442, 456.9860
1708.370, 459.7267
1710.299, 460.9161
1712.227, 459.1482
1714.156, 457.4565
1716.084, 456.1836
1718.013, 455.5540
1719.941, 456.3281
1721.870, 457.9930
1723.798, 457.8981
1725.726, 455.0695
1727.655, 453.8131
1729.583, 456.1791
1731.512, 457.8582
1733.440, 457.1559
1735.369, 455.7124
1737.297, 454.8165
1739.226, 454.4711
1741.154, 454.7676
1743.083, 456.0864
1745.011, 456.6776
1746.940, 455.7857
1748.868, 454.9238
1750.797, 454.2147
1752.725, 453.9447
1754.653, 454.6870
1756.582, 456.1355
1758.510, 456.7525
1760.439, 456.4335
1762.367, 455.7575
1764.296, 454.8053
1766.224, 453.5737
1768.153, 451.6083
1770.081, 449.8864
1772.010, 449.4432
1773.938, 449.9334
1775.867, 449.9126
1777.795, 449.2765
1779.724, 448.8578
1781.652, 448.4715
1783.580, 448.8255
1785.509, 451.3581
1787.437, 453.4365
1789.366, 452.5290
1791.294, 449.9791
1793.223, 449.1495
1795.151, 450.1119
1797.080, 450.2819
1799.008, 448.9394
1800.937, 448.0996
1802.865, 449.1127
1804.794, 449.9898
1806.722, 449.1411
1808.651, 447.5687
1810.579, 446.6826
1812.507, 446.4343
1814.436, 446.4161
1816.364, 446.7141
1818.293, 446.6218
1820.221, 445.6865
1822.150, 444.6774
1824.078, 443.9292
1826.007, 443.3641
1827.935, 442.9711
1829.864, 442.7386
1831.792, 442.5727
1833.721, 442.5644
1835.649, 442.2281
1837.578, 441.3124
1839.506, 440.3386
1841.434, 438.8864
1843.363, 437.9313
1845.291, 438.8430
1847.220, 440.6060
1849.148, 440.7323
1851.077, 438.9403
1853.005, 438.0074
1854.934, 438.4284
1856.862, 438.8847
1858.791, 439.6929
1860.719, 439.9596
1862.648, 438.7413
1864.576, 437.1490
1866.505, 436.7444
1868.433, 437.2701
1870.361, 436.9359
1872.290, 435.1509
1874.218, 433.9545
1876.147, 433.4039
1878.075, 433.3952
1880.004, 434.8085
1881.932, 435.8301
1883.861, 435.0089
1885.789, 433.1567
1887.718, 431.4613
1889.646, 429.8934
1891.575, 429.1056
1893.503, 429.2205
1895.432, 429.5225
1897.360, 430.1761
1899.288, 430.5698
1901.217, 430.5189
1903.145, 430.2275
1905.074, 429.9443
1907.002, 429.5822
1908.931, 428.7915
1910.859, 427.6047
1912.788, 426.5394
1914.716, 425.5252
1916.645, 424.7542
1918.573, 424.1219
1920.502, 423.8071
1922.430, 424.2251
1924.359, 424.6791
1926.287, 424.8354
1928.215, 424.5427
1930.144, 423.1048
1932.072, 420.4942
1934.001, 418.7965
1935.929, 418.4608
1937.858, 418.1912
1939.786, 417.8701
1941.715, 417.5082
1943.643, 417.1867
1945.572, 416.7325
1947.500, 415.5875
1949.429, 414.2836
1951.357, 414.5099
1953.286, 416.5718
1955.214, 416.6669
1957.143, 413.6540
1959.071, 411.3642
1961.000, 410.2099
1962.928, 409.8554
1964.856, 411.1230
1966.785, 412.2592
1968.713, 411.6924
1970.642, 410.3442
1972.570, 410.0284
1974.499, 410.5398
1976.427, 410.3135
1978.356, 409.1474
1980.284, 408.0185
1982.213, 406.7403
1984.141, 406.2326
1986.070, 407.6374
1987.998, 408.9034
1989.927, 408.8846
1991.855, 407.9545
1993.783, 406.2469
1995.712, 404.0146
1997.640, 402.4286
1999.569, 401.6235
2001.497, 400.9233
2003.426, 400.0239
2005.354, 399.7541
2007.283, 401.0885
2009.211, 401.8452
2011.140, 400.5266
2013.068, 398.9425
2014.997, 398.7534
2016.925, 399.3466
2018.854, 399.6253
2020.782, 399.5931
2022.710, 398.7686
2024.639, 396.9869
2026.567, 395.4957
2028.496, 394.4893
2030.424, 393.6599
2032.353, 392.9974
2034.281, 392.3158
2036.210, 391.4733
2038.138, 390.5776
2040.067, 389.5545
2041.995, 388.6122
2043.924, 388.5555
2045.852, 387.3671
2047.781, 388.8609
2049.709, 386.1310
2051.637, 384.4728
2053.566, 384.8442
2055.494, 385.1776
2057.423, 385.1674
2059.351, 384.8837
2061.280, 384.6184
2063.208, 383.9584
2065.137, 382.0518
2067.065, 379.5166
2068.994, 377.9742
2070.922, 377.4091
2072.851, 377.5880
2074.779, 378.5892
2076.708, 379.4458
2078.636, 380.2314
2080.564, 380.0134
2082.493, 377.7188
2084.421, 375.4015
2086.350, 374.0300
2088.278, 373.3375
2090.207, 373.7191
2092.135, 374.4012
2094.064, 373.4040
2095.992, 370.9358
2097.921, 369.7335
2099.849, 370.0069
2101.778, 370.8279
2103.706, 373.5871
2105.635, 374.2226
2107.563, 370.4676
2109.491, 366.9994
2111.420, 365.5683
2113.348, 364.6737
2115.277, 363.1758
2117.205, 361.8428
2119.134, 362.0084
2121.062, 363.0462
2122.991, 363.1966
2124.919, 362.4371
2126.848, 361.3575
2128.776, 359.6681
2130.705, 358.8607
2132.633, 360.1028
2134.562, 360.6450
2136.490, 359.2818
2138.418, 358.0789
2140.347, 358.4306
2142.275, 358.8206
2144.204, 357.9070
2146.132, 356.3544
2148.061, 355.1134
2149.989, 354.1486
2151.918, 353.3311
2153.846, 352.6461
2155.775, 351.6440
2157.703, 350.1578
2159.632, 349.1880
2161.560, 349.1200
2163.489, 348.9190
2165.417, 348.3307
2167.345, 347.4343
2169.274, 345.7713
2171.202, 344.3667
2173.131, 344.2701
2175.059, 344.7420
2176.988, 345.1587
2178.916, 345.2662
2180.845, 343.6970
2182.773, 340.5522
2184.702, 339.4283
2186.630, 340.6464
2188.559, 341.3182
2190.487, 340.9911
2192.416, 340.5208
2194.344, 340.1205
2196.272, 339.5215
2198.201, 338.4035
2200.129, 337.3409
2202.058, 337.0109
2203.986, 336.5714
2205.915, 334.8615
2207.843, 334.2506
2209.772, 331.7583
2211.700, 331.6747
2213.629, 330.6764
2215.557, 328.7618
2217.486, 328.0306
2219.414, 328.7784
2221.343, 328.9081
2223.271, 327.8591
2225.199, 327.2925
2227.128, 328.0538
2229.056, 328.4789
2230.985, 327.8441
2232.913, 326.8072
2234.842, 325.4235
2236.770, 324.1137
2238.699, 323.3713
2240.627, 322.4356
2242.556, 322.2267
2244.484, 321.4623
2246.413, 321.2677
2248.341, 321.5345
2250.270, 321.1051
2252.198, 319.8986
2254.126, 318.7475
2256.055, 317.6539
2257.983, 316.9350
2259.912, 316.9846
2261.840, 316.7298
2263.769, 315.6660
2265.697, 314.5809
2267.626, 313.6416
2269.554, 312.9455
2271.483, 312.9311
2273.411, 312.8904
2275.340, 312.0222
2277.268, 310.7807
2279.197, 309.8859
2281.125, 309.2238
2283.053, 308.3920
2284.982, 307.4139
2286.910, 306.7059
2288.839, 306.3400
2290.767, 305.4633
2292.696, 303.3987
2294.624, 302.0516
2296.553, 301.5705
2298.481, 301.6679
2300.410, 303.3468
2302.338, 303.9204
2304.267, 301.7326
2306.195, 299.5538
2308.124, 298.9922
2310.052, 298.8348
2311.980, 298.0299
2313.909, 297.2155
2315.837, 297.4156
2317.766, 296.6433
2319.694, 297.4498
2321.623, 296.1354
2323.551, 295.6502
2325.480, 295.9912
2327.408, 296.4034
2329.337, 296.9336
2331.265, 296.6233
2333.194, 295.3344
2335.122, 293.6079
2337.051, 291.1926
2338.979, 289.4561
2340.907, 289.3472
2342.836, 289.0557
2344.764, 287.9668
2346.693, 286.8618
2348.621, 285.7509
2350.550, 285.0712
2352.478, 285.4352
2354.407, 285.8918
2356.335, 285.7267
2358.264, 285.0165
2360.192, 283.6251
2362.121, 281.9532
2364.049, 280.7756
2365.978, 280.0450
2367.906, 279.4803
2369.834, 279.1138
2371.763, 278.8258
2373.691, 278.6678
2375.620, 278.0753
2377.548, 276.8676
2379.477, 276.0531
2381.405, 275.7903
2383.334, 275.4358
2385.262, 274.8017
2387.191, 274.2685
2389.119, 274.4691
2391.048, 274.0483
2392.976, 271.7150
2394.905, 269.9940
2396.833, 270.9644
2398.761, 271.6353
2400.690, 269.1261
2402.618, 266.7054
2404.547, 267.6396
2406.475, 269.3445
2408.404, 269.1008
2410.332, 267.6843
2412.261, 265.8777
2414.189, 264.0997
2416.118, 263.7579
2418.046, 264.4881
2419.975, 264.0479
2421.903, 262.5243
2423.832, 261.3701
2425.760, 260.6025
2427.688, 260.2846
2429.617, 260.4983
2431.545, 260.0823
2433.474, 258.7270
2435.402, 257.3159
2437.331, 255.5709
2439.259, 254.4544
2441.188, 254.2753
2443.116, 254.3215
2445.045, 254.7375
2446.973, 254.8163
2448.902, 254.2100
2450.830, 253.3852
2452.759, 252.1841
2454.687, 251.2813
2456.615, 251.2791
2458.544, 251.4348
2460.472, 251.3728
2462.401, 251.0686
2464.329, 250.5762
2466.258, 249.7944
2468.186, 248.0894
2470.115, 246.3977
2472.043, 246.2155
2473.972, 246.9179
2475.900, 247.6887
2477.829, 248.1475
2479.757, 246.6164
2481.686, 243.5468
2483.614, 242.2247
2485.542, 242.4872
2487.471, 242.2067
2489.399, 241.4017
2491.328, 240.7501
2493.256, 240.3164
2495.185, 239.8428
2497.113, 239.3121
2499.042, 238.6431
2500.970, 237.5837
2502.899, 237.0436
2504.827, 237.3948
2506.756, 236.9057
2508.684, 234.8062
2510.613, 233.6471
2512.541, 234.8557
2514.469, 235.3589
2516.398, 233.7255
2518.326, 232.2729
2520.255, 231.9777
2522.183, 231.4696
2524.112, 229.7463
2526.040, 228.5648
2527.969, 229.1511
2529.897, 229.7472
2531.826, 229.4274
2533.754, 228.6750
2535.683, 227.2986
2537.611, 226.2423
2539.540, 226.7825
2541.468, 227.4368
2543.396, 226.5658
2545.325, 225.2869
2547.253, 224.6960
2549.182, 224.4133
2551.110, 224.1488
2553.039, 223.7797
2554.967, 222.9728
2556.896, 222.0416
2558.824, 221.7851
2560.753, 221.8120
2562.681, 220.8908
2564.610, 219.5335
2566.538, 219.1387
2568.467, 219.4299
2570.395, 219.5410
2572.323, 219.3991
2574.252, 218.6217
2576.180, 217.2489
2578.109, 215.8776
2580.037, 214.5591
2581.966, 213.9237
2583.894, 213.9485
2585.823, 213.9076
2587.751, 213.7814
2589.680, 213.5570
2591.608, 213.1445
2593.537, 213.3028
2595.465, 212.9787
2597.394, 212.4883
2599.322, 212.5310
2601.250, 211.4186
2603.179, 210.8596
2605.107, 210.4352
2607.036, 210.1637
2608.964, 209.9096
2610.893, 209.9473
2612.821, 209.1143
2614.750, 206.9806
2616.678, 205.7667
2618.607, 206.0028
2620.535, 206.2412
2622.464, 206.5091
2624.392, 205.9964
2626.321, 203.6356
2628.249, 202.2885
2630.177, 202.7083
2632.106, 202.6847
2634.034, 201.4932
2635.963, 200.9960
2637.891, 202.4801
2639.820, 202.9622
2641.748, 200.5400
2643.677, 199.1047
2645.605, 200.2718
2647.534, 200.6020
2649.462, 198.8962
2651.391, 197.4425
2653.319, 197.0243
2655.248, 196.7881
2657.176, 196.8613
2659.104, 196.4106
2661.033, 194.4904
2662.961, 193.2450
2664.890, 193.7344
2666.818, 193.8329
2668.747, 192.3079
2670.675, 191.2453
2672.604, 192.0782
2674.532, 192.5063
2676.461, 191.4291
2678.389, 190.2617
2680.318, 189.1595
2682.246, 188.4907
2684.175, 188.5123
2686.103, 188.7353
2688.031, 189.5008
2689.960, 189.5975
2691.888, 188.0936
2693.817, 186.6436
2695.745, 185.8027
2697.674, 185.1151
2699.602, 184.4588
2701.531, 183.8376
2703.459, 182.9934
2705.388, 182.5640
2707.316, 183.2822
2709.245, 183.6315
2711.173, 182.9554
2713.102, 182.1741
2715.030, 181.4205
2716.958, 181.0092
2718.887, 181.5286
2720.815, 181.6769
2722.744, 180.7482
2724.672, 179.8149
2726.601, 179.1055
2728.529, 178.6155
2730.458, 178.4958
2732.386, 178.2956
2734.315, 177.7360
2736.243, 177.2423
2738.172, 177.1389
2740.100, 176.6904
2742.029, 175.4649
2743.957, 174.5904
2745.885, 174.5569
2747.814, 174.6312
2749.742, 174.6835
2751.671, 174.7365
2753.599, 174.9847
2755.528, 174.7867
2757.456, 173.8562
2759.385, 172.9450
2761.313, 172.1678
2763.242, 171.5264
2765.170, 171.1766
2767.099, 170.5974
2769.027, 169.6321
2770.956, 168.7674
2772.884, 168.0186
2774.813, 167.7305
2776.741, 168.2649
2778.669, 168.4600
2780.598, 168.2658
2782.526, 167.5984
2784.455, 166.3575
2786.383, 165.2385
2788.312, 164.2566
2790.240, 163.8622
2792.169, 164.3621
2794.097, 164.3412
2796.026, 163.6730
2797.954, 163.2130
2799.883, 162.9889
2801.811, 162.7908
2803.740, 162.6166
2805.668, 162.3236
2807.596, 161.9304
2809.525, 160.9240
2811.453, 159.3813
2813.382, 158.5270
2815.310, 158.2865
2817.239, 158.1116
2819.167, 158.0032
2821.096, 158.1241
2823.024, 158.3829
2824.953, 158.4077
2826.881, 158.1908
2828.810, 157.5742
2830.738, 156.7734
2832.667, 156.2953
2834.595, 155.9905
2836.523, 155.6691
2838.452, 155.2359
2840.380, 154.3438
2842.309, 153.4189
2844.237, 152.9987
2846.166, 152.8373
2848.094, 152.7042
2850.023, 152.5968
2851.951, 152.6099
2853.880, 152.5109
2855.808, 152.2315
2857.737, 151.6358
2859.665, 150.0093
2861.594, 148.9306
2863.522, 149.9824
2865.450, 150.9136
2867.379, 150.8985
2869.307, 150.3115
2871.236, 148.7900
2873.164, 147.5893
2875.093, 147.0983
2877.021, 147.0454
2878.950, 147.6393
2880.878, 147.8352
2882.807, 147.2299
2884.735, 146.7758
2886.664, 146.6748
2888.592, 146.7677
2890.521, 147.1357
2892.449, 147.2673
2894.377, 147.1363
2896.306, 146.2603
2898.234, 146.0487
2900.163, 145.5272
2902.091, 144.6452
2904.020, 144.3662
2905.948, 143.1901
2907.877, 142.1162
2909.805, 141.2566
2911.734, 141.0937
2913.662, 141.3547
2915.591, 141.3553
2917.519, 141.0517
2919.448, 139.9493
2921.376, 138.8736
2923.304, 139.3155
2925.233, 140.1224
2927.161, 140.2490
2929.090, 139.6759
2931.018, 137.5122
2932.947, 135.9663
2934.875, 137.5742
2936.804, 138.7474
2938.732, 136.7761
2940.661, 135.1284
2942.589, 135.1432
2944.518, 135.2079
2946.446, 134.5204
2948.375, 134.3509
2950.303, 134.1769
2952.231, 133.4748
2954.160, 133.7372
2956.088, 132.3277
2958.017, 131.7813
2959.945, 131.3186
2961.874, 130.8764
2963.802, 130.6418
2965.731, 130.5848
2967.659, 130.3399
2969.588, 129.9544
2971.516, 129.6379
2973.445, 129.4098
2975.373, 129.2440
2977.302, 129.2362
2979.230, 129.8982
2981.158, 130.4740
2983.087, 129.9040
2985.015, 128.9326
2986.944, 127.9491
2988.872, 127.3868
2990.801, 127.9830
2992.729, 128.2645
2994.658, 127.3092
2996.586, 126.1017
2998.515, 124.3641
3000.443, 123.8330
3002.372, 125.3865
3004.300, 125.9052
3006.229, 124.2043
3008.157, 123.0949
3010.085, 122.7421
3012.014, 122.7892
3013.942, 123.1756
3015.871, 122.8775
3017.799, 122.0226
3019.728, 121.8073
3021.656, 122.0189
3023.585, 121.9456
3025.513, 121.7301
3027.442, 121.5896
3029.370, 121.4893
3031.299, 121.4368
3033.227, 121.3221
3035.156, 121.0639
3037.084, 120.6846
3039.012, 120.1137
3040.941, 119.5624
3042.869, 119.2013
3044.798, 118.7195
3046.726, 117.9737
3048.655, 117.4996
3050.583, 117.0838
3052.512, 117.2437
3054.440, 116.3801
3056.369, 116.4435
3058.297, 116.1684
3060.226, 117.1734
3062.154, 116.3572
3064.083, 116.7282
3066.011, 117.4451
3067.939, 116.0282
3069.868, 114.0523
3071.796, 113.3419
3073.725, 113.3560
3075.653, 114.2614
3077.582, 114.7194
3079.510, 113.8937
3081.439, 112.8208
3083.367, 111.4796
3085.296, 110.8627
3087.224, 111.3285
3089.153, 112.1474
3091.081, 113.3885
3093.010, 113.1507
3094.938, 112.8745
3096.866, 110.4557
3098.795, 111.0163
3100.723, 110.3558
3102.652, 109.2118
3104.580, 109.5766
3106.509, 110.4269
3108.437, 109.9969
3110.366, 109.4735
3112.294, 110.4504
3114.223, 110.8519
3116.151, 108.7360
3118.080, 106.9706
3120.008, 106.3842
3121.937, 106.6945
3123.865, 108.2853
3125.793, 108.6132
3127.722, 106.8573
3129.650, 106.1566
3131.579, 106.4036
3133.507, 106.5253
3135.436, 106.4744
3137.364, 106.2772
3139.293, 105.8628
3141.221, 104.7098
3143.150, 103.7429
3145.078, 104.1404
3147.007, 104.6467
3148.935, 104.4499
3150.864, 104.0541
3152.792, 103.4889
3154.720, 103.1326
3156.649, 103.0437
3158.577, 103.4738
3160.506, 102.7207
3162.434, 104.0457
3164.363, 102.0509
3166.291, 101.6134
3168.220, 102.2355
3170.148, 102.5588
3172.077, 102.5711
3174.005, 102.2247
3175.934, 101.6257
3177.862, 100.6157
3179.791, 99.77419
3181.719, 99.22057
3183.647, 99.34193
3185.576, 100.7104
3187.504, 101.2073
3189.433, 100.2231
3191.361, 99.76808
3193.290, 99.83273
3195.218, 100.2254
3197.147, 100.6841
3199.075, 100.2293
3201.004, 99.38863
3202.932, 98.94109
3204.861, 98.74905
3206.789, 99.00175
3208.718, 98.99043
3210.646, 98.12033
3212.574, 97.40652
3214.503, 97.08394
3216.431, 96.89924
3218.360, 96.90308
3220.288, 96.45036
3222.217, 95.64516
3224.145, 95.56953
3226.074, 95.82615
3228.002, 95.04972
3229.931, 95.18195
3231.859, 94.42017
3233.788, 94.80428
3235.716, 94.23031
3237.645, 93.86121
3239.573, 94.34404
3241.501, 94.38464
3243.430, 93.62570
3245.358, 93.07954
3247.287, 92.80460
3249.215, 93.18604
3251.144, 92.91382
3253.072, 92.88597
3255.001, 93.04418
3256.929, 92.86216
3258.858, 92.92258
3260.786, 93.31319
3262.715, 93.38895
3264.643, 92.52657
3266.572, 91.90209
3268.500, 91.72690
3270.428, 91.60111
3272.357, 91.48521
3274.285, 91.35515
3276.214, 91.27338
3278.142, 91.88265
3280.071, 92.44503
3281.999, 91.45555
3283.928, 90.36829
3285.856, 90.70335
3287.785, 90.96663
3289.713, 90.62039
3291.642, 90.06489
3293.570, 89.10340
3295.499, 89.04622
3297.427, 89.83885
3299.355, 90.32624
3301.284, 90.39294
3303.212, 89.41916
3305.141, 88.25835
3307.069, 88.01515
3308.998, 88.20133
3310.926, 89.01875
3312.855, 89.17472
3314.783, 88.14743
3316.712, 87.37483
3318.640, 87.12027
3320.569, 87.02120
3322.497, 87.07124
3324.426, 87.48890
3326.354, 87.97073
3328.282, 88.08622
3330.211, 87.79729
3332.139, 86.61670
3334.068, 85.83804
3335.996, 86.25961
3337.925, 86.67025
3339.853, 86.90588
3341.782, 87.01138
3343.710, 87.00296
3345.639, 87.08459
3347.567, 87.12987
3349.496, 86.66245
3351.424, 86.10957
3353.353, 85.93069
3355.281, 85.78825
3357.209, 85.42522
3359.138, 85.29029
3361.066, 85.54929
3362.995, 85.38571
3364.923, 84.75263
3366.852, 85.14550
3368.780, 85.80687
3370.709, 84.41731
3372.637, 82.70366
3374.566, 82.54253
3376.494, 82.97222
3378.423, 83.82811
3380.351, 84.40142
3382.280, 84.67297
3384.208, 83.74554
3386.136, 83.81884
3388.065, 83.31628
3389.993, 82.77630
3391.922, 82.47661
3393.850, 81.86370
3395.779, 81.68182
3397.707, 81.70808
3399.636, 82.15318
3401.564, 82.02049
3403.493, 81.12623
3405.421, 81.01157
3407.350, 81.60461
3409.278, 81.88318
3411.207, 81.83150
3413.135, 81.13408
3415.063, 80.60020
3416.992, 81.14483
3418.920, 81.51968
3420.849, 81.37348
3422.777, 81.12199
3424.706, 80.80785
3426.634, 80.40297
3428.563, 80.09898
3430.491, 80.84148
3432.420, 81.52051
3434.348, 80.33810
3436.277, 79.30583
3438.205, 79.42410
3440.134, 79.71004
3442.062, 80.06050
3443.990, 80.02696
3445.919, 80.18650
3447.847, 80.12514
3449.776, 80.04965
3451.704, 79.75784
3453.633, 79.30728
3455.561, 78.82918
3457.490, 78.45554
3459.418, 78.16679
3461.347, 78.34454
3463.275, 78.98697
3465.204, 79.21850
3467.132, 79.09725
3469.061, 78.54379
3470.989, 78.01800
3472.917, 77.94263
3474.846, 77.92950
3476.774, 77.84049
3478.703, 77.84252
3480.631, 77.94778
3482.560, 78.50536
3484.488, 78.14632
3486.417, 78.59021
3488.345, 77.76724
3490.274, 77.50513
3492.202, 77.42490
3494.131, 77.49490
3496.059, 77.23165
3497.988, 77.38970
3499.916, 76.66441
3501.844, 77.37952
3503.773, 77.11227
3505.701, 76.64352
3507.630, 77.06385
3509.558, 77.10860
3511.487, 77.08269
3513.415, 77.27623
3515.344, 76.99570
3517.272, 77.20750
3519.201, 76.66799
3521.129, 76.17432
3523.058, 75.81180
3524.986, 75.61223
3526.915, 75.64624
3528.843, 75.73104
3530.771, 76.36629
3532.700, 76.35506
3534.628, 76.78275
3536.557, 77.32459
3538.485, 77.24651
3540.414, 76.76505
3542.342, 76.91020
3544.271, 76.92158
3546.199, 76.46716
3548.128, 77.02917
3550.056, 76.70318
3551.985, 76.21221
3553.913, 75.80614
3555.842, 76.05514
3557.770, 76.39370
3559.698, 76.70801
3561.627, 76.40842
3563.555, 75.33980
3565.484, 74.98361
3567.412, 75.25050
3569.341, 75.55274
3571.269, 75.68839
3573.198, 75.83342
3575.126, 75.83704
3577.055, 75.69390
3578.983, 75.81262
3580.912, 75.82950
3582.840, 75.79963
3584.769, 75.87390
3586.697, 75.78244
3588.625, 75.52018
3590.554, 75.44841
3592.482, 75.32664
3594.411, 75.07693
3596.339, 74.95445
3598.268, 74.97218
3600.196, 75.22704
3602.125, 75.57253
3604.053, 75.83348
3605.982, 76.14089
3607.910, 76.27440
3609.839, 76.76436
3611.767, 76.37306
3613.696, 76.02365
3615.624, 75.78996
3617.552, 76.07689
3619.481, 76.12331
3621.409, 75.87225
3623.338, 75.94154
3625.266, 75.76894
3627.195, 75.72756
3629.123, 75.53814
3631.052, 75.47254
3632.980, 75.48296
3634.909, 75.47041
3636.837, 75.67737
3638.766, 76.29113
3640.694, 76.35215
3642.623, 75.85384
3644.551, 75.06690
3646.479, 74.45165
3648.408, 74.94375
3650.336, 75.22910
3652.265, 74.63573
3654.193, 74.46019
3656.122, 74.89987
3658.050, 74.77534
3659.979, 74.29538
3661.907, 73.56699
3663.836, 73.25919
3665.764, 74.02723
3667.693, 74.37283
3669.621, 73.97497
3671.550, 73.12608
3673.478, 72.25195
3675.406, 72.39314
3677.335, 72.99524
3679.263, 74.14038
3681.192, 74.30788
3683.120, 73.00626
3685.049, 72.74152
3686.977, 73.27953
3688.906, 74.02651
3690.834, 74.46550
3692.763, 73.87088
3694.691, 73.41783
3696.620, 73.33858
3698.548, 73.31179
3700.477, 73.32021
3702.405, 73.33788
3704.333, 73.46235
3706.262, 73.91765
3708.190, 74.22224
3710.119, 74.28175
3712.047, 73.93428
3713.976, 73.38803
3715.904, 73.44598
3717.833, 73.74796
3719.761, 74.41145
3721.690, 74.20066
3723.618, 74.21404
3725.547, 72.73649
3727.475, 73.52821
3729.404, 72.71500
3731.332, 72.02248
3733.260, 73.23519
3735.189, 74.05163
3737.117, 74.08066
3739.046, 73.59764
3740.974, 73.07207
3742.903, 74.17259
3744.831, 75.23268
3746.760, 74.94339
3748.688, 74.52636
3750.617, 74.16190
3752.545, 74.52513
3754.474, 75.22202
3756.402, 75.41424
3758.331, 75.35894
3760.259, 75.09270
3762.188, 74.78791
3764.116, 74.48286
3766.044, 74.66174
3767.973, 75.04894
3769.901, 75.22899
3771.830, 75.29986
3773.758, 75.39431
3775.687, 75.00816
3777.615, 75.20018
3779.544, 74.60494
3781.472, 75.09325
3783.401, 74.61257
3785.329, 74.13943
3787.258, 73.83588
3789.186, 74.41848
3791.115, 75.48355
3793.043, 75.53288
3794.971, 75.26791
3796.900, 75.31519
3798.828, 75.11335
3800.757, 75.19262
3802.685, 75.20840
3804.614, 75.36012
3806.542, 75.44521
3808.471, 75.47871
3810.399, 75.82589
3812.328, 75.83669
3814.256, 76.09348
3816.185, 75.84938
3818.113, 76.44107
3820.042, 76.56223
3821.970, 76.50597
3823.898, 76.34339
3825.827, 76.43511
3827.755, 76.64127
3829.684, 76.14513
3831.612, 75.63330
3833.541, 75.48425
3835.469, 76.05694
3837.398, 75.89787
3839.326, 77.13314
3841.255, 76.29070
3843.183, 76.37326
3845.112, 76.42351
3847.040, 75.87379
3848.969, 75.62981
3850.897, 75.72964
3852.825, 76.23061
3854.754, 76.62988
3856.682, 76.30265
3858.611, 76.41682
3860.539, 77.28047
3862.468, 77.26516
3864.396, 76.70115
3866.325, 75.79919
3868.253, 75.60255
3870.182, 76.83353
3872.110, 77.41300
3874.039, 77.31377
3875.967, 77.02098
3877.896, 76.84985
3879.824, 77.19687
3881.752, 77.39373
3883.681, 77.32752
3885.609, 77.28296
3887.538, 77.37169
3889.466, 77.88346
3891.395, 78.12668
3893.323, 77.82539
3895.252, 78.20531
3897.180, 78.98939
3899.109, 78.83714
3901.037, 78.37479
3902.966, 77.84887
3904.894, 78.04530
3906.823, 78.84151
3908.751, 79.12218
3910.679, 79.04021
3912.608, 78.54298
3914.536, 78.36218
3916.465, 78.66546
3918.393, 78.98381
3920.322, 79.12000
3922.250, 78.33350
3924.179, 77.96706
3926.107, 78.51283
3928.036, 79.00753
3929.964, 79.35800
3931.893, 79.58096
3933.821, 79.51646
3935.750, 79.85490
3937.678, 78.78137
3939.606, 80.16746
3941.535, 80.77779
3943.463, 80.76303
3945.392, 79.74181
3947.320, 79.49876
3949.249, 80.34041
3951.177, 80.64274
3953.106, 80.53648
3955.034, 80.33626
3956.963, 80.05232
3958.891, 79.48669
3960.820, 79.50088
3962.748, 79.95006
3964.677, 80.44565
3966.605, 81.00608
3968.533, 81.74893
3970.462, 81.98624
3972.390, 81.71243
3974.319, 81.18068
3976.247, 80.81384
3978.176, 80.94888
3980.104, 81.36229
3982.033, 81.76024
3983.961, 82.14564
3985.890, 82.32905
3987.818, 81.43472
3989.747, 81.21230
3991.675, 81.90783
3993.604, 82.42723
3995.532, 82.67947
3997.460, 82.44798
3999.389, 82.14957
4001.317, 81.77398
4003.246, 82.08157
4005.174, 82.88322
4007.103, 83.25803
4009.031, 83.32572
4010.960, 83.55370
4012.888, 83.09206
4014.817, 83.43940
4016.745, 83.10088
4018.674, 82.97337
4020.602, 83.87761
4022.531, 84.44359
4024.459, 84.48329
4026.387, 84.52551
4028.316, 84.44506
4030.244, 84.57607
4032.173, 84.69628
4034.101, 84.79399
4036.030, 84.94749
4037.958, 84.93601
4039.887, 84.46878
4041.815, 84.86107
4043.744, 84.51591
4045.672, 84.34169
4047.601, 84.90713
4049.529, 85.59798
4051.458, 86.10762
4053.386, 86.55418
4055.314, 86.43723
4057.243, 86.43165
4059.171, 86.87718
4061.100, 86.59524
4063.028, 85.20741
4064.957, 86.83510
4066.885, 86.84942
4068.814, 87.18439
4070.742, 88.40636
4072.671, 87.96396
4074.599, 87.93783
4076.528, 87.46391
4078.456, 87.84011
4080.385, 88.26556
4082.313, 88.07390
4084.241, 88.04664
4086.170, 88.87631
4088.098, 89.53602
4090.027, 89.72474
4091.955, 89.37312
4093.884, 89.39980
4095.812, 90.03563
4097.741, 90.75188
4099.669, 91.17712
4101.598, 91.49393
4103.526, 91.19784
4105.455, 91.75808
4107.383, 91.79341
4109.312, 91.68420
4111.240, 92.30173
4113.168, 92.91057
4115.097, 92.91727
4117.025, 93.20244
4118.954, 94.85181
4120.882, 95.67458
4122.811, 95.24708
4124.739, 96.83096
4126.668, 97.68448
4128.596, 96.43958
4130.525, 96.66994
4132.453, 97.78701
4134.382, 99.30439
4136.310, 99.48870
4138.239, 98.40818
4140.167, 98.61196
4142.096, 99.61235
4144.024, 99.95507
4145.953, 100.3583
4147.881, 101.5546
4149.810, 102.8781
4151.738, 103.7414
4153.667, 103.8634
4155.595, 103.9983
4157.523, 103.8718
4159.452, 104.1793
4161.380, 105.0893
4163.309, 106.5983
4165.237, 107.5023
4167.166, 107.2522
4169.094, 107.5588
4171.022, 108.3586
4172.951, 109.5958
4174.879, 110.8075
4176.808, 111.5661
4178.736, 113.2859
4180.665, 115.0775
4182.593, 114.6374
4184.522, 115.0532
4186.450, 117.2180
4188.379, 117.7841
4190.307, 117.8153
4192.236, 118.9362
4194.164, 120.2028
4196.093, 121.4980
4198.021, 123.3735
4199.950, 125.2062
4201.878, 126.1866
4203.807, 127.2831
4205.735, 128.5980
4207.664, 129.6894
4209.592, 130.5283
4211.521, 130.8995
4213.449, 131.8088
4215.377, 133.1877
4217.306, 133.1492
4219.234, 133.3515
4221.163, 135.2708
4223.091, 136.5201
4225.020, 137.0222
4226.948, 137.4672
4228.876, 138.3892
4230.805, 138.9310
4232.733, 139.8813
4234.662, 140.6409
4236.590, 141.8952
4238.519, 143.4104
4240.447, 144.6115
4242.376, 145.8770
4244.304, 146.8392
4246.233, 146.2063
4248.161, 146.0860
4250.090, 147.1824
4252.018, 147.5891
4253.947, 147.9718
4255.875, 149.4855
4257.804, 150.8539
4259.732, 151.8222
4261.661, 152.2833
4263.589, 152.6429
4265.518, 153.3227
4267.446, 153.5794
4269.375, 153.5236
4271.303, 155.1214
4273.231, 156.5955
4275.160, 156.7424
4277.088, 157.4062
4279.017, 158.3904
4280.945, 158.5583
4282.874, 158.7935
4284.802, 159.4384
4286.730, 160.2064
4288.659, 160.8448
4290.587, 160.9687
4292.516, 160.6892
4294.444, 161.6274
4296.373, 161.3587
4298.301, 162.9603
4300.230, 163.2709
4302.158, 163.6708
4304.087, 164.2012
4306.015, 163.6725
4307.944, 163.4597
4309.872, 164.3314
4311.801, 165.2991
4313.729, 166.3414
4315.658, 167.9108
4317.586, 168.9246
4319.515, 169.1110
4321.443, 169.0797
4323.372, 169.1461
4325.300, 169.7883
4327.229, 169.6616
4329.157, 169.0781
4331.085, 172.1016
4333.014, 174.2473
4334.942, 172.5950
4336.871, 173.0164
4338.799, 174.7878
4340.728, 175.5862
4342.656, 175.1660
4344.584, 173.6310
4346.513, 174.4390
4348.441, 176.3701
4350.370, 178.3263
4352.298, 179.7978
4354.227, 180.5691
4356.155, 179.7393
4358.084, 178.8721
4360.012, 178.7629
4361.941, 179.6824
4363.869, 180.8129
4365.798, 180.4603
4367.726, 180.2092
4369.655, 180.4855
4371.583, 182.5983
4373.512, 185.0072
4375.440, 186.7686
4377.369, 186.7661
4379.297, 185.6168
4381.226, 185.1550
4383.154, 185.4040
4385.083, 186.4983
4387.011, 187.5264
4388.939, 187.8937
4390.868, 188.6673
4392.796, 189.5315
4394.725, 189.4999
4396.653, 191.5458
4398.582, 191.8434
4400.510, 193.4453
4402.438, 191.6091
4404.367, 194.3966
4406.295, 191.8867
4408.224, 191.3121
4410.152, 193.2572
4412.081, 194.1805
4414.009, 195.1073
4415.938, 196.7411
4417.866, 198.6211
4419.795, 199.4872
4421.723, 195.9758
4423.652, 194.6948
4425.580, 196.8322
4427.509, 199.4150
4429.437, 201.0650
4431.366, 200.4184
4433.294, 199.5567
4435.223, 199.2652
4437.151, 201.2514
4439.080, 203.7473
4441.008, 206.2672
4442.937, 205.8024
4444.865, 205.3028
4446.793, 206.5907
4448.722, 207.7324
4450.650, 208.5018
4452.579, 208.5965
4454.507, 209.0279
4456.436, 209.9108
4458.364, 210.4588
4460.292, 211.2670
4462.221, 212.9371
4464.149, 213.9327
4466.078, 214.5493
4468.006, 215.2455
4469.935, 216.0864
4471.863, 216.9930
4473.792, 217.3875
4475.720, 217.6435
4477.649, 217.9151
4479.577, 218.6237
4481.506, 219.6587
4483.434, 221.1208
4485.363, 221.5389
4487.291, 221.3477
4489.220, 223.5040
4491.148, 224.4108
4493.077, 225.0959
4495.005, 224.3168
4496.934, 226.5065
4498.862, 226.3307
4500.791, 226.4647
4502.719, 226.8831
4504.647, 226.1419
4506.576, 228.1198
4508.504, 228.1736
4510.433, 231.3440
4512.361, 229.5536
4514.290, 233.2912
4516.218, 233.8705
4518.146, 232.7101
4520.075, 232.0540
4522.003, 233.8294
4523.932, 237.2140
4525.860, 237.4576
4527.789, 237.4356
4529.717, 238.3514
4531.646, 239.9213
4533.574, 241.6134
4535.503, 243.1781
4537.431, 242.9208
4539.360, 242.2679
4541.288, 245.2939
4543.217, 246.4104
4545.145, 245.1918
4547.074, 245.4192
4549.002, 245.9136
4550.931, 245.8642
4552.859, 248.7863
4554.788, 251.5445
4556.716, 249.7412
4558.645, 249.8859
4560.573, 251.8317
4562.501, 254.4579
4564.430, 256.3590
4566.358, 257.1664
4568.287, 258.0141
4570.215, 254.9033
4572.144, 258.0034
4574.072, 257.5666
4576.000, 257.2038
4577.929, 262.5814
4579.857, 264.1678
4581.786, 263.3921
4583.714, 265.3412
4585.643, 265.4863
4587.571, 263.7390
4589.500, 265.2465
4591.428, 266.9708
4593.357, 267.6855
4595.285, 269.5040
4597.214, 271.1808
4599.142, 271.2771
4601.071, 271.3973
4602.999, 271.7361
4604.928, 272.4474
4606.856, 273.9261
4608.785, 275.8383
4610.713, 276.9235
4612.642, 277.0855
4614.570, 276.6614
4616.499, 279.7491
4618.427, 282.8683
4620.355, 283.7866
4622.284, 283.5844
4624.212, 283.0162
4626.141, 282.5750
4628.069, 283.9879
4629.998, 284.2526
4631.926, 286.0764
4633.854, 286.8515
4635.783, 288.6549
4637.711, 290.9447
4639.640, 291.1633
4641.568, 288.4410
4643.497, 288.0530
4645.425, 289.9752
4647.354, 294.3414
4649.282, 296.8919
4651.211, 297.3937
4653.139, 294.5237
4655.068, 295.5858
4656.996, 298.3589
4658.925, 297.2248
4660.853, 299.2269
4662.782, 303.5398
4664.710, 303.5399
4666.639, 303.3541
4668.567, 304.0163
4670.496, 304.8582
4672.424, 306.8994
4674.353, 310.9884
4676.281, 312.2174
4678.209, 311.9699
4680.138, 311.0654
4682.066, 309.8055
4683.995, 309.6586
4685.923, 312.9557
4687.852, 314.1996
4689.780, 314.8106
4691.708, 316.6628
4693.637, 317.5863
4695.565, 318.5801
4697.494, 319.5750
4699.422, 320.3099
4701.351, 320.3339
4703.279, 321.2670
4705.208, 323.3745
4707.136, 323.0161
4709.065, 325.1743
4710.993, 324.1096
4712.922, 326.6049
4714.850, 328.7614
4716.779, 330.1244
4718.707, 330.0438
4720.636, 332.3027
4722.564, 332.5016
4724.493, 333.6223
4726.421, 333.7071
4728.350, 334.6585
4730.278, 335.2202
4732.207, 336.8373
4734.135, 338.7231
4736.063, 336.9322
4737.992, 339.3967
4739.920, 340.5549
4741.849, 345.0347
4743.777, 344.4863
4745.706, 345.8102
4747.634, 348.0923
4749.563, 349.4695
4751.491, 349.1111
4753.419, 349.6979
4755.348, 350.8211
4757.276, 352.2549
4759.205, 353.1255
4761.133, 353.9661
4763.062, 355.4066
4764.990, 356.0073
4766.919, 356.2600
4768.847, 356.3963
4770.776, 359.5160
4772.704, 362.4869
4774.633, 360.6496
4776.561, 360.0965
4778.490, 360.3322
4780.418, 358.9537
4782.347, 362.3340
4784.275, 367.8394
4786.204, 368.6124
4788.132, 369.0410
4790.061, 369.7210
4791.989, 370.0731
4793.917, 371.6913
4795.846, 372.1877
4797.774, 374.2186
4799.703, 374.2637
4801.631, 374.9605
4803.560, 376.6848
4805.488, 379.9390
4807.417, 384.1037
4809.345, 382.7961
4811.273, 380.7920
4813.202, 380.1010
4815.130, 383.9044
4817.059, 387.6397
4818.987, 389.4182
4820.916, 388.2786
4822.844, 388.8119
4824.773, 392.5394
4826.701, 394.6236
4828.630, 394.3010
4830.558, 396.5526
4832.487, 394.6022
4834.415, 397.6747
4836.344, 396.2168
4838.272, 395.4130
4840.201, 396.6627
4842.129, 401.1871
4844.058, 402.7917
4845.986, 402.4397
4847.915, 400.6451
4849.843, 405.6506
4851.771, 410.0924
4853.700, 407.6617
4855.628, 407.2823
4857.557, 408.5685
4859.485, 411.1080
4861.414, 413.8875
4863.342, 415.1280
4865.271, 417.2824
4867.199, 416.5240
4869.127, 419.9199
4871.056, 416.9499
4872.984, 416.7404
4874.913, 418.6857
4876.841, 422.1187
4878.770, 423.8405
4880.698, 424.8817
4882.627, 426.1617
4884.555, 427.5529
4886.484, 428.9274
4888.412, 430.2483
4890.341, 430.3694
4892.269, 431.6680
4894.198, 432.2380
4896.126, 432.4666
4898.055, 433.6055
4899.983, 433.4466
4901.912, 434.1510
4903.840, 435.8547
4905.769, 439.3983
4907.697, 440.3556
4909.625, 440.1752
4911.554, 439.8479
4913.482, 440.5492
4915.411, 442.1636
4917.339, 444.7430
4919.268, 447.3369
4921.196, 448.5363
4923.125, 447.6768
4925.053, 448.3140
4926.981, 448.4926
4928.910, 446.9890
4930.838, 447.9191
4932.767, 449.6918
4934.695, 451.5486
4936.624, 453.6413
4938.552, 454.7546
4940.481, 454.6478
4942.409, 457.5540
4944.338, 458.6487
4946.266, 456.7900
4948.195, 458.3329
4950.123, 461.4191
4952.052, 464.4899
4953.980, 461.6573
4955.909, 461.1587
4957.837, 464.1882
4959.766, 466.3886
4961.694, 467.1906
4963.623, 467.4121
4965.551, 470.4760
4967.479, 470.1132
4969.408, 471.7440
4971.336, 472.7379
4973.265, 473.9944
4975.193, 472.9626
4977.122, 473.8885
4979.050, 475.7237
4980.979, 478.0596
4982.907, 481.3721
4984.835, 480.8538
4986.764, 480.0550
4988.692, 483.1878
4990.621, 484.4123
4992.549, 485.4026
4994.478, 488.6476
4996.406, 486.1422
4998.335, 486.3237
5000.263, 487.9456
5002.192, 487.9704
5004.120, 490.3751
5006.049, 490.7738
5007.977, 491.8873
5009.906, 493.1245
5011.834, 494.2593
5013.763, 495.1771
5015.691, 495.9168
5017.620, 496.6747
5019.548, 498.2207
5021.477, 499.7648
5023.405, 500.9776
5025.333, 501.9254
5027.262, 502.1529
5029.190, 503.1259
5031.119, 503.9507
5033.047, 503.9195
5034.976, 506.2310
5036.904, 506.2466
5038.833, 507.6499
5040.761, 510.4642
5042.689, 514.5100
5044.618, 515.2986
5046.546, 513.8578
5048.475, 511.0418
5050.403, 512.7742
5052.332, 515.5243
5054.260, 517.5508
5056.189, 515.4745
5058.117, 515.1796
5060.046, 516.9318
5061.974, 517.8128
5063.903, 519.2667
5065.831, 521.0460
5067.760, 522.5528
5069.688, 522.7257
5071.617, 522.2078
5073.545, 521.5955
5075.474, 523.9760
5077.402, 527.7405
5079.331, 531.9973
5081.259, 532.4526
5083.188, 531.7573
5085.116, 531.2050
5087.044, 531.6906
5088.973, 534.3644
5090.901, 538.1435
5092.830, 538.5989
5094.758, 536.7569
5096.687, 535.3566
5098.615, 539.2599
5100.543, 539.5059
5102.472, 539.7675
5104.400, 545.2760
5106.329, 548.1493
5108.257, 547.9504
5110.186, 544.5138
5112.114, 546.3211
5114.043, 549.1583
5115.971, 551.0889
5117.900, 549.4154
5119.828, 549.8229
5121.757, 552.3475
5123.685, 554.3546
5125.614, 555.0238
5127.542, 556.4356
5129.471, 561.4976
5131.399, 558.9652
5133.328, 556.2369
5135.256, 558.9236
5137.185, 562.0512
5139.113, 564.6682
5141.042, 566.2348
5142.970, 564.2137
5144.898, 567.6463
5146.827, 573.4819
5148.755, 570.3175
5150.684, 571.3271
5152.612, 573.7539
5154.541, 573.0256
5156.469, 573.1962
5158.397, 574.5273
5160.326, 576.8528
5162.254, 578.6931
5164.183, 578.4026
5166.111, 576.4003
5168.040, 574.9648
5169.968, 577.0240
5171.897, 580.0091
5173.825, 579.0912
5175.754, 583.0154
5177.682, 587.1019
5179.611, 587.4266
5181.539, 589.6114
5183.468, 589.7832
5185.396, 591.3586
5187.325, 590.0027
5189.253, 593.1195
5191.182, 595.0830
5193.110, 593.9013
5195.039, 593.0899
5196.967, 593.9631
5198.896, 594.5916
5200.824, 596.9276
5202.752, 597.3458
5204.681, 600.7386
5206.609, 601.4969
5208.538, 602.1852
5210.466, 603.0851
5212.395, 604.2646
5214.323, 602.1682
5216.251, 600.7268
5218.180, 603.4584
5220.108, 603.1317
5222.037, 604.4680
5223.965, 608.0232
5225.894, 608.2059
5227.822, 610.1524
5229.751, 612.1485
5231.679, 609.1977
5233.608, 607.7395
5235.536, 609.7635
5237.465, 608.6944
5239.393, 613.7852
5241.322, 611.7489
5243.250, 612.2548
5245.179, 617.0177
5247.107, 616.1593
5249.036, 614.1101
5250.964, 617.8703
5252.893, 618.7504
5254.821, 619.7448
5256.750, 621.6371
5258.678, 622.3741
5260.606, 619.9811
5262.535, 624.9560
5264.463, 622.6600
5266.392, 624.5900
5268.320, 626.5472
5270.249, 625.0764
5272.177, 626.0150
5274.105, 628.9545
5276.034, 631.9705
5277.962, 629.5037
5279.891, 628.5191
5281.819, 629.4605
5283.748, 631.9507
5285.676, 630.6604
5287.605, 631.1368
5289.533, 630.7697
5291.462, 630.9065
5293.390, 632.7676
5295.319, 635.2032
5297.247, 638.4631
5299.176, 637.2621
5301.104, 635.9557
5303.033, 636.7499
5304.961, 638.6459
5306.890, 639.2732
5308.818, 639.3847
5310.747, 641.0935
5312.675, 640.8855
5314.604, 640.6990
5316.532, 641.9050
5318.460, 645.1348
5320.389, 644.6502
5322.317, 643.1024
5324.246, 648.5957
5326.174, 644.3675
5328.103, 640.9537
5330.031, 644.7864
5331.959, 645.7894
5333.888, 644.6501
5335.816, 644.3467
5337.745, 646.6611
5339.673, 651.9113
5341.602, 650.7247
5343.530, 652.2983
5345.459, 652.9139
5347.387, 653.7773
5349.316, 654.8898
5351.244, 656.0624
5353.173, 654.0366
5355.101, 654.2009
5357.030, 658.9939
5358.958, 657.4939
5360.887, 660.3715
5362.815, 664.5533
5364.744, 661.7097
5366.672, 661.5714
5368.601, 663.4541
5370.529, 665.9625
5372.458, 666.0967
5374.386, 666.0770
5376.314, 665.8927
5378.243, 664.6716
5380.171, 667.3400
5382.100, 668.2679
5384.028, 666.3287
5385.957, 665.9379
5387.885, 666.0238
5389.813, 667.1158
5391.742, 669.8241
5393.670, 671.7618
5395.599, 670.8385
5397.527, 669.1669
5399.456, 669.4557
5401.384, 671.3602
5403.313, 667.5117
5405.241, 669.3240
5407.170, 667.7844
5409.098, 672.8543
5411.027, 669.9100
5412.955, 673.8762
5414.884, 676.8947
5416.812, 676.5793
5418.741, 673.5524
5420.669, 674.5479
5422.598, 674.8529
5424.526, 674.4633
5426.455, 674.3167
5428.383, 679.1099
5430.312, 681.7479
5432.240, 681.2993
5434.168, 680.2210
5436.097, 677.7197
5438.025, 676.4464
5439.954, 677.8258
5441.882, 683.1747
5443.811, 684.3839
5445.739, 683.8886
5447.667, 685.5262
5449.596, 683.5884
5451.524, 683.2907
5453.453, 684.3923
5455.381, 681.4691
5457.310, 682.3007
5459.238, 684.5436
5461.167, 686.1114
5463.095, 686.8194
5465.024, 688.4044
5466.952, 687.5010
5468.881, 689.7609
5470.809, 688.5433
5472.738, 687.4644
5474.666, 687.2222
5476.595, 686.5042
5478.523, 688.5631
5480.452, 690.4498
5482.380, 691.0466
5484.309, 692.7496
5486.237, 690.4399
5488.166, 688.9990
5490.094, 691.8108
5492.022, 688.1614
5493.951, 688.4623
5495.879, 691.6084
5497.808, 693.0060
5499.736, 695.4611
##END=



