##NAMES=Avdoninite
##RRUFFID=R070080
##IDEAL CHEMISTRY=K_2_Cu_5_Cl_8_(OH)_4_·2H_2_O
##LOCALITY=main fracture, N breakthrough, Tolbachik Volcano, Kamchtka Peninsula, Russia
##OWNER=RRUFF
##SOURCE=Michael Scott
##DESCRIPTION=Bright apple-green crust, co-type material, associated with pale bluish green eriochalcite
##STATUS=The identification of this mineral is not yet confirmed
##URL=https://www.rruff.net/odr/rruff_sample/R070080
##FILETYPE=Raman RAW
##RAMAN WAVELENGTH=532

115.2212, 884.2746
117.1497, 1031.817
119.0781, 1187.281
121.0066, 1349.667
122.9351, 1518.673
124.8635, 1688.731
126.7920, 1857.890
128.7205, 2030.314
130.6489, 2208.010
132.5774, 2400.391
134.5059, 2583.677
136.4343, 2757.624
138.3628, 2919.824
140.2913, 3065.298
142.2197, 3186.650
144.1482, 3293.718
146.0767, 3391.472
148.0051, 3477.092
149.9336, 3557.780
151.8621, 3636.306
153.7905, 3712.805
155.7190, 3776.369
157.6475, 3824.199
159.5759, 3860.424
161.5044, 3885.865
163.4329, 3895.589
165.3613, 3906.896
167.2898, 3924.571
169.2183, 3949.154
171.1467, 3978.044
173.0752, 4008.860
175.0037, 4045.334
176.9321, 4089.976
178.8606, 4147.548
180.7891, 4207.142
182.7175, 4265.496
184.6460, 4323.294
186.5745, 4382.290
188.5029, 4449.743
190.4314, 4515.004
192.3599, 4566.924
194.2883, 4592.740
196.2168, 4616.803
198.1453, 4646.885
200.0737, 4681.438
202.0022, 4707.281
203.9307, 4720.898
205.8591, 4726.403
207.7876, 4724.353
209.7161, 4718.399
211.6445, 4701.005
213.5730, 4664.761
215.5014, 4609.997
217.4299, 4560.780
219.3584, 4531.111
221.2868, 4501.593
223.2153, 4448.877
225.1438, 4364.628
227.0723, 4275.840
229.0007, 4187.698
230.9292, 4098.937
232.8577, 4031.941
234.7861, 3993.473
236.7146, 3970.664
238.6431, 3952.449
240.5715, 3936.578
242.5000, 3931.232
244.4285, 3938.667
246.3569, 3960.985
248.2854, 3988.099
250.2139, 4028.870
252.1423, 4067.474
254.0708, 4090.121
255.9993, 4079.787
257.9277, 4071.110
259.8562, 4070.212
261.7847, 4077.398
263.7131, 4088.139
265.6416, 4114.543
267.5701, 4130.579
269.4985, 4125.289
271.4270, 4088.488
273.3555, 4055.000
275.2839, 4023.603
277.2124, 3994.035
279.1409, 3968.122
281.0693, 3947.182
282.9978, 3929.312
284.9263, 3915.408
286.8547, 3906.346
288.7832, 3901.504
290.7117, 3899.182
292.6401, 3897.232
294.5686, 3896.347
296.4971, 3893.687
298.4255, 3896.628
300.3540, 3902.432
302.2825, 3910.659
304.2109, 3939.042
306.1394, 3999.640
308.0679, 4078.727
309.9963, 4166.934
311.9248, 4259.912
313.8533, 4368.011
315.7817, 4500.681
317.7102, 4654.274
319.6387, 4812.108
321.5671, 4974.493
323.4956, 5135.603
325.4241, 5296.581
327.3525, 5460.674
329.2810, 5620.124
331.2095, 5777.956
333.1379, 5921.000
335.0664, 6002.300
336.9948, 6001.960
338.9233, 5959.080
340.8518, 5876.053
342.7802, 5755.244
344.7087, 5614.272
346.6372, 5487.212
348.5656, 5350.261
350.4941, 5176.189
352.4226, 4958.932
354.3510, 4744.492
356.2795, 4536.382
358.2080, 4333.607
360.1364, 4144.933
362.0649, 3975.229
363.9934, 3815.696
365.9218, 3661.554
367.8503, 3512.092
369.7788, 3380.344
371.7072, 3267.884
373.6357, 3165.241
375.5642, 3060.637
377.4926, 2943.853
379.4211, 2846.880
381.3496, 2780.771
383.2780, 2737.307
385.2065, 2693.517
387.1350, 2652.033
389.0634, 2617.945
390.9919, 2591.471
392.9204, 2563.236
394.8488, 2546.945
396.7773, 2560.787
398.7058, 2593.743
400.6342, 2621.546
402.5627, 2628.396
404.4912, 2644.240
406.4196, 2681.324
408.3481, 2737.138
410.2766, 2794.331
412.2050, 2852.461
414.1335, 2909.728
416.0620, 2965.456
417.9904, 3025.494
419.9189, 3072.785
421.8474, 3099.124
423.7758, 3106.021
425.7043, 3103.729
427.6328, 3090.234
429.5612, 3058.177
431.4897, 3000.408
433.4182, 2925.825
435.3466, 2862.096
437.2751, 2822.352
439.2036, 2780.669
441.1320, 2718.159
443.0605, 2620.938
444.9890, 2535.781
446.9174, 2472.890
448.8459, 2423.256
450.7744, 2367.925
452.7029, 2303.054
454.6313, 2243.348
456.5598, 2191.159
458.4883, 2141.805
460.4167, 2100.153
462.3452, 2077.494
464.2737, 2061.489
466.2021, 2042.514
468.1306, 2010.558
470.0591, 1986.566
471.9875, 1982.717
473.9160, 1991.676
475.8445, 1995.842
477.7729, 1986.009
479.7014, 1982.232
481.6299, 1993.023
483.5583, 2012.413
485.4868, 2032.892
487.4153, 2064.788
489.3437, 2095.567
491.2722, 2114.413
493.2007, 2118.166
495.1291, 2134.372
497.0576, 2176.976
498.9861, 2228.023
500.9145, 2273.236
502.8430, 2309.482
504.7715, 2342.043
506.6999, 2374.318
508.6284, 2398.540
510.5569, 2410.672
512.4854, 2412.326
514.4138, 2401.409
516.3423, 2374.908
518.2708, 2329.024
520.1992, 2284.660
522.1277, 2254.086
524.0562, 2222.079
525.9846, 2178.251
527.9131, 2118.408
529.8416, 2055.194
531.7700, 1987.187
533.6985, 1922.574
535.6270, 1866.136
537.5554, 1818.395
539.4839, 1770.487
541.4124, 1717.447
543.3408, 1664.258
545.2693, 1618.418
547.1978, 1584.976
549.1262, 1553.205
551.0547, 1522.271
552.9832, 1491.847
554.9116, 1459.794
556.8401, 1420.954
558.7686, 1386.851
560.6970, 1363.151
562.6255, 1352.555
564.5540, 1342.444
566.4824, 1333.082
568.4109, 1324.066
570.3394, 1314.606
572.2678, 1304.696
574.1963, 1296.295
576.1248, 1292.322
578.0532, 1288.210
579.9817, 1280.072
581.9101, 1264.196
583.8386, 1251.851
585.7670, 1247.329
587.6955, 1246.768
589.6240, 1243.667
591.5524, 1236.846
593.4809, 1228.201
595.4094, 1217.256
597.3378, 1205.036
599.2663, 1196.146
601.1948, 1194.267
603.1232, 1191.505
605.0517, 1183.685
606.9802, 1170.886
608.9086, 1158.950
610.8371, 1149.015
612.7656, 1139.537
614.6940, 1129.473
616.6225, 1118.244
618.5510, 1108.176
620.4794, 1100.077
622.4079, 1093.582
624.3364, 1087.837
626.2648, 1083.888
628.1933, 1078.421
630.1218, 1068.063
632.0502, 1057.140
633.9787, 1053.260
635.9072, 1058.432
637.8356, 1063.172
639.7641, 1066.253
641.6926, 1067.368
643.6210, 1063.713
645.5495, 1046.725
647.4780, 1034.451
649.4064, 1034.586
651.3349, 1042.875
653.2634, 1045.812
655.1918, 1039.388
657.1203, 1031.503
659.0488, 1024.775
660.9772, 1020.458
662.9057, 1018.650
664.8342, 1022.111
666.7626, 1023.047
668.6911, 1019.149
670.6196, 1010.151
672.5480, 1004.746
674.4765, 1006.431
676.4050, 1013.503
678.3334, 1021.504
680.2619, 1030.513
682.1904, 1033.703
684.1188, 1027.349
686.0473, 1017.239
687.9758, 1011.987
689.9042, 1013.694
691.8327, 1018.279
693.7612, 1024.796
695.6896, 1029.641
697.6181, 1033.906
699.5466, 1039.654
701.4750, 1046.413
703.4035, 1047.563
705.3320, 1046.628
707.2604, 1055.175
709.1889, 1080.388
711.1174, 1099.901
713.0458, 1101.812
714.9743, 1097.014
716.9028, 1105.166
718.8312, 1129.594
720.7597, 1153.481
722.6882, 1170.956
724.6166, 1188.429
726.5451, 1210.416
728.4736, 1239.086
730.4020, 1269.405
732.3305, 1298.452
734.2590, 1322.536
736.1874, 1348.965
738.1159, 1382.073
740.0444, 1419.666
741.9728, 1456.204
743.9013, 1491.644
745.8298, 1520.666
747.7582, 1540.452
749.6867, 1554.164
751.6152, 1559.400
753.5436, 1555.673
755.4721, 1546.382
757.4006, 1532.394
759.3290, 1513.599
761.2575, 1491.484
763.1860, 1465.823
765.1144, 1438.943
767.0429, 1412.999
768.9714, 1383.225
770.8998, 1352.239
772.8283, 1327.558
774.7568, 1313.068
776.6852, 1306.181
778.6137, 1301.857
780.5422, 1299.084
782.4706, 1297.319
784.3991, 1299.014
786.3276, 1307.395
788.2560, 1323.876
790.1845, 1340.408
792.1130, 1360.376
794.0414, 1389.090
795.9699, 1427.576
797.8984, 1456.938
799.8268, 1484.001
801.7553, 1517.370
803.6838, 1560.568
805.6122, 1604.164
807.5407, 1645.755
809.4692, 1694.954
811.3976, 1749.362
813.3261, 1801.587
815.2546, 1848.999
817.1830, 1899.728
819.1115, 1945.364
821.0400, 1978.879
822.9684, 1997.865
824.8969, 2012.299
826.8254, 2022.625
828.7538, 2017.852
830.6823, 2000.340
832.6108, 1978.091
834.5392, 1955.462
836.4677, 1922.264
838.3962, 1875.390
840.3246, 1819.354
842.2531, 1756.653
844.1816, 1693.620
846.1100, 1640.244
848.0385, 1599.229
849.9670, 1565.404
851.8954, 1532.155
853.8239, 1493.917
855.7524, 1458.901
857.6808, 1432.485
859.6093, 1408.455
861.5378, 1383.070
863.4662, 1357.373
865.3947, 1337.246
867.3232, 1324.473
869.2516, 1314.963
871.1801, 1306.630
873.1086, 1299.984
875.0370, 1297.969
876.9655, 1301.058
878.8940, 1305.655
880.8224, 1307.961
882.7509, 1308.346
884.6794, 1319.288
886.6078, 1344.974
888.5363, 1366.536
890.4648, 1378.599
892.3932, 1390.223
894.3217, 1407.221
896.2502, 1424.294
898.1786, 1447.691
900.1071, 1483.641
902.0356, 1524.888
903.9641, 1559.708
905.8925, 1582.476
907.8210, 1609.359
909.7495, 1644.756
911.6779, 1680.156
913.6064, 1708.909
915.5349, 1726.480
917.4633, 1740.206
919.3918, 1756.417
921.3203, 1777.631
923.2487, 1804.493
925.1772, 1828.852
927.1057, 1838.057
929.0341, 1829.657
930.9626, 1820.051
932.8911, 1816.344
934.8195, 1815.241
936.7480, 1813.181
938.6765, 1810.609
940.6049, 1798.760
942.5334, 1774.265
944.4619, 1738.457
946.3903, 1700.065
948.3188, 1661.575
950.2473, 1618.714
952.1757, 1568.376
954.1042, 1520.826
956.0327, 1480.344
957.9611, 1443.380
959.8896, 1404.485
961.8181, 1356.593
963.7465, 1315.106
965.6750, 1289.834
967.6035, 1277.567
969.5319, 1259.200
971.4604, 1230.779
973.3889, 1204.989
975.3173, 1190.596
977.2458, 1179.191
979.1743, 1160.812
981.1027, 1134.133
983.0312, 1108.658
984.9597, 1085.309
986.8881, 1063.813
988.8166, 1045.237
990.7451, 1027.977
992.6735, 1011.244
994.6020, 996.7486
996.5305, 984.8805
998.4589, 969.4783
1000.387, 949.7267
1002.316, 932.3303
1004.244, 917.8226
1006.173, 905.0606
1008.101, 894.5405
1010.030, 887.7353
1011.958, 881.5455
1013.887, 874.9338
1015.815, 867.8522
1017.744, 862.7011
1019.672, 859.8771
1021.601, 856.2526
1023.529, 854.3781
1025.458, 849.2153
1027.386, 836.0129
1029.314, 819.9676
1031.243, 809.4374
1033.171, 805.8128
1035.100, 801.9311
1037.028, 796.2148
1038.957, 789.5262
1040.885, 782.2034
1042.814, 773.8384
1044.742, 766.4422
1046.671, 759.7675
1048.599, 754.4760
1050.528, 750.8126
1052.456, 748.8372
1054.385, 747.7567
1056.313, 748.5496
1058.241, 746.5559
1060.170, 738.1698
1062.098, 727.2899
1064.027, 719.4814
1065.955, 715.8973
1067.884, 713.0764
1069.812, 709.2589
1071.741, 706.8223
1073.669, 709.0498
1075.598, 717.4611
1077.526, 721.8620
1079.454, 720.7855
1081.383, 717.8801
1083.311, 713.7581
1085.240, 708.3652
1087.168, 703.3656
1089.097, 699.3729
1091.025, 693.7516
1092.954, 683.4511
1094.882, 673.9832
1096.811, 671.4022
1098.739, 680.0897
1100.668, 684.1002
1102.596, 679.1743
1104.525, 670.7233
1106.453, 662.5709
1108.381, 650.8093
1110.310, 647.0344
1112.238, 660.7787
1114.167, 676.2464
1116.095, 679.7462
1118.024, 672.9064
1119.952, 665.1817
1121.881, 655.6456
1123.809, 649.8743
1125.738, 652.3674
1127.666, 657.1461
1129.595, 656.9604
1131.523, 655.2719
1133.452, 653.8930
1135.380, 650.9103
1137.308, 646.0920
1139.237, 643.5214
1141.165, 644.0417
1143.094, 646.4589
1145.022, 651.2492
1146.951, 653.5183
1148.879, 649.7504
1150.808, 646.6097
1152.736, 646.8622
1154.665, 652.2481
1156.593, 655.2936
1158.522, 651.2596
1160.450, 643.9260
1162.379, 644.5048
1164.307, 652.4006
1166.235, 654.3663
1168.164, 645.8408
1170.092, 636.8458
1172.021, 636.8457
1173.949, 649.1982
1175.878, 654.1327
1177.806, 645.8525
1179.735, 639.1049
1181.663, 645.5885
1183.592, 657.0110
1185.520, 658.9851
1187.449, 648.7512
1189.377, 641.7299
1191.306, 644.7789
1193.234, 650.5021
1195.162, 650.5552
1197.091, 648.4668
1199.019, 649.9021
1200.948, 648.6275
1202.876, 643.4983
1204.805, 636.7672
1206.733, 636.6087
1208.662, 640.9887
1210.590, 646.1519
1212.519, 646.7195
1214.447, 638.9402
1216.376, 628.8884
1218.304, 626.2323
1220.233, 631.2934
1222.161, 633.6233
1224.089, 629.7544
1226.018, 626.1408
1227.946, 626.7468
1229.875, 630.1166
1231.803, 631.7907
1233.732, 631.3348
1235.660, 626.7473
1237.589, 617.9427
1239.517, 612.0860
1241.446, 617.8199
1243.374, 637.9458
1245.303, 644.4439
1247.231, 631.2457
1249.160, 619.4521
1251.088, 619.4966
1253.016, 626.6540
1254.945, 628.3474
1256.873, 632.5047
1258.802, 636.9034
1260.730, 632.4540
1262.659, 622.1365
1264.587, 615.1229
1266.516, 615.2827
1268.444, 617.2867
1270.373, 615.7288
1272.301, 615.2549
1274.230, 618.2625
1276.158, 622.7340
1278.087, 623.7181
1280.015, 623.9865
1281.943, 624.5624
1283.872, 622.8573
1285.800, 620.6858
1287.729, 618.4835
1289.657, 615.2320
1291.586, 613.4065
1293.514, 617.4778
1295.443, 620.2054
1297.371, 618.7142
1299.300, 614.2743
1301.228, 606.7935
1303.157, 593.3434
1305.085, 588.3015
1307.014, 604.2233
1308.942, 619.9042
1310.870, 619.9854
1312.799, 609.4373
1314.727, 605.1519
1316.656, 610.8914
1318.584, 615.9781
1320.513, 616.4396
1322.441, 616.5785
1324.370, 617.3675
1326.298, 617.6258
1328.227, 614.7849
1330.155, 607.5970
1332.084, 604.6288
1334.012, 608.4430
1335.941, 614.0711
1337.869, 614.5827
1339.797, 606.0197
1341.726, 603.2614
1343.654, 610.9120
1345.583, 618.2838
1347.511, 618.3523
1349.440, 612.2260
1351.368, 610.7794
1353.297, 617.7029
1355.225, 622.7695
1357.154, 618.9751
1359.082, 614.3995
1361.011, 612.4747
1362.939, 612.1917
1364.868, 616.4049
1366.796, 630.1497
1368.724, 639.2103
1370.653, 633.7202
1372.581, 623.2492
1374.510, 617.3865
1376.438, 617.2009
1378.367, 616.1927
1380.295, 611.2544
1382.224, 606.9698
1384.152, 606.6392
1386.081, 610.1625
1388.009, 614.3538
1389.938, 618.7637
1391.866, 621.3876
1393.795, 622.7674
1395.723, 625.0899
1397.651, 627.0295
1399.580, 628.5569
1401.508, 630.0082
1403.437, 631.1203
1405.365, 631.9205
1407.294, 632.8031
1409.222, 633.5934
1411.151, 635.0553
1413.079, 636.5326
1415.008, 634.7455
1416.936, 629.4422
1418.865, 622.6412
1420.793, 609.9929
1422.722, 600.8083
1424.650, 604.0240
1426.578, 614.8610
1428.507, 623.0811
1430.435, 629.0165
1432.364, 631.2667
1434.292, 626.6953
1436.221, 620.0574
1438.149, 614.8358
1440.078, 611.5014
1442.006, 609.7446
1443.935, 610.2684
1445.863, 609.3741
1447.792, 603.6156
1449.720, 599.2047
1451.649, 601.7904
1453.577, 609.3405
1455.505, 610.4153
1457.434, 598.3826
1459.362, 592.0403
1461.291, 598.7610
1463.219, 605.9299
1465.148, 604.9470
1467.076, 597.6939
1469.005, 592.5314
1470.933, 588.2624
1472.862, 587.0920
1474.790, 592.6769
1476.719, 598.1888
1478.647, 598.3030
1480.576, 594.4506
1482.504, 592.2788
1484.432, 591.5392
1486.361, 592.2363
1488.289, 594.0409
1490.218, 597.3338
1492.146, 605.1360
1494.075, 615.3653
1496.003, 618.2158
1497.932, 611.3063
1499.860, 604.1732
1501.789, 597.3103
1503.717, 592.6555
1505.646, 593.1720
1507.574, 596.0612
1509.503, 595.3382
1511.431, 590.8024
1513.359, 588.2095
1515.288, 588.7003
1517.216, 590.2258
1519.145, 593.7832
1521.073, 597.1732
1523.002, 596.2539
1524.930, 591.2936
1526.859, 590.6981
1528.787, 599.1680
1530.716, 604.9375
1532.644, 599.1151
1534.573, 591.5551
1536.501, 596.0568
1538.430, 614.0508
1540.358, 623.7618
1542.286, 617.0166
1544.215, 611.9224
1546.143, 616.1937
1548.072, 622.4700
1550.000, 623.6115
1551.929, 620.1780
1553.857, 616.7824
1555.786, 610.4728
1557.714, 609.7818
1559.643, 623.1586
1561.571, 634.2017
1563.500, 630.3676
1565.428, 616.2070
1567.357, 607.0671
1569.285, 602.4951
1571.214, 604.3540
1573.142, 620.9574
1575.070, 634.5553
1576.999, 635.0309
1578.927, 627.4961
1580.856, 622.0283
1582.784, 618.8339
1584.713, 619.3113
1586.641, 628.5229
1588.570, 635.8529
1590.498, 638.2593
1592.427, 636.8873
1594.355, 630.3514
1596.284, 618.7120
1598.212, 617.9686
1600.141, 640.0208
1602.069, 656.8314
1603.997, 663.5848
1605.926, 665.8981
1607.854, 667.7444
1609.783, 667.9608
1611.711, 662.3477
1613.640, 647.2022
1615.568, 639.1678
1617.497, 643.2001
1619.425, 649.1234
1621.354, 657.1161
1623.282, 662.5082
1625.211, 656.9863
1627.139, 640.1764
1629.068, 630.7280
1630.996, 632.3329
1632.924, 634.3322
1634.853, 637.9257
1636.781, 638.5424
1638.710, 628.2744
1640.638, 612.4340
1642.567, 610.3133
1644.495, 626.4571
1646.424, 635.3348
1648.352, 627.8391
1650.281, 621.1997
1652.209, 622.5129
1654.138, 627.1093
1656.066, 630.8232
1657.995, 633.3982
1659.923, 630.3127
1661.851, 616.9835
1663.780, 608.3809
1665.708, 611.7281
1667.637, 615.9834
1669.565, 613.5844
1671.494, 607.7638
1673.422, 604.8440
1675.351, 604.5313
1677.279, 609.1769
1679.208, 626.0598
1681.136, 636.9182
1683.065, 632.8887
1684.993, 623.9186
1686.922, 616.8592
1688.850, 612.0607
1690.778, 612.2157
1692.707, 620.7324
1694.635, 621.4882
1696.564, 603.4320
1698.492, 588.7357
1700.421, 588.2213
1702.349, 593.8835
1704.278, 597.7422
1706.206, 599.5983
1708.135, 596.3893
1710.063, 583.9810
1711.992, 576.1711
1713.920, 575.9212
1715.849, 579.5539
1717.777, 589.0322
1719.705, 599.4081
1721.634, 602.3031
1723.562, 597.1271
1725.491, 592.1021
1727.419, 586.0214
1729.348, 582.1482
1731.276, 583.0911
1733.205, 584.1033
1735.133, 581.1701
1737.062, 576.7623
1738.990, 576.0864
1740.919, 579.8614
1742.847, 582.9918
1744.776, 588.0829
1746.704, 588.7294
1748.632, 579.0798
1750.561, 569.7346
1752.489, 568.4309
1754.418, 572.2164
1756.346, 574.3214
1758.275, 573.9755
1760.203, 575.5767
1762.132, 584.6024
1764.060, 587.5023
1765.989, 576.4845
1767.917, 564.7162
1769.846, 560.1619
1771.774, 561.2261
1773.703, 564.7750
1775.631, 571.4771
1777.559, 577.5823
1779.488, 584.7378
1781.416, 588.6407
1783.345, 585.3990
1785.273, 582.2875
1787.202, 585.6326
1789.130, 591.2316
1791.059, 589.0544
1792.987, 577.4230
1794.916, 576.4472
1796.844, 596.1416
1798.773, 605.5737
1800.701, 586.7004
1802.630, 569.3829
1804.558, 568.9267
1806.486, 577.8900
1808.415, 587.7353
1810.343, 597.9484
1812.272, 599.0347
1814.200, 586.3759
1816.129, 580.6494
1818.057, 593.2261
1819.986, 602.8846
1821.914, 593.3707
1823.843, 580.3207
1825.771, 583.8069
1827.700, 598.0455
1829.628, 597.7857
1831.557, 579.5820
1833.485, 565.5983
1835.413, 558.7417
1837.342, 558.0651
1839.270, 568.9416
1841.199, 580.5616
1843.127, 583.3525
1845.056, 580.2747
1846.984, 579.0084
1848.913, 579.7667
1850.841, 577.3008
1852.770, 566.5052
1854.698, 562.4080
1856.627, 574.7024
1858.555, 587.6941
1860.484, 594.4916
1862.412, 595.4790
1864.340, 586.9858
1866.269, 569.9463
1868.197, 567.7695
1870.126, 595.9384
1872.054, 608.7393
1873.983, 592.6577
1875.911, 578.0167
1877.840, 576.4478
1879.768, 578.1809
1881.697, 573.7693
1883.625, 566.1853
1885.554, 564.8165
1887.482, 571.3489
1889.411, 574.3546
1891.339, 571.2307
1893.267, 569.6686
1895.196, 573.7355
1897.124, 576.4398
1899.053, 572.7525
1900.981, 567.5753
1902.910, 567.3204
1904.838, 570.5840
1906.767, 570.9381
1908.695, 567.8984
1910.624, 566.1060
1912.552, 568.4700
1914.481, 566.2515
1916.409, 547.8303
1918.338, 534.2413
1920.266, 546.6909
1922.194, 567.4837
1924.123, 569.2112
1926.051, 555.2096
1927.980, 547.0728
1929.908, 546.2593
1931.837, 546.7836
1933.765, 548.7043
1935.694, 550.8307
1937.622, 554.2164
1939.551, 556.2610
1941.479, 554.8600
1943.408, 551.1003
1945.336, 545.6866
1947.265, 538.7731
1949.193, 536.4033
1951.121, 541.5416
1953.050, 543.7553
1954.978, 540.0359
1956.907, 537.0865
1958.835, 534.8574
1960.764, 535.6617
1962.692, 543.6616
1964.621, 554.0206
1966.549, 558.7914
1968.478, 558.8570
1970.406, 560.1827
1972.335, 563.5679
1974.263, 562.8319
1976.192, 555.3771
1978.120, 547.7766
1980.048, 539.7993
1981.977, 535.2275
1983.905, 539.2405
1985.834, 545.9028
1987.762, 548.2811
1989.691, 546.6622
1991.619, 541.6779
1993.548, 531.3654
1995.476, 525.8754
1997.405, 530.4930
1999.333, 531.7118
2001.262, 522.7517
2003.190, 516.7330
2005.119, 523.4192
2007.047, 531.9849
2008.975, 530.7416
2010.904, 523.4543
2012.832, 520.3066
2014.761, 521.3044
2016.689, 522.0935
2018.618, 521.8809
2020.546, 524.7462
2022.475, 534.5297
2024.403, 540.8891
2026.332, 538.3658
2028.260, 532.8656
2030.189, 524.7624
2032.117, 518.3646
2034.046, 522.3932
2035.974, 533.8281
2037.902, 537.1430
2039.831, 530.3375
2041.759, 526.4313
2043.688, 529.3134
2045.616, 529.2162
2047.545, 522.7647
2049.473, 516.5485
2051.402, 511.7986
2053.330, 509.3639
2055.259, 510.3311
2057.187, 513.8575
2059.116, 519.8307
2061.044, 527.4403
2062.972, 530.3455
2064.901, 528.0995
2066.829, 524.5253
2068.758, 519.1793
2070.686, 515.3425
2072.615, 513.3226
2074.543, 513.9076
2076.472, 521.9072
2078.400, 528.2523
2080.329, 522.2391
2082.257, 510.9624
2084.186, 506.2853
2086.114, 508.0149
2088.042, 515.4989
2089.971, 533.9033
2091.899, 541.0015
2093.828, 530.5684
2095.756, 521.2853
2097.685, 514.0336
2099.613, 510.8622
2101.542, 514.7744
2103.470, 520.5914
2105.399, 528.4609
2107.327, 533.7032
2109.256, 527.2808
2111.184, 513.1871
2113.113, 504.1090
2115.041, 500.3042
2116.969, 501.1866
2118.898, 509.4838
2120.826, 514.8876
2122.755, 513.7033
2124.683, 513.2834
2126.612, 517.9415
2128.540, 520.7023
2130.469, 513.9140
2132.397, 506.8939
2134.326, 513.7371
2136.254, 525.7181
2138.183, 519.0140
2140.111, 497.7419
2142.040, 491.3146
2143.968, 501.7340
2145.896, 511.2059
2147.825, 519.2839
2149.753, 520.9263
2151.682, 506.6685
2153.610, 498.0619
2155.539, 508.6438
2157.467, 519.7054
2159.396, 517.6818
2161.324, 511.2100
2163.253, 507.8172
2165.181, 508.6261
2167.110, 520.6466
2169.038, 542.5251
2170.967, 546.8017
2172.895, 531.2770
2174.823, 519.8893
2176.752, 515.5328
2178.680, 513.7602
2180.609, 515.0182
2182.537, 515.9022
2184.466, 511.8817
2186.394, 511.0972
2188.323, 524.3453
2190.251, 537.6056
2192.180, 534.1907
2194.108, 521.4220
2196.037, 513.0020
2197.965, 508.7208
2199.894, 507.3644
2201.822, 509.1732
2203.750, 508.9843
2205.679, 506.1863
2207.607, 502.7752
2209.536, 497.4164
2211.464, 495.9104
2213.393, 503.4926
2215.321, 510.4669
2217.250, 514.4670
2219.178, 514.3358
2221.107, 505.5016
2223.035, 495.0096
2224.964, 491.7750
2226.892, 493.8832
2228.821, 497.4293
2230.749, 502.0828
2232.677, 504.0812
2234.606, 503.3464
2236.534, 500.3208
2238.463, 493.9214
2240.391, 491.5626
2242.320, 497.4155
2244.248, 501.1180
2246.177, 495.9473
2248.105, 493.4026
2250.034, 502.4414
2251.962, 510.6905
2253.891, 507.0868
2255.819, 500.4889
2257.748, 501.1640
2259.676, 505.8941
2261.604, 508.7787
2263.533, 509.8730
2265.461, 510.1318
2267.390, 509.3467
2269.318, 501.4518
2271.247, 482.6810
2273.175, 476.2396
2275.104, 493.7063
2277.032, 506.4849
2278.961, 512.4429
2280.889, 511.9178
2282.818, 497.5869
2284.746, 486.5318
2286.675, 486.1034
2288.603, 491.8641
2290.531, 507.1652
2292.460, 521.4582
2294.388, 521.6224
2296.317, 513.3449
2298.245, 507.3207
2300.174, 502.6696
2302.102, 494.3031
2304.031, 481.7382
2305.959, 473.4812
2307.888, 468.4350
2309.816, 473.6730
2311.745, 494.5414
2313.673, 507.5625
2315.602, 508.2179
2317.530, 502.8398
2319.458, 488.8391
2321.387, 476.9202
2323.315, 469.2841
2325.244, 468.0590
2327.172, 480.5508
2329.101, 493.7023
2331.029, 493.8138
2332.958, 489.1517
2334.886, 492.8772
2336.815, 499.8458
2338.743, 495.6908
2340.672, 484.0195
2342.600, 479.0105
2344.529, 480.6452
2346.457, 484.5924
2348.385, 491.8513
2350.314, 494.0574
2352.242, 486.1345
2354.171, 481.9418
2356.099, 483.6381
2358.028, 485.0158
2359.956, 484.0847
2361.885, 485.2737
2363.813, 495.3055
2365.742, 498.7742
2367.670, 480.1037
2369.599, 461.8435
2371.527, 460.7017
2373.456, 465.2335
2375.384, 465.1736
2377.313, 463.4662
2379.241, 463.7826
2381.169, 465.9019
2383.098, 470.5162
2385.026, 476.3795
2386.955, 477.8040
2388.883, 475.5885
2390.812, 476.9733
2392.740, 482.7112
2394.669, 483.4860
2396.597, 475.9126
2398.526, 471.5081
2400.454, 470.0849
2402.383, 472.8655
2404.311, 483.3953
2406.240, 489.5093
2408.168, 486.8908
2410.096, 483.3872
2412.025, 481.4381
2413.953, 479.8665
2415.882, 479.2415
2417.810, 477.4069
2419.739, 470.9570
2421.667, 465.0459
2423.596, 463.7565
2425.524, 465.5081
2427.453, 471.5304
2429.381, 477.3400
2431.310, 474.4266
2433.238, 466.7607
2435.167, 461.7442
2437.095, 459.4592
2439.023, 460.8398
2440.952, 465.6394
2442.880, 469.8546
2444.809, 473.4684
2446.737, 477.5539
2448.666, 482.4965
2450.594, 480.6075
2452.523, 469.2702
2454.451, 466.4409
2456.380, 479.3909
2458.308, 487.2745
2460.237, 484.4573
2462.165, 480.4906
2464.094, 476.1052
2466.022, 471.5981
2467.950, 465.8995
2469.879, 462.2308
2471.807, 463.9929
2473.736, 464.5912
2475.664, 458.2716
2477.593, 452.5991
2479.521, 452.1968
2481.450, 454.6701
2483.378, 461.4116
2485.307, 466.6863
2487.235, 461.2809
2489.164, 453.5476
2491.092, 454.4545
2493.021, 460.2900
2494.949, 468.6333
2496.877, 475.8506
2498.806, 470.0813
2500.734, 456.1426
2502.663, 454.9766
2504.591, 464.2538
2506.520, 462.0512
2508.448, 450.2465
2510.377, 446.8415
2512.305, 452.0789
2514.234, 449.9051
2516.162, 436.4257
2518.091, 434.5630
2520.019, 450.4221
2521.948, 460.5657
2523.876, 464.2572
2525.804, 464.3304
2527.733, 460.4337
2529.661, 455.4942
2531.590, 448.3558
2533.518, 445.1197
2535.447, 455.1585
2537.375, 455.7515
2539.304, 427.6598
2541.232, 414.7158
2543.161, 435.7498
2545.089, 454.8989
2547.018, 459.8058
2548.946, 460.1779
2550.875, 459.0038
2552.803, 456.5833
2554.731, 452.6479
2556.660, 448.0583
2558.588, 440.5821
2560.517, 436.0171
2562.445, 442.0926
2564.374, 448.1670
2566.302, 445.7010
2568.231, 439.9864
2570.159, 432.5537
2572.088, 427.9533
2574.016, 435.1190
2575.945, 444.8906
2577.873, 445.0363
2579.802, 439.8740
2581.730, 432.0474
2583.658, 426.1225
2585.587, 431.0561
2587.515, 442.4948
2589.444, 455.4216
2591.372, 465.7834
2593.301, 456.6730
2595.229, 436.5988
2597.158, 438.9243
2599.086, 455.9936
2601.015, 462.7126
2602.943, 459.9807
2604.872, 453.3913
2606.800, 443.5205
2608.729, 434.6499
2610.657, 427.0163
2612.585, 431.4780
2614.514, 445.8924
2616.442, 444.3226
2618.371, 426.7906
2620.299, 425.6432
2622.228, 444.2256
2624.156, 451.7881
2626.085, 447.2000
2628.013, 438.3139
2629.942, 424.8108
2631.870, 417.4764
2633.799, 417.5209
2635.727, 416.1707
2637.656, 410.1922
2639.584, 414.4221
2641.512, 436.3123
2643.441, 440.2712
2645.369, 420.9903
2647.298, 413.8199
2649.226, 424.4992
2651.155, 433.3643
2653.083, 438.1778
2655.012, 439.4824
2656.940, 435.3598
2658.869, 433.4038
2660.797, 435.7437
2662.726, 431.4836
2664.654, 416.1555
2666.583, 408.5064
2668.511, 414.6156
2670.439, 422.0890
2672.368, 432.6740
2674.296, 437.5632
2676.225, 434.3330
2678.153, 431.9531
2680.082, 433.1084
2682.010, 430.1422
2683.939, 414.8314
2685.867, 409.8958
2687.796, 427.8311
2689.724, 439.1772
2691.653, 440.2092
2693.581, 437.9262
2695.510, 431.6017
2697.438, 429.0129
2699.366, 437.2789
2701.295, 438.7959
2703.223, 423.9513
2705.152, 415.8005
2707.080, 418.9793
2709.009, 422.1513
2710.937, 424.8904
2712.866, 421.5128
2714.794, 399.1113
2716.723, 392.5892
2718.651, 419.5414
2720.580, 433.5939
2722.508, 424.9336
2724.437, 419.3181
2726.365, 424.6549
2728.293, 424.5302
2730.222, 407.7888
2732.150, 399.8920
2734.079, 407.5085
2736.007, 411.5388
2737.936, 407.9482
2739.864, 408.6475
2741.793, 418.8594
2743.721, 423.8047
2745.650, 416.2270
2747.578, 412.1916
2749.507, 412.6575
2751.435, 416.7336
2753.364, 426.2136
2755.292, 428.2443
2757.220, 416.6250
2759.149, 411.6991
2761.077, 419.3136
2763.006, 423.5461
2764.934, 423.8385
2766.863, 420.7434
2768.791, 413.7097
2770.720, 407.7507
2772.648, 402.1562
2774.577, 404.0061
2776.505, 416.8788
2778.434, 417.8740
2780.362, 405.2878
2782.291, 402.3206
2784.219, 411.7992
2786.147, 416.2542
2788.076, 414.5530
2790.004, 409.3188
2791.933, 400.2045
2793.861, 404.8729
2795.790, 422.0034
2797.718, 420.9966
2799.647, 401.9250
2801.575, 410.0230
2803.504, 442.6500
2805.432, 435.4459
2807.361, 398.5200
2809.289, 395.5306
2811.218, 418.8500
2813.146, 426.4667
2815.074, 420.9495
2817.003, 409.0692
2818.931, 394.9253
2820.860, 394.2546
2822.788, 402.4757
2824.717, 412.4343
2826.645, 420.2691
2828.574, 415.3030
2830.502, 404.4182
2832.431, 398.5646
2834.359, 397.2449
2836.288, 402.2362
2838.216, 408.5912
2840.145, 410.7083
2842.073, 410.1568
2844.001, 407.0192
2845.930, 404.1157
2847.858, 405.3016
2849.787, 406.3897
2851.715, 402.0847
2853.644, 399.0317
2855.572, 405.5609
2857.501, 410.0934
2859.429, 403.6536
2861.358, 396.9808
2863.286, 395.5663
2865.215, 394.8759
2867.143, 390.2105
2869.072, 390.6094
2871.000, 401.9998
2872.928, 412.1790
2874.857, 418.2553
2876.785, 422.0641
2878.714, 421.6579
2880.642, 424.1621
2882.571, 434.2705
2884.499, 434.0313
2886.428, 418.2282
2888.356, 413.7271
2890.285, 428.6808
2892.213, 434.5188
2894.142, 426.7339
2896.070, 427.1982
2897.999, 435.9461
2899.927, 431.9838
2901.855, 415.8917
2903.784, 423.1218
2905.712, 450.3965
2907.641, 457.5351
2909.569, 450.3191
2911.498, 457.8820
2913.426, 471.2841
2915.355, 463.8161
2917.283, 446.5076
2919.212, 442.0138
2921.140, 444.0981
2923.069, 447.5554
2924.997, 446.7329
2926.926, 426.7750
2928.854, 409.7056
2930.782, 428.2282
2932.711, 442.6364
2934.639, 412.8113
2936.568, 389.4350
2938.496, 411.9159
2940.425, 431.3096
2942.353, 416.5346
2944.282, 410.9935
2946.210, 432.4818
2948.139, 445.6726
2950.067, 437.2212
2951.996, 430.3598
2953.924, 431.2748
2955.853, 430.0675
2957.781, 426.2339
2959.709, 420.5074
2961.638, 412.5584
2963.566, 409.1708
2965.495, 410.3926
2967.423, 423.3806
2969.352, 444.3492
2971.280, 440.1386
2973.209, 419.4850
2975.137, 414.8160
2977.066, 420.7773
2978.994, 425.6941
2980.923, 430.8936
2982.851, 443.7395
2984.780, 452.3274
2986.708, 435.8060
2988.636, 418.5093
2990.565, 426.8664
2992.493, 435.2159
2994.422, 428.5286
2996.350, 419.2912
2998.279, 408.9019
3000.207, 405.3704
3002.136, 414.4586
3004.064, 421.8972
3005.993, 423.9905
3007.921, 430.3404
3009.850, 449.2556
3011.778, 449.9254
3013.707, 429.0812
3015.635, 419.5221
3017.563, 421.5155
3019.492, 421.8052
3021.420, 420.7024
3023.349, 423.2870
3025.277, 428.1702
3027.206, 431.2685
3029.134, 433.3435
3031.063, 436.6485
3032.991, 438.6143
3034.920, 431.2154
3036.848, 427.6162
3038.777, 445.3011
3040.705, 457.9394
3042.634, 444.8547
3044.562, 431.7264
3046.490, 425.5009
3048.419, 427.1557
3050.347, 439.8368
3052.276, 449.3802
3054.204, 451.6107
3056.133, 453.8200
3058.061, 456.2397
3059.990, 457.8060
3061.918, 458.3775
3063.847, 455.1618
3065.775, 450.4883
3067.704, 458.4452
3069.632, 472.0522
3071.561, 471.4461
3073.489, 468.3600
3075.417, 483.2615
3077.346, 496.7056
3079.274, 482.7043
3081.203, 471.3702
3083.131, 483.4106
3085.060, 494.6091
3086.988, 490.9810
3088.917, 492.5784
3090.845, 504.1188
3092.774, 515.3007
3094.702, 524.2563
3096.631, 535.7973
3098.559, 551.3939
3100.488, 555.5367
3102.416, 550.7733
3104.344, 551.9244
3106.273, 557.8885
3108.201, 565.8118
3110.130, 575.2921
3112.058, 589.9639
3113.987, 600.5073
3115.915, 590.4103
3117.844, 584.6758
3119.772, 607.4219
3121.701, 625.2577
3123.629, 624.9540
3125.558, 625.7939
3127.486, 634.8721
3129.415, 641.2391
3131.343, 643.8062
3133.271, 646.5773
3135.200, 650.2987
3137.128, 665.3804
3139.057, 686.8667
3140.985, 687.7459
3142.914, 679.1736
3144.842, 684.6143
3146.771, 694.0188
3148.699, 695.8622
3150.628, 697.3242
3152.556, 706.5853
3154.485, 711.0048
3156.413, 700.1553
3158.342, 694.2399
3160.270, 701.8802
3162.198, 702.2064
3164.127, 692.8305
3166.055, 692.7462
3167.984, 702.9482
3169.912, 707.0695
3171.841, 706.8960
3173.769, 709.4540
3175.698, 713.7134
3177.626, 722.9651
3179.555, 726.9158
3181.483, 709.9744
3183.412, 690.6551
3185.340, 668.7409
3187.269, 665.6263
3189.197, 710.0095
3191.125, 728.8444
3193.054, 712.1801
3194.982, 695.7979
3196.911, 683.1973
3198.839, 682.8804
3200.768, 691.1931
3202.696, 681.9898
3204.625, 667.9201
3206.553, 673.8072
3208.482, 686.0228
3210.410, 692.7449
3212.339, 694.6401
3214.267, 687.4561
3216.196, 684.5427
3218.124, 698.5676
3220.052, 698.8984
3221.981, 680.5048
3223.909, 672.2001
3225.838, 676.8870
3227.766, 677.1932
3229.695, 673.5698
3231.623, 662.8368
3233.552, 654.6444
3235.480, 673.5584
3237.409, 690.1129
3239.337, 664.3163
3241.266, 647.0812
3243.194, 669.7219
3245.123, 686.2756
3247.051, 682.9347
3248.979, 680.4383
3250.908, 680.1513
3252.836, 670.9375
3254.765, 655.3615
3256.693, 655.7721
3258.622, 666.9949
3260.550, 679.5129
3262.479, 692.9933
3264.407, 708.6620
3266.336, 722.8517
3268.264, 734.7219
3270.193, 741.9990
3272.121, 739.1685
3274.050, 745.4703
3275.978, 763.8094
3277.906, 771.2406
3279.835, 770.1286
3281.763, 782.4888
3283.692, 804.3120
3285.620, 831.1078
3287.549, 855.0253
3289.477, 863.2328
3291.406, 874.1123
3293.334, 894.7617
3295.263, 929.9823
3297.191, 985.6727
3299.120, 1031.586
3301.048, 1059.693
3302.977, 1112.095
3304.905, 1180.148
3306.833, 1215.833
3308.762, 1238.377
3310.690, 1275.158
3312.619, 1326.180
3314.547, 1394.741
3316.476, 1469.149
3318.404, 1554.803
3320.333, 1618.962
3322.261, 1652.280
3324.190, 1712.201
3326.118, 1803.952
3328.047, 1898.975
3329.975, 1993.648
3331.904, 2075.485
3333.832, 2149.647
3335.760, 2223.828
3337.689, 2289.714
3339.617, 2336.629
3341.546, 2391.139
3343.474, 2466.805
3345.403, 2533.172
3347.331, 2588.508
3349.260, 2643.235
3351.188, 2682.380
3353.117, 2638.163
3355.045, 2563.913
3356.974, 2552.726
3358.902, 2534.826
3360.831, 2460.715
3362.759, 2373.572
3364.688, 2281.939
3366.616, 2195.428
3368.544, 2115.560
3370.473, 2019.580
3372.401, 1913.383
3374.330, 1832.706
3376.258, 1767.088
3378.187, 1701.855
3380.115, 1643.674
3382.044, 1595.241
3383.972, 1561.558
3385.901, 1550.094
3387.829, 1532.841
3389.758, 1505.626
3391.686, 1492.642
3393.615, 1497.607
3395.543, 1539.770
3397.471, 1589.451
3399.400, 1594.775
3401.328, 1602.253
3403.257, 1623.050
3405.185, 1688.068
3407.114, 1811.998
3409.042, 1925.180
3410.971, 2023.893
3412.899, 2156.756
3414.828, 2323.377
3416.756, 2532.946
3418.685, 2761.027
3420.613, 2965.540
3422.542, 3215.436
3424.470, 3559.888
3426.398, 3878.749
3428.327, 4134.657
3430.255, 4451.723
3432.184, 4821.900
3434.112, 5185.760
3436.041, 5518.776
3437.969, 5775.996
3439.898, 5996.020
3441.826, 6235.013
3443.755, 6379.327
3445.683, 6361.667
3447.612, 6303.356
3449.540, 6206.493
3451.469, 6008.425
3453.397, 5737.333
3455.325, 5450.712
3457.254, 5149.264
3459.182, 4834.762
3461.111, 4510.079
3463.039, 4172.156
3464.968, 3826.641
3466.896, 3472.139
3468.825, 3182.389
3470.753, 2945.035
3472.682, 2701.376
3474.610, 2480.137
3476.539, 2319.659
3478.467, 2184.006
3480.396, 2057.749
3482.324, 1945.432
3484.252, 1848.931
3486.181, 1764.290
3488.109, 1689.355
3490.038, 1607.498
3491.966, 1532.559
3493.895, 1490.937
3495.823, 1451.547
3497.752, 1392.484
3499.680, 1347.918
3501.609, 1332.756
3503.537, 1313.921
3505.466, 1292.727
3507.394, 1275.945
3509.323, 1263.736
3511.251, 1257.672
3513.179, 1254.559
3515.108, 1251.003
3517.036, 1254.653
3518.965, 1269.286
3520.893, 1278.599
3522.822, 1281.438
3524.750, 1270.347
3526.679, 1259.997
3528.607, 1277.838
3530.536, 1296.690
3532.464, 1309.426
3534.393, 1298.307
3536.321, 1259.214
3538.250, 1254.395
3540.178, 1275.554
3542.106, 1281.021
3544.035, 1268.218
3545.963, 1213.447
3547.892, 1182.838
3549.820, 1224.344
3551.749, 1244.657
3553.677, 1233.434
3555.606, 1241.015
3557.534, 1259.815
3559.463, 1269.842
3561.391, 1262.308
3563.320, 1215.354
3565.248, 1175.521
3567.177, 1160.047
3569.105, 1121.342
3571.033, 1055.834
3572.962, 1007.464
3574.890, 969.8318
3576.819, 936.3445
3578.747, 898.0159
3580.676, 843.5768
3582.604, 797.3597
3584.533, 766.4194
3586.461, 728.4944
3588.390, 686.9114
3590.318, 664.6896
3592.247, 652.0693
3594.175, 636.9205
3596.104, 633.0910
3598.032, 651.4160
3599.960, 652.2397
3601.889, 630.4845
3603.817, 619.1564
3605.746, 614.7264
3607.674, 616.2704
3609.603, 609.5179
3611.531, 578.8849
3613.460, 558.2313
3615.388, 560.6855
3617.317, 559.2172
3619.245, 552.5762
3621.174, 533.2521
3623.102, 511.7794
3625.031, 503.3831
3626.959, 489.6049
3628.887, 457.5649
3630.816, 446.5665
3632.744, 454.3093
3634.673, 426.8100
3636.601, 393.8829
3638.530, 414.3383
3640.458, 429.0815
3642.387, 405.4038
3644.315, 381.2440
3646.244, 361.1554
3648.172, 362.4105
3650.101, 373.6395
3652.029, 369.8842
3653.958, 360.4543
3655.886, 347.7335
3657.814, 344.1056
3659.743, 355.7483
3661.671, 352.7662
3663.600, 341.3235
3665.528, 346.4957
3667.457, 350.3652
3669.385, 333.4984
3671.314, 320.2173
3673.242, 318.8107
3675.171, 322.8815
3677.099, 330.3476
3679.028, 332.0236
3680.956, 332.5143
3682.885, 340.1792
3684.813, 341.3428
3686.741, 322.8314
3688.670, 321.1399
3690.598, 331.9196
3692.527, 326.5678
3694.455, 316.1427
3696.384, 314.5068
3698.312, 314.4729
3700.241, 314.8989
3702.169, 311.6417
3704.098, 305.3121
3706.026, 298.5336
3707.955, 295.1311
3709.883, 303.0499
3711.812, 312.0621
3713.740, 322.1455
3715.668, 316.3895
3717.597, 298.0493
3719.525, 294.9101
3721.454, 301.5730
3723.382, 320.2584
3725.311, 328.3691
3727.239, 312.9410
3729.168, 301.9829
3731.096, 296.7877
3733.025, 296.8199
3734.953, 296.4403
3736.882, 283.9674
3738.810, 278.2729
3740.739, 287.9681
3742.667, 296.2892
3744.595, 301.3933
3746.524, 292.6727
3748.452, 285.5615
3750.381, 304.4100
3752.309, 315.8782
3754.238, 309.7221
3756.166, 297.3117
3758.095, 283.3727
3760.023, 288.5489
3761.952, 296.0189
3763.880, 285.8776
3765.809, 284.6171
3767.737, 300.2322
3769.666, 301.1662
3771.594, 292.9407
3773.522, 294.5241
3775.451, 295.5635
3777.379, 285.6788
3779.308, 282.5140
3781.236, 289.5306
3783.165, 302.8464
3785.093, 311.3227
3787.022, 283.2162
3788.950, 265.1271
3790.879, 286.4094
3792.807, 292.5760
3794.736, 280.0764
3796.664, 286.0078
3798.593, 296.3366
3800.521, 295.1950
3802.449, 288.3112
3804.378, 275.0927
3806.306, 281.2145
3808.235, 301.5455
3810.163, 312.3235
3812.092, 314.0970
3814.020, 304.8810
3815.949, 292.1086
3817.877, 277.0452
3819.806, 272.1152
3821.734, 275.3508
3823.663, 289.2840
3825.591, 298.4754
3827.520, 292.9117
3829.448, 281.0043
3831.376, 267.5213
3833.305, 286.4003
3835.233, 310.0952
3837.162, 305.4958
3839.090, 296.2330
3841.019, 286.9095
3842.947, 285.3157
3844.876, 289.4459
3846.804, 297.7817
3848.733, 299.3806
3850.661, 285.3347
3852.590, 275.1697
3854.518, 271.7187
3856.447, 276.1305
3858.375, 282.1309
3860.303, 279.1095
3862.232, 281.4714
3864.160, 294.8123
3866.089, 297.3674
3868.017, 291.0765
3869.946, 287.8987
3871.874, 285.6090
3873.803, 280.0753
3875.731, 276.6081
3877.660, 276.8719
3879.588, 284.7349
3881.517, 288.5934
3883.445, 269.0554
3885.374, 263.1328
3887.302, 280.2863
3889.230, 285.2310
3891.159, 280.4103
3893.087, 272.5260
3895.016, 265.5695
3896.944, 264.4445
3898.873, 264.3434
3900.801, 263.2247
3902.730, 263.6688
3904.658, 266.8658
3906.587, 279.7661
3908.515, 282.5395
3910.444, 264.3092
3912.372, 271.7413
3914.301, 282.8325
3916.229, 259.5251
3918.157, 251.0835
3920.086, 270.2858
3922.014, 266.7805
3923.943, 253.1868
3925.871, 267.2339
3927.800, 278.9384
3929.728, 279.0407
3931.657, 272.8303
3933.585, 261.7799
3935.514, 259.1726
3937.442, 255.1474
3939.371, 248.2435
3941.299, 250.9089
3943.228, 255.6894
3945.156, 250.6086
3947.084, 249.0847
3949.013, 258.8459
3950.941, 264.5218
3952.870, 259.4863
3954.798, 254.7244
3956.727, 250.7646
3958.655, 248.7911
3960.584, 251.3760
3962.512, 253.8638
3964.441, 257.1055
3966.369, 265.0594
3968.298, 269.3879
3970.226, 267.3947
3972.155, 263.2236
3974.083, 258.0648
3976.011, 251.6960
3977.940, 250.0002
3979.868, 248.7348
3981.797, 243.2086
3983.725, 245.2333
3985.654, 254.0206
3987.582, 255.9185
3989.511, 253.1573
3991.439, 247.2221
3993.368, 241.3941
3995.296, 236.9489
3997.225, 245.8772
3999.153, 258.1559
4001.082, 262.5968
4003.010, 259.5676
4004.938, 246.2294
4006.867, 243.5982
4008.795, 247.0147
4010.724, 244.9851
4012.652, 244.7032
4014.581, 249.4083
4016.509, 243.5250
4018.438, 233.5219
4020.366, 240.9629
4022.295, 245.8199
4024.223, 231.5103
4026.152, 228.9989
4028.080, 240.0880
4030.009, 250.2717
4031.937, 252.9653
4033.865, 238.3198
4035.794, 231.4308
4037.722, 236.6720
4039.651, 241.7043
4041.579, 241.0269
4043.508, 242.6891
4045.436, 239.4759
4047.365, 226.4023
4049.293, 234.8482
4051.222, 244.0081
4053.150, 228.2267
4055.079, 219.2906
4057.007, 222.8992
4058.936, 234.8138
4060.864, 242.3801
4062.792, 236.3399
4064.721, 238.3590
4066.649, 239.7082
4068.578, 226.7234
4070.506, 217.0634
4072.435, 231.7785
4074.363, 243.6224
4076.292, 232.3038
4078.220, 222.0798
4080.149, 224.6914
4082.077, 232.4907
4084.006, 226.3596
4085.934, 221.3015
4087.863, 224.2368
4089.791, 220.2587
4091.719, 219.9901
4093.648, 222.2410
4095.576, 219.3149
4097.505, 221.4838
4099.433, 227.7397
4101.362, 230.1834
4103.290, 228.4567
4105.219, 220.9184
4107.147, 223.3824
4109.076, 226.5483
4111.004, 223.4116
4112.933, 225.2445
4114.861, 221.2808
4116.790, 215.7854
4118.718, 210.3042
4120.646, 209.4765
4122.575, 212.8945
4124.503, 225.2807
4126.432, 237.2482
4128.360, 224.6542
4130.289, 219.5654
4132.217, 224.3173
4134.146, 220.3677
4136.074, 217.3865
4138.002, 210.8411
4139.931, 211.7651
4141.859, 229.0631
4143.788, 232.0343
4145.716, 226.6513
4147.645, 228.7147
4149.573, 223.1456
4151.502, 213.8305
4153.430, 212.4931
4155.359, 211.6016
4157.287, 224.1684
4159.216, 233.7722
4161.144, 213.0352
4163.073, 213.3055
4165.001, 229.3161
4166.930, 223.3952
4168.858, 217.2984
4170.787, 222.8401
4172.715, 232.0209
4174.644, 236.8075
4176.572, 218.8784
4178.500, 205.6888
4180.429, 211.4081
4182.357, 231.3516
4184.286, 251.0527
4186.214, 241.9661
4188.143, 224.0762
4190.071, 206.0549
4192.000, 205.2312
4193.928, 214.7323
4195.856, 227.4547
4197.785, 235.0774
4199.713, 233.6429
4201.642, 225.2174
4203.570, 218.0952
4205.499, 224.5643
4207.427, 231.1473
4209.356, 235.4982
4211.284, 238.0944
4213.213, 237.6420
4215.141, 230.6787
4217.070, 226.6120
4218.998, 226.7627
4220.927, 221.1662
4222.855, 215.6472
4224.784, 215.4892
4226.712, 223.9414
4228.641, 238.8880
4230.569, 224.9650
4232.498, 206.7569
4234.426, 205.2593
4236.354, 209.1275
4238.283, 215.6249
4240.211, 215.8542
4242.140, 219.7220
4244.068, 239.8581
4245.997, 232.2025
4247.925, 203.4227
4249.854, 203.6889
4251.782, 216.5362
4253.710, 237.3914
4255.639, 236.4108
4257.567, 222.6914
4259.496, 226.3859
4261.424, 230.5030
4263.353, 228.3066
4265.281, 233.4237
4267.210, 236.1913
4269.138, 206.9745
4271.067, 196.9611
4272.995, 219.3163
4274.924, 229.5698
4276.852, 226.9474
4278.781, 204.4143
4280.709, 195.3807
4282.638, 203.4836
4284.566, 200.9353
4286.495, 198.1224
4288.423, 204.6373
4290.352, 208.1615
4292.280, 208.1697
4294.208, 209.5706
4296.137, 209.6413
4298.065, 206.6254
4299.994, 204.1846
4301.922, 205.2222
4303.851, 221.8765
4305.779, 228.4156
4307.708, 217.4103
4309.636, 225.7006
4311.564, 237.7742
4313.493, 227.5928
4315.421, 222.4241
4317.350, 225.1111
4319.278, 217.0058
4321.207, 207.0623
4323.135, 201.5241
4325.064, 201.2581
4326.992, 204.9461
4328.921, 210.0455
4330.849, 211.5983
4332.778, 205.4404
4334.706, 216.8828
4336.635, 230.2113
4338.563, 206.0240
4340.492, 203.1682
4342.420, 236.1163
4344.349, 245.0182
4346.277, 240.7177
4348.206, 227.9632
4350.134, 226.5172
4352.063, 233.7415
4353.991, 226.7484
4355.919, 219.4965
4357.848, 221.2537
4359.776, 211.1375
4361.705, 200.9654
4363.633, 217.4803
4365.562, 236.0597
4367.490, 251.5795
4369.418, 234.8413
4371.347, 213.8927
4373.275, 209.4860
4375.204, 221.9376
4377.132, 241.5639
4379.061, 231.7162
4380.989, 222.5053
4382.918, 225.3649
4384.846, 225.7251
4386.775, 222.5903
4388.703, 210.1792
4390.632, 214.1756
4392.560, 231.7970
4394.489, 221.1521
4396.417, 207.3577
4398.346, 205.1589
4400.274, 216.8396
4402.203, 231.2236
4404.131, 222.7077
4406.060, 216.8066
4407.988, 220.4136
4409.917, 218.2830
4411.845, 215.0887
4413.773, 215.9328
4415.702, 211.6874
4417.630, 205.8370
4419.559, 214.7949
4421.487, 220.5103
4423.416, 217.0126
4425.344, 214.7817
4427.272, 211.0398
4429.201, 199.4129
4431.129, 201.9492
4433.058, 214.6432
4434.986, 212.7861
4436.915, 211.4135
4438.843, 216.4753
4440.772, 225.1163
4442.700, 233.0499
4444.629, 236.7846
4446.557, 231.7200
4448.486, 221.5301
4450.414, 227.1046
4452.343, 234.4217
4454.271, 237.8188
4456.200, 235.2846
4458.128, 228.1140
4460.057, 215.0135
4461.985, 208.9115
4463.914, 209.9218
4465.842, 212.9158
4467.771, 209.5662
4469.699, 196.4797
4471.627, 212.9129
4473.556, 232.1944
4475.484, 220.0582
4477.413, 204.4009
4479.341, 191.5873
4481.270, 191.0312
4483.198, 195.9849
4485.126, 204.1082
4487.055, 218.3475
4488.983, 228.2983
4490.912, 220.4720
4492.840, 219.7582
4494.769, 223.7890
4496.697, 213.8138
4498.626, 210.1575
4500.554, 216.9548
4502.483, 209.9757
4504.411, 203.9831
4506.340, 216.8265
4508.268, 213.0890
4510.197, 200.9581
4512.125, 199.6010
4514.054, 207.5654
4515.982, 223.0286
4517.911, 223.8060
4519.839, 212.8844
4521.768, 188.5309
4523.696, 202.1547
4525.625, 226.6167
4527.553, 222.0547
4529.481, 210.7591
4531.410, 200.6321
4533.338, 209.2861
4535.267, 219.1194
4537.195, 223.5000
4539.124, 217.5523
4541.052, 211.7451
4542.980, 217.2202
4544.909, 211.4012
4546.837, 202.3104
4548.766, 212.5743
4550.694, 222.8594
4552.623, 227.1807
4554.551, 206.1843
4556.480, 196.7136
4558.408, 224.7564
4560.337, 209.9460
4562.265, 188.1856
4564.194, 203.9951
4566.122, 224.6991
4568.051, 239.3224
4569.979, 221.5063
4571.908, 205.8507
4573.836, 200.6924
4575.765, 209.7527
4577.693, 217.8516
4579.622, 215.3621
4581.550, 219.2262
4583.479, 221.7709
4585.407, 210.0169
4587.335, 204.2844
4589.264, 205.3607
4591.192, 213.8360
4593.121, 215.6153
4595.049, 209.5619
4596.978, 209.0789
4598.906, 207.5043
4600.834, 199.7141
4602.763, 202.0527
4604.691, 210.6048
4606.620, 224.3182
4608.548, 226.3846
4610.477, 220.5495
4612.405, 219.3900
4614.334, 204.5654
4616.262, 182.9449
4618.191, 208.5929
4620.119, 227.2839
4622.048, 213.2122
4623.976, 223.0006
4625.905, 232.8727
4627.833, 224.3468
4629.762, 214.1323
4631.690, 204.3167
4633.619, 194.1362
4635.547, 190.4653
4637.476, 193.5563
4639.404, 203.8848
4641.333, 211.1498
4643.261, 213.1330
4645.189, 217.0211
4647.118, 218.3645
4649.046, 215.2899
4650.975, 216.3229
4652.903, 214.3664
4654.832, 196.8979
4656.760, 208.9950
4658.688, 230.0934
4660.617, 225.7826
4662.545, 210.5777
4664.474, 193.4927
4666.402, 194.3343
4668.331, 205.8148
4670.259, 220.5261
4672.188, 204.0017
4674.116, 192.1570
4676.045, 201.9490
4677.973, 214.5629
4679.902, 228.6027
4681.830, 244.5379
4683.759, 234.5619
4685.687, 212.9451
4687.616, 190.1234
4689.544, 194.1936
4691.473, 211.7949
4693.401, 213.0272
4695.330, 211.8396
4697.258, 211.7862
4699.187, 220.3151
4701.115, 221.9951
4703.043, 214.6484
4704.972, 210.9198
4706.900, 211.8576
4708.829, 218.2748
4710.757, 228.5573
4712.686, 224.0749
4714.614, 191.4446
4716.542, 191.3992
4718.471, 205.8841
4720.399, 214.4281
4722.328, 216.4071
4724.256, 220.5285
4726.185, 246.5023
4728.113, 244.9874
4730.042, 223.7939
4731.970, 210.0984
4733.899, 211.1300
4735.827, 222.9739
4737.756, 221.5653
4739.684, 224.5731
4741.613, 233.9963
4743.541, 225.8280
4745.470, 216.8362
4747.398, 214.2322
4749.327, 215.7049
4751.255, 219.6266
4753.184, 225.6680
4755.112, 218.4427
4757.041, 210.0328
4758.969, 209.8055
4760.897, 214.6308
4762.826, 220.8552
4764.754, 229.8317
4766.683, 202.9236
4768.611, 171.1823
4770.540, 187.8047
4772.468, 207.3358
4774.396, 219.0818
4776.325, 209.1888
4778.253, 207.0498
4780.182, 209.1418
4782.110, 179.8520
4784.039, 179.4998
4785.967, 207.2198
4787.896, 207.7158
4789.824, 209.8478
4791.753, 220.1292
4793.681, 220.2441
4795.610, 216.4688
4797.538, 211.3153
4799.467, 203.5922
4801.395, 202.4717
4803.324, 212.9621
4805.252, 216.4564
4807.181, 218.3727
4809.109, 221.2562
4811.038, 204.5704
4812.966, 196.6391
4814.895, 221.9394
4816.823, 235.9065
4818.751, 235.9953
4820.680, 219.4707
4822.608, 211.9028
4824.537, 210.2573
4826.465, 212.3213
4828.394, 202.1011
4830.322, 191.5867
4832.250, 193.5071
4834.179, 211.5291
4836.107, 227.4462
4838.036, 213.5941
4839.964, 199.7880
4841.893, 194.6856
4843.821, 213.0237
4845.750, 213.7182
4847.678, 203.7297
4849.607, 202.2422
4851.535, 197.1498
4853.464, 195.3454
4855.392, 220.5554
4857.321, 221.5852
4859.249, 207.5539
4861.178, 213.2018
4863.106, 210.0161
4865.035, 202.0820
4866.963, 210.1081
4868.892, 208.9930
4870.820, 203.2164
4872.749, 216.9536
4874.677, 221.4588
4876.605, 216.1236
4878.534, 207.7794
4880.462, 206.0925
4882.391, 211.7999
4884.319, 227.6930
4886.248, 225.2657
4888.176, 210.6553
4890.104, 209.8889
4892.033, 215.0957
4893.961, 220.2502
4895.890, 210.8110
4897.818, 205.2471
4899.747, 206.5461
4901.675, 217.1283
4903.604, 218.8896
4905.532, 211.2823
4907.461, 195.9182
4909.389, 195.8223
4911.318, 206.4930
4913.246, 206.1045
4915.175, 214.2482
4917.103, 223.0614
4919.032, 201.2434
4920.960, 187.8238
4922.889, 190.3068
4924.817, 219.5991
4926.746, 223.8169
4928.674, 210.1668
4930.603, 203.4809
4932.531, 197.2217
4934.459, 195.4585
4936.388, 210.1185
4938.316, 213.6638
4940.245, 206.6590
4942.173, 191.3777
4944.102, 183.5893
4946.030, 188.6999
4947.958, 217.6399
4949.887, 228.7357
4951.815, 225.4951
4953.744, 214.6247
4955.672, 211.2775
4957.601, 210.8521
4959.529, 205.9727
4961.458, 212.5807
4963.386, 216.0927
4965.315, 202.7974
4967.243, 203.4795
4969.172, 209.5571
4971.100, 212.9690
4973.029, 216.3434
4974.957, 220.1738
4976.886, 224.5356
4978.814, 218.2693
4980.743, 217.5257
4982.671, 229.0315
4984.600, 208.4285
4986.528, 192.3348
4988.457, 195.5480
4990.385, 200.4811
4992.313, 207.3921
4994.242, 214.4600
4996.170, 216.2707
4998.099, 198.1944
5000.027, 169.6935
5001.956, 191.4105
5003.884, 205.9080
5005.813, 205.9080
5007.741, 203.2046
5009.669, 202.7338
5011.598, 205.2937
5013.526, 213.1836
5015.455, 214.9227
5017.383, 212.8695
5019.312, 211.7180
5021.240, 212.4429
5023.169, 209.2079
5025.097, 193.5320
5027.026, 192.0715
5028.954, 198.7465
5030.883, 209.2613
5032.811, 207.5960
5034.740, 210.0022
5036.668, 221.7619
5038.597, 189.7686
5040.525, 180.5849
5042.454, 214.3016
5044.382, 219.2259
5046.311, 206.4969
5048.239, 189.2054
5050.167, 209.5029
5052.096, 213.3178
5054.024, 205.3646
5055.953, 228.5875
5057.881, 206.1173
5059.810, 170.5248
5061.738, 183.2920
5063.667, 203.9133
5065.595, 212.5995
5067.523, 193.2232
5069.452, 177.3929
5071.380, 180.4209
5073.309, 214.6129
5075.237, 214.3639
5077.166, 210.5519
5079.094, 214.1723
5081.023, 213.4901
5082.951, 209.7736
5084.880, 205.2420
5086.808, 206.0044
5088.737, 211.0388
5090.665, 216.1360
5092.594, 212.9723
5094.522, 214.2471
5096.451, 212.8804
5098.379, 195.5211
5100.308, 205.7235
5102.236, 218.0631
5104.165, 209.8911
5106.093, 223.8367
5108.021, 226.8146
5109.950, 209.3829
5111.878, 201.8344
5113.807, 202.7371
5115.735, 207.3327
5117.664, 196.9063
5119.592, 208.5787
5121.521, 229.3814
5123.449, 228.5638
5125.377, 207.6509
5127.306, 192.7770
5129.234, 208.9734
5131.163, 218.7081
5133.091, 218.2638
5135.020, 207.0659
5136.948, 201.0442
5138.877, 208.0990
5140.805, 223.4965
5142.734, 216.5859
5144.662, 222.8955
5146.591, 230.8462
5148.519, 198.2372
5150.448, 200.0109
5152.376, 214.6665
5154.305, 216.1355
5156.233, 210.2569
5158.162, 209.6381
5160.090, 216.9755
5162.019, 192.3820
5163.947, 187.1014
5165.875, 208.2193
5167.804, 231.7901
5169.732, 226.1417
5171.661, 205.4174
5173.589, 195.9545
5175.518, 203.9551
5177.446, 211.9425
5179.375, 206.2660
5181.303, 200.4093
5183.231, 201.0617
5185.160, 208.4668
5187.088, 210.1287
5189.017, 202.9420
5190.945, 194.7299
5192.874, 200.9196
5194.802, 224.3680
5196.731, 236.0652
5198.659, 199.1652
5200.588, 207.9473
5202.516, 213.4151
5204.445, 196.9947
5206.373, 197.4221
5208.302, 204.3910
5210.230, 213.9408
5212.159, 228.1337
5214.087, 217.5431
5216.016, 204.1842
5217.944, 214.9315
5219.873, 214.0286
5221.801, 217.4505
5223.729, 228.1070
5225.658, 208.7461
5227.586, 207.8675
5229.515, 218.0186
5231.443, 192.4362
5233.372, 190.7182
5235.300, 203.2977
5237.229, 217.7704
5239.157, 210.8010
5241.085, 208.1183
5243.014, 217.6293
5244.942, 228.7675
5246.871, 224.8466
5248.799, 212.3860
5250.728, 207.5628
5252.656, 199.9622
5254.585, 194.4356
5256.513, 194.8452
5258.442, 203.8868
5260.370, 209.3789
5262.299, 212.1144
5264.227, 233.3846
5266.156, 220.5655
5268.084, 200.3345
5270.013, 216.9537
5271.941, 211.8466
5273.870, 199.3530
5275.798, 188.9765
5277.727, 193.5460
5279.655, 206.7134
5281.583, 220.2855
5283.512, 225.5407
5285.440, 209.1589
5287.369, 195.8246
5289.297, 202.4153
5291.226, 221.2743
5293.154, 224.3410
5295.083, 212.5899
5297.011, 207.3854
5298.939, 207.9327
5300.868, 206.9054
5302.796, 197.6148
5304.725, 209.4363
5306.653, 218.2945
5308.582, 217.1535
5310.510, 219.0806
5312.439, 195.0110
5314.367, 177.4035
5316.296, 204.8401
5318.224, 206.8233
5320.153, 211.9592
5322.081, 227.1887
5324.010, 207.9734
5325.938, 204.5583
5327.867, 209.9885
5329.795, 203.5696
5331.724, 201.0922
5333.652, 207.8259
5335.581, 219.4489
5337.509, 201.6725
5339.438, 198.2045
5341.366, 208.8157
5343.294, 228.0610
5345.223, 219.4929
5347.151, 206.8380
5349.080, 200.7394
5351.008, 189.4472
5352.937, 192.9920
5354.865, 199.1524
5356.793, 187.0932
5358.722, 213.2843
5360.650, 230.0969
5362.579, 218.8955
5364.507, 210.6239
5366.436, 207.5824
5368.364, 212.3328
5370.293, 228.1335
5372.221, 234.9642
5374.150, 241.9018
5376.078, 245.5931
5378.007, 211.9795
5379.935, 194.8970
5381.864, 197.9883
5383.792, 220.4560
5385.721, 208.6485
5387.649, 198.8832
5389.578, 200.1602
5391.506, 200.7144
5393.435, 197.2313
5395.363, 198.1404
5397.292, 209.1271
5399.220, 224.9048
5401.148, 222.7894
5403.077, 208.5687
5405.005, 202.5041
5406.934, 204.4677
5408.862, 218.7088
5410.791, 240.8518
5412.719, 213.0125
5414.647, 199.7214
5416.576, 202.6638
5418.504, 208.0845
5420.433, 225.5294
5422.361, 224.7231
5424.290, 204.9882
5426.218, 202.9496
5428.147, 213.3259
5430.075, 214.5469
5432.004, 191.0049
5433.932, 207.7508
5435.861, 209.5981
5437.789, 199.0090
5439.718, 203.8269
5441.646, 212.6114
5443.575, 221.3424
5445.503, 226.6148
5447.432, 218.6620
5449.360, 212.2133
5451.289, 209.1304
5453.217, 209.0586
5455.146, 213.0783
5457.074, 202.1971
5459.002, 189.7357
5460.931, 211.5754
5462.859, 218.0249
5464.788, 215.9546
5466.716, 212.1915
5468.645, 207.1307
5470.573, 207.4900
5472.501, 212.4409
5474.430, 221.6758
5476.358, 198.7932
5478.287, 199.3104
5480.215, 217.4842
5482.144, 216.8435
5484.072, 225.1241
5486.001, 214.3603
5487.929, 189.5549
5489.858, 219.7393
5491.786, 226.6839
5493.715, 217.0787
5495.643, 205.0988
5497.572, 223.9988
5499.500, 229.7888
5501.429, 219.0956
5503.357, 199.0014
5505.286, 193.7778
5507.214, 200.9648
5509.143, 213.3895
5511.071, 219.2695
5513.000, 226.7356
5514.928, 228.8849
5516.856, 219.9514
5518.785, 182.5674
5520.713, 186.5351
5522.642, 204.5352
5524.570, 209.3890
5526.499, 222.8061
5528.427, 226.6561
5530.355, 219.1495
5532.284, 203.4771
5534.212, 221.4264
5536.141, 217.5952
5538.069, 201.4685
5539.998, 221.3324
5541.926, 199.2216
5543.855, 195.3210
5545.783, 222.2944
5547.712, 227.2583
5549.640, 222.1354
5551.569, 214.5507
5553.497, 209.1831
5555.426, 210.0003
5557.354, 224.6805
5559.283, 237.6426
5561.211, 236.0311
5563.140, 221.5039
5565.068, 214.4023
5566.997, 209.5405
5568.925, 198.5539
5570.854, 212.0729
5572.782, 229.5767
5574.710, 231.0096
5576.639, 182.5511
5578.567, 218.2531
5580.496, 231.0239
5582.424, 212.9841
5584.353, 223.0315
5586.281, 215.1454
5588.209, 213.1478
5590.138, 218.1225
5592.066, 204.0448
5593.995, 229.4039
5595.923, 231.7483
5597.852, 199.6772
5599.780, 210.0332
5601.709, 214.8862
5603.637, 207.9926
5605.566, 195.8540
5607.494, 220.8092
5609.423, 217.4560
5611.351, 204.2149
5613.280, 198.7243
5615.208, 194.2774
5617.137, 216.8599
5619.065, 227.7906
5620.994, 203.7555
5622.922, 194.7361
5624.851, 202.3354
5626.779, 207.1495
5628.708, 197.3469
5630.636, 204.4184
5632.564, 210.6367
5634.493, 222.0516
5636.421, 244.7825
5638.350, 201.8367
5640.278, 213.9539
5642.207, 235.5744
5644.135, 203.6440
5646.063, 180.4904
5647.992, 194.3098
5649.920, 219.5167
5651.849, 227.4501
5653.777, 230.7301
5655.706, 205.1668
5657.634, 189.5283
5659.563, 217.0472
5661.491, 221.5253
5663.420, 206.4087
5665.348, 198.5054
5667.277, 218.1572
5669.205, 206.2080
5671.134, 209.0737
5673.062, 209.2609
5674.991, 186.5202
5676.919, 208.4050
5678.848, 198.7220
5680.776, 195.9506
5682.705, 233.7716
5684.633, 237.2186
5686.562, 222.6661
5688.490, 212.6901
5690.418, 218.0238
5692.347, 217.2554
5694.275, 226.5257
5696.204, 229.6848
5698.132, 217.4700
5700.061, 205.5464
5701.989, 185.3723
5703.917, 184.4390
5705.846, 209.1672
5707.774, 221.8567
5709.703, 225.3733
5711.631, 220.8563
5713.560, 211.0471
5715.488, 199.9065
5717.417, 211.1924
5719.345, 214.6730
5721.274, 205.9715
5723.202, 204.1217
5725.131, 186.3297
5727.059, 189.7079
5728.988, 207.8450
5730.916, 210.3235
5732.845, 222.7353
5734.773, 245.4537
5736.702, 252.4809
5738.630, 216.0001
5740.559, 205.6854
5742.487, 206.0079
5744.416, 200.9399
5746.344, 183.4775
5748.272, 212.9707
5750.201, 214.4525
5752.129, 206.3728
5754.058, 209.1300
5755.986, 210.7710
5757.915, 233.9176
5759.843, 237.8177
5761.771, 219.3038
5763.700, 228.7897
5765.628, 216.3939
5767.557, 194.2666
5769.485, 181.9292
5771.414, 197.5258
5773.342, 212.9707
5775.271, 236.4094
5777.199, 243.9669
5779.128, 211.8382
5781.056, 206.9557
5782.985, 205.5948
5784.913, 208.9676
5786.842, 219.0588
5788.770, 220.9802
5790.699, 217.4404
5792.627, 211.5272
5794.556, 204.0990
5796.484, 191.9635
5798.413, 201.2404
5800.341, 193.4601
5802.270, 184.8530
5804.198, 214.3794
5806.126, 214.3852
5808.055, 212.7957
5809.983, 202.2146
5811.912, 180.2405
5813.840, 209.7547
5815.769, 207.2121
5817.697, 195.3465
5819.625, 194.9689
5821.554, 209.7889
5823.482, 216.5430
5825.411, 219.3085
5827.339, 212.0272
5829.268, 184.4205
5831.196, 206.0494
5833.125, 196.6951
5835.053, 188.6875
5836.982, 211.9298
5838.910, 219.5191
5840.839, 205.0964
5842.767, 203.6137
5844.696, 213.6629
5846.624, 197.2525
5848.553, 206.6115
5850.481, 221.8622
5852.410, 222.2448
5854.338, 199.9714
5856.267, 212.2675
5858.195, 205.4578
5860.124, 199.7076
5862.052, 207.5981
5863.980, 218.6614
5865.909, 206.7544
5867.837, 202.7779
5869.766, 204.1454
5871.694, 200.0549
5873.623, 236.9848
5875.551, 209.2369
5877.479, 202.2702
5879.408, 240.4197
5881.336, 210.6727
5883.265, 211.0371
5885.193, 217.6882
5887.122, 219.1462
5889.050, 215.7450
5890.979, 226.9369
5892.907, 215.7865
5894.836, 203.8486
5896.764, 207.9748
5898.693, 236.7695
5900.621, 234.5649
5902.550, 208.7945
5904.478, 189.1470
5906.407, 200.7706
5908.335, 220.9428
5910.264, 221.1705
5912.192, 226.9006
5914.121, 236.2101
5916.049, 215.1826
5917.978, 231.0593
5919.906, 210.8213
5921.834, 189.5483
5923.763, 204.0633
5925.691, 208.5339
5927.620, 233.9793
5929.548, 243.0542
5931.477, 230.6848
5933.405, 214.3180
5935.333, 231.4773
5937.262, 222.7577
5939.190, 211.4730
5941.119, 207.2883
5943.047, 183.8858
5944.976, 217.4554
5946.904, 214.1335
5948.833, 200.3773
5950.761, 214.8527
5952.690, 219.4658
5954.618, 217.5093
5956.547, 226.2113
5958.475, 227.7193
5960.404, 197.8198
5962.332, 214.0492
5964.261, 230.5393
5966.189, 225.1676
5968.118, 203.8785
5970.046, 193.9346
5971.975, 203.4068
5973.903, 229.6887
5975.832, 239.7919
5977.760, 222.1357
5979.688, 215.5568
5981.617, 203.5074
5983.545, 226.5575
5985.474, 247.4232
5987.402, 226.3744
5989.331, 198.9388
5991.259, 204.8076
5993.188, 211.7881
5995.116, 211.9147
5997.044, 213.1579
5998.973, 222.6913
6000.901, 225.1512
6002.830, 228.5618
6004.758, 228.6014
6006.687, 210.4857
6008.615, 217.8635
6010.544, 194.1212
6012.472, 195.5822
6014.401, 227.1500
6016.329, 231.2424
6018.258, 234.1875
6020.186, 231.6956
6022.115, 223.4490
6024.043, 213.1159
6025.972, 206.9621
6027.900, 218.7717
6029.829, 208.0228
6031.757, 210.7872
6033.686, 232.0058
6035.614, 207.7820
6037.542, 237.9505
6039.471, 243.9575
6041.399, 233.0190
6043.328, 225.6942
6045.256, 221.2622
6047.185, 212.6512
6049.113, 210.0722
6051.042, 217.8655
6052.970, 228.5798
6054.898, 220.4037
6056.827, 208.6915
6058.755, 229.0579
6060.684, 239.8996
6062.612, 221.2076
6064.541, 217.0407
6066.469, 214.8086
6068.398, 215.1752
6070.326, 215.5187
6072.255, 219.6834
6074.183, 239.7785
6076.112, 216.3100
6078.040, 199.7605
6079.969, 209.2294
6081.897, 231.1680
6083.826, 230.9008
6085.754, 232.2826
6087.683, 212.7433
6089.611, 206.0703
6091.540, 218.6875
6093.468, 223.5330
6095.396, 234.6821
6097.325, 231.0455
6099.253, 225.9643
6101.182, 234.5257
6103.110, 258.8315
6105.039, 247.0696
6106.967, 222.7053
6108.896, 213.3611
6110.824, 215.1239
6112.752, 215.5492
6114.681, 231.5098
6116.609, 222.4876
6118.538, 227.2122
6120.466, 220.6880
6122.395, 189.5267
6124.323, 212.8994
6126.252, 221.7663
6128.180, 209.8285
6130.109, 210.0978
6132.037, 222.1875
6133.966, 196.4317
6135.894, 198.5608
6137.823, 209.6336
6139.751, 225.2532
6141.680, 232.3061
6143.608, 216.4957
6145.537, 220.3350
6147.465, 225.3321
6149.394, 241.8466
6151.322, 244.9145
6153.250, 217.3581
6155.179, 222.4323
6157.107, 234.9594
6159.036, 232.6296
6160.964, 213.9088
6162.893, 197.9360
6164.821, 217.5975
6166.750, 210.6575
6168.678, 222.2190
6170.606, 222.3517
6172.535, 205.4695
6174.463, 193.7758
6176.392, 233.3028
6178.320, 224.4088
6180.249, 221.0296
6182.177, 213.6396
6184.106, 193.7593
6186.034, 206.8516
6187.963, 204.5424
6189.891, 212.4145
6191.820, 211.9616
6193.748, 208.3074
6195.677, 223.0909
6197.605, 231.5670
6199.534, 231.6471
6201.462, 225.9627
6203.391, 210.6079
6205.319, 195.4676
6207.248, 221.0247
6209.176, 211.0012
6211.104, 201.7775
6213.033, 194.5918
6214.961, 193.0465
6216.890, 201.2622
6218.818, 201.6497
6220.747, 202.0494
6222.675, 207.4828
6224.604, 218.4540
6226.532, 224.7713
6228.460, 211.8430
6230.389, 204.4623
6232.317, 208.4906
6234.246, 222.0663
6236.174, 227.8526
6238.103, 220.3196
6240.031, 220.3413
6241.960, 242.4753
6243.888, 234.8172
6245.817, 222.3485
6247.745, 215.2339
6249.674, 209.5361
6251.602, 214.6163
6253.531, 189.1841
6255.459, 205.4567
6257.388, 218.1077
6259.316, 206.1142
6261.245, 197.2595
6263.173, 230.9551
6265.102, 231.9066
6267.030, 220.2099
6268.958, 219.8896
6270.887, 223.9477
6272.815, 207.6743
6274.744, 192.7737
6276.672, 200.2635
6278.601, 216.5453
6280.529, 220.9810
6282.458, 213.7571
6284.386, 214.9212
6286.314, 231.5356
6288.243, 214.7039
6290.171, 209.4208
6292.100, 210.3391
6294.028, 208.8050
6295.957, 220.3860
6297.885, 202.2484
6299.814, 216.7225
6301.742, 210.6057
6303.671, 215.8808
6305.599, 234.1110
6307.528, 200.7330
6309.456, 185.3624
6311.385, 198.0081
6313.313, 194.0811
6315.242, 201.2676
6317.170, 215.4454
6319.099, 190.7222
6321.027, 192.2917
6322.956, 216.4367
6324.884, 251.2473
6326.813, 249.9249
6328.741, 219.5674
6330.669, 206.5308
6332.598, 179.0723
6334.526, 216.8487
6336.455, 216.2634
6338.383, 210.6389
6340.312, 225.2105
6342.240, 243.2345
6344.168, 240.0836
6346.097, 230.3826
6348.025, 222.5627
6349.954, 216.4473
6351.882, 206.6787
6353.811, 196.1503
6355.739, 209.1913
6357.668, 228.7284
6359.596, 228.9499
6361.525, 228.0567
6363.453, 223.4827
6365.382, 215.3355
6367.310, 217.1933
6369.239, 208.2547
6371.167, 207.1252
6373.096, 223.1436
6375.024, 223.6804
6376.953, 222.0819
6378.881, 246.5775
6380.810, 250.3980
6382.738, 223.0378
6384.667, 217.0584
6386.595, 230.4108
6388.523, 233.1400
6390.452, 221.2393
6392.380, 227.0472
6394.309, 192.3456
6396.237, 216.9284
6398.166, 212.5191
6400.094, 205.4243
6402.022, 204.3787
6403.951, 189.6394
6405.879, 206.0939
6407.808, 229.2645
6409.736, 196.5588
6411.665, 193.0428
6413.593, 206.5593
6415.522, 202.7285
6417.450, 192.2671
6419.379, 194.2915
6421.307, 245.6205
6423.236, 215.9076
6425.164, 194.7494
6427.093, 197.1105
6429.021, 199.4097
6430.950, 232.7505
6432.878, 226.6977
6434.807, 199.7578
6436.735, 202.9317
6438.664, 203.5934
6440.592, 197.6437
6442.521, 206.9019
6444.449, 226.6551
6446.377, 213.0854
6448.306, 226.0627
6450.234, 210.2179
6452.163, 203.1963
6454.091, 212.6138
6456.020, 212.0136
6457.948, 222.5447
6459.876, 229.9198
6461.805, 213.3208
6463.733, 196.6120
6465.662, 202.2536
6467.590, 201.5480
6469.519, 178.9181
6471.447, 230.3241
6473.376, 185.8360
6475.304, 194.2970
6477.233, 216.9191
6479.161, 225.1977
6481.090, 209.3758
6483.018, 182.3522
6484.947, 207.0091
6486.875, 193.3600
6488.804, 208.6864
6490.732, 200.1824
6492.661, 205.4060
6494.589, 209.9646
6496.518, 199.1430
6498.446, 226.7657
6500.375, 174.9500
6502.303, 227.4692
6504.231, 204.8761
6506.160, 179.4459
6508.088, 187.2084
6510.017, 197.4128
6511.945, 191.7170
6513.874, 240.1061
6515.802, 180.3539
6517.730, 173.3157
6519.659, 184.8737
6521.587, 190.3010
6523.516, 207.9445
6525.444, 237.2234
6527.373, 211.4470
6529.301, 169.9984
6531.230, 198.0404
6533.158, 192.7826
6535.087, 193.1085
6537.015, 203.6867
6538.944, 204.5019
6540.872, 209.9929
6542.801, 215.8150
6544.729, 220.8317
6546.658, 203.8344
6548.586, 207.8214
6550.515, 204.0531
6552.443, 197.6049
6554.372, 214.9808
6556.300, 228.1458
6558.229, 252.1522
6560.157, 195.1828
6562.085, 173.1180
6564.014, 182.6796
6565.942, 207.0387
6567.871, 220.3794
6569.799, 205.7367
6571.728, 218.7557
6573.656, 217.8907
6575.584, 220.7632
6577.513, 225.7254
6579.441, 216.8383
6581.370, 199.7173
6583.298, 201.8690
6585.227, 222.4635
6587.155, 193.0707
6589.084, 174.6228
6591.012, 172.8186
6592.941, 199.9357
6594.869, 220.4315
6596.798, 200.4376
6598.726, 176.4102
6600.655, 197.7158
6602.583, 201.4590
6604.512, 171.6706
6606.440, 182.7879
6608.369, 210.6593
6610.297, 202.4878
6612.226, 198.0182
6614.154, 214.5461
6616.083, 214.6669
6618.011, 182.0957
6619.939, 166.7877
6621.868, 182.0179
6623.796, 194.5272
6625.725, 198.9771
6627.653, 206.8105
##END=



