##NAMES=Awaruite
##RRUFFID=R070671
##IDEAL CHEMISTRY=Ni_3_Fe
##LOCALITY=Heazlewood District, Tasmania, Australia
##OWNER=RRUFF
##SOURCE=James Shigley
##DESCRIPTION=Silver-white metallic massive nodules
##STATUS=The identification of this mineral is not yet confirmed
##URL=https://www.rruff.net/odr/rruff_sample/R070671
##FILETYPE=Raman Processed
##RAMAN WAVELENGTH=780

154.1089, 1272.625
156.0374, 1256.401
157.9658, 1260.631
159.8943, 1271.991
161.8228, 1301.838
163.7512, 1322.014
165.6797, 1310.345
167.6082, 1288.184
169.5366, 1291.683
171.4651, 1320.189
173.3936, 1347.458
175.3220, 1363.871
177.2505, 1385.541
179.1790, 1427.508
181.1074, 1469.608
183.0359, 1487.559
184.9644, 1484.036
186.8928, 1471.251
188.8213, 1445.920
190.7498, 1418.150
192.6782, 1382.788
194.6067, 1351.452
196.5352, 1340.099
198.4636, 1341.594
200.3921, 1332.610
202.3206, 1298.720
204.2490, 1285.048
206.1775, 1312.646
208.1060, 1345.780
210.0344, 1359.786
211.9629, 1364.225
213.8914, 1380.565
215.8198, 1415.217
217.7483, 1434.536
219.6768, 1436.942
221.6052, 1422.657
223.5337, 1378.644
225.4622, 1325.124
227.3906, 1285.705
229.3191, 1260.418
231.2476, 1240.839
233.1760, 1228.760
235.1045, 1218.829
237.0330, 1211.948
238.9614, 1205.776
240.8899, 1199.394
242.8184, 1191.744
244.7468, 1180.198
246.6753, 1161.773
248.6038, 1147.320
250.5322, 1139.122
252.4607, 1132.822
254.3892, 1128.586
256.3176, 1124.121
258.2461, 1115.270
260.1746, 1100.892
262.1030, 1092.258
264.0315, 1091.077
265.9600, 1093.390
267.8884, 1099.547
269.8169, 1108.390
271.7454, 1116.601
273.6738, 1126.417
275.6023, 1146.681
277.5308, 1184.760
279.4592, 1217.106
281.3877, 1239.204
283.3162, 1261.322
285.2446, 1289.775
287.1731, 1318.098
289.1016, 1336.738
291.0300, 1345.581
292.9585, 1369.740
294.8870, 1430.580
296.8154, 1469.309
298.7439, 1478.681
300.6724, 1468.619
302.6008, 1432.879
304.5293, 1386.890
306.4578, 1353.385
308.3862, 1335.355
310.3147, 1317.283
312.2432, 1296.267
314.1716, 1279.479
316.1001, 1269.147
318.0286, 1262.719
319.9570, 1262.763
321.8855, 1264.163
323.8140, 1252.858
325.7424, 1224.087
327.6709, 1207.292
329.5994, 1201.507
331.5278, 1207.660
333.4563, 1238.041
335.3848, 1267.935
337.3132, 1278.068
339.2417, 1274.470
341.1702, 1276.475
343.0986, 1288.163
345.0271, 1290.019
346.9556, 1280.890
348.8840, 1263.460
350.8125, 1230.372
352.7410, 1198.639
354.6694, 1183.513
356.5979, 1178.056
358.5264, 1159.337
360.4548, 1122.097
362.3833, 1098.512
364.3118, 1093.662
366.2402, 1092.175
368.1687, 1092.312
370.0972, 1089.330
372.0256, 1082.173
373.9541, 1070.235
375.8826, 1046.818
377.8110, 1009.695
379.7395, 991.8863
381.6680, 997.1877
383.5964, 1010.983
385.5249, 1044.012
387.4534, 1064.673
389.3818, 1042.099
391.3103, 1004.722
393.2388, 1002.952
395.1672, 1034.844
397.0957, 1041.498
399.0242, 1017.147
400.9526, 999.3636
402.8811, 999.7822
404.8096, 1003.688
406.7380, 1008.721
408.6665, 1011.198
410.5950, 1002.629
412.5234, 986.8135
414.4519, 986.0782
416.3804, 1001.799
418.3088, 1011.560
420.2373, 1009.007
422.1658, 1006.215
424.0942, 1010.105
426.0227, 1012.855
427.9512, 1006.081
429.8796, 995.8413
431.8081, 996.9706
433.7366, 1007.235
435.6650, 1007.566
437.5935, 993.8929
439.5220, 984.9020
441.4504, 986.4135
443.3789, 991.9550
445.3074, 1006.562
447.2358, 1018.857
449.1643, 1010.998
451.0928, 991.5582
453.0212, 988.8253
454.9497, 1002.227
456.8782, 1009.672
458.8066, 1006.240
460.7351, 1001.910
462.6636, 998.2313
464.5920, 995.6981
466.5205, 995.5469
468.4490, 995.6367
470.3774, 991.9111
472.3059, 986.3369
474.2344, 986.1873
476.1628, 992.2888
478.0913, 997.1073
480.0198, 1001.447
481.9482, 999.5753
483.8767, 986.3516
485.8052, 972.5585
487.7336, 960.9399
489.6621, 953.7910
491.5906, 956.4027
493.5190, 964.7906
495.4475, 970.2073
497.3760, 972.4655
499.3044, 969.8620
501.2329, 957.0943
503.1614, 948.7524
505.0898, 950.4668
507.0183, 952.5470
508.9468, 948.8119
510.8752, 944.7642
512.8037, 945.8237
514.7322, 950.4547
516.6606, 956.8013
518.5891, 964.8654
520.5176, 967.9667
522.4460, 961.6265
524.3745, 958.5992
526.3030, 960.6224
528.2314, 965.4127
530.1599, 976.7260
532.0884, 985.7970
534.0168, 979.5521
535.9453, 969.6227
537.8738, 976.5783
539.8022, 997.8500
541.7307, 1008.331
543.6592, 1004.268
545.5876, 999.4075
547.5161, 991.7507
549.4446, 986.4004
551.3730, 986.2952
553.3015, 987.4059
555.2300, 991.4509
557.1584, 991.2111
559.0869, 974.8517
561.0154, 950.6522
562.9438, 943.4455
564.8723, 956.5226
566.8008, 959.4043
568.7292, 937.6524
570.6577, 927.7790
572.5862, 941.4995
574.5146, 951.5209
576.4431, 944.1619
578.3716, 936.7892
580.3000, 944.5837
582.2285, 956.0519
584.1570, 957.5338
586.0854, 951.2007
588.0139, 945.9740
589.9424, 942.6146
591.8708, 939.0608
593.7993, 934.7111
595.7278, 930.0010
597.6563, 920.2971
599.5847, 920.3357
601.5132, 944.9709
603.4417, 965.3804
605.3701, 958.7914
607.2986, 944.9664
609.2271, 938.5215
611.1555, 939.1536
613.0840, 948.4731
615.0125, 966.0105
616.9409, 973.3079
618.8694, 967.1154
620.7979, 964.2845
622.7263, 968.6024
624.6548, 965.6316
626.5833, 945.4830
628.5117, 930.8935
630.4402, 939.3667
632.3687, 948.1587
634.2971, 940.2740
636.2256, 926.5466
638.1541, 920.5555
640.0825, 920.3560
642.0110, 918.7870
643.9395, 915.6207
645.8679, 914.6959
647.7964, 916.3016
649.7249, 919.2408
651.6533, 924.5010
653.5818, 926.4731
655.5103, 919.1054
657.4387, 916.8815
659.3672, 933.3089
661.2957, 948.6145
663.2241, 947.9604
665.1526, 942.2693
667.0811, 945.3627
669.0095, 953.3165
670.9380, 956.2453
672.8665, 954.1273
674.7949, 949.0170
676.7234, 940.8433
678.6519, 937.6960
680.5803, 941.6038
682.5088, 944.5048
684.4373, 944.6730
686.3657, 942.8824
688.2942, 938.7867
690.2227, 934.3727
692.1511, 925.5571
694.0796, 920.9473
696.0081, 934.2230
697.9365, 951.4026
699.8650, 948.8046
701.7935, 935.3497
703.7219, 939.8474
705.6504, 957.5786
707.5789, 960.0777
709.5073, 946.2119
711.4358, 938.8189
713.3643, 942.2084
715.2927, 943.5322
717.2212, 937.9973
719.1497, 934.6066
721.0781, 938.1251
723.0066, 940.8763
724.9351, 938.1412
726.8635, 936.2545
728.7920, 941.2592
730.7205, 946.7972
732.6489, 946.0068
734.5774, 941.2154
736.5059, 935.7943
738.4343, 931.3416
740.3628, 930.9325
742.2913, 933.8008
744.2197, 937.9213
746.1482, 943.8236
748.0767, 942.3559
750.0051, 929.0244
751.9336, 919.4354
753.8621, 916.0416
755.7905, 916.7216
757.7190, 925.1279
759.6475, 931.4542
761.5759, 930.7545
763.5044, 929.5362
765.4329, 932.6730
767.3613, 935.4917
769.2898, 934.8212
771.2183, 930.8879
773.1467, 918.5963
775.0752, 906.1223
777.0037, 911.8727
778.9321, 928.8505
780.8606, 931.4770
782.7891, 920.4791
784.7175, 916.4390
786.6460, 920.9111
788.5745, 926.0285
790.5029, 932.8364
792.4314, 937.3642
794.3599, 936.9997
796.2883, 938.7198
798.2168, 948.6127
800.1453, 951.9179
802.0737, 937.0187
804.0022, 926.6575
805.9307, 937.6982
807.8591, 946.0984
809.7876, 931.1765
811.7161, 914.8195
813.6445, 917.9776
815.5730, 926.6655
817.5015, 927.1234
819.4299, 921.9384
821.3584, 912.8405
823.2869, 903.5246
825.2153, 906.7151
827.1438, 919.9074
829.0723, 923.9679
831.0007, 918.4475
832.9292, 916.5497
834.8577, 917.8646
836.7861, 924.3912
838.7146, 939.5428
840.6431, 948.1849
842.5715, 948.4037
844.5000, 945.9197
846.4285, 941.3273
848.3569, 934.2291
850.2854, 921.8068
852.2139, 913.7529
854.1423, 914.0465
856.0708, 917.9362
857.9993, 928.4092
859.9277, 934.3026
861.8562, 923.6574
863.7847, 912.8855
865.7131, 912.3281
867.6416, 916.8231
869.5701, 925.3565
871.4985, 932.5789
873.4270, 927.0110
875.3555, 919.5216
877.2839, 933.3337
879.2124, 957.1583
881.1409, 965.2789
883.0693, 959.6628
884.9978, 942.8135
886.9263, 917.8834
888.8547, 906.9260
890.7832, 909.5314
892.7117, 919.3676
894.6401, 936.3852
896.5686, 949.0856
898.4971, 956.9334
900.4255, 960.4698
902.3540, 959.5688
904.2825, 956.3652
906.2109, 951.1064
908.1394, 942.4236
910.0679, 926.7764
911.9963, 924.3552
913.9248, 946.5580
915.8533, 959.2524
917.7817, 949.7711
919.7102, 939.5714
921.6387, 931.0648
923.5671, 928.8639
925.4956, 939.6968
927.4241, 948.6483
929.3525, 947.2559
931.2810, 947.9097
933.2095, 964.3226
935.1379, 973.0930
937.0664, 949.2736
938.9949, 929.3556
940.9233, 945.2919
942.8518, 965.6204
944.7803, 970.2963
946.7087, 962.5826
948.6372, 931.6589
950.5657, 903.9680
952.4941, 913.2310
954.4226, 936.9134
956.3511, 952.6932
958.2795, 960.9425
960.2080, 958.5084
962.1365, 952.2255
964.0649, 953.8911
965.9934, 958.2498
967.9219, 955.7122
969.8503, 949.3355
971.7788, 940.8558
973.7073, 935.3281
975.6357, 951.1279
977.5642, 976.6800
979.4927, 977.6122
981.4211, 961.2975
983.3496, 952.4655
985.2781, 950.1958
987.2065, 948.6027
989.1350, 947.5444
991.0635, 947.8568
992.9919, 949.4420
994.9204, 951.0595
996.8489, 952.6619
998.7773, 955.4387
1000.706, 959.3545
1002.634, 955.0036
1004.563, 941.6964
1006.491, 937.0400
1008.420, 941.2476
1010.348, 957.0591
1012.277, 987.5717
1014.205, 1001.164
1016.134, 995.7280
1018.062, 984.7604
1019.990, 964.7767
1021.919, 964.6399
1023.847, 990.6218
1025.776, 1000.597
1027.704, 990.4074
1029.633, 986.7715
1031.561, 992.9247
1033.490, 988.2291
1035.418, 967.0955
1037.347, 961.2747
1039.275, 975.3293
1041.204, 985.9382
1043.132, 992.2815
1045.061, 995.8478
1046.989, 997.3448
1048.917, 993.9128
1050.846, 983.3130
1052.774, 982.6082
1054.703, 994.0206
1056.631, 997.7318
1058.560, 991.7903
1060.488, 991.3948
1062.417, 998.3633
1064.345, 999.6246
1066.274, 994.7063
1068.202, 989.4434
1070.131, 982.3493
1072.059, 986.8016
1073.988, 1005.125
1075.916, 1007.710
1077.844, 992.7182
1079.773, 983.9063
1081.701, 982.0735
1083.630, 990.8803
1085.558, 1010.267
1087.487, 1006.679
1089.415, 979.9528
1091.344, 972.9921
1093.272, 986.4553
1095.201, 999.9203
1097.129, 1011.427
1099.058, 1004.044
1100.986, 981.3732
1102.915, 977.8274
1104.843, 990.5284
1106.771, 1002.392
1108.700, 1012.937
1110.628, 1014.965
1112.557, 1011.523
1114.485, 1015.107
1116.414, 1021.183
1118.342, 1021.482
1120.271, 1019.254
1122.199, 1014.673
1124.128, 1008.841
1126.056, 1009.170
1127.985, 1013.058
1129.913, 1015.089
1131.842, 1017.390
1133.770, 1023.958
1135.698, 1030.137
1137.627, 1025.330
1139.555, 1018.668
1141.484, 1027.104
1143.412, 1040.615
1145.341, 1045.350
1147.269, 1043.783
1149.198, 1040.577
1151.126, 1036.704
1153.055, 1027.784
1154.983, 1020.231
1156.912, 1019.565
1158.840, 1025.804
1160.769, 1044.770
1162.697, 1060.565
1164.625, 1059.506
1166.554, 1057.713
1168.482, 1066.589
1170.411, 1073.950
1172.339, 1071.746
1174.268, 1069.427
1176.196, 1068.046
1178.125, 1073.175
1180.053, 1093.345
1181.982, 1105.434
1183.910, 1100.474
1185.839, 1095.572
1187.767, 1091.647
1189.696, 1091.649
1191.624, 1098.249
1193.552, 1101.541
1195.481, 1100.259
1197.409, 1104.076
1199.338, 1112.498
1201.266, 1119.064
1203.195, 1124.890
1205.123, 1130.267
1207.052, 1135.448
1208.980, 1139.206
1210.909, 1139.857
1212.837, 1129.116
1214.766, 1112.913
1216.694, 1116.454
1218.623, 1131.806
1220.551, 1133.565
1222.479, 1131.011
1224.408, 1144.171
1226.336, 1162.644
1228.265, 1178.355
1230.193, 1184.714
1232.122, 1170.024
1234.050, 1154.049
1235.979, 1147.173
1237.907, 1147.411
1239.836, 1153.310
1241.764, 1161.396
1243.693, 1173.906
1245.621, 1183.171
1247.550, 1189.092
1249.478, 1189.267
1251.406, 1176.555
1253.335, 1174.690
1255.263, 1191.750
1257.192, 1203.402
1259.120, 1206.286
1261.049, 1210.230
1262.977, 1214.786
1264.906, 1225.251
1266.834, 1241.023
1268.763, 1246.915
1270.691, 1244.774
1272.620, 1237.892
1274.548, 1231.833
1276.477, 1240.509
1278.405, 1255.875
1280.333, 1270.103
1282.262, 1276.357
1284.190, 1260.282
1286.119, 1247.374
1288.047, 1259.979
1289.976, 1275.724
1291.904, 1287.193
1293.833, 1289.903
1295.761, 1275.533
1297.690, 1273.446
1299.618, 1293.556
1301.547, 1306.067
1303.475, 1307.729
1305.404, 1296.494
1307.332, 1272.580
1309.260, 1272.382
1311.189, 1293.208
1313.117, 1301.086
1315.046, 1297.572
1316.974, 1294.134
1318.903, 1293.911
1320.831, 1303.812
1322.760, 1311.190
1324.688, 1295.431
1326.617, 1281.163
1328.545, 1288.052
1330.474, 1300.070
1332.402, 1317.154
1334.331, 1327.589
1336.259, 1320.948
1338.188, 1313.243
1340.116, 1307.786
1342.044, 1304.171
1343.973, 1303.109
1345.901, 1295.087
1347.830, 1280.595
1349.758, 1276.467
1351.687, 1281.295
1353.615, 1279.572
1355.544, 1270.172
1357.472, 1260.370
1359.401, 1253.058
1361.329, 1240.553
1363.258, 1235.965
1365.186, 1261.286
1367.115, 1276.648
1369.043, 1256.659
1370.971, 1238.470
1372.900, 1230.948
1374.828, 1224.107
1376.757, 1220.131
1378.685, 1214.222
1380.614, 1202.518
1382.542, 1200.357
1384.471, 1209.666
1386.399, 1217.006
1388.328, 1217.941
1390.256, 1201.750
1392.185, 1183.761
1394.113, 1191.414
1396.042, 1201.243
1397.970, 1187.936
1399.898, 1179.070
1401.827, 1195.461
1403.755, 1205.484
1405.684, 1195.739
1407.612, 1181.514
1409.541, 1162.994
1411.469, 1157.433
1413.398, 1169.947
1415.326, 1170.447
1417.255, 1161.084
1419.183, 1161.089
1421.112, 1164.903
1423.040, 1163.853
1424.969, 1162.953
1426.897, 1168.212
1428.825, 1162.974
1430.754, 1131.349
1432.682, 1113.898
1434.611, 1129.555
1436.539, 1137.941
1438.468, 1127.356
1440.396, 1129.128
1442.325, 1146.338
1444.253, 1148.478
1446.182, 1138.873
1448.110, 1133.809
1450.039, 1131.543
1451.967, 1123.013
1453.896, 1113.592
1455.824, 1117.159
1457.752, 1123.090
1459.681, 1120.989
1461.609, 1122.379
1463.538, 1127.261
1465.466, 1127.719
1467.395, 1131.561
1469.323, 1129.448
1471.252, 1115.950
1473.180, 1100.609
1475.109, 1090.163
1477.037, 1086.227
1478.966, 1086.177
1480.894, 1088.793
1482.823, 1095.909
1484.751, 1129.987
1486.679, 1133.152
1488.608, 1076.928
1490.536, 1059.077
1492.465, 1085.288
1494.393, 1093.508
1496.322, 1089.017
1498.250, 1100.751
1500.179, 1112.308
1502.107, 1100.198
1504.036, 1082.930
1505.964, 1068.733
1507.893, 1064.565
1509.821, 1082.844
1511.750, 1094.443
1513.678, 1089.933
1515.606, 1084.592
1517.535, 1082.194
1519.463, 1078.285
1521.392, 1072.393
1523.320, 1075.922
1525.249, 1082.606
1527.177, 1073.078
1529.106, 1063.648
1531.034, 1069.723
1532.963, 1073.109
1534.891, 1067.732
1536.820, 1077.266
1538.748, 1100.428
1540.677, 1108.169
1542.605, 1104.329
1544.533, 1089.966
1546.462, 1079.911
1548.390, 1105.755
1550.319, 1125.091
1552.247, 1110.731
1554.176, 1099.084
1556.104, 1096.964
1558.033, 1098.824
1559.961, 1109.154
1561.890, 1114.641
1563.818, 1110.625
1565.747, 1121.596
1567.675, 1136.947
1569.604, 1122.166
1571.532, 1111.613
1573.460, 1123.551
1575.389, 1131.941
1577.317, 1132.185
1579.246, 1132.832
1581.174, 1133.017
1583.103, 1140.865
1585.031, 1149.460
1586.960, 1142.035
1588.888, 1134.259
1590.817, 1142.535
1592.745, 1152.725
1594.674, 1155.591
1596.602, 1148.833
1598.531, 1138.369
1600.459, 1138.598
1602.387, 1145.823
1604.316, 1139.073
1606.244, 1124.087
1608.173, 1121.739
1610.101, 1124.313
1612.030, 1108.518
1613.958, 1085.451
1615.887, 1084.925
1617.815, 1094.730
1619.744, 1085.810
1621.672, 1064.197
1623.601, 1052.358
1625.529, 1042.821
1627.458, 1029.655
1629.386, 1031.942
1631.314, 1034.275
1633.243, 1025.301
1635.171, 1023.856
1637.100, 1026.322
1639.028, 996.7385
1640.957, 965.9645
1642.885, 968.2245
1644.814, 969.2897
1646.742, 959.3355
1648.671, 962.7878
1650.599, 977.5038
1652.528, 977.3702
1654.456, 967.1596
1656.385, 947.5758
1658.313, 934.4916
1660.241, 946.4955
1662.170, 952.0896
1664.098, 950.5168
1666.027, 955.1761
1667.955, 949.9703
1669.884, 941.7179
1671.812, 938.9679
1673.741, 935.7767
1675.669, 928.9272
1677.598, 918.8924
1679.526, 914.5090
1681.455, 916.1596
1683.383, 919.5491
1685.312, 912.5181
1687.240, 904.9839
1689.168, 919.6719
1691.097, 936.6344
1693.025, 928.9808
1694.954, 906.3977
1696.882, 904.3886
1698.811, 919.0092
1700.739, 913.4648
1702.668, 902.2157
1704.596, 909.9142
1706.525, 920.3217
1708.453, 921.6122
1710.382, 917.3481
1712.310, 909.4829
1714.239, 908.6948
1716.167, 911.5339
1718.095, 905.8478
1720.024, 900.3949
1721.952, 900.4113
1723.881, 893.6609
1725.809, 882.6735
1727.738, 890.4780
1729.666, 903.2381
1731.595, 898.4574
1733.523, 888.2626
1735.452, 878.3778
1737.380, 871.8785
1739.309, 867.4167
1741.237, 864.5093
1743.166, 875.0887
1745.094, 872.5280
1747.022, 862.1342
1748.951, 866.1325
1750.879, 869.8122
1752.808, 867.2547
1754.736, 864.9232
1756.665, 859.0324
1758.593, 860.4442
1760.522, 871.3039
1762.450, 858.9184
1764.379, 841.5150
1766.307, 842.0637
1768.236, 841.9404
1770.164, 843.0220
1772.093, 839.4073
1774.021, 833.2403
1775.949, 836.1215
1777.878, 845.2124
1779.806, 844.7928
1781.735, 837.2390
1783.663, 844.8868
1785.592, 851.7224
1787.520, 834.1978
1789.449, 831.8748
1791.377, 849.2302
1793.306, 840.0587
1795.234, 828.9506
1797.163, 835.0860
1799.091, 829.9082
1801.020, 813.8807
1802.948, 809.3105
1804.876, 808.2260
1806.805, 815.0054
1808.733, 824.4668
1810.662, 816.5001
1812.590, 813.2974
1814.519, 831.6427
1816.447, 830.0115
1818.376, 812.3616
1820.304, 805.5515
1822.233, 806.9046
1824.161, 805.4990
1826.090, 798.7853
1828.018, 795.6424
1829.947, 799.7589
1831.875, 801.5757
1833.803, 794.8834
1835.732, 791.7143
1837.660, 802.0399
1839.589, 809.2157
1841.517, 802.7585
1843.446, 801.1348
1845.374, 805.0253
1847.303, 803.9648
1849.231, 793.5801
1851.160, 778.4180
1853.088, 778.6158
1855.017, 787.4426
1856.945, 779.1093
1858.874, 765.1998
1860.802, 772.8929
1862.730, 778.8590
1864.659, 769.7028
1866.587, 766.3470
1868.516, 761.1429
1870.444, 748.8948
1872.373, 750.4014
1874.301, 769.5877
1876.230, 779.4630
1878.158, 767.5813
1880.087, 749.2840
1882.015, 743.0566
1883.944, 741.2343
1885.872, 743.3342
1887.801, 745.8482
1889.729, 748.5000
1891.657, 750.1772
1893.586, 743.2659
1895.514, 737.9450
1897.443, 743.7863
1899.371, 745.0247
1901.300, 735.2220
1903.228, 731.9152
1905.157, 734.4243
1907.085, 724.0978
1909.014, 710.4584
1910.942, 717.4615
1912.871, 726.5568
1914.799, 730.5195
1916.728, 734.5303
1918.656, 733.3929
1920.584, 729.1320
1922.513, 723.1998
1924.441, 713.9395
1926.370, 720.6934
1928.298, 727.3702
1930.227, 713.4835
1932.155, 701.6857
1934.084, 702.4305
1936.012, 715.8127
1937.941, 726.4129
1939.869, 728.2719
1941.798, 716.8776
1943.726, 703.8454
1945.655, 701.8727
1947.583, 696.7361
1949.511, 713.3578
1951.440, 722.0659
1953.368, 683.9286
1955.297, 675.1703
1957.225, 702.8054
1959.154, 710.6133
1961.082, 699.3502
1963.011, 686.5547
1964.939, 682.6894
1966.868, 683.6508
1968.796, 682.2874
1970.725, 679.2584
1972.653, 673.7547
1974.582, 671.6940
1976.510, 682.1764
1978.438, 674.1481
1980.367, 661.6891
1982.295, 671.0844
1984.224, 671.4980
1986.152, 662.4396
1988.081, 667.0768
1990.009, 680.9701
1991.938, 667.4874
1993.866, 649.3856
1995.795, 658.6288
1997.723, 671.5125
1999.652, 667.2446
2001.580, 659.6697
2003.509, 657.7713
2005.437, 646.1646
2007.365, 637.7357
2009.294, 639.4336
2011.222, 642.6368
2013.151, 640.5496
2015.079, 634.9033
2017.008, 630.9429
2018.936, 620.8056
2020.865, 629.7119
2022.793, 641.4277
2024.722, 627.6556
2026.650, 613.2548
2028.579, 615.9764
2030.507, 627.8221
2032.436, 641.1391
2034.364, 626.5567
2036.292, 619.8126
2038.221, 644.3339
2040.149, 631.2454
2042.078, 596.5012
2044.006, 592.7919
2045.935, 605.7402
2047.863, 624.8030
2049.792, 618.7793
2051.720, 609.4419
2053.649, 606.4166
2055.577, 599.4949
2057.506, 598.4736
2059.434, 592.9711
2061.363, 580.4015
2063.291, 579.6080
2065.219, 581.6042
2067.148, 587.2468
2069.076, 591.2244
2071.005, 586.5931
2072.933, 590.2358
2074.862, 590.7053
2076.790, 591.6174
2078.719, 592.8749
2080.647, 585.4055
2082.576, 575.7981
2084.504, 567.0024
2086.433, 556.2053
2088.361, 551.2831
2090.290, 563.5218
2092.218, 565.9872
2094.146, 551.0281
2096.075, 546.2448
2098.003, 551.0488
2099.932, 558.1534
2101.860, 562.5807
2103.789, 559.4698
2105.717, 554.5557
2107.646, 549.7169
2109.574, 547.2931
2111.503, 547.9454
2113.431, 543.3860
2115.360, 547.9102
2117.288, 545.6627
2119.217, 530.1853
2121.145, 542.8591
2123.073, 547.7082
2125.002, 514.0752
2126.930, 513.2831
2128.859, 532.8444
2130.787, 531.2986
2132.716, 529.1887
2134.644, 529.9582
2136.573, 526.6046
2138.501, 524.4756
2140.430, 526.4106
2142.358, 532.6969
2144.287, 529.9539
2146.215, 527.9452
2148.144, 530.8154
2150.072, 525.8410
2152.000, 517.5644
2153.929, 519.4913
2155.857, 516.1673
2157.786, 508.2486
2159.714, 506.6000
2161.643, 510.1979
2163.571, 513.2815
2165.500, 526.6588
2167.428, 534.3300
2169.357, 533.7397
2171.285, 521.9364
2173.214, 503.1653
2175.142, 499.1054
2177.071, 494.4725
2178.999, 490.8564
2180.927, 492.8423
2182.856, 490.3558
2184.784, 486.0605
2186.713, 482.5916
2188.641, 472.1547
2190.570, 485.0365
2192.498, 498.4280
2194.427, 494.5579
2196.355, 476.4419
2198.284, 464.6875
2200.212, 479.5474
2202.141, 484.5805
2204.069, 475.5648
2205.998, 458.2992
2207.926, 449.5472
2209.854, 453.7801
2211.783, 461.8754
2213.711, 471.2867
2215.640, 477.3842
2217.568, 476.3671
2219.497, 450.2391
2221.425, 444.3174
2223.354, 450.5737
2225.282, 436.5988
2227.211, 433.8972
2229.139, 449.7366
2231.068, 437.9347
2232.996, 422.2274
2234.925, 429.8438
2236.853, 436.1729
2238.781, 437.5877
2240.710, 441.1030
2242.638, 446.0216
2244.567, 446.2233
2246.495, 439.4051
2248.424, 429.4624
2250.352, 419.5718
2252.281, 418.9226
2254.209, 421.4836
2256.138, 436.3271
2258.066, 448.0349
2259.995, 433.9320
2261.923, 427.2960
2263.852, 430.8856
2265.780, 433.4938
2267.708, 429.0188
2269.637, 424.0229
2271.565, 414.7314
2273.494, 410.4915
2275.422, 424.8137
2277.351, 410.4208
2279.279, 385.6557
2281.208, 392.3406
2283.136, 404.0141
2285.065, 408.6254
2286.993, 397.9091
2288.922, 396.0738
2290.850, 403.4591
2292.779, 405.2560
2294.707, 407.0106
2296.635, 392.1637
2298.564, 390.1378
2300.492, 403.6589
2302.421, 398.0749
2304.349, 383.0457
2306.278, 366.6930
2308.206, 377.8677
2310.135, 398.3406
2312.063, 400.8996
2313.992, 399.2790
2315.920, 393.9492
2317.849, 375.9258
2319.777, 367.0056
2321.706, 372.5162
2323.634, 380.4141
2325.563, 387.4708
2327.491, 388.4228
2329.419, 384.5376
2331.348, 372.9267
2333.276, 360.2280
2335.205, 361.8453
2337.133, 368.1260
2339.062, 359.4932
2340.990, 349.9787
2342.919, 344.4587
2344.847, 351.1428
2346.776, 361.2669
2348.704, 358.7362
2350.633, 355.7864
2352.561, 350.7981
2354.490, 346.5373
2356.418, 347.1753
2358.346, 334.0516
2360.275, 336.2710
2362.203, 346.6822
2364.132, 342.3152
2366.060, 351.8597
2367.989, 368.7339
2369.917, 372.9254
2371.846, 365.2139
2373.774, 349.1761
2375.703, 326.4824
2377.631, 311.9670
2379.560, 313.2179
2381.488, 313.6128
2383.417, 323.4557
2385.345, 356.3151
2387.273, 339.7307
2389.202, 289.2691
2391.130, 310.6753
2393.059, 327.8145
2394.987, 314.0909
2396.916, 316.8578
2398.844, 325.1157
2400.773, 325.8031
2402.701, 318.7105
2404.630, 315.2025
2406.558, 311.1122
2408.487, 319.4848
2410.415, 331.3529
2412.344, 316.4192
2414.272, 307.1914
2416.200, 303.0116
2418.129, 292.2066
2420.057, 288.3412
2421.986, 288.6660
2423.914, 292.2677
2425.843, 292.0333
2427.771, 281.5818
2429.700, 292.3820
2431.628, 308.3128
2433.557, 314.7664
2435.485, 305.5432
2437.414, 285.0669
2439.342, 290.1524
2441.271, 299.6954
2443.199, 298.3778
2445.127, 286.4730
2447.056, 280.8838
2448.984, 277.7084
2450.913, 286.7232
2452.841, 292.8060
2454.770, 287.6003
2456.698, 281.0659
2458.627, 272.3834
2460.555, 273.4881
2462.484, 277.6718
2464.412, 281.2187
2466.341, 286.0004
2468.269, 279.9931
2470.198, 268.8195
2472.126, 268.9415
2474.054, 273.4901
2475.983, 273.8882
2477.911, 269.6635
2479.840, 273.2292
2481.768, 297.0053
2483.697, 287.7993
2485.625, 268.5797
2487.554, 272.8373
2489.482, 269.9693
2491.411, 260.5696
2493.339, 263.5027
2495.268, 259.6886
2497.196, 255.1243
2499.125, 261.3383
2501.053, 267.0449
2502.981, 264.5857
2504.910, 251.5973
2506.838, 255.4884
2508.767, 263.9994
2510.695, 258.7513
2512.624, 260.4254
2514.552, 254.3658
2516.481, 237.3111
2518.409, 228.6202
2520.338, 236.4861
2522.266, 232.4063
2524.195, 232.6831
2526.123, 258.8878
2528.052, 270.5186
2529.980, 258.3951
2531.908, 233.7310
2533.837, 253.0389
2535.765, 274.6084
2537.694, 260.5738
2539.622, 247.3170
2541.551, 247.5863
2543.479, 259.8391
2545.408, 250.8553
2547.336, 236.3343
2549.265, 220.0344
2551.193, 218.1712
2553.122, 227.9794
2555.050, 224.0501
2556.979, 226.2037
2558.907, 237.5619
2560.835, 241.2058
2562.764, 237.8754
2564.692, 229.0339
2566.621, 238.7614
2568.549, 235.1085
2570.478, 210.5925
2572.406, 218.6482
2574.335, 227.7312
2576.263, 219.8081
2578.192, 217.3729
2580.120, 224.5936
2582.049, 235.9641
2583.977, 235.5033
2585.906, 230.9833
2587.834, 227.2427
2589.762, 218.3577
2591.691, 205.7147
2593.619, 216.8383
2595.548, 210.4812
2597.476, 195.9835
2599.405, 188.9230
2601.333, 204.9057
2603.262, 217.4070
2605.190, 229.7819
2607.119, 214.9379
2609.047, 202.2425
2610.976, 208.8345
2612.904, 198.0664
2614.833, 193.9603
2616.761, 201.1568
2618.689, 224.5278
2620.618, 225.5442
2622.546, 187.0111
2624.475, 177.0887
2626.403, 193.1470
2628.332, 211.8834
2630.260, 200.2973
2632.189, 187.0172
2634.117, 196.2472
2636.046, 193.4952
2637.974, 190.0039
2639.903, 189.0384
2641.831, 191.5382
2643.760, 201.9854
2645.688, 207.4438
2647.616, 204.8085
2649.545, 200.9578
2651.473, 201.3515
2653.402, 201.1048
2655.330, 191.0613
2657.259, 176.5691
2659.187, 182.7169
2661.116, 183.8845
2663.044, 176.1382
2664.973, 181.2746
2666.901, 188.8727
2668.830, 188.1205
2670.758, 190.6801
2672.687, 181.6050
2674.615, 172.8539
2676.543, 175.8483
2678.472, 181.8860
2680.400, 174.9285
2682.329, 155.2245
2684.257, 158.8918
2686.186, 177.9745
2688.114, 182.7242
2690.043, 178.8191
2691.971, 167.7289
2693.900, 174.4545
2695.828, 170.2949
2697.757, 155.1745
2699.685, 179.9422
2701.614, 167.3339
2703.542, 150.7343
2705.470, 171.9354
2707.399, 160.9983
2709.327, 148.7140
2711.256, 145.4237
2713.184, 158.6545
2715.113, 157.2220
2717.041, 146.7581
2718.970, 152.7164
2720.898, 152.5882
2722.827, 153.5172
2724.755, 147.2309
2726.684, 132.6017
2728.612, 125.9724
2730.541, 145.1404
2732.469, 151.2312
2734.397, 148.3321
2736.326, 157.7395
2738.254, 140.9747
2740.183, 127.7201
2742.111, 159.3382
2744.040, 156.2717
2745.968, 131.8792
2747.897, 134.4230
2749.825, 160.9321
2751.754, 173.3941
2753.682, 151.0791
2755.611, 134.1550
2757.539, 135.7591
2759.468, 134.9779
2761.396, 142.3202
2763.324, 134.3725
2765.253, 107.8414
2767.181, 114.5092
2769.110, 128.8836
2771.038, 135.6952
2772.967, 131.4018
2774.895, 145.7256
2776.824, 154.0767
2778.752, 118.2339
2780.681, 139.3129
2782.609, 158.0212
2784.538, 101.4708
2786.466, 94.54620
2788.395, 112.6025
2790.323, 125.0022
2792.251, 120.7924
2794.180, 118.9254
2796.108, 123.4662
2798.037, 119.8246
2799.965, 111.9198
2801.894, 111.3734
2803.822, 127.9522
2805.751, 104.3495
2807.679, 102.6444
2809.608, 143.0627
2811.536, 124.3094
2813.465, 87.23614
2815.393, 91.50890
2817.322, 113.6802
2819.250, 120.0163
2821.178, 113.2580
2823.107, 114.5436
2825.035, 126.1284
2826.964, 128.0011
2828.892, 105.1303
2830.821, 103.9688
2832.749, 108.0189
2834.678, 91.03098
2836.606, 115.7090
2838.535, 131.1786
2840.463, 109.3913
2842.392, 98.75758
2844.320, 92.25195
2846.249, 88.31318
2848.177, 114.3927
2850.105, 127.6390
2852.034, 126.6376
2853.962, 118.4967
2855.891, 115.8405
2857.819, 105.5785
2859.748, 98.83103
2861.676, 113.2616
2863.605, 121.8282
2865.533, 125.4350
2867.462, 103.1397
2869.390, 98.52525
2871.319, 94.49240
2873.247, 85.22094
2875.176, 84.81382
2877.104, 87.52692
2879.032, 86.80067
2880.961, 95.43488
2882.889, 107.6085
2884.818, 115.2112
2886.746, 97.97643
2888.675, 96.73348
2890.603, 99.35445
2892.532, 103.0436
2894.460, 77.61822
2896.389, 75.43925
2898.317, 94.71838
2900.246, 90.28580
2902.174, 101.5520
2904.103, 97.55204
2906.031, 67.73948
2907.959, 75.19027
2909.888, 89.79359
2911.816, 101.2595
2913.745, 107.5873
2915.673, 110.0087
2917.602, 103.1171
2919.530, 100.8779
2921.459, 100.5524
2923.387, 86.74052
2925.316, 52.79406
2927.244, 71.73072
2929.173, 72.94655
2931.101, 51.89425
2933.030, 78.78142
2934.958, 70.60552
2936.886, 70.65485
2938.815, 103.4887
2940.743, 79.08672
2942.672, 73.30342
2944.600, 92.30742
2946.529, 84.33135
2948.457, 80.88667
2950.386, 81.30080
2952.314, 80.99667
2954.243, 80.60033
2956.171, 83.90846
2958.100, 82.62478
2960.028, 99.56587
2961.957, 89.89382
2963.885, 69.76126
2965.813, 79.94196
2967.742, 79.10913
2969.670, 78.63868
2971.599, 87.92326
2973.527, 84.71764
2975.456, 74.24292
2977.384, 74.35694
2979.313, 72.28916
2981.241, 66.31801
2983.170, 56.92619
2985.098, 57.04369
2987.027, 72.38277
2988.955, 81.71536
2990.884, 73.45975
2992.812, 61.30484
2994.740, 73.73567
2996.669, 70.64577
2998.597, 60.02826
3000.526, 64.88153
3002.454, 64.15487
3004.383, 67.77160
3006.311, 95.04141
3008.240, 63.08762
3010.168, 53.42110
3012.097, 49.90720
3014.025, 42.30820
3015.954, 51.16796
3017.882, 58.16660
3019.811, 55.33533
3021.739, 57.93942
3023.667, 83.40104
3025.596, 98.60534
3027.524, 70.77102
3029.453, 61.79942
3031.381, 58.06887
3033.310, 47.17993
3035.238, 46.87803
3037.167, 48.86110
3039.095, 57.86750
3041.024, 71.51506
3042.952, 66.04222
3044.881, 67.24554
3046.809, 75.11604
3048.738, 79.41745
3050.666, 59.51984
3052.594, 57.64214
3054.523, 69.07289
3056.451, 60.73939
3058.380, 45.02220
3060.308, 48.65261
3062.237, 56.13296
3064.165, 43.98241
3066.094, 39.95448
3068.022, 40.57914
3069.951, 39.39897
3071.879, 69.51667
3073.808, 61.33199
3075.736, 35.62679
3077.665, 49.80374
3079.593, 46.16500
3081.521, 56.90028
3083.450, 85.53256
3085.378, 79.80612
3087.307, 57.41447
3089.235, 42.32066
3091.164, 68.83723
3093.092, 82.45792
3095.021, 66.69386
3096.949, 47.37893
3098.878, 60.58860
3100.806, 54.49821
3102.735, 42.80779
3104.663, 43.57885
3106.592, 47.33070
3108.520, 21.70724
3110.448, 23.31493
3112.377, 66.94154
3114.305, 41.44577
3116.234, 53.48156
3118.162, 71.08197
3120.091, 61.97147
3122.019, 49.56165
3123.948, 52.28798
3125.876, 52.99963
3127.805, 38.25601
3129.733, 53.51260
3131.662, 55.05963
3133.590, 41.54755
3135.519, 16.14860
3137.447, 40.75801
3139.375, 52.55507
3141.304, 45.73188
3143.232, 33.52283
3145.161, 37.96051
3147.089, 55.46267
3149.018, 70.37415
3150.946, 40.65000
3152.875, 25.63146
3154.803, 27.08379
3156.732, 38.86475
3158.660, 25.44407
3160.589, 30.73313
3162.517, 46.75946
3164.446, 56.27775
3166.374, 81.11651
3168.302, 60.70398
3170.231, 51.60383
3172.159, 77.71484
3174.088, 90.94260
3176.016, 75.26885
3177.945, 66.43442
3179.873, 70.60039
3181.802, 28.39527
3183.730, 17.08864
3185.659, 34.12612
3187.587, 60.18691
3189.516, 64.44080
3191.444, 67.07455
3193.373, 46.37653
3195.301, 7.028466
3197.229, 45.82027
3199.158, 41.33231
3201.086, 42.89169
3203.015, 63.28111
3204.943, 9.220361
3206.872, 9.535947
3208.800, 42.58278
3210.729, 76.98419
3212.657, 66.71977
3214.586, 59.13048
3216.514, 45.75418
3218.443, 29.33145
3220.371, 48.76809
3222.300, 50.92591
3224.228, 44.67230
3226.156, 30.25912
3228.085, -9.833661
3230.013, 17.85030
3231.942, 47.82892
3233.870, 53.90987
3235.799, 44.61367
3237.727, 53.34517
3239.656, 30.28903
3241.584, 9.999078
3243.513, 59.71574
3245.441, 78.61024
3247.370, 65.81074
3249.298, 42.35981
3251.227, 40.00841
3253.155, 53.07540
3255.083, 37.57224
3257.012, 27.73728
3258.940, 54.49884
3260.869, 49.31996
3262.797, 72.89255
3264.726, 60.14682
3266.654, -11.46894
3268.583, -9.845448
3270.511, 31.45742
3272.440, 49.77624
3274.368, 35.88928
3276.297, 54.26904
3278.225, 42.73616
3280.154, 40.20792
3282.082, 48.78676
3284.010, 43.94958
3285.939, 33.31987
3287.867, 20.18298
3289.796, 21.16385
3291.724, 43.98079
3293.653, 60.19810
3295.581, 37.59718
3297.510, 32.50837
3299.438, 62.87064
3301.367, 21.51688
3303.295, 22.73399
3305.224, 33.71762
3307.152, 29.78333
3309.081, 15.58830
3311.009, -0.9461414
3312.938, 13.43665
3314.866, 44.00180
3316.794, 57.92532
3318.723, 31.22200
3320.651, 40.22238
3322.580, 43.60845
3324.508, 13.55006
3326.437, 39.78134
3328.365, 69.52357
3330.294, 55.13396
3332.222, 14.77691
3334.151, 12.47357
3336.079, 26.69327
3338.008, 51.61718
3339.936, 62.63456
3341.865, 46.30666
3343.793, 47.18044
3345.721, 59.82179
3347.650, 64.15100
3349.578, 46.50365
3351.507, 9.423120
3353.435, 34.79530
3355.364, 63.61825
3357.292, 49.57657
3359.221, -13.99481
3361.149, 18.11045
3363.078, 53.33245
3365.006, 53.43801
3366.935, 30.83578
3368.863, 54.76627
3370.792, 36.43242
3372.720, 10.91753
3374.648, 13.47339
3376.577, 57.86267
3378.505, 70.98857
3380.434, 42.94861
3382.362, 28.73249
3384.291, 44.35676
3386.219, 58.75805
3388.148, 49.88985
3390.076, 40.84800
3392.005, 37.58520
3393.933, 38.77040
3395.862, 41.21859
3397.790, 50.91271
3399.719, 37.03047
3401.647, 9.826591
3403.575, 7.584344
3405.504, 19.46843
3407.432, 36.10300
3409.361, 18.10791
3411.289, -14.80871
3413.218, 61.77666
3415.146, 63.44943
3417.075, -16.90355
3419.003, -57.40758
3420.932, 20.49594
3422.860, 19.13470
3424.789, 17.28405
3426.717, 14.73398
3428.646, 17.20775
3430.574, 32.97966
3432.502, 5.732489
3434.431, 17.32077
3436.359, 42.64871
3438.288, 55.48959
3440.216, 53.47662
3442.145, 21.25055
3444.073, 3.544237
3446.002, -27.23668
3447.930, 25.78172
3449.859, 54.42831
3451.787, 60.02370
3453.716, -26.95511
3455.644, 5.971346
3457.573, -8.932370
3459.501, -25.64353
3461.429, 24.61410
3463.358, -48.08054
3465.286, 1.436033
3467.215, 2.390345
3469.143, 25.80298
3471.072, 1.089625
3473.000, -8.550367
3474.929, 30.26859
3476.857, 42.50298
3478.786, 12.86847
3480.714, 38.65377
3482.643, -34.13457
3484.571, -20.12419
3486.500, 31.42650
3488.428, 5.016068
3490.356, 32.48026
3492.285, 39.64617
3494.213, -46.00120
3496.142, 30.19922
3498.070, 36.63349
3499.999, -28.56980
3501.927, 42.56754
3503.856, -12.41908
3505.784, -22.17165
3507.713, 2.158327
3509.641, -8.716024
3511.570, 36.32334
3513.498, 27.80929
3515.427, 14.65691
3517.355, 22.60494
3519.283, -28.63247
3521.212, 30.38711
3523.140, 14.35930
3525.069, 35.87563
3526.997, 66.02232
3528.926, 31.45029
3530.854, 65.72256
3532.783, 12.71296
3534.711, -32.39033
3536.640, -8.092297
3538.568, 22.12401
3540.497, 30.47490
3542.425, 41.42604
3544.354, 56.03796
3546.282, 38.06829
3548.210, 21.20633
3550.139, 19.08685
3552.067, 4.491676
3553.996, -12.20969
3555.924, 4.189017
3557.853, 49.80479
3559.781, 3.494132
3561.710, 2.109120
3563.638, 36.83638
3565.567, 36.69211
3567.495, 1.236404
3569.424, 27.21460
3571.352, 66.81508
3573.281, 50.04376
3575.209, -16.12199
3577.137, -13.35918
3579.066, -19.89280
3580.994, -4.714806
3582.923, 25.37344
3584.851, 41.07967
3586.780, 17.04632
3588.708, -5.875890
3590.637, 65.39059
3592.565, 64.02555
3594.494, 32.77727
3596.422, 36.36640
3598.351, 28.78204
3600.279, 6.172511
3602.208, 14.70023
3604.136, 30.81613
3606.064, 33.40623
3607.993, 21.21705
3609.921, 19.28233
3611.850, 16.24214
3613.778, 28.68177
3615.707, 33.10367
3617.635, 22.18429
3619.564, 22.69650
3621.492, 12.08856
3623.421, 0.9168873
3625.349, 7.555361
3627.278, 31.12636
3629.206, 53.04673
3631.135, 30.95536
3633.063, -21.68686
3634.991, -2.712314
3636.920, 6.104236
3638.848, -4.592806
3640.777, 26.12253
3642.705, 47.54875
3644.634, 59.43608
3646.562, 11.64537
3648.491, 5.445641
3650.419, 36.44765
3652.348, -16.56778
3654.276, -11.70650
3656.205, 18.10727
3658.133, 37.26825
3660.062, 34.30807
3661.990, 20.58034
3663.918, 19.14358
3665.847, 47.41683
3667.775, 42.99990
3669.704, 57.96587
3671.632, 41.47639
3673.561, -5.489390
3675.489, 25.85788
3677.418, 51.80202
3679.346, 10.08317
3681.275, 43.43834
3683.203, 77.41008
3685.132, 54.09553
3687.060, 58.20948
3688.989, 26.17161
3690.917, 18.28326
3692.845, 33.97580
3694.774, 39.44392
3696.702, 20.46694
3698.631, -3.585341
3700.559, 42.41491
3702.488, 58.28791
3704.416, 20.71844
3706.345, 4.274059
3708.273, 17.86950
3710.202, 2.048602
3712.130, -12.70737
3714.059, 38.30595
3715.987, 56.53177
3717.916, 38.13212
3719.844, 21.64532
3721.772, 25.07434
3723.701, 6.399510
3725.629, 21.98433
3727.558, 16.81755
3729.486, 28.03581
3731.415, 27.63195
3733.343, 7.123745
3735.272, 39.79090
3737.200, 9.431141
3739.129, 25.03303
3741.057, 66.70668
3742.986, 47.30061
3744.914, -0.1135856
3746.843, 22.18261
3748.771, 13.82274
3750.699, 34.20220
3752.628, 28.54537
3754.556, -15.01892
3756.485, -12.28472
3758.413, 46.88202
3760.342, 34.51237
3762.270, 15.14988
3764.199, 17.90749
3766.127, 17.45670
3768.056, 31.24151
3769.984, 31.31980
3771.913, 1.350711
3773.841, 43.34446
3775.770, 19.39135
3777.698, 16.15927
3779.626, 14.91425
3781.555, 7.773794
3783.483, 13.32089
3785.412, 40.20956
3787.340, 29.49274
3789.269, -16.55410
3791.197, -1.253210
3793.126, -10.75767
3795.054, 24.19713
3796.983, 77.06062
3798.911, 9.613310
3800.840, 45.72936
3802.768, 65.34369
3804.697, 71.19406
3806.625, 21.02042
3808.553, -5.432477
3810.482, 20.79220
3812.410, 34.69460
3814.339, 36.50896
3816.267, 0.7318729
3818.196, -7.446161
3820.124, 6.761568
3822.053, 14.94880
3823.981, 10.68446
3825.910, 10.34491
3827.838, 29.46651
3829.767, 19.59678
3831.695, 6.021687
3833.624, 43.44452
3835.552, 34.23475
3837.480, 1.990365
3839.409, 24.25893
3841.337, 35.85431
3843.266, 7.512770
3845.194, 30.87242
3847.123, 37.22827
3849.051, 7.263484
3850.980, 14.21667
3852.908, 51.85486
3854.837, 13.43659
3856.765, 21.18509
3858.694, 53.09132
3860.622, 46.00140
3862.551, 20.27441
3864.479, 4.993916
3866.407, 16.07132
3868.336, 30.53603
3870.264, -1.921402
3872.193, 26.50969
3874.121, 8.981443
3876.050, 37.55081
3877.978, 7.475412
3879.907, 2.029791
3881.835, 28.97441
3883.764, 10.20158
3885.692, 17.36899
3887.621, 33.67709
3889.549, 78.78899
3891.478, -1.422543
3893.406, 1.650915
3895.334, 30.98204
3897.263, 26.13428
3899.191, 34.15156
3901.120, 19.15834
3903.048, 10.10507
3904.977, 14.07187
3906.905, -4.044677
3908.834, 2.481161
3910.762, 19.53381
3912.691, 31.91482
3914.619, 22.38809
3916.548, -49.32750
3918.476, -37.53256
3920.405, 40.34234
3922.333, 5.196326
3924.261, 21.77652
3926.190, 38.50198
3928.118, 35.28312
3930.047, 32.74669
3931.975, 7.389988
3933.904, 14.00142
3935.832, 88.80704
3937.761, 28.36083
3939.689, 34.83120
3941.618, 27.78580
3943.546, 36.73066
3945.475, 34.01883
3947.403, -18.80715
3949.332, 3.483799
3951.260, -11.95683
3953.188, 35.79589
3955.117, 5.004447
3957.045, 10.55031
3958.974, 49.11050
3960.902, 36.30548
3962.831, 15.02068
3964.759, 40.89336
3966.688, 7.448936
3968.616, -8.311773
3970.545, 23.33814
3972.473, 55.89966
3974.402, 34.92798
3976.330, 15.77720
3978.259, 14.08571
3980.187, 10.31432
3982.115, 12.20294
3984.044, 18.01366
3985.972, -7.698000
3987.901, 16.14096
3989.829, 24.42973
3991.758, 30.76114
3993.686, 43.16248
3995.615, 24.94813
3997.543, 26.25307
3999.472, 35.24687
4001.400, 14.98920
4003.329, 0.9727556
4005.257, 18.71029
4007.186, 21.21716
4009.114, 101.6055
4011.042, 45.79265
4012.971, 33.45776
4014.899, 49.98552
4016.828, 16.33216
4018.756, 14.72393
4020.685, 92.10332
4022.613, 40.32000
4024.542, 43.47259
4026.470, 42.38183
4028.399, 38.39256
4030.327, 72.90986
4032.256, 30.86348
4034.184, 28.38286
4036.113, 46.43551
4038.041, 18.90238
4039.969, 8.107347
4041.898, 35.81874
4043.826, 22.12738
4045.755, 63.69814
4047.683, 28.35401
4049.612, 21.21868
4051.540, 13.03376
4053.469, 23.05138
4055.397, 26.28524
4057.326, 15.49273
4059.254, 29.12043
4061.183, 41.80097
4063.111, 30.47614
4065.040, 45.74459
4066.968, -32.22299
4068.896, 7.865682
4070.825, 72.11192
4072.753, 60.96678
4074.682, 11.83259
4076.610, 17.27301
4078.539, 44.33847
4080.467, 12.16792
4082.396, 56.52390
4084.324, 12.12026
4086.253, 34.55919
4088.181, 71.66313
4090.110, 12.71686
4092.038, 43.48852
4093.967, 24.76932
4095.895, 40.42694
4097.823, 68.51418
4099.752, 30.46310
4101.681, 24.89448
4103.609, 21.23634
4105.537, 51.66372
4107.466, -4.587238
4109.395, 85.92165
4111.323, 17.30378
4113.251, 5.475067
4115.180, 45.02046
4117.108, 35.79305
4119.037, 13.37856
4120.965, 30.07637
4122.894, 64.58717
4124.822, 88.61644
4126.750, 80.16702
4128.679, 42.76956
4130.607, 46.57896
4132.536, 18.21988
4134.464, -3.272484
4136.393, -47.18356
4138.321, -20.96337
4140.250, 13.61309
4142.178, 20.13877
4144.106, 41.56811
4146.035, 54.27795
4147.964, 7.389454
4149.892, -15.66964
4151.820, -3.672637
4153.749, -17.92142
4155.678, -38.96485
4157.606, 11.74235
4159.534, 50.36946
4161.463, 62.35862
4163.392, 95.09322
4165.320, 54.02205
4167.248, 23.74882
4169.177, 56.92756
4171.105, 69.81172
4173.034, 30.00241
4174.962, 1.758129
4176.891, 24.06353
4178.819, -35.46232
4180.748, 50.46864
4182.676, 23.95500
4184.604, 41.34346
4186.533, 45.84422
4188.461, 40.57763
4190.390, 12.02909
4192.318, -18.92899
4194.247, 19.45565
4196.175, 20.84003
4198.104, 4.281609
4200.032, 41.17287
4201.961, 12.79307
4203.889, 18.43662
4205.817, 32.64779
4207.746, 12.52660
4209.675, 17.78139
4211.603, 14.02637
4213.531, 10.73251
4215.460, 2.812318
4217.389, 20.44943
4219.317, 28.27751
4221.245, 4.930370
4223.174, 33.43005
4225.103, 57.57565
4227.031, 66.49564
4228.959, 68.57253
4230.888, 30.77471
4232.816, 18.07293
4234.745, 17.92227
4236.673, 19.76319
4238.602, 52.37142
4240.530, 39.87971
4242.458, 45.88510
4244.387, 17.22857
4246.315, 20.79393
4248.244, 6.216863
4250.172, -0.4739641
4252.101, 4.319765
4254.029, -24.71185
4255.958, 3.112386
4257.886, 33.91124
4259.814, 49.37263
4261.743, 60.58633
4263.672, 63.48410
4265.600, 60.77253
4267.528, 31.21596
4269.457, 67.26411
4271.386, 63.23969
4273.314, 26.76080
4275.242, 35.74683
4277.171, 65.64447
4279.100, 28.37224
4281.028, 71.00909
4282.956, 4.240694
4284.885, 25.01636
4286.813, 38.58741
4288.742, 60.76162
4290.670, 40.58790
4292.599, 30.41294
4294.527, 35.53928
4296.456, 5.934533
4298.384, 34.50806
4300.313, 56.08878
4302.241, 34.40385
4304.169, 34.17638
4306.098, 32.96932
4308.026, 75.57019
4309.955, 59.12374
4311.883, 4.985991
4313.812, 52.11213
4315.740, -2.922716
4317.669, -26.42906
4319.597, 13.20132
4321.525, 36.13943
4323.454, 17.05170
4325.383, 1.946846
4327.311, 55.34580
4329.239, 66.08517
4331.168, 78.23701
4333.097, 63.45257
4335.025, 36.19492
4336.953, 69.82744
4338.882, 58.91189
4340.811, 39.73457
4342.739, 42.12570
4344.667, 55.67723
4346.596, 40.64346
4348.524, 59.58473
4350.453, 86.63997
4352.381, 45.76863
4354.310, 37.42813
4356.238, 74.50119
4358.167, 69.69267
4360.095, 72.25735
4362.023, 67.99294
4363.952, 30.20399
4365.880, 20.77486
##END=



