##NAMES=Axinite-(Mn)
##RRUFFID=R160079
##IDEAL CHEMISTRY=Ca_4_Mn^2+^_2_Al_4_[B_2_Si_8_O_30_](OH)_2_
##LOCALITY=Huachuca Mountains, Cochise County, Arizona, USA
##OWNER=RRUFF
##SOURCE=Carl Richardson
##DESCRIPTION=Orange-yellow aggregates of flattened crystals on quartz. This sample was donated to UAMM as tinzenite (#13189). X-ray diffraction data show that it is axinite-(Mn).
##STATUS=The identification of this mineral has been confirmed only by single crystal X-ray diffraction
##URL=https://www.rruff.net/odr/rruff_sample/R160079
##DIFFRACTION SAMPLE DESCRIPTION=Single crystal, powder profile is calculated
##CELL PARAMETERS=a: 7.1808 b: 9.2102 c: 8.9806 alpha: 91.765 beta: 98.182 gamma: 77.174 volume: 573.23 crystal system: triclinic
##FILETYPE=Raman Processed
##RAMAN WAVELENGTH=532

9.324341e+001, 0.000000e+000
9.517188e+001, 2.342726e+002
9.710034e+001, 2.386033e+002
9.902881e+001, 2.462129e+002
1.009573e+002, 2.655616e+002
1.028857e+002, 2.848174e+002
1.048142e+002, 3.008707e+002
1.067427e+002, 3.143131e+002
1.086711e+002, 3.245484e+002
1.105996e+002, 3.297542e+002
1.125281e+002, 3.325628e+002
1.144565e+002, 3.351594e+002
1.163850e+002, 3.358147e+002
1.183135e+002, 3.379947e+002
1.202419e+002, 3.443793e+002
1.221704e+002, 3.558152e+002
1.240989e+002, 3.676888e+002
1.260273e+002, 3.783259e+002
1.279558e+002, 3.875380e+002
1.298843e+002, 3.978397e+002
1.318127e+002, 4.076956e+002
1.337412e+002, 4.191624e+002
1.356697e+002, 4.337532e+002
1.375981e+002, 4.560355e+002
1.395266e+002, 4.757632e+002
1.414551e+002, 4.898399e+002
1.433835e+002, 4.973216e+002
1.453120e+002, 5.019924e+002
1.472405e+002, 5.012990e+002
1.491689e+002, 4.980933e+002
1.510974e+002, 4.965598e+002
1.530259e+002, 4.955329e+002
1.549543e+002, 4.973758e+002
1.568828e+002, 5.045876e+002
1.588113e+002, 5.174301e+002
1.607397e+002, 5.306075e+002
1.626682e+002, 5.433033e+002
1.645967e+002, 5.553203e+002
1.665251e+002, 5.662972e+002
1.684536e+002, 5.778541e+002
1.703821e+002, 5.866797e+002
1.723105e+002, 5.906326e+002
1.742390e+002, 5.861259e+002
1.761675e+002, 5.843137e+002
1.780959e+002, 5.887956e+002
1.800244e+002, 5.985274e+002
1.819529e+002, 6.056311e+002
1.838813e+002, 6.089764e+002
1.858098e+002, 6.103303e+002
1.877383e+002, 6.109688e+002
1.896667e+002, 6.075471e+002
1.915952e+002, 6.072101e+002
1.935237e+002, 6.112891e+002
1.954521e+002, 6.193971e+002
1.973806e+002, 6.298337e+002
1.993091e+002, 6.478299e+002
2.012375e+002, 6.656520e+002
2.031660e+002, 6.761018e+002
2.050945e+002, 6.763687e+002
2.070229e+002, 6.744242e+002
2.089514e+002, 6.719554e+002
2.108799e+002, 6.690501e+002
2.128083e+002, 6.644097e+002
2.147368e+002, 6.542048e+002
2.166653e+002, 6.438668e+002
2.185938e+002, 6.401030e+002
2.205222e+002, 6.453014e+002
2.224507e+002, 6.515432e+002
2.243792e+002, 6.566003e+002
2.263076e+002, 6.605700e+002
2.282361e+002, 6.628596e+002
2.301646e+002, 6.610727e+002
2.320930e+002, 6.587765e+002
2.340215e+002, 6.598598e+002
2.359500e+002, 6.661913e+002
2.378784e+002, 6.732506e+002
2.398069e+002, 6.795958e+002
2.417354e+002, 6.849380e+002
2.436638e+002, 6.903892e+002
2.455923e+002, 6.969981e+002
2.475208e+002, 7.032418e+002
2.494492e+002, 7.075679e+002
2.513777e+002, 7.074657e+002
2.533062e+002, 7.078422e+002
2.552346e+002, 7.104439e+002
2.571631e+002, 7.154844e+002
2.590916e+002, 7.195594e+002
2.610200e+002, 7.214982e+002
2.629485e+002, 7.225232e+002
2.648770e+002, 7.240569e+002
2.668054e+002, 7.232579e+002
2.687339e+002, 7.257150e+002
2.706624e+002, 7.366694e+002
2.725908e+002, 7.553098e+002
2.745193e+002, 7.674037e+002
2.764478e+002, 7.649380e+002
2.783762e+002, 7.564560e+002
2.803047e+002, 7.515330e+002
2.822332e+002, 7.513732e+002
2.841616e+002, 7.529199e+002
2.860901e+002, 7.567296e+002
2.880186e+002, 7.626414e+002
2.899470e+002, 7.664654e+002
2.918755e+002, 7.663499e+002
2.938040e+002, 7.646931e+002
2.957324e+002, 7.637202e+002
2.976609e+002, 7.621439e+002
2.995894e+002, 7.634082e+002
3.015178e+002, 7.697112e+002
3.034463e+002, 7.813505e+002
3.053748e+002, 7.912691e+002
3.073032e+002, 7.986484e+002
3.092317e+002, 8.048168e+002
3.111602e+002, 8.107632e+002
3.130886e+002, 8.162753e+002
3.150171e+002, 8.220847e+002
3.169456e+002, 8.305623e+002
3.188740e+002, 8.415603e+002
3.208025e+002, 8.448250e+002
3.227310e+002, 8.329074e+002
3.246594e+002, 8.192634e+002
3.265879e+002, 8.130878e+002
3.285164e+002, 8.168840e+002
3.304448e+002, 8.197505e+002
3.323733e+002, 8.189478e+002
3.343018e+002, 8.150889e+002
3.362302e+002, 8.119465e+002
3.381587e+002, 8.119354e+002
3.400872e+002, 8.104274e+002
3.420156e+002, 8.048809e+002
3.439441e+002, 7.936302e+002
3.458726e+002, 7.840858e+002
3.478010e+002, 7.772754e+002
3.497295e+002, 7.727738e+002
3.516580e+002, 7.692545e+002
3.535864e+002, 7.661328e+002
3.555149e+002, 7.646959e+002
3.574434e+002, 7.655190e+002
3.593718e+002, 7.695602e+002
3.613003e+002, 7.725392e+002
3.632288e+002, 7.738830e+002
3.651572e+002, 7.742479e+002
3.670857e+002, 7.745101e+002
3.690142e+002, 7.747410e+002
3.709426e+002, 7.747773e+002
3.728711e+002, 7.733408e+002
3.747996e+002, 7.701344e+002
3.767280e+002, 7.720560e+002
3.786565e+002, 7.844390e+002
3.805850e+002, 7.980300e+002
3.825134e+002, 8.064934e+002
3.844419e+002, 8.086895e+002
3.863704e+002, 8.093693e+002
3.882988e+002, 8.096288e+002
3.902273e+002, 8.093561e+002
3.921558e+002, 8.080085e+002
3.940842e+002, 8.034974e+002
3.960127e+002, 8.001404e+002
3.979412e+002, 8.001780e+002
3.998696e+002, 8.043912e+002
4.017981e+002, 8.078668e+002
4.037266e+002, 8.077066e+002
4.056550e+002, 8.070940e+002
4.075835e+002, 8.116035e+002
4.095120e+002, 8.243568e+002
4.114404e+002, 8.355876e+002
4.133689e+002, 8.419870e+002
4.152974e+002, 8.434850e+002
4.172258e+002, 8.436089e+002
4.191543e+002, 8.410770e+002
4.210828e+002, 8.384098e+002
4.230112e+002, 8.370102e+002
4.249397e+002, 8.362422e+002
4.268682e+002, 8.388259e+002
4.287966e+002, 8.493044e+002
4.307251e+002, 8.640603e+002
4.326536e+002, 8.718633e+002
4.345820e+002, 8.661682e+002
4.365105e+002, 8.603764e+002
4.384390e+002, 8.607950e+002
4.403674e+002, 8.668696e+002
4.422959e+002, 8.700561e+002
4.442244e+002, 8.673243e+002
4.461528e+002, 8.616479e+002
4.480813e+002, 8.551022e+002
4.500098e+002, 8.446523e+002
4.519382e+002, 8.376392e+002
4.538667e+002, 8.373034e+002
4.557952e+002, 8.416836e+002
4.577236e+002, 8.459462e+002
4.596521e+002, 8.522571e+002
4.615806e+002, 8.564430e+002
4.635090e+002, 8.557033e+002
4.654375e+002, 8.485101e+002
4.673660e+002, 8.442117e+002
4.692944e+002, 8.435234e+002
4.712229e+002, 8.464651e+002
4.731514e+002, 8.531332e+002
4.750798e+002, 8.681520e+002
4.770083e+002, 8.803303e+002
4.789368e+002, 8.865969e+002
4.808652e+002, 8.872504e+002
4.827937e+002, 8.877054e+002
4.847222e+002, 8.879599e+002
4.866506e+002, 8.878733e+002
4.885791e+002, 8.870241e+002
4.905076e+002, 8.841844e+002
4.924360e+002, 8.848874e+002
4.943645e+002, 8.918593e+002
4.962930e+002, 9.015341e+002
4.982214e+002, 9.097933e+002
5.001499e+002, 9.170539e+002
5.020784e+002, 9.220026e+002
5.040068e+002, 9.233568e+002
5.059353e+002, 9.214985e+002
5.078638e+002, 9.199637e+002
5.097922e+002, 9.182659e+002
5.117207e+002, 9.169750e+002
5.136492e+002, 9.162317e+002
5.155776e+002, 9.159722e+002
5.175061e+002, 9.169692e+002
5.194346e+002, 9.214328e+002
5.213630e+002, 9.264479e+002
5.232915e+002, 9.292792e+002
5.252200e+002, 9.277662e+002
5.271484e+002, 9.271855e+002
5.290769e+002, 9.281996e+002
5.310054e+002, 9.305170e+002
5.329338e+002, 9.331839e+002
5.348623e+002, 9.328722e+002
5.367908e+002, 9.370578e+002
5.387192e+002, 9.522687e+002
5.406477e+002, 9.816613e+002
5.425762e+002, 9.973657e+002
5.445046e+002, 9.851823e+002
5.464331e+002, 9.693925e+002
5.483616e+002, 9.677477e+002
5.502900e+002, 9.867087e+002
5.522185e+002, 9.971351e+002
5.541470e+002, 9.861580e+002
5.560754e+002, 9.661281e+002
5.580039e+002, 9.613095e+002
5.599324e+002, 9.801731e+002
5.618608e+002, 9.971663e+002
5.637893e+002, 1.001242e+003
5.657178e+002, 9.959067e+002
5.676462e+002, 9.952528e+002
5.695747e+002, 1.005749e+003
5.715032e+002, 1.016085e+003
5.734316e+002, 1.021815e+003
5.753601e+002, 1.022462e+003
5.772886e+002, 1.021505e+003
5.792170e+002, 1.017285e+003
5.811455e+002, 1.013044e+003
5.830740e+002, 1.011514e+003
5.850024e+002, 1.014742e+003
5.869309e+002, 1.017061e+003
5.888594e+002, 1.016870e+003
5.907878e+002, 1.015600e+003
5.927163e+002, 1.016001e+003
5.946448e+002, 1.018308e+003
5.965732e+002, 1.021311e+003
5.985017e+002, 1.025420e+003
6.004302e+002, 1.030250e+003
6.023586e+002, 1.032141e+003
6.042871e+002, 1.027007e+003
6.062156e+002, 1.022562e+003
6.081440e+002, 1.023034e+003
6.100725e+002, 1.028418e+003
6.120010e+002, 1.032441e+003
6.139294e+002, 1.033380e+003
6.158579e+002, 1.033697e+003
6.177864e+002, 1.034819e+003
6.197148e+002, 1.035631e+003
6.216433e+002, 1.040011e+003
6.235718e+002, 1.052791e+003
6.255002e+002, 1.067339e+003
6.274287e+002, 1.073399e+003
6.293572e+002, 1.066780e+003
6.312856e+002, 1.062802e+003
6.332141e+002, 1.068560e+003
6.351426e+002, 1.080750e+003
6.370710e+002, 1.088659e+003
6.389995e+002, 1.089259e+003
6.409280e+002, 1.088899e+003
6.428564e+002, 1.089177e+003
6.447849e+002, 1.089992e+003
6.467134e+002, 1.090467e+003
6.486418e+002, 1.089946e+003
6.505703e+002, 1.089888e+003
6.524988e+002, 1.090608e+003
6.544272e+002, 1.091561e+003
6.563557e+002, 1.095516e+003
6.582842e+002, 1.107462e+003
6.602126e+002, 1.118811e+003
6.621411e+002, 1.120948e+003
6.640696e+002, 1.112558e+003
6.659980e+002, 1.107673e+003
6.679265e+002, 1.110131e+003
6.698550e+002, 1.117601e+003
6.717834e+002, 1.128094e+003
6.737119e+002, 1.146914e+003
6.756404e+002, 1.162484e+003
6.775688e+002, 1.173327e+003
6.794973e+002, 1.180280e+003
6.814258e+002, 1.185204e+003
6.833542e+002, 1.186339e+003
6.852827e+002, 1.188584e+003
6.872112e+002, 1.193853e+003
6.891396e+002, 1.201623e+003
6.910681e+002, 1.208956e+003
6.929966e+002, 1.214549e+003
6.949250e+002, 1.221218e+003
6.968535e+002, 1.230096e+003
6.987820e+002, 1.241097e+003
7.007104e+002, 1.253390e+003
7.026389e+002, 1.266411e+003
7.045674e+002, 1.281570e+003
7.064958e+002, 1.300229e+003
7.084243e+002, 1.323697e+003
7.103528e+002, 1.344297e+003
7.122813e+002, 1.370252e+003
7.142097e+002, 1.387405e+003
7.161382e+002, 1.381697e+003
7.180667e+002, 1.353354e+003
7.199951e+002, 1.326042e+003
7.219236e+002, 1.303249e+003
7.238521e+002, 1.284427e+003
7.257805e+002, 1.269585e+003
7.277090e+002, 1.259898e+003
7.296375e+002, 1.253140e+003
7.315659e+002, 1.249681e+003
7.334944e+002, 1.249128e+003
7.354229e+002, 1.251731e+003
7.373513e+002, 1.258769e+003
7.392798e+002, 1.263717e+003
7.412083e+002, 1.263540e+003
7.431367e+002, 1.260600e+003
7.450652e+002, 1.258106e+003
7.469937e+002, 1.252361e+003
7.489221e+002, 1.251461e+003
7.508506e+002, 1.259495e+003
7.527791e+002, 1.272293e+003
7.547075e+002, 1.281876e+003
7.566360e+002, 1.287776e+003
7.585645e+002, 1.291627e+003
7.604929e+002, 1.291573e+003
7.624214e+002, 1.289868e+003
7.643499e+002, 1.293831e+003
7.662783e+002, 1.313023e+003
7.682068e+002, 1.327128e+003
7.701353e+002, 1.327332e+003
7.720637e+002, 1.318108e+003
7.739922e+002, 1.315914e+003
7.759207e+002, 1.326250e+003
7.778491e+002, 1.334653e+003
7.797776e+002, 1.334442e+003
7.817061e+002, 1.326632e+003
7.836345e+002, 1.321213e+003
7.855630e+002, 1.317335e+003
7.874915e+002, 1.316950e+003
7.894199e+002, 1.322933e+003
7.913484e+002, 1.334175e+003
7.932769e+002, 1.342588e+003
7.952053e+002, 1.345005e+003
7.971338e+002, 1.348560e+003
7.990623e+002, 1.358719e+003
8.009907e+002, 1.375615e+003
8.029192e+002, 1.383487e+003
8.048477e+002, 1.370411e+003
8.067761e+002, 1.360282e+003
8.087046e+002, 1.365380e+003
8.106331e+002, 1.384841e+003
8.125615e+002, 1.398300e+003
8.144900e+002, 1.401673e+003
8.164185e+002, 1.403136e+003
8.183469e+002, 1.406837e+003
8.202754e+002, 1.412744e+003
8.222039e+002, 1.416989e+003
8.241323e+002, 1.415909e+003
8.260608e+002, 1.416112e+003
8.279893e+002, 1.420975e+003
8.299177e+002, 1.430717e+003
8.318462e+002, 1.439138e+003
8.337747e+002, 1.444506e+003
8.357031e+002, 1.450459e+003
8.376316e+002, 1.460568e+003
8.395601e+002, 1.474441e+003
8.414885e+002, 1.483460e+003
8.434170e+002, 1.484177e+003
8.453455e+002, 1.482389e+003
8.472739e+002, 1.478072e+003
8.492024e+002, 1.471040e+003
8.511309e+002, 1.470474e+003
8.530593e+002, 1.482218e+003
8.549878e+002, 1.494052e+003
8.569163e+002, 1.500063e+003
8.588447e+002, 1.501173e+003
8.607732e+002, 1.501442e+003
8.627017e+002, 1.498120e+003
8.646301e+002, 1.497812e+003
8.665586e+002, 1.505524e+003
8.684871e+002, 1.521251e+003
8.704155e+002, 1.530564e+003
8.723440e+002, 1.528072e+003
8.742725e+002, 1.525324e+003
8.762009e+002, 1.527348e+003
8.781294e+002, 1.532728e+003
8.800579e+002, 1.536301e+003
8.819863e+002, 1.533107e+003
8.839148e+002, 1.534578e+003
8.858433e+002, 1.548446e+003
8.877717e+002, 1.572608e+003
8.897002e+002, 1.587615e+003
8.916287e+002, 1.586178e+003
8.935571e+002, 1.584818e+003
8.954856e+002, 1.590266e+003
8.974141e+002, 1.599279e+003
8.993425e+002, 1.601950e+003
9.012710e+002, 1.594130e+003
9.031995e+002, 1.588059e+003
9.051279e+002, 1.586967e+003
9.070564e+002, 1.590711e+003
9.089849e+002, 1.599347e+003
9.109133e+002, 1.621928e+003
9.128418e+002, 1.638314e+003
9.147703e+002, 1.641744e+003
9.166987e+002, 1.637779e+003
9.186272e+002, 1.638367e+003
9.205557e+002, 1.645354e+003
9.224841e+002, 1.651071e+003
9.244126e+002, 1.649514e+003
9.263411e+002, 1.647248e+003
9.282695e+002, 1.653746e+003
9.301980e+002, 1.675243e+003
9.321265e+002, 1.691850e+003
9.340549e+002, 1.696528e+003
9.359834e+002, 1.697917e+003
9.379119e+002, 1.706107e+003
9.398403e+002, 1.722965e+003
9.417688e+002, 1.739511e+003
9.436973e+002, 1.756450e+003
9.456257e+002, 1.771102e+003
9.475542e+002, 1.780017e+003
9.494827e+002, 1.782290e+003
9.514111e+002, 1.789043e+003
9.533396e+002, 1.809106e+003
9.552681e+002, 1.828382e+003
9.571965e+002, 1.838211e+003
9.591250e+002, 1.836547e+003
9.610535e+002, 1.838049e+003
9.629819e+002, 1.842618e+003
9.649104e+002, 1.850148e+003
9.668389e+002, 1.863710e+003
9.687673e+002, 1.881078e+003
9.706958e+002, 1.892112e+003
9.726243e+002, 1.892842e+003
9.745527e+002, 1.891830e+003
9.764812e+002, 1.893863e+003
9.784097e+002, 1.897455e+003
9.803381e+002, 1.895596e+003
9.822666e+002, 1.878061e+003
9.841951e+002, 1.867671e+003
9.861235e+002, 1.875317e+003
9.880520e+002, 1.891077e+003
9.899805e+002, 1.892748e+003
9.919089e+002, 1.873814e+003
9.938374e+002, 1.862463e+003
9.957659e+002, 1.873113e+003
9.976943e+002, 1.891172e+003
9.996228e+002, 1.902233e+003
1.001551e+003, 1.905672e+003
1.003480e+003, 1.903545e+003
1.005408e+003, 1.889593e+003
1.007337e+003, 1.875650e+003
1.009265e+003, 1.870279e+003
1.011194e+003, 1.875276e+003
1.013122e+003, 1.882477e+003
1.015051e+003, 1.897996e+003
1.016979e+003, 1.910391e+003
1.018907e+003, 1.911098e+003
1.020836e+003, 1.903289e+003
1.022764e+003, 1.898757e+003
1.024693e+003, 1.899995e+003
1.026621e+003, 1.902430e+003
1.028550e+003, 1.902858e+003
1.030478e+003, 1.902804e+003
1.032407e+003, 1.907582e+003
1.034335e+003, 1.922246e+003
1.036264e+003, 1.934845e+003
1.038192e+003, 1.942832e+003
1.040121e+003, 1.948304e+003
1.042049e+003, 1.953580e+003
1.043978e+003, 1.957956e+003
1.045906e+003, 1.965570e+003
1.047834e+003, 1.982453e+003
1.049763e+003, 1.998643e+003
1.051691e+003, 2.006112e+003
1.053620e+003, 2.003967e+003
1.055548e+003, 2.004589e+003
1.057477e+003, 2.011531e+003
1.059405e+003, 2.019481e+003
1.061334e+003, 2.027187e+003
1.063262e+003, 2.034652e+003
1.065191e+003, 2.040380e+003
1.067119e+003, 2.042636e+003
1.069048e+003, 2.045612e+003
1.070976e+003, 2.047924e+003
1.072905e+003, 2.052211e+003
1.074833e+003, 2.063818e+003
1.076761e+003, 2.085467e+003
1.078690e+003, 2.103552e+003
1.080618e+003, 2.113506e+003
1.082547e+003, 2.118688e+003
1.084475e+003, 2.121064e+003
1.086404e+003, 2.119327e+003
1.088332e+003, 2.119604e+003
1.090261e+003, 2.123099e+003
1.092189e+003, 2.127829e+003
1.094118e+003, 2.132769e+003
1.096046e+003, 2.138103e+003
1.097975e+003, 2.145396e+003
1.099903e+003, 2.158567e+003
1.101832e+003, 2.166711e+003
1.103760e+003, 2.158907e+003
1.105688e+003, 2.145462e+003
1.107617e+003, 2.142828e+003
1.109545e+003, 2.153148e+003
1.111474e+003, 2.168810e+003
1.113402e+003, 2.200006e+003
1.115331e+003, 2.227198e+003
1.117259e+003, 2.230003e+003
1.119188e+003, 2.198169e+003
1.121116e+003, 2.185147e+003
1.123045e+003, 2.206040e+003
1.124973e+003, 2.228558e+003
1.126902e+003, 2.236927e+003
1.128830e+003, 2.235371e+003
1.130759e+003, 2.240136e+003
1.132687e+003, 2.255951e+003
1.134615e+003, 2.268162e+003
1.136544e+003, 2.269218e+003
1.138472e+003, 2.265373e+003
1.140401e+003, 2.262487e+003
1.142329e+003, 2.259228e+003
1.144258e+003, 2.261807e+003
1.146186e+003, 2.275960e+003
1.148115e+003, 2.290658e+003
1.150043e+003, 2.297702e+003
1.151972e+003, 2.297090e+003
1.153900e+003, 2.303669e+003
1.155829e+003, 2.326515e+003
1.157757e+003, 2.344876e+003
1.159686e+003, 2.350975e+003
1.161614e+003, 2.349973e+003
1.163542e+003, 2.349927e+003
1.165471e+003, 2.350385e+003
1.167399e+003, 2.354854e+003
1.169328e+003, 2.369589e+003
1.171256e+003, 2.383910e+003
1.173185e+003, 2.389312e+003
1.175113e+003, 2.385132e+003
1.177042e+003, 2.385449e+003
1.178970e+003, 2.392394e+003
1.180899e+003, 2.402145e+003
1.182827e+003, 2.415475e+003
1.184756e+003, 2.430422e+003
1.186684e+003, 2.442274e+003
1.188613e+003, 2.449323e+003
1.190541e+003, 2.456375e+003
1.192469e+003, 2.461712e+003
1.194398e+003, 2.468717e+003
1.196326e+003, 2.483807e+003
1.198255e+003, 2.505318e+003
1.200183e+003, 2.516830e+003
1.202112e+003, 2.511225e+003
1.204040e+003, 2.505847e+003
1.205969e+003, 2.505580e+003
1.207897e+003, 2.510941e+003
1.209826e+003, 2.524367e+003
1.211754e+003, 2.552463e+003
1.213683e+003, 2.572670e+003
1.215611e+003, 2.574507e+003
1.217540e+003, 2.574692e+003
1.219468e+003, 2.586236e+003
1.221396e+003, 2.609328e+003
1.223325e+003, 2.627105e+003
1.225253e+003, 2.642500e+003
1.227182e+003, 2.649252e+003
1.229110e+003, 2.632839e+003
1.231039e+003, 2.612636e+003
1.232967e+003, 2.621653e+003
1.234896e+003, 2.665440e+003
1.236824e+003, 2.694079e+003
1.238753e+003, 2.686177e+003
1.240681e+003, 2.672990e+003
1.242610e+003, 2.670144e+003
1.244538e+003, 2.677041e+003
1.246467e+003, 2.688992e+003
1.248395e+003, 2.710706e+003
1.250323e+003, 2.729301e+003
1.252252e+003, 2.741521e+003
1.254180e+003, 2.749556e+003
1.256109e+003, 2.754586e+003
1.258037e+003, 2.754371e+003
1.259966e+003, 2.759842e+003
1.261894e+003, 2.775061e+003
1.263823e+003, 2.791388e+003
1.265751e+003, 2.806081e+003
1.267680e+003, 2.819537e+003
1.269608e+003, 2.832419e+003
1.271537e+003, 2.844633e+003
1.273465e+003, 2.858172e+003
1.275394e+003, 2.880400e+003
1.277322e+003, 2.897634e+003
1.279250e+003, 2.894658e+003
1.281179e+003, 2.875197e+003
1.283107e+003, 2.874141e+003
1.285036e+003, 2.904265e+003
1.286964e+003, 2.934052e+003
1.288893e+003, 2.961338e+003
1.290821e+003, 2.980114e+003
1.292750e+003, 2.980636e+003
1.294678e+003, 2.953843e+003
1.296607e+003, 2.938383e+003
1.298535e+003, 2.937371e+003
1.300464e+003, 2.943557e+003
1.302392e+003, 2.958076e+003
1.304321e+003, 2.977543e+003
1.306249e+003, 2.993518e+003
1.308177e+003, 3.005853e+003
1.310106e+003, 3.015583e+003
1.312034e+003, 3.017731e+003
1.313963e+003, 3.021672e+003
1.315891e+003, 3.035363e+003
1.317820e+003, 3.055962e+003
1.319748e+003, 3.075388e+003
1.321677e+003, 3.096734e+003
1.323605e+003, 3.108831e+003
1.325534e+003, 3.094715e+003
1.327462e+003, 3.080788e+003
1.329391e+003, 3.092596e+003
1.331319e+003, 3.133575e+003
1.333248e+003, 3.159864e+003
1.335176e+003, 3.154986e+003
1.337104e+003, 3.152491e+003
1.339033e+003, 3.159485e+003
1.340961e+003, 3.171879e+003
1.342890e+003, 3.185151e+003
1.344818e+003, 3.200805e+003
1.346747e+003, 3.211913e+003
1.348675e+003, 3.212667e+003
1.350604e+003, 3.216731e+003
1.352532e+003, 3.234954e+003
1.354461e+003, 3.259399e+003
1.356389e+003, 3.271909e+003
1.358318e+003, 3.269979e+003
1.360246e+003, 3.275775e+003
1.362175e+003, 3.302552e+003
1.364103e+003, 3.326627e+003
1.366031e+003, 3.329531e+003
1.367960e+003, 3.319937e+003
1.369888e+003, 3.318622e+003
1.371817e+003, 3.327348e+003
1.373745e+003, 3.339280e+003
1.375674e+003, 3.357754e+003
1.377602e+003, 3.374144e+003
1.379531e+003, 3.380298e+003
1.381459e+003, 3.378596e+003
1.383388e+003, 3.386858e+003
1.385316e+003, 3.413094e+003
1.387245e+003, 3.435182e+003
1.389173e+003, 3.447641e+003
1.391102e+003, 3.457327e+003
1.393030e+003, 3.470462e+003
1.394958e+003, 3.486645e+003
1.396887e+003, 3.496812e+003
1.398815e+003, 3.490087e+003
1.400744e+003, 3.494397e+003
1.402672e+003, 3.522461e+003
1.404601e+003, 3.556172e+003
1.406529e+003, 3.581695e+003
1.408458e+003, 3.598746e+003
1.410386e+003, 3.606659e+003
1.412315e+003, 3.599612e+003
1.414243e+003, 3.595493e+003
1.416172e+003, 3.600312e+003
1.418100e+003, 3.610204e+003
1.420029e+003, 3.625466e+003
1.421957e+003, 3.644657e+003
1.423885e+003, 3.653712e+003
1.425814e+003, 3.644695e+003
1.427742e+003, 3.642810e+003
1.429671e+003, 3.666025e+003
1.431599e+003, 3.693126e+003
1.433528e+003, 3.702992e+003
1.435456e+003, 3.695800e+003
1.437385e+003, 3.700819e+003
1.439313e+003, 3.727441e+003
1.441242e+003, 3.751481e+003
1.443170e+003, 3.762745e+003
1.445099e+003, 3.772508e+003
1.447027e+003, 3.793624e+003
1.448956e+003, 3.826939e+003
1.450884e+003, 3.849419e+003
1.452813e+003, 3.845890e+003
1.454741e+003, 3.852496e+003
1.456669e+003, 3.886360e+003
1.458598e+003, 3.922903e+003
1.460526e+003, 3.940259e+003
1.462455e+003, 3.938619e+003
1.464383e+003, 3.932571e+003
1.466312e+003, 3.912128e+003
1.468240e+003, 3.904207e+003
1.470169e+003, 3.923701e+003
1.472097e+003, 3.949312e+003
1.474026e+003, 3.965059e+003
1.475954e+003, 3.972754e+003
1.477883e+003, 3.979760e+003
1.479811e+003, 3.985644e+003
1.481740e+003, 3.994537e+003
1.483668e+003, 4.000608e+003
1.485596e+003, 4.016536e+003
1.487525e+003, 4.065725e+003
1.489453e+003, 4.129895e+003
1.491382e+003, 4.152675e+003
1.493310e+003, 4.119755e+003
1.495239e+003, 4.095649e+003
1.497167e+003, 4.092949e+003
1.499096e+003, 4.106219e+003
1.501024e+003, 4.146292e+003
1.502953e+003, 4.197713e+003
1.504881e+003, 4.213949e+003
1.506810e+003, 4.183844e+003
1.508738e+003, 4.175030e+003
1.510667e+003, 4.218567e+003
1.512595e+003, 4.259998e+003
1.514523e+003, 4.274220e+003
1.516452e+003, 4.272808e+003
1.518380e+003, 4.276411e+003
1.520309e+003, 4.286635e+003
1.522237e+003, 4.293462e+003
1.524166e+003, 4.293700e+003
1.526094e+003, 4.293669e+003
1.528023e+003, 4.289431e+003
1.529951e+003, 4.289655e+003
1.531880e+003, 4.308466e+003
1.533808e+003, 4.349210e+003
1.535737e+003, 4.377713e+003
1.537665e+003, 4.383457e+003
1.539594e+003, 4.392542e+003
1.541522e+003, 4.410788e+003
1.543450e+003, 4.432026e+003
1.545379e+003, 4.452410e+003
1.547307e+003, 4.471294e+003
1.549236e+003, 4.484893e+003
1.551164e+003, 4.487567e+003
1.553093e+003, 4.496444e+003
1.555021e+003, 4.526594e+003
1.556950e+003, 4.549847e+003
1.558878e+003, 4.538027e+003
1.560807e+003, 4.510439e+003
1.562735e+003, 4.518529e+003
1.564664e+003, 4.569443e+003
1.566592e+003, 4.606967e+003
1.568521e+003, 4.619869e+003
1.570449e+003, 4.625208e+003
1.572377e+003, 4.620567e+003
1.574306e+003, 4.616315e+003
1.576234e+003, 4.629209e+003
1.578163e+003, 4.657010e+003
1.580091e+003, 4.676682e+003
1.582020e+003, 4.684149e+003
1.583948e+003, 4.691344e+003
1.585877e+003, 4.701343e+003
1.587805e+003, 4.714111e+003
1.589734e+003, 4.731572e+003
1.591662e+003, 4.751777e+003
1.593591e+003, 4.768286e+003
1.595519e+003, 4.779462e+003
1.597448e+003, 4.794169e+003
1.599376e+003, 4.819280e+003
1.601304e+003, 4.839623e+003
1.603233e+003, 4.842221e+003
1.605161e+003, 4.837969e+003
1.607090e+003, 4.840367e+003
1.609018e+003, 4.849609e+003
1.610947e+003, 4.864014e+003
1.612875e+003, 4.884242e+003
1.614804e+003, 4.908726e+003
1.616732e+003, 4.940178e+003
1.618661e+003, 4.972476e+003
1.620589e+003, 5.001332e+003
1.622518e+003, 5.027103e+003
1.624446e+003, 5.054229e+003
1.626375e+003, 5.086183e+003
1.628303e+003, 5.099956e+003
1.630231e+003, 5.079284e+003
1.632160e+003, 5.058049e+003
1.634088e+003, 5.049576e+003
1.636017e+003, 5.049688e+003
1.637945e+003, 5.049723e+003
1.639874e+003, 5.049948e+003
1.641802e+003, 5.074078e+003
1.643731e+003, 5.139717e+003
1.645659e+003, 5.188834e+003
1.647588e+003, 5.192569e+003
1.649516e+003, 5.189333e+003
1.651445e+003, 5.200933e+003
1.653373e+003, 5.222021e+003
1.655302e+003, 5.237642e+003
1.657230e+003, 5.246561e+003
1.659158e+003, 5.260977e+003
1.661087e+003, 5.289058e+003
1.663015e+003, 5.311758e+003
1.664944e+003, 5.315464e+003
1.666872e+003, 5.318103e+003
1.668801e+003, 5.340628e+003
1.670729e+003, 5.378496e+003
1.672658e+003, 5.395320e+003
1.674586e+003, 5.381335e+003
1.676515e+003, 5.377505e+003
1.678443e+003, 5.395789e+003
1.680372e+003, 5.418485e+003
1.682300e+003, 5.439995e+003
1.684229e+003, 5.462192e+003
1.686157e+003, 5.488117e+003
1.688085e+003, 5.517439e+003
1.690014e+003, 5.542262e+003
1.691942e+003, 5.556273e+003
1.693871e+003, 5.577186e+003
1.695799e+003, 5.621078e+003
1.697728e+003, 5.656407e+003
1.699656e+003, 5.661106e+003
1.701585e+003, 5.651163e+003
1.703513e+003, 5.654024e+003
1.705442e+003, 5.671715e+003
1.707370e+003, 5.687520e+003
1.709299e+003, 5.703544e+003
1.711227e+003, 5.714626e+003
1.713156e+003, 5.709299e+003
1.715084e+003, 5.710635e+003
1.717012e+003, 5.740406e+003
1.718941e+003, 5.782899e+003
1.720869e+003, 5.803206e+003
1.722798e+003, 5.797235e+003
1.724726e+003, 5.797383e+003
1.726655e+003, 5.808484e+003
1.728583e+003, 5.818830e+003
1.730512e+003, 5.817881e+003
1.732440e+003, 5.824190e+003
1.734369e+003, 5.858708e+003
1.736297e+003, 5.906361e+003
1.738226e+003, 5.928802e+003
1.740154e+003, 5.921755e+003
1.742083e+003, 5.925311e+003
1.744011e+003, 5.947866e+003
1.745939e+003, 5.968412e+003
1.747868e+003, 5.980609e+003
1.749796e+003, 5.990339e+003
1.751725e+003, 5.999485e+003
1.753653e+003, 6.009939e+003
1.755582e+003, 6.029252e+003
1.757510e+003, 6.059473e+003
1.759439e+003, 6.070210e+003
1.761367e+003, 6.042907e+003
1.763296e+003, 6.032578e+003
1.765224e+003, 6.062542e+003
1.767153e+003, 6.102556e+003
1.769081e+003, 6.145781e+003
1.771010e+003, 6.182634e+003
1.772938e+003, 6.190764e+003
1.774866e+003, 6.170875e+003
1.776795e+003, 6.159081e+003
1.778723e+003, 6.159840e+003
1.780652e+003, 6.165807e+003
1.782580e+003, 6.176990e+003
1.784509e+003, 6.191619e+003
1.786437e+003, 6.215234e+003
1.788366e+003, 6.237612e+003
1.790294e+003, 6.235505e+003
1.792223e+003, 6.214352e+003
1.794151e+003, 6.224396e+003
1.796080e+003, 6.275838e+003
1.798008e+003, 6.326796e+003
1.799937e+003, 6.376316e+003
1.801865e+003, 6.410043e+003
1.803793e+003, 6.404809e+003
1.805722e+003, 6.392141e+003
1.807650e+003, 6.408517e+003
1.809579e+003, 6.444743e+003
1.811507e+003, 6.463942e+003
1.813436e+003, 6.461425e+003
1.815364e+003, 6.472293e+003
1.817293e+003, 6.514332e+003
1.819221e+003, 6.548183e+003
1.821150e+003, 6.548794e+003
1.823078e+003, 6.545253e+003
1.825007e+003, 6.563443e+003
1.826935e+003, 6.593955e+003
1.828864e+003, 6.613549e+003
1.830792e+003, 6.621330e+003
1.832720e+003, 6.630908e+003
1.834649e+003, 6.638370e+003
1.836577e+003, 6.656619e+003
1.838506e+003, 6.701958e+003
1.840434e+003, 6.742911e+003
1.842363e+003, 6.757173e+003
1.844291e+003, 6.760306e+003
1.846220e+003, 6.776744e+003
1.848148e+003, 6.804993e+003
1.850077e+003, 6.820797e+003
1.852005e+003, 6.821144e+003
1.853934e+003, 6.818857e+003
1.855862e+003, 6.808142e+003
1.857791e+003, 6.805076e+003
1.859719e+003, 6.808355e+003
1.861647e+003, 6.828290e+003
1.863576e+003, 6.890477e+003
1.865504e+003, 6.972757e+003
1.867433e+003, 7.011444e+003
1.869361e+003, 6.996276e+003
1.871290e+003, 6.992830e+003
1.873218e+003, 7.002265e+003
1.875147e+003, 7.018584e+003
1.877075e+003, 7.049193e+003
1.879004e+003, 7.074885e+003
1.880932e+003, 7.088320e+003
1.882861e+003, 7.092928e+003
1.884789e+003, 7.087139e+003
1.886718e+003, 7.075559e+003
1.888646e+003, 7.083425e+003
1.890574e+003, 7.114819e+003
1.892503e+003, 7.141342e+003
1.894431e+003, 7.157156e+003
1.896360e+003, 7.173868e+003
1.898288e+003, 7.189834e+003
1.900217e+003, 7.212276e+003
1.902145e+003, 7.254513e+003
1.904074e+003, 7.299214e+003
1.906002e+003, 7.323338e+003
1.907931e+003, 7.330049e+003
1.909859e+003, 7.329607e+003
1.911788e+003, 7.320063e+003
1.913716e+003, 7.329643e+003
1.915645e+003, 7.370157e+003
1.917573e+003, 7.413757e+003
1.919501e+003, 7.466042e+003
1.921430e+003, 7.500851e+003
1.923358e+003, 7.481905e+003
1.925287e+003, 7.445479e+003
1.927215e+003, 7.450717e+003
1.929144e+003, 7.492784e+003
1.931072e+003, 7.525713e+003
1.933001e+003, 7.553030e+003
1.934929e+003, 7.560071e+003
1.936858e+003, 7.517776e+003
1.938786e+003, 7.496677e+003
1.940715e+003, 7.519925e+003
1.942643e+003, 7.561596e+003
1.944572e+003, 7.623264e+003
1.946500e+003, 7.682248e+003
1.948428e+003, 7.696187e+003
1.950357e+003, 7.670109e+003
1.952285e+003, 7.664881e+003
1.954214e+003, 7.687367e+003
1.956142e+003, 7.707475e+003
1.958071e+003, 7.725524e+003
1.959999e+003, 7.736804e+003
1.961928e+003, 7.729971e+003
1.963856e+003, 7.727782e+003
1.965785e+003, 7.747553e+003
1.967713e+003, 7.774420e+003
1.969642e+003, 7.790967e+003
1.971570e+003, 7.800798e+003
1.973499e+003, 7.813672e+003
1.975427e+003, 7.830237e+003
1.977355e+003, 7.856666e+003
1.979284e+003, 7.899489e+003
1.981212e+003, 7.930913e+003
1.983141e+003, 7.930953e+003
1.985069e+003, 7.934674e+003
1.986998e+003, 7.961186e+003
1.988926e+003, 7.994884e+003
1.990855e+003, 8.023706e+003
1.992783e+003, 8.047820e+003
1.994712e+003, 8.071785e+003
1.996640e+003, 8.096554e+003
1.998569e+003, 8.098435e+003
2.000497e+003, 8.059702e+003
2.002426e+003, 8.041074e+003
2.004354e+003, 8.052861e+003
2.006282e+003, 8.075119e+003
2.008211e+003, 8.110438e+003
2.010139e+003, 8.146209e+003
2.012068e+003, 8.174588e+003
2.013996e+003, 8.198312e+003
2.015925e+003, 8.224461e+003
2.017853e+003, 8.250064e+003
2.019782e+003, 8.251490e+003
2.021710e+003, 8.225100e+003
2.023639e+003, 8.233228e+003
2.025567e+003, 8.294411e+003
2.027496e+003, 8.341558e+003
2.029424e+003, 8.348131e+003
2.031353e+003, 8.357511e+003
2.033281e+003, 8.406715e+003
2.035209e+003, 8.446751e+003
2.037138e+003, 8.416265e+003
2.039066e+003, 8.365858e+003
2.040995e+003, 8.390403e+003
2.042923e+003, 8.474730e+003
2.044852e+003, 8.510077e+003
2.046780e+003, 8.484467e+003
2.048709e+003, 8.469017e+003
2.050637e+003, 8.461898e+003
2.052566e+003, 8.472438e+003
2.054494e+003, 8.523508e+003
2.056423e+003, 8.563070e+003
2.058351e+003, 8.564583e+003
2.060280e+003, 8.554603e+003
2.062208e+003, 8.546255e+003
2.064136e+003, 8.545799e+003
2.066065e+003, 8.569046e+003
2.067993e+003, 8.612054e+003
2.069922e+003, 8.641408e+003
2.071850e+003, 8.654874e+003
2.073779e+003, 8.673832e+003
2.075707e+003, 8.701138e+003
2.077636e+003, 8.727825e+003
2.079564e+003, 8.755554e+003
2.081493e+003, 8.774719e+003
2.083421e+003, 8.779710e+003
2.085350e+003, 8.777426e+003
2.087278e+003, 8.768302e+003
2.089207e+003, 8.759216e+003
2.091135e+003, 8.759411e+003
2.093063e+003, 8.768177e+003
2.094992e+003, 8.781240e+003
2.096920e+003, 8.798052e+003
2.098849e+003, 8.819098e+003
2.100777e+003, 8.842677e+003
2.102706e+003, 8.872685e+003
2.104634e+003, 8.931198e+003
2.106563e+003, 8.962238e+003
2.108491e+003, 8.927632e+003
2.110420e+003, 8.894439e+003
2.112348e+003, 8.894904e+003
2.114277e+003, 8.913691e+003
2.116205e+003, 8.944374e+003
2.118134e+003, 8.978730e+003
2.120062e+003, 8.999952e+003
2.121990e+003, 9.009276e+003
2.123919e+003, 9.012456e+003
2.125847e+003, 9.005863e+003
2.127776e+003, 9.028099e+003
2.129704e+003, 9.112056e+003
2.131633e+003, 9.160036e+003
2.133561e+003, 9.119002e+003
2.135490e+003, 9.091895e+003
2.137418e+003, 9.127418e+003
2.139347e+003, 9.168679e+003
2.141275e+003, 9.176520e+003
2.143204e+003, 9.174103e+003
2.145132e+003, 9.190523e+003
2.147061e+003, 9.219340e+003
2.148989e+003, 9.241426e+003
2.150917e+003, 9.258234e+003
2.152846e+003, 9.281470e+003
2.154774e+003, 9.313105e+003
2.156703e+003, 9.311585e+003
2.158631e+003, 9.250105e+003
2.160560e+003, 9.222899e+003
2.162488e+003, 9.272477e+003
2.164417e+003, 9.324836e+003
2.166345e+003, 9.371945e+003
2.168274e+003, 9.393822e+003
2.170202e+003, 9.351169e+003
2.172131e+003, 9.304346e+003
2.174059e+003, 9.326825e+003
2.175988e+003, 9.391165e+003
2.177916e+003, 9.443661e+003
2.179844e+003, 9.483197e+003
2.181773e+003, 9.492666e+003
2.183701e+003, 9.468135e+003
2.185630e+003, 9.470398e+003
2.187558e+003, 9.508923e+003
2.189487e+003, 9.543242e+003
2.191415e+003, 9.569473e+003
2.193344e+003, 9.580778e+003
2.195272e+003, 9.561217e+003
2.197201e+003, 9.545237e+003
2.199129e+003, 9.546490e+003
2.201058e+003, 9.560769e+003
2.202986e+003, 9.597066e+003
2.204915e+003, 9.636313e+003
2.206843e+003, 9.645742e+003
2.208771e+003, 9.638450e+003
2.210700e+003, 9.657336e+003
2.212628e+003, 9.701330e+003
2.214557e+003, 9.723062e+003
2.216485e+003, 9.719194e+003
2.218414e+003, 9.723846e+003
2.220342e+003, 9.740096e+003
2.222271e+003, 9.759044e+003
2.224199e+003, 9.779856e+003
2.226128e+003, 9.799083e+003
2.228056e+003, 9.821361e+003
2.229985e+003, 9.835587e+003
2.231913e+003, 9.825994e+003
2.233842e+003, 9.820958e+003
2.235770e+003, 9.854910e+003
2.237698e+003, 9.896665e+003
2.239627e+003, 9.895120e+003
2.241555e+003, 9.872931e+003
2.243484e+003, 9.896605e+003
2.245412e+003, 9.955696e+003
2.247341e+003, 9.968278e+003
2.249269e+003, 9.933533e+003
2.251198e+003, 9.937542e+003
2.253126e+003, 9.997170e+003
2.255055e+003, 1.002883e+004
2.256983e+003, 1.000395e+004
2.258912e+003, 9.990354e+003
2.260840e+003, 1.000656e+004
2.262769e+003, 1.003216e+004
2.264697e+003, 1.007598e+004
2.266625e+003, 1.010716e+004
2.268554e+003, 1.008749e+004
2.270482e+003, 1.006958e+004
2.272411e+003, 1.011267e+004
2.274339e+003, 1.017530e+004
2.276268e+003, 1.019866e+004
2.278196e+003, 1.019610e+004
2.280125e+003, 1.020176e+004
2.282053e+003, 1.021171e+004
2.283982e+003, 1.019552e+004
2.285910e+003, 1.014969e+004
2.287839e+003, 1.014044e+004
2.289767e+003, 1.018144e+004
2.291696e+003, 1.022989e+004
2.293624e+003, 1.030287e+004
2.295552e+003, 1.035046e+004
2.297481e+003, 1.035960e+004
2.299409e+003, 1.035507e+004
2.301338e+003, 1.031998e+004
2.303266e+003, 1.030639e+004
2.305195e+003, 1.035835e+004
2.307123e+003, 1.041536e+004
2.309052e+003, 1.043677e+004
2.310980e+003, 1.044037e+004
2.312909e+003, 1.043453e+004
2.314837e+003, 1.042961e+004
2.316766e+003, 1.045363e+004
2.318694e+003, 1.049283e+004
2.320623e+003, 1.048785e+004
2.322551e+003, 1.044276e+004
2.324479e+003, 1.045938e+004
2.326408e+003, 1.054361e+004
2.328336e+003, 1.058791e+004
2.330265e+003, 1.057967e+004
2.332193e+003, 1.058674e+004
2.334122e+003, 1.062262e+004
2.336050e+003, 1.065528e+004
2.337979e+003, 1.068113e+004
2.339907e+003, 1.069545e+004
2.341836e+003, 1.068606e+004
2.343764e+003, 1.068140e+004
2.345693e+003, 1.069943e+004
2.347621e+003, 1.071755e+004
2.349550e+003, 1.072645e+004
2.351478e+003, 1.072585e+004
2.353406e+003, 1.069368e+004
2.355335e+003, 1.066937e+004
2.357263e+003, 1.071995e+004
2.359192e+003, 1.079894e+004
2.361120e+003, 1.081961e+004
2.363049e+003, 1.080068e+004
2.364977e+003, 1.080928e+004
2.366906e+003, 1.084275e+004
2.368834e+003, 1.085589e+004
2.370763e+003, 1.084474e+004
2.372691e+003, 1.084504e+004
2.374620e+003, 1.086075e+004
2.376548e+003, 1.086842e+004
2.378477e+003, 1.086304e+004
2.380405e+003, 1.087064e+004
2.382333e+003, 1.090348e+004
2.384262e+003, 1.092820e+004
2.386190e+003, 1.092325e+004
2.388119e+003, 1.092735e+004
2.390047e+003, 1.096500e+004
2.391976e+003, 1.099362e+004
2.393904e+003, 1.098649e+004
2.395833e+003, 1.097453e+004
2.397761e+003, 1.096071e+004
2.399690e+003, 1.096629e+004
2.401618e+003, 1.102382e+004
2.403547e+003, 1.109530e+004
2.405475e+003, 1.115152e+004
2.407404e+003, 1.118704e+004
2.409332e+003, 1.118044e+004
2.411260e+003, 1.115128e+004
2.413189e+003, 1.115137e+004
2.415117e+003, 1.117642e+004
2.417046e+003, 1.119976e+004
2.418974e+003, 1.122244e+004
2.420903e+003, 1.124418e+004
2.422831e+003, 1.126510e+004
2.424760e+003, 1.128378e+004
2.426688e+003, 1.129906e+004
2.428617e+003, 1.131031e+004
2.430545e+003, 1.131421e+004
2.432474e+003, 1.131940e+004
2.434402e+003, 1.132221e+004
2.436331e+003, 1.133437e+004
2.438259e+003, 1.138212e+004
2.440188e+003, 1.139898e+004
2.442116e+003, 1.135252e+004
2.444044e+003, 1.131859e+004
2.445973e+003, 1.132198e+004
2.447901e+003, 1.134385e+004
2.449830e+003, 1.138692e+004
2.451758e+003, 1.142699e+004
2.453687e+003, 1.144397e+004
2.455615e+003, 1.145568e+004
2.457544e+003, 1.146948e+004
2.459472e+003, 1.149074e+004
2.461401e+003, 1.154731e+004
2.463329e+003, 1.159791e+004
2.465258e+003, 1.157297e+004
2.467186e+003, 1.151957e+004
2.469115e+003, 1.151008e+004
2.471043e+003, 1.153114e+004
2.472971e+003, 1.155915e+004
2.474900e+003, 1.159008e+004
2.476828e+003, 1.161038e+004
2.478757e+003, 1.161901e+004
2.480685e+003, 1.161003e+004
2.482614e+003, 1.158402e+004
2.484542e+003, 1.159405e+004
2.486471e+003, 1.164045e+004
2.488399e+003, 1.167309e+004
2.490328e+003, 1.168845e+004
2.492256e+003, 1.170037e+004
2.494185e+003, 1.170611e+004
2.496113e+003, 1.172264e+004
2.498042e+003, 1.176483e+004
2.499970e+003, 1.178274e+004
2.501898e+003, 1.176298e+004
2.503827e+003, 1.174549e+004
2.505755e+003, 1.173552e+004
2.507684e+003, 1.173216e+004
2.509612e+003, 1.174398e+004
2.511541e+003, 1.174718e+004
2.513469e+003, 1.171511e+004
2.515398e+003, 1.170603e+004
2.517326e+003, 1.176208e+004
2.519255e+003, 1.181328e+004
2.521183e+003, 1.181287e+004
2.523112e+003, 1.182168e+004
2.525040e+003, 1.189214e+004
2.526969e+003, 1.194435e+004
2.528897e+003, 1.190159e+004
2.530825e+003, 1.185143e+004
2.532754e+003, 1.186295e+004
2.534682e+003, 1.189896e+004
2.536611e+003, 1.193932e+004
2.538539e+003, 1.197190e+004
2.540468e+003, 1.196995e+004
2.542396e+003, 1.196174e+004
2.544325e+003, 1.199136e+004
2.546253e+003, 1.203160e+004
2.548182e+003, 1.203911e+004
2.550110e+003, 1.203211e+004
2.552039e+003, 1.204738e+004
2.553967e+003, 1.207635e+004
2.555896e+003, 1.209757e+004
2.557824e+003, 1.211304e+004
2.559752e+003, 1.213046e+004
2.561681e+003, 1.214660e+004
2.563609e+003, 1.214380e+004
2.565538e+003, 1.212866e+004
2.567466e+003, 1.214521e+004
2.569395e+003, 1.218943e+004
2.571323e+003, 1.220007e+004
2.573252e+003, 1.217640e+004
2.575180e+003, 1.217849e+004
2.577109e+003, 1.220697e+004
2.579037e+003, 1.221797e+004
2.580966e+003, 1.221013e+004
2.582894e+003, 1.223398e+004
2.584823e+003, 1.229990e+004
2.586751e+003, 1.231765e+004
2.588679e+003, 1.224934e+004
2.590608e+003, 1.225382e+004
2.592536e+003, 1.236226e+004
2.594465e+003, 1.240902e+004
2.596393e+003, 1.237250e+004
2.598322e+003, 1.235634e+004
2.600250e+003, 1.237838e+004
2.602179e+003, 1.239829e+004
2.604107e+003, 1.241484e+004
2.606036e+003, 1.241403e+004
2.607964e+003, 1.236202e+004
2.609893e+003, 1.236718e+004
2.611821e+003, 1.247325e+004
2.613750e+003, 1.252550e+004
2.615678e+003, 1.247051e+004
2.617606e+003, 1.244178e+004
2.619535e+003, 1.249412e+004
2.621463e+003, 1.253416e+004
2.623392e+003, 1.253177e+004
2.625320e+003, 1.252873e+004
2.627249e+003, 1.252692e+004
2.629177e+003, 1.253665e+004
2.631106e+003, 1.257049e+004
2.633034e+003, 1.259245e+004
2.634963e+003, 1.258275e+004
2.636891e+003, 1.257500e+004
2.638820e+003, 1.258554e+004
2.640748e+003, 1.259356e+004
2.642677e+003, 1.257887e+004
2.644605e+003, 1.258184e+004
2.646533e+003, 1.263374e+004
2.648462e+003, 1.266463e+004
2.650390e+003, 1.262427e+004
2.652319e+003, 1.259126e+004
2.654247e+003, 1.260895e+004
2.656176e+003, 1.263018e+004
2.658104e+003, 1.264223e+004
2.660033e+003, 1.264521e+004
2.661961e+003, 1.262487e+004
2.663890e+003, 1.262173e+004
2.665818e+003, 1.267702e+004
2.667747e+003, 1.271811e+004
2.669675e+003, 1.268456e+004
2.671604e+003, 1.265585e+004
2.673532e+003, 1.267748e+004
2.675460e+003, 1.270907e+004
2.677389e+003, 1.274205e+004
2.679317e+003, 1.276245e+004
2.681246e+003, 1.274551e+004
2.683174e+003, 1.274129e+004
2.685103e+003, 1.280113e+004
2.687031e+003, 1.285135e+004
2.688960e+003, 1.284116e+004
2.690888e+003, 1.282112e+004
2.692817e+003, 1.280853e+004
2.694745e+003, 1.281187e+004
2.696674e+003, 1.284252e+004
2.698602e+003, 1.288010e+004
2.700531e+003, 1.291798e+004
2.702459e+003, 1.294784e+004
2.704387e+003, 1.297269e+004
2.706316e+003, 1.297304e+004
2.708244e+003, 1.290332e+004
2.710173e+003, 1.285485e+004
2.712101e+003, 1.289640e+004
2.714030e+003, 1.294560e+004
2.715958e+003, 1.295462e+004
2.717887e+003, 1.296179e+004
2.719815e+003, 1.298134e+004
2.721744e+003, 1.301656e+004
2.723672e+003, 1.310307e+004
2.725601e+003, 1.314983e+004
2.727529e+003, 1.306575e+004
2.729458e+003, 1.299549e+004
2.731386e+003, 1.303357e+004
2.733314e+003, 1.307884e+004
2.735243e+003, 1.308075e+004
2.737171e+003, 1.307831e+004
2.739100e+003, 1.308807e+004
2.741028e+003, 1.309800e+004
2.742957e+003, 1.310108e+004
2.744885e+003, 1.310646e+004
2.746814e+003, 1.313342e+004
2.748742e+003, 1.314241e+004
2.750671e+003, 1.309120e+004
2.752599e+003, 1.306219e+004
2.754528e+003, 1.308648e+004
2.756456e+003, 1.312583e+004
2.758385e+003, 1.316028e+004
2.760313e+003, 1.321039e+004
2.762241e+003, 1.330831e+004
2.764170e+003, 1.337626e+004
2.766098e+003, 1.338386e+004
2.768027e+003, 1.337589e+004
2.769955e+003, 1.336081e+004
2.771884e+003, 1.334016e+004
2.773812e+003, 1.330934e+004
2.775741e+003, 1.328646e+004
2.777669e+003, 1.328689e+004
2.779598e+003, 1.327853e+004
2.781526e+003, 1.325127e+004
2.783455e+003, 1.323695e+004
2.785383e+003, 1.324507e+004
2.787312e+003, 1.325716e+004
2.789240e+003, 1.326644e+004
2.791168e+003, 1.328146e+004
2.793097e+003, 1.330274e+004
2.795025e+003, 1.332516e+004
2.796954e+003, 1.335006e+004
2.798882e+003, 1.336298e+004
2.800811e+003, 1.336097e+004
2.802739e+003, 1.335511e+004
2.804668e+003, 1.334924e+004
2.806596e+003, 1.333207e+004
2.808525e+003, 1.329748e+004
2.810453e+003, 1.330841e+004
2.812382e+003, 1.337131e+004
2.814310e+003, 1.339506e+004
2.816239e+003, 1.336484e+004
2.818167e+003, 1.334985e+004
2.820095e+003, 1.335118e+004
2.822024e+003, 1.336620e+004
2.823952e+003, 1.339339e+004
2.825881e+003, 1.340843e+004
2.827809e+003, 1.341218e+004
2.829738e+003, 1.343594e+004
2.831666e+003, 1.347156e+004
2.833595e+003, 1.344816e+004
2.835523e+003, 1.338107e+004
2.837452e+003, 1.335305e+004
2.839380e+003, 1.335719e+004
2.841309e+003, 1.338017e+004
2.843237e+003, 1.341111e+004
2.845166e+003, 1.341312e+004
2.847094e+003, 1.340465e+004
2.849022e+003, 1.342984e+004
2.850951e+003, 1.346774e+004
2.852879e+003, 1.348284e+004
2.854808e+003, 1.348659e+004
2.856736e+003, 1.349009e+004
2.858665e+003, 1.349570e+004
2.860593e+003, 1.350819e+004
2.862522e+003, 1.352407e+004
2.864450e+003, 1.355106e+004
2.866379e+003, 1.356669e+004
2.868307e+003, 1.353606e+004
2.870236e+003, 1.351020e+004
2.872164e+003, 1.353983e+004
2.874093e+003, 1.356532e+004
2.876021e+003, 1.354140e+004
2.877949e+003, 1.352983e+004
2.879878e+003, 1.358265e+004
2.881806e+003, 1.361667e+004
2.883735e+003, 1.357101e+004
2.885663e+003, 1.354892e+004
2.887592e+003, 1.358647e+004
2.889520e+003, 1.361909e+004
2.891449e+003, 1.363345e+004
2.893377e+003, 1.363508e+004
2.895306e+003, 1.361443e+004
2.897234e+003, 1.360627e+004
2.899163e+003, 1.361573e+004
2.901091e+003, 1.363198e+004
2.903020e+003, 1.365527e+004
2.904948e+003, 1.367479e+004
2.906876e+003, 1.368685e+004
2.908805e+003, 1.371144e+004
2.910733e+003, 1.375146e+004
2.912662e+003, 1.376075e+004
2.914590e+003, 1.374230e+004
2.916519e+003, 1.371261e+004
2.918447e+003, 1.367968e+004
2.920376e+003, 1.367833e+004
2.922304e+003, 1.370000e+004
2.924233e+003, 1.371529e+004
2.926161e+003, 1.372457e+004
2.928090e+003, 1.371912e+004
2.930018e+003, 1.371494e+004
2.931947e+003, 1.374985e+004
2.933875e+003, 1.378658e+004
2.935803e+003, 1.376549e+004
2.937732e+003, 1.373583e+004
2.939660e+003, 1.374330e+004
2.941589e+003, 1.376369e+004
2.943517e+003, 1.379073e+004
2.945446e+003, 1.381011e+004
2.947374e+003, 1.380841e+004
2.949303e+003, 1.380476e+004
2.951231e+003, 1.380658e+004
2.953160e+003, 1.380617e+004
2.955088e+003, 1.378714e+004
2.957017e+003, 1.379431e+004
2.958945e+003, 1.386993e+004
2.960874e+003, 1.390160e+004
2.962802e+003, 1.387191e+004
2.964730e+003, 1.383996e+004
2.966659e+003, 1.380804e+004
2.968587e+003, 1.380461e+004
2.970516e+003, 1.383105e+004
2.972444e+003, 1.388262e+004
2.974373e+003, 1.395246e+004
2.976301e+003, 1.395460e+004
2.978230e+003, 1.390444e+004
2.980158e+003, 1.389766e+004
2.982087e+003, 1.391795e+004
2.984015e+003, 1.390858e+004
2.985944e+003, 1.388787e+004
2.987872e+003, 1.389565e+004
2.989801e+003, 1.391061e+004
2.991729e+003, 1.390606e+004
2.993657e+003, 1.389603e+004
2.995586e+003, 1.389702e+004
2.997514e+003, 1.389540e+004
2.999443e+003, 1.387964e+004
3.001371e+003, 1.386289e+004
3.003300e+003, 1.383591e+004
3.005228e+003, 1.383565e+004
3.007157e+003, 1.389500e+004
3.009085e+003, 1.393057e+004
3.011014e+003, 1.391964e+004
3.012942e+003, 1.390917e+004
3.014871e+003, 1.391241e+004
3.016799e+003, 1.391099e+004
3.018728e+003, 1.390442e+004
3.020656e+003, 1.390005e+004
3.022584e+003, 1.389715e+004
3.024513e+003, 1.387940e+004
3.026441e+003, 1.385241e+004
3.028370e+003, 1.386585e+004
3.030298e+003, 1.390796e+004
3.032227e+003, 1.394771e+004
3.034155e+003, 1.398230e+004
3.036084e+003, 1.401326e+004
3.038012e+003, 1.403047e+004
3.039941e+003, 1.400577e+004
3.041869e+003, 1.398108e+004
3.043798e+003, 1.401185e+004
3.045726e+003, 1.401600e+004
3.047655e+003, 1.389137e+004
3.049583e+003, 1.382148e+004
3.051511e+003, 1.391853e+004
3.053440e+003, 1.398786e+004
3.055368e+003, 1.398686e+004
3.057297e+003, 1.398176e+004
3.059225e+003, 1.398202e+004
3.061154e+003, 1.399477e+004
3.063082e+003, 1.402230e+004
3.065011e+003, 1.402558e+004
3.066939e+003, 1.400607e+004
3.068868e+003, 1.399029e+004
3.070796e+003, 1.397936e+004
3.072725e+003, 1.398045e+004
3.074653e+003, 1.398805e+004
3.076582e+003, 1.398186e+004
3.078510e+003, 1.398592e+004
3.080438e+003, 1.405907e+004
3.082367e+003, 1.411997e+004
3.084295e+003, 1.407875e+004
3.086224e+003, 1.402979e+004
3.088152e+003, 1.401810e+004
3.090081e+003, 1.401148e+004
3.092009e+003, 1.398521e+004
3.093938e+003, 1.398688e+004
3.095866e+003, 1.403102e+004
3.097795e+003, 1.406350e+004
3.099723e+003, 1.407871e+004
3.101652e+003, 1.407502e+004
3.103580e+003, 1.405312e+004
3.105509e+003, 1.403233e+004
3.107437e+003, 1.401873e+004
3.109365e+003, 1.405358e+004
3.111294e+003, 1.410882e+004
3.113222e+003, 1.412594e+004
3.115151e+003, 1.412279e+004
3.117079e+003, 1.411118e+004
3.119008e+003, 1.410933e+004
3.120936e+003, 1.414087e+004
3.122865e+003, 1.417241e+004
3.124793e+003, 1.418735e+004
3.126722e+003, 1.419082e+004
3.128650e+003, 1.417099e+004
3.130579e+003, 1.418847e+004
3.132507e+003, 1.428721e+004
3.134436e+003, 1.430759e+004
3.136364e+003, 1.423345e+004
3.138292e+003, 1.419668e+004
3.140221e+003, 1.419660e+004
3.142149e+003, 1.420252e+004
3.144078e+003, 1.421282e+004
3.146006e+003, 1.423088e+004
3.147935e+003, 1.424607e+004
3.149863e+003, 1.424006e+004
3.151792e+003, 1.422568e+004
3.153720e+003, 1.419963e+004
3.155649e+003, 1.419445e+004
3.157577e+003, 1.425506e+004
3.159506e+003, 1.428636e+004
3.161434e+003, 1.424956e+004
3.163363e+003, 1.420865e+004
3.165291e+003, 1.415272e+004
3.167219e+003, 1.418180e+004
3.169148e+003, 1.429629e+004
3.171076e+003, 1.432114e+004
3.173005e+003, 1.426889e+004
3.174933e+003, 1.427081e+004
3.176862e+003, 1.430099e+004
3.178790e+003, 1.428179e+004
3.180719e+003, 1.425965e+004
3.182647e+003, 1.429406e+004
3.184576e+003, 1.434059e+004
3.186504e+003, 1.438252e+004
3.188433e+003, 1.439477e+004
3.190361e+003, 1.435353e+004
3.192290e+003, 1.432717e+004
3.194218e+003, 1.435939e+004
3.196146e+003, 1.435113e+004
3.198075e+003, 1.429631e+004
3.200003e+003, 1.427464e+004
3.201932e+003, 1.428836e+004
3.203860e+003, 1.431937e+004
3.205789e+003, 1.435795e+004
3.207717e+003, 1.437302e+004
3.209646e+003, 1.438208e+004
3.211574e+003, 1.441661e+004
3.213503e+003, 1.444166e+004
3.215431e+003, 1.440339e+004
3.217360e+003, 1.439199e+004
3.219288e+003, 1.446423e+004
3.221217e+003, 1.449223e+004
3.223145e+003, 1.440210e+004
3.225073e+003, 1.435181e+004
3.227002e+003, 1.434581e+004
3.228930e+003, 1.433279e+004
3.230859e+003, 1.431920e+004
3.232787e+003, 1.436428e+004
3.234716e+003, 1.442887e+004
3.236644e+003, 1.440616e+004
3.238573e+003, 1.436613e+004
3.240501e+003, 1.437212e+004
3.242430e+003, 1.439938e+004
3.244358e+003, 1.446490e+004
3.246287e+003, 1.447873e+004
3.248215e+003, 1.438881e+004
3.250144e+003, 1.435277e+004
3.252072e+003, 1.443194e+004
3.254000e+003, 1.444591e+004
3.255929e+003, 1.440338e+004
3.257857e+003, 1.438723e+004
3.259786e+003, 1.438676e+004
3.261714e+003, 1.436183e+004
3.263643e+003, 1.433215e+004
3.265571e+003, 1.432643e+004
3.267500e+003, 1.432520e+004
3.269428e+003, 1.430446e+004
3.271357e+003, 1.430518e+004
3.273285e+003, 1.434817e+004
3.275214e+003, 1.438514e+004
3.277142e+003, 1.440698e+004
3.279071e+003, 1.442406e+004
3.280999e+003, 1.443632e+004
3.282927e+003, 1.442799e+004
3.284856e+003, 1.441375e+004
3.286784e+003, 1.444781e+004
3.288713e+003, 1.448562e+004
3.290641e+003, 1.446184e+004
3.292570e+003, 1.442403e+004
3.294498e+003, 1.438459e+004
3.296427e+003, 1.437631e+004
3.298355e+003, 1.444429e+004
3.300284e+003, 1.446950e+004
3.302212e+003, 1.443895e+004
3.304141e+003, 1.441262e+004
3.306069e+003, 1.439593e+004
3.307998e+003, 1.441773e+004
3.309926e+003, 1.446211e+004
3.311854e+003, 1.452011e+004
3.313783e+003, 1.454396e+004
3.315711e+003, 1.443298e+004
3.317640e+003, 1.435754e+004
3.319568e+003, 1.442116e+004
3.321497e+003, 1.447802e+004
3.323425e+003, 1.448472e+004
3.325354e+003, 1.448714e+004
3.327282e+003, 1.448650e+004
3.329211e+003, 1.450090e+004
3.331139e+003, 1.452559e+004
3.333068e+003, 1.455135e+004
3.334996e+003, 1.456719e+004
3.336925e+003, 1.454361e+004
3.338853e+003, 1.452049e+004
3.340781e+003, 1.453238e+004
3.342710e+003, 1.453486e+004
3.344638e+003, 1.449056e+004
3.346567e+003, 1.452687e+004
3.348495e+003, 1.466894e+004
3.350424e+003, 1.469827e+004
3.352352e+003, 1.463071e+004
3.354281e+003, 1.464903e+004
3.356209e+003, 1.469751e+004
3.358138e+003, 1.466770e+004
3.360066e+003, 1.463874e+004
3.361995e+003, 1.470953e+004
3.363923e+003, 1.475060e+004
3.365852e+003, 1.470055e+004
3.367780e+003, 1.467517e+004
3.369708e+003, 1.469842e+004
3.371637e+003, 1.473090e+004
3.373565e+003, 1.476774e+004
3.375494e+003, 1.476813e+004
3.377422e+003, 1.476600e+004
3.379351e+003, 1.485587e+004
3.381279e+003, 1.493935e+004
3.383208e+003, 1.491180e+004
3.385136e+003, 1.489896e+004
3.387065e+003, 1.498889e+004
3.388993e+003, 1.498852e+004
3.390922e+003, 1.487111e+004
3.392850e+003, 1.480277e+004
3.394779e+003, 1.478646e+004
3.396707e+003, 1.479740e+004
3.398635e+003, 1.482346e+004
3.400564e+003, 1.485712e+004
3.402492e+003, 1.487779e+004
3.404421e+003, 1.485721e+004
3.406349e+003, 1.484358e+004
3.408278e+003, 1.485137e+004
3.410206e+003, 1.486504e+004
3.412135e+003, 1.488253e+004
3.414063e+003, 1.490107e+004
3.415992e+003, 1.491672e+004
3.417920e+003, 1.491335e+004
3.419849e+003, 1.490800e+004
3.421777e+003, 1.491292e+004
3.423706e+003, 1.494599e+004
3.425634e+003, 1.505713e+004
3.427563e+003, 1.511182e+004
3.429491e+003, 1.506748e+004
3.431419e+003, 1.506047e+004
3.433348e+003, 1.509313e+004
3.435276e+003, 1.510438e+004
3.437205e+003, 1.510007e+004
3.439133e+003, 1.509418e+004
3.441062e+003, 1.508435e+004
3.442990e+003, 1.505485e+004
3.444919e+003, 1.504849e+004
3.446847e+003, 1.508341e+004
3.448776e+003, 1.513142e+004
3.450704e+003, 1.519144e+004
3.452633e+003, 1.521537e+004
3.454561e+003, 1.521438e+004
3.456490e+003, 1.523963e+004
3.458418e+003, 1.527247e+004
3.460346e+003, 1.531180e+004
3.462275e+003, 1.531159e+004
3.464203e+003, 1.522588e+004
3.466132e+003, 1.519167e+004
3.468060e+003, 1.526649e+004
3.469989e+003, 1.532039e+004
3.471917e+003, 1.535151e+004
3.473846e+003, 1.533618e+004
3.475774e+003, 1.530745e+004
3.477703e+003, 1.531142e+004
3.479631e+003, 1.533602e+004
3.481560e+003, 1.538401e+004
3.483488e+003, 1.542590e+004
3.485417e+003, 1.545248e+004
3.487345e+003, 1.548865e+004
3.489273e+003, 1.553015e+004
3.491202e+003, 1.552448e+004
3.493130e+003, 1.550335e+004
3.495059e+003, 1.552483e+004
3.496987e+003, 1.557316e+004
3.498916e+003, 1.567652e+004
3.500844e+003, 1.572212e+004
3.502773e+003, 1.567271e+004
3.504701e+003, 1.563506e+004
3.506630e+003, 1.562227e+004
3.508558e+003, 1.566649e+004
3.510487e+003, 1.574493e+004
3.512415e+003, 1.582876e+004
3.514344e+003, 1.589130e+004
3.516272e+003, 1.591679e+004
3.518200e+003, 1.589646e+004
3.520129e+003, 1.581411e+004
3.522057e+003, 1.581560e+004
3.523986e+003, 1.590744e+004
3.525914e+003, 1.594772e+004
3.527843e+003, 1.596129e+004
3.529771e+003, 1.598996e+004
3.531700e+003, 1.602404e+004
3.533628e+003, 1.606481e+004
3.535557e+003, 1.609198e+004
3.537485e+003, 1.609809e+004
3.539414e+003, 1.612780e+004
3.541342e+003, 1.617903e+004
3.543271e+003, 1.617315e+004
3.545199e+003, 1.613962e+004
3.547127e+003, 1.609675e+004
3.549056e+003, 1.609004e+004
3.550984e+003, 1.615791e+004
3.552913e+003, 1.620608e+004
3.554841e+003, 1.619616e+004
3.556770e+003, 1.622052e+004
3.558698e+003, 1.626214e+004
3.560627e+003, 1.623901e+004
3.562555e+003, 1.620364e+004
3.564484e+003, 1.624524e+004
3.566412e+003, 1.627079e+004
3.568341e+003, 1.623769e+004
3.570269e+003, 1.618351e+004
3.572198e+003, 1.611225e+004
3.574126e+003, 1.612231e+004
3.576054e+003, 1.617868e+004
3.577983e+003, 1.617051e+004
3.579911e+003, 1.616294e+004
3.581840e+003, 1.622454e+004
3.583768e+003, 1.626894e+004
3.585697e+003, 1.627046e+004
3.587625e+003, 1.621268e+004
3.589554e+003, 1.611554e+004
3.591482e+003, 1.616092e+004
3.593411e+003, 1.625574e+004
3.595339e+003, 1.623719e+004
3.597268e+003, 1.618491e+004
3.599196e+003, 1.610484e+004
3.601125e+003, 1.609547e+004
3.603053e+003, 1.617054e+004
3.604981e+003, 1.617702e+004
3.606910e+003, 1.613327e+004
3.608838e+003, 1.612535e+004
3.610767e+003, 1.612264e+004
3.612695e+003, 1.607171e+004
3.614624e+003, 1.607956e+004
3.616552e+003, 1.620629e+004
3.618481e+003, 1.623579e+004
3.620409e+003, 1.615979e+004
3.622338e+003, 1.610550e+004
3.624266e+003, 1.608302e+004
3.626195e+003, 1.612673e+004
3.628123e+003, 1.617326e+004
3.630052e+003, 1.619389e+004
3.631980e+003, 1.619051e+004
3.633908e+003, 1.616240e+004
3.635837e+003, 1.612562e+004
3.637765e+003, 1.609622e+004
3.639694e+003, 1.614367e+004
3.641622e+003, 1.618468e+004
3.643551e+003, 1.614101e+004
3.645479e+003, 1.611371e+004
3.647408e+003, 1.612583e+004
3.649336e+003, 1.613557e+004
3.651265e+003, 1.614547e+004
3.653193e+003, 1.617986e+004
3.655122e+003, 1.622600e+004
3.657050e+003, 1.627376e+004
3.658979e+003, 1.631644e+004
3.660907e+003, 1.635250e+004
3.662835e+003, 1.636961e+004
3.664764e+003, 1.636822e+004
3.666692e+003, 1.636495e+004
3.668621e+003, 1.635618e+004
3.670549e+003, 1.632543e+004
3.672478e+003, 1.631380e+004
3.674406e+003, 1.634366e+004
3.676335e+003, 1.638186e+004
3.678263e+003, 1.642307e+004
3.680192e+003, 1.638782e+004
3.682120e+003, 1.634656e+004
3.684049e+003, 1.644426e+004
3.685977e+003, 1.654200e+004
3.687906e+003, 1.655386e+004
3.689834e+003, 1.657949e+004
3.691762e+003, 1.663051e+004
3.693691e+003, 1.658670e+004
3.695619e+003, 1.651599e+004
3.697548e+003, 1.659343e+004
3.699476e+003, 1.667005e+004
3.701405e+003, 1.663602e+004
3.703333e+003, 1.661175e+004
3.705262e+003, 1.661350e+004
3.707190e+003, 1.662196e+004
3.709119e+003, 1.663117e+004
3.711047e+003, 1.661263e+004
3.712976e+003, 1.661177e+004
3.714904e+003, 1.668110e+004
3.716833e+003, 1.672264e+004
3.718761e+003, 1.672206e+004
3.720689e+003, 1.678088e+004
3.722618e+003, 1.686012e+004
3.724546e+003, 1.684718e+004
3.726475e+003, 1.681542e+004
3.728403e+003, 1.680523e+004
3.730332e+003, 1.680927e+004
3.732260e+003, 1.682749e+004
3.734189e+003, 1.687331e+004
3.736117e+003, 1.693941e+004
3.738046e+003, 1.703397e+004
3.739974e+003, 1.709936e+004
3.741903e+003, 1.707904e+004
3.743831e+003, 1.705370e+004
3.745760e+003, 1.703439e+004
3.747688e+003, 1.706110e+004
3.749616e+003, 1.710442e+004
3.751545e+003, 1.709494e+004
3.753473e+003, 1.708248e+004
3.755402e+003, 1.709445e+004
3.757330e+003, 1.711356e+004
3.759259e+003, 1.713756e+004
3.761187e+003, 1.715085e+004
3.763116e+003, 1.717140e+004
3.765044e+003, 1.724815e+004
3.766973e+003, 1.731176e+004
3.768901e+003, 1.731103e+004
3.770830e+003, 1.733098e+004
3.772758e+003, 1.737424e+004
3.774687e+003, 1.743462e+004
3.776615e+003, 1.748246e+004
3.778543e+003, 1.745548e+004
3.780472e+003, 1.745643e+004
3.782400e+003, 1.755517e+004
3.784329e+003, 1.756238e+004
3.786257e+003, 1.750310e+004
3.788186e+003, 1.752615e+004
3.790114e+003, 1.758035e+004
3.792043e+003, 1.762646e+004
3.793971e+003, 1.765916e+004
3.795900e+003, 1.767205e+004
3.797828e+003, 1.769720e+004
3.799757e+003, 1.772810e+004
3.801685e+003, 1.773945e+004
3.803614e+003, 1.776244e+004
3.805542e+003, 1.782222e+004
3.807470e+003, 1.787902e+004
3.809399e+003, 1.792823e+004
3.811327e+003, 1.793771e+004
3.813256e+003, 1.792879e+004
3.815184e+003, 1.792370e+004
3.817113e+003, 1.794464e+004
3.819041e+003, 1.801059e+004
3.820970e+003, 1.805109e+004
3.822898e+003, 1.806499e+004
3.824827e+003, 1.809196e+004
3.826755e+003, 1.813495e+004
3.828684e+003, 1.820618e+004
3.830612e+003, 1.828505e+004
3.832541e+003, 1.837386e+004
3.834469e+003, 1.839125e+004
3.836397e+003, 1.837091e+004
3.838326e+003, 1.842425e+004
3.840254e+003, 1.847433e+004
3.842183e+003, 1.844950e+004
3.844111e+003, 1.849490e+004
3.846040e+003, 1.862640e+004
3.847968e+003, 1.860969e+004
3.849897e+003, 1.857446e+004
3.851825e+003, 1.871752e+004
3.853754e+003, 1.886066e+004
3.855682e+003, 1.895122e+004
3.857611e+003, 1.898010e+004
3.859539e+003, 1.896705e+004
3.861468e+003, 1.896678e+004
3.863396e+003, 1.899324e+004
3.865324e+003, 1.908237e+004
3.867253e+003, 1.912992e+004
3.869181e+003, 1.912946e+004
3.871110e+003, 1.920314e+004
3.873038e+003, 1.930672e+004
3.874967e+003, 1.936888e+004
3.876895e+003, 1.942225e+004
3.878824e+003, 1.948953e+004
3.880752e+003, 1.949204e+004
3.882681e+003, 1.946819e+004
3.884609e+003, 1.956742e+004
3.886538e+003, 1.969718e+004
3.888466e+003, 1.979401e+004
3.890395e+003, 1.990113e+004
3.892323e+003, 2.002536e+004
3.894251e+003, 2.006659e+004
3.896180e+003, 2.007915e+004
3.898108e+003, 2.010990e+004
3.900037e+003, 2.021157e+004
3.901965e+003, 2.042404e+004
3.903894e+003, 2.050648e+004
3.905822e+003, 2.050452e+004
3.907751e+003, 2.056824e+004
3.909679e+003, 2.066482e+004
3.911608e+003, 2.078630e+004
3.913536e+003, 2.088291e+004
3.915465e+003, 2.095504e+004
3.917393e+003, 2.108643e+004
3.919322e+003, 2.122076e+004
3.921250e+003, 2.129884e+004
3.923178e+003, 2.135869e+004
3.925107e+003, 2.141024e+004
3.927035e+003, 2.155639e+004
3.928964e+003, 2.174405e+004
3.930892e+003, 2.189117e+004
3.932821e+003, 2.198895e+004
3.934749e+003, 2.200148e+004
3.936678e+003, 2.207282e+004
3.938606e+003, 2.219158e+004
3.940535e+003, 2.231458e+004
3.942463e+003, 2.242458e+004
3.944392e+003, 2.251054e+004
3.946320e+003, 2.258299e+004
3.948249e+003, 2.265349e+004
3.950177e+003, 2.285740e+004
3.952105e+003, 2.303837e+004
3.954034e+003, 2.297833e+004
3.955962e+003, 2.298001e+004
3.957891e+003, 2.311349e+004
3.959819e+003, 2.321770e+004
3.961748e+003, 2.329378e+004
3.963676e+003, 2.332180e+004
3.965605e+003, 2.339064e+004
3.967533e+003, 2.353063e+004
3.969462e+003, 2.363694e+004
3.971390e+003, 2.371099e+004
3.973319e+003, 2.375806e+004
3.975247e+003, 2.379551e+004
3.977176e+003, 2.380181e+004
3.979104e+003, 2.393437e+004
3.981032e+003, 2.414860e+004
3.982961e+003, 2.424761e+004
3.984889e+003, 2.427420e+004
3.986818e+003, 2.422026e+004
3.988746e+003, 2.424479e+004
3.990675e+003, 2.434506e+004
3.992603e+003, 2.439884e+004
3.994532e+003, 2.445228e+004
3.996460e+003, 2.456535e+004
3.998389e+003, 2.462049e+004
4.000317e+003, 2.459420e+004
4.002246e+003, 2.458890e+004
4.004174e+003, 2.462126e+004
4.006103e+003, 2.474126e+004
4.008031e+003, 2.484906e+004
4.009959e+003, 2.492559e+004
4.011888e+003, 2.495039e+004
4.013816e+003, 2.498206e+004
4.015745e+003, 2.514739e+004
4.017673e+003, 2.523677e+004
4.019602e+003, 2.518655e+004
4.021530e+003, 2.521576e+004
4.023459e+003, 2.528723e+004
4.025387e+003, 2.530291e+004
4.027316e+003, 2.534993e+004
4.029244e+003, 2.550073e+004
4.031173e+003, 2.554449e+004
4.033101e+003, 2.553469e+004
4.035030e+003, 2.557621e+004
4.036958e+003, 2.566658e+004
4.038886e+003, 2.581647e+004
4.040815e+003, 2.586739e+004
4.042743e+003, 2.585496e+004
4.044672e+003, 2.590945e+004
4.046600e+003, 2.597793e+004
4.048529e+003, 2.603939e+004
4.050457e+003, 2.612082e+004
4.052386e+003, 2.621379e+004
4.054314e+003, 2.628058e+004
4.056243e+003, 2.632323e+004
4.058171e+003, 2.632742e+004
4.060100e+003, 2.632188e+004
4.062028e+003, 2.632426e+004
4.063957e+003, 2.640645e+004
4.065885e+003, 2.650352e+004
4.067813e+003, 2.657307e+004
4.069742e+003, 2.669609e+004
4.071670e+003, 2.684379e+004
4.073599e+003, 2.687677e+004
4.075527e+003, 2.690929e+004
4.077456e+003, 2.700604e+004
4.079384e+003, 2.710370e+004
4.081313e+003, 2.719705e+004
4.083241e+003, 2.728145e+004
4.085170e+003, 2.737864e+004
4.087098e+003, 2.749309e+004
4.089027e+003, 2.766264e+004
4.090955e+003, 2.786775e+004
4.092884e+003, 2.802354e+004
4.094812e+003, 2.818842e+004
4.096740e+003, 2.842719e+004
4.098669e+003, 2.855544e+004
4.100598e+003, 2.863720e+004
4.102526e+003, 2.892779e+004
4.104454e+003, 2.917031e+004
4.106383e+003, 2.922123e+004
4.108312e+003, 2.943313e+004
4.110240e+003, 2.975371e+004
4.112168e+003, 2.995657e+004
4.114097e+003, 3.014852e+004
4.116025e+003, 3.035606e+004
4.117954e+003, 3.075495e+004
4.119882e+003, 3.128780e+004
4.121811e+003, 3.184348e+004
4.123739e+003, 3.238959e+004
4.125667e+003, 3.289904e+004
4.127596e+003, 3.346700e+004
4.129524e+003, 3.405407e+004
4.131453e+003, 3.455265e+004
4.133381e+003, 3.511368e+004
4.135310e+003, 3.581760e+004
4.137238e+003, 3.636410e+004
4.139167e+003, 3.687214e+004
4.141095e+003, 3.758690e+004
4.143023e+003, 3.817671e+004
4.144952e+003, 3.857446e+004
4.146881e+003, 3.896418e+004
4.148809e+003, 3.939439e+004
4.150737e+003, 3.994960e+004
4.152666e+003, 4.044448e+004
4.154595e+003, 4.084888e+004
4.156523e+003, 4.117579e+004
4.158451e+003, 4.147312e+004
4.160380e+003, 4.179071e+004
4.162309e+003, 4.205638e+004
4.164237e+003, 4.226966e+004
4.166165e+003, 4.251205e+004
4.168094e+003, 4.266031e+004
4.170022e+003, 4.261695e+004
4.171951e+003, 4.248338e+004
4.173879e+003, 4.231648e+004
4.175808e+003, 4.231437e+004
4.177736e+003, 4.231247e+004
4.179665e+003, 4.222145e+004
4.181593e+003, 4.214034e+004
4.183521e+003, 4.205617e+004
4.185450e+003, 4.192506e+004
4.187378e+003, 4.178081e+004
4.189307e+003, 4.161738e+004
4.191235e+003, 4.158079e+004
4.193164e+003, 4.160315e+004
4.195092e+003, 4.159648e+004
4.197021e+003, 4.159226e+004
4.198949e+003, 4.161072e+004
4.200878e+003, 4.175933e+004
4.202806e+003, 4.195936e+004
4.204734e+003, 4.207440e+004
4.206663e+003, 4.237681e+004
4.208592e+003, 4.287579e+004
4.210520e+003, 4.351409e+004
4.212448e+003, 4.421294e+004
4.214377e+003, 4.491088e+004
4.216306e+003, 4.579582e+004
4.218234e+003, 4.682549e+004
4.220162e+003, 4.781200e+004
4.222091e+003, 4.901884e+004
4.224020e+003, 5.051554e+004
4.225948e+003, 5.195902e+004
4.227876e+003, 5.344361e+004
4.229805e+003, 5.509673e+004
4.231733e+003, 5.692364e+004
4.233662e+003, 5.890108e+004
4.235590e+003, 6.079005e+004
4.237519e+003, 6.272900e+004
##END=



