##NAMES=Barbosalite
##RRUFFID=R070358
##IDEAL CHEMISTRY=Fe^2+^Fe^3+^_2_(PO_4_)_2_(OH)_2_
##LOCALITY=Bull Moose mine, Custer, Custer District, Custer County, South Dakota, USA
##OWNER=RRUFF
##SOURCE=Michael Scott
##DESCRIPTION=Dark blue to black massive and with tabular crystals in vugs, associated with pyrite
##STATUS=The identification of this mineral is confirmed by single-crystal X-ray diffraction and chemical analysis
##URL=https://www.rruff.net/odr/rruff_sample/R070358
##MEASURED CHEMISTRY=(Fe^2+^_0.97_Mn_0.03_)Fe^3+^_2.00_(P_1.00_O_4_)_2_((OH)_1.89_F_0.11_) ; OH estimated by charge balance
##DIFFRACTION SAMPLE DESCRIPTION=Single crystal, powder profile is calculated
##CELL PARAMETERS=a: 7.297 b: 7.476 c: 7.389 alpha: 90 beta: 118.507 gamma: 90 volume: 354.3 crystal system: monoclinic
##FILETYPE=Raman RAW
##RAMAN WAVELENGTH=785

193.6843, 3773.282
195.6128, 3811.799
197.5413, 3837.185
199.4697, 3845.932
201.3982, 3847.578
203.3267, 3841.734
205.2551, 3836.827
207.1836, 3832.452
209.1121, 3829.943
211.0405, 3832.896
212.9690, 3842.708
214.8975, 3854.586
216.8259, 3866.731
218.7544, 3886.238
220.6829, 3914.341
222.6113, 3949.716
224.5398, 3991.589
226.4683, 4040.026
228.3967, 4092.458
230.3252, 4152.878
232.2537, 4232.471
234.1821, 4332.639
236.1106, 4434.632
238.0391, 4533.660
239.9675, 4633.241
241.8960, 4734.646
243.8245, 4836.400
245.7529, 4939.823
247.6814, 5042.392
249.6099, 5141.132
251.5383, 5238.153
253.4668, 5311.942
255.3953, 5342.235
257.3237, 5363.323
259.2522, 5381.294
261.1807, 5401.582
263.1091, 5428.251
265.0376, 5454.896
266.9661, 5472.143
268.8945, 5482.586
270.8230, 5502.939
272.7515, 5518.871
274.6799, 5549.491
276.6084, 5599.835
278.5369, 5670.718
280.4653, 5764.949
282.3938, 5872.373
284.3223, 5982.130
286.2507, 6098.208
288.1792, 6253.546
290.1077, 6454.367
292.0361, 6631.570
293.9646, 6769.472
295.8931, 6928.137
297.8215, 7156.474
299.7500, 7380.626
301.6785, 7553.637
303.6069, 7683.800
305.5354, 7801.208
307.4639, 7906.033
309.3923, 7955.327
311.3208, 7926.517
313.2493, 7861.743
315.1777, 7775.155
317.1062, 7673.486
319.0347, 7544.227
320.9631, 7409.876
322.8916, 7287.902
324.8201, 7183.375
326.7485, 7104.209
328.6770, 7054.430
330.6055, 7003.993
332.5340, 6932.986
334.4624, 6887.815
336.3909, 6893.860
338.3194, 6908.479
340.2478, 6926.864
342.1763, 6919.904
344.1048, 6850.599
346.0332, 6728.759
347.9617, 6617.085
349.8902, 6531.825
351.8186, 6435.229
353.7471, 6326.463
355.6756, 6209.140
357.6040, 6082.588
359.5325, 5952.825
361.4610, 5821.263
363.3894, 5685.143
365.3179, 5540.135
367.2464, 5393.773
369.1748, 5279.473
371.1033, 5204.701
373.0318, 5129.094
374.9602, 5058.097
376.8887, 4971.582
378.8172, 4850.216
380.7456, 4732.995
382.6741, 4645.659
384.6026, 4568.968
386.5310, 4484.029
388.4595, 4395.532
390.3880, 4307.687
392.3164, 4218.778
394.2449, 4135.103
396.1734, 4058.972
398.1018, 3985.155
400.0303, 3910.953
401.9588, 3839.425
403.8872, 3766.495
405.8157, 3702.037
407.7442, 3661.461
409.6726, 3636.506
411.6011, 3599.166
413.5296, 3552.422
415.4580, 3521.540
417.3865, 3509.472
419.3150, 3508.844
421.2434, 3524.941
423.1719, 3539.579
425.1004, 3542.596
427.0288, 3552.833
428.9573, 3583.602
430.8858, 3622.776
432.8142, 3656.871
434.7427, 3690.883
436.6712, 3734.952
438.5996, 3789.163
440.5281, 3842.145
442.4566, 3881.938
444.3850, 3945.404
446.3135, 4058.379
448.2420, 4159.070
450.1704, 4223.953
452.0989, 4278.388
454.0274, 4343.500
455.9558, 4403.124
457.8843, 4432.555
459.8128, 4440.542
461.7412, 4466.847
463.6697, 4518.791
465.5982, 4542.129
467.5266, 4530.956
469.4551, 4508.649
471.3836, 4473.896
473.3120, 4438.993
475.2405, 4407.283
477.1690, 4377.439
479.0974, 4349.769
481.0259, 4320.206
482.9544, 4284.265
484.8828, 4255.583
486.8113, 4254.962
488.7398, 4272.534
490.6682, 4266.116
492.5967, 4236.891
494.5252, 4202.510
496.4536, 4165.825
498.3821, 4124.355
500.3106, 4079.503
502.2390, 4023.952
504.1675, 3950.017
506.0960, 3868.041
508.0244, 3790.702
509.9529, 3713.321
511.8814, 3624.706
513.8098, 3533.770
515.7383, 3452.605
517.6667, 3373.258
519.5952, 3295.043
521.5237, 3222.268
523.4521, 3161.426
525.3806, 3112.935
527.3091, 3066.524
529.2375, 3021.430
531.1660, 2980.070
533.0945, 2938.837
535.0229, 2903.958
536.9514, 2888.335
538.8799, 2891.383
540.8083, 2894.115
542.7368, 2887.444
544.6653, 2872.116
546.5938, 2852.850
548.5222, 2845.044
550.4507, 2848.654
552.3792, 2859.057
554.3076, 2876.466
556.2361, 2898.994
558.1646, 2930.806
560.0930, 2953.159
562.0215, 2952.331
563.9500, 2962.767
565.8784, 3004.797
567.8069, 3053.746
569.7354, 3089.541
571.6638, 3116.471
573.5923, 3145.832
575.5208, 3182.055
577.4493, 3234.565
579.3777, 3305.544
581.3062, 3346.167
583.2347, 3341.610
585.1631, 3338.660
587.0916, 3360.210
589.0201, 3387.246
590.9485, 3409.959
592.8770, 3419.444
594.8055, 3400.912
596.7339, 3369.874
598.6624, 3353.877
600.5909, 3338.633
602.5193, 3300.569
604.4478, 3256.284
606.3763, 3220.231
608.3047, 3183.523
610.2332, 3151.887
612.1617, 3131.487
614.0901, 3107.077
616.0186, 3069.225
617.9471, 3026.672
619.8755, 2986.292
621.8040, 2951.763
623.7325, 2916.866
625.6609, 2891.815
627.5894, 2891.427
629.5179, 2880.961
631.4464, 2830.258
633.3748, 2777.198
635.3033, 2756.845
637.2318, 2749.244
639.1602, 2734.901
641.0887, 2715.109
643.0172, 2698.266
644.9456, 2690.730
646.8741, 2692.214
648.8026, 2696.097
650.7310, 2696.960
652.6595, 2698.141
654.5880, 2689.532
656.5164, 2663.088
658.4449, 2643.991
660.3734, 2641.554
662.3018, 2646.542
664.2303, 2653.003
666.1588, 2654.010
668.0872, 2652.916
670.0157, 2651.947
671.9442, 2643.501
673.8726, 2624.291
675.8011, 2613.778
677.7296, 2636.652
679.6580, 2671.585
681.5865, 2679.889
683.5150, 2664.404
685.4434, 2641.089
687.3719, 2621.216
689.3004, 2617.023
691.2288, 2620.019
693.1573, 2615.544
695.0858, 2612.481
697.0142, 2620.222
698.9427, 2624.696
700.8712, 2611.967
702.7996, 2589.575
704.7281, 2567.029
706.6566, 2544.727
708.5850, 2541.173
710.5135, 2549.903
712.4420, 2540.002
714.3704, 2523.425
716.2989, 2509.287
718.2274, 2490.854
720.1558, 2463.062
722.0843, 2438.271
724.0128, 2434.767
725.9412, 2434.038
727.8697, 2416.476
729.7982, 2406.730
731.7266, 2415.302
733.6551, 2417.938
735.5836, 2402.079
737.5120, 2374.441
739.4405, 2354.133
741.3690, 2350.772
743.2974, 2350.164
745.2259, 2341.684
747.1544, 2334.521
749.0828, 2328.022
751.0113, 2310.422
752.9398, 2286.932
754.8682, 2271.041
756.7967, 2266.766
758.7252, 2267.594
760.6536, 2265.774
762.5821, 2254.908
764.5106, 2232.106
766.4390, 2216.767
768.3675, 2222.090
770.2960, 2226.826
772.2244, 2216.145
774.1529, 2195.405
776.0814, 2179.421
778.0098, 2180.460
779.9383, 2186.633
781.8668, 2186.604
783.7952, 2184.181
785.7237, 2177.216
787.6522, 2160.943
789.5806, 2145.792
791.5091, 2145.198
793.4376, 2153.675
795.3660, 2161.332
797.2945, 2164.570
799.2230, 2163.802
801.1514, 2154.471
803.0799, 2138.993
805.0084, 2128.359
806.9368, 2116.313
808.8653, 2112.513
810.7938, 2132.115
812.7222, 2148.626
814.6507, 2146.364
816.5792, 2134.812
818.5076, 2124.793
820.4361, 2122.765
822.3646, 2121.300
824.2930, 2120.402
826.2215, 2128.677
828.1500, 2135.547
830.0784, 2131.635
832.0069, 2119.302
833.9354, 2102.278
835.8638, 2090.672
837.7923, 2091.060
839.7208, 2089.754
841.6492, 2071.126
843.5777, 2052.335
845.5062, 2055.721
847.4346, 2057.078
849.3631, 2027.468
851.2916, 1996.054
853.2200, 1991.000
855.1485, 1988.396
857.0770, 1974.896
859.0054, 1967.970
860.9339, 1969.077
862.8624, 1966.715
864.7908, 1961.479
866.7193, 1961.940
868.6478, 1968.545
870.5762, 1970.255
872.5047, 1962.343
874.4332, 1953.733
876.3616, 1947.416
878.2901, 1939.298
880.2186, 1931.396
882.1470, 1926.051
884.0755, 1931.485
886.0040, 1945.625
887.9324, 1939.869
889.8609, 1917.773
891.7894, 1907.730
893.7178, 1907.264
895.6463, 1908.075
897.5748, 1910.860
899.5032, 1919.969
901.4317, 1934.831
903.3602, 1938.599
905.2886, 1931.859
907.2171, 1933.139
909.1456, 1939.976
911.0740, 1934.189
913.0025, 1919.044
914.9310, 1910.081
916.8594, 1905.977
918.7879, 1916.367
920.7164, 1942.530
922.6448, 1952.712
924.5733, 1945.244
926.5018, 1944.579
928.4302, 1951.756
930.3587, 1951.968
932.2872, 1944.358
934.2156, 1939.206
936.1441, 1934.765
938.0726, 1938.986
940.0010, 1957.165
941.9295, 1962.468
943.8580, 1947.491
945.7864, 1951.551
947.7149, 1984.279
949.6434, 1994.913
951.5718, 1976.010
953.5003, 1965.057
955.4288, 1963.227
957.3572, 1962.953
959.2857, 1963.928
961.2142, 1971.787
963.1426, 1989.557
965.0711, 2000.309
966.9996, 2002.378
968.9280, 2004.172
970.8565, 2005.205
972.7850, 2009.038
974.7134, 2015.319
976.6419, 2025.863
978.5704, 2042.287
980.4988, 2044.662
982.4273, 2031.623
984.3558, 2035.851
986.2842, 2057.242
988.2127, 2066.109
990.1412, 2064.391
992.0696, 2084.056
993.9981, 2124.252
995.9266, 2161.873
997.8550, 2195.777
999.7835, 2226.052
1001.712, 2255.060
1003.640, 2307.214
1005.569, 2379.419
1007.497, 2457.320
1009.426, 2542.580
1011.354, 2629.008
1013.283, 2711.791
1015.211, 2773.200
1017.140, 2820.006
1019.068, 2882.115
1020.997, 2955.513
1022.925, 3009.391
1024.854, 3042.997
1026.782, 3075.763
1028.710, 3101.851
1030.639, 3109.102
1032.567, 3110.008
1034.496, 3121.260
1036.424, 3126.073
1038.353, 3114.867
1040.281, 3095.677
1042.210, 3059.046
1044.138, 3008.086
1046.067, 2946.478
1047.995, 2875.040
1049.924, 2791.758
1051.852, 2713.042
1053.781, 2651.450
1055.709, 2591.654
1057.637, 2542.740
1059.566, 2515.094
1061.494, 2504.167
1063.423, 2492.238
1065.351, 2466.009
1067.280, 2432.121
1069.208, 2394.583
1071.137, 2365.156
1073.065, 2356.564
1074.994, 2343.286
1076.922, 2303.639
1078.851, 2252.477
1080.779, 2201.186
1082.708, 2163.191
1084.636, 2141.679
1086.565, 2117.932
1088.493, 2089.059
1090.422, 2060.812
1092.350, 2032.082
1094.278, 2012.741
1096.207, 2003.443
1098.135, 1971.330
1100.064, 1917.016
1101.992, 1894.506
1103.921, 1900.675
1105.849, 1894.036
1107.778, 1883.440
1109.706, 1875.268
1111.635, 1855.081
1113.563, 1850.810
1115.492, 1871.486
1117.420, 1871.675
1119.349, 1855.052
1121.277, 1853.252
1123.205, 1859.072
1125.134, 1863.434
1127.062, 1863.561
1128.991, 1862.190
1130.919, 1864.221
1132.848, 1862.071
1134.776, 1858.908
1136.705, 1858.771
1138.633, 1850.548
1140.562, 1824.926
1142.490, 1796.013
1144.419, 1779.729
1146.347, 1762.956
1148.276, 1726.158
1150.204, 1694.650
1152.132, 1697.217
1154.061, 1703.223
1155.989, 1690.096
1157.918, 1667.932
1159.846, 1643.659
1161.775, 1620.382
1163.703, 1595.712
1165.632, 1590.883
1167.560, 1615.464
1169.489, 1622.968
1171.417, 1600.018
1173.346, 1588.920
1175.274, 1605.050
1177.203, 1607.372
1179.131, 1581.661
1181.059, 1563.127
1182.988, 1556.593
1184.916, 1553.752
1186.845, 1559.201
1188.773, 1560.364
1190.702, 1549.517
1192.630, 1542.917
1194.559, 1546.684
1196.487, 1553.117
1198.416, 1554.448
1200.344, 1542.904
1202.273, 1530.489
1204.201, 1525.854
1206.130, 1518.847
1208.058, 1502.867
1209.986, 1493.025
1211.915, 1507.071
1213.843, 1520.960
1215.772, 1511.890
1217.700, 1502.432
1219.629, 1507.772
1221.557, 1521.520
1223.486, 1539.950
1225.414, 1544.601
1227.343, 1533.574
1229.271, 1520.134
1231.200, 1506.557
1233.128, 1491.676
1235.057, 1478.198
1236.985, 1489.941
1238.913, 1515.174
1240.842, 1510.924
1242.770, 1489.483
1244.699, 1483.891
1246.627, 1489.406
1248.556, 1483.397
1250.484, 1473.153
1252.413, 1478.142
1254.341, 1487.632
1256.270, 1499.842
1258.198, 1501.743
1260.127, 1475.155
1262.055, 1464.971
1263.984, 1483.395
1265.912, 1482.079
1267.840, 1457.578
1269.769, 1450.960
1271.697, 1463.884
1273.626, 1488.399
1275.554, 1509.776
1277.483, 1489.737
1279.411, 1459.969
1281.340, 1465.399
1283.268, 1475.381
1285.197, 1464.934
1287.125, 1452.829
1289.054, 1445.124
1290.982, 1448.379
1292.911, 1477.755
1294.839, 1491.569
1296.767, 1464.349
1298.696, 1453.486
1300.624, 1471.812
1302.553, 1483.313
1304.481, 1486.000
1306.410, 1489.390
1308.338, 1495.275
1310.267, 1506.610
1312.195, 1514.184
1314.124, 1497.736
1316.052, 1479.437
1317.981, 1483.368
1319.909, 1487.109
1321.838, 1476.085
1323.766, 1466.408
1325.694, 1464.659
1327.623, 1463.788
1329.551, 1461.746
1331.480, 1462.967
1333.408, 1469.395
1335.337, 1469.132
1337.265, 1461.693
1339.194, 1446.806
1341.122, 1433.464
1343.051, 1455.596
1344.979, 1478.499
1346.908, 1440.287
1348.836, 1407.145
1350.765, 1432.325
1352.693, 1453.362
1354.621, 1446.113
1356.550, 1436.315
1358.478, 1430.313
1360.407, 1419.178
1362.335, 1401.050
1364.264, 1404.336
1366.192, 1423.816
1368.121, 1429.774
1370.049, 1426.553
1371.978, 1421.167
1373.906, 1413.969
1375.835, 1404.179
1377.763, 1393.959
1379.692, 1381.587
1381.620, 1376.601
1383.548, 1384.152
1385.477, 1385.565
1387.405, 1378.098
1389.334, 1364.865
1391.262, 1349.156
1393.191, 1355.553
1395.119, 1370.156
1397.048, 1356.906
1398.976, 1337.955
1400.905, 1341.099
1402.833, 1345.956
1404.762, 1339.029
1406.690, 1332.330
1408.619, 1326.329
1410.547, 1333.112
1412.475, 1354.666
1414.404, 1344.881
1416.332, 1311.984
1418.261, 1313.179
1420.189, 1329.324
1422.118, 1320.772
1424.046, 1309.450
1425.975, 1322.435
1427.903, 1330.031
1429.832, 1311.619
1431.760, 1296.889
1433.689, 1291.690
1435.617, 1285.953
1437.546, 1279.374
1439.474, 1280.976
1441.402, 1284.822
1443.331, 1259.816
1445.259, 1240.453
1447.188, 1283.365
1449.116, 1323.728
1451.045, 1316.180
1452.973, 1304.256
1454.902, 1299.540
1456.830, 1294.837
1458.759, 1291.235
1460.687, 1269.130
1462.616, 1237.609
1464.544, 1244.403
1466.473, 1263.836
1468.401, 1260.479
1470.329, 1254.494
1472.258, 1261.964
1474.186, 1261.017
1476.115, 1240.096
1478.043, 1225.724
1479.972, 1220.361
1481.900, 1219.339
1483.829, 1221.745
1485.757, 1225.197
1487.686, 1228.264
1489.614, 1231.442
1491.543, 1228.621
1493.471, 1210.800
1495.400, 1205.999
1497.328, 1226.451
1499.256, 1226.807
1501.185, 1204.774
1503.113, 1213.525
1505.042, 1235.337
1506.970, 1218.616
1508.899, 1196.453
1510.827, 1206.701
1512.756, 1212.615
1514.684, 1198.176
1516.613, 1194.523
1518.541, 1207.845
1520.470, 1207.815
1522.398, 1195.857
1524.327, 1179.359
1526.255, 1167.882
1528.183, 1184.212
1530.112, 1197.894
1532.040, 1186.776
1533.969, 1183.262
1535.897, 1196.099
1537.826, 1185.929
1539.754, 1154.363
1541.683, 1140.197
1543.611, 1137.118
1545.540, 1135.690
1547.468, 1133.686
1549.397, 1128.235
1551.325, 1123.607
1553.254, 1120.108
1555.182, 1122.556
1557.110, 1130.395
1559.039, 1135.101
1560.967, 1136.289
1562.896, 1131.785
1564.824, 1127.123
1566.753, 1125.011
1568.681, 1128.991
1570.610, 1145.401
1572.538, 1145.514
1574.467, 1128.995
1576.395, 1111.528
1578.324, 1101.024
1580.252, 1121.094
1582.181, 1138.712
1584.109, 1120.630
1586.037, 1104.686
1587.966, 1103.749
1589.894, 1100.588
1591.823, 1095.360
1593.751, 1104.193
1595.680, 1112.949
1597.608, 1087.505
1599.537, 1065.895
1601.465, 1081.773
1603.394, 1092.304
1605.322, 1086.582
1607.251, 1073.527
1609.179, 1055.650
1611.108, 1051.177
1613.036, 1057.001
1614.964, 1073.907
1616.893, 1088.557
1618.821, 1095.321
1620.750, 1094.464
1622.678, 1084.270
1624.607, 1085.888
1626.535, 1091.857
1628.464, 1069.933
1630.392, 1051.222
1632.321, 1070.861
1634.249, 1070.649
1636.178, 1020.515
1638.106, 1018.567
1640.035, 1063.573
1641.963, 1065.684
1643.891, 1046.813
1645.820, 1036.773
1647.748, 1031.727
1649.677, 1031.013
1651.605, 1030.310
1653.534, 1028.840
1655.462, 1024.226
1657.391, 1019.819
1659.319, 1030.242
1661.248, 1037.296
1663.176, 1023.209
1665.105, 1009.113
1667.033, 998.9256
1668.962, 1005.444
1670.890, 1023.233
1672.818, 1024.434
1674.747, 1018.371
1676.675, 1017.479
1678.604, 1008.855
1680.532, 986.3464
1682.461, 972.4727
1684.389, 968.5744
1686.318, 968.4009
1688.246, 968.5659
1690.175, 959.6985
1692.103, 959.0432
1694.032, 981.7766
1695.960, 981.9190
1697.889, 958.8033
1699.817, 952.8544
1701.745, 960.7274
1703.674, 988.8641
1705.602, 1002.313
1707.531, 968.4792
1709.459, 941.6039
1711.388, 926.4442
1713.316, 932.7342
1715.245, 947.6219
1717.173, 947.0200
1719.102, 944.8642
1721.030, 959.6102
1722.959, 944.6019
1724.887, 895.4834
1726.816, 900.1906
1728.744, 926.6627
1730.672, 911.9047
1732.601, 890.9106
1734.529, 879.6013
1736.458, 879.4211
1738.386, 890.5010
1740.315, 900.1709
1742.243, 907.8862
1744.172, 914.5570
1746.100, 915.6039
1748.029, 904.3483
1749.957, 900.6160
1751.886, 905.6176
1753.814, 904.8230
1755.743, 900.5744
1757.671, 893.5218
1759.599, 891.3376
1761.528, 899.7703
1763.456, 904.6153
1765.385, 903.2135
1767.313, 868.9386
1769.242, 837.4473
1771.170, 854.2586
1773.099, 872.8962
1775.027, 880.0386
1776.956, 877.4564
1778.884, 868.4736
1780.813, 863.5670
1782.741, 858.6913
1784.670, 848.9027
1786.598, 846.1006
1788.526, 853.0289
1790.455, 840.7695
1792.383, 821.1638
1794.312, 820.6047
1796.240, 829.5431
1798.169, 846.0775
1800.097, 852.0048
1802.026, 846.8430
1803.954, 852.6199
1805.883, 858.7686
1807.811, 847.4965
1809.740, 839.7506
1811.668, 841.7391
1813.597, 832.1563
1815.525, 815.8927
1817.453, 814.3210
1819.382, 814.9668
1821.310, 808.6404
1823.239, 801.0926
1825.167, 792.6270
1827.096, 774.6184
1829.024, 763.6684
1830.953, 795.1271
1832.881, 820.9247
1834.810, 823.0980
1836.738, 824.1130
1838.667, 822.6473
1840.595, 806.0102
1842.524, 792.2915
1844.452, 804.8344
1846.380, 797.3337
1848.309, 766.8499
1850.237, 762.8097
1852.166, 770.5769
1854.094, 770.0123
1856.023, 766.3661
1857.951, 761.9863
1859.880, 761.3998
1861.808, 761.7045
1863.737, 757.5335
1865.665, 750.6586
1867.594, 734.6172
1869.522, 734.4203
1871.451, 749.9680
1873.379, 751.2127
1875.307, 746.8967
1877.236, 736.8391
1879.164, 738.4344
1881.093, 762.2786
1883.021, 765.6150
1884.950, 753.6664
1886.878, 729.7377
1888.807, 715.6031
1890.735, 720.5156
1892.664, 723.4925
1894.592, 723.1902
1896.521, 709.5959
1898.449, 705.1641
1900.378, 721.4202
1902.306, 719.4888
1904.234, 704.1572
1906.163, 715.6714
1908.091, 730.8181
1910.020, 734.4420
1911.948, 727.3912
1913.877, 712.8346
1915.805, 711.0131
1917.734, 715.6468
1919.662, 728.7957
1921.591, 723.2213
1923.519, 696.8311
1925.448, 699.6422
1927.376, 710.7961
1929.305, 692.6283
1931.233, 677.9272
1933.161, 676.0189
1935.090, 669.2409
1937.018, 664.6306
1938.947, 691.6791
1940.875, 694.1098
1942.804, 640.6868
1944.732, 677.3508
1946.661, 757.9473
1948.589, 724.1155
1950.518, 680.3875
1952.446, 684.1967
1954.375, 660.3505
1956.303, 622.5168
1958.232, 619.3079
1960.160, 628.3033
1962.089, 644.3723
1964.017, 656.0552
1965.945, 660.8912
1967.874, 659.0894
1969.802, 653.3227
1971.731, 639.1896
1973.659, 633.4470
1975.588, 631.5984
1977.516, 625.5804
1979.445, 617.6261
1981.373, 599.8743
1983.302, 607.6866
1985.230, 628.5736
1987.159, 615.1910
1989.087, 602.4931
1991.016, 602.4155
1992.944, 616.4985
1994.872, 637.9879
1996.801, 636.1704
1998.729, 630.2892
2000.658, 619.9198
2002.586, 611.5391
2004.515, 609.8690
2006.443, 603.6647
2008.372, 594.2704
2010.300, 578.3040
2012.229, 570.4805
2014.157, 570.4724
2016.086, 566.2116
2018.014, 572.8034
2019.943, 599.0082
2021.871, 597.1204
2023.799, 579.8798
2025.728, 601.9526
2027.656, 615.2805
2029.585, 598.2916
2031.513, 578.7160
2033.442, 567.9810
2035.370, 576.7207
2037.299, 582.5648
2039.227, 585.5218
2041.156, 581.8038
2043.084, 572.5292
2045.013, 566.0164
2046.941, 565.9929
2048.869, 569.2022
2050.798, 557.8458
2052.726, 545.4628
2054.655, 537.8435
2056.583, 544.7089
2058.512, 562.7427
2060.440, 551.8542
2062.369, 539.4419
2064.297, 553.2149
2066.226, 557.2382
2068.154, 551.9410
2070.083, 556.6945
2072.011, 557.0960
2073.940, 539.6743
2075.868, 539.9114
2077.797, 549.0715
2079.725, 547.1017
2081.654, 547.5399
2083.582, 555.4170
2085.510, 544.7108
2087.439, 531.5631
2089.367, 542.7186
2091.296, 541.3064
2093.224, 521.2926
2095.153, 523.9561
2097.081, 529.0048
2099.010, 519.8719
2100.938, 513.9250
2102.867, 510.2713
2104.795, 508.9403
2106.724, 507.3339
2108.652, 502.7027
2110.581, 507.4038
2112.509, 512.7830
2114.438, 502.0089
2116.366, 493.6842
2118.294, 492.6176
2120.223, 489.6687
2122.151, 488.7529
2124.080, 494.1800
2126.008, 496.1760
2127.937, 494.1256
2129.865, 490.2968
2131.794, 485.3493
2133.722, 479.1538
2135.651, 483.4376
2137.579, 489.9246
2139.508, 483.1479
2141.436, 473.2674
2143.365, 463.3026
2145.293, 449.8843
2147.221, 444.1434
2149.150, 455.3996
2151.078, 453.5142
2153.007, 445.5981
2154.935, 454.1054
2156.864, 460.7981
2158.792, 460.3044
2160.721, 451.6527
2162.649, 443.2477
2164.578, 447.9310
2166.506, 446.2528
2168.435, 435.9421
2170.363, 428.6176
2172.292, 423.4501
2174.220, 420.3069
2176.148, 434.2892
2178.077, 449.7721
2180.005, 453.3732
2181.934, 446.3522
2183.862, 433.6623
2185.791, 442.0220
2187.719, 448.0053
2189.648, 437.3401
2191.576, 428.4570
2193.505, 422.7868
2195.433, 425.2232
2197.362, 428.9439
2199.290, 432.9510
2201.219, 414.7764
2203.147, 400.2821
2205.075, 402.6784
2207.004, 404.5027
2208.932, 411.6487
2210.861, 417.6243
2212.789, 416.8047
2214.718, 413.6344
2216.646, 416.8305
2218.575, 413.7211
2220.503, 398.4351
2222.432, 397.9641
2224.360, 406.0336
2226.289, 419.6706
2228.217, 417.9255
2230.146, 405.0119
2232.074, 398.1749
2234.002, 392.2758
2235.931, 389.4533
2237.859, 382.6071
2239.788, 379.1676
2241.716, 386.4818
2243.645, 385.1166
2245.573, 382.5202
2247.502, 397.4546
2249.430, 405.4424
2251.359, 401.8043
2253.287, 384.7881
2255.216, 371.6277
2257.144, 372.5382
2259.073, 365.7248
2261.001, 353.6338
2262.929, 352.7201
2264.858, 355.4638
2266.786, 356.0134
2268.715, 360.6955
2270.643, 371.2090
2272.572, 376.6218
2274.500, 352.5647
2276.429, 330.6754
2278.357, 342.4848
2280.286, 350.5150
2282.214, 348.5925
2284.143, 340.0335
2286.071, 330.0278
2288.000, 321.4550
2289.928, 331.4258
2291.856, 339.7604
2293.785, 325.5559
2295.713, 325.6996
2297.642, 331.4910
2299.570, 337.7075
2301.499, 331.4895
2303.427, 313.9904
2305.356, 320.9184
2307.284, 331.6042
2309.213, 326.0354
2311.141, 322.6300
2313.070, 317.5942
2314.998, 308.5173
2316.927, 317.1834
2318.855, 324.6437
2320.783, 307.0402
2322.712, 296.2711
2324.640, 296.0810
2326.569, 310.8159
2328.497, 314.2169
2330.426, 313.8938
2332.354, 327.9019
2334.283, 315.9853
2336.211, 289.6987
2338.140, 280.9984
2340.068, 283.1875
2341.997, 289.6053
2343.925, 298.0696
2345.854, 309.4844
2347.782, 301.4982
2349.710, 283.3623
2351.639, 270.9732
2353.567, 303.5936
2355.496, 311.7170
2357.424, 288.2772
2359.353, 272.1170
2361.281, 282.2887
2363.210, 330.6203
2365.138, 305.7585
2367.067, 270.5701
2368.995, 276.6477
2370.924, 283.6581
2372.852, 277.3341
2374.781, 278.6860
2376.709, 275.0355
2378.637, 263.2412
2380.566, 264.5594
2382.494, 261.0791
2384.423, 259.6064
2386.351, 277.1664
2388.280, 279.9165
2390.208, 271.8980
2392.137, 275.4164
2394.065, 268.4158
2395.994, 262.2759
2397.922, 275.0603
2399.851, 278.5503
2401.779, 261.6971
2403.708, 256.5843
2405.636, 260.3976
2407.564, 254.3040
2409.493, 241.6345
2411.421, 235.1247
2413.350, 242.2776
2415.278, 256.6693
2417.207, 257.5222
2419.135, 249.7201
2421.064, 246.3574
2422.992, 248.7290
2424.921, 238.8876
2426.849, 238.9405
2428.778, 253.5155
2430.706, 249.1803
2432.635, 236.4153
2434.563, 230.4909
2436.491, 232.0615
2438.420, 235.9093
2440.348, 236.5022
2442.277, 234.1376
2444.205, 223.6307
2446.134, 206.9928
2448.062, 214.5560
2449.991, 220.0282
2451.919, 215.5306
2453.848, 210.0687
2455.776, 206.7402
2457.705, 212.3611
2459.633, 214.5425
2461.562, 212.7770
2463.490, 208.7995
2465.418, 213.5204
2467.347, 214.1164
2469.275, 202.0036
2471.204, 191.6716
2473.132, 185.4240
2475.061, 182.3384
2476.989, 190.5226
2478.918, 199.1206
2480.846, 201.9201
2482.775, 194.8655
2484.703, 187.4416
2486.632, 200.4857
2488.560, 197.1820
2490.489, 184.2725
2492.417, 179.7256
2494.345, 185.8146
2496.274, 189.8436
2498.202, 198.5484
2500.131, 185.8933
2502.059, 162.8091
2503.988, 162.4091
2505.916, 175.1611
2507.845, 188.8519
2509.773, 181.6729
2511.702, 181.9576
2513.630, 186.7987
2515.559, 171.7535
2517.487, 163.1231
2519.416, 162.6466
2521.344, 166.6288
2523.272, 170.3578
2525.201, 176.9611
2527.129, 183.9762
2529.058, 176.1226
2530.986, 168.9035
2532.915, 189.0164
2534.843, 185.4383
2536.772, 175.3230
2538.700, 175.8037
2540.629, 169.4026
2542.557, 166.9861
2544.486, 154.8476
2546.414, 154.9496
2548.343, 168.8203
2550.271, 173.6891
2552.199, 165.1428
2554.128, 153.1051
2556.056, 139.4832
2557.985, 153.1162
2559.913, 170.1769
2561.842, 156.7410
2563.770, 151.8957
2565.699, 151.5457
2567.627, 151.1075
2569.556, 147.2792
2571.484, 143.0491
2573.413, 145.4437
2575.341, 148.9100
2577.270, 147.0704
2579.198, 130.0826
2581.126, 131.7204
2583.055, 136.7407
2584.983, 125.1787
2586.912, 127.5028
2588.840, 132.3997
2590.769, 127.8189
2592.697, 127.5596
2594.626, 131.5058
2596.554, 139.1588
2598.483, 122.6020
2600.411, 109.3145
2602.340, 116.4692
2604.268, 117.6941
2606.197, 123.8913
2608.125, 138.4924
2610.053, 128.6140
2611.982, 120.2515
2613.910, 122.7683
2615.839, 113.2075
2617.767, 114.4338
2619.696, 131.3218
2621.624, 125.9822
2623.553, 112.7093
2625.481, 106.9023
2627.410, 141.8400
2629.338, 141.5710
2631.267, 108.1635
2633.195, 107.1342
2635.124, 105.6468
2637.052, 102.5258
2638.980, 103.6249
2640.909, 105.5881
2642.837, 111.0653
2644.766, 123.1691
2646.694, 108.5404
2648.623, 91.81380
2650.551, 102.0477
2652.480, 105.0464
2654.408, 102.6813
2656.337, 107.7946
2658.265, 101.6618
2660.194, 96.93562
2662.122, 96.76264
2664.051, 87.02069
2665.979, 83.50976
2667.907, 85.39841
2669.836, 92.05351
2671.764, 85.97230
2673.693, 74.94808
2675.621, 86.97399
2677.550, 88.40955
2679.478, 80.29895
2681.407, 77.66358
2683.335, 86.00378
2685.264, 90.82241
2687.192, 86.53522
2689.121, 99.67234
2691.049, 96.89764
2692.978, 64.64390
2694.906, 72.79482
2696.834, 80.36872
2698.763, 71.77990
2700.691, 83.95741
2702.620, 86.07429
2704.548, 77.05608
2706.477, 69.89590
2708.405, 73.88182
2710.334, 83.60567
2712.262, 89.66082
2714.191, 83.46735
2716.119, 71.85410
2718.048, 60.27843
2719.976, 63.04248
2721.905, 75.14153
2723.833, 83.42940
2725.761, 68.25008
2727.690, 53.81914
2729.618, 47.97724
2731.547, 69.58275
2733.475, 68.10410
2735.404, 45.28242
2737.332, 52.92771
2739.261, 66.93027
2741.189, 77.79614
2743.118, 64.25114
2745.046, 61.62164
2746.975, 64.78918
2748.903, 70.77740
2750.832, 70.10616
2752.760, 56.81250
2754.688, 36.63913
2756.617, 48.02468
2758.545, 59.88659
2760.474, 50.48869
2762.402, 36.87278
2764.331, 34.40704
2766.259, 43.23931
2768.188, 50.03309
2770.116, 47.15847
2772.045, 47.17433
2773.973, 54.51151
2775.902, 47.71043
2777.830, 34.46741
2779.759, 35.71654
2781.687, 38.94736
2783.615, 32.83072
2785.544, 24.78004
2787.472, 41.28215
2789.401, 45.68348
2791.329, 36.74083
2793.258, 48.64978
2795.186, 57.43287
2797.115, 43.62870
2799.043, 22.01864
2800.972, 23.46870
2802.900, 35.33582
2804.829, 34.83383
2806.757, 32.70956
2808.686, 45.95766
2810.614, 47.10858
2812.542, 46.00005
2814.471, 38.12469
2816.399, 38.82343
2818.328, 29.64294
2820.256, 41.50709
2822.185, 54.36228
2824.113, 34.39822
2826.042, 31.48416
2827.970, 40.01185
2829.899, 49.92090
2831.827, 31.54033
2833.756, 27.68543
2835.684, 17.39707
2837.613, 13.49158
2839.541, 30.89106
2841.469, 34.43663
2843.398, 16.62736
2845.326, 17.69179
2847.255, 15.15227
2849.183, 6.004678
2851.112, 12.69192
2853.040, 28.41720
2854.969, 17.00946
2856.897, 5.541076
2858.826, 12.21239
2860.754, 11.79336
2862.683, 13.97290
2864.611, 31.33259
2866.540, 28.36501
2868.468, 18.49432
2870.396, 20.06997
2872.325, 26.55207
2874.253, 29.77291
2876.182, 31.74010
2878.110, 3.717358
2880.039, 8.635254
2881.967, 19.10679
2883.896, 23.31946
2885.824, 15.95848
2887.753, 18.65712
2889.681, 27.13946
2891.610, 5.304830
2893.538, -6.315879
2895.467, 4.152530
2897.395, 4.365259
2899.323, 6.451360
2901.252, -1.435303
2903.180, 5.628555
2905.109, 14.51366
2907.037, 14.94240
2908.966, 16.63776
2910.894, 18.55270
2912.823, 32.72558
2914.751, 24.57025
2916.680, 7.719167
2918.608, 11.90560
2920.537, 10.12648
2922.465, 12.19333
2924.394, 28.08444
2926.322, 9.270493
2928.250, -4.320156
2930.179, -5.562019
2932.107, 10.19836
2934.036, 14.11586
2935.964, 10.65947
2937.893, -4.251564
2939.821, 6.214105
2941.750, 6.217476
2943.678, -6.404526
2945.607, -9.367686
2947.535, -0.6531213
2949.464, 9.592799
2951.392, 13.57938
2953.321, -1.3193040E-02
2955.249, 8.357018
2957.177, 19.92115
2959.106, -3.493542
2961.034, -7.929386
2962.963, -5.805429
2964.891, -7.127282
2966.820, -12.58676
2968.748, -6.0528539E-02
2970.677, 4.534363
2972.605, -6.076134
2974.534, -5.574172
2976.462, -13.42834
2978.391, -14.22517
2980.319, -6.658543
2982.248, -6.562781
2984.176, -0.7463071
2986.104, 5.677277
2988.033, 14.31003
2989.961, 12.78743
2991.890, 4.000249
2993.818, 0.5124010
2995.747, -2.348975
2997.675, 7.038356
2999.604, 17.30945
3001.532, 4.476122
3003.461, 1.425692
3005.389, -2.001667
3007.318, -8.572715
3009.246, -15.05754
3011.175, -7.571310
3013.103, 4.541052
3015.031, 4.404814
3016.960, -5.411895
3018.888, 18.79525
3020.817, 28.30639
3022.745, -7.854980
3024.674, -26.03394
3026.602, -22.32253
3028.531, -10.69313
3030.459, -21.22144
3032.388, -6.352088
3034.316, -15.04134
3036.245, -36.02319
3038.173, -19.20507
3040.102, -5.908823
3042.030, -12.43007
3043.958, -27.52774
3045.887, -8.078820
3047.815, -6.316864
3049.744, -1.689455
3051.672, 9.039343
3053.601, -14.96399
3055.529, -29.24419
3057.458, -25.34031
3059.386, -8.982913
3061.315, -15.97095
3063.243, -23.60049
3065.172, -22.51491
3067.100, -8.349589
3069.029, -30.50363
3070.957, -39.77644
3072.885, -33.08744
3074.814, -24.41520
3076.742, -15.36951
3078.671, -12.78832
3080.599, -16.16252
3082.528, -22.05531
3084.456, -27.02294
3086.385, -28.42015
3088.313, -25.88167
3090.242, -20.90037
3092.170, -8.035150
3094.099, -1.936859
3096.027, -2.531469
3097.956, 10.04349
3099.884, 8.784095
3101.813, 7.181984
3103.741, 6.048354
3105.669, -15.32083
3107.598, -32.79583
3109.526, -35.70332
3111.455, -29.26675
3113.383, -44.97528
3115.312, -43.58455
3117.240, -28.19484
3119.169, -7.698053
3121.097, -12.42663
3123.026, -4.129208
3124.954, -9.305995
3126.883, -29.77078
3128.811, -13.66429
3130.740, -35.81844
3132.668, -44.45593
3134.596, -14.34223
3136.525, -36.34855
3138.453, -45.16964
3140.382, -35.98867
3142.310, -25.67844
3144.239, -35.78342
3146.167, -41.47205
3148.096, -36.79708
3150.024, -26.53365
3151.953, -32.18732
3153.881, -37.10052
3155.810, -31.86195
3157.738, -16.01583
3159.667, -19.13969
3161.595, -32.24151
3163.523, -39.21768
3165.452, -36.02780
3167.380, -26.54949
3169.309, -35.47636
3171.237, -29.75655
3173.166, -20.46412
3175.094, -41.74940
3177.023, -25.27340
3178.951, -7.847059
3180.880, -1.955237
3182.808, -6.396515
3184.737, -7.887433
3186.665, -8.918602
3188.594, -6.848966
3190.522, -5.584059
3192.450, 5.319195
3194.379, -8.851314
3196.307, -23.14300
3198.236, -8.989106
3200.164, -11.70494
3202.093, -27.59758
3204.021, -40.11992
3205.950, -42.05872
3207.878, -17.58096
3209.807, -1.947067
3211.735, -6.995068
3213.664, -22.39435
3215.592, -42.18167
3217.521, -32.41277
3219.449, -22.48213
3221.377, -18.44809
3223.306, -30.60969
3225.234, -40.73370
3227.163, -43.99867
3229.091, -40.28606
3231.020, -34.38779
3232.948, -25.52927
3234.877, -53.06197
3236.805, -60.07386
3238.734, -35.93097
3240.662, -56.66942
3242.591, -53.01266
3244.519, -31.92442
3246.448, -16.10551
3248.376, -12.96258
3250.304, -10.60030
3252.233, -22.63519
3254.161, -28.96889
3256.090, -24.98037
3258.018, -35.02195
3259.947, -44.23853
3261.875, -43.08410
3263.804, -39.76614
3265.732, 2.516050
3267.661, -17.72893
3269.589, -23.25331
3271.518, -4.192911
3273.446, -20.80130
3275.375, -14.68089
3277.303, -22.08779
3279.231, -29.85991
3281.160, -17.78735
3283.088, 4.676180
3285.017, -11.77500
3286.945, -18.66169
3288.874, -8.468714
3290.802, -38.79458
3292.731, -54.62653
3294.659, -40.26598
3296.588, -29.80241
3298.516, -52.05415
3300.445, -27.66064
3302.373, -28.99488
3304.302, -29.14795
3306.230, -18.40431
3308.158, -18.83270
3310.087, -30.95690
3312.015, -29.22257
3313.944, -16.38097
3315.872, -12.02865
3317.801, -27.49059
3319.729, -27.24493
3321.658, -23.43343
3323.586, -27.41702
3325.515, -9.383505
3327.443, -17.40405
3329.372, -36.63581
3331.300, -45.97617
3333.229, -38.65329
3335.157, -24.42301
3337.085, -20.91479
3339.014, -22.00037
3340.942, -24.77324
3342.871, -30.00966
3344.799, -14.50071
3346.728, -11.87919
3348.656, -22.49191
3350.585, -28.49414
3352.513, -7.731375
3354.442, -32.54231
3356.370, -24.92220
3358.299, -11.20858
3360.227, -22.52006
3362.156, -22.05454
3364.084, -27.76952
3366.012, -24.73130
3367.941, -22.27738
3369.869, -33.28301
3371.798, -12.98910
3373.726, -6.110512
3375.655, -10.19800
3377.583, -16.74467
3379.512, -21.10911
3381.440, -39.70623
3383.369, -38.71524
3385.297, -36.86895
3387.226, -36.19453
3389.154, -18.74533
3391.083, -24.67897
3393.011, -40.14010
3394.939, -35.13132
3396.868, -8.678165
3398.796, -23.98887
3400.725, -36.83217
3402.653, -39.67906
3404.582, -27.56740
3406.510, -12.45092
3408.439, -49.96675
3410.367, -34.61778
3412.296, -31.09594
3414.224, -30.47325
3416.153, -15.61926
3418.081, -17.00573
3420.010, -7.936062
3421.938, -25.49268
3423.866, -34.98040
3425.795, -5.552930
3427.723, -8.117974
3429.652, -20.56240
3431.580, -22.64946
3433.509, -19.46009
3435.437, -21.62343
3437.366, -37.05973
3439.294, -9.258890
3441.223, -11.24200
3443.151, -16.96043
3445.080, 5.990034
3447.008, 9.830232
3448.937, -22.44520
3450.865, -40.02468
3452.793, -41.42785
3454.722, -40.25438
3456.650, -41.92278
3458.579, -41.65287
3460.507, -31.95394
3462.436, -14.00880
3464.364, -1.474032
3466.293, -19.19724
3468.221, -35.31636
3470.150, -31.08041
3472.078, -31.83704
3474.007, -41.73086
3475.935, -38.46786
3477.864, -18.81519
3479.792, -42.76038
3481.720, -41.90447
3483.649, -23.79801
3485.577, -38.08870
3487.506, -21.88970
3489.434, -22.36492
3491.363, -27.86408
3493.291, -28.94480
3495.220, -22.93087
3497.148, -8.187972
3499.077, -0.7417495
3501.005, -34.83948
3502.934, -53.45544
3504.862, -27.59253
3506.791, 4.710122
3508.719, -12.88051
3510.647, 3.399222
3512.576, -8.803055
3514.504, -39.75457
3516.433, -29.43406
3518.361, -15.05995
3520.290, -6.183505
3522.218, -7.823320
3524.147, -25.08827
3526.075, -38.98321
3528.004, 21.06381
3529.932, 5.175729
3531.861, 8.602603
3533.789, 1.487263
3535.718, -21.42310
3537.646, -26.08403
3539.574, -6.134272
3541.503, -20.27894
3543.431, -16.67335
3545.360, -5.198997
3547.288, -7.659772
3549.217, -17.98816
3551.145, -31.25201
3553.074, -16.27864
3555.002, -20.50847
3556.931, -29.50217
3558.859, -7.563637
3560.788, -3.109050
3562.716, 21.69320
3564.645, 2.040884
3566.573, -20.59689
3568.501, -25.20144
3570.430, -35.87862
3572.358, -45.82589
3574.287, -30.99188
3576.215, -14.69553
3578.144, -6.044367
3580.072, -8.142187
3582.001, -25.09693
3583.929, -41.94847
3585.858, -7.172582
3587.786, -0.6123551
3589.715, -11.79891
3591.643, -5.825577
3593.572, 0.2521474
3595.500, -11.35180
3597.428, -8.0413401E-02
3599.357, -12.64964
3601.285, -32.61570
3603.214, -28.35993
3605.142, -33.73712
3607.071, -30.45522
3608.999, -17.17027
3610.928, 0.6371266
3612.856, -0.8833541
3614.785, -22.22496
3616.713, 8.130448
3618.642, -16.38164
3620.570, -40.06126
3622.499, -39.77818
3624.427, -26.88307
3626.355, -16.27137
3628.284, -3.626320
3630.212, -43.66919
3632.141, -28.46743
3634.069, -20.86071
3635.998, -24.75077
3637.926, -17.46300
3639.855, -14.30263
3641.783, -1.069807
3643.712, -31.31603
3645.640, -58.79636
3647.569, -40.45562
3649.497, -7.287562
3651.426, -33.47131
3653.354, -4.520419
3655.282, -10.85576
3657.211, -34.69438
3659.139, -50.71219
3661.068, -39.06764
3662.996, -3.272161
3664.925, -19.36867
3666.853, -10.21868
3668.782, -4.862310
3670.710, -8.3607361E-02
3672.639, -9.644886
3674.567, -32.35299
3676.496, -5.449944
3678.424, -52.03393
3680.353, -6.101333
3682.281, 9.282828
3684.209, -5.955013
3686.138, -13.10495
3688.066, -6.488509
3689.995, 7.109104
3691.923, 13.13602
3693.852, 0.4562696
3695.780, -7.882868
3697.709, -7.605051
3699.637, -5.238771
3701.566, 5.9333532E-03
3703.494, -6.458064
3705.423, -19.48345
3707.351, -20.71466
3709.280, -13.55409
3711.208, -15.46026
3713.136, -29.32011
3715.065, -18.30793
3716.993, -24.18653
3718.922, -18.29248
3720.850, -27.60046
3722.779, -24.71080
3724.707, -15.51512
3726.636, -26.26254
3728.564, -3.979986
3730.493, -12.57450
3732.421, -22.72811
3734.350, -40.70467
3736.278, -38.14861
3738.207, -15.45680
3740.135, -7.529265
3742.063, -29.48649
3743.992, 8.033469
3745.920, -17.23615
3747.849, -2.965931
3749.777, -7.740571
3751.706, -27.62021
3753.634, 6.914530
3755.563, -24.97553
3757.491, -0.3633067
3759.420, -39.45231
3761.348, -43.34081
3763.277, -23.18011
3765.205, -10.58964
3767.134, -8.394291
3769.062, -15.18673
3770.990, -8.341290
3772.919, -18.68579
3774.847, 4.232361
3776.776, 6.740215
3778.704, -14.19854
3780.633, -27.42187
3782.561, -27.39972
3784.490, -18.22532
3786.418, -28.11228
3788.347, -6.852765
3790.275, -17.01531
3792.204, -15.28368
3794.132, -6.751231
3796.061, -31.48494
3797.989, -25.23222
3799.917, -42.27552
3801.846, -23.33245
3803.774, -36.86180
3805.703, -47.82794
3807.631, -25.55355
3809.560, -3.771337
3811.488, -26.69991
3813.417, -38.00001
3815.345, -16.91370
3817.274, -12.97000
3819.202, -1.340077
3821.131, -21.13143
3823.059, -42.08453
3824.988, -22.43319
3826.916, 10.34000
3828.844, -33.84629
3830.773, -43.07158
3832.701, -14.71407
3834.630, -5.996560
3836.558, 6.1611619E-02
3838.487, -6.779665
3840.415, -17.74923
3842.344, 5.564865
3844.272, -8.195684
3846.201, 15.20759
3848.129, 1.760843
3850.058, -12.53202
3851.986, -8.696333
3853.915, 11.61187
3855.843, 16.20137
3857.771, -18.95599
3859.700, -43.64114
3861.628, -16.86160
3863.557, -10.61498
3865.485, -18.75134
3867.414, -28.64696
3869.342, -29.21269
3871.271, -33.07516
3873.199, -36.54224
3875.128, -12.77319
3877.056, -11.38240
3878.985, -17.18482
3880.913, -46.43630
3882.842, -36.48746
3884.770, -25.39408
3886.698, -18.06559
3888.627, -8.600486
3890.555, -6.720922
3892.484, -15.45773
3894.412, -9.895167
3896.341, -25.21724
3898.269, 6.407369
3900.198, 7.990245
3902.126, -9.375781
3904.055, -6.987964
3905.983, 12.71090
3907.912, 13.66884
3909.840, -20.08785
3911.769, -15.82164
3913.697, -1.256009
3915.625, -10.44309
3917.554, -16.24723
3919.482, -5.480357
3921.411, 8.688535
3923.339, 6.873347
3925.268, 2.333548
3927.196, 14.04050
3929.125, -9.274540
3931.053, 7.602818
3932.982, 7.589468
3934.910, 0.7234183
3936.839, 10.02606
3938.767, -4.385829
3940.696, -26.39032
3942.624, -31.73795
3944.552, -28.07894
3946.481, -24.47173
3948.409, -21.68646
3950.338, -39.45336
3952.266, -25.78985
3954.195, -43.91480
3956.123, -23.46231
3958.052, -22.95464
3959.980, -46.04229
3961.909, -28.88951
3963.837, 2.562228
3965.766, -47.04642
3967.694, -36.41895
3969.623, 3.868016
3971.551, -24.25587
3973.479, -38.84123
3975.408, -31.27114
3977.336, -18.21069
3979.265, -11.39855
3981.193, -9.900336
3983.122, -10.94342
3985.050, -15.07078
3986.979, -16.12375
3988.907, -0.7183565
3990.836, -11.49333
3992.764, -2.816650
3994.693, 2.606149
3996.621, -5.578826
3998.550, -5.648316
4000.478, 19.46439
4002.406, 2.973565
4004.335, -37.35186
4006.263, -22.56916
4008.192, -20.59238
4010.120, -16.47728
4012.049, -28.89149
4013.977, -13.58229
4015.906, 4.888286
4017.834, -8.136126
4019.763, -19.35338
4021.691, -24.57812
4023.620, -33.75401
4025.548, -38.50230
4027.477, -28.08405
4029.405, -9.537772
4031.333, 1.370057
4033.262, 5.7775591E-02
4035.190, 3.192302
4037.119, -15.59497
4039.047, 6.152322
4040.976, -4.867464
4042.904, -12.20967
4044.833, -13.03725
4046.761, -20.20133
4048.690, -3.413932
4050.618, 13.78538
4052.547, -11.42339
4054.475, -13.87720
4056.404, 5.360352
4058.332, 5.883100
4060.260, -23.81599
4062.189, 27.79941
4064.117, -11.40944
4066.046, -12.49340
4067.974, -3.033227
4069.903, -22.48465
4071.831, -27.74864
4073.760, -0.5261356
4075.688, 15.23299
4077.617, 4.741168
4079.545, 3.960705
4081.474, -8.319143
4083.402, -33.38576
4085.331, -52.04133
4087.259, -36.29738
4089.188, -17.85418
4091.116, -18.73202
4093.044, -6.754765
4094.973, -46.98151
4096.901, -59.83476
4098.830, -22.56558
4100.758, -18.63949
4102.687, -34.41240
4104.615, -29.00823
4106.544, -41.75558
4108.472, -40.26747
4110.401, -38.45642
4112.329, -21.82685
4114.258, 9.445306
4116.186, 6.532176
4118.115, 17.67547
4120.043, -17.32567
4121.972, -50.27581
4123.900, -20.01844
4125.829, -13.67772
4127.757, -8.913792
4129.686, -34.10332
4131.614, -30.70562
4133.542, 7.899377
4135.471, -10.66467
4137.399, -25.62498
4139.328, 1.349687
4141.256, -45.58382
4143.185, -15.24809
4145.113, 7.142340
4147.042, -32.68047
4148.970, -11.18219
4150.898, -11.58183
4152.827, 4.498252
4154.755, -9.138603
4156.684, -16.96198
4158.612, -37.93478
4160.541, -31.61032
4162.469, -25.48985
4164.398, -33.27628
4166.326, -10.87294
4168.255, 12.27264
4170.183, -24.03914
4172.112, -62.71637
4174.040, -34.52955
4175.969, -59.78376
4177.897, -34.57624
4179.826, -50.76807
4181.754, -11.71947
4183.683, -20.85343
4185.611, -34.79015
4187.540, -11.08568
4189.468, -32.92430
4191.396, -15.82995
4193.325, -12.75880
4195.253, -4.867603
4197.182, -9.737381
4199.110, -4.187888
4201.039, -13.79799
4202.967, -27.64324
4204.896, -23.32613
4206.824, 10.26877
4208.752, 19.73319
4210.681, -15.98563
4212.609, -0.5566092
4214.538, 26.81942
4216.466, 2.637115
4218.395, 8.575320
4220.323, -2.8482400E-02
4222.252, -16.44713
4224.180, 11.40288
4226.109, 2.371548
4228.037, -58.36681
4229.966, -5.752863
4231.894, -31.92329
4233.823, -62.70658
4235.751, -7.683817
4237.680, -55.28785
4239.608, -2.801536
4241.537, -30.56814
4243.465, -31.61841
4245.394, -8.207630
4247.322, -27.64513
4249.250, -18.21034
4251.179, -8.562868
4253.107, -23.28437
4255.036, -57.01200
4256.964, -29.94377
4258.893, 0.6226192
4260.821, -24.93949
4262.750, -14.06181
4264.678, -7.312817
4266.606, -1.015567
4268.535, -6.765459
4270.463, -22.90178
4272.392, 4.009319
4274.320, -2.910623
4276.249, -9.675039
4278.177, 1.191976
4280.106, -12.37191
4282.034, -17.49801
4283.963, -16.21009
4285.891, 0.7865242
4287.820, 3.029547
4289.748, -10.65329
4291.677, 5.380389
4293.605, -5.401209
4295.534, -23.93375
4297.462, 23.09376
4299.391, -40.06181
4301.319, -19.41249
4303.248, -27.22815
4305.176, -22.60846
4307.104, -66.63425
4309.033, -31.22212
4310.961, -20.09485
4312.890, -20.00956
4314.818, -37.47855
4316.747, -14.89906
4318.675, -44.80081
4320.604, -61.49873
4322.532, -5.033346
4324.460, -11.71665
4326.389, -31.86819
4328.317, -22.19956
4330.246, 4.738925
4332.174, 8.835827
4334.103, 5.577324
##END=



