##NAMES=Barytolamprophyllite
##RRUFFID=R120087
##IDEAL CHEMISTRY=(BaK)Ti_2_Na_3_Ti(Si_2_O_7_)_2_O_2_(OH)_2_
##LOCALITY=Coyote Peak, Orick, Humboldt County, California, USA
##OWNER=RRUFF
##SOURCE=Michael Scott
##DESCRIPTION=Tabular reddish brown massive, associated with phlogopite, bartonite and R070139 erdite
##STATUS=The identification of this mineral has been confirmed only by single crystal X-ray diffraction
##URL=https://www.rruff.net/odr/rruff_sample/R120087
##DIFFRACTION SAMPLE DESCRIPTION=Single crystal, powder profile is calculated
##CELL PARAMETERS=a: 19.87 b: 7.086 c: 5.392 alpha: 90 beta: 96.56 gamma: 90 volume: 754.2 crystal system: monoclinic
##FILETYPE=Raman RAW
##RAMAN WAVELENGTH=780

7.931860e+001, 0.000000e+000
8.124707e+001, 5.089109e+003
8.317554e+001, 4.713822e+003
8.510400e+001, 4.843646e+003
8.703247e+001, 5.537444e+003
8.896094e+001, 6.203204e+003
9.088940e+001, 6.882917e+003
9.281787e+001, 7.466413e+003
9.474634e+001, 7.712181e+003
9.667480e+001, 7.295372e+003
9.860327e+001, 6.849557e+003
1.005317e+002, 6.425146e+003
1.024602e+002, 6.085723e+003
1.043887e+002, 5.807483e+003
1.063171e+002, 5.578357e+003
1.082456e+002, 5.378729e+003
1.101741e+002, 5.212954e+003
1.121025e+002, 5.087912e+003
1.140310e+002, 4.998513e+003
1.159595e+002, 4.932920e+003
1.178879e+002, 4.880005e+003
1.198164e+002, 4.856613e+003
1.217449e+002, 4.883375e+003
1.236733e+002, 4.925515e+003
1.256018e+002, 4.956728e+003
1.275303e+002, 4.975274e+003
1.294587e+002, 4.987211e+003
1.313872e+002, 4.992103e+003
1.333157e+002, 4.988843e+003
1.352441e+002, 4.964443e+003
1.371726e+002, 4.941854e+003
1.391011e+002, 4.933882e+003
1.410295e+002, 4.943267e+003
1.429580e+002, 4.976596e+003
1.448865e+002, 5.030909e+003
1.468149e+002, 5.118912e+003
1.487434e+002, 5.240925e+003
1.506719e+002, 5.401656e+003
1.526003e+002, 5.610573e+003
1.545288e+002, 5.864831e+003
1.564573e+002, 6.153370e+003
1.583857e+002, 6.486927e+003
1.603142e+002, 6.790728e+003
1.622427e+002, 7.105860e+003
1.641711e+002, 7.319435e+003
1.660996e+002, 7.379071e+003
1.680281e+002, 7.288726e+003
1.699565e+002, 7.050194e+003
1.718850e+002, 6.658480e+003
1.738135e+002, 6.260822e+003
1.757419e+002, 5.848626e+003
1.776704e+002, 5.483301e+003
1.795989e+002, 5.180212e+003
1.815273e+002, 4.939643e+003
1.834558e+002, 4.766894e+003
1.853843e+002, 4.656729e+003
1.873127e+002, 4.586568e+003
1.892412e+002, 4.564565e+003
1.911697e+002, 4.569569e+003
1.930981e+002, 4.596241e+003
1.950266e+002, 4.647595e+003
1.969551e+002, 4.728784e+003
1.988835e+002, 4.837205e+003
2.008120e+002, 4.972828e+003
2.027405e+002, 5.141477e+003
2.046689e+002, 5.326157e+003
2.065974e+002, 5.544944e+003
2.085259e+002, 5.755581e+003
2.104543e+002, 5.944205e+003
2.123828e+002, 6.102556e+003
2.143113e+002, 6.220626e+003
2.162397e+002, 6.301002e+003
2.181682e+002, 6.319946e+003
2.200967e+002, 6.262804e+003
2.220251e+002, 6.166712e+003
2.239536e+002, 6.024584e+003
2.258821e+002, 5.859955e+003
2.278105e+002, 5.691257e+003
2.297390e+002, 5.519735e+003
2.316675e+002, 5.365185e+003
2.335959e+002, 5.222167e+003
2.355244e+002, 5.106970e+003
2.374529e+002, 5.029326e+003
2.393813e+002, 4.972133e+003
2.413098e+002, 4.927713e+003
2.432383e+002, 4.895165e+003
2.451667e+002, 4.875226e+003
2.470952e+002, 4.873235e+003
2.490237e+002, 4.869493e+003
2.509521e+002, 4.866237e+003
2.528806e+002, 4.858415e+003
2.548091e+002, 4.837650e+003
2.567375e+002, 4.817418e+003
2.586660e+002, 4.807480e+003
2.605945e+002, 4.807937e+003
2.625229e+002, 4.819438e+003
2.644514e+002, 4.836155e+003
2.663799e+002, 4.877628e+003
2.683083e+002, 4.944212e+003
2.702368e+002, 5.039479e+003
2.721653e+002, 5.169625e+003
2.740938e+002, 5.325783e+003
2.760222e+002, 5.498578e+003
2.779507e+002, 5.689825e+003
2.798792e+002, 5.889753e+003
2.818076e+002, 6.101930e+003
2.837361e+002, 6.312771e+003
2.856646e+002, 6.512460e+003
2.875930e+002, 6.717831e+003
2.895215e+002, 6.938798e+003
2.914500e+002, 7.171704e+003
2.933784e+002, 7.406253e+003
2.953069e+002, 7.640637e+003
2.972354e+002, 7.890741e+003
2.991638e+002, 8.157181e+003
3.010923e+002, 8.440840e+003
3.030208e+002, 8.757841e+003
3.049492e+002, 9.078395e+003
3.068777e+002, 9.392624e+003
3.088062e+002, 9.693604e+003
3.107346e+002, 9.967389e+003
3.126631e+002, 1.021926e+004
3.145916e+002, 1.038643e+004
3.165200e+002, 1.045889e+004
3.184485e+002, 1.044043e+004
3.203770e+002, 1.032579e+004
3.223054e+002, 1.013712e+004
3.242339e+002, 9.869987e+003
3.261624e+002, 9.541645e+003
3.280908e+002, 9.204996e+003
3.300193e+002, 8.859365e+003
3.319477e+002, 8.543868e+003
3.338762e+002, 8.256741e+003
3.358047e+002, 8.021545e+003
3.377331e+002, 7.858833e+003
3.396616e+002, 7.732806e+003
3.415901e+002, 7.618261e+003
3.435185e+002, 7.517912e+003
3.454470e+002, 7.438084e+003
3.473755e+002, 7.379070e+003
3.493039e+002, 7.323864e+003
3.512324e+002, 7.269492e+003
3.531609e+002, 7.218933e+003
3.550893e+002, 7.178132e+003
3.570178e+002, 7.136211e+003
3.589463e+002, 7.083462e+003
3.608747e+002, 7.024491e+003
3.628032e+002, 6.965799e+003
3.647317e+002, 6.907539e+003
3.666601e+002, 6.861351e+003
3.685886e+002, 6.833126e+003
3.705171e+002, 6.810344e+003
3.724455e+002, 6.776638e+003
3.743740e+002, 6.763116e+003
3.763025e+002, 6.789815e+003
3.782309e+002, 6.848337e+003
3.801594e+002, 6.926313e+003
3.820879e+002, 7.023354e+003
3.840163e+002, 7.135852e+003
3.859448e+002, 7.283417e+003
3.878733e+002, 7.406459e+003
3.898017e+002, 7.523722e+003
3.917302e+002, 7.588018e+003
3.936587e+002, 7.579602e+003
3.955871e+002, 7.505877e+003
3.975156e+002, 7.363104e+003
3.994441e+002, 7.165304e+003
4.013725e+002, 6.968220e+003
4.033010e+002, 6.765865e+003
4.052295e+002, 6.584421e+003
4.071579e+002, 6.424775e+003
4.090864e+002, 6.282624e+003
4.110149e+002, 6.164055e+003
4.129433e+002, 6.055783e+003
4.148718e+002, 5.952005e+003
4.168003e+002, 5.850960e+003
4.187287e+002, 5.752831e+003
4.206572e+002, 5.658694e+003
4.225857e+002, 5.549919e+003
4.245141e+002, 5.434136e+003
4.264426e+002, 5.285693e+003
4.283711e+002, 5.095848e+003
4.302995e+002, 4.883417e+003
4.322280e+002, 4.642708e+003
4.341565e+002, 4.396459e+003
4.360849e+002, 4.152793e+003
4.380134e+002, 3.919575e+003
4.399419e+002, 3.719191e+003
4.418703e+002, 3.553670e+003
4.437988e+002, 3.421046e+003
4.457273e+002, 3.323348e+003
4.476557e+002, 3.250901e+003
4.495842e+002, 3.205042e+003
4.515127e+002, 3.178771e+003
4.534411e+002, 3.179987e+003
4.553696e+002, 3.187664e+003
4.572981e+002, 3.180779e+003
4.592265e+002, 3.161810e+003
4.611550e+002, 3.141227e+003
4.630835e+002, 3.119124e+003
4.650119e+002, 3.093754e+003
4.669404e+002, 3.066641e+003
4.688689e+002, 3.030540e+003
4.707973e+002, 2.981789e+003
4.727258e+002, 2.925218e+003
4.746543e+002, 2.858589e+003
4.765827e+002, 2.789166e+003
4.785112e+002, 2.723364e+003
4.804397e+002, 2.661246e+003
4.823681e+002, 2.601222e+003
4.842966e+002, 2.543400e+003
4.862251e+002, 2.499198e+003
4.881535e+002, 2.472582e+003
4.900820e+002, 2.449309e+003
4.920105e+002, 2.424474e+003
4.939389e+002, 2.403563e+003
4.958674e+002, 2.394086e+003
4.977959e+002, 2.384127e+003
4.997243e+002, 2.361925e+003
5.016528e+002, 2.331090e+003
5.035813e+002, 2.297983e+003
5.055097e+002, 2.263627e+003
5.074382e+002, 2.234287e+003
5.093667e+002, 2.209779e+003
5.112951e+002, 2.194156e+003
5.132236e+002, 2.187673e+003
5.151521e+002, 2.191557e+003
5.170806e+002, 2.204349e+003
5.190090e+002, 2.229568e+003
5.209375e+002, 2.267020e+003
5.228660e+002, 2.320314e+003
5.247944e+002, 2.398906e+003
5.267229e+002, 2.496552e+003
5.286514e+002, 2.595674e+003
5.305798e+002, 2.696341e+003
5.325083e+002, 2.792558e+003
5.344368e+002, 2.890555e+003
5.363652e+002, 2.971930e+003
5.382937e+002, 3.030880e+003
5.402222e+002, 3.078568e+003
5.421506e+002, 3.110732e+003
5.440791e+002, 3.141461e+003
5.460076e+002, 3.183503e+003
5.479360e+002, 3.231629e+003
5.498645e+002, 3.274738e+003
5.517930e+002, 3.314522e+003
5.537214e+002, 3.372149e+003
5.556499e+002, 3.450427e+003
5.575784e+002, 3.540386e+003
5.595068e+002, 3.625809e+003
5.614353e+002, 3.748216e+003
5.633638e+002, 3.918156e+003
5.652922e+002, 4.120024e+003
5.672207e+002, 4.350812e+003
5.691492e+002, 4.607704e+003
5.710776e+002, 4.899505e+003
5.730061e+002, 5.207167e+003
5.749345e+002, 5.518687e+003
5.768630e+002, 5.825651e+003
5.787914e+002, 6.032080e+003
5.807199e+002, 6.136874e+003
5.826484e+002, 6.125833e+003
5.845768e+002, 5.989810e+003
5.865053e+002, 5.762069e+003
5.884338e+002, 5.416268e+003
5.903622e+002, 5.041350e+003
5.922907e+002, 4.650689e+003
5.942192e+002, 4.276844e+003
5.961476e+002, 3.941754e+003
5.980761e+002, 3.634900e+003
6.000046e+002, 3.343763e+003
6.019330e+002, 3.069698e+003
6.038615e+002, 2.820032e+003
6.057900e+002, 2.596128e+003
6.077184e+002, 2.387915e+003
6.096469e+002, 2.195091e+003
6.115754e+002, 2.021701e+003
6.135038e+002, 1.867011e+003
6.154323e+002, 1.735799e+003
6.173608e+002, 1.634609e+003
6.192892e+002, 1.550478e+003
6.212177e+002, 1.475623e+003
6.231462e+002, 1.416520e+003
6.250746e+002, 1.382630e+003
6.270031e+002, 1.365765e+003
6.289316e+002, 1.353970e+003
6.308600e+002, 1.347447e+003
6.327885e+002, 1.346124e+003
6.347170e+002, 1.350043e+003
6.366454e+002, 1.360613e+003
6.385739e+002, 1.377486e+003
6.405024e+002, 1.404863e+003
6.424308e+002, 1.444244e+003
6.443593e+002, 1.492725e+003
6.462878e+002, 1.546600e+003
6.482162e+002, 1.613399e+003
6.501447e+002, 1.698753e+003
6.520732e+002, 1.795395e+003
6.540016e+002, 1.899662e+003
6.559301e+002, 2.010516e+003
6.578586e+002, 2.127447e+003
6.597870e+002, 2.249589e+003
6.617155e+002, 2.373560e+003
6.636440e+002, 2.500320e+003
6.655724e+002, 2.634794e+003
6.675009e+002, 2.777642e+003
6.694294e+002, 2.926360e+003
6.713578e+002, 3.079634e+003
6.732863e+002, 3.241359e+003
6.752148e+002, 3.414217e+003
6.771432e+002, 3.591433e+003
6.790717e+002, 3.779268e+003
6.810002e+002, 3.960606e+003
6.829286e+002, 4.144146e+003
6.848571e+002, 4.299944e+003
6.867856e+002, 4.416417e+003
6.887141e+002, 4.478207e+003
6.906425e+002, 4.473514e+003
6.925710e+002, 4.402097e+003
6.944995e+002, 4.257727e+003
6.964279e+002, 4.042977e+003
6.983564e+002, 3.785398e+003
7.002849e+002, 3.473994e+003
7.022133e+002, 3.170392e+003
7.041418e+002, 2.862850e+003
7.060703e+002, 2.586421e+003
7.079987e+002, 2.339887e+003
7.099272e+002, 2.126792e+003
7.118557e+002, 1.951719e+003
7.137841e+002, 1.804224e+003
7.157126e+002, 1.684531e+003
7.176411e+002, 1.585156e+003
7.195695e+002, 1.500885e+003
7.214980e+002, 1.435985e+003
7.234265e+002, 1.400246e+003
7.253549e+002, 1.382208e+003
7.272834e+002, 1.365430e+003
7.292119e+002, 1.351289e+003
7.311403e+002, 1.344453e+003
7.330688e+002, 1.344802e+003
7.349973e+002, 1.349376e+003
7.369257e+002, 1.358446e+003
7.388542e+002, 1.370439e+003
7.407827e+002, 1.384704e+003
7.427111e+002, 1.405410e+003
7.446396e+002, 1.433651e+003
7.465681e+002, 1.466032e+003
7.484965e+002, 1.502612e+003
7.504250e+002, 1.540963e+003
7.523535e+002, 1.578046e+003
7.542819e+002, 1.620178e+003
7.562104e+002, 1.669365e+003
7.581389e+002, 1.725668e+003
7.600673e+002, 1.791793e+003
7.619958e+002, 1.862681e+003
7.639243e+002, 1.933258e+003
7.658527e+002, 2.005146e+003
7.677812e+002, 2.079766e+003
7.697097e+002, 2.157926e+003
7.716381e+002, 2.243522e+003
7.735666e+002, 2.334966e+003
7.754951e+002, 2.423409e+003
7.774235e+002, 2.508729e+003
7.793520e+002, 2.591088e+003
7.812805e+002, 2.670148e+003
7.832089e+002, 2.758801e+003
7.851374e+002, 2.860919e+003
7.870659e+002, 2.960790e+003
7.889943e+002, 3.053579e+003
7.909228e+002, 3.149689e+003
7.928513e+002, 3.252757e+003
7.947797e+002, 3.357885e+003
7.967082e+002, 3.466418e+003
7.986367e+002, 3.573337e+003
8.005651e+002, 3.672512e+003
8.024936e+002, 3.774815e+003
8.044221e+002, 3.890391e+003
8.063505e+002, 4.008264e+003
8.082790e+002, 4.111845e+003
8.102075e+002, 4.218582e+003
8.121359e+002, 4.350077e+003
8.140644e+002, 4.498969e+003
8.159929e+002, 4.651394e+003
8.179213e+002, 4.812243e+003
8.198498e+002, 4.993131e+003
8.217783e+002, 5.192210e+003
8.237067e+002, 5.398714e+003
8.256352e+002, 5.612761e+003
8.275637e+002, 5.850453e+003
8.294921e+002, 6.113886e+003
8.314206e+002, 6.383748e+003
8.333491e+002, 6.655016e+003
8.352775e+002, 6.947518e+003
8.372060e+002, 7.266364e+003
8.391345e+002, 7.599975e+003
8.410629e+002, 7.945912e+003
8.429914e+002, 8.313333e+003
8.449199e+002, 8.705546e+003
8.468483e+002, 9.117056e+003
8.487768e+002, 9.553276e+003
8.507053e+002, 9.997548e+003
8.526337e+002, 1.045548e+004
8.545622e+002, 1.089854e+004
8.564907e+002, 1.132339e+004
8.584191e+002, 1.170970e+004
8.603476e+002, 1.201611e+004
8.622761e+002, 1.231300e+004
8.642045e+002, 1.264129e+004
8.661330e+002, 1.299431e+004
8.680615e+002, 1.333557e+004
8.699899e+002, 1.372652e+004
8.719184e+002, 1.423561e+004
8.738469e+002, 1.485376e+004
8.757753e+002, 1.558221e+004
8.777038e+002, 1.640179e+004
8.796323e+002, 1.729204e+004
8.815607e+002, 1.822685e+004
8.834892e+002, 1.914238e+004
8.854177e+002, 2.001970e+004
8.873461e+002, 2.076242e+004
8.892746e+002, 2.136331e+004
8.912031e+002, 2.175274e+004
8.931315e+002, 2.193203e+004
8.950600e+002, 2.188058e+004
8.969885e+002, 2.159676e+004
8.989169e+002, 2.116435e+004
9.008454e+002, 2.058712e+004
9.027739e+002, 1.987892e+004
9.047023e+002, 1.903357e+004
9.066308e+002, 1.812838e+004
9.085593e+002, 1.716747e+004
9.104877e+002, 1.619036e+004
9.124162e+002, 1.519108e+004
9.143447e+002, 1.423158e+004
9.162731e+002, 1.330903e+004
9.182016e+002, 1.247713e+004
9.201301e+002, 1.175013e+004
9.220585e+002, 1.111094e+004
9.239870e+002, 1.056150e+004
9.259155e+002, 1.008986e+004
9.278439e+002, 9.704722e+003
9.297724e+002, 9.376643e+003
9.317009e+002, 9.108925e+003
9.336293e+002, 8.877428e+003
9.355578e+002, 8.681589e+003
9.374863e+002, 8.508368e+003
9.394147e+002, 8.376328e+003
9.413432e+002, 8.232779e+003
9.432717e+002, 8.064164e+003
9.452001e+002, 7.855522e+003
9.471286e+002, 7.610307e+003
9.490571e+002, 7.305321e+003
9.509855e+002, 6.906549e+003
9.529140e+002, 6.461623e+003
9.548425e+002, 5.983581e+003
9.567709e+002, 5.503500e+003
9.586994e+002, 5.031833e+003
9.606279e+002, 4.589434e+003
9.625563e+002, 4.192995e+003
9.644848e+002, 3.841640e+003
9.664133e+002, 3.535195e+003
9.683417e+002, 3.273329e+003
9.702702e+002, 3.064620e+003
9.721987e+002, 2.892001e+003
9.741271e+002, 2.734362e+003
9.760556e+002, 2.598586e+003
9.779841e+002, 2.498044e+003
9.799125e+002, 2.423884e+003
9.818410e+002, 2.367825e+003
9.837695e+002, 2.323464e+003
9.856979e+002, 2.276724e+003
9.876264e+002, 2.234245e+003
9.895549e+002, 2.211625e+003
9.914833e+002, 2.202836e+003
9.934118e+002, 2.194769e+003
9.953403e+002, 2.188951e+003
9.972687e+002, 2.189148e+003
9.991972e+002, 2.195007e+003
1.001126e+003, 2.204419e+003
1.003054e+003, 2.219094e+003
1.004983e+003, 2.245510e+003
1.006911e+003, 2.281198e+003
1.008840e+003, 2.319103e+003
1.010768e+003, 2.358715e+003
1.012696e+003, 2.397009e+003
1.014625e+003, 2.435450e+003
1.016553e+003, 2.477858e+003
1.018482e+003, 2.525362e+003
1.020410e+003, 2.582440e+003
1.022339e+003, 2.648737e+003
1.024267e+003, 2.723316e+003
1.026196e+003, 2.806082e+003
1.028124e+003, 2.899460e+003
1.030053e+003, 3.000395e+003
1.031981e+003, 3.093983e+003
1.033910e+003, 3.185438e+003
1.035838e+003, 3.294632e+003
1.037767e+003, 3.418679e+003
1.039695e+003, 3.546542e+003
1.041624e+003, 3.679124e+003
1.043552e+003, 3.823760e+003
1.045480e+003, 3.974700e+003
1.047409e+003, 4.113887e+003
1.049337e+003, 4.243416e+003
1.051266e+003, 4.382566e+003
1.053194e+003, 4.514292e+003
1.055123e+003, 4.594910e+003
1.057051e+003, 4.624606e+003
1.058980e+003, 4.605150e+003
1.060908e+003, 4.535866e+003
1.062837e+003, 4.415618e+003
1.064765e+003, 4.243315e+003
1.066694e+003, 4.007172e+003
1.068622e+003, 3.721101e+003
1.070550e+003, 3.404071e+003
1.072479e+003, 3.070973e+003
1.074407e+003, 2.744394e+003
1.076336e+003, 2.431480e+003
1.078264e+003, 2.141760e+003
1.080193e+003, 1.878842e+003
1.082121e+003, 1.645945e+003
1.084050e+003, 1.446480e+003
1.085978e+003, 1.291235e+003
1.087907e+003, 1.169597e+003
1.089835e+003, 1.068514e+003
1.091764e+003, 9.864124e+002
1.093692e+003, 9.247374e+002
1.095620e+003, 8.774324e+002
1.097549e+003, 8.390400e+002
1.099477e+003, 8.078125e+002
1.101406e+003, 7.843583e+002
1.103334e+003, 7.639999e+002
1.105263e+003, 7.400947e+002
1.107191e+003, 7.184509e+002
1.109120e+003, 7.056233e+002
1.111048e+003, 6.967181e+002
1.112977e+003, 6.877713e+002
1.114905e+003, 6.805718e+002
1.116834e+003, 6.754042e+002
1.118762e+003, 6.740189e+002
1.120691e+003, 6.839240e+002
1.122619e+003, 6.889287e+002
1.124547e+003, 6.729114e+002
1.126476e+003, 6.589244e+002
1.128404e+003, 6.633236e+002
1.130333e+003, 6.660950e+002
1.132261e+003, 6.553896e+002
1.134190e+003, 6.453607e+002
1.136118e+003, 6.424274e+002
1.138047e+003, 6.401801e+002
1.139975e+003, 6.355682e+002
1.141904e+003, 6.335240e+002
1.143832e+003, 6.381545e+002
1.145761e+003, 6.378806e+002
1.147689e+003, 6.270853e+002
1.149618e+003, 6.194578e+002
1.151546e+003, 6.183972e+002
1.153474e+003, 6.200833e+002
1.155403e+003, 6.250342e+002
1.157331e+003, 6.253740e+002
1.159260e+003, 6.191014e+002
1.161188e+003, 6.149206e+002
1.163117e+003, 6.141475e+002
1.165045e+003, 6.116527e+002
1.166974e+003, 6.068859e+002
1.168902e+003, 6.059268e+002
1.170831e+003, 6.087908e+002
1.172759e+003, 6.075402e+002
1.174688e+003, 6.021772e+002
1.176616e+003, 5.955958e+002
1.178545e+003, 5.890381e+002
1.180473e+003, 5.893840e+002
1.182401e+003, 5.939862e+002
1.184330e+003, 5.917640e+002
1.186258e+003, 5.864194e+002
1.188187e+003, 5.895049e+002
1.190115e+003, 5.954676e+002
1.192044e+003, 5.919398e+002
1.193972e+003, 5.855873e+002
1.195901e+003, 5.872175e+002
1.197829e+003, 5.900599e+002
1.199758e+003, 5.859818e+002
1.201686e+003, 5.797631e+002
1.203615e+003, 5.736648e+002
1.205543e+003, 5.701531e+002
1.207472e+003, 5.710940e+002
1.209400e+003, 5.752517e+002
1.211328e+003, 5.881583e+002
1.213257e+003, 5.935107e+002
1.215185e+003, 5.788857e+002
1.217114e+003, 5.657162e+002
1.219042e+003, 5.605837e+002
1.220971e+003, 5.590536e+002
1.222899e+003, 5.622723e+002
1.224828e+003, 5.626967e+002
1.226756e+003, 5.582015e+002
1.228685e+003, 5.536341e+002
1.230613e+003, 5.485247e+002
1.232542e+003, 5.485048e+002
1.234470e+003, 5.552210e+002
1.236399e+003, 5.550158e+002
1.238327e+003, 5.479725e+002
1.240255e+003, 5.467325e+002
1.242184e+003, 5.504515e+002
1.244112e+003, 5.549242e+002
1.246041e+003, 5.588075e+002
1.247969e+003, 5.561674e+002
1.249898e+003, 5.507379e+002
1.251826e+003, 5.514479e+002
1.253755e+003, 5.528845e+002
1.255683e+003, 5.445977e+002
1.257612e+003, 5.365729e+002
1.259540e+003, 5.418920e+002
1.261469e+003, 5.468030e+002
1.263397e+003, 5.388944e+002
1.265326e+003, 5.322977e+002
1.267254e+003, 5.346516e+002
1.269182e+003, 5.374510e+002
1.271111e+003, 5.391441e+002
1.273039e+003, 5.386580e+002
1.274968e+003, 5.347398e+002
1.276896e+003, 5.337780e+002
1.278825e+003, 5.374124e+002
1.280753e+003, 5.359427e+002
1.282682e+003, 5.285430e+002
1.284610e+003, 5.280246e+002
1.286539e+003, 5.337227e+002
1.288467e+003, 5.334972e+002
1.290396e+003, 5.292969e+002
1.292324e+003, 5.311055e+002
1.294253e+003, 5.351559e+002
1.296181e+003, 5.319901e+002
1.298109e+003, 5.267843e+002
1.300038e+003, 5.264044e+002
1.301966e+003, 5.280742e+002
1.303895e+003, 5.300550e+002
1.305823e+003, 5.316013e+002
1.307752e+003, 5.316967e+002
1.309680e+003, 5.320385e+002
1.311609e+003, 5.341696e+002
1.313537e+003, 5.351815e+002
1.315466e+003, 5.329171e+002
1.317394e+003, 5.323341e+002
1.319323e+003, 5.339160e+002
1.321251e+003, 5.379488e+002
1.323180e+003, 5.460942e+002
1.325108e+003, 5.453964e+002
1.327036e+003, 5.363902e+002
1.328965e+003, 5.330161e+002
1.330893e+003, 5.340164e+002
1.332822e+003, 5.351719e+002
1.334750e+003, 5.364642e+002
1.336679e+003, 5.381530e+002
1.338607e+003, 5.395994e+002
1.340536e+003, 5.413356e+002
1.342464e+003, 5.405641e+002
1.344393e+003, 5.330464e+002
1.346321e+003, 5.276859e+002
1.348250e+003, 5.294042e+002
1.350178e+003, 5.307230e+002
1.352107e+003, 5.290361e+002
1.354035e+003, 5.300443e+002
1.355964e+003, 5.356273e+002
1.357892e+003, 5.344514e+002
1.359820e+003, 5.255633e+002
1.361749e+003, 5.229311e+002
1.363677e+003, 5.250475e+002
1.365606e+003, 5.224229e+002
1.367534e+003, 5.180994e+002
1.369463e+003, 5.189083e+002
1.371391e+003, 5.225765e+002
1.373320e+003, 5.290327e+002
1.375248e+003, 5.330140e+002
1.377177e+003, 5.275355e+002
1.379105e+003, 5.233172e+002
1.381034e+003, 5.261866e+002
1.382962e+003, 5.269413e+002
1.384891e+003, 5.233606e+002
1.386819e+003, 5.187611e+002
1.388747e+003, 5.135326e+002
1.390676e+003, 5.094420e+002
1.392604e+003, 5.066066e+002
1.394533e+003, 5.039174e+002
1.396461e+003, 5.025451e+002
1.398390e+003, 5.073381e+002
1.400318e+003, 5.140925e+002
1.402247e+003, 5.164684e+002
1.404175e+003, 5.174139e+002
1.406104e+003, 5.206222e+002
1.408032e+003, 5.215944e+002
1.409961e+003, 5.167217e+002
1.411889e+003, 5.113497e+002
1.413818e+003, 5.055158e+002
1.415746e+003, 5.025735e+002
1.417674e+003, 5.031982e+002
1.419603e+003, 5.041989e+002
1.421531e+003, 5.054101e+002
1.423460e+003, 5.059006e+002
1.425388e+003, 5.056660e+002
1.427317e+003, 5.035749e+002
1.429245e+003, 5.020482e+002
1.431174e+003, 5.067977e+002
1.433102e+003, 5.094347e+002
1.435031e+003, 5.004874e+002
1.436959e+003, 4.945362e+002
1.438888e+003, 4.999234e+002
1.440816e+003, 5.033949e+002
1.442745e+003, 5.020906e+002
1.444673e+003, 4.984405e+002
1.446601e+003, 4.922528e+002
1.448530e+003, 4.906927e+002
1.450458e+003, 4.923682e+002
1.452387e+003, 4.891480e+002
1.454315e+003, 4.856198e+002
1.456244e+003, 4.928326e+002
1.458172e+003, 4.998131e+002
1.460101e+003, 4.954258e+002
1.462029e+003, 4.922132e+002
1.463958e+003, 4.964807e+002
1.465886e+003, 4.977299e+002
1.467815e+003, 4.927349e+002
1.469743e+003, 4.922191e+002
1.471672e+003, 4.971442e+002
1.473600e+003, 4.973560e+002
1.475528e+003, 4.939684e+002
1.477457e+003, 4.909687e+002
1.479385e+003, 4.888226e+002
1.481314e+003, 4.887235e+002
1.483242e+003, 4.891828e+002
1.485171e+003, 4.898409e+002
1.487099e+003, 4.891491e+002
1.489028e+003, 4.862264e+002
1.490956e+003, 4.828107e+002
1.492885e+003, 4.789011e+002
1.494813e+003, 4.815476e+002
1.496742e+003, 4.892213e+002
1.498670e+003, 4.863019e+002
1.500599e+003, 4.787252e+002
1.502527e+003, 4.820269e+002
1.504455e+003, 4.864053e+002
1.506384e+003, 4.800777e+002
1.508312e+003, 4.730121e+002
1.510241e+003, 4.706420e+002
1.512169e+003, 4.684951e+002
1.514098e+003, 4.653740e+002
1.516026e+003, 4.641051e+002
1.517955e+003, 4.647066e+002
1.519883e+003, 4.635821e+002
1.521812e+003, 4.617926e+002
1.523740e+003, 4.636676e+002
1.525669e+003, 4.660148e+002
1.527597e+003, 4.657497e+002
1.529526e+003, 4.636991e+002
1.531454e+003, 4.597475e+002
1.533382e+003, 4.553551e+002
1.535311e+003, 4.493799e+002
1.537239e+003, 4.474167e+002
1.539168e+003, 4.497427e+002
1.541096e+003, 4.526848e+002
1.543025e+003, 4.552468e+002
1.544953e+003, 4.536607e+002
1.546882e+003, 4.503110e+002
1.548810e+003, 4.465895e+002
1.550739e+003, 4.448368e+002
1.552667e+003, 4.477660e+002
1.554596e+003, 4.475280e+002
1.556524e+003, 4.410082e+002
1.558453e+003, 4.390775e+002
1.560381e+003, 4.420456e+002
1.562309e+003, 4.451783e+002
1.564238e+003, 4.469414e+002
1.566166e+003, 4.419508e+002
1.568095e+003, 4.360775e+002
1.570023e+003, 4.352032e+002
1.571952e+003, 4.345771e+002
1.573880e+003, 4.325287e+002
1.575809e+003, 4.313663e+002
1.577737e+003, 4.314834e+002
1.579666e+003, 4.335324e+002
1.581594e+003, 4.361869e+002
1.583523e+003, 4.324424e+002
1.585451e+003, 4.273009e+002
1.587380e+003, 4.287149e+002
1.589308e+003, 4.306999e+002
1.591236e+003, 4.297653e+002
1.593165e+003, 4.280406e+002
1.595093e+003, 4.258808e+002
1.597022e+003, 4.216374e+002
1.598950e+003, 4.161957e+002
1.600879e+003, 4.170349e+002
1.602807e+003, 4.212397e+002
1.604736e+003, 4.252698e+002
1.606664e+003, 4.268713e+002
1.608593e+003, 4.218816e+002
1.610521e+003, 4.185098e+002
1.612450e+003, 4.194000e+002
1.614378e+003, 4.222582e+002
1.616307e+003, 4.265367e+002
1.618235e+003, 4.217895e+002
1.620163e+003, 4.130758e+002
1.622092e+003, 4.132531e+002
1.624020e+003, 4.146230e+002
1.625949e+003, 4.093759e+002
1.627877e+003, 4.055506e+002
1.629806e+003, 4.068626e+002
1.631734e+003, 4.085717e+002
1.633663e+003, 4.105902e+002
1.635591e+003, 4.087128e+002
1.637520e+003, 4.046293e+002
1.639448e+003, 4.015229e+002
1.641377e+003, 4.007982e+002
1.643305e+003, 4.052215e+002
1.645234e+003, 4.082509e+002
1.647162e+003, 4.072587e+002
1.649090e+003, 4.062907e+002
1.651019e+003, 4.056712e+002
1.652947e+003, 4.004071e+002
1.654876e+003, 3.937390e+002
1.656804e+003, 3.930775e+002
1.658733e+003, 3.952072e+002
1.660661e+003, 3.988007e+002
1.662590e+003, 4.020112e+002
1.664518e+003, 4.049307e+002
1.666447e+003, 4.009653e+002
1.668375e+003, 3.909959e+002
1.670304e+003, 3.881638e+002
1.672232e+003, 3.890928e+002
1.674161e+003, 3.879268e+002
1.676089e+003, 3.881777e+002
1.678017e+003, 3.926535e+002
1.679946e+003, 3.958603e+002
1.681874e+003, 3.967788e+002
1.683803e+003, 3.986069e+002
1.685731e+003, 4.001266e+002
1.687660e+003, 3.947082e+002
1.689588e+003, 3.881695e+002
1.691517e+003, 3.870648e+002
1.693445e+003, 3.875548e+002
1.695374e+003, 3.885318e+002
1.697302e+003, 3.900151e+002
1.699231e+003, 3.917211e+002
1.701159e+003, 3.902945e+002
1.703088e+003, 3.867848e+002
1.705016e+003, 3.826698e+002
1.706944e+003, 3.789522e+002
1.708873e+003, 3.753482e+002
1.710801e+003, 3.748936e+002
1.712730e+003, 3.786748e+002
1.714658e+003, 3.803851e+002
1.716587e+003, 3.806171e+002
1.718515e+003, 3.832861e+002
1.720444e+003, 3.852249e+002
1.722372e+003, 3.819807e+002
1.724301e+003, 3.793480e+002
1.726229e+003, 3.803104e+002
1.728158e+003, 3.800741e+002
1.730086e+003, 3.785832e+002
1.732015e+003, 3.776341e+002
1.733943e+003, 3.776782e+002
1.735871e+003, 3.813044e+002
1.737800e+003, 3.821787e+002
1.739728e+003, 3.756650e+002
1.741657e+003, 3.710072e+002
1.743585e+003, 3.695999e+002
1.745514e+003, 3.721674e+002
1.747442e+003, 3.758036e+002
1.749371e+003, 3.726172e+002
1.751299e+003, 3.692450e+002
1.753228e+003, 3.700890e+002
1.755156e+003, 3.689120e+002
1.757085e+003, 3.641158e+002
1.759013e+003, 3.662888e+002
1.760942e+003, 3.719663e+002
1.762870e+003, 3.703008e+002
1.764798e+003, 3.666693e+002
1.766727e+003, 3.645122e+002
1.768655e+003, 3.641565e+002
1.770584e+003, 3.658575e+002
1.772512e+003, 3.612891e+002
1.774441e+003, 3.537157e+002
1.776369e+003, 3.557873e+002
1.778298e+003, 3.602376e+002
1.780226e+003, 3.601810e+002
1.782155e+003, 3.613512e+002
1.784083e+003, 3.650642e+002
1.786012e+003, 3.651246e+002
1.787940e+003, 3.625102e+002
1.789869e+003, 3.616255e+002
1.791797e+003, 3.614148e+002
1.793725e+003, 3.601986e+002
1.795654e+003, 3.614065e+002
1.797582e+003, 3.662868e+002
1.799511e+003, 3.657850e+002
1.801439e+003, 3.619260e+002
1.803368e+003, 3.626546e+002
1.805296e+003, 3.634380e+002
1.807225e+003, 3.594882e+002
1.809153e+003, 3.568640e+002
1.811082e+003, 3.570848e+002
1.813010e+003, 3.552881e+002
1.814939e+003, 3.532782e+002
1.816867e+003, 3.594041e+002
1.818796e+003, 3.629615e+002
1.820724e+003, 3.529747e+002
1.822652e+003, 3.480421e+002
1.824581e+003, 3.518194e+002
1.826509e+003, 3.569681e+002
1.828438e+003, 3.608942e+002
1.830366e+003, 3.557290e+002
1.832295e+003, 3.500555e+002
1.834223e+003, 3.481109e+002
1.836152e+003, 3.460634e+002
1.838080e+003, 3.435340e+002
1.840009e+003, 3.467363e+002
1.841937e+003, 3.508710e+002
1.843866e+003, 3.471348e+002
1.845794e+003, 3.437756e+002
1.847723e+003, 3.439310e+002
1.849651e+003, 3.418230e+002
1.851579e+003, 3.374703e+002
1.853508e+003, 3.326726e+002
1.855436e+003, 3.302056e+002
1.857365e+003, 3.331405e+002
1.859293e+003, 3.406376e+002
1.861222e+003, 3.529318e+002
1.863150e+003, 3.528923e+002
1.865079e+003, 3.448682e+002
1.867007e+003, 3.397887e+002
1.868936e+003, 3.380557e+002
1.870864e+003, 3.412725e+002
1.872793e+003, 3.439361e+002
1.874721e+003, 3.451129e+002
1.876650e+003, 3.404297e+002
1.878578e+003, 3.351402e+002
1.880506e+003, 3.383763e+002
1.882435e+003, 3.397979e+002
1.884363e+003, 3.348657e+002
1.886292e+003, 3.353481e+002
1.888220e+003, 3.395225e+002
1.890149e+003, 3.390844e+002
1.892077e+003, 3.374757e+002
1.894006e+003, 3.380904e+002
1.895934e+003, 3.362124e+002
1.897863e+003, 3.312512e+002
1.899791e+003, 3.324727e+002
1.901720e+003, 3.359813e+002
1.903648e+003, 3.359671e+002
1.905577e+003, 3.351861e+002
1.907505e+003, 3.355718e+002
1.909433e+003, 3.309612e+002
1.911362e+003, 3.242180e+002
1.913290e+003, 3.308181e+002
1.915219e+003, 3.380478e+002
1.917147e+003, 3.367321e+002
1.919076e+003, 3.362627e+002
1.921004e+003, 3.380395e+002
1.922933e+003, 3.292180e+002
1.924861e+003, 3.205823e+002
1.926790e+003, 3.302084e+002
1.928718e+003, 3.355269e+002
1.930647e+003, 3.288022e+002
1.932575e+003, 3.262541e+002
1.934504e+003, 3.266596e+002
1.936432e+003, 3.245705e+002
1.938360e+003, 3.229484e+002
1.940289e+003, 3.228917e+002
1.942217e+003, 3.261418e+002
1.944146e+003, 3.320275e+002
1.946074e+003, 3.376812e+002
1.948003e+003, 3.388848e+002
1.949931e+003, 3.283099e+002
1.951860e+003, 3.213072e+002
1.953788e+003, 3.203130e+002
1.955717e+003, 3.272159e+002
1.957645e+003, 3.336672e+002
1.959574e+003, 3.261551e+002
1.961502e+003, 3.169790e+002
1.963431e+003, 3.091592e+002
1.965359e+003, 3.072011e+002
1.967287e+003, 3.092148e+002
1.969216e+003, 3.101128e+002
1.971144e+003, 3.138600e+002
1.973073e+003, 3.261862e+002
1.975001e+003, 3.208568e+002
1.976930e+003, 3.052563e+002
1.978858e+003, 3.114531e+002
1.980787e+003, 3.198678e+002
1.982715e+003, 3.157519e+002
1.984644e+003, 3.134323e+002
1.986572e+003, 3.133180e+002
1.988501e+003, 3.084175e+002
1.990429e+003, 3.034748e+002
1.992358e+003, 3.023452e+002
1.994286e+003, 3.033216e+002
1.996214e+003, 3.060232e+002
1.998143e+003, 3.080930e+002
2.000071e+003, 3.091612e+002
2.002000e+003, 3.094529e+002
2.003928e+003, 3.066685e+002
2.005857e+003, 2.997549e+002
2.007785e+003, 3.000338e+002
2.009714e+003, 3.019710e+002
2.011642e+003, 2.964542e+002
2.013571e+003, 2.935057e+002
2.015499e+003, 2.962821e+002
2.017428e+003, 2.933107e+002
2.019356e+003, 2.904118e+002
2.021285e+003, 3.038753e+002
2.023213e+003, 3.093080e+002
2.025141e+003, 2.992610e+002
2.027070e+003, 2.988886e+002
2.028998e+003, 3.035006e+002
2.030927e+003, 3.001075e+002
2.032855e+003, 3.006611e+002
2.034784e+003, 3.094499e+002
2.036712e+003, 3.054732e+002
2.038641e+003, 2.947108e+002
2.040569e+003, 2.919609e+002
2.042498e+003, 2.892472e+002
2.044426e+003, 2.833252e+002
2.046355e+003, 2.857039e+002
2.048283e+003, 2.926889e+002
2.050212e+003, 2.953195e+002
2.052140e+003, 2.976909e+002
2.054068e+003, 3.021632e+002
2.055997e+003, 2.971527e+002
2.057925e+003, 2.881237e+002
2.059854e+003, 2.857058e+002
2.061782e+003, 2.884628e+002
2.063711e+003, 2.977809e+002
2.065639e+003, 3.008333e+002
2.067568e+003, 2.967518e+002
2.069496e+003, 2.798300e+002
2.071425e+003, 2.686071e+002
2.073353e+003, 2.719547e+002
2.075281e+003, 2.763907e+002
2.077210e+003, 2.807864e+002
2.079138e+003, 2.849340e+002
2.081067e+003, 2.831905e+002
2.082995e+003, 2.705268e+002
2.084924e+003, 2.813503e+002
2.086852e+003, 2.956392e+002
2.088781e+003, 2.791624e+002
2.090709e+003, 2.681096e+002
2.092638e+003, 2.734102e+002
2.094566e+003, 2.786967e+002
2.096495e+003, 2.820338e+002
2.098423e+003, 2.803654e+002
2.100352e+003, 2.788345e+002
2.102280e+003, 2.783591e+002
2.104208e+003, 2.754106e+002
2.106137e+003, 2.710991e+002
2.108065e+003, 2.655850e+002
2.109994e+003, 2.627584e+002
2.111922e+003, 2.634938e+002
2.113851e+003, 2.708741e+002
2.115779e+003, 2.745003e+002
2.117708e+003, 2.642771e+002
2.119636e+003, 2.641467e+002
2.121565e+003, 2.725366e+002
2.123493e+003, 2.741585e+002
2.125422e+003, 2.730736e+002
2.127350e+003, 2.714883e+002
2.129279e+003, 2.661949e+002
2.131207e+003, 2.597157e+002
2.133135e+003, 2.563481e+002
2.135064e+003, 2.589143e+002
2.136992e+003, 2.688162e+002
2.138921e+003, 2.700531e+002
2.140849e+003, 2.673946e+002
2.142778e+003, 2.683420e+002
2.144706e+003, 2.692194e+002
2.146635e+003, 2.692578e+002
2.148563e+003, 2.673951e+002
2.150492e+003, 2.648109e+002
2.152420e+003, 2.616306e+002
2.154349e+003, 2.611325e+002
2.156277e+003, 2.630938e+002
2.158206e+003, 2.650201e+002
2.160134e+003, 2.674364e+002
2.162063e+003, 2.714655e+002
2.163991e+003, 2.722180e+002
2.165919e+003, 2.692850e+002
2.167848e+003, 2.575109e+002
2.169776e+003, 2.552128e+002
2.171705e+003, 2.703029e+002
2.173633e+003, 2.645355e+002
2.175562e+003, 2.536828e+002
2.177490e+003, 2.572196e+002
2.179419e+003, 2.613244e+002
2.181347e+003, 2.632351e+002
2.183276e+003, 2.628417e+002
2.185204e+003, 2.603472e+002
2.187133e+003, 2.554816e+002
2.189061e+003, 2.540710e+002
2.190990e+003, 2.551257e+002
2.192918e+003, 2.554968e+002
2.194846e+003, 2.550852e+002
2.196775e+003, 2.539464e+002
2.198703e+003, 2.540737e+002
2.200632e+003, 2.547508e+002
2.202560e+003, 2.540835e+002
2.204489e+003, 2.567033e+002
2.206417e+003, 2.626636e+002
2.208346e+003, 2.738389e+002
2.210274e+003, 2.760041e+002
2.212203e+003, 2.580424e+002
2.214131e+003, 2.504192e+002
2.216060e+003, 2.510792e+002
2.217988e+003, 2.558850e+002
2.219917e+003, 2.567563e+002
2.221845e+003, 2.528232e+002
2.223773e+003, 2.585663e+002
2.225702e+003, 2.645196e+002
2.227630e+003, 2.624949e+002
2.229559e+003, 2.576308e+002
2.231487e+003, 2.524468e+002
2.233416e+003, 2.538735e+002
2.235344e+003, 2.549965e+002
2.237273e+003, 2.532688e+002
2.239201e+003, 2.518612e+002
2.241130e+003, 2.519178e+002
2.243058e+003, 2.542478e+002
2.244987e+003, 2.609621e+002
2.246915e+003, 2.678884e+002
2.248844e+003, 2.521225e+002
2.250772e+003, 2.433348e+002
2.252700e+003, 2.535523e+002
2.254629e+003, 2.527545e+002
2.256557e+003, 2.488018e+002
2.258486e+003, 2.516510e+002
2.260414e+003, 2.554796e+002
2.262343e+003, 2.581934e+002
2.264271e+003, 2.526375e+002
2.266200e+003, 2.513840e+002
2.268128e+003, 2.589837e+002
2.270057e+003, 2.582908e+002
2.271985e+003, 2.536436e+002
2.273914e+003, 2.492568e+002
2.275842e+003, 2.508289e+002
2.277771e+003, 2.555874e+002
2.279699e+003, 2.504249e+002
2.281627e+003, 2.439606e+002
2.283556e+003, 2.393554e+002
2.285484e+003, 2.489011e+002
2.287413e+003, 2.577274e+002
2.289341e+003, 2.460286e+002
2.291270e+003, 2.368645e+002
2.293198e+003, 2.335378e+002
2.295127e+003, 2.407135e+002
2.297055e+003, 2.483319e+002
2.298984e+003, 2.532511e+002
2.300912e+003, 2.497135e+002
2.302841e+003, 2.453273e+002
2.304769e+003, 2.480815e+002
2.306698e+003, 2.460261e+002
2.308626e+003, 2.420517e+002
2.310554e+003, 2.439812e+002
2.312483e+003, 2.456575e+002
2.314411e+003, 2.456604e+002
2.316340e+003, 2.442386e+002
2.318268e+003, 2.429605e+002
2.320197e+003, 2.422910e+002
2.322125e+003, 2.491625e+002
2.324054e+003, 2.548947e+002
2.325982e+003, 2.436726e+002
2.327911e+003, 2.550582e+002
2.329839e+003, 2.805353e+002
2.331768e+003, 2.471149e+002
2.333696e+003, 2.454936e+002
2.335625e+003, 3.006954e+002
2.337553e+003, 2.842843e+002
2.339481e+003, 2.498288e+002
2.341410e+003, 2.390575e+002
2.343338e+003, 2.396929e+002
2.345267e+003, 2.432105e+002
2.347195e+003, 2.369339e+002
2.349124e+003, 2.263146e+002
2.351052e+003, 2.173413e+002
2.352981e+003, 2.371531e+002
2.354909e+003, 2.477668e+002
2.356838e+003, 2.356149e+002
2.358766e+003, 2.398022e+002
2.360695e+003, 2.459801e+002
2.362623e+003, 2.372822e+002
2.364552e+003, 2.362505e+002
2.366480e+003, 2.387979e+002
2.368408e+003, 2.340523e+002
2.370337e+003, 2.328945e+002
2.372265e+003, 2.361832e+002
2.374194e+003, 2.414996e+002
2.376122e+003, 2.430753e+002
2.378051e+003, 2.381128e+002
2.379979e+003, 2.340176e+002
2.381908e+003, 2.330694e+002
2.383836e+003, 2.393807e+002
2.385765e+003, 2.345412e+002
2.387693e+003, 2.281489e+002
2.389622e+003, 2.368443e+002
2.391550e+003, 2.376856e+002
2.393479e+003, 2.323858e+002
2.395407e+003, 2.432159e+002
2.397335e+003, 2.406734e+002
2.399264e+003, 2.191956e+002
2.401192e+003, 2.200255e+002
2.403121e+003, 2.237991e+002
2.405049e+003, 2.208624e+002
2.406978e+003, 2.363486e+002
2.408906e+003, 2.471317e+002
2.410835e+003, 2.290368e+002
2.412763e+003, 2.267610e+002
2.414692e+003, 2.339446e+002
2.416620e+003, 2.318166e+002
2.418549e+003, 2.313537e+002
2.420477e+003, 2.337678e+002
2.422406e+003, 2.412728e+002
2.424334e+003, 2.370913e+002
2.426262e+003, 2.214083e+002
2.428191e+003, 2.238560e+002
2.430119e+003, 2.303122e+002
2.432048e+003, 2.340187e+002
2.433976e+003, 2.221613e+002
2.435905e+003, 2.139269e+002
2.437833e+003, 2.304561e+002
2.439762e+003, 2.364574e+002
2.441690e+003, 2.377956e+002
2.443619e+003, 2.464416e+002
2.445547e+003, 2.443232e+002
2.447476e+003, 2.357293e+002
2.449404e+003, 2.354333e+002
2.451333e+003, 2.260188e+002
2.453261e+003, 2.109644e+002
2.455189e+003, 2.246999e+002
2.457118e+003, 2.316873e+002
2.459046e+003, 2.225499e+002
2.460975e+003, 2.244901e+002
2.462903e+003, 2.283095e+002
2.464832e+003, 2.297173e+002
2.466760e+003, 2.261225e+002
2.468689e+003, 2.219742e+002
2.470617e+003, 2.201503e+002
2.472546e+003, 2.223376e+002
2.474474e+003, 2.227784e+002
2.476403e+003, 2.146806e+002
2.478331e+003, 2.174268e+002
2.480260e+003, 2.247587e+002
2.482188e+003, 2.255059e+002
2.484116e+003, 2.234114e+002
2.486045e+003, 2.194004e+002
2.487973e+003, 2.131665e+002
2.489902e+003, 2.076778e+002
2.491830e+003, 2.067891e+002
2.493759e+003, 2.260117e+002
2.495687e+003, 2.322720e+002
2.497616e+003, 2.230459e+002
2.499544e+003, 2.258313e+002
2.501473e+003, 2.239880e+002
2.503401e+003, 2.142408e+002
2.505330e+003, 2.191271e+002
2.507258e+003, 2.266106e+002
2.509187e+003, 2.311770e+002
2.511115e+003, 2.203337e+002
2.513043e+003, 2.103553e+002
2.514972e+003, 2.115344e+002
2.516900e+003, 2.270550e+002
2.518829e+003, 2.341008e+002
2.520757e+003, 2.064580e+002
2.522686e+003, 2.037169e+002
2.524614e+003, 2.097917e+002
2.526543e+003, 2.068460e+002
2.528471e+003, 2.135170e+002
2.530400e+003, 2.218869e+002
2.532328e+003, 2.208674e+002
2.534257e+003, 2.265756e+002
2.536185e+003, 2.305363e+002
2.538114e+003, 2.168183e+002
2.540042e+003, 2.058335e+002
2.541970e+003, 2.033954e+002
2.543899e+003, 2.201821e+002
2.545827e+003, 2.217814e+002
2.547756e+003, 2.130102e+002
2.549684e+003, 2.163659e+002
2.551613e+003, 2.186718e+002
2.553541e+003, 2.183965e+002
2.555470e+003, 2.154790e+002
2.557398e+003, 2.150886e+002
2.559327e+003, 2.183888e+002
2.561255e+003, 2.268266e+002
2.563184e+003, 2.367766e+002
2.565112e+003, 2.412542e+002
2.567041e+003, 2.143732e+002
2.568969e+003, 2.055292e+002
2.570897e+003, 2.163640e+002
2.572826e+003, 2.159524e+002
2.574754e+003, 2.090229e+002
2.576683e+003, 2.000718e+002
2.578611e+003, 1.978694e+002
2.580540e+003, 2.090883e+002
2.582468e+003, 2.288541e+002
2.584397e+003, 2.259394e+002
2.586325e+003, 2.152072e+002
2.588254e+003, 2.032057e+002
2.590182e+003, 2.047692e+002
2.592111e+003, 2.055505e+002
2.594039e+003, 2.033125e+002
2.595968e+003, 2.133263e+002
2.597896e+003, 2.145625e+002
2.599824e+003, 2.064530e+002
2.601753e+003, 2.310168e+002
2.603681e+003, 2.316885e+002
2.605610e+003, 2.032271e+002
2.607538e+003, 2.098477e+002
2.609467e+003, 2.099529e+002
2.611395e+003, 1.967946e+002
2.613324e+003, 1.918740e+002
2.615252e+003, 2.019697e+002
2.617181e+003, 2.195569e+002
2.619109e+003, 2.022756e+002
2.621038e+003, 1.909806e+002
2.622966e+003, 1.928835e+002
2.624895e+003, 1.965317e+002
2.626823e+003, 1.980287e+002
2.628751e+003, 1.971026e+002
2.630680e+003, 1.918868e+002
2.632608e+003, 2.016048e+002
2.634537e+003, 2.203095e+002
2.636465e+003, 2.252682e+002
2.638394e+003, 2.172401e+002
2.640322e+003, 2.057430e+002
2.642251e+003, 2.126477e+002
2.644179e+003, 2.161046e+002
2.646108e+003, 2.141054e+002
2.648036e+003, 2.088458e+002
2.649965e+003, 2.044536e+002
2.651893e+003, 2.002592e+002
2.653822e+003, 1.919939e+002
2.655750e+003, 1.974338e+002
2.657678e+003, 2.081301e+002
2.659607e+003, 2.100507e+002
2.661535e+003, 2.241342e+002
2.663464e+003, 2.297245e+002
2.665392e+003, 2.013729e+002
2.667321e+003, 2.039934e+002
2.669249e+003, 2.105034e+002
2.671178e+003, 1.940999e+002
2.673106e+003, 1.901290e+002
2.675035e+003, 1.991071e+002
2.676963e+003, 2.178689e+002
2.678892e+003, 2.047800e+002
2.680820e+003, 1.930853e+002
2.682749e+003, 1.995156e+002
2.684677e+003, 2.108996e+002
2.686605e+003, 2.144828e+002
2.688534e+003, 2.082856e+002
2.690462e+003, 2.091493e+002
2.692391e+003, 2.088642e+002
2.694319e+003, 2.070058e+002
2.696248e+003, 2.154917e+002
2.698176e+003, 2.203013e+002
2.700105e+003, 2.176848e+002
2.702033e+003, 2.040697e+002
2.703962e+003, 1.947841e+002
2.705890e+003, 1.964542e+002
2.707819e+003, 2.249558e+002
2.709747e+003, 2.210459e+002
2.711676e+003, 2.051014e+002
2.713604e+003, 2.149734e+002
2.715532e+003, 2.270427e+002
2.717461e+003, 2.277594e+002
2.719389e+003, 2.028144e+002
2.721318e+003, 1.903414e+002
2.723246e+003, 1.961152e+002
2.725175e+003, 2.241517e+002
2.727103e+003, 1.979274e+002
2.729032e+003, 1.757263e+002
2.730960e+003, 1.837989e+002
2.732889e+003, 2.089314e+002
2.734817e+003, 2.134062e+002
2.736746e+003, 1.958348e+002
2.738674e+003, 1.968913e+002
2.740603e+003, 2.075827e+002
2.742531e+003, 2.171270e+002
2.744459e+003, 2.045765e+002
2.746388e+003, 1.804649e+002
2.748316e+003, 1.652826e+002
2.750245e+003, 1.871290e+002
2.752173e+003, 1.904272e+002
2.754102e+003, 1.946958e+002
2.756030e+003, 2.175305e+002
2.757959e+003, 2.149897e+002
2.759887e+003, 2.048213e+002
2.761816e+003, 1.983381e+002
2.763744e+003, 2.205270e+002
2.765673e+003, 2.189382e+002
2.767601e+003, 1.932575e+002
2.769530e+003, 1.873780e+002
2.771458e+003, 2.011082e+002
2.773386e+003, 2.194657e+002
2.775315e+003, 2.207688e+002
2.777243e+003, 1.947792e+002
2.779172e+003, 1.730179e+002
2.781100e+003, 1.898572e+002
2.783029e+003, 1.953681e+002
2.784957e+003, 1.998311e+002
2.786886e+003, 2.096277e+002
2.788814e+003, 1.770645e+002
2.790743e+003, 1.887795e+002
2.792671e+003, 2.435158e+002
2.794600e+003, 1.880616e+002
2.796528e+003, 1.687834e+002
2.798457e+003, 1.854820e+002
2.800385e+003, 1.944874e+002
2.802313e+003, 1.873757e+002
2.804242e+003, 1.845605e+002
2.806170e+003, 2.030499e+002
2.808099e+003, 2.148454e+002
2.810027e+003, 2.142907e+002
2.811956e+003, 2.040121e+002
2.813884e+003, 2.119192e+002
2.815813e+003, 1.920937e+002
2.817741e+003, 1.602885e+002
2.819670e+003, 1.937649e+002
2.821598e+003, 2.113483e+002
2.823527e+003, 2.105966e+002
2.825455e+003, 1.985882e+002
2.827384e+003, 1.908127e+002
2.829312e+003, 1.963966e+002
2.831240e+003, 2.197963e+002
2.833169e+003, 2.316219e+002
2.835097e+003, 2.175120e+002
2.837026e+003, 1.894086e+002
2.838954e+003, 2.012735e+002
2.840883e+003, 2.073753e+002
2.842811e+003, 1.988114e+002
2.844740e+003, 1.730796e+002
2.846668e+003, 1.457205e+002
2.848597e+003, 1.478115e+002
2.850525e+003, 1.938049e+002
2.852454e+003, 1.924685e+002
2.854382e+003, 1.857595e+002
2.856311e+003, 1.838053e+002
2.858239e+003, 1.761592e+002
2.860167e+003, 1.745410e+002
2.862096e+003, 1.758383e+002
2.864024e+003, 1.750795e+002
2.865953e+003, 2.137304e+002
2.867881e+003, 2.293184e+002
2.869810e+003, 1.996243e+002
2.871738e+003, 1.601102e+002
2.873667e+003, 1.323938e+002
2.875595e+003, 1.334890e+002
2.877524e+003, 2.104109e+002
2.879452e+003, 2.041677e+002
2.881381e+003, 1.714354e+002
2.883309e+003, 1.673984e+002
2.885238e+003, 1.893621e+002
2.887166e+003, 2.008794e+002
2.889094e+003, 2.016756e+002
2.891023e+003, 2.436906e+002
2.892951e+003, 2.383177e+002
2.894880e+003, 2.073096e+002
2.896808e+003, 1.868545e+002
2.898737e+003, 2.100795e+002
2.900665e+003, 2.129406e+002
2.902594e+003, 1.754428e+002
2.904522e+003, 1.873949e+002
2.906451e+003, 1.949131e+002
2.908379e+003, 1.966451e+002
2.910308e+003, 2.069262e+002
2.912236e+003, 2.216816e+002
2.914165e+003, 2.140950e+002
2.916093e+003, 1.762941e+002
2.918021e+003, 1.588213e+002
2.919950e+003, 1.884620e+002
2.921878e+003, 2.262165e+002
2.923807e+003, 1.790903e+002
2.925735e+003, 1.893372e+002
2.927664e+003, 2.042955e+002
2.929592e+003, 1.879631e+002
2.931521e+003, 1.826889e+002
2.933449e+003, 1.828861e+002
2.935378e+003, 1.888837e+002
2.937306e+003, 2.146425e+002
2.939235e+003, 1.921004e+002
2.941163e+003, 1.791361e+002
2.943092e+003, 2.126839e+002
2.945020e+003, 1.573263e+002
2.946948e+003, 1.689331e+002
2.948877e+003, 2.219770e+002
2.950805e+003, 1.828352e+002
2.952734e+003, 1.801841e+002
2.954662e+003, 1.910441e+002
2.956591e+003, 1.927716e+002
2.958519e+003, 1.788961e+002
2.960448e+003, 2.080618e+002
2.962376e+003, 2.470213e+002
2.964305e+003, 2.184693e+002
2.966233e+003, 2.089455e+002
2.968162e+003, 1.924873e+002
2.970090e+003, 1.585858e+002
2.972019e+003, 1.674689e+002
2.973947e+003, 2.089541e+002
2.975875e+003, 2.435179e+002
2.977804e+003, 2.246381e+002
2.979732e+003, 2.286473e+002
2.981661e+003, 2.205444e+002
2.983589e+003, 1.899817e+002
2.985518e+003, 1.590340e+002
2.987446e+003, 1.444403e+002
2.989375e+003, 1.473671e+002
2.991303e+003, 1.659555e+002
2.993232e+003, 1.896598e+002
2.995160e+003, 1.884241e+002
2.997089e+003, 1.774644e+002
2.999017e+003, 2.171420e+002
3.000946e+003, 2.101347e+002
3.002874e+003, 1.982913e+002
3.004802e+003, 2.076898e+002
3.006731e+003, 1.544119e+002
3.008659e+003, 1.559460e+002
3.010588e+003, 1.808153e+002
3.012516e+003, 1.606470e+002
3.014445e+003, 1.158454e+002
3.016373e+003, 1.327136e+002
3.018302e+003, 2.017193e+002
3.020230e+003, 1.907684e+002
3.022159e+003, 1.621792e+002
3.024087e+003, 1.484538e+002
3.026016e+003, 1.612824e+002
3.027944e+003, 1.564282e+002
3.029873e+003, 1.646470e+002
3.031801e+003, 1.892469e+002
3.033729e+003, 2.242018e+002
3.035658e+003, 2.104715e+002
3.037586e+003, 1.906270e+002
3.039515e+003, 1.834813e+002
3.041443e+003, 1.919883e+002
3.043372e+003, 1.789573e+002
3.045300e+003, 1.830623e+002
3.047229e+003, 2.217434e+002
3.049157e+003, 2.468361e+002
3.051086e+003, 2.345922e+002
3.053014e+003, 1.991940e+002
3.054943e+003, 1.564942e+002
3.056871e+003, 2.083968e+002
3.058800e+003, 1.932737e+002
3.060728e+003, 1.423894e+002
3.062656e+003, 2.298722e+002
3.064585e+003, 1.890461e+002
3.066513e+003, 1.328224e+002
3.068442e+003, 1.366365e+002
3.070370e+003, 2.502772e+002
3.072299e+003, 2.132772e+002
3.074227e+003, 1.819879e+002
3.076156e+003, 2.723021e+002
3.078084e+003, 2.035428e+002
3.080013e+003, 1.649895e+002
3.081941e+003, 1.664322e+002
3.083870e+003, 1.776143e+002
3.085798e+003, 1.998190e+002
3.087727e+003, 2.126947e+002
3.089655e+003, 2.117980e+002
3.091583e+003, 1.993551e+002
3.093512e+003, 1.950990e+002
3.095440e+003, 2.157918e+002
3.097369e+003, 2.516116e+002
3.099297e+003, 2.814013e+002
3.101226e+003, 1.992951e+002
3.103154e+003, 1.355596e+002
3.105083e+003, 1.438297e+002
3.107011e+003, 1.656452e+002
3.108940e+003, 1.723886e+002
3.110868e+003, 1.840379e+002
3.112797e+003, 2.088261e+002
3.114725e+003, 1.748114e+002
3.116654e+003, 1.520864e+002
3.118582e+003, 1.512490e+002
3.120510e+003, 1.696078e+002
3.122439e+003, 1.758719e+002
3.124367e+003, 2.611249e+002
3.126296e+003, 3.006945e+002
3.128224e+003, 1.650755e+002
3.130153e+003, 1.771218e+002
3.132081e+003, 2.318897e+002
3.134010e+003, 2.629683e+002
3.135938e+003, 2.300749e+002
3.137867e+003, 1.623450e+002
3.139795e+003, 1.429696e+002
3.141724e+003, 1.791090e+002
3.143652e+003, 2.416737e+002
3.145581e+003, 2.471477e+002
3.147509e+003, 1.786139e+002
3.149438e+003, 1.156131e+002
3.151366e+003, 2.083350e+002
3.153294e+003, 2.612426e+002
3.155223e+003, 2.271196e+002
3.157151e+003, 1.666607e+002
3.159080e+003, 2.358210e+002
3.161008e+003, 2.055717e+002
3.162937e+003, 1.834715e+002
3.164865e+003, 1.984040e+002
3.166794e+003, 2.304138e+002
3.168722e+003, 1.379694e+002
3.170651e+003, 1.075499e+002
3.172579e+003, 1.680249e+002
3.174508e+003, 2.153797e+002
3.176436e+003, 2.034701e+002
3.178365e+003, 2.305592e+002
3.180293e+003, 2.739682e+002
3.182221e+003, 2.025619e+002
3.184150e+003, 1.509688e+002
3.186078e+003, 1.506316e+002
3.188007e+003, 1.704820e+002
3.189935e+003, 1.378680e+002
3.191864e+003, 1.953474e+002
3.193792e+003, 2.508075e+002
3.195721e+003, 2.529148e+002
3.197649e+003, 1.802844e+002
3.199578e+003, 2.249026e+002
3.201506e+003, 2.401023e+002
3.203435e+003, 2.112244e+002
3.205363e+003, 2.016716e+002
3.207292e+003, 1.262054e+002
3.209220e+003, 1.789961e+002
3.211148e+003, 2.790269e+002
3.213077e+003, 2.369878e+002
3.215005e+003, 2.136145e+002
3.216934e+003, 2.077338e+002
3.218862e+003, 1.881824e+002
3.220791e+003, 1.202899e+002
3.222719e+003, 1.786976e+002
3.224648e+003, 1.964233e+002
3.226576e+003, 1.538948e+002
3.228505e+003, 7.668474e+001
3.230433e+003, 8.822236e+001
3.232362e+003, 1.875023e+002
3.234290e+003, 2.698775e+002
3.236219e+003, 2.744082e+002
3.238147e+003, 2.721592e+002
3.240075e+003, 2.041809e+002
3.242004e+003, 1.923605e+002
3.243932e+003, 2.611004e+002
3.245861e+003, 2.764263e+002
3.247789e+003, 1.950698e+002
3.249718e+003, 1.466895e+002
3.251646e+003, 1.575919e+002
3.253575e+003, 1.526494e+002
3.255503e+003, 3.738199e+002
3.257432e+003, 3.873141e+002
3.259360e+003, 2.344631e+002
3.261289e+003, 1.694092e+002
3.263217e+003, 1.996850e+002
3.265146e+003, 2.226158e+002
3.267074e+003, 2.292010e+002
3.269002e+003, 2.299696e+002
3.270931e+003, 1.593418e+002
3.272859e+003, 5.808048e+001
3.274788e+003, 8.157665e+000
3.276716e+003, 6.455325e+001
3.278645e+003, 2.630905e+002
3.280573e+003, 1.861080e+002
3.282502e+003, 1.715255e+002
3.284430e+003, 2.430865e+002
3.286359e+003, 1.251635e+002
3.288287e+003, 1.887918e+002
3.290216e+003, 1.484413e+002
3.292144e+003, 1.221396e+002
3.294073e+003, 2.929037e+002
3.296001e+003, 2.157209e+002
3.297929e+003, 2.731776e+002
3.299858e+003, 3.125276e+002
3.301786e+003, 2.422896e+002
3.303715e+003, 3.040875e+002
3.305643e+003, 3.444904e+002
3.307572e+003, 2.715219e+002
3.309500e+003, 1.414723e+002
3.311429e+003, 9.451725e+001
3.313357e+003, 2.089681e+002
3.315286e+003, 3.116156e+002
3.317214e+003, 2.976501e+002
3.319143e+003, 1.502570e+002
3.321071e+003, 2.852008e+002
3.323000e+003, 2.194678e+002
3.324928e+003, 1.826036e+002
3.326856e+003, 2.492999e+002
3.328785e+003, 1.751749e+002
3.330713e+003, 1.960831e+002
3.332642e+003, 2.299910e+002
3.334570e+003, 2.022109e+002
3.336499e+003, 1.039573e+002
3.338427e+003, 2.142466e+002
3.340356e+003, 3.509538e+002
3.342284e+003, 4.057519e+002
3.344213e+003, 3.575038e+002
3.346141e+003, 2.490053e+002
3.348070e+003, 3.219076e+002
3.349998e+003, 3.478331e+002
3.351927e+003, 2.365681e+002
3.353855e+003, 2.676685e+001
3.355783e+003, 1.422776e+002
3.357712e+003, 1.744705e+002
3.359640e+003, 1.494264e+002
3.361569e+003, 1.547465e+002
3.363497e+003, 2.906107e+002
3.365426e+003, 2.133423e+002
3.367354e+003, 1.781690e+002
3.369283e+003, 1.926104e+002
3.371211e+003, 1.877174e+002
3.373140e+003, 1.916099e+002
3.375068e+003, 2.124302e+002
3.376997e+003, 2.070878e+002
3.378925e+003, 1.912780e+002
3.380854e+003, 2.283117e+002
3.382782e+003, 2.477692e+002
3.384710e+003, 3.354301e+002
3.386639e+003, 2.679257e+002
3.388567e+003, 1.124436e+001
3.390496e+003, 6.730009e+001
3.392424e+003, 2.054125e+002
3.394353e+003, 3.115918e+002
3.396281e+003, 3.064459e+002
3.398210e+003, 1.821230e+002
3.400138e+003, 2.426290e+002
3.402067e+003, 1.599023e+002
3.403995e+003, 1.417961e+002
3.405924e+003, 2.056041e+002
3.407852e+003, 1.485078e+002
3.409781e+003, 6.509906e+001
3.411709e+003, 5.984309e+001
3.413637e+003, 2.630775e+002
3.415566e+003, 5.315986e+002
3.417494e+003, 2.062733e+002
3.419423e+003, 5.289865e+002
3.421351e+003, 4.356748e+002
3.423280e+003, 2.355553e+002
3.425208e+003, 3.762705e+002
3.427137e+003, 2.469848e+002
3.429065e+003, 3.337831e+002
3.430994e+003, 2.456442e+002
3.432922e+003, 1.051721e+002
3.434851e+003, 2.177177e+002
3.436779e+003, 4.551654e+002
3.438708e+003, 2.598814e+002
3.440636e+003, 1.390003e+002
3.442564e+003, 1.924619e+002
3.444493e+003, 2.041417e+002
3.446421e+003, 1.655342e+002
3.448350e+003, 2.375556e+002
3.450278e+003, 1.402354e+002
3.452207e+003, -1.557931e+001
3.454135e+003, 2.283585e+002
3.456064e+003, -4.603978e+001
##END=



