##NAMES=Barytolamprophyllite
##RRUFFID=R120087
##IDEAL CHEMISTRY=(BaK)Ti_2_Na_3_Ti(Si_2_O_7_)_2_O_2_(OH)_2_
##LOCALITY=Coyote Peak, Orick, Humboldt County, California, USA
##OWNER=RRUFF
##SOURCE=Michael Scott
##DESCRIPTION=Tabular reddish brown massive, associated with phlogopite, bartonite and R070139 erdite
##STATUS=The identification of this mineral has been confirmed only by single crystal X-ray diffraction
##URL=https://www.rruff.net/odr/rruff_sample/R120087
##DIFFRACTION SAMPLE DESCRIPTION=Single crystal, powder profile is calculated
##CELL PARAMETERS=a: 19.87 b: 7.086 c: 5.392 alpha: 90 beta: 96.56 gamma: 90 volume: 754.2 crystal system: monoclinic
##FILETYPE=Raman Processed
##RAMAN WAVELENGTH=532

194.5235, 1050.798
196.4519, 1098.690
198.3804, 1149.227
200.3089, 1200.268
202.2373, 1251.432
204.1658, 1304.639
206.0943, 1361.823
208.0227, 1422.599
209.9512, 1479.849
211.8797, 1540.584
213.8081, 1593.266
215.7366, 1632.838
217.6651, 1659.750
219.5935, 1671.344
221.5220, 1665.720
223.4505, 1641.223
225.3789, 1613.339
227.3074, 1579.124
229.2359, 1542.687
231.1643, 1507.331
233.0928, 1472.066
235.0213, 1438.763
236.9497, 1407.061
238.8782, 1377.107
240.8067, 1351.166
242.7351, 1330.824
244.6636, 1314.401
246.5921, 1301.058
248.5205, 1292.670
250.4490, 1285.717
252.3775, 1280.355
254.3059, 1276.501
256.2344, 1273.205
258.1629, 1268.547
260.0913, 1265.213
262.0198, 1266.643
263.9483, 1271.087
265.8767, 1281.613
267.8052, 1299.891
269.7337, 1325.234
271.6621, 1354.981
273.5906, 1390.890
275.5191, 1429.312
277.4475, 1465.750
279.3760, 1498.633
281.3045, 1531.851
283.2329, 1565.982
285.1614, 1600.504
287.0899, 1638.411
289.0183, 1680.280
290.9468, 1725.451
292.8753, 1773.350
294.8037, 1824.370
296.7322, 1878.044
298.6607, 1933.786
300.5891, 1991.672
302.5176, 2052.737
304.4461, 2122.403
306.3745, 2191.444
308.3030, 2254.338
310.2315, 2313.462
312.1599, 2359.603
314.0884, 2393.491
316.0169, 2413.578
317.9453, 2416.584
319.8738, 2399.664
321.8023, 2367.509
323.7307, 2324.486
325.6592, 2263.145
327.5877, 2201.970
329.5161, 2139.511
331.4446, 2078.089
333.3731, 2026.483
335.3015, 1985.956
337.2300, 1954.900
339.1585, 1932.002
341.0869, 1924.244
343.0154, 1915.476
344.9439, 1906.582
346.8723, 1896.448
348.8008, 1883.075
350.7293, 1865.690
352.6578, 1845.900
354.5862, 1824.112
356.5147, 1798.306
358.4432, 1774.466
360.3716, 1753.456
362.3001, 1734.069
364.2286, 1714.644
366.1570, 1693.475
368.0855, 1674.183
370.0140, 1657.874
371.9424, 1645.085
373.8709, 1634.380
375.7994, 1625.270
377.7278, 1618.906
379.6563, 1616.038
381.5848, 1618.273
383.5132, 1622.209
385.4417, 1628.979
387.3702, 1637.804
389.2986, 1643.193
391.2271, 1650.001
393.1556, 1648.262
395.0840, 1632.624
397.0125, 1595.769
398.9410, 1554.985
400.8694, 1507.626
402.7979, 1457.309
404.7264, 1411.635
406.6548, 1371.654
408.5833, 1335.600
410.5118, 1302.329
412.4402, 1272.035
414.3687, 1244.824
416.2972, 1223.457
418.2256, 1203.853
420.1541, 1182.138
422.0826, 1159.023
424.0110, 1132.290
425.9395, 1101.182
427.8680, 1065.649
429.7964, 1029.061
431.7249, 990.7432
433.6534, 951.8643
435.5818, 912.1957
437.5103, 870.2855
439.4388, 832.5317
441.3672, 797.9317
443.2957, 767.9211
445.2242, 745.9011
447.1526, 734.3100
449.0811, 726.4142
451.0096, 720.2302
452.9380, 715.8432
454.8665, 711.9681
456.7950, 707.9909
458.7234, 704.8210
460.6519, 703.5485
462.5804, 704.2652
464.5089, 705.8718
466.4373, 709.0826
468.3658, 713.1371
470.2943, 715.2264
472.2227, 716.2000
474.1512, 714.4117
476.0797, 707.5909
478.0081, 695.9305
479.9366, 685.4615
481.8651, 678.1224
483.7935, 672.1736
485.7220, 666.2320
487.6505, 659.0940
489.5789, 653.5214
491.5074, 650.9383
493.4359, 650.1765
495.3643, 648.2751
497.2928, 645.7022
499.2213, 640.7037
501.1497, 632.0694
503.0782, 618.0593
505.0067, 605.3347
506.9351, 592.8123
508.8636, 582.4520
510.7921, 575.6509
512.7205, 572.9138
514.6490, 572.9411
516.5775, 574.0430
518.5059, 577.0751
520.4344, 585.8768
522.3629, 602.3516
524.2913, 621.6466
526.2198, 642.0770
528.1483, 663.4637
530.0767, 686.8664
532.0052, 715.0815
533.9337, 743.8944
535.8621, 770.7867
537.7906, 798.1052
539.7191, 818.5848
541.6475, 827.0545
543.5760, 827.9903
545.5045, 828.7367
547.4329, 828.2177
549.3614, 828.7114
551.2899, 829.5363
553.2183, 830.9992
555.1468, 837.5831
557.0753, 849.3269
559.0037, 866.8609
560.9322, 889.8759
562.8607, 918.9432
564.7891, 952.6719
566.7176, 992.2480
568.6461, 1035.578
570.5745, 1080.410
572.5030, 1127.978
574.4315, 1174.097
576.3599, 1223.403
578.2884, 1272.544
580.2169, 1302.094
582.1453, 1308.204
584.0738, 1298.406
586.0023, 1271.265
587.9307, 1226.782
589.8592, 1174.829
591.7877, 1111.394
593.7161, 1044.365
595.6447, 978.3957
597.5731, 912.8503
599.5016, 850.9688
601.4301, 792.8757
603.3585, 738.6750
605.2870, 687.8614
607.2155, 639.5106
609.1439, 595.9820
611.0724, 557.9675
613.0009, 524.8774
614.9293, 496.0698
616.8578, 471.3707
618.7863, 450.6989
620.7147, 434.9767
622.6432, 423.9320
624.5717, 415.3398
626.5001, 408.7147
628.4286, 405.1816
630.3571, 405.5385
632.2855, 411.6952
634.2140, 418.2888
636.1425, 423.8393
638.0709, 430.6214
639.9994, 441.1500
641.9279, 455.7921
643.8563, 472.0136
645.7848, 489.8008
647.7133, 508.4458
649.6417, 526.6360
651.5702, 544.0118
653.4987, 561.2422
655.4271, 577.9218
657.3556, 594.4815
659.2841, 612.0356
661.2125, 630.1014
663.1410, 650.2672
665.0695, 672.9307
666.9979, 698.2294
668.9264, 726.0263
670.8549, 756.4775
672.7833, 788.9606
674.7118, 823.8105
676.6403, 860.8320
678.5687, 898.5062
680.4972, 940.2057
682.4257, 980.1791
684.3541, 1013.952
686.2826, 1045.233
688.2111, 1063.799
690.1395, 1068.960
692.0680, 1060.739
693.9965, 1040.844
695.9249, 1008.717
697.8534, 966.9119
699.7819, 912.0065
701.7103, 848.5397
703.6388, 787.9736
705.5673, 728.7182
707.4957, 674.1398
709.4242, 623.8261
711.3527, 579.0064
713.2811, 542.9239
715.2096, 518.5499
717.1381, 499.5819
719.0665, 482.9650
720.9950, 468.6272
722.9235, 458.4053
724.8519, 453.3728
726.7804, 450.7816
728.7089, 449.5031
730.6373, 449.5004
732.5658, 451.3908
734.4943, 456.0623
736.4227, 462.1475
738.3512, 468.7489
740.2797, 475.6062
742.2081, 483.6362
744.1366, 491.9934
746.0651, 501.8085
747.9935, 514.6677
749.9220, 530.6974
751.8505, 547.0587
753.7789, 562.2646
755.7074, 578.0706
757.6359, 596.1826
759.5643, 617.9966
761.4928, 640.1871
763.4213, 661.7790
765.3497, 683.9507
767.2782, 708.3688
769.2067, 735.4219
771.1351, 763.1041
773.0636, 790.4514
774.9921, 818.1185
776.9205, 847.1561
778.8490, 876.8289
780.7775, 908.8903
782.7059, 944.5470
784.6344, 982.6187
786.5629, 1020.206
788.4913, 1056.047
790.4198, 1094.016
792.3483, 1136.867
794.2767, 1182.942
796.2052, 1227.772
798.1337, 1269.053
800.0621, 1312.288
801.9906, 1358.415
803.9191, 1407.406
805.8475, 1459.104
807.7760, 1513.828
809.7045, 1569.990
811.6329, 1626.353
813.5614, 1683.197
815.4899, 1742.458
817.4183, 1803.716
819.3468, 1867.961
821.2753, 1935.552
823.2037, 2006.568
825.1322, 2080.690
827.0607, 2154.284
828.9891, 2235.839
830.9176, 2328.143
832.8461, 2431.152
834.7745, 2547.301
836.7030, 2676.728
838.6315, 2821.370
840.5599, 2984.572
842.4884, 3164.550
844.4169, 3350.546
846.3453, 3544.878
848.2738, 3739.883
850.2023, 3937.712
852.1307, 4133.606
854.0592, 4315.657
855.9877, 4481.235
857.9161, 4633.077
859.8446, 4770.045
861.7731, 4893.820
863.7015, 5016.774
865.6300, 5125.169
867.5585, 5248.835
869.4869, 5389.259
871.4154, 5552.583
873.3439, 5750.271
875.2723, 5987.331
877.2008, 6253.483
879.1293, 6555.216
881.0577, 6883.944
882.9862, 7203.543
884.9147, 7541.086
886.8431, 7838.400
888.7716, 8098.310
890.7001, 8305.634
892.6285, 8433.884
894.5570, 8483.454
896.4855, 8456.179
898.4139, 8338.086
900.3424, 8145.442
902.2709, 7901.537
904.1993, 7585.970
906.1278, 7242.582
908.0563, 6868.017
909.9847, 6471.690
911.9132, 6069.007
913.8417, 5649.303
915.7701, 5249.722
917.6986, 4874.977
919.6271, 4531.405
921.5555, 4222.938
923.4840, 3949.984
925.4125, 3717.559
927.3410, 3527.886
929.2695, 3373.378
931.1979, 3248.444
933.1264, 3160.964
935.0549, 3086.586
936.9833, 3033.361
938.9118, 2986.074
940.8403, 2934.345
942.7687, 2878.313
944.6972, 2811.099
946.6257, 2734.125
948.5541, 2642.033
950.4826, 2530.342
952.4111, 2396.439
954.3395, 2254.684
956.2680, 2097.474
958.1965, 1941.229
960.1249, 1789.493
962.0534, 1643.836
963.9819, 1516.066
965.9103, 1407.301
967.8388, 1316.203
969.7673, 1244.106
971.6957, 1188.948
973.6242, 1140.774
975.5527, 1099.952
977.4811, 1066.696
979.4096, 1042.621
981.3381, 1026.747
983.2665, 1015.723
985.1950, 1008.851
987.1235, 1007.391
989.0519, 1013.557
990.9804, 1024.711
992.9089, 1036.522
994.8373, 1047.111
996.7658, 1063.925
998.6943, 1091.611
1000.623, 1123.868
1002.551, 1154.683
1004.480, 1181.955
1006.408, 1213.177
1008.337, 1249.679
1010.265, 1289.226
1012.194, 1330.406
1014.122, 1373.302
1016.050, 1419.266
1017.979, 1469.650
1019.907, 1521.836
1021.836, 1574.912
1023.764, 1628.615
1025.693, 1680.818
1027.621, 1731.360
1029.550, 1780.134
1031.478, 1825.173
1033.407, 1868.405
1035.335, 1915.136
1037.264, 1964.879
1039.192, 2018.787
1041.120, 2077.777
1043.049, 2140.995
1044.977, 2208.232
1046.906, 2280.642
1048.834, 2349.979
1050.763, 2422.861
1052.691, 2485.366
1054.620, 2529.931
1056.548, 2557.815
1058.477, 2558.984
1060.405, 2538.225
1062.334, 2489.406
1064.262, 2406.883
1066.191, 2291.628
1068.119, 2152.205
1070.047, 1980.821
1071.976, 1799.634
1073.904, 1606.775
1075.833, 1412.042
1077.761, 1231.425
1079.690, 1061.273
1081.618, 914.4543
1083.547, 794.1111
1085.475, 694.6788
1087.404, 613.1605
1089.332, 552.8537
1091.261, 500.6217
1093.189, 456.5357
1095.118, 420.4088
1097.046, 394.7563
1098.975, 377.4293
1100.903, 361.3844
1102.832, 345.0525
1104.760, 332.1030
1106.688, 325.3259
1108.617, 322.1771
1110.545, 317.5698
1112.474, 309.8229
1114.402, 303.5445
1116.331, 299.5421
1118.259, 296.7493
1120.188, 294.3940
1122.116, 292.5091
1124.045, 290.6396
1125.973, 288.2661
1127.902, 286.4143
1129.830, 286.0841
1131.759, 286.6817
1133.687, 286.4474
1135.615, 285.1327
1137.544, 283.2349
1139.472, 280.4110
1141.401, 277.3710
1143.329, 275.0942
1145.258, 273.9140
1147.186, 272.9612
1149.115, 272.1781
1151.043, 271.6600
1152.972, 271.4812
1154.900, 271.6255
1156.829, 271.9918
1158.757, 272.7616
1160.686, 273.4254
1162.614, 274.0761
1164.542, 274.4130
1166.471, 273.8015
1168.399, 272.0162
1170.328, 270.0431
1172.256, 267.1201
1174.185, 264.8420
1176.113, 264.7340
1178.042, 267.2466
1179.970, 268.7445
1181.899, 268.5269
1183.827, 268.1574
1185.756, 268.2960
1187.684, 268.6305
1189.613, 268.3315
1191.541, 267.1543
1193.469, 266.3246
1195.398, 266.2530
1197.326, 266.6445
1199.255, 267.5368
1201.183, 268.9389
1203.112, 269.4175
1205.040, 268.2457
1206.969, 266.7538
1208.897, 264.8839
1210.826, 263.0157
1212.754, 262.2043
1214.683, 263.8465
1216.611, 264.6270
1218.540, 264.0811
1220.468, 263.0424
1222.396, 262.0201
1224.325, 261.0633
1226.253, 260.5663
1228.182, 260.4317
1230.110, 260.9185
1232.039, 262.3905
1233.967, 264.4032
1235.896, 266.6004
1237.824, 269.3914
1239.753, 270.4338
1241.681, 267.5699
1243.610, 264.3335
1245.538, 262.8978
1247.467, 263.2831
1249.395, 263.2037
1251.323, 262.1871
1253.252, 261.4377
1255.180, 261.3116
1257.109, 261.5381
1259.037, 261.9465
1260.966, 262.6929
1262.894, 262.4174
1264.823, 259.8707
1266.751, 257.4638
1268.680, 256.4729
1270.608, 256.5449
1272.537, 257.1521
1274.465, 258.7349
1276.394, 259.4340
1278.322, 257.7118
1280.250, 255.7356
1282.179, 255.1108
1284.107, 255.9746
1286.036, 256.9346
1287.964, 258.6003
1289.893, 259.5908
1291.821, 259.0037
1293.750, 257.7379
1295.678, 257.2481
1297.607, 257.7355
1299.535, 258.3193
1301.464, 259.2466
1303.392, 259.9603
1305.321, 260.2850
1307.249, 260.1599
1309.177, 259.2738
1311.106, 257.2002
1313.034, 255.9634
1314.963, 256.6173
1316.891, 257.8805
1318.820, 258.8020
1320.748, 259.4483
1322.677, 260.5494
1324.605, 262.7622
1326.534, 264.3297
1328.462, 264.5992
1330.391, 264.1370
1332.319, 263.5438
1334.248, 262.8140
1336.176, 261.9544
1338.104, 260.8900
1340.033, 259.8419
1341.961, 258.4678
1343.890, 257.2943
1345.818, 257.7086
1347.747, 260.3532
1349.675, 261.5366
1351.604, 259.1286
1353.532, 256.8785
1355.461, 257.3176
1357.389, 259.1757
1359.318, 259.4029
1361.246, 257.4597
1363.175, 256.0579
1365.103, 255.8839
1367.031, 256.5417
1368.960, 258.3792
1370.888, 261.0185
1372.817, 262.0597
1374.745, 260.6689
1376.674, 259.2594
1378.602, 257.9465
1380.531, 257.0121
1382.459, 256.8470
1384.388, 257.4600
1386.316, 257.7593
1388.245, 257.9676
1390.173, 257.6285
1392.102, 256.1350
1394.030, 254.4781
1395.958, 253.6733
1397.887, 253.7728
1399.815, 253.7978
1401.744, 253.5573
1403.672, 253.4963
1405.601, 253.9499
1407.529, 254.5178
1409.458, 254.8967
1411.386, 255.0923
1413.315, 254.6236
1415.243, 252.9576
1417.172, 251.5894
1419.100, 251.2671
1421.029, 251.4561
1422.957, 251.7333
1424.885, 252.0912
1426.814, 251.8274
1428.742, 250.0016
1430.671, 248.9762
1432.599, 250.2323
1434.528, 252.2537
1436.456, 253.1704
1438.385, 252.8346
1440.313, 252.2149
1442.242, 251.2935
1444.170, 250.1224
1446.099, 247.8855
1448.027, 245.8363
1449.956, 246.0288
1451.884, 249.2502
1453.813, 250.5492
1455.741, 247.8978
1457.669, 246.0965
1459.598, 247.2970
1461.526, 249.4961
1463.455, 250.1629
1465.383, 249.2239
1467.312, 248.4848
1469.240, 248.0920
1471.169, 247.7299
1473.097, 246.8966
1475.026, 246.2964
1476.954, 247.0326
1478.883, 248.8783
1480.811, 249.8755
1482.740, 249.6318
1484.668, 249.1782
1486.596, 248.9281
1488.525, 248.6309
1490.453, 247.8182
1492.382, 246.6665
1494.310, 246.5061
1496.239, 248.0355
1498.167, 248.7907
1500.096, 247.2675
1502.024, 245.2883
1503.953, 243.8269
1505.881, 242.8969
1507.810, 242.8002
1509.738, 244.2602
1511.667, 244.9488
1513.595, 243.6925
1515.523, 242.5619
1517.452, 242.9976
1519.380, 244.4731
1521.309, 245.2216
1523.237, 245.2275
1525.166, 244.3911
1527.094, 241.2429
1529.023, 238.9142
1530.951, 239.4359
1532.880, 241.4251
1534.808, 242.3241
1536.737, 241.8617
1538.665, 241.3178
1540.594, 240.6807
1542.522, 240.0194
1544.450, 238.9609
1546.379, 238.1348
1548.307, 238.4315
1550.236, 239.8887
1552.164, 241.1499
1554.093, 242.3259
1556.021, 243.0699
1557.950, 243.5156
1559.878, 243.3068
1561.807, 241.7112
1563.735, 239.1541
1565.664, 237.4461
1567.592, 236.7876
1569.521, 236.2438
1571.449, 235.1977
1573.377, 234.7371
1575.306, 235.9948
1577.234, 238.0074
1579.163, 239.2856
1581.091, 239.8439
1583.020, 239.3538
1584.948, 237.0107
1586.877, 235.1083
1588.805, 234.8174
1590.734, 235.2672
1592.662, 235.8798
1594.591, 236.5509
1596.519, 236.5487
1598.448, 235.5236
1600.376, 234.7856
1602.304, 235.0971
1604.233, 235.2582
1606.161, 234.1536
1608.090, 232.4556
1610.018, 231.9282
1611.947, 232.7994
1613.875, 232.8698
1615.804, 231.2487
1617.732, 229.8818
1619.661, 229.8596
1621.589, 230.2837
1623.518, 230.1905
1625.446, 229.6553
1627.375, 229.3692
1629.303, 229.0563
1631.231, 229.7514
1633.160, 233.2188
1635.088, 235.9993
1637.017, 235.9429
1638.945, 233.9905
1640.874, 232.1025
1642.802, 230.2076
1644.731, 228.9915
1646.659, 229.1063
1648.588, 229.0181
1650.516, 227.8643
1652.445, 226.7585
1654.373, 226.8475
1656.302, 227.9227
1658.230, 228.3522
1660.158, 227.6362
1662.087, 227.6198
1664.015, 229.4782
1665.944, 230.9306
1667.872, 230.6822
1669.801, 229.8270
1671.729, 230.1324
1673.658, 231.8225
1675.586, 231.8742
1677.515, 228.9892
1679.443, 227.0190
1681.372, 227.0207
1683.300, 227.5734
1685.229, 228.0711
1687.157, 228.5023
1689.085, 228.8445
1691.014, 229.0859
1692.942, 229.1680
1694.871, 228.9223
1696.799, 228.7322
1698.728, 228.5154
1700.656, 228.5458
1702.585, 229.3188
1704.513, 230.5183
1706.442, 230.9448
1708.370, 230.2718
1710.299, 230.1141
1712.227, 231.4708
1714.156, 232.0390
1716.084, 230.3580
1718.012, 228.4424
1719.941, 228.2001
1721.869, 229.2273
1723.798, 229.5690
1725.726, 228.9901
1727.655, 228.5228
1729.583, 227.9286
1731.512, 227.9226
1733.440, 229.4813
1735.369, 231.0668
1737.297, 230.9548
1739.226, 229.5294
1741.154, 229.1440
1743.083, 230.1327
1745.011, 230.9346
1746.939, 230.6436
1748.868, 231.2169
1750.797, 234.7179
1752.725, 238.0401
1754.653, 237.6357
1756.582, 234.3547
1758.510, 233.1263
1760.439, 234.4548
1762.367, 235.5491
1764.296, 236.1499
1766.224, 236.4324
1768.153, 236.2640
1770.081, 236.0429
1772.010, 236.1774
1773.938, 236.5464
1775.867, 236.5125
1777.795, 235.9409
1779.724, 236.1189
1781.652, 237.9311
1783.580, 238.9944
1785.509, 237.4782
1787.437, 235.9157
1789.366, 236.4782
1791.294, 238.1556
1793.223, 238.3796
1795.151, 237.0819
1797.080, 236.5913
1799.008, 237.4979
1800.937, 238.3148
1802.865, 239.0020
1804.794, 239.0153
1806.722, 237.2625
1808.651, 235.0275
1810.579, 234.2922
1812.507, 234.9322
1814.436, 235.7571
1816.364, 236.7969
1818.293, 237.4792
1820.221, 237.7263
1822.150, 237.4701
1824.078, 236.2908
1826.007, 234.8828
1827.935, 233.9521
1829.864, 233.4835
1831.792, 233.4167
1833.721, 233.8006
1835.649, 234.3784
1837.578, 235.2334
1839.506, 236.0744
1841.434, 237.0152
1843.363, 237.6678
1845.291, 237.5383
1847.220, 236.9310
1849.148, 236.5432
1851.077, 236.3919
1853.005, 236.3295
1854.934, 236.7310
1856.862, 236.5803
1858.791, 235.0432
1860.719, 233.8150
1862.648, 234.1258
1864.576, 234.8553
1866.505, 234.2790
1868.433, 232.7511
1870.361, 232.8010
1872.290, 235.5694
1874.218, 237.1272
1876.147, 236.6111
1878.075, 236.1553
1880.004, 235.9642
1881.932, 236.2037
1883.861, 237.3652
1885.789, 238.8319
1887.718, 239.4159
1889.646, 239.0957
1891.575, 239.0938
1893.503, 239.6337
1895.432, 239.5876
1897.360, 238.2867
1899.288, 237.2400
1901.217, 237.3911
1903.145, 237.7212
1905.074, 237.2745
1907.002, 236.5935
1908.931, 237.0981
1910.859, 238.6535
1912.788, 238.7793
1914.716, 236.6927
1916.645, 235.5265
1918.573, 236.4379
1920.502, 237.5522
1922.430, 238.2772
1924.359, 238.6052
1926.287, 238.1917
1928.215, 237.4949
1930.144, 237.9743
1932.072, 239.7390
1934.001, 239.8710
1935.929, 237.4974
1937.858, 235.3137
1939.786, 233.5299
1941.715, 232.1661
1943.643, 230.9202
1945.572, 230.3799
1947.500, 231.7902
1949.429, 234.0975
1951.357, 234.5182
1953.286, 232.7969
1955.214, 231.7835
1957.142, 232.0029
1959.071, 231.6660
1960.999, 229.8785
1962.928, 228.5813
1964.856, 229.2486
1966.785, 229.7207
1968.713, 227.8634
1970.642, 225.0860
1972.570, 224.1038
1974.499, 224.6508
1976.427, 224.6214
1978.356, 223.7520
1980.284, 223.5510
1982.213, 224.6722
1984.141, 225.4792
1986.069, 225.2537
1987.998, 224.6833
1989.926, 223.9507
1991.855, 223.2591
1993.783, 223.0032
1995.712, 223.0358
1997.640, 222.6129
1999.569, 221.5492
2001.497, 221.0545
2003.426, 221.5332
2005.354, 221.9603
2007.283, 222.2410
2009.211, 222.4445
2011.140, 223.0937
2013.068, 223.1830
2014.996, 220.8893
2016.925, 217.8447
2018.853, 217.9579
2020.782, 221.0374
2022.710, 221.9575
2024.639, 220.1394
2026.567, 219.4176
2028.496, 220.8520
2030.424, 221.9193
2032.353, 221.7751
2034.281, 221.1504
2036.210, 219.9806
2038.138, 218.9203
2040.067, 218.5860
2041.995, 218.8791
2043.923, 219.8169
2045.852, 221.3898
2047.780, 222.0917
2049.709, 221.5491
2051.637, 221.1039
2053.566, 221.3273
2055.494, 220.9314
2057.423, 218.6475
2059.351, 216.9129
2061.280, 217.4667
2063.208, 218.8937
2065.136, 219.9545
2067.065, 220.6202
2068.993, 220.6211
2070.922, 219.9878
2072.850, 219.7205
2074.779, 219.9092
2076.708, 219.9031
2078.636, 219.5527
2080.564, 218.9876
2082.493, 218.1214
2084.421, 217.2070
2086.350, 216.5476
2088.278, 215.7992
2090.207, 214.3484
2092.135, 212.7525
2094.064, 212.3156
2095.992, 212.9302
2097.921, 212.8242
2099.849, 211.6482
2101.778, 210.7301
2103.706, 209.7941
2105.635, 209.5359
2107.563, 211.0183
2109.491, 211.8160
2111.420, 210.9522
2113.348, 209.4370
2115.277, 207.2675
2117.205, 205.3403
2119.134, 204.9198
2121.062, 205.6439
2122.991, 206.9316
2124.919, 208.6514
2126.848, 208.5500
2128.776, 205.7402
2130.705, 204.2283
2132.633, 205.9319
2134.562, 206.6898
2136.490, 204.3032
2138.418, 202.7422
2140.347, 205.1805
2142.275, 207.6407
2144.204, 206.1877
2146.132, 203.1757
2148.061, 202.3342
2149.989, 203.1747
2151.918, 203.5591
2153.846, 203.4969
2155.775, 203.4677
2157.703, 203.4885
2159.632, 203.5737
2161.560, 203.7889
2163.489, 203.8399
2165.417, 203.4167
2167.345, 203.0856
2169.274, 203.4620
2171.202, 203.6165
2173.131, 202.3879
2175.059, 200.8785
2176.988, 200.7779
2178.916, 201.6426
2180.845, 202.0081
2182.773, 201.8931
2184.702, 201.8564
2186.630, 201.9213
2188.559, 201.8239
2190.487, 201.4622
2192.416, 201.1408
2194.344, 200.9546
2196.272, 200.7380
2198.201, 200.1170
2200.129, 199.8441
2202.058, 200.7980
2203.986, 201.8689
2205.915, 201.8730
2207.843, 201.3439
2209.772, 201.1808
2211.700, 201.3082
2213.629, 201.4721
2215.557, 201.6841
2217.486, 201.0522
2219.414, 199.3458
2221.343, 198.6000
2223.271, 199.2948
2225.199, 200.1710
2227.128, 201.3198
2229.056, 201.8299
2230.985, 200.8808
2232.913, 199.7927
2234.842, 199.4682
2236.770, 199.1560
2238.699, 197.6297
2240.627, 196.0583
2242.556, 196.7741
2244.484, 198.9354
2246.413, 199.2775
2248.341, 198.0619
2250.270, 198.4333
2252.198, 200.5925
2254.126, 201.5418
2256.055, 200.6318
2257.983, 200.0335
2259.912, 200.4461
2261.840, 200.6065
2263.769, 200.1819
2265.697, 199.4753
2267.626, 198.1441
2269.554, 197.1252
2271.483, 197.2583
2273.411, 197.7880
2275.340, 198.0333
2277.268, 198.1734
2279.197, 198.6335
2281.125, 199.1945
2283.053, 199.0840
2284.982, 198.3914
2286.910, 198.0115
2288.839, 197.9746
2290.767, 198.0503
2292.696, 198.3441
2294.624, 198.4595
2296.553, 198.3270
2298.481, 198.1183
2300.410, 197.8411
2302.338, 197.5414
2304.267, 197.1826
2306.195, 196.9133
2308.124, 196.5872
2310.052, 196.6545
2311.980, 198.1094
2313.909, 199.5837
2315.837, 198.9697
2317.766, 197.4427
2319.694, 197.2677
2321.623, 198.2473
2323.551, 199.8132
2325.480, 201.9730
2327.408, 202.9438
2329.337, 202.6573
2331.265, 202.2196
2333.194, 201.7402
2335.122, 200.8530
2337.051, 199.2294
2338.979, 198.0871
2340.907, 198.0708
2342.836, 198.0655
2344.764, 197.9442
2346.693, 197.5870
2348.621, 196.4894
2350.550, 195.6687
2352.478, 196.0138
2354.407, 196.5727
2356.335, 196.5966
2358.264, 196.2409
2360.192, 195.4557
2362.121, 194.6044
2364.049, 194.6465
2365.978, 195.2561
2367.906, 194.7242
2369.834, 193.1671
2371.763, 193.6400
2373.691, 196.7210
2375.620, 197.4946
2377.548, 195.3626
2379.477, 194.3953
2381.405, 195.3728
2383.334, 195.4829
2385.262, 193.5412
2387.191, 192.4102
2389.119, 193.5155
2391.048, 194.5805
2392.976, 194.8615
2394.905, 195.1111
2396.833, 195.7885
2398.761, 196.3610
2400.690, 196.7314
2402.618, 196.5791
2404.547, 195.1106
2406.475, 193.4777
2408.404, 193.0116
2410.332, 193.1860
2412.261, 193.3424
2414.189, 193.4104
2416.118, 192.9762
2418.046, 192.2518
2419.975, 192.4641
2421.903, 193.5617
2423.832, 194.7241
2425.760, 195.9129
2427.688, 196.0305
2429.617, 194.8498
2431.545, 194.4084
2433.474, 195.4475
2435.402, 195.5446
2437.331, 193.2533
2439.259, 192.2160
2441.188, 193.4229
2443.116, 194.5078
2445.045, 195.0775
2446.973, 195.3997
2448.902, 195.4404
2450.830, 195.4498
2452.759, 195.5330
2454.687, 195.5989
2456.615, 195.6929
2458.544, 195.6226
2460.472, 194.9117
2462.401, 194.3473
2464.329, 195.0469
2466.258, 195.9923
2468.186, 195.8723
2470.115, 195.2939
2472.043, 195.0372
2473.972, 194.9971
2475.900, 195.0563
2477.829, 195.1188
2479.757, 195.0078
2481.686, 194.6691
2483.614, 193.4838
2485.542, 191.6128
2487.471, 190.8961
2489.399, 191.3358
2491.328, 191.9791
2493.256, 192.7864
2495.185, 193.7324
2497.113, 195.0911
2499.042, 195.5745
2500.970, 194.4911
2502.899, 194.3916
2504.827, 195.8849
2506.756, 196.5689
2508.684, 195.8493
2510.613, 195.0449
2512.541, 194.1662
2514.469, 193.9791
2516.398, 195.6006
2518.326, 196.5457
2520.255, 195.6793
2522.183, 194.6894
2524.112, 193.7534
2526.040, 193.3948
2527.969, 194.4663
2529.897, 195.2074
2531.826, 194.2844
2533.754, 193.1016
2535.683, 192.1196
2537.611, 191.8332
2539.540, 193.5063
2541.468, 195.1273
2543.396, 194.0704
2545.325, 192.6636
2547.253, 193.7275
2549.182, 195.4831
2551.110, 195.7367
2553.039, 195.2909
2554.967, 195.5687
2556.896, 195.9781
2558.824, 195.0934
2560.753, 193.5623
2562.681, 192.6637
2564.610, 192.5088
2566.538, 193.9733
2568.467, 196.2885
2570.395, 196.4078
2572.323, 194.8698
2574.252, 195.0622
2576.180, 196.7738
2578.109, 197.4287
2580.037, 197.1169
2581.966, 196.7119
2583.894, 196.2610
2585.823, 195.5719
2587.751, 194.6041
2589.680, 194.9898
2591.608, 197.1868
2593.537, 197.8122
2595.465, 196.5481
2597.394, 196.0609
2599.322, 196.5208
2601.250, 196.6035
2603.179, 196.1181
2605.107, 195.5924
2607.036, 194.6439
2608.964, 195.0705
2610.893, 198.0091
2612.821, 198.9395
2614.750, 196.9834
2616.678, 195.8419
2618.607, 196.0454
2620.535, 197.1536
2622.464, 200.2437
2624.392, 201.3839
2626.321, 198.1897
2628.249, 196.4103
2630.177, 197.0448
2632.106, 197.6766
2634.034, 197.8062
2635.963, 198.1953
2637.891, 199.3349
2639.820, 200.1295
2641.748, 200.1704
2643.677, 200.0849
2645.605, 200.1049
2647.534, 199.6990
2649.462, 198.2731
2651.391, 197.5837
2653.319, 198.4411
2655.248, 199.5482
2657.176, 201.2491
2659.104, 201.8865
2661.033, 200.0248
2662.961, 198.6259
2664.890, 198.4575
2666.818, 198.8167
2668.747, 199.8257
2670.675, 200.6574
2672.604, 200.5789
2674.532, 200.9424
2676.461, 203.0110
2678.389, 204.2732
2680.318, 203.6500
2682.246, 202.6900
2684.175, 201.2898
2686.103, 200.8947
2688.031, 203.3520
2689.960, 204.9931
2691.888, 203.8070
2693.817, 202.6180
2695.745, 202.2357
2697.674, 202.2638
2699.602, 202.8255
2701.531, 203.2691
2703.459, 203.3432
2705.388, 203.1788
2707.316, 202.0905
2709.245, 201.9581
2711.173, 204.2812
2713.102, 205.7329
2715.030, 204.2775
2716.958, 203.2437
2718.887, 204.6504
2720.815, 205.6288
2722.744, 204.6412
2724.672, 204.0164
2726.601, 204.6408
2728.529, 205.2090
2730.458, 205.3167
2732.386, 205.2189
2734.315, 204.6972
2736.243, 204.4618
2738.172, 204.5145
2740.100, 205.2976
2742.029, 207.7242
2743.957, 208.7812
2745.885, 206.6962
2747.814, 205.1360
2749.742, 204.8027
2751.671, 205.8851
2753.599, 209.8540
2755.528, 211.8878
2757.456, 210.4679
2759.385, 209.0150
2761.313, 207.9577
2763.242, 207.9015
2765.170, 210.0012
2767.099, 210.9981
2769.027, 210.0075
2770.956, 210.0827
2772.884, 212.1211
2774.813, 213.0911
2776.741, 211.9823
2778.669, 211.2959
2780.598, 211.7543
2782.526, 211.1509
2784.455, 208.9977
2786.383, 208.5408
2788.312, 210.3220
2790.240, 212.0132
2792.169, 213.5723
2794.097, 213.8822
2796.026, 212.5813
2797.954, 212.4988
2799.883, 213.7201
2801.811, 213.6994
2803.740, 212.2659
2805.668, 211.5206
2807.596, 211.5458
2809.525, 211.2150
2811.453, 210.6111
2813.382, 211.3746
2815.310, 213.2022
2817.239, 214.0995
2819.167, 214.2056
2821.096, 214.5190
2823.024, 214.8695
2824.953, 214.0732
2826.881, 212.7797
2828.810, 213.3561
2830.738, 214.7980
2832.667, 214.6740
2834.595, 213.8206
2836.523, 214.1120
2838.452, 214.7788
2840.380, 214.0015
2842.309, 213.2750
2844.237, 214.9890
2846.166, 217.2748
2848.094, 217.7733
2850.023, 217.8752
2851.951, 219.4202
2853.880, 220.6502
2855.808, 219.7587
2857.737, 218.6874
2859.665, 218.9522
2861.594, 219.3274
2863.522, 218.8384
2865.450, 218.6439
2867.379, 219.4096
2869.307, 220.2013
2871.236, 220.5922
2873.164, 220.9238
2875.093, 221.3619
2877.021, 221.5788
2878.950, 221.2531
2880.878, 221.6100
2882.807, 223.4692
2884.735, 224.3028
2886.664, 222.6120
2888.592, 222.0267
2890.521, 222.8722
2892.449, 223.5725
2894.377, 224.0232
2896.306, 223.6164
2898.234, 222.0707
2900.163, 221.6710
2902.091, 222.4214
2904.020, 225.0819
2905.948, 228.9766
2907.877, 229.2067
2909.805, 226.8708
2911.734, 227.1133
2913.662, 228.8848
2915.591, 229.0051
2917.519, 228.2186
2919.448, 227.7138
2921.376, 227.6302
2923.304, 229.0061
2925.233, 230.0658
2927.161, 227.5420
2929.090, 225.1267
2931.018, 226.1270
2932.947, 228.1104
2934.875, 230.2568
2936.804, 231.6195
2938.732, 230.9173
2940.661, 230.5695
2942.589, 231.9260
2944.518, 232.4221
2946.446, 229.9875
2948.375, 229.0001
2950.303, 231.1830
2952.231, 232.8499
2954.160, 233.7393
2956.088, 233.7318
2958.017, 232.6093
2959.945, 231.8364
2961.874, 231.3807
2963.802, 232.2793
2965.731, 234.3088
2967.659, 234.8326
2969.588, 234.1946
2971.516, 234.2187
2973.445, 234.8771
2975.373, 236.7997
2977.302, 238.7176
2979.230, 237.4854
2981.158, 235.3772
2983.087, 235.2510
2985.015, 235.5549
2986.944, 234.5761
2988.872, 233.7251
2990.801, 233.8166
2992.729, 234.4438
2994.658, 236.3167
2996.586, 237.0804
2998.515, 234.6463
3000.443, 233.8066
3002.372, 235.9858
3004.300, 237.6142
3006.229, 237.6725
3008.157, 238.1372
3010.085, 239.2647
3012.014, 239.6360
3013.942, 239.2522
3015.871, 238.4918
3017.799, 237.6322
3019.728, 239.0293
3021.656, 241.7068
3023.585, 242.1551
3025.513, 241.3676
3027.442, 240.6564
3029.370, 240.2999
3031.299, 240.5076
3033.227, 241.4108
3035.156, 243.8131
3037.084, 245.8259
3039.012, 246.0828
3040.941, 246.1136
3042.869, 246.6504
3044.798, 246.8833
3046.726, 246.5793
3048.655, 246.2966
3050.583, 245.9378
3052.512, 246.5128
3054.440, 248.2789
3056.369, 249.5132
3058.297, 250.1788
3060.226, 249.9359
3062.154, 249.0820
3064.083, 248.8759
3066.011, 249.0834
3067.939, 249.2679
3069.868, 249.3501
3071.796, 248.9009
3073.725, 248.7451
3075.653, 250.0702
3077.582, 251.4106
3079.510, 252.1133
3081.439, 252.4597
3083.367, 252.5395
3085.296, 252.3347
3087.224, 251.5124
3089.153, 251.4016
3091.081, 252.1681
3093.010, 253.0020
3094.938, 253.8209
3096.866, 254.5455
3098.795, 255.1867
3100.723, 255.9346
3102.652, 256.6307
3104.580, 256.9117
3106.509, 256.8918
3108.437, 256.5444
3110.366, 256.2284
3112.294, 256.0745
3114.223, 256.3491
3116.151, 257.8528
3118.080, 258.6948
3120.008, 257.6551
3121.937, 257.7915
3123.865, 260.1908
3125.793, 261.3327
3127.722, 260.2795
3129.650, 260.1794
3131.579, 260.8976
3133.507, 260.9543
3135.436, 260.5953
3137.364, 260.7402
3139.293, 261.3178
3141.221, 262.3156
3143.150, 263.5487
3145.078, 265.3737
3147.007, 266.5305
3148.935, 265.5267
3150.864, 264.6813
3152.792, 264.7452
3154.720, 264.9256
3156.649, 265.1600
3158.577, 265.0586
3160.506, 264.5905
3162.434, 263.8068
3164.363, 263.0362
3166.291, 265.2872
3168.220, 268.9391
3170.148, 268.8167
3172.077, 266.8678
3174.005, 265.0770
3175.934, 264.2762
3177.862, 265.9086
3179.791, 267.7172
3181.719, 268.8165
3183.647, 269.4043
3185.576, 269.0364
3187.504, 269.7829
3189.433, 272.2365
3191.361, 274.3730
3193.290, 275.9400
3195.218, 273.8359
3197.147, 269.8283
3199.075, 270.4704
3201.004, 273.4458
3202.932, 275.8861
3204.861, 277.2279
3206.789, 276.1396
3208.718, 275.0612
3210.646, 275.0464
3212.574, 275.6115
3214.503, 276.8849
3216.431, 277.4453
3218.360, 276.5247
3220.288, 277.6741
3222.217, 280.4529
3224.145, 280.4755
3226.074, 279.0840
3228.002, 280.5221
3229.931, 282.5487
3231.859, 281.8624
3233.788, 280.5721
3235.716, 279.7910
3237.645, 279.3809
3239.573, 279.0300
3241.501, 279.9080
3243.430, 282.7206
3245.358, 283.5499
3247.287, 281.8651
3249.215, 282.6866
3251.144, 285.2166
3253.072, 286.8384
3255.001, 287.5589
3256.929, 286.8937
3258.858, 286.0282
3260.786, 285.8734
3262.715, 285.9453
3264.643, 285.7782
3266.572, 286.2991
3268.500, 287.7270
3270.428, 289.3836
3272.357, 291.2192
3274.285, 292.2000
3276.214, 292.3133
3278.142, 290.4152
3280.071, 288.6713
3281.999, 291.6826
3283.928, 294.7405
3285.856, 292.6234
3287.785, 291.0148
3289.713, 292.3611
3291.642, 293.7897
3293.570, 294.9357
3295.499, 295.1133
3297.427, 294.3993
3299.355, 294.3173
3301.284, 294.6950
3303.212, 294.7909
3305.141, 295.0451
3307.069, 296.5274
3308.998, 297.7412
3310.926, 296.8778
3312.855, 297.1805
3314.783, 299.9966
3316.712, 301.9178
3318.640, 302.2775
3320.569, 302.2663
3322.497, 301.9172
3324.426, 301.1855
3326.354, 300.4145
3328.282, 300.0672
3330.211, 300.2805
3332.139, 301.5669
3334.068, 302.8413
3335.996, 303.8325
3337.925, 304.3838
3339.853, 304.4336
3341.782, 304.5107
3343.710, 304.6439
3345.639, 304.8888
3347.567, 305.0724
3349.496, 303.9065
3351.424, 303.4733
3353.353, 307.3539
3355.281, 310.1957
3357.209, 308.2011
3359.138, 306.3340
3361.066, 305.2422
3362.995, 305.9807
3364.923, 308.6089
3366.852, 309.2842
3368.780, 308.9228
3370.709, 309.8202
3372.637, 311.1250
3374.566, 311.9023
3376.494, 312.6505
3378.423, 313.9933
3380.351, 314.1631
3382.280, 311.9946
3384.208, 311.0125
3386.136, 311.3041
3388.065, 313.6297
3389.993, 316.5463
3391.922, 316.1740
3393.851, 315.1195
3395.779, 316.0150
3397.708, 316.7487
3399.636, 316.0903
3401.564, 315.6290
3403.493, 315.5195
3405.421, 316.1261
3407.350, 317.3537
3409.278, 318.6801
3411.207, 319.9145
3413.135, 320.7430
3415.064, 321.3514
3416.992, 321.8272
3418.921, 322.2052
3420.849, 322.4218
3422.778, 322.9367
3424.706, 323.8656
3426.635, 324.0620
3428.563, 323.9560
3430.491, 325.2735
3432.420, 326.5677
3434.348, 325.2337
3436.277, 324.6649
3438.205, 327.3425
3440.134, 328.6476
3442.062, 327.3629
3443.991, 327.0613
3445.919, 327.8794
3447.848, 330.3384
3449.776, 332.9065
3451.705, 332.5507
3453.633, 331.4024
3455.562, 330.5899
3457.490, 329.8996
3459.418, 329.1985
3461.347, 329.0966
3463.275, 329.7116
3465.204, 331.7625
3467.132, 334.0877
3469.061, 332.9854
3470.989, 331.6728
3472.918, 333.2399
3474.846, 334.5035
3476.775, 334.3522
3478.703, 334.5423
3480.632, 335.2816
3482.560, 337.1871
3484.489, 339.2606
3486.417, 337.8327
3488.345, 336.0620
3490.274, 337.6124
3492.202, 338.7949
3494.131, 337.6967
3496.059, 339.3076
3497.988, 344.9637
3499.916, 345.6090
3501.845, 343.2696
3503.773, 343.4558
3505.702, 344.8147
3507.630, 346.7447
3509.559, 347.8408
3511.487, 346.7403
3513.416, 347.6205
3515.344, 350.8739
3517.272, 352.6535
3519.201, 353.2873
3521.129, 353.3607
3523.058, 353.9168
3524.986, 356.5707
3526.915, 358.5305
3528.843, 357.6214
3530.772, 358.5788
3532.700, 361.4138
3534.629, 362.6566
3536.557, 362.9128
3538.486, 363.3455
3540.414, 364.3481
3542.343, 366.5381
3544.271, 368.8286
3546.199, 371.1747
3548.128, 372.3148
3550.056, 372.2998
3551.985, 372.2515
3553.913, 373.0740
3555.842, 377.6146
3557.770, 381.8286
3559.699, 382.5966
3561.627, 383.7950
3563.556, 386.0824
3565.484, 387.5977
3567.413, 388.5577
3569.341, 390.6307
3571.270, 393.1824
3573.198, 395.5327
3575.126, 398.0268
3577.055, 401.0515
3578.983, 403.3112
3580.912, 404.6596
3582.840, 407.4197
3584.769, 411.3249
3586.697, 416.6143
3588.626, 421.0712
3590.554, 422.2531
3592.483, 423.1534
3594.411, 424.1807
3596.340, 426.8906
3598.268, 430.9011
3600.197, 433.0712
3602.125, 435.2929
3604.053, 441.0265
3605.982, 445.6547
3607.910, 447.1334
3609.839, 448.1348
3611.767, 448.9862
3613.696, 453.6473
3615.624, 460.4511
3617.553, 465.8975
3619.481, 471.1232
3621.410, 476.3509
3623.338, 483.2041
3625.267, 492.3531
3627.195, 500.5349
3629.124, 507.9712
3631.052, 515.1152
3632.980, 523.9608
3634.909, 537.6265
3636.837, 551.6193
3638.766, 564.0995
3640.694, 581.1536
3642.623, 602.4136
3644.551, 617.8084
3646.480, 631.6110
3648.408, 649.0426
3650.337, 668.5071
3652.265, 689.6028
3654.194, 710.4627
3656.122, 730.7615
3658.051, 748.0477
3659.979, 761.5403
3661.907, 771.2628
3663.836, 775.6652
3665.764, 773.2635
3667.693, 767.5529
3669.621, 758.7496
3671.550, 749.3769
3673.478, 739.6457
3675.407, 728.6918
3677.335, 719.7822
3679.264, 716.9198
3681.192, 712.9531
3683.121, 706.4734
3685.049, 699.2267
3686.978, 691.1240
3688.906, 681.9581
3690.834, 671.3514
3692.763, 658.7201
3694.691, 644.9850
3696.620, 630.3950
3698.548, 612.0371
3700.477, 591.5456
3702.405, 575.0742
3704.334, 560.5699
3706.262, 546.7789
3708.191, 533.8617
3710.119, 521.9029
3712.048, 509.4962
3713.976, 496.6958
3715.905, 483.2533
3717.833, 471.1076
3719.761, 463.1147
3721.690, 454.5663
3723.618, 444.4710
3725.547, 436.2356
3727.475, 429.6961
3729.404, 424.1015
3731.332, 419.2990
3733.261, 415.7192
3735.189, 411.6082
3737.118, 406.6523
3739.046, 402.0901
3740.975, 398.3283
3742.903, 397.0894
3744.832, 396.0741
3746.760, 393.1248
3748.688, 391.2152
3750.617, 390.7248
3752.545, 391.2597
3754.474, 391.7303
3756.402, 388.7981
3758.331, 386.1435
3760.259, 386.3102
3762.188, 386.3633
3764.116, 386.0148
3766.045, 386.2023
3767.973, 386.3886
3769.902, 385.1406
3771.830, 384.3658
3773.759, 385.4151
3775.687, 386.3337
3777.615, 386.9313
3779.544, 386.3540
3781.472, 385.0359
3783.401, 382.8330
3785.329, 381.4442
3787.258, 381.9654
3789.186, 382.2923
3791.115, 382.1963
3793.043, 380.2587
3794.972, 378.8765
3796.900, 380.5736
3798.829, 381.9786
3800.757, 382.3191
3802.686, 381.6270
3804.614, 380.7278
3806.542, 381.6191
3808.471, 382.4514
3810.399, 382.0663
3812.328, 382.3213
3814.256, 383.3375
3816.185, 381.3522
3818.113, 378.7731
3820.042, 378.6178
3821.970, 379.4023
3823.899, 380.7049
3825.827, 383.0763
3827.756, 385.5190
3829.684, 383.0445
3831.613, 379.3257
3833.541, 375.9522
3835.469, 375.5488
3837.398, 378.3036
3839.326, 378.9187
3841.255, 378.5198
3843.183, 379.6022
3845.112, 380.3584
3847.040, 379.7801
3848.969, 379.0813
3850.897, 378.5095
3852.826, 379.4328
3854.754, 380.0082
3856.683, 377.9557
3858.611, 377.3087
3860.540, 378.9870
3862.468, 380.4830
3864.396, 381.6448
3866.325, 382.7675
3868.253, 382.4265
3870.182, 379.4113
3872.110, 377.7446
3874.039, 377.6140
3875.967, 379.2811
3877.896, 380.7899
3879.824, 379.8575
3881.753, 379.8340
3883.681, 381.5117
3885.610, 379.0036
3887.538, 375.9327
3889.467, 379.5286
3891.395, 381.4432
3893.323, 378.2990
3895.252, 377.6888
3897.180, 379.2472
3899.109, 380.0762
3901.037, 379.9212
3902.966, 377.3282
3904.894, 377.2940
3906.823, 379.8798
3908.751, 381.3945
3910.680, 381.7919
3912.608, 380.4692
3914.537, 379.9030
3916.465, 381.0693
3918.394, 380.8444
3920.322, 380.4168
3922.250, 383.0892
3924.179, 385.1503
3926.107, 385.0500
3928.036, 383.5526
3929.964, 381.3089
3931.893, 380.9983
3933.821, 380.8476
3935.750, 379.1294
3937.678, 378.6756
3939.607, 379.8263
3941.535, 381.5566
3943.464, 382.5308
3945.392, 380.5089
3947.321, 379.1094
3949.249, 378.9978
3951.177, 381.1596
3953.106, 383.8899
3955.034, 384.5783
3956.963, 383.8169
3958.891, 380.9822
3960.820, 379.3476
3962.748, 379.2543
3964.677, 382.3238
3966.605, 384.8092
3968.534, 384.9314
3970.462, 383.2877
3972.391, 380.6929
3974.319, 380.9384
3976.248, 381.8851
3978.176, 382.1658
3980.104, 382.3295
3982.033, 382.4271
3983.961, 382.0297
3985.890, 381.7410
3987.818, 382.4264
3989.747, 382.7432
3991.675, 382.4232
3993.604, 380.2154
3995.532, 378.1130
3997.461, 378.7183
3999.389, 380.2769
4001.318, 382.7007
4003.246, 381.3932
4005.175, 378.7939
4007.103, 378.5064
4009.031, 379.5542
4010.960, 381.9844
4012.888, 381.6860
4014.817, 380.0604
4016.745, 379.8686
4018.674, 380.2294
4020.602, 380.8125
4022.531, 381.8050
4024.459, 382.8415
4026.388, 382.8683
4028.316, 382.7234
4030.245, 383.1923
4032.173, 380.8442
4034.102, 377.8123
4036.030, 381.8006
4037.958, 384.7623
4039.887, 382.3379
4041.815, 381.0930
4043.744, 380.8129
4045.672, 378.5097
4047.601, 377.3198
4049.529, 379.1616
4051.458, 379.4864
4053.386, 378.6539
4055.315, 379.8488
4057.243, 381.2076
4059.172, 381.3668
4061.100, 383.2497
4063.029, 385.6405
4064.957, 382.2630
4066.885, 379.8528
4068.814, 383.1497
4070.742, 383.3021
4072.671, 380.9023
4074.599, 379.9433
4076.528, 379.6347
4078.456, 379.6542
4080.385, 379.7029
4082.313, 379.7254
4084.242, 379.2777
4086.170, 379.1942
4088.099, 379.8581
4090.027, 381.7631
4091.956, 383.8297
4093.884, 382.6177
4095.813, 380.4229
4097.741, 377.2964
4099.669, 379.2746
4101.598, 383.5786
4103.526, 383.3079
4105.455, 381.3353
4107.383, 378.5528
4109.312, 378.8304
4111.240, 380.8369
4113.169, 381.7837
4115.097, 381.9459
4117.026, 381.3719
4118.954, 381.2728
4120.883, 381.2173
4122.811, 379.7988
4124.740, 379.4887
4126.668, 381.3750
4128.597, 381.6052
4130.525, 381.1217
4132.454, 381.1034
4134.382, 381.1476
4136.311, 381.1816
4138.239, 381.4601
4140.167, 381.7792
4142.096, 382.1968
4144.024, 381.5583
4145.953, 380.0943
4147.881, 380.7204
4149.810, 381.3810
4151.738, 380.3638
4153.667, 379.3751
4155.595, 378.7962
4157.523, 379.9189
4159.452, 380.7426
4161.380, 380.1192
4163.309, 378.8979
4165.237, 378.0375
4167.166, 381.3289
4169.094, 383.3302
4171.023, 381.1998
4172.951, 381.9316
4174.880, 383.5547
4176.808, 382.0892
4178.737, 379.5401
4180.665, 376.1259
4182.594, 377.6139
4184.522, 380.4035
4186.451, 380.2380
4188.379, 379.6635
4190.308, 379.1600
4192.236, 379.6125
4194.165, 380.0059
4196.093, 379.3056
4198.021, 379.1960
4199.950, 379.5605
4201.878, 379.8099
4203.807, 379.6786
4205.735, 379.1104
4207.664, 377.3205
4209.592, 375.8196
4211.521, 378.0966
4213.449, 379.7076
4215.377, 379.6071
4217.306, 378.3863
4219.234, 377.5805
4221.163, 379.3561
4223.091, 379.3952
4225.020, 377.6897
4226.948, 377.6092
4228.877, 378.2790
4230.805, 379.3365
4232.734, 379.4703
4234.662, 379.1553
4236.591, 379.8824
4238.519, 380.5157
4240.448, 380.6175
4242.376, 381.0759
##END=



