##NAMES=Barylite
##RRUFFID=R060620
##IDEAL CHEMISTRY=BaBe_2_Si_2_O_7_
##LOCALITY=Zomba, Malawi
##OWNER=RRUFF
##SOURCE=Michael Scott
##DESCRIPTION=Colorless long prismatic single crystals associated with aegirine
##STATUS=The identification of this mineral is confirmed by single-crystal X-ray diffraction and chemical analysis
##URL=https://www.rruff.net/odr/rruff_sample/R060620
##MEASURED CHEMISTRY=Ba_1.00_Be_2.00_Si_2.00_O_7_ ; Be not measured but estimated by difference and stoichiometry
##DIFFRACTION SAMPLE DESCRIPTION=Single crystal, powder profile is calculated
##CELL PARAMETERS=a: 9.791 b: 11.643 c: 4.6687 alpha: 90 beta: 90 gamma: 90 volume: 532.2 crystal system: orthorhombic
##FILETYPE=Raman RAW
##RAMAN WAVELENGTH=780

7.931860e+001, 0.000000e+000
8.124707e+001, 2.771381e+003
8.317554e+001, 2.528744e+003
8.510400e+001, 2.587410e+003
8.703247e+001, 2.971604e+003
8.896094e+001, 3.463629e+003
9.088940e+001, 4.071685e+003
9.281787e+001, 4.750184e+003
9.474634e+001, 5.422054e+003
9.667480e+001, 5.650451e+003
9.860327e+001, 5.763214e+003
1.005317e+002, 5.826299e+003
1.024602e+002, 5.839214e+003
1.043887e+002, 5.790007e+003
1.063171e+002, 5.757442e+003
1.082456e+002, 5.725925e+003
1.101741e+002, 5.740126e+003
1.121025e+002, 5.835801e+003
1.140310e+002, 6.010456e+003
1.159595e+002, 6.256661e+003
1.178879e+002, 6.555474e+003
1.198164e+002, 6.947936e+003
1.217449e+002, 7.351415e+003
1.236733e+002, 7.926978e+003
1.256018e+002, 8.850840e+003
1.275303e+002, 1.013336e+004
1.294587e+002, 1.165813e+004
1.313872e+002, 1.377346e+004
1.333157e+002, 1.509615e+004
1.352441e+002, 1.479742e+004
1.371726e+002, 1.382053e+004
1.391011e+002, 1.257874e+004
1.410295e+002, 1.116441e+004
1.429580e+002, 1.032246e+004
1.448865e+002, 1.018865e+004
1.468149e+002, 1.009705e+004
1.487434e+002, 9.978640e+003
1.506719e+002, 9.705014e+003
1.526003e+002, 9.097607e+003
1.545288e+002, 8.246382e+003
1.564573e+002, 7.512037e+003
1.583857e+002, 6.888856e+003
1.603142e+002, 6.400028e+003
1.622427e+002, 6.086169e+003
1.641711e+002, 5.876265e+003
1.660996e+002, 5.762546e+003
1.680281e+002, 5.731784e+003
1.699565e+002, 5.745251e+003
1.718850e+002, 5.800807e+003
1.738135e+002, 5.906483e+003
1.757419e+002, 6.084542e+003
1.776704e+002, 6.293546e+003
1.795989e+002, 6.512329e+003
1.815273e+002, 6.761278e+003
1.834558e+002, 7.095642e+003
1.853843e+002, 7.503243e+003
1.873127e+002, 7.857108e+003
1.892412e+002, 8.215226e+003
1.911697e+002, 8.381455e+003
1.930981e+002, 8.205318e+003
1.950266e+002, 7.907134e+003
1.969551e+002, 7.678752e+003
1.988835e+002, 7.502392e+003
2.008120e+002, 7.332409e+003
2.027405e+002, 7.171836e+003
2.046689e+002, 7.002199e+003
2.065974e+002, 6.790026e+003
2.085259e+002, 6.601004e+003
2.104543e+002, 6.478297e+003
2.123828e+002, 6.404929e+003
2.143113e+002, 6.350470e+003
2.162397e+002, 6.311406e+003
2.181682e+002, 6.307491e+003
2.200967e+002, 6.344338e+003
2.220251e+002, 6.407239e+003
2.239536e+002, 6.486451e+003
2.258821e+002, 6.596255e+003
2.278105e+002, 6.760304e+003
2.297390e+002, 6.974425e+003
2.316675e+002, 7.158117e+003
2.335959e+002, 7.364865e+003
2.355244e+002, 7.452018e+003
2.374529e+002, 7.333851e+003
2.393813e+002, 7.166792e+003
2.413098e+002, 7.022010e+003
2.432383e+002, 6.902227e+003
2.451667e+002, 6.817258e+003
2.470952e+002, 6.771333e+003
2.490237e+002, 6.753140e+003
2.509521e+002, 6.766980e+003
2.528806e+002, 6.799558e+003
2.548091e+002, 6.858071e+003
2.567375e+002, 6.924758e+003
2.586660e+002, 6.987651e+003
2.605945e+002, 7.045974e+003
2.625229e+002, 7.089346e+003
2.644514e+002, 7.110466e+003
2.663799e+002, 7.134833e+003
2.683083e+002, 7.162556e+003
2.702368e+002, 7.197413e+003
2.721653e+002, 7.242745e+003
2.740938e+002, 7.295504e+003
2.760222e+002, 7.351130e+003
2.779507e+002, 7.409784e+003
2.798792e+002, 7.478048e+003
2.818076e+002, 7.558462e+003
2.837361e+002, 7.641070e+003
2.856646e+002, 7.718132e+003
2.875930e+002, 7.803136e+003
2.895215e+002, 7.893579e+003
2.914500e+002, 7.999073e+003
2.933784e+002, 8.143769e+003
2.953069e+002, 8.328637e+003
2.972354e+002, 8.547983e+003
2.991638e+002, 8.810438e+003
3.010923e+002, 9.086225e+003
3.030208e+002, 9.382220e+003
3.049492e+002, 9.671053e+003
3.068777e+002, 9.935708e+003
3.088062e+002, 1.017760e+004
3.107346e+002, 1.038379e+004
3.126631e+002, 1.055043e+004
3.145916e+002, 1.077462e+004
3.165200e+002, 1.104809e+004
3.184485e+002, 1.143097e+004
3.203770e+002, 1.190607e+004
3.223054e+002, 1.251906e+004
3.242339e+002, 1.331400e+004
3.261624e+002, 1.428476e+004
3.280908e+002, 1.542175e+004
3.300193e+002, 1.672679e+004
3.319477e+002, 1.804710e+004
3.338762e+002, 1.965323e+004
3.358047e+002, 2.069319e+004
3.377331e+002, 2.094071e+004
3.396616e+002, 2.056133e+004
3.415901e+002, 1.944695e+004
3.435185e+002, 1.783365e+004
3.454470e+002, 1.633615e+004
3.473755e+002, 1.494846e+004
3.493039e+002, 1.379278e+004
3.512324e+002, 1.292117e+004
3.531609e+002, 1.224249e+004
3.550893e+002, 1.177465e+004
3.570178e+002, 1.144320e+004
3.589463e+002, 1.122198e+004
3.608747e+002, 1.109304e+004
3.628032e+002, 1.101471e+004
3.647317e+002, 1.098680e+004
3.666601e+002, 1.100505e+004
3.685886e+002, 1.108375e+004
3.705171e+002, 1.118643e+004
3.724455e+002, 1.129101e+004
3.743740e+002, 1.143450e+004
3.763025e+002, 1.164894e+004
3.782309e+002, 1.191112e+004
3.801594e+002, 1.223163e+004
3.820879e+002, 1.259305e+004
3.840163e+002, 1.278202e+004
3.859448e+002, 1.272344e+004
3.878733e+002, 1.260491e+004
3.898017e+002, 1.237189e+004
3.917302e+002, 1.217310e+004
3.936587e+002, 1.206829e+004
3.955871e+002, 1.202989e+004
3.975156e+002, 1.203192e+004
3.994441e+002, 1.207252e+004
4.013725e+002, 1.214626e+004
4.033010e+002, 1.225632e+004
4.052295e+002, 1.239179e+004
4.071579e+002, 1.258919e+004
4.090864e+002, 1.275306e+004
4.110149e+002, 1.285706e+004
4.129433e+002, 1.292489e+004
4.148718e+002, 1.295774e+004
4.168003e+002, 1.297346e+004
4.187287e+002, 1.299793e+004
4.206572e+002, 1.303100e+004
4.225857e+002, 1.308072e+004
4.245141e+002, 1.315269e+004
4.264426e+002, 1.322700e+004
4.283711e+002, 1.329705e+004
4.302995e+002, 1.337849e+004
4.322280e+002, 1.348465e+004
4.341565e+002, 1.360040e+004
4.360849e+002, 1.371296e+004
4.380134e+002, 1.382563e+004
4.399419e+002, 1.395194e+004
4.418703e+002, 1.409630e+004
4.437988e+002, 1.422286e+004
4.457273e+002, 1.432702e+004
4.476557e+002, 1.442807e+004
4.495842e+002, 1.452456e+004
4.515127e+002, 1.462856e+004
4.534411e+002, 1.474518e+004
4.553696e+002, 1.487075e+004
4.572981e+002, 1.499978e+004
4.592265e+002, 1.513421e+004
4.611550e+002, 1.529428e+004
4.630835e+002, 1.548286e+004
4.650119e+002, 1.562496e+004
4.669404e+002, 1.570990e+004
4.688689e+002, 1.576633e+004
4.707973e+002, 1.577983e+004
4.727258e+002, 1.579903e+004
4.746543e+002, 1.584804e+004
4.765827e+002, 1.591168e+004
4.785112e+002, 1.597181e+004
4.804397e+002, 1.603387e+004
4.823681e+002, 1.611845e+004
4.842966e+002, 1.622437e+004
4.862251e+002, 1.632557e+004
4.881535e+002, 1.641372e+004
4.900820e+002, 1.651654e+004
4.920105e+002, 1.665259e+004
4.939389e+002, 1.678896e+004
4.958674e+002, 1.691715e+004
4.977959e+002, 1.703672e+004
4.997243e+002, 1.714291e+004
5.016528e+002, 1.724209e+004
5.035813e+002, 1.735007e+004
5.055097e+002, 1.746610e+004
5.074382e+002, 1.758062e+004
5.093667e+002, 1.769279e+004
5.112951e+002, 1.780797e+004
5.132236e+002, 1.793664e+004
5.151521e+002, 1.805535e+004
5.170806e+002, 1.814231e+004
5.190090e+002, 1.823339e+004
5.209375e+002, 1.835786e+004
5.228660e+002, 1.849638e+004
5.247944e+002, 1.862360e+004
5.267229e+002, 1.874259e+004
5.286514e+002, 1.886223e+004
5.305798e+002, 1.898342e+004
5.325083e+002, 1.911010e+004
5.344368e+002, 1.925079e+004
5.363652e+002, 1.938674e+004
5.382937e+002, 1.951676e+004
5.402222e+002, 1.964251e+004
5.421506e+002, 1.975999e+004
5.440791e+002, 1.987695e+004
5.460076e+002, 2.000314e+004
5.479360e+002, 2.013008e+004
5.498645e+002, 2.024023e+004
5.517930e+002, 2.033558e+004
5.537214e+002, 2.044593e+004
5.556499e+002, 2.057580e+004
5.575784e+002, 2.070844e+004
5.595068e+002, 2.084502e+004
5.614353e+002, 2.098237e+004
5.633638e+002, 2.111596e+004
5.652922e+002, 2.125632e+004
5.672207e+002, 2.141555e+004
5.691492e+002, 2.157536e+004
5.710776e+002, 2.172166e+004
5.730061e+002, 2.185820e+004
5.749345e+002, 2.199619e+004
5.768630e+002, 2.213337e+004
5.787914e+002, 2.224166e+004
5.807199e+002, 2.230864e+004
5.826484e+002, 2.239464e+004
5.845768e+002, 2.250357e+004
5.865053e+002, 2.262310e+004
5.884338e+002, 2.275457e+004
5.903622e+002, 2.289004e+004
5.922907e+002, 2.302617e+004
5.942192e+002, 2.316455e+004
5.961476e+002, 2.330513e+004
5.980761e+002, 2.344884e+004
6.000046e+002, 2.359806e+004
6.019330e+002, 2.375121e+004
6.038615e+002, 2.390105e+004
6.057900e+002, 2.404761e+004
6.077184e+002, 2.419919e+004
6.096469e+002, 2.435818e+004
6.115754e+002, 2.450266e+004
6.135038e+002, 2.461297e+004
6.154323e+002, 2.475677e+004
6.173608e+002, 2.498536e+004
6.192892e+002, 2.520895e+004
6.212177e+002, 2.538771e+004
6.231462e+002, 2.554576e+004
6.250746e+002, 2.570500e+004
6.270031e+002, 2.585496e+004
6.289316e+002, 2.597491e+004
6.308600e+002, 2.607063e+004
6.327885e+002, 2.616549e+004
6.347170e+002, 2.625955e+004
6.366454e+002, 2.634635e+004
6.385739e+002, 2.642210e+004
6.405024e+002, 2.651679e+004
6.424308e+002, 2.663400e+004
6.443593e+002, 2.677578e+004
6.462878e+002, 2.693098e+004
6.482162e+002, 2.712642e+004
6.501447e+002, 2.738725e+004
6.520732e+002, 2.767571e+004
6.540016e+002, 2.798947e+004
6.559301e+002, 2.829402e+004
6.578586e+002, 2.852437e+004
6.597870e+002, 2.871463e+004
6.617155e+002, 2.893460e+004
6.636440e+002, 2.918663e+004
6.655724e+002, 2.946406e+004
6.675009e+002, 2.975811e+004
6.694294e+002, 3.019082e+004
6.713578e+002, 3.078812e+004
6.732863e+002, 3.149491e+004
6.752148e+002, 3.231737e+004
6.771432e+002, 3.321943e+004
6.790717e+002, 3.431935e+004
6.810002e+002, 3.532846e+004
6.829286e+002, 3.634357e+004
6.848571e+002, 3.696161e+004
6.867856e+002, 3.673615e+004
6.887141e+002, 3.599391e+004
6.906425e+002, 3.498615e+004
6.925710e+002, 3.385814e+004
6.944995e+002, 3.293565e+004
6.964279e+002, 3.222105e+004
6.983564e+002, 3.168305e+004
7.002849e+002, 3.133746e+004
7.022133e+002, 3.109632e+004
7.041418e+002, 3.098636e+004
7.060703e+002, 3.093596e+004
7.079987e+002, 3.095504e+004
7.099272e+002, 3.101633e+004
7.118557e+002, 3.114201e+004
7.137841e+002, 3.126343e+004
7.157126e+002, 3.134577e+004
7.176411e+002, 3.142482e+004
7.195695e+002, 3.152043e+004
7.214980e+002, 3.162636e+004
7.234265e+002, 3.173563e+004
7.253549e+002, 3.185318e+004
7.272834e+002, 3.199549e+004
7.292119e+002, 3.215113e+004
7.311403e+002, 3.227682e+004
7.330688e+002, 3.237509e+004
7.349973e+002, 3.249803e+004
7.369257e+002, 3.265176e+004
7.388542e+002, 3.278865e+004
7.407827e+002, 3.290586e+004
7.427111e+002, 3.301561e+004
7.446396e+002, 3.311698e+004
7.465681e+002, 3.321330e+004
7.484965e+002, 3.329758e+004
7.504250e+002, 3.339513e+004
7.523535e+002, 3.352725e+004
7.542819e+002, 3.365719e+004
7.562104e+002, 3.377064e+004
7.581389e+002, 3.387723e+004
7.600673e+002, 3.398141e+004
7.619958e+002, 3.408668e+004
7.639243e+002, 3.419618e+004
7.658527e+002, 3.430950e+004
7.677812e+002, 3.442565e+004
7.697097e+002, 3.454214e+004
7.716381e+002, 3.464704e+004
7.735666e+002, 3.474378e+004
7.754951e+002, 3.487000e+004
7.774235e+002, 3.501995e+004
7.793520e+002, 3.514121e+004
7.812805e+002, 3.522965e+004
7.832089e+002, 3.531131e+004
7.851374e+002, 3.539045e+004
7.870659e+002, 3.546342e+004
7.889943e+002, 3.552502e+004
7.909228e+002, 3.559744e+004
7.928513e+002, 3.570362e+004
7.947797e+002, 3.579527e+004
7.967082e+002, 3.585186e+004
7.986367e+002, 3.590563e+004
8.005651e+002, 3.596679e+004
8.024936e+002, 3.603361e+004
8.044221e+002, 3.610757e+004
8.063505e+002, 3.618444e+004
8.082790e+002, 3.626768e+004
8.102075e+002, 3.634637e+004
8.121359e+002, 3.640091e+004
8.140644e+002, 3.644684e+004
8.159929e+002, 3.650671e+004
8.179213e+002, 3.657710e+004
8.198498e+002, 3.665786e+004
8.217783e+002, 3.674092e+004
8.237067e+002, 3.678532e+004
8.256352e+002, 3.679287e+004
8.275637e+002, 3.684198e+004
8.294921e+002, 3.694330e+004
8.314206e+002, 3.700639e+004
8.333491e+002, 3.701160e+004
8.352775e+002, 3.703393e+004
8.372060e+002, 3.709984e+004
8.391345e+002, 3.714450e+004
8.410629e+002, 3.715738e+004
8.429914e+002, 3.717417e+004
8.449199e+002, 3.719396e+004
8.468483e+002, 3.722971e+004
8.487768e+002, 3.729055e+004
8.507053e+002, 3.735323e+004
8.526337e+002, 3.740668e+004
8.545622e+002, 3.745857e+004
8.564907e+002, 3.751171e+004
8.584191e+002, 3.756107e+004
8.603476e+002, 3.760220e+004
8.622761e+002, 3.763857e+004
8.642045e+002, 3.768169e+004
8.661330e+002, 3.771329e+004
8.680615e+002, 3.770520e+004
8.699899e+002, 3.768865e+004
8.719184e+002, 3.770143e+004
8.738469e+002, 3.773481e+004
8.757753e+002, 3.777725e+004
8.777038e+002, 3.782729e+004
8.796323e+002, 3.787846e+004
8.815607e+002, 3.793255e+004
8.834892e+002, 3.800418e+004
8.854177e+002, 3.808498e+004
8.873461e+002, 3.812390e+004
8.892746e+002, 3.812223e+004
8.912031e+002, 3.812028e+004
8.931315e+002, 3.811656e+004
8.950600e+002, 3.809002e+004
8.969885e+002, 3.803978e+004
8.989169e+002, 3.800869e+004
9.008454e+002, 3.799965e+004
9.027739e+002, 3.799127e+004
9.047023e+002, 3.798152e+004
9.066308e+002, 3.797023e+004
9.085593e+002, 3.795641e+004
9.104877e+002, 3.795693e+004
9.124162e+002, 3.797811e+004
9.143447e+002, 3.801109e+004
9.162731e+002, 3.805654e+004
9.182016e+002, 3.811571e+004
9.201301e+002, 3.817490e+004
9.220585e+002, 3.828013e+004
9.239870e+002, 3.845271e+004
9.259155e+002, 3.865012e+004
9.278439e+002, 3.886929e+004
9.297724e+002, 3.909057e+004
9.317009e+002, 3.932374e+004
9.336293e+002, 3.952478e+004
9.355578e+002, 3.968022e+004
9.374863e+002, 3.979245e+004
9.394147e+002, 3.982354e+004
9.413432e+002, 3.987165e+004
9.432717e+002, 3.994610e+004
9.452001e+002, 4.012226e+004
9.471286e+002, 4.046506e+004
9.490571e+002, 4.091190e+004
9.509855e+002, 4.148167e+004
9.529140e+002, 4.206214e+004
9.548425e+002, 4.269459e+004
9.567709e+002, 4.314661e+004
9.586994e+002, 4.324285e+004
9.606279e+002, 4.301628e+004
9.625563e+002, 4.236132e+004
9.644848e+002, 4.153182e+004
9.664133e+002, 4.070113e+004
9.683417e+002, 3.993213e+004
9.702702e+002, 3.928194e+004
9.721987e+002, 3.874764e+004
9.741271e+002, 3.834721e+004
9.760556e+002, 3.804554e+004
9.779841e+002, 3.780956e+004
9.799125e+002, 3.762610e+004
9.818410e+002, 3.748091e+004
9.837695e+002, 3.736693e+004
9.856979e+002, 3.728291e+004
9.876264e+002, 3.721179e+004
9.895549e+002, 3.711134e+004
9.914833e+002, 3.699877e+004
9.934118e+002, 3.691749e+004
9.953403e+002, 3.685521e+004
9.972687e+002, 3.678195e+004
9.991972e+002, 3.670437e+004
1.001126e+003, 3.665135e+004
1.003054e+003, 3.660683e+004
1.004983e+003, 3.650648e+004
1.006911e+003, 3.637732e+004
1.008840e+003, 3.631250e+004
1.010768e+003, 3.629121e+004
1.012696e+003, 3.623886e+004
1.014625e+003, 3.616483e+004
1.016553e+003, 3.610469e+004
1.018482e+003, 3.605391e+004
1.020410e+003, 3.600468e+004
1.022339e+003, 3.595219e+004
1.024267e+003, 3.587798e+004
1.026196e+003, 3.578946e+004
1.028124e+003, 3.571715e+004
1.030053e+003, 3.565784e+004
1.031981e+003, 3.559359e+004
1.033910e+003, 3.552653e+004
1.035838e+003, 3.545852e+004
1.037767e+003, 3.538910e+004
1.039695e+003, 3.531282e+004
1.041624e+003, 3.523170e+004
1.043552e+003, 3.515341e+004
1.045480e+003, 3.507881e+004
1.047409e+003, 3.502454e+004
1.049337e+003, 3.497790e+004
1.051266e+003, 3.489465e+004
1.053194e+003, 3.479040e+004
1.055123e+003, 3.470833e+004
1.057051e+003, 3.464288e+004
1.058980e+003, 3.458061e+004
1.060908e+003, 3.451808e+004
1.062837e+003, 3.444149e+004
1.064765e+003, 3.435851e+004
1.066694e+003, 3.428588e+004
1.068622e+003, 3.422129e+004
1.070550e+003, 3.416184e+004
1.072479e+003, 3.410511e+004
1.074407e+003, 3.405059e+004
1.076336e+003, 3.399275e+004
1.078264e+003, 3.391568e+004
1.080193e+003, 3.383071e+004
1.082121e+003, 3.376328e+004
1.084050e+003, 3.370027e+004
1.085978e+003, 3.361629e+004
1.087907e+003, 3.352344e+004
1.089835e+003, 3.343672e+004
1.091764e+003, 3.335793e+004
1.093692e+003, 3.330050e+004
1.095620e+003, 3.324365e+004
1.097549e+003, 3.314714e+004
1.099477e+003, 3.304717e+004
1.101406e+003, 3.299316e+004
1.103334e+003, 3.295252e+004
1.105263e+003, 3.289582e+004
1.107191e+003, 3.282681e+004
1.109120e+003, 3.274071e+004
1.111048e+003, 3.265343e+004
1.112977e+003, 3.257385e+004
1.114905e+003, 3.250510e+004
1.116834e+003, 3.246143e+004
1.118762e+003, 3.241507e+004
1.120691e+003, 3.234193e+004
1.122619e+003, 3.226759e+004
1.124547e+003, 3.220905e+004
1.126476e+003, 3.214818e+004
1.128404e+003, 3.206711e+004
1.130333e+003, 3.199237e+004
1.132261e+003, 3.194668e+004
1.134190e+003, 3.188949e+004
1.136118e+003, 3.180389e+004
1.138047e+003, 3.170552e+004
1.139975e+003, 3.159258e+004
1.141904e+003, 3.149061e+004
1.143832e+003, 3.140655e+004
1.145761e+003, 3.134210e+004
1.147689e+003, 3.130891e+004
1.149618e+003, 3.125326e+004
1.151546e+003, 3.115506e+004
1.153474e+003, 3.106464e+004
1.155403e+003, 3.099338e+004
1.157331e+003, 3.092468e+004
1.159260e+003, 3.085954e+004
1.161188e+003, 3.077753e+004
1.163117e+003, 3.067539e+004
1.165045e+003, 3.057731e+004
1.166974e+003, 3.048461e+004
1.168902e+003, 3.040658e+004
1.170831e+003, 3.034110e+004
1.172759e+003, 3.027119e+004
1.174688e+003, 3.019504e+004
1.176616e+003, 3.011497e+004
1.178545e+003, 3.003293e+004
1.180473e+003, 2.996443e+004
1.182401e+003, 2.990028e+004
1.184330e+003, 2.979249e+004
1.186258e+003, 2.966497e+004
1.188187e+003, 2.957925e+004
1.190115e+003, 2.951416e+004
1.192044e+003, 2.942244e+004
1.193972e+003, 2.932561e+004
1.195901e+003, 2.925964e+004
1.197829e+003, 2.919784e+004
1.199758e+003, 2.910477e+004
1.201686e+003, 2.900612e+004
1.203615e+003, 2.892868e+004
1.205543e+003, 2.885233e+004
1.207472e+003, 2.875750e+004
1.209400e+003, 2.866988e+004
1.211328e+003, 2.860946e+004
1.213257e+003, 2.855618e+004
1.215185e+003, 2.851637e+004
1.217114e+003, 2.845336e+004
1.219042e+003, 2.834054e+004
1.220971e+003, 2.823360e+004
1.222899e+003, 2.814465e+004
1.224828e+003, 2.806059e+004
1.226756e+003, 2.797968e+004
1.228685e+003, 2.789873e+004
1.230613e+003, 2.781939e+004
1.232542e+003, 2.773114e+004
1.234470e+003, 2.763256e+004
1.236399e+003, 2.753625e+004
1.238327e+003, 2.744254e+004
1.240255e+003, 2.736553e+004
1.242184e+003, 2.730130e+004
1.244112e+003, 2.721812e+004
1.246041e+003, 2.712692e+004
1.247969e+003, 2.706757e+004
1.249898e+003, 2.702419e+004
1.251826e+003, 2.696720e+004
1.253755e+003, 2.690120e+004
1.255683e+003, 2.682168e+004
1.257612e+003, 2.674721e+004
1.259540e+003, 2.669918e+004
1.261469e+003, 2.665530e+004
1.263397e+003, 2.660503e+004
1.265326e+003, 2.654419e+004
1.267254e+003, 2.645988e+004
1.269182e+003, 2.638755e+004
1.271111e+003, 2.634601e+004
1.273039e+003, 2.630122e+004
1.274968e+003, 2.625037e+004
1.276896e+003, 2.617889e+004
1.278825e+003, 2.608035e+004
1.280753e+003, 2.599535e+004
1.282682e+003, 2.592643e+004
1.284610e+003, 2.586229e+004
1.286539e+003, 2.579944e+004
1.288467e+003, 2.571855e+004
1.290396e+003, 2.562723e+004
1.292324e+003, 2.556212e+004
1.294253e+003, 2.550498e+004
1.296181e+003, 2.540367e+004
1.298109e+003, 2.529593e+004
1.300038e+003, 2.524055e+004
1.301966e+003, 2.519564e+004
1.303895e+003, 2.511492e+004
1.305823e+003, 2.503515e+004
1.307752e+003, 2.498572e+004
1.309680e+003, 2.493362e+004
1.311609e+003, 2.485618e+004
1.313537e+003, 2.478754e+004
1.315466e+003, 2.474768e+004
1.317394e+003, 2.469445e+004
1.319323e+003, 2.461746e+004
1.321251e+003, 2.454209e+004
1.323180e+003, 2.446765e+004
1.325108e+003, 2.439705e+004
1.327036e+003, 2.432966e+004
1.328965e+003, 2.425830e+004
1.330893e+003, 2.418594e+004
1.332822e+003, 2.412810e+004
1.334750e+003, 2.407408e+004
1.336679e+003, 2.400578e+004
1.338607e+003, 2.392602e+004
1.340536e+003, 2.382730e+004
1.342464e+003, 2.373185e+004
1.344393e+003, 2.365391e+004
1.346321e+003, 2.358060e+004
1.348250e+003, 2.350735e+004
1.350178e+003, 2.343873e+004
1.352107e+003, 2.338163e+004
1.354035e+003, 2.331052e+004
1.355964e+003, 2.322092e+004
1.357892e+003, 2.312821e+004
1.359820e+003, 2.303369e+004
1.361749e+003, 2.296123e+004
1.363677e+003, 2.290540e+004
1.365606e+003, 2.283881e+004
1.367534e+003, 2.276572e+004
1.369463e+003, 2.268964e+004
1.371391e+003, 2.262120e+004
1.373320e+003, 2.259288e+004
1.375248e+003, 2.255189e+004
1.377177e+003, 2.243523e+004
1.379105e+003, 2.233036e+004
1.381034e+003, 2.227910e+004
1.382962e+003, 2.222448e+004
1.384891e+003, 2.215631e+004
1.386819e+003, 2.207552e+004
1.388747e+003, 2.198263e+004
1.390676e+003, 2.189773e+004
1.392604e+003, 2.182242e+004
1.394533e+003, 2.174938e+004
1.396461e+003, 2.167834e+004
1.398390e+003, 2.160351e+004
1.400318e+003, 2.153105e+004
1.402247e+003, 2.146856e+004
1.404175e+003, 2.141276e+004
1.406104e+003, 2.136137e+004
1.408032e+003, 2.131240e+004
1.409961e+003, 2.127304e+004
1.411889e+003, 2.121919e+004
1.413818e+003, 2.113260e+004
1.415746e+003, 2.106205e+004
1.417674e+003, 2.101757e+004
1.419603e+003, 2.094567e+004
1.421531e+003, 2.084889e+004
1.423460e+003, 2.078548e+004
1.425388e+003, 2.074558e+004
1.427317e+003, 2.070544e+004
1.429245e+003, 2.065879e+004
1.431174e+003, 2.059712e+004
1.433102e+003, 2.052664e+004
1.435031e+003, 2.044600e+004
1.436959e+003, 2.036883e+004
1.438888e+003, 2.029836e+004
1.440816e+003, 2.023793e+004
1.442745e+003, 2.019329e+004
1.444673e+003, 2.013794e+004
1.446601e+003, 2.007048e+004
1.448530e+003, 1.999061e+004
1.450458e+003, 1.990443e+004
1.452387e+003, 1.984954e+004
1.454315e+003, 1.980287e+004
1.456244e+003, 1.971851e+004
1.458172e+003, 1.962975e+004
1.460101e+003, 1.956678e+004
1.462029e+003, 1.950457e+004
1.463958e+003, 1.943611e+004
1.465886e+003, 1.935743e+004
1.467815e+003, 1.926492e+004
1.469743e+003, 1.918935e+004
1.471672e+003, 1.913327e+004
1.473600e+003, 1.906737e+004
1.475528e+003, 1.899610e+004
1.477457e+003, 1.894333e+004
1.479385e+003, 1.889521e+004
1.481314e+003, 1.883082e+004
1.483242e+003, 1.875910e+004
1.485171e+003, 1.868444e+004
1.487099e+003, 1.860802e+004
1.489028e+003, 1.852742e+004
1.490956e+003, 1.845700e+004
1.492885e+003, 1.840061e+004
1.494813e+003, 1.833192e+004
1.496742e+003, 1.825200e+004
1.498670e+003, 1.817790e+004
1.500599e+003, 1.810802e+004
1.502527e+003, 1.803701e+004
1.504455e+003, 1.796618e+004
1.506384e+003, 1.789251e+004
1.508312e+003, 1.782748e+004
1.510241e+003, 1.778783e+004
1.512169e+003, 1.773652e+004
1.514098e+003, 1.765927e+004
1.516026e+003, 1.760077e+004
1.517955e+003, 1.756140e+004
1.519883e+003, 1.752042e+004
1.521812e+003, 1.747170e+004
1.523740e+003, 1.739320e+004
1.525669e+003, 1.730959e+004
1.527597e+003, 1.725352e+004
1.529526e+003, 1.719876e+004
1.531454e+003, 1.712726e+004
1.533382e+003, 1.706266e+004
1.535311e+003, 1.702027e+004
1.537239e+003, 1.695793e+004
1.539168e+003, 1.687216e+004
1.541096e+003, 1.681472e+004
1.543025e+003, 1.677156e+004
1.544953e+003, 1.668979e+004
1.546882e+003, 1.660590e+004
1.548810e+003, 1.656819e+004
1.550739e+003, 1.653132e+004
1.552667e+003, 1.647493e+004
1.554596e+003, 1.640796e+004
1.556524e+003, 1.632524e+004
1.558453e+003, 1.627782e+004
1.560381e+003, 1.626365e+004
1.562309e+003, 1.621874e+004
1.564238e+003, 1.615371e+004
1.566166e+003, 1.609056e+004
1.568095e+003, 1.602810e+004
1.570023e+003, 1.596344e+004
1.571952e+003, 1.590604e+004
1.573880e+003, 1.586389e+004
1.575809e+003, 1.581021e+004
1.577737e+003, 1.574112e+004
1.579666e+003, 1.567202e+004
1.581594e+003, 1.560557e+004
1.583523e+003, 1.554574e+004
1.585451e+003, 1.549193e+004
1.587380e+003, 1.544722e+004
1.589308e+003, 1.540110e+004
1.591236e+003, 1.534879e+004
1.593165e+003, 1.528499e+004
1.595093e+003, 1.520449e+004
1.597022e+003, 1.515223e+004
1.598950e+003, 1.512253e+004
1.600879e+003, 1.504849e+004
1.602807e+003, 1.495460e+004
1.604736e+003, 1.488259e+004
1.606664e+003, 1.482346e+004
1.608593e+003, 1.478064e+004
1.610521e+003, 1.472902e+004
1.612450e+003, 1.465743e+004
1.614378e+003, 1.458722e+004
1.616307e+003, 1.452025e+004
1.618235e+003, 1.448196e+004
1.620163e+003, 1.445424e+004
1.622092e+003, 1.439150e+004
1.624020e+003, 1.432255e+004
1.625949e+003, 1.427235e+004
1.627877e+003, 1.422218e+004
1.629806e+003, 1.416365e+004
1.631734e+003, 1.410446e+004
1.633663e+003, 1.404386e+004
1.635591e+003, 1.400275e+004
1.637520e+003, 1.396888e+004
1.639448e+003, 1.390686e+004
1.641377e+003, 1.383914e+004
1.643305e+003, 1.378329e+004
1.645234e+003, 1.372997e+004
1.647162e+003, 1.367563e+004
1.649090e+003, 1.362823e+004
1.651019e+003, 1.358780e+004
1.652947e+003, 1.354283e+004
1.654876e+003, 1.349049e+004
1.656804e+003, 1.341519e+004
1.658733e+003, 1.334577e+004
1.660661e+003, 1.330674e+004
1.662590e+003, 1.326574e+004
1.664518e+003, 1.321534e+004
1.666447e+003, 1.316023e+004
1.668375e+003, 1.310236e+004
1.670304e+003, 1.304139e+004
1.672232e+003, 1.298304e+004
1.674161e+003, 1.293483e+004
1.676089e+003, 1.289504e+004
1.678017e+003, 1.286692e+004
1.679946e+003, 1.282624e+004
1.681874e+003, 1.276780e+004
1.683803e+003, 1.271684e+004
1.685731e+003, 1.267367e+004
1.687660e+003, 1.263634e+004
1.689588e+003, 1.259640e+004
1.691517e+003, 1.253851e+004
1.693445e+003, 1.248732e+004
1.695374e+003, 1.245670e+004
1.697302e+003, 1.241227e+004
1.699231e+003, 1.235222e+004
1.701159e+003, 1.229516e+004
1.703088e+003, 1.224448e+004
1.705016e+003, 1.220770e+004
1.706944e+003, 1.217482e+004
1.708873e+003, 1.214673e+004
1.710801e+003, 1.210278e+004
1.712730e+003, 1.203811e+004
1.714658e+003, 1.197930e+004
1.716587e+003, 1.192601e+004
1.718515e+003, 1.186790e+004
1.720444e+003, 1.181432e+004
1.722372e+003, 1.177853e+004
1.724301e+003, 1.174214e+004
1.726229e+003, 1.169915e+004
1.728158e+003, 1.164887e+004
1.730086e+003, 1.159070e+004
1.732015e+003, 1.151631e+004
1.733943e+003, 1.144829e+004
1.735871e+003, 1.142968e+004
1.737800e+003, 1.141554e+004
1.739728e+003, 1.139118e+004
1.741657e+003, 1.133918e+004
1.743585e+003, 1.125532e+004
1.745514e+003, 1.120871e+004
1.747442e+003, 1.118003e+004
1.749371e+003, 1.112380e+004
1.751299e+003, 1.106493e+004
1.753228e+003, 1.101602e+004
1.755156e+003, 1.097437e+004
1.757085e+003, 1.093959e+004
1.759013e+003, 1.090335e+004
1.760942e+003, 1.086166e+004
1.762870e+003, 1.079549e+004
1.764798e+003, 1.073318e+004
1.766727e+003, 1.070296e+004
1.768655e+003, 1.066283e+004
1.770584e+003, 1.060376e+004
1.772512e+003, 1.056043e+004
1.774441e+003, 1.053037e+004
1.776369e+003, 1.050232e+004
1.778298e+003, 1.047102e+004
1.780226e+003, 1.042829e+004
1.782155e+003, 1.038819e+004
1.784083e+003, 1.035368e+004
1.786012e+003, 1.030965e+004
1.787940e+003, 1.025936e+004
1.789869e+003, 1.021719e+004
1.791797e+003, 1.017802e+004
1.793725e+003, 1.013610e+004
1.795654e+003, 1.009981e+004
1.797582e+003, 1.007294e+004
1.799511e+003, 1.002134e+004
1.801439e+003, 9.954740e+003
1.803368e+003, 9.904010e+003
1.805296e+003, 9.862369e+003
1.807225e+003, 9.828330e+003
1.809153e+003, 9.794378e+003
1.811082e+003, 9.760119e+003
1.813010e+003, 9.719713e+003
1.814939e+003, 9.675224e+003
1.816867e+003, 9.635748e+003
1.818796e+003, 9.590298e+003
1.820724e+003, 9.518364e+003
1.822652e+003, 9.473854e+003
1.824581e+003, 9.470564e+003
1.826509e+003, 9.435693e+003
1.828438e+003, 9.383068e+003
1.830366e+003, 9.335479e+003
1.832295e+003, 9.300153e+003
1.834223e+003, 9.291044e+003
1.836152e+003, 9.247062e+003
1.838080e+003, 9.162703e+003
1.840009e+003, 9.127432e+003
1.841937e+003, 9.110529e+003
1.843866e+003, 9.066338e+003
1.845794e+003, 9.017116e+003
1.847723e+003, 8.970202e+003
1.849651e+003, 8.918830e+003
1.851579e+003, 8.866096e+003
1.853508e+003, 8.834674e+003
1.855436e+003, 8.808974e+003
1.857365e+003, 8.773367e+003
1.859293e+003, 8.735816e+003
1.861222e+003, 8.697904e+003
1.863150e+003, 8.653509e+003
1.865079e+003, 8.607444e+003
1.867007e+003, 8.576869e+003
1.868936e+003, 8.542817e+003
1.870864e+003, 8.488619e+003
1.872793e+003, 8.443436e+003
1.874721e+003, 8.409893e+003
1.876650e+003, 8.383976e+003
1.878578e+003, 8.356182e+003
1.880506e+003, 8.308557e+003
1.882435e+003, 8.265273e+003
1.884363e+003, 8.235274e+003
1.886292e+003, 8.208303e+003
1.888220e+003, 8.180347e+003
1.890149e+003, 8.138181e+003
1.892077e+003, 8.093021e+003
1.894006e+003, 8.052276e+003
1.895934e+003, 8.015191e+003
1.897863e+003, 7.981464e+003
1.899791e+003, 7.948781e+003
1.901720e+003, 7.912117e+003
1.903648e+003, 7.857259e+003
1.905577e+003, 7.810560e+003
1.907505e+003, 7.789304e+003
1.909433e+003, 7.761013e+003
1.911362e+003, 7.725550e+003
1.913290e+003, 7.676589e+003
1.915219e+003, 7.633679e+003
1.917147e+003, 7.614603e+003
1.919076e+003, 7.589979e+003
1.921004e+003, 7.555310e+003
1.922933e+003, 7.536152e+003
1.924861e+003, 7.512685e+003
1.926790e+003, 7.448087e+003
1.928718e+003, 7.397058e+003
1.930647e+003, 7.378363e+003
1.932575e+003, 7.348225e+003
1.934504e+003, 7.308909e+003
1.936432e+003, 7.266675e+003
1.938360e+003, 7.232428e+003
1.940289e+003, 7.213667e+003
1.942217e+003, 7.189030e+003
1.944146e+003, 7.155418e+003
1.946074e+003, 7.106787e+003
1.948003e+003, 7.061269e+003
1.949931e+003, 7.041976e+003
1.951860e+003, 7.012596e+003
1.953788e+003, 6.968845e+003
1.955717e+003, 6.928870e+003
1.957645e+003, 6.895987e+003
1.959574e+003, 6.880349e+003
1.961502e+003, 6.858772e+003
1.963431e+003, 6.825163e+003
1.965359e+003, 6.789574e+003
1.967287e+003, 6.754452e+003
1.969216e+003, 6.724408e+003
1.971144e+003, 6.693334e+003
1.973073e+003, 6.655794e+003
1.975001e+003, 6.630365e+003
1.976930e+003, 6.611052e+003
1.978858e+003, 6.572058e+003
1.980787e+003, 6.532449e+003
1.982715e+003, 6.508396e+003
1.984644e+003, 6.480272e+003
1.986572e+003, 6.447479e+003
1.988501e+003, 6.412938e+003
1.990429e+003, 6.382589e+003
1.992358e+003, 6.366692e+003
1.994286e+003, 6.341112e+003
1.996214e+003, 6.302968e+003
1.998143e+003, 6.276013e+003
2.000071e+003, 6.249852e+003
2.002000e+003, 6.213159e+003
2.003928e+003, 6.174458e+003
2.005857e+003, 6.135035e+003
2.007785e+003, 6.109504e+003
2.009714e+003, 6.088931e+003
2.011642e+003, 6.061693e+003
2.013571e+003, 6.032390e+003
2.015499e+003, 6.002332e+003
2.017428e+003, 5.972733e+003
2.019356e+003, 5.944743e+003
2.021285e+003, 5.922415e+003
2.023213e+003, 5.897465e+003
2.025141e+003, 5.867479e+003
2.027070e+003, 5.835358e+003
2.028998e+003, 5.803916e+003
2.030927e+003, 5.778425e+003
2.032855e+003, 5.755643e+003
2.034784e+003, 5.734626e+003
2.036712e+003, 5.706007e+003
2.038641e+003, 5.670213e+003
2.040569e+003, 5.619993e+003
2.042498e+003, 5.586426e+003
2.044426e+003, 5.581517e+003
2.046355e+003, 5.558542e+003
2.048283e+003, 5.523384e+003
2.050212e+003, 5.492168e+003
2.052140e+003, 5.463931e+003
2.054068e+003, 5.438554e+003
2.055997e+003, 5.411936e+003
2.057925e+003, 5.384423e+003
2.059854e+003, 5.358249e+003
2.061782e+003, 5.329801e+003
2.063711e+003, 5.297470e+003
2.065639e+003, 5.262252e+003
2.067568e+003, 5.231063e+003
2.069496e+003, 5.220908e+003
2.071425e+003, 5.206999e+003
2.073353e+003, 5.176907e+003
2.075281e+003, 5.152843e+003
2.077210e+003, 5.130696e+003
2.079138e+003, 5.104178e+003
2.081067e+003, 5.075328e+003
2.082995e+003, 5.044164e+003
2.084924e+003, 5.024132e+003
2.086852e+003, 5.004380e+003
2.088781e+003, 4.966416e+003
2.090709e+003, 4.928329e+003
2.092638e+003, 4.894819e+003
2.094566e+003, 4.874941e+003
2.096495e+003, 4.860033e+003
2.098423e+003, 4.840294e+003
2.100352e+003, 4.819554e+003
2.102280e+003, 4.798237e+003
2.104208e+003, 4.771341e+003
2.106137e+003, 4.742312e+003
2.108065e+003, 4.713665e+003
2.109994e+003, 4.688401e+003
2.111922e+003, 4.666081e+003
2.113851e+003, 4.636906e+003
2.115779e+003, 4.613530e+003
2.117708e+003, 4.609978e+003
2.119636e+003, 4.585255e+003
2.121565e+003, 4.544030e+003
2.123493e+003, 4.516769e+003
2.125422e+003, 4.500264e+003
2.127350e+003, 4.495674e+003
2.129279e+003, 4.474369e+003
2.131207e+003, 4.441973e+003
2.133135e+003, 4.413857e+003
2.135064e+003, 4.388453e+003
2.136992e+003, 4.365427e+003
2.138921e+003, 4.337042e+003
2.140849e+003, 4.309956e+003
2.142778e+003, 4.295698e+003
2.144706e+003, 4.281132e+003
2.146635e+003, 4.263538e+003
2.148563e+003, 4.243042e+003
2.150492e+003, 4.219828e+003
2.152420e+003, 4.193785e+003
2.154349e+003, 4.164477e+003
2.156277e+003, 4.134704e+003
2.158206e+003, 4.123313e+003
2.160134e+003, 4.115154e+003
2.162063e+003, 4.103172e+003
2.163991e+003, 4.084581e+003
2.165919e+003, 4.062208e+003
2.167848e+003, 4.042086e+003
2.169776e+003, 4.023562e+003
2.171705e+003, 4.006956e+003
2.173633e+003, 3.978916e+003
2.175562e+003, 3.947170e+003
2.177490e+003, 3.919668e+003
2.179419e+003, 3.897196e+003
2.181347e+003, 3.879531e+003
2.183276e+003, 3.864643e+003
2.185204e+003, 3.848446e+003
2.187133e+003, 3.828774e+003
2.189061e+003, 3.806038e+003
2.190990e+003, 3.781879e+003
2.192918e+003, 3.758316e+003
2.194846e+003, 3.740189e+003
2.196775e+003, 3.728298e+003
2.198703e+003, 3.702685e+003
2.200632e+003, 3.674578e+003
2.202560e+003, 3.659401e+003
2.204489e+003, 3.641429e+003
2.206417e+003, 3.621620e+003
2.208346e+003, 3.618777e+003
2.210274e+003, 3.608195e+003
2.212203e+003, 3.572501e+003
2.214131e+003, 3.553150e+003
2.216060e+003, 3.541161e+003
2.217988e+003, 3.518279e+003
2.219917e+003, 3.489176e+003
2.221845e+003, 3.456553e+003
2.223773e+003, 3.444286e+003
2.225702e+003, 3.435721e+003
2.227630e+003, 3.414650e+003
2.229559e+003, 3.404007e+003
2.231487e+003, 3.396860e+003
2.233416e+003, 3.368028e+003
2.235344e+003, 3.338316e+003
2.237273e+003, 3.314423e+003
2.239201e+003, 3.311811e+003
2.241130e+003, 3.305855e+003
2.243058e+003, 3.267860e+003
2.244987e+003, 3.249168e+003
2.246915e+003, 3.247634e+003
2.248844e+003, 3.234872e+003
2.250772e+003, 3.218843e+003
2.252700e+003, 3.202538e+003
2.254629e+003, 3.185958e+003
2.256557e+003, 3.164794e+003
2.258486e+003, 3.129902e+003
2.260414e+003, 3.114484e+003
2.262343e+003, 3.115526e+003
2.264271e+003, 3.098839e+003
2.266200e+003, 3.081892e+003
2.268128e+003, 3.070960e+003
2.270057e+003, 3.051020e+003
2.271985e+003, 3.028117e+003
2.273914e+003, 3.009989e+003
2.275842e+003, 2.993204e+003
2.277771e+003, 2.977640e+003
2.279699e+003, 2.965154e+003
2.281627e+003, 2.949958e+003
2.283556e+003, 2.930202e+003
2.285484e+003, 2.917680e+003
2.287413e+003, 2.905793e+003
2.289341e+003, 2.883647e+003
2.291270e+003, 2.872166e+003
2.293198e+003, 2.866688e+003
2.295127e+003, 2.850454e+003
2.297055e+003, 2.829307e+003
2.298984e+003, 2.805337e+003
2.300912e+003, 2.792719e+003
2.302841e+003, 2.780192e+003
2.304769e+003, 2.754387e+003
2.306698e+003, 2.740621e+003
2.308626e+003, 2.731545e+003
2.310554e+003, 2.706896e+003
2.312483e+003, 2.688113e+003
2.314411e+003, 2.679097e+003
2.316340e+003, 2.661898e+003
2.318268e+003, 2.645632e+003
2.320197e+003, 2.635846e+003
2.322125e+003, 2.621784e+003
2.324054e+003, 2.606890e+003
2.325982e+003, 2.596871e+003
2.327911e+003, 2.584452e+003
2.329839e+003, 2.569185e+003
2.331768e+003, 2.552087e+003
2.333696e+003, 2.540410e+003
2.335625e+003, 2.535541e+003
2.337553e+003, 2.514200e+003
2.339481e+003, 2.493619e+003
2.341410e+003, 2.488148e+003
2.343338e+003, 2.478054e+003
2.345267e+003, 2.462228e+003
2.347195e+003, 2.438587e+003
2.349124e+003, 2.418097e+003
2.351052e+003, 2.403530e+003
2.352981e+003, 2.400249e+003
2.354909e+003, 2.393976e+003
2.356838e+003, 2.379392e+003
2.358766e+003, 2.359229e+003
2.360695e+003, 2.341048e+003
2.362623e+003, 2.333189e+003
2.364552e+003, 2.326644e+003
2.366480e+003, 2.317584e+003
2.368408e+003, 2.297211e+003
2.370337e+003, 2.282886e+003
2.372265e+003, 2.275831e+003
2.374194e+003, 2.270796e+003
2.376122e+003, 2.261758e+003
2.378051e+003, 2.245673e+003
2.379979e+003, 2.234066e+003
2.381908e+003, 2.220969e+003
2.383836e+003, 2.199533e+003
2.385765e+003, 2.188296e+003
2.387693e+003, 2.181971e+003
2.389622e+003, 2.172760e+003
2.391550e+003, 2.160370e+003
2.393479e+003, 2.146376e+003
2.395407e+003, 2.133775e+003
2.397335e+003, 2.128422e+003
2.399264e+003, 2.130339e+003
2.401192e+003, 2.116831e+003
2.403121e+003, 2.097634e+003
2.405049e+003, 2.077669e+003
2.406978e+003, 2.065903e+003
2.408906e+003, 2.054869e+003
2.410835e+003, 2.037407e+003
2.412763e+003, 2.021429e+003
2.414692e+003, 2.007154e+003
2.416620e+003, 1.991288e+003
2.418549e+003, 1.987340e+003
2.420477e+003, 1.989762e+003
2.422406e+003, 1.971407e+003
2.424334e+003, 1.958041e+003
2.426262e+003, 1.953241e+003
2.428191e+003, 1.933347e+003
2.430119e+003, 1.914566e+003
2.432048e+003, 1.904537e+003
2.433976e+003, 1.891776e+003
2.435905e+003, 1.877391e+003
2.437833e+003, 1.860745e+003
2.439762e+003, 1.855162e+003
2.441690e+003, 1.850422e+003
2.443619e+003, 1.829663e+003
2.445547e+003, 1.814743e+003
2.447476e+003, 1.805222e+003
2.449404e+003, 1.795767e+003
2.451333e+003, 1.786465e+003
2.453261e+003, 1.777821e+003
2.455189e+003, 1.773953e+003
2.457118e+003, 1.766485e+003
2.459046e+003, 1.753402e+003
2.460975e+003, 1.745735e+003
2.462903e+003, 1.738928e+003
2.464832e+003, 1.730774e+003
2.466760e+003, 1.723048e+003
2.468689e+003, 1.709436e+003
2.470617e+003, 1.685606e+003
2.472546e+003, 1.677526e+003
2.474474e+003, 1.671732e+003
2.476403e+003, 1.653107e+003
2.478331e+003, 1.641180e+003
2.480260e+003, 1.632971e+003
2.482188e+003, 1.620659e+003
2.484116e+003, 1.614117e+003
2.486045e+003, 1.608739e+003
2.487973e+003, 1.588944e+003
2.489902e+003, 1.572909e+003
2.491830e+003, 1.563655e+003
2.493759e+003, 1.562654e+003
2.495687e+003, 1.554470e+003
2.497616e+003, 1.538164e+003
2.499544e+003, 1.525465e+003
2.501473e+003, 1.514345e+003
2.503401e+003, 1.504011e+003
2.505330e+003, 1.494836e+003
2.507258e+003, 1.492988e+003
2.509187e+003, 1.501368e+003
2.511115e+003, 1.488656e+003
2.513043e+003, 1.472334e+003
2.514972e+003, 1.463630e+003
2.516900e+003, 1.459487e+003
2.518829e+003, 1.450087e+003
2.520757e+003, 1.421550e+003
2.522686e+003, 1.420737e+003
2.524614e+003, 1.426192e+003
2.526543e+003, 1.416335e+003
2.528471e+003, 1.401881e+003
2.530400e+003, 1.390363e+003
2.532328e+003, 1.391326e+003
2.534257e+003, 1.376692e+003
2.536185e+003, 1.356931e+003
2.538114e+003, 1.350635e+003
2.540042e+003, 1.345246e+003
2.541970e+003, 1.337403e+003
2.543899e+003, 1.320420e+003
2.545827e+003, 1.319851e+003
2.547756e+003, 1.329760e+003
2.549684e+003, 1.332150e+003
2.551613e+003, 1.323576e+003
2.553541e+003, 1.308961e+003
2.555470e+003, 1.304533e+003
2.557398e+003, 1.292516e+003
2.559327e+003, 1.274631e+003
2.561255e+003, 1.265724e+003
2.563184e+003, 1.255407e+003
2.565112e+003, 1.244692e+003
2.567041e+003, 1.246467e+003
2.568969e+003, 1.240772e+003
2.570897e+003, 1.227029e+003
2.572826e+003, 1.217637e+003
2.574754e+003, 1.211107e+003
2.576683e+003, 1.205470e+003
2.578611e+003, 1.194302e+003
2.580540e+003, 1.183410e+003
2.582468e+003, 1.174458e+003
2.584397e+003, 1.168282e+003
2.586325e+003, 1.165547e+003
2.588254e+003, 1.164603e+003
2.590182e+003, 1.153186e+003
2.592111e+003, 1.145147e+003
2.594039e+003, 1.142624e+003
2.595968e+003, 1.135091e+003
2.597896e+003, 1.122594e+003
2.599824e+003, 1.107048e+003
2.601753e+003, 1.099961e+003
2.603681e+003, 1.097590e+003
2.605610e+003, 1.096726e+003
2.607538e+003, 1.083592e+003
2.609467e+003, 1.073794e+003
2.611395e+003, 1.069808e+003
2.613324e+003, 1.062810e+003
2.615252e+003, 1.053696e+003
2.617181e+003, 1.044134e+003
2.619109e+003, 1.039781e+003
2.621038e+003, 1.038403e+003
2.622966e+003, 1.037411e+003
2.624895e+003, 1.030209e+003
2.626823e+003, 1.019972e+003
2.628751e+003, 1.010108e+003
2.630680e+003, 1.008914e+003
2.632608e+003, 1.007807e+003
2.634537e+003, 1.003416e+003
2.636465e+003, 9.911642e+002
2.638394e+003, 9.781584e+002
2.640322e+003, 9.673541e+002
2.642251e+003, 9.611116e+002
2.644179e+003, 9.628079e+002
2.646108e+003, 9.656420e+002
2.648036e+003, 9.557010e+002
2.649965e+003, 9.442852e+002
2.651893e+003, 9.342419e+002
2.653822e+003, 9.271053e+002
2.655750e+003, 9.256401e+002
2.657678e+003, 9.230399e+002
2.659607e+003, 9.100426e+002
2.661535e+003, 8.954176e+002
2.663464e+003, 8.872407e+002
2.665392e+003, 8.937123e+002
2.667321e+003, 8.859261e+002
2.669249e+003, 8.742290e+002
2.671178e+003, 8.690018e+002
2.673106e+003, 8.605459e+002
2.675035e+003, 8.508817e+002
2.676963e+003, 8.421519e+002
2.678892e+003, 8.520832e+002
2.680820e+003, 8.529069e+002
2.682749e+003, 8.337936e+002
2.684677e+003, 8.322570e+002
2.686605e+003, 8.274661e+002
2.688534e+003, 8.128282e+002
2.690462e+003, 8.031196e+002
2.692391e+003, 7.955010e+002
2.694319e+003, 7.898222e+002
2.696248e+003, 7.921497e+002
2.698176e+003, 7.896431e+002
2.700105e+003, 7.824020e+002
2.702033e+003, 7.799600e+002
2.703962e+003, 7.741413e+002
2.705890e+003, 7.667888e+002
2.707819e+003, 7.666985e+002
2.709747e+003, 7.562700e+002
2.711676e+003, 7.425399e+002
2.713604e+003, 7.378927e+002
2.715532e+003, 7.334731e+002
2.717461e+003, 7.276749e+002
2.719389e+003, 7.190789e+002
2.721318e+003, 7.133331e+002
2.723246e+003, 7.092322e+002
2.725175e+003, 7.058555e+002
2.727103e+003, 6.989911e+002
2.729032e+003, 6.924972e+002
2.730960e+003, 6.879181e+002
2.732889e+003, 6.812231e+002
2.734817e+003, 6.783930e+002
2.736746e+003, 6.784511e+002
2.738674e+003, 6.689679e+002
2.740603e+003, 6.591874e+002
2.742531e+003, 6.530200e+002
2.744459e+003, 6.583008e+002
2.746388e+003, 6.514849e+002
2.748316e+003, 6.421239e+002
2.750245e+003, 6.469529e+002
2.752173e+003, 6.430727e+002
2.754102e+003, 6.336906e+002
2.756030e+003, 6.224130e+002
2.757959e+003, 6.110508e+002
2.759887e+003, 6.087820e+002
2.761816e+003, 6.171699e+002
2.763744e+003, 6.177555e+002
2.765673e+003, 6.122664e+002
2.767601e+003, 6.026956e+002
2.769530e+003, 5.886356e+002
2.771458e+003, 5.887776e+002
2.773386e+003, 5.941830e+002
2.775315e+003, 5.841578e+002
2.777243e+003, 5.703007e+002
2.779172e+003, 5.596868e+002
2.781100e+003, 5.585517e+002
2.783029e+003, 5.552961e+002
2.784957e+003, 5.539313e+002
2.786886e+003, 5.565138e+002
2.788814e+003, 5.415750e+002
2.790743e+003, 5.330848e+002
2.792671e+003, 5.358397e+002
2.794600e+003, 5.375612e+002
2.796528e+003, 5.307594e+002
2.798457e+003, 5.195450e+002
2.800385e+003, 5.128285e+002
2.802313e+003, 5.090201e+002
2.804242e+003, 5.051770e+002
2.806170e+003, 4.991739e+002
2.808099e+003, 5.008355e+002
2.810027e+003, 4.983513e+002
2.811956e+003, 4.888281e+002
2.813884e+003, 4.893078e+002
2.815813e+003, 4.841570e+002
2.817741e+003, 4.739142e+002
2.819670e+003, 4.701871e+002
2.821598e+003, 4.692725e+002
2.823527e+003, 4.699277e+002
2.825455e+003, 4.727851e+002
2.827384e+003, 4.670891e+002
2.829312e+003, 4.600860e+002
2.831240e+003, 4.563044e+002
2.833169e+003, 4.550052e+002
2.835097e+003, 4.510953e+002
2.837026e+003, 4.451223e+002
2.838954e+003, 4.442182e+002
2.840883e+003, 4.409947e+002
2.842811e+003, 4.354630e+002
2.844740e+003, 4.291381e+002
2.846668e+003, 4.194942e+002
2.848597e+003, 4.113253e+002
2.850525e+003, 4.077955e+002
2.852454e+003, 4.136993e+002
2.854382e+003, 4.084319e+002
2.856311e+003, 3.938174e+002
2.858239e+003, 3.931678e+002
2.860167e+003, 3.912883e+002
2.862096e+003, 3.919174e+002
2.864024e+003, 4.010743e+002
2.865953e+003, 3.895683e+002
2.867881e+003, 3.753842e+002
2.869810e+003, 3.679432e+002
2.871738e+003, 3.662389e+002
2.873667e+003, 3.661271e+002
2.875595e+003, 3.649139e+002
2.877524e+003, 3.589100e+002
2.879452e+003, 3.514189e+002
2.881381e+003, 3.484085e+002
2.883309e+003, 3.541898e+002
2.885238e+003, 3.520130e+002
2.887166e+003, 3.511013e+002
2.889094e+003, 3.522448e+002
2.891023e+003, 3.478205e+002
2.892951e+003, 3.378552e+002
2.894880e+003, 3.303130e+002
2.896808e+003, 3.357497e+002
2.898737e+003, 3.295180e+002
2.900665e+003, 3.225194e+002
2.902594e+003, 3.203145e+002
2.904522e+003, 3.227078e+002
2.906451e+003, 3.215216e+002
2.908379e+003, 3.174308e+002
2.910308e+003, 3.136169e+002
2.912236e+003, 3.117313e+002
2.914165e+003, 3.056813e+002
2.916093e+003, 2.937271e+002
2.918021e+003, 2.900970e+002
2.919950e+003, 2.902514e+002
2.921878e+003, 2.927456e+002
2.923807e+003, 2.988415e+002
2.925735e+003, 2.936013e+002
2.927664e+003, 2.833256e+002
2.929592e+003, 2.736175e+002
2.931521e+003, 2.702377e+002
2.933449e+003, 2.726238e+002
2.935378e+003, 2.758730e+002
2.937306e+003, 2.699155e+002
2.939235e+003, 2.650824e+002
2.941163e+003, 2.665107e+002
2.943092e+003, 2.752730e+002
2.945020e+003, 2.560833e+002
2.946948e+003, 2.558966e+002
2.948877e+003, 2.685096e+002
2.950805e+003, 2.585288e+002
2.952734e+003, 2.564035e+002
2.954662e+003, 2.488999e+002
2.956591e+003, 2.276683e+002
2.958519e+003, 2.380862e+002
2.960448e+003, 2.445429e+002
2.962376e+003, 2.409324e+002
2.964305e+003, 2.303485e+002
2.966233e+003, 2.292433e+002
2.968162e+003, 2.305948e+002
2.970090e+003, 2.295320e+002
2.972019e+003, 2.258989e+002
2.973947e+003, 2.205992e+002
2.975875e+003, 2.169828e+002
2.977804e+003, 2.189135e+002
2.979732e+003, 2.066447e+002
2.981661e+003, 1.975262e+002
2.983589e+003, 1.981848e+002
2.985518e+003, 2.069655e+002
2.987446e+003, 1.979013e+002
2.989375e+003, 1.886346e+002
2.991303e+003, 1.975634e+002
2.993232e+003, 1.905800e+002
2.995160e+003, 1.866582e+002
2.997089e+003, 1.882350e+002
2.999017e+003, 1.868323e+002
3.000946e+003, 1.883652e+002
3.002874e+003, 1.888097e+002
3.004802e+003, 1.854885e+002
3.006731e+003, 1.789034e+002
3.008659e+003, 1.798464e+002
3.010588e+003, 1.816542e+002
3.012516e+003, 1.733481e+002
3.014445e+003, 1.671759e+002
3.016373e+003, 1.654947e+002
3.018302e+003, 1.662303e+002
3.020230e+003, 1.604705e+002
3.022159e+003, 1.639441e+002
3.024087e+003, 1.653615e+002
3.026016e+003, 1.577715e+002
3.027944e+003, 1.623736e+002
3.029873e+003, 1.612142e+002
3.031801e+003, 1.561630e+002
3.033729e+003, 1.550398e+002
3.035658e+003, 1.524498e+002
3.037586e+003, 1.494353e+002
3.039515e+003, 1.489048e+002
3.041443e+003, 1.609786e+002
3.043372e+003, 1.562500e+002
3.045300e+003, 1.482938e+002
3.047229e+003, 1.461048e+002
3.049157e+003, 1.405848e+002
3.051086e+003, 1.347937e+002
3.053014e+003, 1.296322e+002
3.054943e+003, 1.248717e+002
3.056871e+003, 1.306674e+002
3.058800e+003, 1.319030e+002
3.060728e+003, 1.273542e+002
3.062656e+003, 1.229345e+002
3.064585e+003, 1.186916e+002
3.066513e+003, 1.192666e+002
3.068442e+003, 1.236122e+002
3.070370e+003, 1.193865e+002
3.072299e+003, 1.107446e+002
3.074227e+003, 1.064947e+002
3.076156e+003, 1.128707e+002
3.078084e+003, 1.443252e+002
3.080013e+003, 1.383128e+002
3.081941e+003, 1.155816e+002
3.083870e+003, 1.089691e+002
3.085798e+003, 1.040016e+002
3.087727e+003, 9.988644e+001
3.089655e+003, 9.882817e+001
3.091583e+003, 1.044820e+002
3.093512e+003, 9.998534e+001
3.095440e+003, 9.862399e+001
3.097369e+003, 1.014404e+002
3.099297e+003, 9.672270e+001
3.101226e+003, 9.526670e+001
3.103154e+003, 9.057816e+001
3.105083e+003, 8.401890e+001
3.107011e+003, 9.505900e+001
3.108940e+003, 1.012646e+002
3.110868e+003, 1.006645e+002
3.112797e+003, 9.528609e+001
3.114725e+003, 9.527634e+001
3.116654e+003, 9.398518e+001
3.118582e+003, 8.857516e+001
3.120510e+003, 7.820068e+001
3.122439e+003, 7.886762e+001
3.124367e+003, 8.143138e+001
3.126296e+003, 8.362153e+001
3.128224e+003, 8.464592e+001
3.130153e+003, 6.636183e+001
3.132081e+003, 6.497273e+001
3.134010e+003, 7.297088e+001
3.135938e+003, 6.968774e+001
3.137867e+003, 6.307890e+001
3.139795e+003, 6.476858e+001
3.141724e+003, 6.992191e+001
3.143652e+003, 6.665728e+001
3.145581e+003, 6.642363e+001
3.147509e+003, 5.819422e+001
3.149438e+003, 4.807487e+001
3.151366e+003, 5.392853e+001
3.153294e+003, 5.517036e+001
3.155223e+003, 5.151575e+001
3.157151e+003, 4.695977e+001
3.159080e+003, 4.721894e+001
3.161008e+003, 5.911365e+001
3.162937e+003, 5.868079e+001
3.164865e+003, 4.714616e+001
3.166794e+003, 4.565742e+001
3.168722e+003, 4.370059e+001
3.170651e+003, 4.306702e+001
3.172579e+003, 4.419142e+001
3.174508e+003, 4.592312e+001
3.176436e+003, 5.144828e+001
3.178365e+003, 5.070107e+001
3.180293e+003, 4.534289e+001
3.182221e+003, 4.702666e+001
3.184150e+003, 4.034917e+001
3.186078e+003, 3.900047e+001
3.188007e+003, 4.234617e+001
3.189935e+003, 3.798690e+001
3.191864e+003, 2.448230e+001
3.193792e+003, 2.158718e+001
3.195721e+003, 2.852048e+001
3.197649e+003, 3.179853e+001
3.199578e+003, 2.662312e+001
3.201506e+003, 2.411468e+001
3.203435e+003, 2.439792e+001
3.205363e+003, 2.175891e+001
3.207292e+003, 1.978662e+001
3.209220e+003, 1.996642e+001
3.211148e+003, 2.052914e+001
3.213077e+003, 1.845998e+001
3.215005e+003, 2.013623e+001
3.216934e+003, 2.043829e+001
3.218862e+003, 1.988036e+001
3.220791e+003, 2.046992e+001
3.222719e+003, 2.171360e+001
3.224648e+003, 1.475342e+001
3.226576e+003, 8.211358e+000
3.228505e+003, 1.024029e+001
3.230433e+003, 1.087324e+001
3.232362e+003, 1.208273e+001
3.234290e+003, 1.280819e+001
3.236219e+003, 1.197080e+001
3.238147e+003, 7.080602e+000
3.240075e+003, 1.622634e+001
3.242004e+003, 2.103239e+001
3.243932e+003, 1.546352e+001
3.245861e+003, 1.593618e+001
3.247789e+003, 7.708357e+000
3.249718e+003, 6.628840e+000
3.251646e+003, 1.141869e+001
3.253575e+003, 5.118410e+000
3.255503e+003, -2.700676e+000
3.257432e+003, 9.009956e-001
3.259360e+003, 7.258683e+000
3.261289e+003, -3.047999e-001
3.263217e+003, -1.365670e+001
3.265146e+003, -1.669527e+001
3.267074e+003, -1.530864e+001
3.269002e+003, -1.746214e+001
3.270931e+003, -1.120264e+001
3.272859e+003, -3.856443e+000
3.274788e+003, -1.482582e+000
3.276716e+003, -5.671547e+000
3.278645e+003, -1.165644e+001
3.280573e+003, -1.173598e+001
3.282502e+003, -4.655903e+000
3.284430e+003, 1.793250e+000
3.286359e+003, -5.928577e+000
3.288287e+003, -5.719377e+000
3.290216e+003, -5.194134e+000
3.292144e+003, -6.881207e+000
3.294073e+003, -9.832826e+000
3.296001e+003, -1.030929e+001
3.297929e+003, -1.065707e+001
3.299858e+003, -8.915089e+000
3.301786e+003, -5.557327e+000
3.303715e+003, -6.833861e+000
3.305643e+003, -1.541636e+001
3.307572e+003, -2.258601e+001
3.309500e+003, -2.366224e+001
3.311429e+003, -1.568250e+001
3.313357e+003, -1.772571e+001
3.315286e+003, -1.497678e+001
3.317214e+003, -1.264878e+001
3.319143e+003, -1.763088e+001
3.321071e+003, -1.230711e+001
3.323000e+003, -6.948739e+000
3.324928e+003, -1.367375e+001
3.326856e+003, -2.844172e+001
3.328785e+003, -2.798638e+001
3.330713e+003, -2.295858e+001
3.332642e+003, -1.842821e+001
3.334570e+003, -1.880133e+001
3.336499e+003, -2.527521e+001
3.338427e+003, -2.214038e+001
3.340356e+003, -1.578213e+001
3.342284e+003, -1.709228e+001
3.344213e+003, -2.491952e+001
3.346141e+003, -2.161363e+001
3.348070e+003, -2.057731e+001
3.349998e+003, -1.742874e+001
3.351927e+003, -1.857009e+001
3.353855e+003, -2.974404e+001
3.355783e+003, -1.480335e+001
3.357712e+003, -1.969527e+001
3.359640e+003, -2.812315e+001
3.361569e+003, -2.756115e+001
3.363497e+003, -2.212086e+001
3.365426e+003, -1.957524e+001
3.367354e+003, -1.711111e+001
3.369283e+003, -1.985552e+001
3.371211e+003, -3.079153e+001
3.373140e+003, -2.447618e+001
3.375068e+003, -2.533548e+001
3.376997e+003, -2.885917e+001
3.378925e+003, -2.798506e+001
3.380854e+003, -1.894798e+001
3.382782e+003, -2.612352e+001
3.384710e+003, -2.710465e+001
3.386639e+003, -2.554047e+001
3.388567e+003, -2.761790e+001
3.390496e+003, -3.071178e+001
3.392424e+003, -3.431743e+001
3.394353e+003, -3.547952e+001
3.396281e+003, -3.379990e+001
3.398210e+003, -3.100925e+001
3.400138e+003, -3.479260e+001
3.402067e+003, -3.079860e+001
3.403995e+003, -2.570147e+001
3.405924e+003, -2.482025e+001
3.407852e+003, -3.020326e+001
3.409781e+003, -2.978316e+001
3.411709e+003, -3.400269e+001
3.413637e+003, -3.537544e+001
3.415566e+003, -3.198865e+001
3.417494e+003, -3.831911e+001
3.419423e+003, -3.700480e+001
3.421351e+003, -4.154661e+001
3.423280e+003, -4.247454e+001
3.425208e+003, -3.367192e+001
3.427137e+003, -4.256424e+001
3.429065e+003, -3.719870e+001
3.430994e+003, -3.135009e+001
3.432922e+003, -3.182746e+001
3.434851e+003, -3.686031e+001
3.436779e+003, -3.628835e+001
3.438708e+003, -3.899219e+001
3.440636e+003, -3.946630e+001
3.442564e+003, -3.786071e+001
3.444493e+003, -3.870702e+001
3.446421e+003, -4.789238e+001
3.448350e+003, -4.077543e+001
3.450278e+003, -3.785562e+001
3.452207e+003, -4.436858e+001
3.454135e+003, -4.839898e+001
3.456064e+003, -4.462296e+001
##END=



