##NAMES=Baryte
##RRUFFID=R050342
##IDEAL CHEMISTRY=Ba(SO_4_)
##LOCALITY=Palos Verdes, Los Angeles County, California, USA
##OWNER=RRUFF
##SOURCE=California Institute of Technology
##DESCRIPTION=Light brown fragment
##STATUS=The identification of this mineral has been confirmed by X-ray diffraction and chemical analysis
##URL=https://www.rruff.net/odr/rruff_sample/R050342
##MEASURED CHEMISTRY=Ba_1.00_S_1.00_O_4_
##DIFFRACTION SAMPLE DESCRIPTION=Powder
##CELL PARAMETERS=a: 8.882 b: 5.4537 c: 7.1569 alpha: 90 beta: 90 gamma: 90 volume: 346.7 crystal system: orthorhombic
##FILETYPE=Raman RAW
##RAMAN WAVELENGTH=780

83.81592, 15552.37
85.74438, 16933.52
87.67285, 19074.65
89.60132, 21490.29
91.52979, 24126.91
93.45825, 26223.06
95.38672, 26445.56
97.31519, 26560.40
99.24365, 26598.41
101.1721, 26580.87
103.1006, 26512.54
105.0291, 26415.50
106.9575, 26313.10
108.8860, 26180.84
110.8145, 26057.85
112.7429, 25899.03
114.6714, 25760.77
116.5999, 25668.22
118.5283, 25600.19
120.4568, 25530.28
122.3853, 25439.44
124.3137, 25365.27
126.2422, 25287.38
128.1707, 25234.26
130.0991, 25223.14
132.0276, 25240.51
133.9561, 25269.69
135.8845, 25310.28
137.8130, 25347.38
139.7415, 25363.78
141.6699, 25389.45
143.5984, 25451.46
145.5269, 25526.33
147.4553, 25579.52
149.3838, 25607.33
151.3123, 25625.69
153.2407, 25628.88
155.1692, 25634.10
157.0977, 25662.35
159.0261, 25686.55
160.9546, 25667.69
162.8831, 25592.50
164.8115, 25541.51
166.7400, 25515.40
168.6685, 25504.31
170.5969, 25506.55
172.5254, 25521.51
174.4539, 25562.37
176.3823, 25628.47
178.3108, 25639.45
180.2393, 25575.96
182.1677, 25526.54
184.0962, 25511.41
186.0247, 25518.72
187.9531, 25553.88
189.8816, 25605.24
191.8101, 25623.55
193.7385, 25602.22
195.6670, 25580.63
197.5955, 25550.37
199.5239, 25540.15
201.4524, 25586.13
203.3809, 25645.38
205.3093, 25640.23
207.2378, 25567.42
209.1663, 25517.90
211.0947, 25497.55
213.0232, 25498.52
214.9517, 25543.43
216.8801, 25586.44
218.8086, 25576.51
220.7371, 25527.72
222.6655, 25520.89
224.5940, 25562.68
226.5225, 25601.89
228.4509, 25633.71
230.3794, 25649.02
232.3079, 25639.33
234.2363, 25612.19
236.1648, 25575.52
238.0933, 25531.15
240.0217, 25499.63
241.9502, 25489.98
243.8787, 25481.49
245.8071, 25472.95
247.7356, 25458.71
249.6641, 25423.81
251.5925, 25380.17
253.5210, 25362.52
255.4495, 25377.16
257.3779, 25388.87
259.3064, 25391.16
261.2349, 25390.22
263.1633, 25389.11
265.0918, 25385.92
267.0203, 25381.28
268.9487, 25374.07
270.8772, 25351.95
272.8057, 25294.90
274.7341, 25261.91
276.6626, 25283.73
278.5911, 25304.62
280.5195, 25288.68
282.4480, 25253.36
284.3765, 25224.52
286.3049, 25203.69
288.2334, 25174.92
290.1619, 25117.27
292.0903, 25081.08
294.0188, 25098.99
295.9473, 25116.92
297.8757, 25081.09
299.8042, 25023.28
301.7327, 25022.81
303.6611, 25115.69
305.5896, 25145.97
307.5181, 25079.15
309.4465, 25011.69
311.3750, 24958.60
313.3035, 24923.37
315.2319, 24922.52
317.1604, 24938.25
319.0889, 24908.88
321.0173, 24812.71
322.9458, 24739.64
324.8743, 24694.76
326.8027, 24663.32
328.7312, 24646.03
330.6597, 24636.22
332.5882, 24628.36
334.5166, 24624.62
336.4451, 24638.17
338.3736, 24678.21
340.3020, 24672.38
342.2305, 24592.66
344.1590, 24526.30
346.0874, 24508.14
348.0159, 24514.19
349.9444, 24560.66
351.8728, 24615.24
353.8013, 24570.90
355.7298, 24425.32
357.6582, 24343.79
359.5867, 24357.23
361.5152, 24377.44
363.4436, 24389.20
365.3721, 24381.81
367.3006, 24335.29
369.2290, 24269.57
371.1575, 24222.14
373.0860, 24190.01
375.0144, 24156.73
376.9429, 24121.84
378.8714, 24083.03
380.7998, 24033.08
382.7283, 23989.24
384.6568, 23964.37
386.5852, 23946.22
388.5137, 23922.45
390.4422, 23892.24
392.3706, 23846.11
394.2991, 23777.96
396.2276, 23736.32
398.1560, 23744.16
400.0845, 23759.45
402.0130, 23774.05
403.9414, 23791.44
405.8699, 23809.32
407.7984, 23835.88
409.7268, 23872.35
411.6553, 23921.50
413.5838, 24039.80
415.5122, 24258.24
417.4407, 24497.34
419.3692, 24758.74
421.2976, 25020.65
423.2261, 25289.84
425.1546, 25539.95
427.0830, 25740.55
429.0115, 25902.25
430.9400, 26050.71
432.8684, 26176.18
434.7969, 26336.45
436.7254, 26519.15
438.6538, 26757.97
440.5823, 27033.62
442.5108, 27395.24
444.4392, 27899.33
446.3677, 28488.89
448.2962, 29136.80
450.2246, 29828.14
452.1531, 30406.99
454.0816, 30856.20
456.0100, 31232.69
457.9385, 31634.32
459.8670, 31782.06
461.7954, 31631.30
463.7239, 31142.93
465.6524, 30187.51
467.5808, 28974.09
469.5093, 27703.05
471.4378, 26397.32
473.3662, 25354.35
475.2947, 24592.67
477.2232, 23998.20
479.1516, 23595.87
481.0801, 23282.88
483.0086, 23039.84
484.9370, 22858.77
486.8655, 22755.94
488.7940, 22692.52
490.7224, 22616.58
492.6509, 22534.07
494.5794, 22487.88
496.5078, 22479.40
498.4363, 22452.47
500.3648, 22400.21
502.2932, 22338.26
504.2217, 22256.10
506.1502, 22188.60
508.0786, 22164.49
510.0071, 22148.42
511.9356, 22104.56
513.8640, 22041.68
515.7925, 21975.57
517.7209, 21908.83
519.6494, 21879.40
521.5779, 21901.23
523.5063, 21890.48
525.4348, 21800.88
527.3633, 21725.73
529.2917, 21709.84
531.2202, 21693.98
533.1487, 21630.55
535.0771, 21551.52
537.0056, 21496.78
538.9341, 21464.10
540.8625, 21457.97
542.7910, 21478.50
544.7195, 21469.31
546.6479, 21408.83
548.5764, 21357.61
550.5049, 21332.29
552.4333, 21306.88
554.3618, 21274.58
556.2903, 21238.88
558.2188, 21191.27
560.1472, 21150.12
562.0757, 21156.09
564.0042, 21186.81
565.9326, 21147.09
567.8611, 21014.62
569.7896, 20945.66
571.7180, 20994.56
573.6465, 21029.13
575.5750, 21040.61
577.5034, 21040.83
579.4319, 21029.65
581.3604, 21012.86
583.2889, 20988.32
585.2173, 20966.37
587.1458, 20959.09
589.0743, 20964.59
591.0027, 20975.60
592.9312, 20992.88
594.8597, 21011.21
596.7881, 21025.39
598.7166, 21056.51
600.6451, 21107.42
602.5735, 21171.77
604.5020, 21253.56
606.4305, 21339.65
608.3589, 21427.02
610.2874, 21512.28
612.2159, 21593.37
614.1443, 21669.53
616.0728, 21759.13
618.0013, 21847.14
619.9297, 21837.93
621.8582, 21726.00
623.7867, 21546.29
625.7151, 21280.46
627.6436, 21049.68
629.5721, 20890.13
631.5005, 20731.40
633.4290, 20538.33
635.3575, 20357.63
637.2859, 20215.36
639.2144, 20090.81
641.1429, 19971.20
643.0714, 19855.15
644.9998, 19726.41
646.9283, 19599.38
648.8568, 19544.06
650.7852, 19551.62
652.7137, 19537.39
654.6422, 19493.82
656.5706, 19435.29
658.4991, 19348.99
660.4276, 19286.43
662.3560, 19300.69
664.2845, 19283.92
666.2130, 19162.98
668.1414, 19050.51
670.0699, 19036.46
671.9984, 19055.04
673.9268, 19039.02
675.8553, 19000.84
677.7838, 18959.49
679.7122, 18916.06
681.6407, 18872.94
683.5692, 18829.46
685.4976, 18794.24
687.4261, 18766.24
689.3546, 18748.01
691.2830, 18752.05
693.2115, 18743.58
695.1400, 18717.90
697.0684, 18680.40
698.9969, 18619.09
700.9254, 18564.63
702.8538, 18550.45
704.7823, 18536.90
706.7108, 18480.89
708.6392, 18408.67
710.5677, 18352.35
712.4962, 18309.23
714.4246, 18268.43
716.3531, 18230.38
718.2816, 18209.95
720.2100, 18218.44
722.1385, 18195.94
724.0670, 18117.22
725.9954, 18075.44
727.9239, 18095.26
729.8524, 18103.74
731.7808, 18078.97
733.7093, 18051.68
735.6378, 18036.29
737.5662, 18016.95
739.4947, 17977.05
741.4232, 17936.74
743.3516, 17923.41
745.2801, 17908.02
747.2086, 17842.54
749.1370, 17752.54
751.0655, 17692.69
752.9940, 17660.18
754.9224, 17646.64
756.8509, 17651.87
758.7794, 17627.10
760.7078, 17569.23
762.6363, 17538.04
764.5648, 17545.57
766.4932, 17524.29
768.4217, 17453.00
770.3502, 17386.96
772.2786, 17334.36
774.2071, 17302.73
776.1356, 17311.38
778.0640, 17318.07
779.9925, 17313.48
781.9210, 17292.02
783.8494, 17233.10
785.7779, 17173.22
787.7064, 17152.29
789.6348, 17149.09
791.5633, 17139.25
793.4918, 17122.34
795.4202, 17096.60
797.3487, 17062.40
799.2772, 17012.17
801.2056, 16952.39
803.1341, 16925.17
805.0626, 16930.93
806.9910, 16925.38
808.9195, 16906.28
810.8480, 16866.20
812.7764, 16791.73
814.7049, 16734.99
816.6334, 16712.42
818.5618, 16690.66
820.4903, 16667.29
822.4188, 16641.29
824.3472, 16601.49
826.2757, 16574.31
828.2042, 16588.63
830.1326, 16593.13
832.0611, 16556.69
833.9896, 16505.25
835.9180, 16450.28
837.8465, 16397.13
839.7750, 16345.34
841.7034, 16302.64
843.6319, 16282.20
845.5604, 16274.18
847.4888, 16265.86
849.4173, 16254.75
851.3458, 16228.88
853.2742, 16193.69
855.2027, 16183.87
857.1312, 16196.80
859.0596, 16181.17
860.9881, 16135.05
862.9166, 16078.71
864.8450, 16005.35
866.7735, 15961.30
868.7020, 15952.95
870.6304, 15945.71
872.5589, 15943.18
874.4874, 15911.11
876.4158, 15832.66
878.3443, 15778.64
880.2728, 15769.40
882.2012, 15764.03
884.1297, 15749.97
886.0582, 15740.74
887.9866, 15746.06
889.9151, 15745.72
891.8436, 15732.67
893.7720, 15711.46
895.7005, 15685.48
897.6290, 15651.26
899.5574, 15595.21
901.4859, 15545.98
903.4144, 15530.36
905.3428, 15518.15
907.2713, 15483.32
909.1998, 15440.78
911.1282, 15393.49
913.0567, 15357.57
914.9852, 15374.71
916.9136, 15397.34
918.8421, 15345.61
920.7706, 15263.79
922.6990, 15215.40
924.6275, 15198.15
926.5560, 15230.18
928.4844, 15277.93
930.4129, 15253.34
932.3414, 15184.93
934.2698, 15147.93
936.1983, 15138.29
938.1268, 15143.05
940.0552, 15159.10
941.9837, 15160.68
943.9122, 15157.80
945.8406, 15208.48
947.7691, 15321.15
949.6976, 15630.42
951.6260, 16146.56
953.5545, 16769.96
955.4830, 17537.86
957.4114, 18101.13
959.3399, 18436.78
961.2684, 18618.60
963.1968, 18570.92
965.1253, 18607.56
967.0538, 18657.18
968.9822, 18991.72
970.9107, 19611.29
972.8392, 20536.85
974.7676, 21909.81
976.6961, 23189.23
978.6246, 24376.90
980.5530, 25355.81
982.4815, 26045.81
984.4100, 26820.24
986.3384, 27929.81
988.2669, 28385.87
990.1954, 28042.28
992.1238, 26958.75
994.0523, 24968.27
995.9808, 22896.00
997.9092, 20815.06
999.8377, 19013.25
1001.766, 17541.66
1003.695, 16402.07
1005.623, 15628.55
1007.552, 15082.97
1009.480, 14765.37
1011.409, 14564.96
1013.337, 14488.84
1015.265, 14414.05
1017.194, 14301.28
1019.122, 14206.27
1021.051, 14144.64
1022.979, 14098.66
1024.908, 14066.93
1026.836, 14042.54
1028.765, 14027.63
1030.693, 14012.19
1032.622, 13995.04
1034.550, 13976.08
1036.479, 13954.76
1038.407, 13933.98
1040.335, 13915.69
1042.264, 13895.07
1044.192, 13858.86
1046.121, 13840.70
1048.049, 13869.87
1049.978, 13875.74
1051.906, 13833.26
1053.835, 13789.76
1055.763, 13737.74
1057.692, 13713.75
1059.620, 13762.29
1061.549, 13770.64
1063.477, 13686.08
1065.406, 13627.41
1067.334, 13619.09
1069.262, 13620.64
1071.191, 13646.37
1073.120, 13644.82
1075.048, 13583.50
1076.976, 13546.92
1078.905, 13570.98
1080.833, 13565.81
1082.762, 13499.56
1084.690, 13463.01
1086.619, 13474.42
1088.547, 13483.23
1090.476, 13487.77
1092.404, 13480.34
1094.333, 13452.71
1096.261, 13436.82
1098.190, 13439.08
1100.118, 13428.20
1102.047, 13397.09
1103.975, 13393.30
1105.903, 13428.11
1107.832, 13431.19
1109.760, 13393.99
1111.689, 13395.85
1113.617, 13442.85
1115.546, 13433.66
1117.474, 13365.95
1119.403, 13336.43
1121.331, 13342.87
1123.260, 13349.50
1125.188, 13359.62
1127.117, 13400.31
1129.045, 13466.02
1130.974, 13532.86
1132.902, 13594.96
1134.830, 13616.96
1136.759, 13611.15
1138.687, 13625.27
1140.616, 13648.57
1142.544, 13653.70
1144.473, 13638.30
1146.401, 13598.76
1148.330, 13534.89
1150.258, 13441.40
1152.187, 13336.60
1154.115, 13238.22
1156.044, 13150.14
1157.972, 13074.37
1159.901, 13017.49
1161.829, 12989.74
1163.757, 12970.96
1165.686, 12956.29
1167.614, 12931.40
1169.543, 12870.63
1171.471, 12817.81
1173.400, 12812.34
1175.328, 12798.32
1177.257, 12734.57
1179.185, 12683.48
1181.114, 12681.75
1183.042, 12679.84
1184.971, 12649.33
1186.899, 12638.69
1188.828, 12678.91
1190.756, 12696.62
1192.684, 12670.40
1194.613, 12647.99
1196.541, 12634.44
1198.470, 12607.69
1200.398, 12556.04
1202.327, 12549.43
1204.255, 12597.42
1206.184, 12592.88
1208.112, 12542.03
1210.041, 12536.82
1211.969, 12559.81
1213.898, 12530.60
1215.826, 12475.00
1217.755, 12452.61
1219.683, 12446.19
1221.611, 12433.85
1223.540, 12425.40
1225.468, 12433.70
1227.397, 12436.25
1229.325, 12410.85
1231.254, 12390.82
1233.182, 12411.47
1235.111, 12422.21
1237.039, 12385.46
1238.968, 12349.52
1240.896, 12327.30
1242.825, 12307.37
1244.753, 12292.35
1246.682, 12287.78
1248.610, 12287.84
1250.538, 12297.13
1252.467, 12326.81
1254.395, 12310.65
1256.324, 12237.99
1258.252, 12209.55
1260.181, 12228.73
1262.109, 12218.42
1264.038, 12181.90
1265.966, 12157.99
1267.895, 12150.92
1269.823, 12183.59
1271.752, 12221.24
1273.680, 12188.88
1275.609, 12135.86
1277.537, 12117.81
1279.465, 12118.71
1281.394, 12138.04
1283.322, 12146.42
1285.251, 12115.45
1287.179, 12087.09
1289.108, 12078.82
1291.036, 12069.97
1292.965, 12075.99
1294.893, 12059.44
1296.822, 11966.49
1298.750, 11939.76
1300.679, 12021.14
1302.607, 12045.02
1304.536, 11998.43
1306.464, 11992.90
1308.392, 12020.58
1310.321, 11986.68
1312.249, 11920.20
1314.178, 11900.00
1316.106, 11901.64
1318.035, 11895.97
1319.963, 11891.40
1321.892, 11893.79
1323.820, 11893.79
1325.749, 11887.36
1327.677, 11883.23
1329.606, 11883.08
1331.534, 11875.80
1333.463, 11860.07
1335.391, 11830.83
1337.319, 11788.48
1339.248, 11764.17
1341.176, 11757.81
1343.105, 11762.60
1345.033, 11772.57
1346.962, 11749.77
1348.890, 11711.08
1350.819, 11687.73
1352.747, 11676.80
1354.676, 11682.42
1356.604, 11691.63
1358.533, 11696.93
1360.461, 11706.39
1362.390, 11733.92
1364.318, 11731.04
1366.246, 11668.87
1368.175, 11624.47
1370.103, 11615.69
1372.032, 11601.74
1373.960, 11576.91
1375.889, 11569.13
1377.817, 11583.97
1379.746, 11599.28
1381.674, 11601.91
1383.603, 11577.73
1385.531, 11549.98
1387.460, 11554.76
1389.388, 11566.48
1391.317, 11553.22
1393.245, 11540.13
1395.173, 11563.38
1397.102, 11566.29
1399.030, 11503.15
1400.959, 11458.17
1402.887, 11447.88
1404.816, 11426.01
1406.744, 11395.91
1408.673, 11401.14
1410.601, 11426.21
1412.530, 11409.55
1414.458, 11376.17
1416.387, 11379.83
1418.315, 11389.94
1420.244, 11383.64
1422.172, 11361.59
1424.100, 11313.28
1426.029, 11300.04
1427.957, 11348.20
1429.886, 11354.77
1431.814, 11295.58
1433.743, 11298.81
1435.671, 11358.89
1437.600, 11370.84
1439.528, 11347.45
1441.457, 11316.33
1443.385, 11292.44
1445.314, 11311.02
1447.242, 11325.34
1449.171, 11289.23
1451.099, 11255.45
1453.027, 11245.86
1454.956, 11230.28
1456.884, 11208.52
1458.813, 11196.19
1460.741, 11189.17
1462.670, 11166.04
1464.598, 11136.02
1466.527, 11118.72
1468.455, 11108.50
1470.384, 11108.42
1472.312, 11098.14
1474.241, 11054.70
1476.169, 11021.36
1478.098, 11010.95
1480.026, 11010.29
1481.954, 11011.07
1483.883, 10989.35
1485.811, 10960.40
1487.740, 10949.82
1489.668, 10941.62
1491.597, 10958.52
1493.525, 10976.56
1495.454, 10914.42
1497.382, 10849.61
1499.311, 10869.98
1501.239, 10875.71
1503.168, 10811.03
1505.096, 10791.30
1507.025, 10829.17
1508.953, 10783.68
1510.881, 10689.80
1512.810, 10703.30
1514.738, 10748.05
1516.667, 10727.19
1518.595, 10684.91
1520.524, 10635.56
1522.452, 10615.94
1524.381, 10651.95
1526.309, 10654.90
1528.238, 10606.93
1530.166, 10604.82
1532.095, 10636.02
1534.023, 10614.77
1535.952, 10566.66
1537.880, 10524.26
1539.808, 10512.92
1541.737, 10548.42
1543.665, 10545.79
1545.594, 10488.26
1547.522, 10447.16
1549.451, 10429.18
1551.379, 10414.15
1553.308, 10391.91
1555.236, 10384.16
1557.165, 10390.69
1559.093, 10374.49
1561.022, 10352.27
1562.950, 10339.64
1564.879, 10315.81
1566.807, 10275.63
1568.735, 10241.91
1570.664, 10228.34
1572.592, 10218.57
1574.521, 10199.99
1576.449, 10195.43
1578.378, 10201.08
1580.306, 10201.35
1582.235, 10183.51
1584.163, 10137.43
1586.092, 10114.93
1588.020, 10118.42
1589.949, 10086.72
1591.877, 10034.74
1593.806, 10039.19
1595.734, 10057.53
1597.662, 10035.40
1599.591, 10001.50
1601.519, 9957.079
1603.448, 9931.948
1605.376, 9930.663
1607.305, 9918.988
1609.233, 9899.840
1611.162, 9864.184
1613.090, 9829.288
1615.019, 9794.850
1616.947, 9770.543
1618.876, 9790.447
1620.804, 9785.523
1622.733, 9718.434
1624.661, 9694.882
1626.589, 9712.943
1628.518, 9689.346
1630.446, 9650.537
1632.375, 9658.980
1634.303, 9672.916
1636.232, 9668.472
1638.160, 9629.296
1640.089, 9543.671
1642.017, 9510.438
1643.946, 9526.753
1645.874, 9530.832
1647.803, 9524.813
1649.731, 9482.740
1651.660, 9442.615
1653.588, 9426.780
1655.516, 9398.493
1657.445, 9359.011
1659.373, 9368.855
1661.302, 9404.519
1663.230, 9366.616
1665.159, 9310.402
1667.087, 9283.169
1669.016, 9265.527
1670.944, 9262.293
1672.873, 9262.177
1674.801, 9262.732
1676.730, 9243.444
1678.658, 9210.749
1680.587, 9180.497
1682.515, 9144.417
1684.443, 9114.507
1686.372, 9113.085
1688.300, 9137.344
1690.229, 9120.855
1692.157, 9075.952
1694.086, 9073.483
1696.014, 9076.115
1697.943, 9016.945
1699.871, 8965.121
1701.800, 8959.761
1703.728, 8952.718
1705.657, 8957.183
1707.585, 8957.420
1709.514, 8928.057
1711.442, 8890.543
1713.370, 8872.960
1715.299, 8872.478
1717.227, 8867.750
1719.156, 8849.107
1721.084, 8810.644
1723.013, 8765.412
1724.941, 8752.587
1726.870, 8739.266
1728.798, 8701.774
1730.727, 8672.761
1732.655, 8652.630
1734.584, 8630.806
1736.512, 8609.873
1738.441, 8597.218
1740.369, 8581.879
1742.297, 8549.537
1744.226, 8517.246
1746.154, 8486.430
1748.083, 8467.392
1750.011, 8456.355
1751.940, 8439.197
1753.868, 8427.351
1755.797, 8403.750
1757.725, 8373.278
1759.654, 8340.396
1761.582, 8327.354
1763.511, 8352.561
1765.439, 8338.482
1767.368, 8287.536
1769.296, 8258.416
1771.224, 8237.248
1773.153, 8223.427
1775.081, 8213.388
1777.010, 8196.197
1778.938, 8178.153
1780.867, 8167.005
1782.795, 8162.412
1784.724, 8138.957
1786.652, 8086.284
1788.581, 8052.617
1790.509, 8043.044
1792.438, 8028.054
1794.366, 7991.899
1796.295, 7961.226
1798.223, 7955.958
1800.151, 7935.408
1802.080, 7907.476
1804.008, 7879.172
1805.937, 7882.004
1807.865, 7914.153
1809.794, 7882.547
1811.722, 7820.783
1813.651, 7780.884
1815.579, 7763.453
1817.508, 7764.871
1819.436, 7746.933
1821.365, 7714.208
1823.293, 7700.432
1825.222, 7689.273
1827.150, 7670.516
1829.078, 7632.052
1831.007, 7584.547
1832.935, 7575.998
1834.864, 7588.670
1836.792, 7579.454
1838.721, 7564.141
1840.649, 7545.372
1842.578, 7488.356
1844.506, 7425.488
1846.435, 7428.566
1848.363, 7443.529
1850.292, 7411.577
1852.220, 7379.563
1854.149, 7360.012
1856.077, 7348.351
1858.005, 7332.543
1859.934, 7300.092
1861.862, 7266.619
1863.791, 7231.604
1865.719, 7219.913
1867.648, 7219.124
1869.576, 7181.052
1871.505, 7132.413
1873.433, 7112.329
1875.362, 7100.918
1877.290, 7085.293
1879.219, 7076.160
1881.147, 7060.804
1883.076, 7053.262
1885.004, 7050.840
1886.932, 7004.502
1888.861, 6944.597
1890.789, 6909.342
1892.718, 6902.339
1894.646, 6896.600
1896.575, 6843.201
1898.503, 6811.751
1900.432, 6828.686
1902.360, 6816.845
1904.289, 6771.150
1906.217, 6743.997
1908.146, 6744.379
1910.074, 6752.545
1912.003, 6725.508
1913.931, 6688.288
1915.859, 6662.782
1917.788, 6635.739
1919.716, 6650.972
1921.645, 6668.952
1923.573, 6620.753
1925.502, 6573.565
1927.430, 6586.531
1929.359, 6585.396
1931.287, 6529.458
1933.216, 6476.938
1935.144, 6461.988
1937.073, 6475.214
1939.001, 6462.984
1940.930, 6424.104
1942.858, 6364.551
1944.786, 6319.950
1946.715, 6336.671
1948.643, 6328.758
1950.572, 6291.068
1952.500, 6266.979
1954.429, 6255.535
1956.357, 6227.542
1958.286, 6194.667
1960.214, 6182.933
1962.143, 6180.765
1964.071, 6163.630
1966.000, 6146.753
1967.928, 6144.387
1969.857, 6103.900
1971.785, 6044.606
1973.714, 6019.781
1975.642, 6027.637
1977.570, 6027.682
1979.499, 6007.566
1981.427, 5991.913
1983.356, 5971.997
1985.284, 5964.870
1987.213, 5957.793
1989.141, 5918.406
1991.070, 5885.611
1992.998, 5880.547
1994.927, 5854.825
1996.855, 5827.219
1998.784, 5826.207
2000.712, 5813.978
2002.641, 5773.149
2004.569, 5737.654
2006.497, 5710.592
2008.426, 5703.347
2010.354, 5695.381
2012.283, 5663.569
2014.211, 5635.885
2016.140, 5604.075
2018.068, 5587.606
2019.997, 5585.494
2021.925, 5572.355
2023.854, 5552.338
2025.782, 5522.986
2027.711, 5506.533
2029.639, 5487.799
2031.568, 5454.946
2033.496, 5442.436
2035.424, 5435.363
2037.353, 5405.374
2039.281, 5377.063
2041.210, 5364.755
2043.138, 5356.169
2045.067, 5349.386
2046.995, 5312.775
2048.924, 5268.457
2050.852, 5269.105
2052.781, 5270.057
2054.709, 5246.960
2056.637, 5230.146
2058.566, 5205.386
2060.495, 5157.422
2062.423, 5145.562
2064.352, 5152.719
2066.280, 5113.889
2068.208, 5062.262
2070.137, 5052.852
2072.065, 5055.933
2073.994, 5031.314
2075.922, 4997.799
2077.851, 4991.539
2079.779, 4973.640
2081.708, 4939.452
2083.636, 4922.529
2085.565, 4912.969
2087.493, 4888.039
2089.422, 4861.461
2091.350, 4839.508
2093.279, 4815.831
2095.207, 4810.679
2097.135, 4804.510
2099.064, 4783.919
2100.992, 4760.140
2102.921, 4748.049
2104.849, 4725.893
2106.778, 4699.727
2108.706, 4685.943
2110.635, 4668.510
2112.563, 4640.015
2114.492, 4624.004
2116.420, 4614.741
2118.349, 4614.696
2120.277, 4618.355
2122.206, 4600.362
2124.134, 4540.383
2126.063, 4499.290
2127.991, 4498.035
2129.919, 4498.579
2131.848, 4483.140
2133.776, 4450.932
2135.705, 4447.068
2137.633, 4455.813
2139.562, 4423.976
2141.490, 4388.745
2143.419, 4365.044
2145.347, 4359.117
2147.276, 4353.834
2149.204, 4346.189
2151.133, 4319.651
2153.061, 4276.490
2154.990, 4257.180
2156.918, 4239.329
2158.846, 4250.347
2160.775, 4248.293
2162.703, 4195.930
2164.632, 4187.781
2166.560, 4183.552
2168.489, 4145.160
2170.417, 4127.285
2172.346, 4124.016
2174.274, 4111.552
2176.203, 4099.809
2178.131, 4083.230
2180.060, 4054.621
2181.988, 4045.636
2183.917, 4040.354
2185.845, 4028.575
2187.773, 4019.521
2189.702, 3983.801
2191.630, 3950.343
2193.559, 3930.762
2195.487, 3936.626
2197.416, 3930.873
2199.344, 3898.561
2201.273, 3890.612
2203.201, 3893.030
2205.130, 3844.695
2207.058, 3802.589
2208.987, 3820.766
2210.915, 3812.529
2212.844, 3791.034
2214.772, 3782.548
2216.700, 3767.356
2218.629, 3744.075
2220.557, 3716.591
2222.486, 3707.569
2224.414, 3718.458
2226.343, 3695.709
2228.271, 3663.914
2230.200, 3647.707
2232.128, 3624.734
2234.057, 3610.013
2235.985, 3604.504
2237.914, 3584.818
2239.842, 3547.700
2241.771, 3537.999
2243.699, 3543.777
2245.627, 3541.139
2247.556, 3536.155
2249.484, 3533.199
2251.413, 3507.394
2253.341, 3470.833
2255.270, 3467.254
2257.198, 3453.646
2259.127, 3435.080
2261.055, 3444.698
2262.984, 3449.420
2264.912, 3404.371
2266.841, 3353.787
2268.769, 3339.723
2270.698, 3333.796
2272.626, 3309.328
2274.554, 3294.645
2276.483, 3289.815
2278.411, 3277.038
2280.340, 3298.939
2282.268, 3307.224
2284.197, 3282.254
2286.125, 3253.831
2288.054, 3227.276
2289.982, 3210.076
2291.911, 3209.409
2293.839, 3204.488
2295.768, 3196.317
2297.696, 3175.577
2299.625, 3164.872
2301.553, 3156.687
2303.481, 3129.085
2305.410, 3093.507
2307.338, 3078.638
2309.267, 3079.131
2311.195, 3075.334
2313.124, 3051.833
2315.052, 3027.456
2316.981, 3011.684
2318.909, 3010.424
2320.838, 2995.634
2322.766, 2988.475
2324.695, 2999.863
2326.623, 2977.733
2328.552, 2936.638
2330.480, 2909.879
2332.408, 2886.726
2334.337, 2874.004
2336.265, 2885.141
2338.194, 2890.404
2340.122, 2850.729
2342.051, 2823.440
2343.979, 2831.531
2345.908, 2829.197
2347.836, 2822.334
2349.765, 2803.914
2351.693, 2770.325
2353.622, 2747.492
2355.550, 2739.953
2357.479, 2731.747
2359.407, 2744.391
2361.335, 2755.217
2363.264, 2740.021
2365.192, 2714.051
2367.121, 2692.216
2369.049, 2675.297
2370.978, 2669.902
2372.906, 2665.316
2374.835, 2656.564
2376.763, 2648.396
2378.692, 2640.167
2380.620, 2617.843
2382.549, 2598.839
2384.477, 2599.005
2386.406, 2592.471
2388.334, 2576.391
2390.262, 2570.561
2392.191, 2554.624
2394.119, 2533.814
2396.048, 2531.929
2397.976, 2551.384
2399.905, 2534.694
2401.833, 2482.175
2403.762, 2466.790
2405.690, 2477.060
2407.619, 2466.448
2409.547, 2434.629
2411.476, 2423.161
2413.404, 2417.654
2415.333, 2399.646
2417.261, 2390.513
2419.189, 2394.140
2421.118, 2381.822
2423.046, 2370.984
2424.975, 2340.173
2426.903, 2316.572
2428.832, 2328.834
2430.760, 2326.427
2432.689, 2313.213
2434.617, 2302.493
2436.546, 2289.811
2438.474, 2273.866
2440.403, 2258.997
2442.331, 2243.701
2444.260, 2236.626
2446.188, 2221.588
2448.116, 2212.927
2450.045, 2209.896
2451.973, 2211.660
2453.902, 2194.116
2455.830, 2150.020
2457.759, 2150.543
2459.687, 2163.852
2461.616, 2138.841
2463.544, 2123.630
2465.473, 2126.105
2467.401, 2118.803
2469.330, 2106.132
2471.258, 2092.199
2473.187, 2081.675
2475.115, 2067.479
2477.043, 2057.797
2478.972, 2063.331
2480.900, 2054.331
2482.829, 2026.145
2484.757, 2015.844
2486.686, 2000.270
2488.614, 1967.572
2490.543, 1987.998
2492.471, 2006.658
2494.400, 1967.930
2496.328, 1938.349
2498.257, 1926.016
2500.185, 1919.289
2502.114, 1934.731
2504.042, 1946.625
2505.970, 1924.659
2507.899, 1906.643
2509.827, 1905.198
2511.756, 1897.063
2513.684, 1877.657
2515.613, 1860.933
2517.541, 1834.837
2519.470, 1832.525
2521.398, 1856.578
2523.327, 1843.297
2525.255, 1827.359
2527.184, 1819.545
2529.112, 1816.488
2531.041, 1807.493
2532.969, 1772.622
2534.897, 1762.504
2536.826, 1760.156
2538.754, 1761.510
2540.683, 1757.007
2542.611, 1742.497
2544.540, 1731.396
2546.468, 1725.221
2548.397, 1721.293
2550.325, 1710.927
2552.254, 1703.639
2554.182, 1707.784
2556.111, 1702.501
2558.039, 1677.374
2559.968, 1670.100
2561.896, 1696.522
2563.824, 1680.774
2565.753, 1659.179
2567.681, 1650.683
2569.610, 1642.841
2571.538, 1636.354
2573.467, 1635.680
2575.395, 1621.137
2577.324, 1603.539
2579.252, 1598.649
2581.181, 1585.231
2583.109, 1575.322
2585.038, 1577.542
2586.966, 1563.543
2588.895, 1549.235
2590.823, 1553.684
2592.751, 1540.321
2594.680, 1524.960
2596.608, 1525.102
2598.537, 1516.456
2600.465, 1510.214
2602.394, 1497.340
2604.322, 1488.999
2606.251, 1479.522
2608.179, 1469.690
2610.108, 1467.063
2612.036, 1456.015
2613.965, 1448.794
2615.893, 1451.393
2617.822, 1451.095
2619.750, 1424.016
2621.678, 1416.122
2623.607, 1414.153
2625.535, 1397.303
2627.464, 1384.779
2629.392, 1373.865
2631.321, 1376.160
2633.249, 1367.337
2635.178, 1345.446
2637.106, 1350.202
2639.035, 1344.801
2640.963, 1329.314
2642.892, 1326.339
2644.820, 1329.301
2646.749, 1330.332
2648.677, 1312.820
2650.605, 1306.062
2652.534, 1301.682
2654.462, 1295.575
2656.391, 1291.628
2658.319, 1283.399
2660.248, 1270.875
2662.176, 1258.022
2664.105, 1238.507
2666.033, 1219.759
2667.962, 1223.129
2669.890, 1225.269
2671.819, 1218.574
2673.747, 1234.469
2675.676, 1232.694
2677.604, 1200.386
2679.532, 1188.338
2681.461, 1184.534
2683.389, 1183.431
2685.318, 1174.383
2687.246, 1160.443
2689.175, 1153.172
2691.103, 1141.745
2693.032, 1128.526
2694.960, 1127.428
2696.889, 1115.889
2698.817, 1106.881
2700.746, 1112.536
2702.674, 1101.167
2704.603, 1097.081
2706.531, 1100.310
2708.459, 1089.779
2710.388, 1080.099
2712.316, 1077.760
2714.245, 1076.197
2716.173, 1064.199
2718.102, 1047.753
2720.030, 1024.565
2721.959, 1021.215
2723.887, 1025.214
2725.816, 1025.680
2727.744, 1020.776
2729.673, 1012.571
2731.601, 997.7308
2733.530, 995.7970
2735.458, 996.9871
2737.386, 994.5224
2739.315, 974.7023
2741.243, 964.3588
2743.172, 961.6616
2745.100, 948.8597
2747.029, 942.9121
2748.957, 941.5235
2750.886, 949.0125
2752.814, 933.1254
2754.743, 920.3550
2756.671, 939.5323
2758.600, 933.1509
2760.528, 919.8588
2762.457, 912.9359
2764.385, 901.8416
2766.313, 899.1987
2768.242, 903.7034
2770.170, 883.6194
2772.099, 875.2623
2774.027, 876.5973
2775.956, 866.0634
2777.884, 865.7631
2779.813, 864.9666
2781.741, 837.0945
2783.670, 845.3636
2785.598, 858.4538
2787.527, 838.9640
2789.455, 820.6097
2791.384, 812.8928
2793.312, 817.0024
2795.240, 819.8351
2797.169, 816.3953
2799.097, 808.0979
2801.026, 808.1820
2802.954, 802.5950
2804.883, 793.3506
2806.811, 798.0407
2808.740, 782.9427
2810.668, 768.1875
2812.597, 781.3044
2814.525, 782.8481
2816.454, 774.4836
2818.382, 757.7110
2820.311, 758.6677
2822.239, 758.3509
2824.167, 753.1912
2826.096, 739.4228
2828.024, 734.3400
2829.953, 732.2289
2831.881, 717.0544
2833.810, 722.0901
2835.738, 723.6346
2837.667, 705.6943
2839.595, 698.3414
2841.524, 693.4891
2843.452, 689.4619
2845.381, 690.5304
2847.309, 693.5955
2849.238, 687.3607
2851.166, 651.9440
2853.094, 657.5469
2855.023, 670.4492
2856.951, 661.6376
2858.880, 644.1282
2860.808, 633.4533
2862.737, 630.8491
2864.665, 622.2260
2866.594, 618.6505
2868.522, 617.4775
2870.451, 609.2942
2872.379, 611.1432
2874.308, 617.9968
2876.236, 625.0269
2878.165, 594.9516
2880.093, 585.4443
2882.021, 600.6631
2883.950, 597.2195
2885.878, 583.5919
2887.807, 572.8754
2889.735, 579.5817
2891.664, 579.1626
2893.592, 565.3204
2895.521, 538.2602
2897.449, 552.7598
2899.378, 561.6307
2901.306, 558.8443
2903.235, 554.7963
2905.163, 535.0340
2907.092, 523.7804
2909.020, 538.3210
2910.948, 534.5100
2912.877, 532.0769
2914.805, 532.4985
2916.734, 514.1227
2918.662, 512.4651
2920.591, 516.2365
2922.519, 510.1727
2924.448, 496.3936
2926.376, 490.7773
2928.305, 496.4759
2930.233, 500.4350
2932.162, 498.3047
2934.090, 492.1006
2936.019, 484.8468
2937.947, 479.4368
2939.875, 475.8171
2941.804, 472.4854
2943.732, 458.3898
2945.661, 454.2912
2947.589, 455.0567
2949.518, 443.9836
2951.446, 445.7839
2953.375, 444.8567
2955.303, 436.2767
2957.232, 453.7387
2959.160, 447.2068
2961.089, 427.0801
2963.017, 423.9740
2964.946, 421.4286
2966.874, 420.3842
2968.802, 421.0524
2970.731, 421.8221
2972.659, 422.8448
2974.588, 424.0062
2976.516, 426.9259
2978.445, 424.0280
2980.373, 415.2173
2982.302, 402.4421
2984.230, 389.4639
2986.159, 386.4330
2988.087, 391.1748
2990.016, 399.1207
2991.944, 396.6028
2993.873, 387.6573
2995.801, 377.5873
2997.729, 381.4048
2999.658, 379.4348
3001.586, 374.5279
3003.515, 369.1304
3005.443, 347.9264
3007.372, 345.1232
3009.300, 361.1437
3011.229, 380.8302
3013.157, 360.5620
3015.086, 346.2420
3017.014, 355.0912
3018.943, 347.5882
3020.871, 351.7929
3022.800, 355.5860
3024.728, 341.5352
3026.656, 346.7391
3028.585, 345.8283
3030.513, 335.9161
3032.442, 327.3858
3034.370, 316.2480
3036.299, 314.0173
3038.227, 325.5071
3040.156, 313.9111
3042.084, 315.4174
3044.013, 322.7107
3045.941, 318.2039
3047.870, 320.7193
3049.798, 317.9374
3051.727, 309.2854
3053.655, 309.1541
3055.583, 300.6850
3057.512, 293.4503
3059.440, 294.4366
3061.369, 272.5495
3063.297, 271.7245
3065.226, 283.8962
3067.154, 290.5060
3069.083, 279.9059
3071.011, 282.2325
3072.940, 292.2391
3074.868, 277.5683
3076.797, 272.5200
3078.725, 272.4837
3080.654, 270.2307
3082.582, 255.8645
3084.510, 248.1198
3086.439, 256.8476
3088.367, 279.3319
3090.296, 248.1125
3092.224, 243.8960
3094.153, 253.8228
3096.081, 248.0670
3098.010, 258.1971
3099.938, 269.9675
3101.867, 271.9819
3103.795, 243.5061
3105.724, 241.5979
3107.652, 241.5017
3109.581, 236.7388
3111.509, 231.2522
3113.438, 241.1208
3115.366, 241.5016
3117.294, 218.9750
3119.223, 215.7408
3121.151, 221.3609
3123.080, 228.9690
3125.008, 235.0855
3126.937, 224.5527
3128.865, 213.9251
3130.794, 211.0130
3132.722, 222.0147
3134.651, 215.9571
3136.579, 211.7468
3138.508, 212.5682
3140.436, 207.9542
3142.365, 211.6268
3144.293, 211.8820
3146.221, 209.8227
3148.150, 215.2066
3150.078, 213.8419
3152.007, 209.1230
3153.935, 203.0657
3155.864, 200.1371
3157.792, 196.8533
3159.721, 195.6210
3161.649, 197.7651
3163.578, 209.1477
3165.506, 199.7186
3167.435, 179.5895
3169.363, 164.2379
3171.292, 186.1860
3173.220, 175.5925
3175.148, 169.1118
3177.077, 182.8548
3179.005, 183.2109
3180.934, 174.5714
3182.862, 173.1928
3184.791, 182.4818
3186.719, 172.0747
3188.648, 165.6646
3190.576, 161.7430
3192.505, 162.7995
3194.433, 173.5801
3196.362, 172.0735
3198.290, 157.6930
3200.219, 140.6299
3202.147, 162.2223
3204.075, 156.4219
3206.004, 150.2811
3207.932, 160.2628
3209.861, 166.0110
3211.789, 159.5769
3213.718, 145.5717
3215.646, 130.5381
3217.575, 140.2236
3219.503, 143.2732
3221.432, 148.1809
3223.360, 151.2662
3225.289, 140.5354
3227.217, 137.6022
3229.146, 132.8032
3231.074, 127.0517
3233.002, 138.6488
3234.931, 134.7965
3236.859, 134.9277
3238.788, 137.2188
3240.716, 127.9427
3242.645, 118.1102
3244.573, 114.9832
3246.502, 120.7274
3248.430, 139.5521
3250.359, 131.1436
3252.287, 127.4848
3254.216, 130.2055
3256.144, 132.4381
3258.073, 127.4383
3260.001, 126.2739
3261.929, 123.7441
3263.858, 111.1030
3265.786, 119.2545
3267.715, 119.8451
3269.643, 117.9792
3271.572, 118.8092
3273.500, 115.5683
3275.429, 110.2791
3277.357, 115.3040
3279.286, 120.8530
3281.214, 100.2233
3283.143, 109.4978
3285.071, 117.5115
3287.000, 114.3029
3288.928, 107.6821
3290.856, 123.0129
3292.785, 112.2106
3294.713, 99.93728
3296.642, 116.5631
3298.570, 123.1819
3300.499, 111.7383
3302.427, 99.09287
3304.356, 95.72841
3306.284, 99.48147
3308.213, 94.80351
3310.141, 99.13757
3312.070, 107.6845
3313.998, 98.03685
3315.927, 113.1004
3317.855, 105.0316
3319.783, 89.84747
3321.712, 93.65525
3323.640, 95.17963
3325.569, 82.44981
3327.497, 80.72922
3329.426, 98.78698
3331.354, 94.39767
3333.283, 92.03506
3335.211, 84.15919
3337.140, 78.08360
3339.068, 93.05768
3340.997, 89.30537
3342.925, 82.61362
3344.854, 87.57883
3346.782, 100.8304
3348.710, 81.87267
3350.639, 82.40236
3352.567, 90.33830
3354.496, 93.73124
3356.424, 92.97978
3358.353, 81.35159
3360.281, 80.77488
3362.210, 80.74105
3364.138, 71.86405
3366.067, 91.21385
3367.995, 92.18259
3369.924, 87.86526
3371.852, 83.65931
3373.781, 76.52944
3375.709, 88.36465
3377.637, 88.76793
3379.566, 85.14725
3381.494, 87.01481
3383.423, 75.11193
3385.351, 68.67767
3387.280, 73.88858
3389.208, 81.60770
3391.137, 74.58887
3393.065, 65.11527
3394.994, 74.24918
3396.922, 78.65047
3398.851, 69.84421
3400.779, 79.69386
3402.708, 88.03456
3404.636, 87.38755
3406.564, 80.29538
3408.493, 71.65640
3410.421, 81.66209
3412.350, 72.68354
3414.278, 68.70932
3416.207, 75.23326
3418.135, 75.76372
3420.064, 84.97216
3421.992, 85.80762
3423.921, 75.81988
3425.849, 64.17976
3427.778, 76.29329
3429.706, 82.54317
3431.635, 72.60502
3433.563, 64.40849
3435.491, 74.89020
3437.420, 84.07774
3439.348, 80.81209
3441.277, 72.45652
3443.205, 69.60354
3445.134, 79.15177
3447.062, 60.86210
3448.991, 60.75935
3450.919, 61.84418
3452.848, 56.10364
3454.776, 53.13242
3456.705, 72.99270
3458.633, 67.54508
3460.562, 69.78268
3462.490, 87.79108
3464.418, 71.56658
3466.347, 56.75380
3468.275, 62.75635
3470.204, 63.74403
3472.132, 51.51397
3474.061, 64.39429
3475.989, 55.55634
3477.918, 43.72665
3479.846, 49.13372
3481.775, 68.98105
3483.703, 57.54499
3485.632, 60.15252
3487.560, 57.47211
3489.489, 55.35134
3491.417, 60.37970
3493.345, 54.28482
3495.274, 47.61971
3497.202, 44.94304
3499.131, 49.94483
3501.059, 59.24295
3502.988, 50.89215
3504.916, 59.35210
3506.845, 67.59849
3508.773, 65.85253
3510.702, 55.04404
3512.630, 46.84719
3514.559, 58.72750
3516.487, 67.84728
3518.416, 64.95728
3520.344, 54.39737
3522.272, 56.01725
3524.201, 72.01743
3526.129, 68.87914
3528.058, 57.09900
3529.986, 49.00772
3531.915, 42.39005
3533.843, 36.53568
3535.772, 39.99734
3537.700, 43.08719
3539.629, 41.11968
3541.557, 38.96775
3543.486, 50.44565
3545.414, 57.25540
3547.343, 51.88427
3549.271, 38.57272
3551.199, 29.32569
3553.128, 48.02795
3555.056, 45.68483
3556.985, 38.89007
3558.913, 44.45436
3560.842, 62.17606
3562.770, 61.34000
3564.699, 40.62337
3566.627, 37.54313
3568.556, 46.36234
3570.484, 50.64211
3572.413, 40.51437
3574.341, 43.11288
3576.270, 48.02064
3578.198, 42.10412
3580.126, 33.80164
3582.055, 42.84359
3583.983, 54.68536
3585.912, 49.29481
3587.840, 35.65493
3589.769, 31.57596
3591.697, 41.18333
3593.626, 38.46229
3595.554, 35.03348
3597.483, 28.41240
3599.411, 44.58021
3601.340, 64.20308
3603.268, 39.14224
3605.197, 43.75212
3607.125, 35.99088
3609.053, 42.88991
3610.982, 51.61993
3612.910, 46.17385
3614.839, 49.67618
3616.767, 42.44332
3618.696, 44.11070
3620.624, 34.68822
3622.553, 28.24630
3624.481, 51.76583
3626.410, 52.76374
3628.338, 43.51579
3630.267, 32.30148
3632.195, 33.56351
3634.124, 47.00962
3636.052, 52.70875
3637.980, 45.93918
3639.909, 34.85306
3641.837, 33.22260
3643.766, 35.29444
3645.694, 34.27647
3647.623, 43.60107
3649.551, 44.34050
3651.480, 34.68129
3653.408, 23.81803
3655.337, 19.53158
3657.265, 24.55203
3659.194, 34.71974
3661.122, 43.31790
3663.051, 28.39594
3664.979, 13.86619
3666.907, 21.21900
3668.836, 44.83771
3670.764, 23.23004
3672.693, 33.28031
3674.621, 36.81266
3676.550, 31.21119
3678.478, 31.16898
3680.407, 43.86614
3682.335, 42.09197
3684.264, 41.14901
3686.192, 48.94960
3688.121, 37.73886
3690.049, 17.67608
3691.978, 24.08840
3693.906, 32.91498
3695.834, 22.74809
3697.763, 31.60394
3699.691, 40.80108
3701.620, 37.09388
3703.548, 28.90100
3705.477, 33.39481
3707.405, 31.84732
3709.334, 22.58308
3711.262, 18.04147
3713.191, 23.95740
3715.119, 36.88365
3717.048, 47.93245
3718.976, 38.80665
3720.905, 27.01374
3722.833, 27.53705
3724.761, 29.68023
3726.690, 26.65679
3728.618, 37.43698
3730.547, 37.45492
3732.475, 45.81296
3734.404, 38.47913
3736.332, 27.34580
3738.261, 29.85520
3740.189, 43.81979
3742.118, 45.79285
3744.046, 37.52665
3745.975, 25.33656
3747.903, 37.64016
3749.832, 49.69153
3751.760, 30.89211
3753.688, 25.38815
3755.617, 18.47180
3757.545, 28.93582
3759.474, 39.99026
3761.402, 31.10999
3763.331, 15.94947
3765.259, 35.43760
3767.188, 35.49362
3769.116, 34.55865
3771.045, 26.99757
3772.973, 23.76046
3774.902, 29.59485
3776.830, 35.95808
3778.759, 28.47068
3780.687, 34.23130
3782.615, 56.16940
3784.544, 39.50035
3786.472, 25.88319
3788.401, 31.24326
3790.329, 30.83199
3792.258, 28.19315
3794.186, 12.26087
3796.115, 25.60109
3798.043, 34.76318
3799.972, 35.07096
3801.900, 39.91043
3803.829, 48.90211
3805.757, 18.99153
3807.686, 33.75389
3809.614, 31.28403
3811.542, 30.83949
3813.471, 35.71887
3815.399, 35.00457
3817.328, 24.33139
3819.256, 17.64632
3821.185, 25.61571
3823.113, 29.53353
3825.042, 19.56113
3826.970, 19.37035
3828.899, 28.08630
3830.827, 27.06485
3832.756, 33.91859
3834.684, 16.76399
3836.613, 34.42902
3838.541, 38.84071
3840.469, 21.62234
3842.398, 17.04354
3844.326, 40.36583
3846.255, 43.10737
3848.183, 11.77724
3850.112, 17.36220
3852.040, 25.21794
3853.969, 44.35186
3855.897, 41.17308
3857.826, 14.22098
3859.754, 20.81982
3861.683, 30.75855
3863.611, 41.21309
3865.540, 41.39501
3867.468, 34.92255
3869.396, 30.29861
3871.325, 22.99182
3873.253, 13.64047
3875.182, 34.04549
3877.110, 26.63326
3879.039, 25.07355
3880.967, 18.08036
3882.896, 22.63194
3884.824, 19.67492
3886.753, 13.48916
3888.681, 25.78252
3890.610, 16.15346
3892.538, 44.15270
3894.467, 27.41570
3896.395, 13.39673
3898.323, 31.31461
3900.252, 36.52010
3902.180, 21.85696
3904.109, 26.65844
3906.037, 12.49861
3907.966, 9.786755
3909.894, 25.26758
3911.823, 23.46810
3913.751, 23.77872
3915.680, 22.41856
3917.608, 18.29177
3919.537, 25.95758
3921.465, 35.76927
3923.394, 21.85281
3925.322, 37.57847
3927.250, 44.10720
3929.179, 32.20676
3931.107, 23.63701
3933.036, 17.44683
3934.964, 11.45130
3936.893, 39.50624
3938.821, 20.86913
3940.750, 20.62951
3942.678, 29.43280
3944.607, 25.76631
3946.535, 31.88528
3948.464, 40.64926
3950.392, 37.07819
3952.321, 29.02885
3954.249, 23.59842
3956.177, 28.21175
3958.106, 28.13182
3960.034, 18.17550
3961.963, 24.71008
3963.891, 30.81745
3965.820, 23.89494
3967.748, 17.46097
3969.677, 25.94741
3971.605, 32.11312
3973.534, 7.542834
3975.462, 12.51315
3977.391, 9.964043
3979.319, 23.37584
3981.248, 17.67444
3983.176, 11.32838
3985.104, 19.53342
3987.033, 18.98717
3988.961, 16.63538
3990.890, -4.109373
3992.818, -2.635864
3994.747, 11.84065
3996.675, 11.41013
3998.604, 14.33873
4000.532, 17.58135
4002.461, 16.48091
4004.389, 17.88665
4006.318, 17.92446
4008.246, 0.2074385
4010.175, 22.31400
4012.103, 24.84713
4014.031, 6.978721
4015.960, -3.385045
4017.888, 18.92830
4019.817, 25.41198
4021.745, 6.845434
4023.674, 21.89790
4025.602, 18.30701
4027.531, 42.42223
4029.459, 3.999689
4031.388, -0.9395295
4033.316, 12.95555
4035.245, 11.70028
4037.173, 7.136871
4039.102, 6.436546
4041.030, 11.38635
4042.958, 32.44398
4044.887, -1.700907
4046.815, 12.20703
4048.744, 9.371433
4050.672, -4.060780
4052.601, 3.895790
4054.529, -6.732087
4056.458, 7.902964
4058.386, 20.44290
4060.315, 1.108585
4062.243, 16.29741
4064.172, 4.916754
4066.100, -3.044283
4068.029, -5.117855
4069.957, 17.83524
4071.885, 4.573522
4073.814, 13.94133
4075.742, 16.01825
4077.671, 12.95085
4079.599, 11.71349
4081.528, -2.718202
4083.456, 1.255684
4085.385, 9.331092
4087.313, 15.22063
4089.242, 25.16167
4091.170, 12.65578
4093.099, 7.253687
4095.027, 8.453668
4096.956, 1.0657940E-02
4098.884, 14.95278
4100.813, 30.09739
4102.741, 6.214361
4104.669, 5.210645
4106.598, 5.783325
4108.526, 4.426185
4110.455, 22.34442
4112.383, 33.96416
4114.312, 11.75048
4116.240, 17.11506
4118.169, 7.255639
4120.097, 4.028556
4122.026, 13.58986
4123.954, 12.26220
4125.883, 11.79711
4127.811, 17.47134
4129.740, 6.966938
4131.668, 16.93427
4133.597, 1.676048
4135.525, -1.199640
4137.454, 16.71950
4139.382, 0.3052404
4141.311, -3.055208
4143.239, 6.415773
4145.167, 11.84037
4147.096, 13.52007
4149.024, 8.763841
4150.953, 2.275511
4152.881, 11.65238
4154.810, 12.09278
4156.738, 21.85192
4158.667, 6.772559
4160.595, -2.257247
4162.523, 2.245296
4164.452, 11.88553
4166.380, 5.138122
4168.309, 17.52425
4170.237, 21.69960
4172.166, 4.988773
4174.094, 3.937187
4176.023, 9.543417
4177.951, 10.93486
4179.880, 16.66091
4181.808, 4.985443
4183.737, 7.680430
4185.665, 2.985649
4187.594, 13.58672
4189.522, 3.869985
4191.451, 12.72247
4193.379, 13.90280
4195.308, 11.28341
4197.236, 17.11165
4199.165, 11.64758
4201.093, -7.449963
4203.021, -9.126719
4204.950, 9.930170
4206.878, 11.32084
4208.807, 5.039373
4210.735, 20.27448
4212.664, 21.27744
4214.592, -2.083653
4216.521, 4.480529
4218.449, -9.761610
4220.377, -5.691881
4222.306, 4.830478
4224.234, 30.66487
4226.163, 12.23339
4228.091, -7.501065
4230.020, 7.238200
4231.948, 5.298108
4233.877, -1.516156
4235.805, -7.246990
4237.734, -11.11014
4239.662, 31.25575
4241.591, 22.49931
4243.519, 1.003330
4245.448, 18.94316
4247.376, 7.330791
4249.305, 27.73685
4251.233, 17.36795
4253.162, -3.748780
4255.090, -2.462934
4257.019, 0.4548363
4258.947, 7.021326
4260.875, 5.650774
4262.804, 8.294203
4264.732, 17.64072
4266.661, 11.21280
4268.589, 9.307709
4270.518, 5.156706
4272.446, 13.71464
4274.375, 8.791516
4276.303, 13.95194
4278.231, 9.752051
4280.160, 11.91031
4282.088, 11.15900
4284.017, 1.071152
4285.945, 28.61964
4287.874, 15.66030
4289.802, 8.421162
4291.731, 7.928412
4293.659, -1.439127
4295.588, -10.38327
4297.516, 6.182086
4299.445, 23.90585
4301.373, 9.251001
4303.302, 16.77172
4305.230, 38.78429
4307.159, 12.87748
4309.087, 2.859058
4311.016, -9.589550
4312.944, -13.72193
4314.873, 25.16702
4316.801, 21.85086
4318.729, 16.01887
4320.658, 28.25620
4322.586, -2.826424
4324.515, 7.562767
4326.443, 27.42254
4328.372, 26.81413
4330.300, -4.501675
4332.229, -7.614366
4334.157, 1.645040
4336.085, 4.010001
4338.014, -8.226154
4339.942, 8.961759
4341.871, 20.84652
4343.799, 3.977178
4345.728, -1.296598
4347.656, 5.136223
4349.585, -3.862151
4351.513, 1.250806
4353.442, 11.99188
4355.370, -3.917080
4357.299, -7.331981
4359.227, 9.135453
4361.156, 28.24026
4363.084, 30.81404
4365.013, 10.47550
4366.941, 12.60166
4368.870, 15.81381
4370.798, -0.8719990
4372.727, 3.912397
4374.655, -7.304684
4376.583, 15.82122
4378.512, -0.5255346
4380.440, 7.350218
4382.369, -17.22800
##END=



