##NAMES=Barysilite
##RRUFFID=R100057
##IDEAL CHEMISTRY=Pb_8_Mn(Si_2_O_7_)_3_
##LOCALITY=Langban, Filipstad, Varmland, Sweden
##OWNER=RRUFF
##SOURCE=William W Pinch
##DESCRIPTION=Aggregate of colorless plates
##STATUS=The identification of this mineral has been confirmed by single-crystal X-ray diffraction
##URL=https://www.rruff.net/odr/rruff_sample/R100057
##DIFFRACTION SAMPLE DESCRIPTION=Single crystal, powder profile is calculated
##CELL PARAMETERS=a: 9.774 b: 9.774 c: 38.21 alpha: 90 beta: 90 gamma: 120 volume: 3160.9 crystal system: hexagonal
##FILETYPE=Raman RAW
##RAMAN WAVELENGTH=532

82.58447, 13.71151
84.51294, 13.32024
86.44141, 13.65299
88.36987, 13.99770
90.29834, 14.16747
92.22681, 14.16466
94.15527, 14.11609
96.08374, 13.97311
98.01221, 13.79553
99.94067, 13.75297
101.8691, 13.99404
103.7976, 14.21925
105.7261, 14.28532
107.6545, 14.10078
109.5830, 14.00923
111.5115, 14.15672
113.4399, 14.46430
115.3684, 14.57524
117.2969, 14.03190
119.2253, 13.64188
121.1538, 13.92962
123.0823, 14.78219
125.0107, 16.53180
126.9392, 18.55537
128.8677, 21.20930
130.7961, 27.22738
132.7246, 35.91729
134.6531, 48.45153
136.5815, 66.66852
138.5100, 89.59753
140.4385, 118.5885
142.3669, 151.3767
144.2954, 187.0591
146.2239, 235.9031
148.1523, 290.1701
150.0808, 360.7852
152.0093, 455.8825
153.9377, 591.9824
155.8662, 727.7653
157.7947, 853.8605
159.7231, 968.6409
161.6516, 1075.805
163.5801, 1150.703
165.5085, 1221.174
167.4370, 1285.952
169.3655, 1370.713
171.2939, 1485.465
173.2224, 1643.881
175.1509, 1836.416
177.0793, 2018.690
179.0078, 2206.284
180.9363, 2381.659
182.8647, 2515.808
184.7932, 2627.495
186.7217, 2697.795
188.6501, 2712.227
190.5786, 2671.948
192.5071, 2594.922
194.4355, 2477.970
196.3640, 2332.222
198.2925, 2177.359
200.2209, 2005.602
202.1494, 1848.545
204.0779, 1718.415
206.0063, 1621.004
207.9348, 1529.388
209.8633, 1452.540
211.7918, 1375.595
213.7202, 1284.267
215.6487, 1160.458
217.5772, 1041.587
219.5056, 931.0721
221.4341, 829.3677
223.3626, 745.2049
225.2910, 685.4573
227.2195, 641.4027
229.1480, 607.4666
231.0764, 588.4245
233.0049, 574.0466
234.9334, 564.4124
236.8618, 558.6140
238.7903, 553.9644
240.7188, 548.5031
242.6472, 544.4843
244.5757, 544.4236
246.5042, 549.1392
248.4326, 554.1700
250.3611, 559.7379
252.2896, 565.9490
254.2180, 568.8987
256.1465, 569.5502
258.0750, 567.2178
260.0034, 560.1162
261.9319, 547.5045
263.8604, 531.2648
265.7888, 512.2902
267.7173, 490.3328
269.6458, 465.6006
271.5742, 437.3028
273.5027, 409.5034
275.4312, 383.9647
277.3596, 361.0045
279.2881, 340.3871
281.2166, 322.7661
283.1450, 307.4167
285.0735, 292.1494
287.0020, 275.8658
288.9304, 260.4240
290.8589, 246.2617
292.7874, 233.4845
294.7158, 222.0604
296.6443, 211.7160
298.5728, 203.0047
300.5012, 196.0952
302.4297, 191.4077
304.3582, 188.0716
306.2866, 185.7230
308.2151, 184.4486
310.1436, 184.1855
312.0720, 185.4914
314.0005, 187.8491
315.9290, 190.7907
317.8574, 194.4376
319.7859, 198.3056
321.7144, 202.8634
323.6428, 207.8171
325.5713, 212.2785
327.4998, 215.4456
329.4282, 217.3311
331.3567, 218.0594
333.2852, 217.5454
335.2137, 216.4925
337.1421, 214.7023
339.0706, 212.4382
340.9991, 210.0004
342.9275, 207.1550
344.8560, 205.1428
346.7845, 204.5112
348.7129, 205.1998
350.6414, 205.7647
352.5699, 206.2271
354.4983, 206.7197
356.4268, 207.2971
358.3553, 207.6377
360.2837, 209.1152
362.2122, 212.0034
364.1407, 215.5477
366.0691, 218.6534
367.9976, 220.8164
369.9261, 223.2503
371.8545, 226.5216
373.7830, 231.0202
375.7115, 235.0259
377.6399, 238.3189
379.5684, 241.0317
381.4969, 243.4085
383.4253, 245.7543
385.3538, 247.0710
387.2823, 247.2836
389.2107, 245.8578
391.1392, 242.6856
393.0677, 236.6882
394.9961, 229.9970
396.9246, 223.6617
398.8531, 218.4709
400.7815, 213.4566
402.7100, 208.0772
404.6385, 203.5627
406.5669, 200.8524
408.4954, 200.6514
410.4239, 201.1237
412.3523, 201.6452
414.2808, 202.5670
416.2093, 204.6739
418.1377, 207.3441
420.0662, 211.5893
421.9947, 217.7150
423.9231, 225.5897
425.8516, 234.9985
427.7801, 247.0817
429.7085, 260.3476
431.6370, 273.1909
433.5655, 285.3103
435.4939, 295.4394
437.4224, 303.2983
439.3509, 307.8679
441.2793, 308.7216
443.2078, 305.4977
445.1363, 300.4924
447.0647, 293.7218
448.9932, 286.7913
450.9217, 280.0719
452.8501, 273.6825
454.7786, 268.9900
456.7071, 266.9716
458.6355, 267.0975
460.5640, 269.6354
462.4925, 274.4775
464.4209, 280.7218
466.3494, 290.4544
468.2779, 302.9334
470.2063, 319.3688
472.1348, 341.1373
474.0633, 368.8433
475.9917, 398.7178
477.9202, 432.1718
479.8487, 467.5320
481.7771, 503.5586
483.7056, 537.5700
485.6341, 572.8261
487.5625, 606.8174
489.4910, 643.1526
491.4195, 685.2239
493.3479, 736.2062
495.2764, 793.7136
497.2049, 858.8853
499.1333, 930.8749
501.0618, 999.7856
502.9903, 1070.711
504.9187, 1129.136
506.8472, 1175.635
508.7757, 1202.754
510.7041, 1205.869
512.6326, 1182.326
514.5610, 1139.578
516.4895, 1077.185
518.4180, 1001.743
520.3464, 926.2336
522.2749, 848.3368
524.2034, 775.4459
526.1318, 711.7438
528.0603, 661.8436
529.9888, 616.5505
531.9172, 576.2014
533.8457, 538.2382
535.7742, 499.6942
537.7026, 457.6271
539.6311, 414.9586
541.5596, 374.0420
543.4880, 333.5494
545.4165, 297.7587
547.3450, 267.3777
549.2734, 242.3270
551.2019, 221.4583
553.1304, 204.8147
555.0588, 191.0315
556.9873, 180.3871
558.9158, 171.9603
560.8442, 164.4608
562.7727, 157.9720
564.7012, 151.7453
566.6296, 145.4407
568.5581, 139.2368
570.4866, 133.6064
572.4150, 128.4568
574.3435, 123.9317
576.2720, 120.1710
578.2005, 117.3406
580.1290, 114.9840
582.0574, 113.3872
583.9859, 111.8882
585.9144, 110.2298
587.8428, 108.2298
589.7713, 106.4143
591.6998, 104.7466
593.6282, 103.2916
595.5567, 102.1162
597.4852, 101.2133
599.4136, 100.3314
601.3421, 99.27169
603.2706, 98.36189
605.1990, 97.82358
607.1275, 97.78123
609.0560, 97.59810
610.9844, 97.08716
612.9129, 96.46476
614.8414, 95.91599
616.7698, 95.40486
618.6983, 95.01579
620.6268, 94.88132
622.5552, 94.97783
624.4837, 94.86523
626.4122, 94.31787
628.3406, 93.80177
630.2691, 93.58789
632.1976, 93.66351
634.1260, 93.59727
636.0545, 93.17934
637.9830, 92.76228
639.9114, 92.55580
641.8399, 92.64092
643.7684, 92.74174
645.6968, 92.91588
647.6253, 92.97923
649.5538, 92.81251
651.4822, 92.26941
653.4107, 92.00927
655.3392, 92.04484
657.2676, 92.31123
659.1961, 92.89824
661.1246, 93.88191
663.0530, 94.88985
664.9815, 95.78964
666.9100, 96.62578
668.8384, 97.58370
670.7669, 98.72499
672.6954, 99.92342
674.6238, 101.0100
676.5523, 102.1982
678.4808, 103.8452
680.4092, 106.2580
682.3377, 108.5593
684.2662, 110.1854
686.1946, 111.3742
688.1231, 113.4222
690.0516, 115.8468
691.9800, 119.5021
693.9085, 124.9276
695.8370, 131.8260
697.7654, 139.5312
699.6939, 148.5193
701.6224, 157.6662
703.5508, 167.4340
705.4793, 178.1380
707.4078, 185.2780
709.3362, 189.3662
711.2647, 189.8678
713.1932, 185.2766
715.1216, 175.8285
717.0501, 165.7744
718.9786, 154.5323
720.9070, 143.8332
722.8355, 134.5571
724.7640, 126.9798
726.6924, 121.4284
728.6209, 118.9971
730.5494, 117.7238
732.4778, 116.6505
734.4063, 115.9618
736.3348, 114.5151
738.2632, 111.2065
740.1917, 107.8024
742.1202, 105.4221
744.0486, 104.2190
745.9771, 103.2194
747.9056, 102.2468
749.8340, 101.4806
751.7625, 101.2364
753.6910, 101.7216
755.6194, 102.1978
757.5479, 102.4528
759.4764, 102.6517
761.4048, 103.0022
763.3333, 103.3292
765.2618, 103.7466
767.1902, 104.3480
769.1187, 105.1093
771.0472, 105.7651
772.9756, 106.1382
774.9041, 106.7929
776.8326, 107.9689
778.7610, 109.3326
780.6895, 110.6076
782.6180, 112.0638
784.5464, 113.5257
786.4749, 114.7976
788.4034, 115.9384
790.3318, 117.2824
792.2603, 118.8534
794.1888, 120.6433
796.1172, 122.6551
798.0457, 124.8010
799.9742, 127.1475
801.9026, 129.5820
803.8311, 132.4553
805.7596, 135.7953
807.6880, 139.8324
809.6165, 144.4922
811.5450, 149.6281
813.4734, 155.5607
815.4019, 163.2789
817.3304, 171.4389
819.2589, 178.4326
821.1873, 184.8393
823.1158, 189.6168
825.0443, 192.4267
826.9727, 193.3198
828.9012, 191.6006
830.8297, 186.3400
832.7581, 180.3939
834.6866, 173.9932
836.6151, 167.4300
838.5435, 162.5835
840.4720, 159.6942
842.4005, 158.4959
844.3289, 159.3164
846.2574, 161.4704
848.1859, 164.1624
850.1143, 167.9876
852.0428, 172.2656
853.9713, 175.5550
855.8997, 179.6084
857.8282, 185.7572
859.7567, 192.9042
861.6851, 201.5883
863.6136, 212.6021
865.5421, 224.8515
867.4705, 237.1179
869.3990, 250.2154
871.3275, 266.2119
873.2559, 283.9445
875.1844, 306.3041
877.1129, 334.2386
879.0413, 366.2054
880.9698, 402.1060
882.8983, 443.4477
884.8267, 484.6576
886.7552, 524.8668
888.6837, 569.1894
890.6121, 606.6182
892.5406, 633.3662
894.4691, 652.2285
896.3975, 661.3805
898.3260, 655.6298
900.2545, 647.7357
902.1829, 640.0016
904.1114, 635.1125
906.0399, 635.3731
907.9683, 644.3847
909.8968, 652.5948
911.8253, 658.8182
913.7537, 660.2130
915.6822, 659.5521
917.6107, 653.7139
919.5391, 641.5550
921.4676, 626.1858
923.3961, 609.1544
925.3245, 586.8726
927.2530, 558.2839
929.1815, 527.0948
931.1099, 490.9102
933.0384, 453.2439
934.9669, 417.1875
936.8953, 383.8018
938.8238, 352.9984
940.7523, 325.9135
942.6807, 303.3498
944.6092, 285.3414
946.5377, 270.6486
948.4661, 257.8798
950.3946, 246.5503
952.3231, 235.2859
954.2515, 223.1425
956.1800, 212.8967
958.1085, 204.5278
960.0369, 197.5634
961.9654, 191.7336
963.8939, 187.0338
965.8223, 182.9653
967.7508, 179.3790
969.6793, 176.0137
971.6077, 172.6704
973.5362, 169.1814
975.4647, 165.6192
977.3931, 162.4531
979.3216, 159.8246
981.2501, 157.3242
983.1785, 154.7168
985.1070, 152.1745
987.0355, 150.0105
988.9639, 148.4508
990.8924, 147.1438
992.8209, 145.5294
994.7493, 143.5622
996.6778, 141.4214
998.6063, 139.6914
1000.535, 138.5499
1002.463, 137.6952
1004.392, 136.7036
1006.320, 135.4593
1008.249, 134.3027
1010.177, 133.3165
1012.106, 132.0404
1014.034, 130.6985
1015.962, 129.7651
1017.891, 129.5276
1019.819, 129.5087
1021.748, 129.3030
1023.676, 129.0694
1025.605, 128.6055
1027.533, 128.0190
1029.462, 127.8954
1031.390, 128.5935
1033.319, 129.1104
1035.247, 129.1078
1037.176, 128.8195
1039.104, 128.5734
1041.032, 128.5293
1042.961, 128.9732
1044.889, 129.8625
1046.818, 130.8766
1048.746, 131.8362
1050.675, 132.7136
1052.603, 133.5211
1054.532, 134.3303
1056.460, 135.0965
1058.389, 135.7905
1060.317, 136.3778
1062.246, 136.8396
1064.174, 137.2218
1066.103, 137.6598
1068.031, 137.8770
1069.959, 138.2290
1071.888, 138.2003
1073.817, 138.2947
1075.745, 138.3244
1077.673, 137.5708
1079.602, 136.3976
1081.530, 135.4392
1083.459, 135.0083
1085.387, 134.4741
1087.316, 133.4955
1089.244, 132.4124
1091.173, 131.6639
1093.101, 131.2098
1095.030, 130.4799
1096.958, 129.0148
1098.887, 127.4053
1100.815, 126.3526
1102.744, 125.7114
1104.672, 124.8670
1106.600, 123.2844
1108.529, 122.0238
1110.457, 121.2188
1112.386, 120.5243
1114.314, 120.0549
1116.243, 119.9834
1118.171, 119.7502
1120.100, 118.9035
1122.028, 118.1142
1123.957, 117.5451
1125.885, 117.2532
1127.814, 117.2813
1129.742, 116.8496
1131.671, 117.3453
1133.599, 116.4548
1135.527, 115.8450
1137.456, 115.7924
1139.384, 116.2685
1141.313, 116.6348
1143.241, 116.9119
1145.170, 116.6807
1147.098, 116.0863
1149.027, 115.3629
1150.955, 115.0146
1152.884, 115.1871
1154.812, 115.6274
1156.741, 115.4741
1158.669, 114.7438
1160.598, 114.2496
1162.526, 114.3817
1164.454, 114.7384
1166.383, 115.0784
1168.311, 115.1377
1170.240, 115.1332
1172.168, 115.3266
1174.097, 115.2845
1176.025, 115.2920
1177.954, 115.3523
1179.882, 115.2295
1181.811, 115.3760
1183.739, 115.3853
1185.668, 115.1113
1187.596, 114.6641
1189.525, 114.0431
1191.453, 113.6467
1193.381, 113.9631
1195.310, 115.2101
1197.238, 116.0440
1199.167, 115.8042
1201.095, 115.3231
1203.024, 114.9850
1204.952, 114.8577
1206.881, 114.9037
1208.809, 115.2437
1210.738, 115.3405
1212.666, 114.9717
1214.595, 114.5098
1216.523, 114.2524
1218.452, 114.1836
1220.380, 114.3893
1222.308, 115.0905
1224.237, 115.8731
1226.165, 116.3468
1228.094, 116.4606
1230.022, 116.5621
1231.951, 116.7650
1233.879, 116.9070
1235.808, 116.6954
1237.736, 116.4921
1239.665, 116.7090
1241.593, 117.3406
1243.522, 117.6061
1245.450, 117.1618
1247.379, 116.8712
1249.307, 117.0632
1251.235, 117.3192
1253.164, 117.3182
1255.092, 117.0809
1257.021, 117.1294
1258.949, 117.6956
1260.878, 118.2894
1262.806, 118.5552
1264.735, 118.6020
1266.663, 119.0382
1268.592, 120.3277
1270.520, 121.1633
1272.449, 120.9269
1274.377, 120.2585
1276.306, 119.8910
1278.234, 119.9125
1280.162, 119.9470
1282.091, 119.8054
1284.019, 119.8409
1285.948, 120.3111
1287.876, 120.9671
1289.805, 121.4132
1291.733, 121.6948
1293.662, 121.9577
1295.590, 122.0841
1297.519, 122.2215
1299.447, 122.7371
1301.376, 123.4717
1303.304, 123.8087
1305.233, 123.4980
1307.161, 123.5663
1309.089, 124.6944
1311.018, 125.8678
1312.946, 126.4732
1314.875, 126.5535
1316.803, 126.6655
1318.732, 126.6119
1320.660, 126.7816
1322.589, 127.4369
1324.517, 128.3504
1326.446, 129.1053
1328.374, 129.6405
1330.303, 130.1320
1332.231, 130.5885
1334.160, 130.9558
1336.088, 131.2046
1338.016, 131.5084
1339.945, 131.9058
1341.873, 132.3760
1343.802, 132.8544
1345.730, 133.4082
1347.659, 133.9037
1349.587, 134.1632
1351.516, 134.3073
1353.444, 134.7250
1355.373, 135.5703
1357.301, 136.2455
1359.230, 136.5177
1361.158, 136.7048
1363.087, 136.8768
1365.015, 137.0825
1366.943, 137.6709
1368.872, 139.1568
1370.800, 140.3070
1372.729, 140.8216
1374.657, 141.1737
1376.586, 141.7258
1378.514, 142.4634
1380.443, 143.0883
1382.371, 143.4044
1384.300, 143.9971
1386.228, 145.3411
1388.157, 146.7852
1390.085, 147.6324
1392.014, 147.9942
1393.942, 148.6859
1395.870, 149.9261
1397.799, 151.1623
1399.727, 152.3894
1401.656, 153.3948
1403.584, 153.9272
1405.513, 153.9805
1407.441, 154.0293
1409.370, 154.1807
1411.298, 154.2628
1413.227, 154.0836
1415.155, 153.8437
1417.084, 153.8415
1419.012, 154.0726
1420.941, 154.1665
1422.869, 154.0131
1424.797, 153.9459
1426.726, 154.1012
1428.654, 154.2650
1430.583, 154.2355
1432.511, 153.9928
1434.440, 153.9667
1436.368, 154.2110
1438.297, 154.6140
1440.225, 155.2645
1442.154, 155.9664
1444.082, 156.3991
1446.011, 156.5956
1447.939, 157.2331
1449.868, 158.7467
1451.796, 159.9351
1453.724, 160.0596
1455.653, 159.8210
1457.581, 159.9470
1459.510, 160.4080
1461.438, 160.6394
1463.367, 160.4147
1465.295, 160.3723
1467.224, 160.9316
1469.152, 161.6010
1471.081, 162.0020
1473.009, 162.0306
1474.938, 161.6337
1476.866, 160.2241
1478.795, 159.5199
1480.723, 160.6130
1482.651, 161.8555
1484.580, 161.3611
1486.508, 159.2825
1488.437, 159.3038
1490.365, 164.5685
1492.294, 167.5811
1494.222, 166.0098
1496.151, 163.4563
1498.079, 162.3849
1500.008, 162.5328
1501.936, 162.6307
1503.865, 162.5512
1505.793, 162.7446
1507.722, 163.6346
1509.650, 164.4129
1511.578, 164.5837
1513.507, 164.3927
1515.435, 164.2021
1517.364, 163.8859
1519.292, 163.9279
1521.221, 164.8066
1523.149, 165.5689
1525.078, 165.6169
1527.006, 165.3018
1528.935, 165.0839
1530.863, 164.8845
1532.792, 164.8697
1534.720, 165.3389
1536.649, 165.7033
1538.577, 165.4930
1540.505, 165.1018
1542.434, 165.1435
1544.362, 165.6022
1546.291, 165.6844
1548.219, 165.0943
1550.148, 164.7851
1552.076, 165.2251
1554.005, 165.8355
1555.933, 166.2839
1557.862, 166.5465
1559.790, 166.6358
1561.719, 166.4720
1563.647, 166.7862
1565.576, 168.4450
1567.504, 169.5873
1569.432, 169.0090
1571.361, 167.6308
1573.289, 167.1689
1575.218, 167.9115
1577.146, 168.6128
1579.075, 169.4309
1581.003, 169.8545
1582.932, 169.2489
1584.860, 168.5319
1586.789, 168.8116
1588.717, 170.0974
1590.646, 170.9281
1592.574, 170.8725
1594.503, 170.8176
1596.431, 170.7824
1598.359, 170.8697
1600.288, 171.1357
1602.216, 171.5840
1604.145, 172.2637
1606.073, 173.4332
1608.002, 173.9996
1609.930, 173.4496
1611.859, 172.9763
1613.787, 172.8648
1615.716, 173.0909
1617.644, 173.7597
1619.573, 174.7984
1621.501, 175.4168
1623.430, 175.3668
1625.358, 175.4989
1627.286, 176.1701
1629.215, 176.7991
1631.143, 176.9858
1633.072, 176.8972
1635.000, 176.9305
1636.929, 177.1309
1638.857, 177.1890
1640.786, 176.8623
1642.714, 176.7186
1644.643, 176.9406
1646.571, 177.3856
1648.500, 177.9759
1650.428, 178.6750
1652.357, 179.3246
1654.285, 179.8867
1656.214, 180.5347
1658.142, 181.5779
1660.070, 182.3948
1661.999, 182.5544
1663.927, 182.4314
1665.856, 182.6461
1667.784, 183.1496
1669.713, 183.1032
1671.641, 182.0388
1673.570, 181.5574
1675.498, 182.3859
1677.427, 183.6156
1679.355, 184.9030
1681.284, 186.1168
1683.212, 186.9878
1685.141, 187.4966
1687.069, 187.8701
1688.997, 188.1176
1690.926, 188.2210
1692.854, 187.5608
1694.783, 187.2991
1696.711, 189.0097
1698.640, 191.7515
1700.568, 192.8416
1702.497, 192.0620
1704.425, 191.4453
1706.354, 191.1765
1708.282, 191.2819
1710.211, 191.9926
1712.139, 192.9143
1714.068, 193.7597
1715.996, 194.5400
1717.924, 195.3002
1719.853, 196.0897
1721.781, 196.6110
1723.710, 196.3476
1725.638, 196.5314
1727.567, 197.9651
1729.495, 199.8195
1731.424, 201.3488
1733.352, 202.5495
1735.281, 203.4989
1737.209, 204.2410
1739.138, 204.4776
1741.066, 203.6921
1742.995, 203.1657
1744.923, 203.5409
1746.851, 204.4052
1748.780, 205.6552
1750.708, 207.0735
1752.637, 207.4619
1754.565, 206.3907
1756.494, 206.2177
1758.422, 207.9249
1760.351, 209.6335
1762.279, 210.5368
1764.208, 211.1791
1766.136, 212.1652
1768.065, 213.3736
1769.993, 214.2668
1771.922, 214.8681
1773.850, 215.1118
1775.778, 214.4568
1777.707, 214.2103
1779.635, 215.0584
1781.564, 216.2154
1783.492, 216.9353
1785.421, 217.3982
1787.349, 218.2779
1789.278, 219.7019
1791.206, 220.9001
1793.135, 221.3458
1795.063, 222.2901
1796.992, 224.8783
1798.920, 227.1765
1800.849, 227.4640
1802.777, 226.5921
1804.705, 226.3622
1806.634, 226.8354
1808.562, 227.5910
1810.491, 228.7282
1812.419, 229.9771
1814.348, 231.4553
1816.276, 232.8321
1818.205, 233.9339
1820.133, 234.8021
1822.062, 235.5064
1823.990, 236.0369
1825.919, 236.2869
1827.847, 235.7457
1829.776, 236.0302
1831.704, 238.0028
1833.632, 239.8061
1835.561, 240.9093
1837.489, 241.5899
1839.418, 241.9467
1841.346, 242.0779
1843.275, 242.3076
1845.203, 242.5833
1847.132, 243.1732
1849.060, 244.2231
1850.989, 245.2849
1852.917, 246.4817
1854.846, 247.3947
1856.774, 247.4369
1858.703, 247.2904
1860.631, 248.3019
1862.559, 250.2334
1864.488, 250.8572
1866.416, 249.7898
1868.345, 248.9887
1870.273, 248.7746
1872.202, 248.9669
1874.130, 249.7918
1876.059, 250.7248
1877.987, 251.2946
1879.916, 251.6854
1881.844, 252.3622
1883.773, 253.2917
1885.701, 253.6441
1887.630, 252.9240
1889.558, 252.9382
1891.486, 254.7191
1893.415, 256.5159
1895.343, 257.8534
1897.272, 258.5573
1899.200, 257.9630
1901.129, 256.6027
1903.057, 256.5742
1904.986, 258.2727
1906.914, 259.1068
1908.843, 258.0442
1910.771, 257.6021
1912.700, 258.2611
1914.628, 259.4378
1916.557, 261.1494
1918.485, 262.9411
1920.413, 264.3981
1922.342, 265.4578
1924.270, 265.7295
1926.199, 264.7743
1928.127, 264.5433
1930.056, 265.8681
1931.984, 266.5928
1933.913, 265.7665
1935.841, 264.9631
1937.770, 264.9897
1939.698, 265.3824
1941.627, 265.6201
1943.555, 265.7405
1945.484, 266.0079
1947.412, 266.0299
1949.340, 266.5347
1951.269, 266.0071
1953.197, 265.6160
1955.126, 265.4136
1957.054, 265.6593
1958.983, 267.0638
1960.911, 268.5378
1962.840, 268.8628
1964.768, 268.3432
1966.697, 267.6712
1968.625, 266.7993
1970.554, 266.5932
1972.482, 267.3982
1974.411, 268.0902
1976.339, 268.1032
1978.267, 268.4740
1980.196, 270.3880
1982.124, 272.1193
1984.053, 271.7824
1985.981, 270.3461
1987.910, 269.9327
1989.838, 270.5755
1991.767, 271.0345
1993.695, 271.2331
1995.624, 271.3619
1997.552, 271.2104
1999.481, 271.3152
2001.409, 272.1394
2003.338, 272.8999
2005.266, 273.1583
2007.194, 273.1444
2009.123, 273.1525
2011.051, 273.1187
2012.980, 272.6960
2014.908, 271.8633
2016.837, 271.6342
2018.765, 272.3751
2020.694, 272.8152
2022.622, 272.1738
2024.551, 271.9417
2026.479, 273.2716
2028.408, 274.7268
2030.336, 274.7416
2032.265, 276.2137
2034.193, 275.3730
2036.121, 277.7846
2038.050, 279.1913
2039.978, 279.1657
2041.907, 279.2929
2043.835, 279.8838
2045.764, 280.1487
2047.692, 279.4619
2049.621, 279.1859
2051.549, 280.2003
2053.478, 281.5318
2055.406, 282.3272
2057.334, 282.8337
2059.263, 283.5782
2061.192, 284.4659
2063.120, 284.9886
2065.049, 285.0365
2066.977, 285.6734
2068.906, 287.4584
2070.834, 288.7492
2072.762, 288.9990
2074.691, 288.8927
2076.619, 288.2597
2078.548, 287.8924
2080.476, 288.7360
2082.405, 290.1506
2084.333, 291.0697
2086.262, 291.5287
2088.190, 291.7279
2090.119, 291.4654
2092.047, 291.9112
2093.976, 293.4455
2095.904, 294.6981
2097.833, 295.1407
2099.761, 295.7133
2101.689, 297.1469
2103.618, 298.2884
2105.546, 297.8634
2107.475, 297.1325
2109.403, 297.8117
2111.332, 299.4017
2113.260, 300.5373
2115.189, 301.2446
2117.117, 301.5923
2119.046, 300.9969
2120.974, 301.7347
2122.903, 305.4747
2124.831, 308.0803
2126.760, 308.1727
2128.688, 307.8455
2130.616, 307.3720
2132.545, 307.4976
2134.473, 309.5276
2136.402, 312.1493
2138.330, 313.0218
2140.259, 312.6207
2142.187, 312.6733
2144.116, 313.1971
2146.044, 314.3304
2147.973, 316.2877
2149.901, 317.7888
2151.830, 318.5733
2153.758, 319.0829
2155.687, 319.1847
2157.615, 319.4496
2159.543, 319.8273
2161.472, 320.7560
2163.400, 323.1753
2165.329, 325.9249
2167.257, 327.0195
2169.186, 326.7961
2171.114, 326.8473
2173.043, 327.2088
2174.971, 328.2391
2176.900, 330.2573
2178.828, 331.0982
2180.757, 329.7837
2182.685, 329.4023
2184.614, 331.4106
2186.542, 333.4936
2188.470, 334.3589
2190.399, 335.2534
2192.327, 337.5136
2194.256, 339.8720
2196.184, 340.8174
2198.113, 340.7316
2200.041, 340.1850
2201.970, 339.2871
2203.898, 339.8295
2205.827, 341.9754
2207.755, 342.6210
2209.684, 340.8428
2211.612, 341.2718
2213.541, 346.3018
2215.469, 349.6898
2217.397, 347.6953
2219.326, 346.0844
2221.254, 348.1472
2223.183, 350.6845
2225.111, 351.1662
2227.040, 350.8790
2228.968, 351.4143
2230.897, 352.4487
2232.825, 353.2426
2234.754, 353.8055
2236.682, 354.1082
2238.611, 354.1369
2240.539, 354.7650
2242.468, 356.1588
2244.396, 357.5206
2246.324, 358.9478
2248.253, 359.7127
2250.181, 358.8259
2252.110, 358.4247
2254.038, 359.9122
2255.967, 361.3765
2257.895, 361.4392
2259.824, 361.1710
2261.752, 361.2690
2263.681, 361.9177
2265.609, 363.9861
2267.538, 364.4014
2269.466, 365.4672
2271.395, 366.7604
2273.323, 366.9734
2275.251, 368.4406
2277.180, 369.0463
2279.108, 368.2566
2281.037, 367.6951
2282.965, 367.1914
2284.894, 367.5288
2286.822, 369.7086
2288.751, 371.4890
2290.679, 371.7251
2292.608, 371.8389
2294.536, 372.8183
2296.465, 373.7542
2298.393, 373.5445
2300.322, 373.1380
2302.250, 373.9164
2304.178, 375.3700
2306.107, 376.4051
2308.035, 377.0512
2309.964, 377.3868
2311.892, 377.3743
2313.821, 377.4173
2315.749, 377.4948
2317.678, 377.6953
2319.606, 378.1258
2321.535, 378.2737
2323.463, 377.9478
2325.392, 377.6357
2327.320, 377.3531
2329.249, 377.4197
2331.177, 378.4525
2333.105, 379.3122
2335.034, 378.9888
2336.962, 378.5492
2338.891, 378.9660
2340.819, 379.6884
2342.748, 380.0235
2344.676, 380.0992
2346.605, 380.3877
2348.533, 380.6761
2350.462, 379.9354
2352.390, 378.4218
2354.319, 378.2190
2356.247, 379.6189
2358.176, 380.0629
2360.104, 378.4361
2362.032, 378.3222
2363.961, 380.9408
2365.889, 382.5105
2367.818, 382.2162
2369.746, 381.8890
2371.675, 382.0738
2373.603, 382.1758
2375.532, 381.9851
2377.460, 381.6709
2379.389, 380.8482
2381.317, 380.4487
2383.246, 381.2891
2385.174, 382.6855
2387.103, 384.5441
2389.031, 385.9901
2390.959, 385.2233
2392.888, 383.2216
2394.816, 382.1958
2396.745, 382.1358
2398.673, 383.4218
2400.602, 385.7946
2402.530, 386.3622
2404.459, 384.7328
2406.387, 383.8207
2408.316, 383.4361
2410.244, 384.3714
2412.173, 387.6909
2414.101, 388.8994
2416.030, 386.6393
2417.958, 385.0507
2419.886, 385.0135
2421.815, 385.8727
2423.743, 388.4046
2425.672, 390.2889
2427.600, 390.0670
2429.529, 389.7748
2431.457, 390.3625
2433.386, 391.4291
2435.314, 393.4017
2437.243, 394.9790
2439.171, 393.9618
2441.100, 392.7126
2443.028, 394.4343
2444.957, 397.2187
2446.885, 398.1491
2448.813, 397.7015
2450.742, 396.8768
2452.670, 395.8623
2454.599, 395.4458
2456.527, 395.2096
2458.456, 395.1987
2460.384, 395.6031
2462.313, 396.0416
2464.241, 397.0281
2466.170, 397.9993
2468.098, 398.6771
2470.027, 399.9225
2471.955, 402.4724
2473.884, 403.9659
2475.812, 403.8150
2477.740, 403.7990
2479.669, 404.2700
2481.597, 404.7560
2483.526, 405.4620
2485.454, 405.7020
2487.383, 404.2493
2489.311, 403.9282
2491.240, 406.9383
2493.168, 409.8339
2495.097, 410.6413
2497.025, 411.0658
2498.954, 411.6096
2500.882, 412.5951
2502.811, 415.0738
2504.739, 417.1043
2506.667, 415.9870
2508.596, 414.3228
2510.524, 415.9914
2512.453, 418.5857
2514.381, 417.3710
2516.310, 415.1109
2518.238, 418.5331
2520.167, 424.6255
2522.095, 425.4763
2524.024, 422.8412
2525.952, 422.5313
2527.881, 424.0161
2529.809, 424.2650
2531.738, 423.3639
2533.666, 423.7592
2535.594, 425.4684
2537.523, 426.4660
2539.451, 426.7611
2541.380, 426.9464
2543.308, 427.0073
2545.237, 428.2735
2547.165, 431.5701
2549.094, 433.3944
2551.022, 432.9425
2552.951, 433.1291
2554.879, 434.4462
2556.808, 434.6158
2558.736, 432.5715
2560.665, 432.6561
2562.593, 436.9345
2564.521, 440.5736
2566.450, 442.9169
2568.378, 443.8284
2570.307, 441.4641
2572.235, 440.8161
2574.164, 443.9367
2576.092, 446.6209
2578.021, 446.5909
2579.949, 447.4746
2581.878, 452.3530
2583.806, 456.1827
2585.735, 455.9248
2587.663, 455.3505
2589.592, 456.0312
2591.520, 457.1806
2593.448, 458.7344
2595.377, 460.1261
2597.305, 461.1820
2599.234, 461.6645
2601.162, 460.9700
2603.091, 460.1436
2605.019, 459.4960
2606.948, 459.7453
2608.876, 462.3139
2610.805, 465.2926
2612.733, 467.4533
2614.662, 468.7624
2616.590, 468.4179
2618.519, 467.8881
2620.447, 469.0446
2622.375, 470.8344
2624.304, 472.0328
2626.232, 472.8260
2628.161, 473.5563
2630.089, 474.0184
2632.018, 473.6768
2633.946, 473.1086
2635.875, 473.1589
2637.803, 473.7752
2639.732, 474.9384
2641.660, 476.5088
2643.589, 478.6479
2645.517, 480.6972
2647.446, 481.1151
2649.374, 480.5560
2651.302, 480.5402
2653.231, 480.7492
2655.159, 480.1066
2657.088, 479.0020
2659.016, 478.5225
2660.945, 478.6616
2662.873, 479.9111
2664.802, 481.6661
2666.730, 481.6498
2668.659, 480.6148
2670.587, 481.9313
2672.516, 481.5327
2674.444, 481.9942
2676.373, 482.5465
2678.301, 482.7723
2680.229, 482.9404
2682.158, 483.1288
2684.086, 483.2590
2686.015, 483.0923
2687.943, 483.7930
2689.872, 483.5213
2691.800, 482.6198
2693.729, 482.5595
2695.657, 483.1544
2697.586, 483.3164
2699.514, 483.1890
2701.443, 483.7775
2703.371, 484.8627
2705.300, 484.4106
2707.228, 482.9437
2709.156, 482.7469
2711.085, 483.5816
2713.013, 484.4511
2714.942, 485.1143
2716.870, 484.0259
2718.799, 481.6515
2720.727, 480.9200
2722.656, 481.5565
2724.584, 482.6442
2726.513, 484.0374
2728.441, 485.4616
2730.370, 486.6205
2732.298, 485.6029
2734.227, 485.8282
2736.155, 485.2606
2738.083, 483.9859
2740.012, 483.5435
2741.940, 482.0750
2743.869, 480.8045
2745.797, 480.0661
2747.726, 481.5574
2749.654, 484.2782
2751.583, 485.1632
2753.511, 484.6886
2755.440, 483.3799
2757.368, 482.0065
2759.297, 483.0810
2761.225, 482.2379
2763.154, 484.5362
2765.082, 482.5671
2767.010, 482.5156
2768.939, 482.9066
2770.867, 480.4027
2772.796, 477.2289
2774.724, 477.4250
2776.653, 479.4026
2778.581, 481.7592
2780.510, 483.1688
2782.438, 480.7496
2784.367, 477.5004
2786.295, 477.0565
2788.224, 478.0742
2790.152, 479.5738
2792.081, 480.9784
2794.009, 481.7769
2795.938, 482.0323
2797.866, 481.3001
2799.794, 480.5652
2801.723, 480.9232
2803.651, 481.3285
2805.580, 480.8186
2807.508, 480.1656
2809.437, 479.9420
2811.365, 479.7737
2813.294, 479.3869
2815.222, 479.1993
2817.151, 479.8220
2819.079, 480.2045
2821.008, 479.3658
2822.936, 479.0513
2824.865, 480.4461
2826.793, 481.7277
2828.721, 481.9387
2830.650, 482.1596
2832.578, 482.8369
2834.507, 483.1469
2836.435, 482.5262
2838.364, 482.5936
2840.292, 482.5599
2842.221, 482.1907
2844.149, 483.2448
2846.078, 482.2391
2848.006, 484.0279
2849.935, 485.3212
2851.863, 485.4923
2853.792, 485.4998
2855.720, 485.4073
2857.648, 485.0086
2859.577, 486.0056
2861.505, 485.0568
2863.434, 488.0451
2865.362, 490.2707
2867.291, 491.5284
2869.219, 491.4247
2871.148, 489.9380
2873.076, 490.0161
2875.005, 491.3706
2876.933, 492.6276
2878.862, 493.6531
2880.790, 493.5326
2882.719, 492.9370
2884.647, 494.5505
2886.575, 494.5462
2888.504, 494.9269
2890.432, 496.0281
2892.361, 496.0511
2894.289, 496.7800
2896.218, 498.2272
2898.146, 499.5852
2900.075, 499.3523
2902.003, 499.3133
2903.932, 501.2549
2905.860, 503.5059
2907.789, 504.7685
2909.717, 505.9440
2911.646, 508.1329
2913.574, 509.3644
2915.502, 507.7458
2917.431, 506.7423
2919.359, 507.6710
2921.288, 509.5893
2923.216, 513.3870
2925.145, 514.5570
2927.073, 510.7650
2929.002, 508.9381
2930.930, 512.1753
2932.859, 513.5502
2934.787, 512.5184
2936.716, 512.7952
2938.644, 514.6821
2940.573, 516.6868
2942.501, 518.7554
2944.429, 519.2006
2946.358, 518.2469
2948.286, 520.0646
2950.215, 519.9722
2952.143, 520.7926
2954.072, 521.8958
2956.000, 523.0875
2957.929, 525.7535
2959.857, 528.0604
2961.786, 529.5499
2963.714, 528.7327
2965.643, 528.0149
2967.571, 531.1492
2969.500, 533.6050
2971.428, 530.4078
2973.356, 527.8285
2975.285, 529.9641
2977.213, 532.1115
2979.142, 532.1273
2981.070, 532.1769
2982.999, 532.4265
2984.927, 533.8133
2986.856, 537.0338
2988.784, 539.4013
2990.713, 540.0136
2992.641, 540.8002
2994.570, 541.7940
2996.498, 542.3352
2998.427, 542.4285
3000.355, 542.8065
3002.283, 543.4730
3004.212, 544.5732
3006.140, 545.8546
3008.069, 546.3332
3009.997, 546.3428
3011.926, 546.4289
3013.854, 546.5530
3015.783, 546.3264
3017.711, 546.5244
3019.640, 548.3661
3021.568, 550.0398
3023.497, 550.5235
3025.425, 550.0782
3027.354, 547.5278
3029.282, 546.4274
3031.210, 548.4664
3033.139, 549.8516
3035.067, 549.1132
3036.996, 548.8235
3038.924, 549.2010
3040.853, 549.9777
3042.781, 551.1237
3044.710, 550.6756
3046.638, 551.2776
3048.567, 549.0629
3050.495, 550.9516
3052.424, 550.5231
3054.352, 549.3347
3056.281, 551.0677
3058.209, 553.4595
3060.137, 552.9557
3062.066, 551.6533
3063.994, 550.7706
3065.923, 550.6442
3067.851, 552.1573
3069.780, 553.3643
3071.708, 553.5477
3073.637, 553.4224
3075.565, 553.4775
3077.494, 552.3895
3079.422, 548.8207
3081.351, 546.7134
3083.279, 546.0663
3085.208, 546.7299
3087.136, 548.4388
3089.064, 548.9674
3090.993, 548.5032
3092.921, 547.6600
3094.850, 546.6214
3096.778, 545.3463
3098.707, 544.4849
3100.635, 545.4720
3102.564, 546.2925
3104.492, 544.6701
3106.421, 543.3207
3108.349, 543.9907
3110.278, 544.2689
3112.206, 542.6473
3114.135, 542.0522
3116.063, 542.9994
3117.991, 543.4777
3119.920, 543.2589
3121.848, 541.4449
3123.777, 538.1594
3125.705, 536.8737
3127.634, 537.0577
3129.562, 537.1060
3131.491, 537.0939
3133.419, 537.5259
3135.348, 537.5327
3137.276, 535.4484
3139.205, 533.6913
3141.133, 534.2186
3143.062, 534.9735
3144.990, 535.5483
3146.918, 535.2662
3148.847, 533.6968
3150.775, 532.5267
3152.704, 531.9777
3154.632, 532.1320
3156.561, 531.3033
3158.489, 532.2751
3160.418, 530.8529
3162.346, 530.8917
3164.275, 531.4371
3166.203, 530.8087
3168.132, 529.4236
3170.060, 526.9605
3171.989, 525.1509
3173.917, 526.0654
3175.845, 526.4362
3177.774, 524.9926
3179.702, 523.9945
3181.631, 523.8811
3183.559, 524.7287
3185.488, 526.5398
3187.416, 528.1944
3189.345, 529.2955
3191.273, 527.3797
3193.202, 528.2147
3195.130, 525.0145
3197.059, 527.0690
3198.987, 527.4400
3200.916, 526.6259
3202.844, 523.5793
3204.772, 522.1305
3206.701, 524.4630
3208.629, 526.2263
3210.558, 526.0950
3212.486, 525.6173
3214.415, 524.8141
3216.343, 524.2855
3218.272, 523.9492
3220.200, 523.0153
3222.129, 522.1231
3224.057, 523.7039
3225.986, 525.7902
3227.914, 526.4274
3229.843, 525.9949
3231.771, 524.1132
3233.699, 522.4647
3235.628, 521.6567
3237.556, 521.0294
3239.485, 520.3756
3241.413, 520.1288
3243.342, 520.2916
3245.270, 520.5244
3247.199, 521.4293
3249.127, 527.1670
3251.056, 525.5649
3252.984, 530.6744
3254.913, 526.0145
3256.841, 525.8218
3258.770, 526.5861
3260.698, 526.6740
3262.626, 527.1113
3264.555, 528.5250
3266.483, 527.8408
3268.412, 528.8359
3270.340, 528.7939
3272.269, 528.8475
3274.197, 528.9200
3276.126, 528.5961
3278.054, 527.1322
3279.983, 528.1946
3281.911, 527.8176
3283.840, 528.1777
3285.768, 531.3463
3287.697, 533.7820
3289.625, 534.5735
3291.553, 534.5434
3293.482, 533.6491
3295.410, 533.6963
3297.339, 534.5212
3299.267, 534.3643
3301.196, 533.9568
3303.124, 534.5189
3305.053, 535.6838
3306.981, 537.3113
3308.910, 539.0588
3310.838, 540.9039
3312.767, 542.5231
3314.695, 543.5645
3316.624, 543.8093
3318.552, 545.2120
3320.480, 545.3598
3322.409, 545.8411
3324.337, 546.5046
3326.266, 546.1059
3328.194, 548.4541
3330.123, 550.5946
3332.051, 549.7045
3333.980, 549.2878
3335.908, 550.4716
3337.837, 551.7460
3339.765, 552.9464
3341.694, 553.7452
3343.622, 554.1776
3345.551, 553.8337
3347.479, 553.5831
3349.407, 555.5519
3351.336, 557.7809
3353.264, 558.1463
3355.193, 558.5650
3357.121, 560.5789
3359.050, 560.9191
3360.978, 558.7412
3362.907, 558.0427
3364.835, 558.9708
3366.764, 559.4742
3368.692, 559.9105
3370.621, 561.8607
3372.549, 563.4263
3374.478, 561.8758
3376.406, 560.7128
3378.334, 561.4512
3380.263, 563.2361
3382.191, 566.3154
3384.120, 567.7914
3386.048, 567.5481
3387.977, 566.4076
3389.905, 565.0678
3391.834, 565.0286
3393.762, 565.7363
3395.691, 566.8161
3397.619, 568.1793
3399.548, 570.8099
3401.476, 571.1908
3403.405, 571.9188
3405.333, 573.0496
3407.261, 572.0453
3409.190, 573.6208
3411.118, 573.7499
3413.047, 572.6295
3414.975, 571.6121
3416.904, 572.1695
3418.832, 572.5251
3420.761, 571.9831
3422.689, 571.8552
3424.618, 572.4317
3426.546, 572.7535
3428.475, 572.8840
3430.403, 573.6091
3432.332, 574.0685
3434.260, 572.2557
3436.188, 571.0314
3438.117, 572.7216
3440.045, 573.5727
3441.974, 572.0588
3443.902, 570.8450
3445.831, 570.0703
3447.759, 570.3811
3449.688, 571.3051
3451.616, 571.9935
3453.545, 572.3085
3455.473, 572.5139
3457.402, 571.5814
3459.330, 571.2892
3461.259, 571.4993
3463.187, 569.7648
3465.115, 571.2188
3467.044, 570.8631
3468.972, 569.1642
3470.901, 567.3625
3472.829, 566.8220
3474.758, 566.7731
3476.686, 567.0408
3478.615, 567.1398
3480.543, 567.0531
3482.472, 566.3727
3484.400, 565.0891
3486.329, 562.1332
3488.257, 559.0508
3490.186, 558.0111
3492.114, 558.0814
3494.042, 559.2615
3495.971, 559.8115
3497.899, 559.2892
3499.828, 557.2479
3501.756, 553.9501
3503.685, 552.7396
3505.613, 552.5834
3507.542, 551.8826
3509.470, 551.2096
3511.399, 550.8709
3513.327, 551.0870
3515.256, 552.7966
3517.184, 551.8693
3519.113, 549.0076
3521.041, 551.7069
3522.969, 548.1108
3524.898, 550.4535
3526.826, 545.1022
3528.755, 545.6089
3530.683, 547.6423
3532.612, 550.7392
3534.540, 551.4056
3536.469, 549.6324
3538.397, 547.7465
3540.326, 546.2032
3542.254, 546.6366
3544.183, 546.4020
3546.111, 542.8502
3548.040, 540.2609
3549.968, 539.3307
3551.896, 539.1572
3553.825, 539.4094
3555.753, 539.1102
3557.682, 538.1847
3559.610, 537.6121
3561.539, 536.8319
3563.467, 535.1585
3565.396, 534.9377
3567.324, 532.9037
3569.253, 531.3959
3571.181, 530.5183
3573.110, 531.5674
3575.038, 532.1914
3576.967, 528.8023
3578.895, 526.3674
3580.823, 526.8561
3582.752, 527.1541
3584.680, 526.9182
3586.609, 526.9574
3588.537, 526.9971
3590.466, 526.3829
3592.394, 525.6239
3594.323, 524.6174
3596.251, 524.8416
3598.180, 527.6528
3600.108, 529.0615
3602.037, 529.1068
3603.965, 527.0950
3605.894, 525.2402
3607.822, 527.5372
3609.750, 529.3096
3611.679, 528.5584
3613.607, 526.5492
3615.536, 523.5154
3617.464, 523.9933
3619.393, 526.0318
3621.321, 525.1423
3623.250, 523.2009
3625.178, 520.7413
3627.107, 519.6532
3629.035, 520.5092
3630.964, 522.1954
3632.892, 524.2275
3634.821, 525.1707
3636.749, 524.8229
3638.677, 521.9664
3640.606, 519.9803
3642.534, 521.0209
3644.463, 521.4240
3646.391, 521.1326
3648.320, 520.9884
3650.248, 521.5033
3652.177, 524.9887
3654.105, 527.3362
3656.034, 525.3885
3657.962, 523.7368
3659.891, 522.8911
3661.819, 523.0173
3663.748, 523.6427
3665.676, 523.3008
3667.604, 523.4840
3669.533, 523.9851
3671.461, 524.1331
3673.390, 525.3107
3675.318, 525.1598
3677.247, 526.5533
3679.175, 527.4769
3681.104, 527.4254
3683.032, 524.8820
3684.961, 523.6000
3686.889, 524.6116
3688.818, 526.8172
3690.746, 529.5703
3692.675, 529.7094
3694.603, 528.8758
3696.531, 528.3937
3698.460, 528.8497
3700.388, 530.9329
3702.317, 531.5340
3704.245, 530.6082
3706.174, 529.4388
3708.102, 529.0483
3710.031, 531.6755
3711.959, 533.5842
3713.888, 533.1523
3715.816, 531.9260
3717.745, 530.4095
3719.673, 531.6967
3721.602, 533.8832
3723.530, 534.3256
3725.458, 534.5717
3727.387, 535.1501
3729.315, 535.9857
3731.244, 536.9232
3733.172, 536.9467
3735.101, 536.9821
3737.029, 538.7933
3738.958, 540.2017
3740.886, 539.8131
3742.815, 540.7825
3744.743, 542.9966
3746.672, 544.0449
3748.600, 544.2335
3750.529, 543.3930
3752.457, 542.9403
3754.385, 543.0550
3756.314, 545.4592
3758.242, 545.1143
3760.171, 545.4304
3762.099, 546.1942
3764.028, 545.3384
3765.956, 545.3522
3767.885, 545.9930
3769.813, 548.7454
3771.742, 552.4830
3773.670, 552.2531
3775.599, 550.5793
3777.527, 549.3310
3779.456, 548.7195
3781.384, 548.7463
3783.313, 550.6673
3785.241, 550.1544
3787.169, 552.1680
3789.098, 551.2397
3791.026, 553.4636
3792.955, 555.0652
3794.883, 555.3582
3796.812, 554.8365
3798.740, 554.0363
3800.669, 553.8741
3802.597, 554.0117
3804.526, 554.2585
3806.454, 554.8599
3808.383, 555.7178
3810.311, 554.1056
3812.240, 552.3194
3814.168, 554.7140
3816.096, 555.5023
3818.025, 551.9931
3819.953, 551.1317
3821.882, 552.5753
3823.810, 552.9459
3825.739, 552.4076
3827.667, 552.8124
3829.596, 552.9573
3831.524, 551.9482
3833.453, 552.5137
3835.381, 551.5211
3837.310, 549.0528
3839.238, 547.6796
3841.167, 548.9844
3843.095, 551.0194
3845.023, 553.2213
3846.952, 551.3218
3848.880, 548.3215
3850.809, 548.0682
3852.737, 547.9176
3854.666, 547.2361
3856.594, 545.7396
3858.523, 544.1467
3860.451, 546.0373
3862.380, 547.1660
3864.308, 543.6442
3866.237, 540.0672
3868.165, 537.1565
3870.094, 537.6030
3872.022, 539.2083
3873.950, 538.6272
3875.879, 537.8029
3877.807, 537.6162
3879.736, 536.7118
3881.664, 535.3264
3883.593, 535.0101
3885.521, 534.8146
3887.450, 534.0084
3889.378, 533.8610
3891.307, 534.4953
3893.235, 531.4423
3895.164, 528.1401
3897.092, 530.5854
3899.021, 531.3174
3900.949, 527.2806
3902.877, 527.0235
3904.806, 528.7838
3906.734, 526.8222
3908.663, 524.9844
3910.591, 526.1788
3912.520, 525.4452
3914.448, 522.2949
3916.377, 522.5775
3918.305, 523.0122
3920.234, 518.9176
3922.162, 516.8183
3924.091, 517.5873
3926.019, 517.3741
3927.948, 517.2740
3929.876, 518.0615
3931.804, 516.9426
3933.733, 513.0978
3935.661, 511.4560
3937.590, 511.1825
3939.518, 509.5233
3941.447, 508.1544
3943.375, 508.5906
3945.304, 508.1082
3947.232, 506.5862
3949.161, 505.9827
3951.089, 505.8619
3953.018, 504.7986
3954.946, 503.7851
3956.875, 503.1563
3958.803, 502.2907
3960.731, 501.1581
3962.660, 499.1562
3964.588, 496.9532
3966.517, 496.4192
3968.445, 494.0498
3970.374, 495.2079
3972.302, 495.6286
3974.231, 495.5746
3976.159, 495.1485
3978.088, 494.8211
3980.016, 493.5607
3981.945, 492.8845
3983.873, 492.6136
3985.802, 490.5058
3987.730, 489.8033
3989.658, 491.2393
3991.587, 490.8810
3993.515, 489.1344
3995.444, 486.9473
3997.372, 486.3883
3999.301, 487.7835
4001.229, 487.3810
4003.158, 486.6431
4005.086, 487.6396
4007.015, 487.5747
4008.943, 485.7989
4010.872, 484.0735
4012.800, 482.4787
4014.729, 482.7011
4016.657, 483.3208
4018.585, 482.8899
4020.514, 481.1563
4022.442, 480.4710
4024.371, 481.3985
4026.299, 481.3143
4028.228, 481.9140
4030.156, 482.5876
4032.085, 481.5724
4034.013, 480.4072
4035.942, 480.6115
4037.870, 482.7930
4039.799, 482.8633
4041.727, 480.8105
4043.656, 478.9958
4045.584, 478.4188
4047.512, 479.2080
4049.441, 478.7387
4051.369, 477.8799
4053.298, 477.0539
4055.226, 476.4487
4057.155, 476.9830
4059.083, 475.7353
4061.012, 474.1931
4062.940, 476.7105
4064.869, 477.8607
4066.797, 476.1216
4068.726, 476.3365
4070.654, 477.7737
4072.583, 477.7138
4074.511, 476.9503
4076.439, 475.3646
4078.368, 475.1369
4080.296, 476.4117
4082.225, 477.7841
4084.153, 478.2933
4086.082, 477.3300
4088.010, 477.6508
4089.939, 478.1001
4091.867, 478.0600
4093.796, 478.2714
4095.724, 478.5155
4097.653, 477.6424
4099.581, 476.5112
4101.510, 477.2053
4103.438, 478.3111
4105.367, 479.5446
4107.295, 479.8963
4109.224, 479.6169
4111.152, 479.8663
4113.081, 479.7773
4115.009, 478.5721
4116.938, 479.2684
4118.866, 479.0281
4120.794, 480.6176
4122.723, 479.8145
4124.651, 480.4698
4126.580, 481.6704
4128.508, 483.0686
4130.437, 483.5537
4132.365, 483.6030
4134.293, 483.3111
4136.222, 483.5736
4138.150, 484.0714
4140.079, 482.6797
4142.007, 481.6901
4143.936, 483.3622
4145.864, 483.9624
4147.793, 483.4917
4149.721, 483.9083
4151.650, 484.3410
4153.578, 483.9539
4155.507, 484.5807
4157.435, 485.8425
4159.364, 484.2105
4161.292, 483.8897
4163.221, 484.8076
4165.149, 484.1148
4167.078, 486.2101
4169.006, 485.0269
4170.935, 485.3058
4172.863, 487.0582
4174.792, 487.9584
4176.720, 487.9791
4178.648, 487.0759
4180.577, 486.3970
4182.505, 487.1312
4184.434, 486.9846
4186.362, 486.2782
4188.291, 486.3347
4190.219, 486.4424
4192.147, 486.7500
4194.076, 487.3999
4196.004, 487.6831
4197.933, 488.3070
4199.861, 488.1772
4201.790, 488.5586
4203.718, 488.4359
4205.647, 488.3755
4207.575, 487.7832
4209.504, 486.4390
4211.432, 485.4034
4213.361, 485.8503
4215.289, 486.8157
4217.218, 485.9826
4219.146, 484.9497
4221.075, 484.3115
4223.003, 483.3555
4224.932, 483.0300
4226.860, 482.4970
4228.789, 481.9760
4230.717, 482.2254
4232.646, 482.1576
4234.574, 482.2941
4236.502, 482.9887
4238.431, 484.0146
4240.359, 485.0789
4242.288, 482.4741
4244.216, 479.5796
4246.145, 479.0714
4248.073, 480.4099
4250.001, 482.3555
4251.930, 479.8144
4253.858, 477.5849
4255.787, 478.3226
4257.715, 479.3116
4259.644, 479.7001
4261.572, 477.6054
4263.501, 475.1587
4265.429, 473.0778
4267.358, 474.2249
4269.286, 475.9589
4271.215, 472.6307
4273.143, 471.3071
4275.072, 473.1921
4277.000, 473.3014
4278.929, 473.2885
4280.857, 473.0865
4282.786, 472.6110
4284.714, 471.5832
4286.643, 470.9869
4288.571, 470.8006
4290.500, 469.3091
4292.428, 467.4311
4294.356, 465.5984
4296.285, 464.9324
4298.213, 464.2384
4300.142, 463.0987
4302.070, 460.2818
4303.999, 458.1495
4305.927, 461.5146
4307.855, 463.5607
4309.784, 463.0593
4311.712, 460.9935
4313.641, 458.9379
4315.569, 458.3074
4317.498, 457.4482
4319.426, 456.2591
4321.355, 454.8118
4323.283, 453.9223
4325.212, 452.6780
4327.140, 451.8240
4329.069, 450.8580
4330.997, 450.4744
4332.926, 450.4299
4334.854, 450.3315
4336.783, 448.1464
4338.711, 445.7866
4340.640, 445.2216
4342.568, 444.8505
4344.497, 444.1844
4346.425, 443.2534
4348.354, 442.6335
4350.282, 441.1422
4352.210, 441.0464
4354.139, 440.0312
4356.067, 439.2911
4357.996, 439.6524
4359.924, 441.1280
4361.853, 440.8780
4363.781, 439.3963
4365.709, 436.5217
4367.638, 434.7398
4369.566, 433.9667
4371.495, 433.7005
4373.423, 433.0927
4375.352, 431.7336
4377.280, 432.5724
4379.209, 432.7618
4381.137, 428.3265
4383.066, 425.9956
4384.994, 426.2108
4386.923, 427.2310
4388.851, 426.4681
4390.780, 426.6048
4392.708, 426.3381
4394.637, 425.5291
4396.565, 425.0238
4398.494, 423.7394
4400.422, 422.1905
4402.351, 420.8715
4404.279, 419.6636
4406.208, 418.2550
4408.136, 418.5629
4410.064, 419.4899
4411.993, 418.6202
4413.921, 417.8782
4415.850, 417.6754
4417.778, 415.9560
4419.707, 415.0200
4421.635, 417.5328
4423.563, 418.0608
4425.492, 416.7888
4427.420, 414.3169
4429.349, 412.0087
4431.277, 410.2544
4433.206, 409.4633
4435.134, 410.3613
4437.063, 414.1048
4438.991, 415.2750
4440.920, 414.4111
4442.848, 413.7271
4444.777, 412.3735
4446.705, 412.1395
4448.634, 410.4456
4450.562, 411.5585
4452.491, 410.0518
4454.419, 409.9822
4456.348, 408.9417
4458.276, 408.3975
4460.205, 408.1865
4462.133, 407.6299
4464.062, 407.1258
4465.990, 407.5312
4467.918, 409.8598
4469.847, 410.8089
4471.775, 410.8466
4473.704, 411.5271
4475.632, 410.1165
4477.561, 410.3609
4479.489, 410.3389
4481.417, 409.7271
4483.346, 410.4064
4485.274, 410.4065
4487.203, 410.2820
4489.131, 410.4240
4491.060, 412.2216
4492.988, 411.5003
4494.917, 412.6225
4496.845, 410.5687
4498.774, 410.9371
4500.702, 409.0709
4502.631, 408.0098
4504.559, 411.4965
4506.488, 412.4585
4508.416, 411.3397
4510.345, 410.5975
4512.273, 410.5980
4514.202, 411.4298
4516.130, 414.1682
4518.059, 415.8672
4519.987, 413.7031
4521.916, 412.6385
4523.844, 412.5425
4525.772, 413.3313
4527.701, 413.8289
4529.629, 414.3580
4531.558, 418.9200
4533.486, 420.4683
4535.415, 416.6791
4537.343, 413.6055
4539.271, 412.4813
4541.200, 414.6332
4543.128, 415.5308
4545.057, 415.5527
4546.985, 416.1805
4548.914, 416.7176
4550.842, 417.1461
4552.771, 418.8898
4554.699, 419.7446
4556.628, 418.6716
4558.556, 417.7028
4560.485, 417.2173
4562.413, 417.6019
4564.342, 418.0851
4566.270, 418.1068
4568.199, 416.1680
4570.127, 415.3753
4572.056, 416.0900
4573.984, 415.9312
4575.913, 415.9428
4577.841, 416.5723
4579.770, 418.7241
4581.698, 419.3256
4583.626, 419.5355
4585.555, 420.4026
4587.483, 418.8219
4589.412, 419.7833
4591.340, 418.4251
4593.269, 415.6295
4595.197, 414.9307
4597.125, 415.3793
4599.054, 416.7459
4600.982, 415.8338
4602.911, 414.8531
4604.839, 415.3335
4606.768, 415.4828
4608.696, 414.8851
4610.625, 411.8517
4612.553, 414.0552
4614.482, 412.3571
4616.410, 413.9041
4618.339, 411.7578
4620.267, 414.7083
4622.196, 415.1339
4624.124, 414.9062
4626.053, 414.8422
4627.981, 414.5006
4629.910, 414.2401
4631.838, 414.0427
4633.767, 413.5165
4635.695, 412.2803
4637.624, 412.8802
4639.552, 410.0563
4641.480, 410.3612
4643.409, 410.9238
4645.337, 410.1339
4647.266, 408.3105
4649.194, 410.8464
4651.123, 411.2023
4653.051, 405.4770
4654.979, 405.1808
4656.908, 405.7692
4658.836, 403.5971
4660.765, 403.4227
4662.693, 403.5406
4664.622, 400.4990
4666.550, 402.3111
4668.479, 406.1320
4670.407, 404.0174
4672.336, 399.4283
4674.264, 394.5396
4676.193, 397.8449
4678.121, 400.6789
4680.050, 400.4788
4681.978, 397.3946
4683.907, 394.5751
4685.835, 393.7033
4687.764, 394.4773
4689.692, 394.8280
4691.621, 392.6374
4693.549, 392.7945
4695.478, 393.4307
4697.406, 391.9556
4699.334, 389.5848
4701.263, 387.6696
4703.191, 389.4473
4705.120, 389.3504
4707.048, 387.1876
4708.977, 384.5832
4710.905, 383.9722
4712.833, 382.5404
4714.762, 383.3734
4716.690, 381.8605
4718.619, 381.8173
4720.547, 383.0428
4722.476, 383.4372
4724.404, 381.8493
4726.333, 378.8015
4728.261, 376.2240
4730.190, 375.5442
4732.118, 375.8865
4734.047, 375.8224
4735.975, 373.3377
4737.904, 371.7173
4739.832, 371.0180
4741.761, 371.1770
4743.689, 370.1767
4745.618, 369.7093
4747.546, 370.1451
4749.475, 369.3853
4751.403, 370.3428
4753.332, 368.3945
4755.260, 366.8817
4757.188, 365.3814
4759.117, 367.0872
4761.045, 367.2303
4762.974, 364.3758
4764.902, 363.3274
4766.831, 362.3879
4768.759, 360.9139
4770.688, 360.5070
4772.616, 360.3018
4774.544, 359.8095
4776.473, 359.0278
4778.401, 358.0519
4780.330, 357.2601
4782.258, 355.7111
4784.187, 354.8126
4786.115, 353.9679
4788.044, 353.0376
4789.972, 352.6608
4791.901, 352.2516
4793.829, 353.8858
4795.758, 354.9935
4797.686, 351.5760
4799.615, 349.0645
4801.543, 348.3359
4803.472, 351.2729
4805.400, 351.3437
4807.329, 348.8047
4809.257, 349.7188
4811.186, 344.3704
4813.114, 347.6356
4815.042, 344.6754
4816.971, 342.8535
4818.899, 342.9253
4820.828, 343.5558
4822.756, 343.0029
4824.685, 341.3044
4826.613, 339.2097
4828.542, 338.7425
4830.470, 339.8852
4832.398, 340.1596
4834.327, 340.0706
4836.255, 340.2001
4838.184, 343.5667
4840.112, 344.9109
4842.041, 342.9934
4843.969, 341.2608
4845.898, 339.5884
4847.826, 338.1338
4849.755, 338.2045
4851.683, 338.8834
4853.612, 339.7389
4855.540, 338.5044
4857.469, 339.2136
4859.397, 338.6254
4861.326, 339.5670
4863.254, 337.4825
4865.183, 338.7350
4867.111, 337.9350
4869.040, 336.6203
4870.968, 335.6395
4872.896, 337.6215
4874.825, 339.3990
4876.753, 339.6351
4878.682, 340.5464
4880.610, 339.0216
4882.539, 340.6652
4884.467, 339.9612
4886.396, 339.5015
4888.324, 340.2096
4890.252, 339.7898
4892.181, 338.8834
4894.109, 337.7334
4896.038, 335.8024
4897.966, 335.0800
4899.895, 336.0981
4901.823, 336.2609
4903.752, 336.5850
4905.680, 337.4387
4907.609, 338.5416
4909.537, 338.0587
4911.466, 339.0074
4913.394, 338.0793
4915.323, 339.5789
4917.251, 339.2724
4919.180, 338.8981
4921.108, 337.1361
4923.037, 334.9628
4924.965, 339.7991
4926.894, 341.2211
4928.822, 337.9724
4930.750, 338.8560
4932.679, 339.2015
4934.607, 338.2853
4936.536, 337.1815
4938.464, 337.7725
4940.393, 339.7655
4942.321, 341.8559
4944.250, 341.5009
4946.178, 339.3757
4948.106, 338.0449
4950.035, 336.9292
4951.963, 336.4069
4953.892, 337.6995
4955.820, 338.8804
4957.749, 339.7798
4959.677, 340.6836
4961.606, 340.9305
4963.534, 340.2819
4965.463, 337.9128
4967.391, 337.0269
4969.320, 337.2503
4971.248, 338.0647
4973.177, 339.1897
4975.105, 338.9471
4977.034, 338.8434
4978.962, 336.3553
4980.891, 337.9008
4982.819, 337.0401
4984.748, 337.3671
4986.676, 337.3242
4988.604, 336.1105
4990.533, 335.5602
4992.461, 336.0725
4994.390, 337.6143
4996.318, 335.4906
4998.247, 333.1398
5000.175, 332.1552
5002.104, 335.7943
5004.032, 337.3956
5005.960, 336.0008
5007.889, 334.1260
5009.817, 333.8587
5011.746, 334.2335
5013.674, 331.4127
5015.603, 331.4117
5017.531, 332.8297
5019.460, 332.0245
5021.388, 331.3515
5023.317, 330.9945
5025.245, 330.8971
5027.174, 330.0431
5029.102, 329.4669
5031.031, 328.9633
5032.959, 328.1012
5034.888, 328.3004
5036.816, 328.3338
5038.745, 327.8696
5040.673, 328.6451
5042.602, 327.9975
5044.530, 329.4049
5046.458, 327.3251
5048.387, 325.4692
5050.315, 325.1860
5052.244, 325.5595
5054.172, 325.8872
5056.101, 325.1563
5058.029, 324.6569
5059.958, 321.6500
5061.886, 322.4559
5063.814, 321.1057
5065.743, 319.5932
5067.671, 319.8138
5069.600, 321.4750
5071.528, 321.8273
5073.457, 319.4144
5075.385, 318.8224
5077.314, 317.4997
5079.242, 315.0901
5081.171, 316.2648
5083.099, 316.6320
5085.028, 315.4993
5086.956, 315.5328
5088.885, 314.3875
5090.813, 313.4964
5092.742, 311.9267
5094.670, 310.0521
5096.599, 308.7010
5098.527, 308.4862
5100.456, 308.2362
5102.384, 307.4080
5104.313, 307.0807
5106.241, 306.6046
5108.169, 306.1266
5110.098, 305.7869
5112.026, 305.6957
5113.955, 305.4440
5115.883, 304.9395
5117.812, 304.6549
5119.740, 304.0961
5121.668, 303.3015
5123.597, 302.6498
5125.525, 300.9442
5127.454, 299.3249
5129.382, 298.6145
5131.311, 297.8914
5133.239, 297.2824
5135.168, 297.2666
5137.096, 296.5921
5139.025, 295.9525
5140.953, 295.3754
5142.882, 296.2382
5144.810, 295.7324
5146.739, 294.6549
5148.667, 294.7383
5150.596, 291.9090
5152.524, 289.6122
5154.453, 289.7339
5156.381, 288.3668
5158.310, 287.6230
5160.238, 287.7130
5162.167, 286.3776
5164.095, 286.2731
5166.023, 286.6258
5167.952, 285.1616
5169.880, 283.7578
5171.809, 283.4921
5173.737, 282.2381
5175.666, 281.3467
5177.594, 281.2557
5179.522, 279.8585
5181.451, 280.6118
5183.379, 280.9231
5185.308, 280.1087
5187.236, 280.8875
5189.165, 278.8363
5191.093, 280.8337
5193.022, 279.4626
5194.950, 278.0073
5196.879, 277.5222
5198.807, 278.2871
5200.736, 278.5780
5202.664, 277.9942
5204.593, 276.2805
5206.521, 276.0706
5208.450, 272.7567
5210.378, 274.6666
5212.307, 271.6484
5214.235, 271.4944
5216.164, 271.1854
5218.092, 269.7701
5220.021, 271.9410
5221.949, 271.7246
5223.877, 270.0093
5225.806, 272.0255
5227.734, 272.3871
5229.663, 271.3498
5231.591, 269.4153
5233.520, 269.9915
5235.448, 269.0620
5237.376, 266.4902
5239.305, 270.1090
5241.233, 271.6256
5243.162, 270.5322
5245.090, 267.8913
5247.019, 267.9283
5248.947, 268.8657
5250.876, 269.3368
5252.804, 269.0191
5254.733, 268.9688
5256.661, 269.0550
5258.590, 268.8487
5260.518, 268.9564
5262.447, 268.3206
5264.375, 268.7426
5266.304, 267.7598
5268.232, 266.9036
5270.161, 266.5952
5272.089, 266.4278
5274.018, 265.1768
5275.946, 266.8429
5277.875, 266.8500
5279.803, 267.2271
5281.731, 266.3690
5283.660, 266.5557
5285.588, 265.5674
5287.517, 266.3193
5289.445, 265.4419
5291.374, 265.4903
5293.302, 265.0619
5295.230, 265.1310
5297.159, 266.9134
5299.087, 263.4961
5301.016, 263.3254
5302.944, 266.3963
5304.873, 263.8410
5306.801, 263.5147
5308.730, 263.9163
5310.658, 262.4610
5312.587, 262.7403
5314.515, 264.5494
5316.444, 266.7944
5318.372, 265.5940
5320.301, 263.4658
5322.229, 262.1345
5324.158, 262.9282
5326.086, 262.6074
5328.015, 262.2510
5329.943, 262.2427
5331.872, 261.1934
5333.800, 263.3761
5335.729, 264.4706
5337.657, 258.4896
5339.585, 259.5895
5341.514, 260.8301
5343.442, 259.9166
5345.371, 260.6068
5347.299, 261.5203
5349.228, 262.0416
5351.156, 261.6548
5353.084, 261.1024
5355.013, 260.7317
5356.941, 260.3034
5358.870, 258.1245
5360.798, 257.9814
5362.727, 258.8507
5364.655, 259.2159
5366.584, 260.7126
5368.512, 260.9982
5370.441, 259.5273
5372.369, 260.2164
5374.298, 259.5357
5376.226, 259.4547
5378.155, 258.6233
5380.083, 257.9099
5382.012, 257.0416
5383.940, 256.5564
5385.869, 258.3823
5387.797, 258.4947
5389.726, 257.0654
5391.654, 254.6621
5393.583, 255.5367
5395.511, 254.4701
5397.439, 252.6962
5399.368, 253.6670
5401.296, 255.9956
5403.225, 257.1511
5405.153, 256.4521
5407.082, 255.6141
5409.010, 255.5444
5410.938, 254.7498
5412.867, 251.3442
5414.795, 252.4678
5416.724, 252.3958
5418.652, 251.2769
5420.581, 254.0669
5422.509, 252.4686
5424.438, 251.5978
5426.366, 254.3123
5428.295, 251.2175
5430.223, 249.1713
5432.152, 248.9260
5434.080, 249.5346
5436.009, 249.4732
5437.937, 250.6035
5439.866, 252.2922
5441.794, 250.3173
5443.723, 249.8377
5445.651, 249.0967
5447.580, 246.6447
5449.508, 246.7436
5451.437, 247.3393
5453.365, 246.9296
5455.293, 243.9730
5457.222, 240.9063
5459.150, 239.8019
5461.079, 240.6877
5463.007, 241.6479
5464.936, 241.2978
5466.864, 240.8924
5468.792, 241.2545
5470.721, 240.1968
5472.649, 240.5889
5474.578, 241.0006
5476.506, 240.4259
5478.435, 240.4603
5480.363, 239.9249
5482.292, 239.5188
5484.220, 239.0626
5486.149, 238.1614
5488.077, 237.4508
5490.006, 236.6574
5491.934, 235.9344
5493.863, 235.0113
5495.791, 234.5605
5497.720, 233.9186
5499.648, 233.2557
5501.577, 231.1730
5503.505, 231.5762
5505.434, 229.7088
5507.362, 229.3882
5509.291, 229.5492
5511.219, 229.3117
5513.147, 227.2544
5515.076, 228.6286
5517.004, 228.6711
5518.933, 225.3303
5520.861, 226.7311
5522.790, 225.3947
5524.718, 223.5017
5526.646, 223.8666
5528.575, 221.8675
5530.503, 222.8710
5532.432, 224.5157
5534.360, 222.2528
5536.289, 220.4281
5538.217, 220.0883
5540.146, 220.7968
5542.074, 221.7199
5544.003, 218.8023
5545.931, 217.7435
5547.860, 219.1692
5549.788, 216.2399
5551.717, 215.0107
5553.645, 214.8930
5555.574, 214.4887
5557.502, 214.0090
5559.431, 213.7794
5561.359, 213.5693
5563.288, 213.1529
5565.216, 212.8030
5567.145, 212.4269
5569.073, 211.8815
5571.001, 211.3863
5572.930, 210.8205
5574.858, 209.8367
5576.787, 207.4551
5578.715, 206.9744
5580.644, 206.6540
5582.572, 207.2193
5584.500, 206.4145
5586.429, 207.7380
5588.357, 205.6780
5590.286, 204.7367
5592.214, 204.8296
5594.143, 202.7369
5596.071, 202.3179
5598.000, 202.0332
5599.928, 201.4954
5601.857, 202.0059
5603.785, 200.5112
5605.714, 200.2951
5607.642, 197.3451
5609.571, 198.8524
5611.499, 197.6396
5613.428, 196.7862
5615.356, 197.7485
5617.285, 197.8480
5619.213, 195.9894
5621.142, 194.0466
5623.070, 193.3699
5624.999, 195.2978
5626.927, 194.8349
5628.855, 194.9669
5630.784, 196.8575
5632.712, 192.4196
5634.641, 192.8588
5636.569, 193.9314
5638.498, 192.2294
5640.426, 192.5167
5642.354, 192.7178
5644.283, 192.7878
5646.211, 192.8963
5648.140, 193.0101
5650.068, 190.9072
5651.997, 189.5600
5653.925, 190.5701
5655.854, 187.6128
5657.782, 190.0400
5659.711, 191.2908
5661.639, 187.1920
5663.568, 186.1142
5665.496, 187.5426
5667.425, 188.7593
5669.353, 188.3628
5671.282, 188.2059
5673.210, 187.6292
5675.139, 187.0073
5677.067, 186.7872
5678.996, 188.1824
5680.924, 187.1419
5682.853, 187.1058
5684.781, 188.7166
5686.709, 185.0184
5688.638, 184.4057
5690.566, 185.2699
5692.495, 185.8972
5694.423, 185.5467
5696.352, 184.4497
5698.280, 184.6754
5700.208, 186.1958
5702.137, 186.8894
5704.065, 185.7436
5705.994, 183.3587
5707.922, 181.4717
5709.851, 183.5346
5711.779, 184.7100
5713.708, 183.2133
5715.636, 184.5602
5717.565, 182.4317
5719.493, 184.0507
5721.422, 182.3916
5723.350, 180.5387
5725.279, 182.8955
5727.207, 182.1749
5729.136, 182.6290
5731.064, 183.3107
5732.993, 182.4936
5734.921, 180.1776
5736.850, 181.7617
5738.778, 183.2175
5740.707, 181.5378
5742.635, 179.1358
5744.563, 179.8807
5746.492, 181.3315
5748.420, 181.6434
5750.349, 179.4242
5752.277, 180.2944
5754.206, 179.5752
5756.134, 177.6890
5758.063, 179.6850
5759.991, 182.2040
5761.919, 179.8559
5763.848, 176.4313
5765.776, 178.2104
5767.705, 177.8447
5769.633, 178.0543
5771.562, 177.9142
5773.490, 176.7073
5775.419, 180.4059
5777.347, 177.7825
5779.276, 175.2334
5781.204, 176.8663
5783.133, 179.7798
5785.061, 178.8516
5786.990, 177.8479
5788.918, 178.0440
5790.847, 178.4355
5792.775, 178.1279
5794.704, 178.0861
5796.632, 177.6383
5798.561, 177.3385
5800.489, 176.4701
5802.417, 175.6891
5804.346, 175.1584
5806.274, 174.6711
5808.203, 174.9405
5810.131, 175.6600
5812.060, 174.9664
5813.988, 174.0629
5815.917, 177.1122
5817.845, 174.1025
5819.773, 171.7200
5821.702, 172.2964
5823.630, 175.3449
5825.559, 174.2376
5827.487, 173.0367
5829.416, 171.3802
5831.344, 169.2887
5833.273, 169.9129
5835.201, 172.3503
5837.130, 172.1435
5839.058, 170.4475
5840.987, 172.0895
5842.915, 169.0197
5844.844, 168.6008
5846.772, 170.0225
5848.701, 170.4632
5850.629, 167.5571
5852.558, 169.2251
5854.486, 169.6738
5856.415, 167.7506
5858.343, 168.2213
5860.271, 166.4485
5862.200, 164.7973
5864.128, 164.3945
5866.057, 163.3162
5867.985, 162.7917
5869.914, 162.4164
5871.842, 162.5349
5873.771, 162.3654
5875.699, 163.0293
5877.627, 163.4141
5879.556, 162.8600
5881.484, 162.5852
5883.413, 163.8374
5885.341, 163.9413
5887.270, 160.4673
5889.198, 158.7423
5891.127, 159.9140
5893.055, 159.8578
5894.984, 161.0208
5896.912, 161.3907
5898.841, 162.3158
5900.769, 160.6011
5902.698, 160.2207
5904.626, 156.9172
5906.555, 154.9829
5908.483, 153.9863
5910.412, 153.6876
5912.340, 153.9250
5914.269, 154.3700
5916.197, 154.6263
5918.125, 154.3215
5920.054, 152.9515
5921.982, 150.9236
5923.911, 150.1718
5925.839, 150.5162
5927.768, 150.7059
5929.696, 149.9507
5931.625, 149.2787
5933.553, 149.1219
5935.481, 149.1846
5937.410, 148.1409
5939.338, 148.4875
5941.267, 149.4707
5943.195, 148.6374
5945.124, 148.1095
5947.052, 148.0341
5948.981, 146.0830
5950.909, 144.6527
5952.838, 144.3284
5954.766, 142.7427
5956.695, 144.1202
5958.623, 145.7174
5960.552, 144.5786
5962.480, 145.7295
5964.409, 146.5631
5966.337, 145.7755
5968.266, 147.6447
5970.194, 147.2459
5972.123, 145.6208
5974.051, 142.8315
5975.979, 144.0194
5977.908, 145.2787
5979.836, 147.1171
5981.765, 146.2951
5983.693, 145.2127
5985.622, 144.5815
5987.550, 140.7922
5989.479, 139.6464
5991.407, 137.6707
5993.335, 138.2590
5995.264, 137.0433
5997.192, 134.9244
5999.121, 133.0214
6001.049, 131.8368
6002.978, 133.0565
6004.906, 134.0341
6006.835, 133.7283
6008.763, 132.6395
6010.692, 132.3772
6012.620, 131.9868
6014.549, 130.3582
6016.477, 129.8188
6018.406, 130.7457
6020.334, 129.4252
6022.263, 130.2248
6024.191, 131.7369
6026.120, 132.6125
6028.048, 132.2441
6029.977, 130.4457
6031.905, 130.0970
6033.833, 128.1930
6035.762, 127.0640
6037.690, 128.5511
6039.619, 127.0525
6041.547, 129.5388
6043.476, 127.3614
6045.404, 127.3718
6047.333, 129.5813
6049.261, 127.3764
6051.189, 128.5644
6053.118, 127.1622
6055.046, 125.5058
6056.975, 126.0962
6058.903, 124.7809
6060.832, 124.4302
6062.760, 125.3803
6064.689, 126.0753
6066.617, 125.9180
6068.546, 127.7018
6070.474, 125.7840
6072.403, 127.2419
6074.331, 127.7166
6076.260, 124.6362
6078.188, 124.7299
6080.117, 124.8103
6082.045, 125.1205
6083.974, 124.9438
6085.902, 124.3971
6087.831, 125.1534
6089.759, 124.5620
6091.688, 124.9062
6093.616, 124.9697
6095.544, 124.2065
6097.473, 123.5971
6099.401, 124.5696
6101.330, 123.7564
6103.258, 123.6604
6105.187, 123.9333
6107.115, 121.7799
6109.043, 121.4108
6110.972, 121.7456
6112.900, 121.7791
6114.829, 121.5731
6116.757, 121.6533
6118.686, 122.0151
6120.614, 123.1358
6122.543, 123.8822
6124.471, 122.8408
6126.400, 120.1264
6128.328, 119.6831
6130.257, 119.2352
6132.185, 119.0992
6134.114, 119.8290
6136.042, 121.2455
6137.971, 122.3193
6139.899, 121.6563
6141.828, 120.3370
6143.756, 119.5998
6145.685, 119.5975
6147.613, 119.9523
6149.542, 119.8009
6151.470, 120.0834
6153.398, 119.7941
6155.327, 121.0973
6157.255, 120.2855
6159.184, 120.4706
6161.112, 118.1599
6163.041, 115.9370
6164.969, 116.3984
6166.897, 118.5219
6168.826, 117.8317
6170.754, 119.0133
6172.683, 119.1540
6174.611, 119.0564
6176.540, 118.7125
6178.468, 117.4385
6180.397, 117.5021
6182.325, 116.3735
6184.254, 116.8821
6186.182, 116.9031
6188.111, 116.6258
6190.039, 115.5498
6191.968, 115.2436
6193.896, 116.8984
6195.825, 117.8409
6197.753, 117.4874
6199.682, 116.6407
6201.610, 117.1651
6203.539, 116.0263
6205.467, 117.0947
6207.396, 116.6443
6209.324, 116.3284
6211.252, 114.0401
6213.181, 115.4216
6215.109, 115.0481
6217.038, 115.8450
6218.966, 115.3938
6220.895, 115.7990
6222.823, 115.6325
6224.751, 115.8843
6226.680, 115.2287
6228.608, 114.1586
6230.537, 114.0045
6232.465, 113.9527
6234.394, 112.6226
6236.322, 113.4575
6238.251, 114.5483
6240.179, 114.9071
6242.108, 114.7945
6244.036, 115.0599
6245.965, 114.8570
6247.893, 114.5604
6249.822, 114.6893
6251.750, 114.5319
6253.679, 115.0865
6255.607, 114.9698
6257.536, 116.3803
6259.464, 115.6355
6261.393, 116.3239
6263.321, 117.8935
6265.250, 116.6949
6267.178, 116.0362
6269.106, 115.4353
6271.035, 117.2794
6272.963, 118.9943
6274.892, 119.1048
6276.820, 118.4756
6278.749, 119.3378
6280.677, 118.8956
6282.605, 119.4545
6284.534, 120.2719
6286.462, 120.5486
6288.391, 120.5140
6290.319, 121.1899
6292.248, 120.0701
6294.176, 121.3309
6296.105, 121.1623
6298.033, 119.4184
6299.962, 120.1070
6301.890, 120.0686
6303.819, 117.9645
6305.747, 118.7727
6307.676, 119.9047
6309.604, 119.3436
6311.533, 117.8613
6313.461, 116.8441
6315.390, 117.6659
6317.318, 116.9338
6319.247, 117.0230
6321.175, 116.7942
6323.104, 113.5022
6325.032, 115.0510
6326.960, 114.5144
6328.889, 113.6400
6330.817, 114.6107
6332.746, 114.8254
6334.674, 112.1752
6336.603, 112.9137
6338.531, 112.6434
6340.459, 112.1059
6342.388, 112.9277
6344.316, 112.6760
6346.245, 112.2527
6348.173, 111.9104
6350.102, 111.3524
6352.030, 110.6399
6353.959, 110.4943
6355.887, 110.5107
6357.816, 109.7017
6359.744, 109.8804
6361.673, 110.0161
6363.601, 110.5842
6365.530, 110.8941
6367.458, 109.9922
6369.387, 109.0994
6371.315, 110.0620
6373.244, 110.0411
6375.172, 109.3512
6377.101, 108.6789
6379.029, 107.7347
6380.958, 108.5172
6382.886, 110.0955
6384.814, 109.1248
6386.743, 108.7882
6388.671, 108.6121
6390.600, 107.5630
6392.528, 107.5285
6394.457, 108.3645
6396.385, 109.5928
6398.313, 110.7166
6400.242, 110.4818
6402.170, 110.7302
6404.099, 110.4698
6406.027, 109.8500
6407.956, 109.2039
6409.884, 108.5711
6411.813, 108.0118
6413.741, 107.1239
6415.670, 106.9413
6417.598, 106.7002
6419.527, 106.2630
6421.455, 107.3677
6423.384, 105.5398
6425.312, 105.6259
6427.241, 104.0862
6429.169, 104.0975
6431.098, 103.5032
6433.026, 102.1192
6434.955, 102.8669
6436.883, 99.89082
6438.812, 100.8300
6440.740, 99.40458
6442.668, 98.34882
6444.597, 98.67631
6446.525, 98.82050
6448.454, 97.59226
6450.382, 97.55473
6452.311, 104.5713
6454.239, 106.6336
6456.167, 101.0967
6458.096, 96.55240
6460.024, 96.98680
6461.953, 94.23366
6463.881, 94.65116
6465.810, 94.76444
6467.738, 95.64198
6469.667, 94.93615
6471.595, 93.25243
6473.524, 92.32375
6475.452, 91.98453
6477.381, 92.93844
6479.309, 91.38123
6481.238, 93.03993
6483.166, 93.25333
6485.095, 91.95264
6487.023, 91.38534
6488.952, 91.05833
6490.880, 90.82421
6492.809, 90.19245
6494.737, 90.56583
6496.666, 88.46693
6498.594, 88.03620
6500.522, 89.65327
6502.451, 87.37159
6504.379, 87.27045
6506.308, 87.51855
6508.236, 86.86855
6510.165, 86.92577
6512.093, 86.48656
6514.021, 85.77562
6515.950, 86.28790
6517.878, 86.81370
6519.807, 85.80852
6521.735, 85.17024
6523.664, 83.37537
6525.592, 84.81833
6527.521, 85.92845
6529.449, 84.22318
6531.378, 86.83842
6533.306, 84.37080
6535.235, 85.22811
6537.163, 84.82748
6539.092, 84.12781
6541.020, 83.39720
6542.949, 82.63120
6544.877, 82.30785
6546.806, 82.45953
6548.734, 83.11563
6550.663, 83.52896
6552.591, 83.80999
6554.520, 83.93919
6556.448, 83.30423
6558.376, 82.24001
6560.305, 82.07348
6562.233, 80.86803
6564.162, 82.16997
6566.090, 82.84837
6568.019, 83.07948
6569.947, 82.07108
6571.875, 81.43816
6573.804, 81.67979
6575.732, 80.18550
6577.661, 82.01255
6579.589, 82.79678
6581.518, 81.42315
6583.446, 82.79550
6585.375, 82.11853
6587.303, 79.74667
6589.232, 79.77789
6591.160, 80.98746
6593.089, 81.65261
6595.017, 80.37859
6596.946, 79.73949
6598.874, 80.04306
6600.803, 80.78062
6602.731, 80.63783
6604.660, 79.64270
6606.588, 79.59904
6608.517, 78.60939
6610.445, 78.71022
6612.374, 79.20408
6614.302, 78.50642
6616.230, 79.67059
6618.159, 79.25125
6620.087, 76.53774
6622.016, 78.09534
6623.944, 78.84101
6625.873, 78.02196
6627.801, 80.46590
6629.729, 79.84379
##END=



