##NAMES=Barytolamprophyllite
##RRUFFID=R120087
##IDEAL CHEMISTRY=(BaK)Ti_2_Na_3_Ti(Si_2_O_7_)_2_O_2_(OH)_2_
##LOCALITY=Coyote Peak, Orick, Humboldt County, California, USA
##OWNER=RRUFF
##SOURCE=Michael Scott
##DESCRIPTION=Tabular reddish brown massive, associated with phlogopite, bartonite and R070139 erdite
##STATUS=The identification of this mineral has been confirmed only by single crystal X-ray diffraction
##URL=https://www.rruff.net/odr/rruff_sample/R120087
##DIFFRACTION SAMPLE DESCRIPTION=Single crystal, powder profile is calculated
##CELL PARAMETERS=a: 19.87 b: 7.086 c: 5.392 alpha: 90 beta: 96.56 gamma: 90 volume: 754.2 crystal system: monoclinic
##FILETYPE=Raman Processed
##RAMAN WAVELENGTH=780

85.10400, 4843.646
87.03247, 5537.444
88.96094, 6203.204
90.88940, 6882.917
92.81787, 7466.413
94.74634, 7712.181
96.67480, 7295.372
98.60327, 6849.557
100.5317, 6425.146
102.4602, 6085.723
104.3887, 5807.483
106.3171, 5578.357
108.2456, 5378.729
110.1741, 5212.954
112.1025, 5087.912
114.0310, 4998.513
115.9595, 4932.920
117.8879, 4880.005
119.8164, 4856.613
121.7449, 4883.375
123.6733, 4925.515
125.6018, 4956.728
127.5303, 4975.274
129.4587, 4987.211
131.3872, 4992.103
133.3157, 4988.843
135.2441, 4964.443
137.1726, 4941.854
139.1011, 4933.882
141.0295, 4943.267
142.9580, 4976.596
144.8865, 5030.909
146.8149, 5118.912
148.7434, 5240.925
150.6719, 5401.656
152.6003, 5610.573
154.5288, 5864.831
156.4573, 6153.370
158.3857, 6486.927
160.3142, 6790.728
162.2427, 7105.860
164.1711, 7319.435
166.0996, 7379.071
168.0281, 7288.726
169.9565, 7050.194
171.8850, 6658.480
173.8135, 6260.822
175.7419, 5848.626
177.6704, 5483.301
179.5989, 5180.212
181.5273, 4939.643
183.4558, 4766.894
185.3843, 4656.729
187.3127, 4586.568
189.2412, 4564.565
191.1697, 4569.569
193.0981, 4596.241
195.0266, 4647.595
196.9551, 4728.784
198.8835, 4837.205
200.8120, 4972.828
202.7405, 5141.477
204.6689, 5326.157
206.5974, 5544.944
208.5259, 5755.581
210.4543, 5944.205
212.3828, 6102.556
214.3113, 6220.626
216.2397, 6301.002
218.1682, 6319.946
220.0967, 6262.804
222.0251, 6166.712
223.9536, 6024.584
225.8821, 5859.955
227.8105, 5691.257
229.7390, 5519.735
231.6675, 5365.185
233.5959, 5222.167
235.5244, 5106.970
237.4529, 5029.326
239.3813, 4972.133
241.3098, 4927.713
243.2383, 4895.165
245.1667, 4875.226
247.0952, 4873.235
249.0237, 4869.493
250.9521, 4866.237
252.8806, 4858.415
254.8091, 4837.650
256.7375, 4817.418
258.6660, 4807.480
260.5945, 4807.937
262.5229, 4819.438
264.4514, 4836.155
266.3799, 4877.628
268.3083, 4944.212
270.2368, 5039.479
272.1653, 5169.625
274.0938, 5325.783
276.0222, 5498.578
277.9507, 5689.825
279.8792, 5889.753
281.8076, 6101.930
283.7361, 6312.771
285.6646, 6512.460
287.5930, 6717.831
289.5215, 6938.798
291.4500, 7171.704
293.3784, 7406.253
295.3069, 7640.637
297.2354, 7890.741
299.1638, 8157.181
301.0923, 8440.840
303.0208, 8757.841
304.9492, 9078.395
306.8777, 9392.624
308.8062, 9693.604
310.7346, 9967.389
312.6631, 10219.26
314.5916, 10386.43
316.5200, 10458.89
318.4485, 10440.43
320.3770, 10325.79
322.3054, 10137.12
324.2339, 9869.987
326.1624, 9541.645
328.0908, 9204.996
330.0193, 8859.365
331.9477, 8543.868
333.8762, 8256.741
335.8047, 8021.545
337.7331, 7858.833
339.6616, 7732.806
341.5901, 7618.261
343.5185, 7517.912
345.4470, 7438.084
347.3755, 7379.070
349.3039, 7323.864
351.2324, 7269.492
353.1609, 7218.933
355.0893, 7178.132
357.0178, 7136.211
358.9463, 7083.462
360.8747, 7024.491
362.8032, 6965.799
364.7317, 6907.539
366.6601, 6861.351
368.5886, 6833.126
370.5171, 6810.344
372.4455, 6776.638
374.3740, 6763.116
376.3025, 6789.815
378.2309, 6848.337
380.1594, 6926.313
382.0879, 7023.354
384.0163, 7135.852
385.9448, 7283.417
387.8733, 7406.459
389.8017, 7523.722
391.7302, 7588.018
393.6587, 7579.602
395.5871, 7505.877
397.5156, 7363.104
399.4441, 7165.304
401.3725, 6968.220
403.3010, 6765.865
405.2295, 6584.421
407.1579, 6424.775
409.0864, 6282.624
411.0149, 6164.055
412.9433, 6055.783
414.8718, 5952.005
416.8003, 5850.960
418.7287, 5752.831
420.6572, 5658.694
422.5857, 5549.919
424.5141, 5434.136
426.4426, 5285.693
428.3711, 5095.848
430.2995, 4883.417
432.2280, 4642.708
434.1565, 4396.459
436.0849, 4152.793
438.0134, 3919.575
439.9419, 3719.191
441.8703, 3553.670
443.7988, 3421.046
445.7273, 3323.348
447.6557, 3250.901
449.5842, 3205.042
451.5127, 3178.771
453.4411, 3179.987
455.3696, 3187.664
457.2981, 3180.779
459.2265, 3161.810
461.1550, 3141.227
463.0835, 3119.124
465.0119, 3093.754
466.9404, 3066.641
468.8689, 3030.540
470.7973, 2981.789
472.7258, 2925.218
474.6543, 2858.589
476.5827, 2789.166
478.5112, 2723.364
480.4397, 2661.246
482.3681, 2601.222
484.2966, 2543.400
486.2251, 2499.198
488.1535, 2472.582
490.0820, 2449.309
492.0105, 2424.474
493.9389, 2403.563
495.8674, 2394.086
497.7959, 2384.127
499.7243, 2361.925
501.6528, 2331.090
503.5813, 2297.983
505.5097, 2263.627
507.4382, 2234.287
509.3667, 2209.779
511.2951, 2194.156
513.2236, 2187.673
515.1521, 2191.557
517.0806, 2204.349
519.0090, 2229.568
520.9375, 2267.020
522.8660, 2320.314
524.7944, 2398.906
526.7229, 2496.552
528.6514, 2595.674
530.5798, 2696.341
532.5083, 2792.558
534.4368, 2890.555
536.3652, 2971.930
538.2937, 3030.880
540.2222, 3078.568
542.1506, 3110.732
544.0791, 3141.461
546.0076, 3183.503
547.9360, 3231.629
549.8645, 3274.738
551.7930, 3314.522
553.7214, 3372.149
555.6499, 3450.427
557.5784, 3540.386
559.5068, 3625.809
561.4353, 3748.216
563.3638, 3918.156
565.2922, 4120.024
567.2207, 4350.812
569.1492, 4607.704
571.0776, 4899.505
573.0061, 5207.167
574.9345, 5518.687
576.8630, 5825.651
578.7914, 6032.080
580.7199, 6136.874
582.6484, 6125.833
584.5768, 5989.810
586.5053, 5762.069
588.4338, 5416.268
590.3622, 5041.350
592.2907, 4650.689
594.2192, 4276.844
596.1476, 3941.754
598.0761, 3634.900
600.0046, 3343.763
601.9330, 3069.698
603.8615, 2820.032
605.7900, 2596.128
607.7184, 2387.915
609.6469, 2195.091
611.5754, 2021.701
613.5038, 1867.011
615.4323, 1735.799
617.3608, 1634.609
619.2892, 1550.478
621.2177, 1475.623
623.1462, 1416.520
625.0746, 1382.630
627.0031, 1365.765
628.9316, 1353.970
630.8600, 1347.447
632.7885, 1346.124
634.7170, 1350.043
636.6454, 1360.613
638.5739, 1377.486
640.5024, 1404.863
642.4308, 1444.244
644.3593, 1492.725
646.2878, 1546.600
648.2162, 1613.399
650.1447, 1698.753
652.0732, 1795.395
654.0016, 1899.662
655.9301, 2010.516
657.8586, 2127.447
659.7870, 2249.589
661.7155, 2373.560
663.6440, 2500.320
665.5724, 2634.794
667.5009, 2777.642
669.4294, 2926.360
671.3578, 3079.634
673.2863, 3241.359
675.2148, 3414.217
677.1432, 3591.433
679.0717, 3779.268
681.0002, 3960.606
682.9286, 4144.146
684.8571, 4299.944
686.7856, 4416.417
688.7141, 4478.207
690.6425, 4473.514
692.5710, 4402.097
694.4995, 4257.727
696.4279, 4042.977
698.3564, 3785.398
700.2849, 3473.994
702.2133, 3170.392
704.1418, 2862.850
706.0703, 2586.421
707.9987, 2339.887
709.9272, 2126.792
711.8557, 1951.719
713.7841, 1804.224
715.7126, 1684.531
717.6411, 1585.156
719.5695, 1500.885
721.4980, 1435.985
723.4265, 1400.246
725.3549, 1382.208
727.2834, 1365.430
729.2119, 1351.289
731.1403, 1344.453
733.0688, 1344.802
734.9973, 1349.376
736.9257, 1358.446
738.8542, 1370.439
740.7827, 1384.704
742.7111, 1405.410
744.6396, 1433.651
746.5681, 1466.032
748.4965, 1502.612
750.4250, 1540.963
752.3535, 1578.046
754.2819, 1620.178
756.2104, 1669.365
758.1389, 1725.668
760.0673, 1791.793
761.9958, 1862.681
763.9243, 1933.258
765.8527, 2005.146
767.7812, 2079.766
769.7097, 2157.926
771.6381, 2243.522
773.5666, 2334.966
775.4951, 2423.409
777.4235, 2508.729
779.3520, 2591.088
781.2805, 2670.148
783.2089, 2758.801
785.1374, 2860.919
787.0659, 2960.790
788.9943, 3053.579
790.9228, 3149.689
792.8513, 3252.757
794.7797, 3357.885
796.7082, 3466.418
798.6367, 3573.337
800.5651, 3672.512
802.4936, 3774.815
804.4221, 3890.391
806.3505, 4008.264
808.2790, 4111.845
810.2075, 4218.582
812.1359, 4350.077
814.0644, 4498.969
815.9929, 4651.394
817.9213, 4812.243
819.8498, 4993.131
821.7783, 5192.210
823.7067, 5398.714
825.6352, 5612.761
827.5637, 5850.453
829.4921, 6113.886
831.4206, 6383.748
833.3491, 6655.016
835.2775, 6947.518
837.2060, 7266.364
839.1345, 7599.975
841.0629, 7945.912
842.9914, 8313.333
844.9199, 8705.546
846.8483, 9117.056
848.7768, 9553.276
850.7053, 9997.548
852.6337, 10455.48
854.5622, 10898.54
856.4907, 11323.39
858.4191, 11709.70
860.3476, 12016.11
862.2761, 12313.00
864.2045, 12641.29
866.1330, 12994.31
868.0615, 13335.57
869.9899, 13726.52
871.9184, 14235.61
873.8469, 14853.76
875.7753, 15582.21
877.7038, 16401.79
879.6323, 17292.04
881.5607, 18226.85
883.4892, 19142.38
885.4177, 20019.70
887.3461, 20762.42
889.2746, 21363.31
891.2031, 21752.74
893.1315, 21932.03
895.0600, 21880.58
896.9885, 21596.76
898.9169, 21164.35
900.8454, 20587.12
902.7739, 19878.92
904.7023, 19033.57
906.6308, 18128.38
908.5593, 17167.47
910.4877, 16190.36
912.4162, 15191.08
914.3447, 14231.58
916.2731, 13309.03
918.2016, 12477.13
920.1301, 11750.13
922.0585, 11110.94
923.9870, 10561.50
925.9155, 10089.86
927.8439, 9704.722
929.7724, 9376.643
931.7009, 9108.925
933.6293, 8877.428
935.5578, 8681.589
937.4863, 8508.368
939.4147, 8376.328
941.3432, 8232.779
943.2717, 8064.164
945.2001, 7855.522
947.1286, 7610.307
949.0571, 7305.321
950.9855, 6906.549
952.9140, 6461.623
954.8425, 5983.581
956.7709, 5503.500
958.6994, 5031.833
960.6279, 4589.434
962.5563, 4192.995
964.4848, 3841.640
966.4133, 3535.195
968.3417, 3273.329
970.2702, 3064.620
972.1987, 2892.001
974.1271, 2734.362
976.0556, 2598.586
977.9841, 2498.044
979.9125, 2423.884
981.8410, 2367.825
983.7695, 2323.464
985.6979, 2276.724
987.6264, 2234.245
989.5549, 2211.625
991.4833, 2202.836
993.4118, 2194.769
995.3403, 2188.951
997.2687, 2189.148
999.1972, 2195.007
1001.126, 2204.419
1003.054, 2219.094
1004.983, 2245.510
1006.911, 2281.198
1008.840, 2319.103
1010.768, 2358.715
1012.696, 2397.009
1014.625, 2435.450
1016.553, 2477.858
1018.482, 2525.362
1020.410, 2582.440
1022.339, 2648.737
1024.267, 2723.316
1026.196, 2806.082
1028.124, 2899.460
1030.053, 3000.395
1031.981, 3093.983
1033.910, 3185.438
1035.838, 3294.632
1037.767, 3418.679
1039.695, 3546.542
1041.624, 3679.124
1043.552, 3823.760
1045.480, 3974.700
1047.409, 4113.887
1049.337, 4243.416
1051.266, 4382.566
1053.194, 4514.292
1055.123, 4594.910
1057.051, 4624.606
1058.980, 4605.150
1060.908, 4535.866
1062.837, 4415.618
1064.765, 4243.315
1066.694, 4007.172
1068.622, 3721.101
1070.550, 3404.071
1072.479, 3070.973
1074.407, 2744.394
1076.336, 2431.480
1078.264, 2141.760
1080.193, 1878.842
1082.121, 1645.945
1084.050, 1446.480
1085.978, 1291.235
1087.907, 1169.597
1089.835, 1068.514
1091.764, 986.4124
1093.692, 924.7374
1095.620, 877.4324
1097.549, 839.0400
1099.477, 807.8125
1101.406, 784.3583
1103.334, 763.9999
1105.263, 740.0947
1107.191, 718.4509
1109.120, 705.6233
1111.048, 696.7181
1112.977, 687.7713
1114.905, 680.5718
1116.834, 675.4042
1118.762, 674.0189
1120.691, 683.9240
1122.619, 688.9287
1124.547, 672.9114
1126.476, 658.9244
1128.404, 663.3236
1130.333, 666.0950
1132.261, 655.3896
1134.190, 645.3607
1136.118, 642.4274
1138.047, 640.1801
1139.975, 635.5682
1141.904, 633.5240
1143.832, 638.1545
1145.761, 637.8806
1147.689, 627.0853
1149.618, 619.4578
1151.546, 618.3972
1153.474, 620.0833
1155.403, 625.0342
1157.331, 625.3740
1159.260, 619.1014
1161.188, 614.9206
1163.117, 614.1475
1165.045, 611.6527
1166.974, 606.8859
1168.902, 605.9268
1170.831, 608.7908
1172.759, 607.5402
1174.688, 602.1772
1176.616, 595.5958
1178.545, 589.0381
1180.473, 589.3840
1182.401, 593.9862
1184.330, 591.7640
1186.258, 586.4194
1188.187, 589.5049
1190.115, 595.4676
1192.044, 591.9398
1193.972, 585.5873
1195.901, 587.2175
1197.829, 590.0599
1199.758, 585.9818
1201.686, 579.7631
1203.615, 573.6648
1205.543, 570.1531
1207.472, 571.0940
1209.400, 575.2517
1211.328, 588.1583
1213.257, 593.5107
1215.185, 578.8857
1217.114, 565.7162
1219.042, 560.5837
1220.971, 559.0536
1222.899, 562.2723
1224.828, 562.6967
1226.756, 558.2015
1228.685, 553.6341
1230.613, 548.5247
1232.542, 548.5048
1234.470, 555.2210
1236.399, 555.0158
1238.327, 547.9725
1240.255, 546.7325
1242.184, 550.4515
1244.112, 554.9242
1246.041, 558.8075
1247.969, 556.1674
1249.898, 550.7379
1251.826, 551.4479
1253.755, 552.8845
1255.683, 544.5977
1257.612, 536.5729
1259.540, 541.8920
1261.469, 546.8030
1263.397, 538.8944
1265.326, 532.2977
1267.254, 534.6516
1269.182, 537.4510
1271.111, 539.1441
1273.039, 538.6580
1274.968, 534.7398
1276.896, 533.7780
1278.825, 537.4124
1280.753, 535.9427
1282.682, 528.5430
1284.610, 528.0246
1286.539, 533.7227
1288.467, 533.4972
1290.396, 529.2969
1292.324, 531.1055
1294.253, 535.1559
1296.181, 531.9901
1298.109, 526.7843
1300.038, 526.4044
1301.966, 528.0742
1303.895, 530.0550
1305.823, 531.6013
1307.752, 531.6967
1309.680, 532.0385
1311.609, 534.1696
1313.537, 535.1815
1315.466, 532.9171
1317.394, 532.3341
1319.323, 533.9160
1321.251, 537.9488
1323.180, 546.0942
1325.108, 545.3964
1327.036, 536.3902
1328.965, 533.0161
1330.893, 534.0164
1332.822, 535.1719
1334.750, 536.4642
1336.679, 538.1530
1338.607, 539.5994
1340.536, 541.3356
1342.464, 540.5641
1344.393, 533.0464
1346.321, 527.6859
1348.250, 529.4042
1350.178, 530.7230
1352.107, 529.0361
1354.035, 530.0443
1355.964, 535.6273
1357.892, 534.4514
1359.820, 525.5633
1361.749, 522.9311
1363.677, 525.0475
1365.606, 522.4229
1367.534, 518.0994
1369.463, 518.9083
1371.391, 522.5765
1373.320, 529.0327
1375.248, 533.0140
1377.177, 527.5355
1379.105, 523.3172
1381.034, 526.1866
1382.962, 526.9413
1384.891, 523.3606
1386.819, 518.7611
1388.747, 513.5326
1390.676, 509.4420
1392.604, 506.6066
1394.533, 503.9174
1396.461, 502.5451
1398.390, 507.3381
1400.318, 514.0925
1402.247, 516.4684
1404.175, 517.4139
1406.104, 520.6222
1408.032, 521.5944
1409.961, 516.7217
1411.889, 511.3497
1413.818, 505.5158
1415.746, 502.5735
1417.674, 503.1982
1419.603, 504.1989
1421.531, 505.4101
1423.460, 505.9006
1425.388, 505.6660
1427.317, 503.5749
1429.245, 502.0482
1431.174, 506.7977
1433.102, 509.4347
1435.031, 500.4874
1436.959, 494.5362
1438.888, 499.9234
1440.816, 503.3949
1442.745, 502.0906
1444.673, 498.4405
1446.601, 492.2528
1448.530, 490.6927
1450.458, 492.3682
1452.387, 489.1480
1454.315, 485.6198
1456.244, 492.8326
1458.172, 499.8131
1460.101, 495.4258
1462.029, 492.2132
1463.958, 496.4807
1465.886, 497.7299
1467.815, 492.7349
1469.743, 492.2191
1471.672, 497.1442
1473.600, 497.3560
1475.528, 493.9684
1477.457, 490.9687
1479.385, 488.8226
1481.314, 488.7235
1483.242, 489.1828
1485.171, 489.8409
1487.099, 489.1491
1489.028, 486.2264
1490.956, 482.8107
1492.885, 478.9011
1494.813, 481.5476
1496.742, 489.2213
1498.670, 486.3019
1500.599, 478.7252
1502.527, 482.0269
1504.455, 486.4053
1506.384, 480.0777
1508.312, 473.0121
1510.241, 470.6420
1512.169, 468.4951
1514.098, 465.3740
1516.026, 464.1051
1517.955, 464.7066
1519.883, 463.5821
1521.812, 461.7926
1523.740, 463.6676
1525.669, 466.0148
1527.597, 465.7497
1529.526, 463.6991
1531.454, 459.7475
1533.382, 455.3551
1535.311, 449.3799
1537.239, 447.4167
1539.168, 449.7427
1541.096, 452.6848
1543.025, 455.2468
1544.953, 453.6607
1546.882, 450.3110
1548.810, 446.5895
1550.739, 444.8368
1552.667, 447.7660
1554.596, 447.5280
1556.524, 441.0082
1558.453, 439.0775
1560.381, 442.0456
1562.309, 445.1783
1564.238, 446.9414
1566.166, 441.9508
1568.095, 436.0775
1570.023, 435.2032
1571.952, 434.5771
1573.880, 432.5287
1575.809, 431.3663
1577.737, 431.4834
1579.666, 433.5324
1581.594, 436.1869
1583.523, 432.4424
1585.451, 427.3009
1587.380, 428.7149
1589.308, 430.6999
1591.236, 429.7653
1593.165, 428.0406
1595.093, 425.8808
1597.022, 421.6374
1598.950, 416.1957
1600.879, 417.0349
1602.807, 421.2397
1604.736, 425.2698
1606.664, 426.8713
1608.593, 421.8816
1610.521, 418.5098
1612.450, 419.4000
1614.378, 422.2582
1616.307, 426.5367
1618.235, 421.7895
1620.163, 413.0758
1622.092, 413.2531
1624.020, 414.6230
1625.949, 409.3759
1627.877, 405.5506
1629.806, 406.8626
1631.734, 408.5717
1633.663, 410.5902
1635.591, 408.7128
1637.520, 404.6293
1639.448, 401.5229
1641.377, 400.7982
1643.305, 405.2215
1645.234, 408.2509
1647.162, 407.2587
1649.090, 406.2907
1651.019, 405.6712
1652.947, 400.4071
1654.876, 393.7390
1656.804, 393.0775
1658.733, 395.2072
1660.661, 398.8007
1662.590, 402.0112
1664.518, 404.9307
1666.447, 400.9653
1668.375, 390.9959
1670.304, 388.1638
1672.232, 389.0928
1674.161, 387.9268
1676.089, 388.1777
1678.017, 392.6535
1679.946, 395.8603
1681.874, 396.7788
1683.803, 398.6069
1685.731, 400.1266
1687.660, 394.7082
1689.588, 388.1695
1691.517, 387.0648
1693.445, 387.5548
1695.374, 388.5318
1697.302, 390.0151
1699.231, 391.7211
1701.159, 390.2945
1703.088, 386.7848
1705.016, 382.6698
1706.944, 378.9522
1708.873, 375.3482
1710.801, 374.8936
1712.730, 378.6748
1714.658, 380.3851
1716.587, 380.6171
1718.515, 383.2861
1720.444, 385.2249
1722.372, 381.9807
1724.301, 379.3480
1726.229, 380.3104
1728.158, 380.0741
1730.086, 378.5832
1732.015, 377.6341
1733.943, 377.6782
1735.871, 381.3044
1737.800, 382.1787
1739.728, 375.6650
1741.657, 371.0072
1743.585, 369.5999
1745.514, 372.1674
1747.442, 375.8036
1749.371, 372.6172
1751.299, 369.2450
1753.228, 370.0890
1755.156, 368.9120
1757.085, 364.1158
1759.013, 366.2888
1760.942, 371.9663
1762.870, 370.3008
1764.798, 366.6693
1766.727, 364.5122
1768.655, 364.1565
1770.584, 365.8575
1772.512, 361.2891
1774.441, 353.7157
1776.369, 355.7873
1778.298, 360.2376
1780.226, 360.1810
1782.155, 361.3512
1784.083, 365.0642
1786.012, 365.1246
1787.940, 362.5102
1789.869, 361.6255
1791.797, 361.4148
1793.725, 360.1986
1795.654, 361.4065
1797.582, 366.2868
1799.511, 365.7850
1801.439, 361.9260
1803.368, 362.6546
1805.296, 363.4380
1807.225, 359.4882
1809.153, 356.8640
1811.082, 357.0848
1813.010, 355.2881
1814.939, 353.2782
1816.867, 359.4041
1818.796, 362.9615
1820.724, 352.9747
1822.652, 348.0421
1824.581, 351.8194
1826.509, 356.9681
1828.438, 360.8942
1830.366, 355.7290
1832.295, 350.0555
1834.223, 348.1109
1836.152, 346.0634
1838.080, 343.5340
1840.009, 346.7363
1841.937, 350.8710
1843.866, 347.1348
1845.794, 343.7756
1847.723, 343.9310
1849.651, 341.8230
1851.579, 337.4703
1853.508, 332.6726
1855.436, 330.2056
1857.365, 333.1405
1859.293, 340.6376
1861.222, 352.9318
1863.150, 352.8923
1865.079, 344.8682
1867.007, 339.7887
1868.936, 338.0557
1870.864, 341.2725
1872.793, 343.9361
1874.721, 345.1129
1876.650, 340.4297
1878.578, 335.1402
1880.506, 338.3763
1882.435, 339.7979
1884.363, 334.8657
1886.292, 335.3481
1888.220, 339.5225
1890.149, 339.0844
1892.077, 337.4757
1894.006, 338.0904
1895.934, 336.2124
1897.863, 331.2512
1899.791, 332.4727
1901.720, 335.9813
1903.648, 335.9671
1905.577, 335.1861
1907.505, 335.5718
1909.433, 330.9612
1911.362, 324.2180
1913.290, 330.8181
1915.219, 338.0478
1917.147, 336.7321
1919.076, 336.2627
1921.004, 338.0395
1922.933, 329.2180
1924.861, 320.5823
1926.790, 330.2084
1928.718, 335.5269
1930.647, 328.8022
1932.575, 326.2541
1934.504, 326.6596
1936.432, 324.5705
1938.360, 322.9484
1940.289, 322.8917
1942.217, 326.1418
1944.146, 332.0275
1946.074, 337.6812
1948.003, 338.8848
1949.931, 328.3099
1951.860, 321.3072
1953.788, 320.3130
1955.717, 327.2159
1957.645, 333.6672
1959.574, 326.1551
1961.502, 316.9790
1963.431, 309.1592
1965.359, 307.2011
1967.287, 309.2148
1969.216, 310.1128
1971.144, 313.8600
1973.073, 326.1862
1975.001, 320.8568
1976.930, 305.2563
1978.858, 311.4531
1980.787, 319.8678
1982.715, 315.7519
1984.644, 313.4323
1986.572, 313.3180
1988.501, 308.4175
1990.429, 303.4748
1992.358, 302.3452
1994.286, 303.3216
1996.214, 306.0232
1998.143, 308.0930
2000.071, 309.1612
2002.000, 309.4529
2003.928, 306.6685
2005.857, 299.7549
2007.785, 300.0338
2009.714, 301.9710
2011.642, 296.4542
2013.571, 293.5057
2015.499, 296.2821
2017.428, 293.3107
2019.356, 290.4118
2021.285, 303.8753
2023.213, 309.3080
2025.141, 299.2610
2027.070, 298.8886
2028.998, 303.5006
2030.927, 300.1075
2032.855, 300.6611
2034.784, 309.4499
2036.712, 305.4732
2038.641, 294.7108
2040.569, 291.9609
2042.498, 289.2472
2044.426, 283.3252
2046.355, 285.7039
2048.283, 292.6889
2050.212, 295.3195
2052.140, 297.6909
2054.068, 302.1632
2055.997, 297.1527
2057.925, 288.1237
2059.854, 285.7058
2061.782, 288.4628
2063.711, 297.7809
2065.639, 300.8333
2067.568, 296.7518
2069.496, 279.8300
2071.425, 268.6071
2073.353, 271.9547
2075.281, 276.3907
2077.210, 280.7864
2079.138, 284.9340
2081.067, 283.1905
2082.995, 270.5268
2084.924, 281.3503
2086.852, 295.6392
2088.781, 279.1624
2090.709, 268.1096
2092.638, 273.4102
2094.566, 278.6967
2096.495, 282.0338
2098.423, 280.3654
2100.352, 278.8345
2102.280, 278.3591
2104.208, 275.4106
2106.137, 271.0991
2108.065, 265.5850
2109.994, 262.7584
2111.922, 263.4938
2113.851, 270.8741
2115.779, 274.5003
2117.708, 264.2771
2119.636, 264.1467
2121.565, 272.5366
2123.493, 274.1585
2125.422, 273.0736
2127.350, 271.4883
2129.279, 266.1949
2131.207, 259.7157
2133.135, 256.3481
2135.064, 258.9143
2136.992, 268.8162
2138.921, 270.0531
2140.849, 267.3946
2142.778, 268.3420
2144.706, 269.2194
2146.635, 269.2578
2148.563, 267.3951
2150.492, 264.8109
2152.420, 261.6306
2154.349, 261.1325
2156.277, 263.0938
2158.206, 265.0201
2160.134, 267.4364
2162.063, 271.4655
2163.991, 272.2180
2165.919, 269.2850
2167.848, 257.5109
2169.776, 255.2128
2171.705, 270.3029
2173.633, 264.5355
2175.562, 253.6828
2177.490, 257.2196
2179.419, 261.3244
2181.347, 263.2351
2183.276, 262.8417
2185.204, 260.3472
2187.133, 255.4816
2189.061, 254.0710
2190.990, 255.1257
2192.918, 255.4968
2194.846, 255.0852
2196.775, 253.9464
2198.703, 254.0737
2200.632, 254.7508
2202.560, 254.0835
2204.489, 256.7033
2206.417, 262.6636
2208.346, 273.8389
2210.274, 276.0041
2212.203, 258.0424
2214.131, 250.4192
2216.060, 251.0792
2217.988, 255.8850
2219.917, 256.7563
2221.845, 252.8232
2223.773, 258.5663
2225.702, 264.5196
2227.630, 262.4949
2229.559, 257.6308
2231.487, 252.4468
2233.416, 253.8735
2235.344, 254.9965
2237.273, 253.2688
2239.201, 251.8612
2241.130, 251.9178
2243.058, 254.2478
2244.987, 260.9621
2246.915, 267.8884
2248.844, 252.1225
2250.772, 243.3348
2252.700, 253.5523
2254.629, 252.7545
2256.557, 248.8018
2258.486, 251.6510
2260.414, 255.4796
2262.343, 258.1934
2264.271, 252.6375
2266.200, 251.3840
2268.128, 258.9837
2270.057, 258.2908
2271.985, 253.6436
2273.914, 249.2568
2275.842, 250.8289
2277.771, 255.5874
2279.699, 250.4249
2281.627, 243.9606
2283.556, 239.3554
2285.484, 248.9011
2287.413, 257.7274
2289.341, 246.0286
2291.270, 236.8645
2293.198, 233.5378
2295.127, 240.7135
2297.055, 248.3319
2298.984, 253.2511
2300.912, 249.7135
2302.841, 245.3273
2304.769, 248.0815
2306.698, 246.0261
2308.626, 242.0517
2310.554, 243.9812
2312.483, 245.6575
2314.411, 245.6604
2316.340, 244.2386
2318.268, 242.9605
2320.197, 242.2910
2322.125, 249.1625
2324.054, 254.8947
2325.982, 243.6726
2327.911, 255.0582
2329.839, 280.5353
2331.768, 247.1149
2333.696, 245.4936
2335.625, 300.6954
2337.553, 284.2843
2339.481, 249.8288
2341.410, 239.0575
2343.338, 239.6929
2345.267, 243.2105
2347.195, 236.9339
2349.124, 226.3146
2351.052, 217.3413
2352.981, 237.1531
2354.909, 247.7668
2356.838, 235.6149
2358.766, 239.8022
2360.695, 245.9801
2362.623, 237.2822
2364.552, 236.2505
2366.480, 238.7979
2368.408, 234.0523
2370.337, 232.8945
2372.265, 236.1832
2374.194, 241.4996
2376.122, 243.0753
2378.051, 238.1128
2379.979, 234.0176
2381.908, 233.0694
2383.836, 239.3807
2385.765, 234.5412
2387.693, 228.1489
2389.622, 236.8443
2391.550, 237.6856
2393.479, 232.3858
2395.407, 243.2159
2397.335, 240.6734
2399.264, 219.1956
2401.192, 220.0255
2403.121, 223.7991
2405.049, 220.8624
2406.978, 236.3486
2408.906, 247.1317
2410.835, 229.0368
2412.763, 226.7610
2414.692, 233.9446
2416.620, 231.8166
2418.549, 231.3537
2420.477, 233.7678
2422.406, 241.2728
2424.334, 237.0913
2426.262, 221.4083
2428.191, 223.8560
2430.119, 230.3122
2432.048, 234.0187
2433.976, 222.1613
2435.905, 213.9269
2437.833, 230.4561
2439.762, 236.4574
2441.690, 237.7956
2443.619, 246.4416
2445.547, 244.3232
2447.476, 235.7293
2449.404, 235.4333
2451.333, 226.0188
2453.261, 210.9644
2455.189, 224.6999
2457.118, 231.6873
2459.046, 222.5499
2460.975, 224.4901
2462.903, 228.3095
2464.832, 229.7173
2466.760, 226.1225
2468.689, 221.9742
2470.617, 220.1503
2472.546, 222.3376
2474.474, 222.7784
2476.403, 214.6806
2478.331, 217.4268
2480.260, 224.7587
2482.188, 225.5059
2484.116, 223.4114
2486.045, 219.4004
2487.973, 213.1665
2489.902, 207.6778
2491.830, 206.7891
2493.759, 226.0117
2495.687, 232.2720
2497.616, 223.0459
2499.544, 225.8313
2501.473, 223.9880
2503.401, 214.2408
2505.330, 219.1271
2507.258, 226.6106
2509.187, 231.1770
2511.115, 220.3337
2513.043, 210.3553
2514.972, 211.5344
2516.900, 227.0550
2518.829, 234.1008
2520.757, 206.4580
2522.686, 203.7169
2524.614, 209.7917
2526.543, 206.8460
2528.471, 213.5170
2530.400, 221.8869
2532.328, 220.8674
2534.257, 226.5756
2536.185, 230.5363
2538.114, 216.8183
2540.042, 205.8335
2541.970, 203.3954
2543.899, 220.1821
2545.827, 221.7814
2547.756, 213.0102
2549.684, 216.3659
2551.613, 218.6718
2553.541, 218.3965
2555.470, 215.4790
2557.398, 215.0886
2559.327, 218.3888
2561.255, 226.8266
2563.184, 236.7766
2565.112, 241.2542
2567.041, 214.3732
2568.969, 205.5292
2570.897, 216.3640
2572.826, 215.9524
2574.754, 209.0229
2576.683, 200.0718
2578.611, 197.8694
2580.540, 209.0883
2582.468, 228.8541
2584.397, 225.9394
2586.325, 215.2072
2588.254, 203.2057
2590.182, 204.7692
2592.111, 205.5505
2594.039, 203.3125
2595.968, 213.3263
2597.896, 214.5625
2599.824, 206.4530
2601.753, 231.0168
2603.681, 231.6885
2605.610, 203.2271
2607.538, 209.8477
2609.467, 209.9529
2611.395, 196.7946
2613.324, 191.8740
2615.252, 201.9697
2617.181, 219.5569
2619.109, 202.2756
2621.038, 190.9806
2622.966, 192.8835
2624.895, 196.5317
2626.823, 198.0287
2628.751, 197.1026
2630.680, 191.8868
2632.608, 201.6048
2634.537, 220.3095
2636.465, 225.2682
2638.394, 217.2401
2640.322, 205.7430
2642.251, 212.6477
2644.179, 216.1046
2646.108, 214.1054
2648.036, 208.8458
2649.965, 204.4536
2651.893, 200.2592
2653.822, 191.9939
2655.750, 197.4338
2657.678, 208.1301
2659.607, 210.0507
2661.535, 224.1342
2663.464, 229.7245
2665.392, 201.3729
2667.321, 203.9934
2669.249, 210.5034
2671.178, 194.0999
2673.106, 190.1290
2675.035, 199.1071
2676.963, 217.8689
2678.892, 204.7800
2680.820, 193.0853
2682.749, 199.5156
2684.677, 210.8996
2686.605, 214.4828
2688.534, 208.2856
2690.462, 209.1493
2692.391, 208.8642
2694.319, 207.0058
2696.248, 215.4917
2698.176, 220.3013
2700.105, 217.6848
2702.033, 204.0697
2703.962, 194.7841
2705.890, 196.4542
2707.819, 224.9558
2709.747, 221.0459
2711.676, 205.1014
2713.604, 214.9734
2715.532, 227.0427
2717.461, 227.7594
2719.389, 202.8144
2721.318, 190.3414
2723.246, 196.1152
2725.175, 224.1517
2727.103, 197.9274
2729.032, 175.7263
2730.960, 183.7989
2732.889, 208.9314
2734.817, 213.4062
2736.746, 195.8348
2738.674, 196.8913
2740.603, 207.5827
2742.531, 217.1270
2744.459, 204.5765
2746.388, 180.4649
2748.316, 165.2826
2750.245, 187.1290
2752.173, 190.4272
2754.102, 194.6958
2756.030, 217.5305
2757.959, 214.9897
2759.887, 204.8213
2761.816, 198.3381
2763.744, 220.5270
2765.673, 218.9382
2767.601, 193.2575
2769.530, 187.3780
2771.458, 201.1082
2773.386, 219.4657
2775.315, 220.7688
2777.243, 194.7792
##END=



