##NAMES=Bayldonite
##RRUFFID=R050670
##IDEAL CHEMISTRY=Cu_3_PbO(AsO_3_OH)_2_(OH)_2_
##LOCALITY=Tsumeb mine, Tsumeb, Otavi District, Oshikoto, Namibia
##OWNER=RRUFF
##SOURCE=University of Arizona Mineral Museum
##DESCRIPTION=Green botryoidal coating asociated with olivenite R050670, malachite balls and azurite
##STATUS=The identification of this mineral has been confirmed by X-ray diffraction and chemical analysis
##URL=https://www.rruff.net/odr/rruff_sample/R050670
##MEASURED CHEMISTRY=Pb_1.00_Cu_3.00_O(As_1.00_O_3_OH)_2_(OH)_2_
##DIFFRACTION SAMPLE DESCRIPTION=Powder
##CELL PARAMETERS=a: 10.1466 b: 5.8921 c: 14.091 alpha: 90 beta: 106.057 gamma: 90 volume: 809.59 crystal system: monoclinic
##FILETYPE=Raman RAW
##RAMAN WAVELENGTH=532

85.98978, 61.49205
87.91824, 60.32665
89.84671, 59.57985
91.77518, 59.34178
93.70364, 59.50747
95.63211, 60.08409
97.56058, 61.37568
99.48904, 62.41772
101.4175, 62.78091
103.3460, 62.00602
105.2744, 62.08089
107.2029, 61.82792
109.1314, 63.01953
111.0598, 67.17569
112.9883, 72.73994
114.9168, 83.34969
116.8452, 99.47938
118.7737, 120.5869
120.7022, 151.3639
122.6306, 195.5525
124.5591, 249.7020
126.4876, 309.6958
128.4160, 375.0018
130.3445, 445.8105
132.2730, 522.2199
134.2014, 603.7354
136.1299, 691.3467
138.0584, 787.3824
139.9868, 889.6080
141.9153, 989.4310
143.8438, 1085.562
145.7722, 1180.335
147.7007, 1274.492
149.6292, 1343.468
151.5576, 1362.667
153.4861, 1379.675
155.4146, 1396.272
157.3430, 1410.014
159.2715, 1419.732
161.2000, 1428.632
163.1284, 1438.953
165.0569, 1452.845
166.9854, 1462.784
168.9138, 1467.844
170.8423, 1469.124
172.7708, 1466.081
174.6992, 1458.941
176.6277, 1448.330
178.5562, 1434.011
180.4846, 1415.144
182.4131, 1395.572
184.3416, 1374.931
186.2701, 1353.519
188.1985, 1335.057
190.1270, 1319.259
192.0555, 1306.154
193.9839, 1295.334
195.9124, 1287.710
197.8409, 1280.874
199.7693, 1274.532
201.6978, 1268.695
203.6263, 1262.944
205.5547, 1256.041
207.4832, 1249.933
209.4117, 1245.747
211.3401, 1243.398
213.2686, 1243.080
215.1971, 1245.834
217.1255, 1250.628
219.0540, 1255.229
220.9825, 1259.337
222.9109, 1263.446
224.8394, 1267.797
226.7679, 1272.632
228.6963, 1276.618
230.6248, 1278.268
232.5533, 1278.466
234.4817, 1280.891
236.4102, 1288.147
238.3387, 1295.037
240.2671, 1299.057
242.1956, 1299.878
244.1241, 1300.975
246.0525, 1302.473
247.9810, 1304.744
249.9095, 1308.785
251.8379, 1315.593
253.7664, 1322.898
255.6949, 1329.691
257.6233, 1335.439
259.5518, 1341.977
261.4803, 1348.816
263.4087, 1356.282
265.3372, 1364.577
267.2657, 1373.430
269.1941, 1383.346
271.1226, 1394.049
273.0511, 1405.600
274.9795, 1417.461
276.9080, 1429.771
278.8365, 1443.061
280.7649, 1457.681
282.6934, 1474.039
284.6219, 1492.236
286.5503, 1512.922
288.4788, 1535.936
290.4073, 1558.907
292.3357, 1580.568
294.2642, 1602.460
296.1927, 1626.056
298.1211, 1650.865
300.0496, 1678.023
301.9781, 1708.583
303.9065, 1741.032
305.8350, 1772.468
307.7635, 1806.734
309.6919, 1837.193
311.6204, 1859.327
313.5489, 1872.263
315.4773, 1882.162
317.4058, 1887.898
319.3343, 1890.099
321.2627, 1890.465
323.1912, 1890.220
325.1197, 1887.139
327.0481, 1880.122
328.9766, 1869.176
330.9051, 1855.469
332.8336, 1838.176
334.7620, 1818.005
336.6905, 1795.686
338.6190, 1770.826
340.5474, 1745.803
342.4759, 1720.558
344.4044, 1695.992
346.3328, 1674.391
348.2613, 1656.781
350.1898, 1642.623
352.1182, 1631.588
354.0467, 1623.360
355.9752, 1614.793
357.9036, 1605.065
359.8321, 1595.881
361.7606, 1588.863
363.6890, 1583.520
365.6175, 1579.479
367.5460, 1578.003
369.4744, 1578.869
371.4029, 1580.399
373.3314, 1582.252
375.2598, 1584.769
377.1883, 1587.931
379.1168, 1591.201
381.0452, 1596.011
382.9737, 1603.439
384.9022, 1612.046
386.8306, 1619.680
388.7591, 1624.576
390.6876, 1630.432
392.6160, 1637.776
394.5445, 1646.295
396.4730, 1655.265
398.4014, 1667.466
400.3299, 1679.763
402.2584, 1689.797
404.1868, 1694.957
406.1153, 1699.584
408.0438, 1703.557
409.9722, 1707.926
411.9007, 1713.970
413.8292, 1721.509
415.7576, 1730.187
417.6861, 1740.327
419.6146, 1752.612
421.5430, 1766.424
423.4715, 1784.571
425.4000, 1800.834
427.3284, 1810.962
429.2569, 1810.976
431.1854, 1808.533
433.1138, 1804.564
435.0423, 1798.073
436.9708, 1787.963
438.8992, 1775.226
440.8277, 1763.875
442.7562, 1754.662
444.6846, 1747.597
446.6131, 1744.908
448.5416, 1748.632
450.4700, 1753.840
452.3985, 1756.840
454.3270, 1756.970
456.2554, 1758.575
458.1839, 1761.631
460.1124, 1765.141
462.0408, 1767.842
463.9693, 1770.322
465.8978, 1773.473
467.8262, 1777.875
469.7547, 1783.674
471.6832, 1790.979
473.6116, 1799.331
475.5401, 1808.620
477.4686, 1819.691
479.3970, 1833.043
481.3255, 1844.449
483.2540, 1852.010
485.1824, 1858.965
487.1109, 1868.493
489.0394, 1879.581
490.9678, 1889.693
492.8963, 1899.534
494.8248, 1908.781
496.7532, 1916.234
498.6817, 1922.112
500.6102, 1925.003
502.5386, 1924.007
504.4671, 1917.943
506.3956, 1909.430
508.3240, 1899.039
510.2525, 1889.625
512.1810, 1882.232
514.1094, 1876.477
516.0379, 1870.917
517.9664, 1866.678
519.8948, 1864.188
521.8233, 1863.556
523.7518, 1862.006
525.6802, 1861.306
527.6087, 1862.578
529.5372, 1865.637
531.4656, 1868.872
533.3941, 1871.372
535.3226, 1874.094
537.2510, 1877.383
539.1795, 1881.427
541.1080, 1885.431
543.0364, 1887.954
544.9649, 1889.720
546.8934, 1891.640
548.8218, 1895.591
550.7503, 1897.348
552.6788, 1895.261
554.6072, 1893.147
556.5357, 1894.275
558.4642, 1899.153
560.3926, 1903.651
562.3211, 1906.225
564.2496, 1907.456
566.1780, 1909.641
568.1065, 1913.562
570.0350, 1917.369
571.9634, 1920.569
573.8919, 1923.632
575.8204, 1926.209
577.7488, 1926.912
579.6773, 1928.583
581.6058, 1933.172
583.5342, 1939.429
585.4627, 1943.934
587.3912, 1945.967
589.3196, 1947.958
591.2481, 1950.776
593.1766, 1954.520
595.1050, 1958.458
597.0335, 1962.490
598.9620, 1966.139
600.8904, 1969.170
602.8189, 1972.342
604.7474, 1975.868
606.6758, 1979.894
608.6043, 1983.353
610.5328, 1985.902
612.4612, 1988.082
614.3897, 1990.744
616.3182, 1994.161
618.2466, 1997.981
620.1751, 2001.882
622.1036, 2005.781
624.0320, 2010.567
625.9605, 2016.822
627.8890, 2023.423
629.8174, 2028.822
631.7459, 2032.619
633.6744, 2037.001
635.6028, 2043.577
637.5313, 2051.069
639.4598, 2056.556
641.3882, 2058.541
643.3167, 2060.157
645.2452, 2062.833
647.1736, 2066.501
649.1021, 2070.917
651.0306, 2076.892
652.9590, 2083.301
654.8875, 2088.589
656.8160, 2091.907
658.7444, 2095.479
660.6729, 2099.217
662.6014, 2102.789
664.5298, 2106.535
666.4583, 2111.378
668.3868, 2116.785
670.3152, 2123.008
672.2437, 2128.694
674.1722, 2133.779
676.1006, 2139.390
678.0291, 2144.124
679.9576, 2146.854
681.8860, 2148.724
683.8145, 2152.483
685.7430, 2159.175
687.6714, 2166.754
689.5999, 2174.666
691.5284, 2181.837
693.4568, 2188.772
695.3853, 2195.295
697.3138, 2202.982
699.2422, 2213.030
701.1707, 2223.781
703.0992, 2232.366
705.0276, 2236.949
706.9561, 2241.476
708.8846, 2247.806
710.8130, 2256.163
712.7415, 2264.287
714.6700, 2272.289
716.5984, 2280.205
718.5269, 2287.631
720.4554, 2295.282
722.3839, 2304.508
724.3123, 2316.476
726.2408, 2328.430
728.1693, 2339.997
730.0977, 2350.448
732.0262, 2358.921
733.9547, 2363.649
735.8831, 2369.066
737.8116, 2377.133
739.7401, 2387.718
741.6685, 2398.966
743.5970, 2410.835
745.5255, 2423.836
747.4539, 2437.801
749.3824, 2453.389
751.3109, 2471.739
753.2393, 2494.051
755.1678, 2517.637
757.0963, 2541.915
759.0247, 2566.659
760.9532, 2588.740
762.8817, 2608.716
764.8101, 2625.518
766.7386, 2637.659
768.6671, 2645.275
770.5955, 2653.594
772.5240, 2659.378
774.4525, 2670.824
776.3809, 2692.444
778.3094, 2725.708
780.2379, 2758.719
782.1663, 2789.418
784.0948, 2820.947
786.0233, 2851.909
787.9517, 2883.142
789.8802, 2925.600
791.8087, 2981.417
793.7371, 3049.227
795.6656, 3129.268
797.5941, 3223.500
799.5225, 3316.911
801.4510, 3424.457
803.3795, 3519.416
805.3079, 3587.364
807.2364, 3628.977
809.1649, 3643.728
811.0933, 3617.425
813.0218, 3573.500
814.9503, 3523.496
816.8787, 3465.668
818.8072, 3417.725
820.7357, 3372.625
822.6641, 3344.603
824.5926, 3342.257
826.5211, 3363.889
828.4495, 3395.413
830.3780, 3443.963
832.3065, 3492.545
834.2349, 3541.703
836.1634, 3592.270
838.0919, 3608.969
840.0203, 3581.760
841.9488, 3532.476
843.8773, 3458.183
845.8057, 3353.557
847.7342, 3250.660
849.6627, 3142.918
851.5911, 3045.910
853.5196, 2966.419
855.4481, 2904.002
857.3765, 2853.892
859.3050, 2822.917
861.2335, 2795.742
863.1619, 2770.367
865.0904, 2746.640
867.0189, 2723.198
868.9473, 2700.406
870.8758, 2681.703
872.8043, 2667.010
874.7327, 2654.992
876.6612, 2645.973
878.5897, 2641.624
880.5181, 2638.574
882.4466, 2636.659
884.3751, 2634.886
886.3035, 2632.852
888.2320, 2631.139
890.1605, 2629.126
892.0889, 2626.425
894.0174, 2622.600
895.9459, 2618.265
897.8743, 2613.283
899.8028, 2608.436
901.7313, 2603.616
903.6597, 2598.818
905.5882, 2594.633
907.5167, 2591.711
909.4451, 2589.706
911.3736, 2588.616
913.3021, 2587.767
915.2305, 2587.511
917.1590, 2588.170
919.0875, 2588.875
921.0159, 2588.772
922.9444, 2589.065
924.8729, 2591.411
926.8013, 2595.815
928.7298, 2599.431
930.6583, 2601.240
932.5867, 2603.327
934.5152, 2607.360
936.4437, 2613.224
938.3721, 2618.424
940.3006, 2622.102
942.2291, 2624.824
944.1575, 2626.785
946.0860, 2626.708
948.0145, 2627.153
949.9429, 2629.944
951.8714, 2632.790
953.7999, 2632.841
955.7283, 2630.454
957.6568, 2630.670
959.5853, 2634.324
961.5137, 2638.684
963.4422, 2642.454
965.3707, 2647.644
967.2991, 2654.416
969.2276, 2661.189
971.1561, 2666.335
973.0845, 2669.549
975.0130, 2673.153
976.9415, 2677.356
978.8699, 2681.164
980.7984, 2683.808
982.7269, 2684.570
984.6553, 2685.916
986.5838, 2690.046
988.5123, 2695.560
990.4407, 2700.441
992.3692, 2704.927
994.2977, 2709.651
996.2261, 2712.880
998.1546, 2714.933
1000.083, 2718.072
1002.012, 2721.967
1003.940, 2725.811
1005.868, 2731.007
1007.797, 2736.157
1009.725, 2738.006
1011.654, 2736.718
1013.582, 2737.309
1015.511, 2741.944
1017.439, 2747.976
1019.368, 2753.131
1021.296, 2758.324
1023.225, 2764.195
1025.153, 2770.575
1027.082, 2776.764
1029.010, 2783.081
1030.939, 2788.736
1032.867, 2792.840
1034.796, 2795.139
1036.724, 2797.460
1038.652, 2801.051
1040.581, 2806.044
1042.509, 2810.747
1044.438, 2814.562
1046.366, 2818.383
1048.295, 2823.180
1050.223, 2828.456
1052.152, 2833.244
1054.080, 2837.484
1056.009, 2841.858
1057.937, 2846.773
1059.866, 2852.625
1061.794, 2858.926
1063.723, 2863.790
1065.651, 2866.673
1067.579, 2868.495
1069.508, 2871.521
1071.436, 2876.660
1073.365, 2882.589
1075.293, 2887.177
1077.222, 2889.596
1079.150, 2890.881
1081.079, 2892.421
1083.007, 2896.624
1084.936, 2901.683
1086.864, 2907.177
1088.793, 2912.768
1090.721, 2917.583
1092.650, 2920.523
1094.578, 2923.229
1096.506, 2928.233
1098.435, 2932.995
1100.363, 2936.066
1102.292, 2937.861
1104.220, 2940.407
1106.149, 2943.558
1108.077, 2947.691
1110.006, 2953.354
1111.934, 2959.793
1113.863, 2965.188
1115.791, 2967.083
1117.720, 2967.704
1119.648, 2971.240
1121.577, 2976.796
1123.505, 2981.853
1125.433, 2985.685
1127.362, 2990.702
1129.290, 2997.782
1131.219, 3003.005
1133.147, 3005.361
1135.076, 3006.031
1137.004, 3007.757
1138.933, 3011.537
1140.861, 3015.733
1142.790, 3020.138
1144.718, 3025.052
1146.647, 3029.941
1148.575, 3033.936
1150.504, 3037.644
1152.432, 3042.756
1154.360, 3047.680
1156.289, 3050.649
1158.217, 3051.925
1160.146, 3052.908
1162.074, 3053.528
1164.003, 3055.087
1165.931, 3060.025
1167.860, 3066.655
1169.788, 3071.871
1171.717, 3073.344
1173.645, 3076.575
1175.574, 3083.282
1177.502, 3091.276
1179.431, 3097.358
1181.359, 3100.499
1183.287, 3103.317
1185.216, 3108.487
1187.144, 3114.896
1189.073, 3119.758
1191.001, 3123.570
1192.930, 3128.032
1194.858, 3133.667
1196.787, 3140.125
1198.715, 3146.582
1200.644, 3151.156
1202.572, 3155.353
1204.501, 3160.433
1206.429, 3166.031
1208.358, 3170.379
1210.286, 3173.203
1212.214, 3176.515
1214.143, 3181.041
1216.071, 3185.438
1218.000, 3189.073
1219.928, 3192.844
1221.857, 3197.203
1223.785, 3200.792
1225.714, 3203.771
1227.642, 3206.411
1229.571, 3209.774
1231.499, 3214.297
1233.428, 3220.097
1235.356, 3226.536
1237.285, 3232.708
1239.213, 3237.292
1241.141, 3239.405
1243.070, 3242.386
1244.998, 3248.544
1246.927, 3254.497
1248.855, 3257.220
1250.784, 3257.396
1252.712, 3260.315
1254.641, 3267.576
1256.569, 3276.519
1258.498, 3286.257
1260.426, 3293.449
1262.355, 3297.079
1264.283, 3298.157
1266.212, 3301.533
1268.140, 3307.741
1270.068, 3314.647
1271.997, 3322.637
1273.925, 3330.476
1275.854, 3336.728
1277.782, 3341.238
1279.711, 3345.359
1281.639, 3348.617
1283.568, 3352.313
1285.496, 3357.421
1287.425, 3363.732
1289.353, 3368.980
1291.282, 3371.774
1293.210, 3375.155
1295.139, 3382.020
1297.067, 3389.618
1298.995, 3393.339
1300.924, 3393.737
1302.852, 3396.427
1304.781, 3403.748
1306.709, 3410.944
1308.638, 3415.699
1310.566, 3419.153
1312.495, 3422.012
1314.423, 3423.737
1316.352, 3426.820
1318.280, 3433.634
1320.209, 3438.901
1322.137, 3439.506
1324.066, 3438.522
1325.994, 3441.583
1327.922, 3451.728
1329.851, 3459.806
1331.779, 3464.231
1333.708, 3467.648
1335.636, 3472.145
1337.565, 3477.901
1339.493, 3483.411
1341.422, 3488.438
1343.350, 3492.890
1345.279, 3496.043
1347.207, 3499.316
1349.136, 3503.916
1351.064, 3509.448
1352.993, 3514.540
1354.921, 3519.434
1356.849, 3524.027
1358.778, 3527.316
1360.706, 3530.905
1362.635, 3536.619
1364.563, 3544.862
1366.492, 3552.001
1368.420, 3555.681
1370.349, 3561.201
1372.277, 3571.595
1374.206, 3583.424
1376.134, 3590.896
1378.063, 3592.214
1379.991, 3596.396
1381.920, 3606.298
1383.848, 3615.201
1385.776, 3621.586
1387.705, 3625.765
1389.633, 3627.602
1391.562, 3627.019
1393.490, 3627.332
1395.419, 3629.811
1397.347, 3633.274
1399.276, 3636.705
1401.204, 3640.389
1403.133, 3645.372
1405.061, 3651.625
1406.990, 3657.705
1408.918, 3662.994
1410.847, 3668.004
1412.775, 3672.643
1414.703, 3676.953
1416.632, 3681.922
1418.560, 3688.272
1420.489, 3693.679
1422.417, 3697.247
1424.346, 3700.943
1426.274, 3705.638
1428.203, 3711.127
1430.131, 3716.919
1432.060, 3723.141
1433.988, 3729.394
1435.917, 3735.456
1437.845, 3741.628
1439.774, 3747.612
1441.702, 3753.664
1443.630, 3760.656
1445.559, 3768.664
1447.487, 3776.276
1449.416, 3784.110
1451.344, 3790.681
1453.273, 3794.433
1455.201, 3797.087
1457.130, 3801.097
1459.058, 3806.448
1460.987, 3812.488
1462.915, 3819.243
1464.844, 3826.178
1466.772, 3833.548
1468.701, 3840.215
1470.629, 3844.386
1472.557, 3845.927
1474.486, 3847.708
1476.414, 3850.852
1478.343, 3854.087
1480.271, 3856.246
1482.200, 3859.155
1484.128, 3865.502
1486.057, 3876.138
1487.985, 3884.427
1489.914, 3887.493
1491.842, 3890.282
1493.771, 3892.889
1495.699, 3895.966
1497.628, 3901.286
1499.556, 3909.577
1501.484, 3914.226
1503.413, 3913.510
1505.341, 3913.232
1507.270, 3914.992
1509.198, 3917.568
1511.127, 3919.304
1513.055, 3920.198
1514.984, 3923.632
1516.912, 3931.055
1518.841, 3937.062
1520.769, 3939.683
1522.698, 3941.108
1524.626, 3942.229
1526.555, 3943.671
1528.483, 3946.846
1530.411, 3952.291
1532.340, 3956.266
1534.268, 3957.300
1536.197, 3958.008
1538.125, 3959.783
1540.054, 3962.147
1541.982, 3963.902
1543.911, 3964.833
1545.839, 3965.969
1547.768, 3967.640
1549.696, 3969.198
1551.625, 3970.478
1553.553, 3971.501
1555.482, 3971.892
1557.410, 3971.286
1559.339, 3970.679
1561.267, 3971.045
1563.195, 3969.259
1565.124, 3961.425
1567.052, 3954.058
1568.981, 3952.247
1570.909, 3954.571
1572.838, 3955.455
1574.766, 3955.168
1576.695, 3955.215
1578.623, 3957.387
1580.552, 3958.209
1582.480, 3954.898
1584.409, 3949.719
1586.337, 3946.887
1588.266, 3947.271
1590.194, 3946.575
1592.122, 3943.270
1594.051, 3939.418
1595.979, 3934.087
1597.908, 3929.442
1599.836, 3928.112
1601.765, 3929.700
1603.693, 3929.958
1605.622, 3931.246
1607.550, 3928.411
1609.479, 3917.415
1611.407, 3906.500
1613.336, 3900.846
1615.264, 3898.337
1617.193, 3894.220
1619.121, 3887.751
1621.049, 3882.402
1622.978, 3878.029
1624.906, 3874.850
1626.835, 3872.289
1628.763, 3871.112
1630.692, 3873.502
1632.620, 3878.738
1634.549, 3880.520
1636.477, 3876.992
1638.406, 3875.327
1640.334, 3877.806
1642.263, 3880.667
1644.191, 3880.656
1646.120, 3879.885
1648.048, 3882.147
1649.976, 3887.263
1651.905, 3889.759
1653.833, 3888.052
1655.762, 3885.313
1657.690, 3883.073
1659.619, 3879.550
1661.547, 3873.145
1663.476, 3865.406
1665.404, 3859.923
1667.333, 3857.493
1669.261, 3855.459
1671.190, 3852.446
1673.118, 3851.930
1675.047, 3856.523
1676.975, 3862.540
1678.903, 3865.869
1680.832, 3866.984
1682.760, 3869.610
1684.689, 3873.588
1686.617, 3877.798
1688.546, 3883.627
1690.474, 3886.994
1692.403, 3884.391
1694.331, 3879.713
1696.260, 3878.906
1698.188, 3881.595
1700.117, 3880.668
1702.045, 3874.667
1703.974, 3870.597
1705.902, 3870.542
1707.830, 3871.932
1709.759, 3873.973
1711.687, 3875.782
1713.616, 3875.708
1715.544, 3873.613
1717.473, 3872.304
1719.401, 3872.507
1721.330, 3872.228
1723.258, 3872.651
1725.187, 3871.442
1727.115, 3865.206
1729.044, 3857.845
1730.972, 3856.911
1732.901, 3862.337
1734.829, 3864.458
1736.757, 3860.112
1738.686, 3858.160
1740.614, 3862.618
1742.543, 3867.457
1744.471, 3868.447
1746.400, 3867.848
1748.328, 3869.552
1750.257, 3873.694
1752.185, 3879.438
1754.114, 3889.594
1756.042, 3895.909
1757.971, 3894.157
1759.899, 3891.067
1761.828, 3888.409
1763.756, 3887.478
1765.684, 3891.223
1767.613, 3899.690
1769.541, 3906.788
1771.470, 3913.421
1773.398, 3916.630
1775.327, 3912.476
1777.255, 3909.144
1779.184, 3913.330
1781.112, 3918.889
1783.041, 3915.340
1784.969, 3903.127
1786.898, 3898.030
1788.826, 3905.529
1790.755, 3909.550
1792.683, 3907.927
1794.611, 3905.394
1796.540, 3904.207
1798.468, 3903.589
1800.397, 3901.956
1802.325, 3900.008
1804.254, 3901.242
1806.182, 3906.717
1808.111, 3912.149
1810.039, 3917.085
1811.968, 3921.247
1813.896, 3924.481
1815.825, 3926.431
1817.753, 3926.313
1819.682, 3925.215
1821.610, 3925.935
1823.538, 3929.246
1825.467, 3932.313
1827.395, 3934.800
1829.324, 3937.788
1831.252, 3941.650
1833.181, 3945.098
1835.109, 3946.707
1837.038, 3947.407
1838.966, 3949.267
1840.895, 3952.150
1842.823, 3952.256
1844.752, 3948.397
1846.680, 3947.529
1848.609, 3954.114
1850.537, 3958.545
1852.465, 3953.343
1854.394, 3947.410
1856.322, 3949.634
1858.251, 3955.724
1860.179, 3954.719
1862.108, 3946.593
1864.036, 3938.147
1865.965, 3929.532
1867.893, 3924.469
1869.822, 3926.359
1871.750, 3929.969
1873.679, 3932.859
1875.607, 3935.524
1877.536, 3937.544
1879.464, 3939.141
1881.392, 3942.572
1883.321, 3947.580
1885.249, 3952.938
1887.178, 3960.015
1889.106, 3963.944
1891.035, 3961.539
1892.963, 3957.641
1894.892, 3955.508
1896.820, 3954.608
1898.749, 3953.875
1900.677, 3953.520
1902.606, 3953.940
1904.534, 3955.735
1906.463, 3957.255
1908.391, 3958.186
1910.319, 3959.137
1912.248, 3960.452
1914.176, 3961.479
1916.105, 3960.331
1918.033, 3958.707
1919.962, 3960.766
1921.890, 3966.531
1923.819, 3971.227
1925.747, 3975.472
1927.676, 3976.200
1929.604, 3970.269
1931.533, 3965.527
1933.461, 3966.260
1935.390, 3968.140
1937.318, 3968.633
1939.246, 3968.167
1941.175, 3966.955
1943.103, 3965.142
1945.032, 3964.163
1946.960, 3964.046
1948.889, 3964.010
1950.817, 3963.177
1952.746, 3963.459
1954.674, 3967.277
1956.603, 3970.497
1958.531, 3968.861
1960.460, 3965.203
1962.388, 3964.577
1964.317, 3966.673
1966.245, 3968.017
1968.173, 3968.684
1970.102, 3969.351
1972.030, 3970.177
1973.959, 3971.647
1975.887, 3974.672
1977.816, 3977.472
1979.744, 3977.765
1981.673, 3977.427
1983.601, 3978.247
1985.530, 3980.123
1987.458, 3985.411
1989.387, 3995.927
1991.315, 3999.119
1993.244, 3991.625
1995.172, 3984.259
1997.100, 3979.836
1999.029, 3976.048
2000.957, 3972.222
2002.886, 3969.247
2004.814, 3968.327
2006.743, 3968.764
2008.671, 3968.952
2010.600, 3968.804
2012.528, 3968.327
2014.457, 3966.831
2016.385, 3967.098
2018.314, 3971.072
2020.242, 3973.016
2022.171, 3967.896
2024.099, 3963.784
2026.027, 3967.918
2027.956, 3973.810
2029.884, 3973.827
2031.813, 3969.228
2033.741, 3963.725
2035.670, 3957.214
2037.598, 3951.602
2039.527, 3945.949
2041.455, 3943.418
2043.384, 3947.152
2045.312, 3949.474
2047.241, 3946.320
2049.169, 3943.115
2051.098, 3943.802
2053.026, 3945.785
2054.955, 3945.935
2056.883, 3944.620
2058.812, 3942.385
2060.740, 3939.258
2062.668, 3938.405
2064.597, 3941.006
2066.525, 3941.870
2068.454, 3937.719
2070.382, 3935.239
2072.311, 3939.947
2074.239, 3943.156
2076.168, 3937.353
2078.096, 3928.723
2080.025, 3925.303
2081.953, 3925.686
2083.882, 3924.441
2085.810, 3921.277
2087.739, 3919.722
2089.667, 3920.099
2091.595, 3920.399
2093.524, 3920.162
2095.452, 3919.048
2097.381, 3916.756
2099.309, 3913.144
2101.238, 3907.491
2103.166, 3901.526
2105.095, 3896.819
2107.023, 3893.723
2108.952, 3893.515
2110.880, 3895.985
2112.809, 3895.865
2114.737, 3891.833
2116.666, 3890.514
2118.594, 3893.603
2120.522, 3895.642
2122.451, 3894.806
2124.379, 3894.101
2126.308, 3895.835
2128.236, 3896.774
2130.165, 3895.061
2132.093, 3891.587
2134.022, 3885.174
2135.950, 3878.132
2137.879, 3878.456
2139.807, 3884.750
2141.736, 3886.010
2143.664, 3880.943
2145.593, 3877.097
2147.521, 3876.917
2149.449, 3876.299
2151.378, 3874.049
2153.306, 3873.052
2155.235, 3874.476
2157.163, 3877.076
2159.092, 3879.093
2161.020, 3880.968
2162.949, 3884.261
2164.877, 3887.001
2166.806, 3883.664
2168.734, 3874.892
2170.663, 3871.405
2172.591, 3875.031
2174.520, 3873.900
2176.448, 3866.041
2178.376, 3858.820
2180.305, 3852.715
2182.233, 3849.632
2184.162, 3853.635
2186.090, 3855.892
2188.019, 3847.583
2189.947, 3838.427
2191.876, 3840.740
2193.804, 3848.068
2195.733, 3846.900
2197.661, 3839.218
2199.590, 3836.947
2201.518, 3840.013
2203.447, 3842.166
2205.375, 3842.693
2207.303, 3842.403
2209.232, 3841.530
2211.160, 3839.579
2213.089, 3836.824
2215.017, 3833.499
2216.946, 3827.527
2218.874, 3824.232
2220.803, 3829.412
2222.731, 3836.392
2224.660, 3837.633
2226.588, 3835.043
2228.517, 3832.422
2230.445, 3829.676
2232.374, 3827.105
2234.302, 3824.955
2236.230, 3822.198
2238.159, 3818.722
2240.087, 3818.005
2242.016, 3822.467
2243.944, 3823.242
2245.873, 3815.084
2247.801, 3807.434
2249.730, 3802.789
2251.658, 3800.127
2253.587, 3800.304
2255.515, 3801.140
2257.444, 3801.855
2259.372, 3801.322
2261.301, 3795.228
2263.229, 3787.041
2265.157, 3789.363
2267.086, 3799.595
2269.014, 3802.379
2270.943, 3797.115
2272.871, 3791.934
2274.800, 3787.159
2276.728, 3784.536
2278.657, 3786.200
2280.585, 3786.697
2282.514, 3784.342
2284.442, 3781.531
2286.371, 3777.063
2288.299, 3774.373
2290.228, 3777.512
2292.156, 3780.910
2294.084, 3781.544
2296.013, 3779.453
2297.941, 3772.178
2299.870, 3763.346
2301.798, 3761.411
2303.727, 3764.477
2305.655, 3762.567
2307.584, 3755.107
2309.512, 3750.699
2311.441, 3750.233
2313.369, 3750.980
2315.298, 3754.619
2317.226, 3754.506
2319.155, 3747.139
2321.083, 3742.691
2323.011, 3745.198
2324.940, 3747.571
2326.868, 3747.267
2328.797, 3744.801
2330.725, 3738.829
2332.654, 3732.980
2334.582, 3731.737
2336.511, 3731.812
2338.439, 3729.586
2340.368, 3725.507
2342.296, 3718.525
2344.225, 3710.338
2346.153, 3707.310
2348.082, 3708.895
2350.010, 3712.755
2351.938, 3718.887
2353.867, 3720.625
2355.795, 3715.560
2357.724, 3712.556
2359.652, 3714.462
2361.581, 3714.091
2363.509, 3710.003
2365.438, 3705.104
2367.366, 3697.917
2369.295, 3693.767
2371.223, 3697.514
2373.152, 3700.606
2375.080, 3698.740
2377.009, 3694.085
2378.937, 3685.900
2380.865, 3678.243
2382.794, 3676.176
2384.722, 3676.962
2386.651, 3676.812
2388.579, 3675.834
2390.508, 3673.605
2392.436, 3670.728
2394.365, 3670.637
2396.293, 3672.614
2398.222, 3670.286
2400.150, 3662.786
2402.079, 3660.711
2404.007, 3668.028
2405.936, 3670.604
2407.864, 3665.447
2409.792, 3662.128
2411.721, 3661.674
2413.649, 3661.944
2415.578, 3662.913
2417.506, 3663.466
2419.435, 3664.621
2421.363, 3662.867
2423.292, 3653.101
2425.220, 3645.006
2427.149, 3644.946
2429.077, 3647.488
2431.006, 3651.147
2432.934, 3653.048
2434.863, 3650.468
2436.791, 3644.424
2438.719, 3632.203
2440.648, 3619.916
2442.576, 3619.667
2444.505, 3626.723
2446.433, 3628.522
2448.362, 3626.185
2450.290, 3626.014
2452.219, 3627.878
2454.147, 3627.019
2456.076, 3623.334
2458.004, 3623.661
2459.933, 3628.472
2461.861, 3629.319
2463.790, 3624.536
2465.718, 3619.524
2467.646, 3614.323
2469.575, 3610.337
2471.503, 3608.480
2473.432, 3607.392
2475.360, 3608.488
2477.289, 3608.255
2479.217, 3604.535
2481.146, 3602.426
2483.074, 3604.176
2485.003, 3606.534
2486.931, 3607.413
2488.860, 3608.152
2490.788, 3610.839
2492.717, 3611.730
2494.645, 3608.942
2496.573, 3603.221
2498.502, 3592.582
2500.430, 3582.505
2502.359, 3578.856
2504.287, 3578.180
2506.216, 3577.076
2508.144, 3574.796
2510.073, 3569.179
2512.001, 3561.859
2513.930, 3556.811
2515.858, 3553.752
2517.787, 3552.588
2519.715, 3552.463
2521.644, 3548.908
2523.572, 3542.569
2525.500, 3538.789
2527.429, 3537.561
2529.357, 3536.899
2531.286, 3536.752
2533.214, 3536.947
2535.143, 3537.544
2537.071, 3536.653
2539.000, 3534.029
2540.928, 3531.181
2542.857, 3528.183
2544.785, 3525.470
2546.714, 3523.742
2548.642, 3521.253
2550.571, 3517.420
2552.499, 3514.360
2554.427, 3512.297
2556.356, 3511.207
2558.284, 3511.527
2560.213, 3511.626
2562.141, 3510.559
2564.070, 3509.852
2565.998, 3510.557
2567.927, 3510.628
2569.855, 3508.217
2571.784, 3506.949
2573.712, 3509.081
2575.641, 3510.274
2577.569, 3506.883
2579.498, 3503.695
2581.426, 3503.887
2583.354, 3504.094
2585.283, 3503.638
2587.211, 3501.513
2589.140, 3495.604
2591.068, 3490.625
2592.997, 3491.347
2594.925, 3492.796
2596.854, 3488.660
2598.782, 3484.789
2600.711, 3488.001
2602.639, 3492.182
2604.568, 3490.375
2606.496, 3485.883
2608.425, 3483.513
2610.353, 3480.827
2612.281, 3473.536
2614.210, 3465.976
2616.138, 3465.109
2618.067, 3467.336
2619.995, 3466.928
2621.924, 3464.340
2623.852, 3459.573
2625.781, 3453.811
2627.709, 3449.765
2629.638, 3446.817
2631.566, 3443.174
2633.495, 3440.085
2635.423, 3441.399
2637.352, 3445.374
2639.280, 3446.484
2641.208, 3445.234
2643.137, 3442.706
2645.065, 3439.800
2646.994, 3441.464
2648.922, 3445.416
2650.851, 3440.395
2652.779, 3428.802
2654.708, 3423.788
2656.636, 3424.180
2658.565, 3422.876
2660.493, 3420.356
2662.422, 3420.103
2664.350, 3421.428
2666.279, 3419.163
2668.207, 3413.530
2670.135, 3408.433
2672.064, 3403.837
2673.992, 3401.377
2675.921, 3400.526
2677.849, 3397.405
2679.778, 3392.125
2681.706, 3385.215
2683.635, 3377.105
2685.563, 3375.056
2687.492, 3378.612
2689.420, 3379.349
2691.349, 3377.319
2693.277, 3375.936
2695.206, 3375.086
2697.134, 3371.982
2699.063, 3366.716
2700.991, 3364.700
2702.919, 3365.896
2704.848, 3365.657
2706.776, 3363.899
2708.705, 3358.231
2710.633, 3348.852
2712.562, 3345.145
2714.490, 3346.784
2716.419, 3346.774
2718.347, 3345.127
2720.276, 3342.407
2722.204, 3339.233
2724.133, 3341.062
2726.061, 3347.341
2727.990, 3347.035
2729.918, 3340.571
2731.846, 3335.915
2733.775, 3332.880
2735.703, 3331.836
2737.632, 3332.083
2739.560, 3329.723
2741.489, 3325.115
2743.417, 3319.858
2745.346, 3314.302
2747.274, 3309.637
2749.203, 3306.272
2751.131, 3307.882
2753.060, 3312.107
2754.988, 3308.392
2756.917, 3299.400
2758.845, 3297.124
2760.773, 3299.581
2762.702, 3298.107
2764.630, 3294.324
2766.559, 3293.229
2768.487, 3293.413
2770.416, 3290.586
2772.344, 3286.056
2774.273, 3283.614
2776.201, 3282.378
2778.130, 3281.648
2780.058, 3280.130
2781.987, 3274.404
2783.915, 3267.376
2785.844, 3265.239
2787.772, 3264.602
2789.700, 3258.471
2791.629, 3251.046
2793.557, 3248.570
2795.486, 3248.042
2797.414, 3246.608
2799.343, 3243.895
2801.271, 3237.369
2803.200, 3231.339
2805.128, 3232.649
2807.057, 3234.551
2808.985, 3232.591
2810.914, 3227.470
2812.842, 3217.525
2814.771, 3208.082
2816.699, 3203.192
2818.627, 3200.737
2820.556, 3199.873
2822.484, 3199.987
2824.413, 3201.336
2826.341, 3202.082
2828.270, 3199.074
2830.198, 3197.690
2832.127, 3202.756
2834.055, 3204.018
2835.984, 3195.549
2837.912, 3187.397
2839.841, 3184.493
2841.769, 3181.340
2843.698, 3177.715
2845.626, 3172.192
2847.554, 3163.335
2849.483, 3156.775
2851.411, 3154.883
2853.340, 3152.079
2855.268, 3145.613
2857.197, 3142.865
2859.125, 3144.989
2861.054, 3145.862
2862.982, 3144.753
2864.911, 3143.531
2866.839, 3142.331
2868.768, 3141.763
2870.696, 3141.905
2872.625, 3139.692
2874.553, 3135.188
2876.481, 3133.342
2878.410, 3133.375
2880.338, 3125.911
2882.267, 3112.718
2884.195, 3105.034
2886.124, 3102.304
2888.052, 3105.508
2889.981, 3110.392
2891.909, 3104.556
2893.838, 3094.690
2895.766, 3094.121
2897.695, 3097.458
2899.623, 3096.921
2901.552, 3094.937
2903.480, 3094.123
2905.408, 3092.999
2907.337, 3090.609
2909.265, 3086.971
2911.194, 3081.759
2913.122, 3076.661
2915.051, 3072.582
2916.979, 3069.423
2918.908, 3068.099
2920.836, 3065.570
2922.765, 3058.111
2924.693, 3055.837
2926.622, 3065.882
2928.550, 3071.648
2930.479, 3067.540
2932.407, 3061.690
2934.335, 3053.586
2936.264, 3049.865
2938.192, 3052.052
2940.121, 3051.067
2942.049, 3045.334
2943.978, 3040.640
2945.906, 3037.011
2947.835, 3031.297
2949.763, 3024.188
2951.692, 3018.468
2953.620, 3014.798
2955.549, 3016.576
2957.477, 3021.270
2959.406, 3021.662
2961.334, 3019.865
2963.262, 3020.150
2965.191, 3019.556
2967.119, 3012.506
2969.048, 3004.927
2970.976, 3004.202
2972.905, 3003.623
2974.833, 2997.634
2976.762, 2992.551
2978.690, 2993.164
2980.619, 2993.293
2982.547, 2989.968
2984.476, 2988.124
2986.404, 2990.323
2988.333, 2990.569
2990.261, 2987.428
2992.189, 2981.009
2994.118, 2970.242
2996.046, 2966.259
2997.975, 2970.879
2999.903, 2969.386
3001.832, 2961.669
3003.760, 2956.252
3005.689, 2952.783
3007.617, 2948.356
3009.546, 2943.507
3011.474, 2938.727
3013.403, 2935.269
3015.331, 2938.057
3017.260, 2941.037
3019.188, 2936.543
3021.116, 2930.066
3023.045, 2926.348
3024.973, 2922.786
3026.902, 2916.067
3028.830, 2912.469
3030.759, 2916.649
3032.687, 2919.066
3034.616, 2916.025
3036.544, 2911.460
3038.473, 2904.841
3040.401, 2901.212
3042.330, 2901.367
3044.258, 2900.868
3046.187, 2899.267
3048.115, 2897.102
3050.043, 2894.134
3051.972, 2888.857
3053.900, 2882.406
3055.829, 2878.350
3057.757, 2875.657
3059.686, 2872.862
3061.614, 2869.737
3063.543, 2865.256
3065.471, 2861.339
3067.400, 2859.886
3069.328, 2858.335
3071.257, 2855.418
3073.185, 2850.916
3075.114, 2843.129
3077.042, 2837.517
3078.970, 2837.249
3080.899, 2835.880
3082.827, 2833.245
3084.756, 2830.739
3086.684, 2828.608
3088.613, 2826.320
3090.541, 2823.885
3092.470, 2821.181
3094.398, 2818.110
3096.327, 2814.054
3098.255, 2809.742
3100.184, 2805.495
3102.112, 2802.594
3104.041, 2804.188
3105.969, 2805.370
3107.897, 2803.841
3109.826, 2800.447
3111.754, 2793.467
3113.683, 2788.529
3115.611, 2786.757
3117.540, 2784.913
3119.468, 2782.192
3121.397, 2779.582
3123.325, 2777.239
3125.254, 2774.155
3127.182, 2770.780
3129.111, 2768.857
3131.039, 2767.477
3132.968, 2762.622
3134.896, 2758.026
3136.824, 2760.488
3138.753, 2762.855
3140.681, 2758.073
3142.610, 2752.981
3144.538, 2751.303
3146.467, 2749.187
3148.395, 2745.727
3150.324, 2741.098
3152.252, 2734.875
3154.181, 2729.213
3156.109, 2724.364
3158.038, 2721.974
3159.966, 2721.710
3161.895, 2720.034
3163.823, 2717.272
3165.751, 2712.966
3167.680, 2709.057
3169.608, 2708.826
3171.537, 2708.437
3173.465, 2703.716
3175.394, 2699.309
3177.322, 2697.649
3179.251, 2695.536
3181.179, 2692.264
3183.108, 2688.666
3185.036, 2685.095
3186.965, 2680.511
3188.893, 2674.859
3190.822, 2667.579
3192.750, 2660.001
3194.678, 2659.272
3196.607, 2661.230
3198.535, 2661.297
3200.464, 2658.479
3202.392, 2649.390
3204.321, 2641.633
3206.249, 2638.603
3208.178, 2638.468
3210.106, 2642.673
3212.035, 2644.645
3213.963, 2643.461
3215.892, 2639.652
3217.820, 2633.408
3219.749, 2631.374
3221.677, 2631.558
3223.605, 2624.188
3225.534, 2615.506
3227.462, 2616.602
3229.391, 2618.431
3231.319, 2612.192
3233.248, 2605.091
3235.176, 2599.772
3237.105, 2595.421
3239.033, 2592.120
3240.962, 2589.542
3242.890, 2587.842
3244.819, 2587.110
3246.747, 2586.988
3248.676, 2584.088
3250.604, 2579.616
3252.532, 2575.431
3254.461, 2572.774
3256.389, 2574.847
3258.318, 2575.535
3260.246, 2567.541
3262.175, 2563.069
3264.103, 2566.918
3266.032, 2568.906
3267.960, 2566.551
3269.889, 2565.612
3271.817, 2565.775
3273.746, 2561.648
3275.674, 2554.652
3277.603, 2546.739
3279.531, 2540.688
3281.459, 2541.626
3283.388, 2543.938
3285.316, 2545.642
3287.245, 2544.912
3289.173, 2540.250
3291.102, 2537.529
3293.030, 2538.298
3294.959, 2533.103
3296.887, 2521.987
3298.816, 2517.055
3300.744, 2515.953
3302.673, 2514.189
3304.601, 2511.501
3306.530, 2506.802
3308.458, 2502.137
3310.386, 2497.185
3312.315, 2494.719
3314.243, 2496.558
3316.172, 2497.955
3318.100, 2498.671
3320.029, 2491.658
3321.957, 2480.019
3323.886, 2484.252
3325.814, 2494.089
3327.743, 2489.109
3329.671, 2480.961
3331.600, 2478.375
3333.528, 2476.633
3335.457, 2473.055
3337.385, 2471.934
3339.313, 2476.864
3341.242, 2474.229
3343.170, 2464.662
3345.099, 2455.396
3347.027, 2448.062
3348.956, 2447.536
3350.884, 2448.960
3352.813, 2447.127
3354.741, 2444.634
3356.670, 2443.298
3358.598, 2440.258
3360.527, 2434.292
3362.455, 2430.448
3364.384, 2429.059
3366.312, 2426.132
3368.240, 2422.548
3370.169, 2422.731
3372.097, 2423.304
3374.026, 2419.556
3375.954, 2416.160
3377.883, 2417.593
3379.811, 2415.074
3381.740, 2403.776
3383.668, 2398.906
3385.597, 2401.359
3387.525, 2400.154
3389.454, 2396.577
3391.382, 2395.060
3393.311, 2393.994
3395.239, 2390.438
3397.167, 2388.169
3399.096, 2390.985
3401.024, 2392.018
3402.953, 2389.851
3404.881, 2387.565
3406.810, 2385.319
3408.738, 2382.489
3410.667, 2379.419
3412.595, 2377.625
3414.524, 2375.749
3416.452, 2372.363
3418.381, 2369.167
3420.309, 2367.691
3422.238, 2363.925
3424.166, 2355.884
3426.094, 2355.082
3428.023, 2360.313
3429.951, 2360.738
3431.880, 2358.016
3433.808, 2353.445
3435.737, 2349.145
3437.665, 2347.392
3439.594, 2344.258
3441.522, 2337.088
3443.451, 2332.359
3445.379, 2330.450
3447.308, 2327.504
3449.236, 2324.005
3451.165, 2320.691
3453.093, 2318.406
3455.021, 2318.145
3456.950, 2318.259
3458.878, 2318.649
3460.807, 2316.822
3462.735, 2312.304
3464.664, 2310.359
3466.592, 2310.151
3468.521, 2303.150
3470.449, 2294.810
3472.378, 2292.724
3474.306, 2292.382
3476.235, 2291.578
3478.163, 2289.960
3480.092, 2287.039
3482.020, 2283.276
3483.948, 2278.781
3485.877, 2279.482
3487.805, 2282.345
3489.734, 2284.587
3491.662, 2282.720
3493.591, 2272.102
3495.519, 2263.161
3497.448, 2259.324
3499.376, 2258.187
3501.305, 2259.314
3503.233, 2259.194
3505.162, 2259.528
3507.090, 2268.794
3509.019, 2273.664
3510.947, 2261.517
3512.875, 2250.555
3514.804, 2248.113
3516.732, 2246.022
3518.661, 2244.056
3520.589, 2239.774
3522.518, 2236.103
3524.446, 2242.393
3526.375, 2248.840
3528.303, 2248.000
3530.232, 2244.247
3532.160, 2238.078
3534.089, 2234.420
3536.017, 2233.765
3537.946, 2232.140
3539.874, 2229.785
3541.802, 2226.234
3543.731, 2223.273
3545.659, 2222.538
3547.588, 2222.195
3549.516, 2222.172
3551.445, 2220.036
3553.373, 2216.210
3555.302, 2216.518
3557.230, 2217.153
3559.159, 2210.260
3561.087, 2204.774
3563.016, 2207.411
3564.944, 2206.453
3566.873, 2198.040
3568.801, 2191.869
3570.729, 2188.092
3572.658, 2187.689
3574.586, 2188.195
3576.515, 2186.231
3578.443, 2185.068
3580.372, 2186.584
3582.300, 2186.265
3584.229, 2183.509
3586.157, 2176.940
3588.086, 2169.881
3590.014, 2172.110
3591.943, 2174.968
3593.871, 2171.201
3595.800, 2167.561
3597.728, 2166.044
3599.656, 2166.089
3601.585, 2167.103
3603.513, 2166.227
3605.442, 2163.693
3607.370, 2158.714
3609.299, 2154.322
3611.227, 2153.216
3613.156, 2149.919
3615.084, 2143.963
3617.013, 2145.720
3618.941, 2150.721
3620.870, 2143.647
3622.798, 2136.705
3624.727, 2141.027
3626.655, 2144.431
3628.583, 2143.665
3630.512, 2140.802
3632.440, 2136.563
3634.369, 2135.613
3636.297, 2135.013
3638.226, 2129.967
3640.154, 2125.880
3642.083, 2127.853
3644.011, 2124.110
3645.940, 2115.105
3647.868, 2116.920
3649.797, 2123.549
3651.725, 2121.497
3653.654, 2118.722
3655.582, 2121.993
3657.510, 2120.385
3659.439, 2112.515
3661.367, 2103.403
3663.296, 2095.648
3665.224, 2098.603
3667.153, 2102.833
3669.081, 2098.659
3671.010, 2098.260
3672.938, 2104.697
3674.867, 2105.485
3676.795, 2101.206
3678.724, 2096.876
3680.652, 2094.109
3682.581, 2096.177
3684.509, 2096.551
3686.438, 2092.857
3688.366, 2089.354
3690.294, 2086.386
3692.223, 2085.167
3694.151, 2084.103
3696.080, 2080.680
3698.008, 2078.540
3699.937, 2080.335
3701.865, 2079.397
3703.794, 2075.503
3705.722, 2071.339
3707.651, 2067.254
3709.579, 2062.948
3711.508, 2060.026
3713.436, 2059.760
3715.365, 2059.257
3717.293, 2058.261
3719.221, 2055.782
3721.150, 2052.894
3723.078, 2050.910
3725.007, 2049.410
3726.935, 2047.694
3728.864, 2048.122
3730.792, 2050.056
3732.721, 2045.234
3734.649, 2038.420
3736.578, 2037.939
3738.506, 2037.057
3740.435, 2031.657
3742.363, 2029.178
3744.292, 2029.739
3746.220, 2029.218
3748.148, 2028.782
3750.077, 2031.240
3752.005, 2032.108
3753.934, 2028.228
3755.862, 2027.401
3757.791, 2028.878
3759.719, 2023.401
3761.648, 2016.072
3763.576, 2012.916
3765.505, 2010.603
3767.433, 2007.760
3769.362, 2007.007
3771.290, 2007.834
3773.219, 2006.376
3775.147, 2005.229
3777.075, 2007.856
3779.004, 2008.742
3780.932, 2005.664
3782.861, 2003.575
3784.789, 2001.901
3786.718, 1998.055
3788.646, 1994.632
3790.575, 1994.172
3792.503, 1992.917
3794.432, 1990.110
3796.360, 1990.531
3798.289, 1991.919
3800.217, 1988.637
3802.146, 1984.463
3804.074, 1980.910
3806.002, 1978.183
3807.931, 1976.146
3809.859, 1975.214
3811.788, 1977.034
3813.716, 1989.772
3815.645, 1995.032
3817.573, 1983.985
3819.502, 1975.107
3821.430, 1969.478
3823.359, 1965.402
3825.287, 1963.227
3827.216, 1965.522
3829.144, 1965.353
3831.073, 1960.769
3833.001, 1958.428
3834.929, 1957.330
3836.858, 1954.073
3838.786, 1951.522
3840.715, 1951.809
3842.643, 1950.780
3844.572, 1947.964
3846.500, 1946.422
3848.429, 1944.449
3850.357, 1938.637
3852.286, 1934.757
3854.214, 1934.490
3856.143, 1933.928
3858.071, 1933.171
3860.000, 1934.543
3861.928, 1936.275
3863.856, 1938.234
3865.785, 1936.727
3867.713, 1931.875
3869.642, 1931.371
3871.570, 1932.409
3873.499, 1930.044
3875.427, 1926.586
3877.356, 1921.737
3879.284, 1920.951
3881.213, 1922.693
3883.141, 1920.030
3885.070, 1915.520
3886.998, 1910.655
3888.927, 1908.080
3890.855, 1908.076
3892.783, 1905.570
3894.712, 1903.506
3896.640, 1906.900
3898.569, 1908.225
3900.497, 1904.433
3902.426, 1898.002
3904.354, 1892.122
3906.283, 1895.998
3908.211, 1899.503
3910.140, 1896.643
3912.068, 1892.488
3913.997, 1888.325
3915.925, 1885.494
3917.854, 1884.033
3919.782, 1886.904
3921.710, 1885.086
3923.639, 1877.119
3925.567, 1878.318
3927.496, 1884.376
3929.424, 1884.193
3931.353, 1881.577
3933.281, 1880.331
3935.210, 1878.303
3937.138, 1875.041
3939.067, 1871.433
3940.995, 1868.680
3942.924, 1868.113
3944.852, 1865.641
3946.781, 1860.339
3948.709, 1857.500
3950.637, 1856.951
3952.566, 1855.040
3954.494, 1852.342
3956.423, 1849.086
3958.351, 1846.594
3960.280, 1845.064
3962.208, 1842.178
3964.137, 1840.244
3966.065, 1839.798
3967.994, 1837.736
3969.922, 1834.427
3971.851, 1835.379
3973.779, 1835.600
3975.708, 1831.352
3977.636, 1833.322
3979.564, 1837.725
3981.493, 1829.415
3983.421, 1823.053
3985.350, 1829.249
3987.278, 1830.298
3989.207, 1826.336
3991.135, 1824.067
3993.064, 1820.993
3994.992, 1819.384
3996.921, 1818.126
3998.849, 1816.155
4000.778, 1813.997
4002.706, 1811.563
4004.635, 1808.257
4006.563, 1805.367
4008.491, 1804.310
4010.420, 1805.351
4012.348, 1806.320
4014.277, 1802.523
4016.205, 1800.026
4018.134, 1800.051
4020.062, 1797.836
4021.991, 1795.674
4023.919, 1796.232
4025.848, 1797.798
4027.776, 1798.568
4029.705, 1795.480
4031.633, 1792.830
4033.562, 1795.047
4035.490, 1795.213
4037.418, 1792.866
4039.347, 1790.246
4041.275, 1787.087
4043.204, 1786.277
4045.132, 1786.636
4047.061, 1786.507
4048.989, 1782.365
4050.918, 1775.670
4052.846, 1771.541
4054.775, 1770.566
4056.703, 1773.179
4058.632, 1772.936
4060.560, 1769.946
4062.489, 1767.475
4064.417, 1765.836
4066.345, 1765.107
4068.274, 1764.254
4070.202, 1762.905
4072.131, 1759.273
4074.059, 1755.599
4075.988, 1752.969
4077.916, 1752.797
4079.845, 1754.599
4081.773, 1755.305
4083.702, 1754.013
4085.630, 1748.600
4087.559, 1744.944
4089.487, 1743.901
4091.416, 1741.893
4093.344, 1740.018
4095.272, 1739.142
4097.201, 1739.849
4099.129, 1741.737
4101.058, 1736.169
4102.986, 1728.898
4104.915, 1726.411
4106.843, 1726.776
4108.772, 1729.022
4110.700, 1725.107
4112.629, 1720.222
4114.557, 1721.105
4116.486, 1721.475
4118.414, 1719.424
4120.343, 1719.281
4122.271, 1719.224
4124.200, 1715.503
4126.128, 1712.788
4128.057, 1713.093
4129.985, 1710.100
4131.914, 1706.371
4133.842, 1706.202
4135.771, 1707.105
4137.699, 1709.279
4139.627, 1707.621
4141.556, 1704.378
4143.484, 1706.293
4145.413, 1706.237
4147.341, 1701.244
4149.270, 1700.765
4151.198, 1701.251
4153.126, 1696.755
4155.055, 1694.337
4156.983, 1696.328
4158.912, 1695.824
4160.840, 1693.513
4162.769, 1691.027
4164.697, 1688.241
4166.626, 1686.847
4168.554, 1688.617
4170.483, 1690.998
4172.411, 1691.369
4174.340, 1686.608
4176.268, 1680.777
4178.197, 1678.402
4180.125, 1677.334
4182.054, 1674.485
4183.982, 1671.627
4185.911, 1668.410
4187.839, 1672.055
4189.768, 1677.045
4191.696, 1673.273
4193.625, 1671.261
4195.553, 1672.355
4197.481, 1667.225
4199.410, 1660.330
4201.338, 1656.229
4203.267, 1655.418
4205.195, 1657.325
4207.124, 1655.224
4209.052, 1653.421
4210.980, 1656.140
4212.909, 1656.273
4214.837, 1653.466
4216.766, 1648.146
4218.694, 1644.131
4220.623, 1648.089
4222.551, 1648.838
4224.480, 1645.634
4226.408, 1643.347
4228.337, 1641.492
4230.265, 1640.132
4232.194, 1641.323
4234.122, 1643.846
4236.051, 1645.568
4237.979, 1646.628
4239.908, 1646.824
4241.836, 1646.969
4243.765, 1645.779
4245.693, 1639.510
4247.622, 1633.288
4249.550, 1628.345
4251.479, 1625.379
4253.407, 1624.045
4255.335, 1624.691
4257.264, 1624.744
4259.192, 1623.980
4261.121, 1625.561
4263.049, 1625.819
4264.978, 1618.477
4266.906, 1616.058
4268.834, 1618.546
4270.763, 1618.885
4272.691, 1617.690
4274.620, 1615.296
4276.548, 1613.467
4278.477, 1612.723
4280.405, 1614.008
4282.334, 1616.040
4284.262, 1618.207
4286.191, 1619.321
4288.119, 1617.716
4290.048, 1608.203
4291.976, 1604.306
4293.905, 1608.698
4295.833, 1609.290
4297.762, 1607.266
4299.690, 1601.283
4301.619, 1602.287
4303.547, 1608.739
4305.476, 1609.372
4307.404, 1606.371
4309.333, 1600.069
4311.261, 1599.903
4313.189, 1602.501
4315.118, 1596.574
4317.046, 1595.083
4318.975, 1602.429
4320.903, 1603.441
4322.832, 1600.537
4324.760, 1595.797
4326.688, 1593.543
4328.617, 1593.756
4330.545, 1590.698
4332.474, 1586.539
4334.402, 1580.460
4336.331, 1584.090
4338.259, 1592.532
4340.188, 1591.144
4342.116, 1590.514
4344.045, 1595.061
4345.973, 1593.049
4347.902, 1588.512
4349.830, 1585.381
4351.759, 1584.962
4353.687, 1586.824
4355.616, 1587.761
4357.544, 1585.128
4359.473, 1575.221
4361.401, 1574.097
4363.330, 1577.192
4365.258, 1573.597
4367.187, 1571.426
4369.115, 1572.797
4371.043, 1571.206
4372.972, 1570.447
4374.900, 1574.028
4376.829, 1577.300
4378.757, 1578.180
4380.686, 1568.690
4382.614, 1563.414
4384.542, 1567.385
4386.471, 1565.139
4388.399, 1559.726
4390.328, 1553.982
4392.256, 1552.567
4394.185, 1554.651
4396.113, 1553.731
4398.042, 1553.592
4399.970, 1556.734
4401.899, 1556.945
4403.827, 1554.920
4405.756, 1551.308
4407.684, 1548.698
4409.613, 1547.462
4411.541, 1546.463
4413.470, 1546.168
4415.398, 1547.403
4417.327, 1546.919
4419.255, 1546.120
4421.184, 1549.261
4423.112, 1549.213
4425.041, 1544.699
4426.969, 1543.403
4428.897, 1542.923
4430.826, 1542.131
4432.754, 1537.828
4434.683, 1532.989
4436.611, 1535.343
4438.540, 1534.772
4440.468, 1529.937
4442.396, 1527.286
4444.325, 1527.652
4446.253, 1532.613
4448.182, 1533.912
4450.110, 1533.038
4452.039, 1533.878
4453.967, 1534.626
4455.896, 1534.864
4457.824, 1532.963
4459.753, 1531.285
4461.681, 1532.047
4463.610, 1527.320
4465.538, 1521.870
4467.467, 1525.589
4469.395, 1527.670
4471.324, 1526.520
4473.252, 1526.741
4475.181, 1523.664
4477.109, 1514.496
4479.038, 1515.058
4480.966, 1520.641
4482.895, 1526.121
4484.823, 1525.465
4486.751, 1520.188
4488.680, 1520.709
4490.608, 1520.894
4492.537, 1517.893
4494.465, 1513.395
4496.394, 1510.765
4498.322, 1515.303
4500.250, 1512.491
4502.179, 1504.822
4504.107, 1501.617
4506.036, 1501.043
4507.964, 1502.204
4509.893, 1503.258
4511.821, 1503.619
4513.750, 1502.925
4515.678, 1501.135
4517.607, 1499.048
4519.535, 1496.862
4521.464, 1498.704
4523.392, 1503.842
4525.321, 1505.637
4527.249, 1504.052
4529.178, 1498.994
4531.106, 1497.088
4533.035, 1495.653
4534.963, 1491.400
4536.892, 1493.039
4538.820, 1496.663
4540.749, 1490.145
4542.677, 1488.824
4544.605, 1494.506
4546.534, 1492.911
4548.462, 1489.923
4550.391, 1488.613
4552.319, 1488.974
4554.248, 1489.006
4556.176, 1485.990
4558.104, 1485.208
4560.033, 1486.476
4561.961, 1488.722
4563.890, 1490.590
4565.818, 1491.041
4567.747, 1483.450
4569.675, 1476.821
4571.604, 1476.845
4573.532, 1476.432
4575.461, 1476.241
4577.389, 1477.643
4579.318, 1476.708
4581.246, 1474.720
4583.175, 1475.238
4585.103, 1475.822
4587.032, 1475.853
4588.960, 1475.483
4590.889, 1474.179
4592.817, 1471.114
4594.746, 1472.162
4596.674, 1472.877
4598.603, 1468.746
4600.531, 1469.385
4602.459, 1471.031
4604.388, 1464.288
4606.316, 1461.428
4608.245, 1463.014
4610.173, 1465.250
4612.102, 1465.680
4614.030, 1463.523
4615.958, 1462.899
4617.887, 1461.986
4619.815, 1459.804
4621.744, 1456.942
4623.672, 1454.508
4625.601, 1453.317
4627.529, 1453.854
4629.458, 1454.752
4631.386, 1451.821
4633.315, 1454.576
4635.243, 1461.796
4637.172, 1456.160
4639.100, 1451.391
4641.029, 1451.475
4642.957, 1447.540
4644.886, 1445.327
4646.814, 1448.377
4648.743, 1450.538
4650.671, 1452.676
4652.600, 1458.081
4654.528, 1454.721
4656.457, 1446.349
4658.385, 1439.960
4660.313, 1437.283
4662.242, 1437.239
4664.170, 1435.572
4666.099, 1435.951
4668.027, 1438.698
4669.956, 1433.623
4671.884, 1431.175
4673.813, 1436.240
4675.741, 1437.463
4677.669, 1436.387
4679.598, 1433.996
4681.526, 1433.233
4683.455, 1433.273
4685.383, 1432.569
4687.312, 1434.192
4689.240, 1436.047
4691.169, 1432.985
4693.097, 1430.408
4695.026, 1429.356
4696.954, 1432.937
4698.883, 1430.727
4700.811, 1421.947
4702.740, 1419.529
4704.668, 1418.847
4706.597, 1418.154
4708.525, 1419.768
4710.454, 1419.861
4712.382, 1416.086
4714.311, 1414.834
4716.239, 1415.807
4718.167, 1420.533
4720.096, 1417.204
4722.024, 1411.882
4723.953, 1412.785
4725.881, 1412.815
4727.810, 1411.249
4729.738, 1406.984
4731.667, 1407.336
4733.595, 1410.320
4735.523, 1404.703
4737.452, 1405.503
4739.380, 1412.613
4741.309, 1410.141
4743.237, 1408.174
4745.166, 1409.216
4747.094, 1407.201
4749.023, 1404.180
4750.951, 1401.144
4752.880, 1400.467
4754.808, 1399.805
4756.737, 1397.982
4758.665, 1396.524
4760.594, 1396.744
4762.522, 1400.442
4764.451, 1400.422
4766.379, 1398.540
4768.308, 1396.307
4770.236, 1396.528
4772.165, 1396.432
4774.093, 1390.693
4776.021, 1390.653
4777.950, 1392.557
4779.878, 1388.749
4781.807, 1383.799
4783.735, 1381.242
4785.664, 1388.791
4787.592, 1391.019
4789.521, 1388.362
4791.449, 1390.294
4793.377, 1389.947
4795.306, 1386.964
4797.234, 1384.041
4799.163, 1382.787
4801.091, 1382.532
4803.020, 1374.713
4804.948, 1370.909
4806.877, 1373.400
4808.805, 1377.865
4810.734, 1379.215
4812.662, 1376.404
4814.591, 1383.891
4816.519, 1384.819
4818.448, 1374.205
4820.376, 1375.808
4822.305, 1379.367
4824.233, 1379.724
4826.162, 1376.260
4828.090, 1373.129
4830.019, 1372.601
4831.947, 1379.828
4833.875, 1382.183
4835.804, 1370.828
4837.732, 1375.553
4839.661, 1377.402
4841.589, 1363.621
4843.518, 1358.281
4845.446, 1360.368
4847.375, 1370.167
4849.303, 1368.236
4851.231, 1364.277
4853.160, 1365.774
4855.088, 1367.539
4857.017, 1367.371
4858.945, 1362.869
4860.874, 1363.659
4862.802, 1365.231
4864.731, 1363.715
4866.659, 1361.206
4868.588, 1358.087
4870.516, 1353.546
4872.445, 1355.174
4874.373, 1357.045
4876.302, 1353.840
4878.230, 1349.264
4880.159, 1347.732
4882.087, 1355.254
4884.016, 1356.513
4885.944, 1354.739
4887.873, 1352.831
4889.801, 1348.965
4891.729, 1346.846
4893.658, 1352.316
4895.586, 1349.140
4897.515, 1344.597
4899.443, 1344.583
4901.372, 1347.260
4903.300, 1349.963
4905.229, 1350.923
4907.157, 1347.917
4909.085, 1344.161
4911.014, 1341.745
4912.942, 1342.016
4914.871, 1341.702
4916.799, 1338.454
4918.728, 1335.410
4920.656, 1332.776
4922.585, 1330.655
4924.513, 1330.272
4926.442, 1333.508
4928.370, 1341.068
4930.299, 1339.048
4932.227, 1335.313
4934.156, 1333.934
4936.084, 1331.364
4938.013, 1333.441
4939.941, 1340.623
4941.870, 1329.229
4943.798, 1323.679
4945.727, 1332.358
4947.655, 1333.634
4949.583, 1331.401
4951.512, 1327.622
4953.440, 1325.836
4955.369, 1324.935
4957.297, 1324.002
4959.226, 1320.282
4961.154, 1314.814
4963.083, 1310.961
4965.011, 1322.564
4966.939, 1322.590
4968.868, 1312.841
4970.796, 1308.517
4972.725, 1309.940
4974.653, 1314.435
4976.582, 1317.789
4978.510, 1318.083
4980.439, 1316.584
4982.367, 1314.545
4984.296, 1314.896
4986.224, 1315.990
4988.153, 1315.973
4990.081, 1316.308
4992.010, 1314.431
4993.938, 1307.069
4995.867, 1306.893
4997.795, 1308.938
4999.724, 1309.553
5001.652, 1309.778
5003.581, 1309.244
5005.509, 1307.613
5007.438, 1302.258
5009.366, 1299.923
5011.294, 1302.524
5013.223, 1301.248
5015.151, 1301.649
5017.080, 1303.059
5019.008, 1293.857
5020.937, 1293.636
5022.865, 1300.606
5024.793, 1299.398
5026.722, 1294.271
5028.650, 1297.251
5030.579, 1298.458
5032.507, 1297.989
5034.436, 1290.822
5036.364, 1292.304
5038.293, 1290.320
5040.221, 1288.193
5042.150, 1290.892
5044.078, 1284.700
5046.007, 1287.323
5047.935, 1286.426
5049.864, 1287.141
5051.792, 1284.368
5053.721, 1282.671
5055.649, 1284.464
5057.578, 1284.325
5059.506, 1281.150
5061.435, 1281.967
5063.363, 1275.653
5065.292, 1275.595
5067.220, 1278.239
5069.148, 1275.240
5071.077, 1276.120
5073.005, 1275.523
5074.934, 1268.210
5076.862, 1272.308
5078.791, 1281.189
5080.719, 1279.457
5082.647, 1277.763
5084.576, 1280.061
5086.504, 1278.544
5088.433, 1273.632
5090.361, 1268.139
5092.290, 1273.092
5094.218, 1273.509
5096.147, 1270.677
5098.075, 1273.516
5100.004, 1269.521
5101.932, 1265.179
5103.861, 1269.816
5105.789, 1271.314
5107.718, 1270.167
5109.646, 1267.015
5111.575, 1266.123
5113.503, 1266.940
5115.432, 1268.288
5117.360, 1263.829
5119.289, 1265.360
5121.217, 1270.418
5123.146, 1262.856
5125.074, 1264.821
5127.002, 1269.374
5128.931, 1263.457
5130.859, 1259.152
5132.788, 1258.906
5134.716, 1263.713
5136.645, 1258.820
5138.573, 1256.318
5140.501, 1260.128
5142.430, 1259.195
5144.358, 1259.384
5146.287, 1261.148
5148.215, 1263.137
5150.144, 1261.823
5152.072, 1260.106
5154.001, 1262.968
5155.929, 1261.438
5157.858, 1260.092
5159.786, 1261.325
5161.715, 1256.994
5163.643, 1253.161
5165.572, 1252.000
5167.500, 1253.799
5169.429, 1255.635
5171.357, 1257.358
5173.286, 1260.272
5175.214, 1258.423
5177.143, 1256.271
5179.071, 1257.841
5181.000, 1257.559
5182.928, 1257.353
5184.856, 1257.470
5186.785, 1250.378
5188.713, 1251.048
5190.642, 1256.992
5192.570, 1256.221
5194.499, 1259.096
5196.427, 1259.665
5198.355, 1250.427
5200.284, 1244.124
5202.212, 1242.904
5204.141, 1246.639
5206.069, 1249.002
5207.998, 1247.217
5209.926, 1244.552
5211.855, 1251.740
5213.783, 1246.296
5215.712, 1239.353
5217.640, 1243.923
5219.569, 1241.700
5221.497, 1241.040
5223.426, 1244.092
5225.354, 1243.474
5227.283, 1242.778
5229.211, 1242.606
5231.140, 1244.036
5233.068, 1237.424
5234.997, 1231.958
5236.925, 1234.711
5238.854, 1235.320
5240.782, 1234.542
5242.710, 1233.282
5244.639, 1233.732
5246.567, 1232.298
5248.496, 1230.232
5250.424, 1229.747
5252.353, 1231.841
5254.281, 1231.928
5256.209, 1228.634
5258.138, 1232.950
5260.066, 1232.856
5261.995, 1228.236
5263.923, 1224.462
5265.852, 1225.650
5267.780, 1227.197
5269.709, 1225.052
5271.637, 1223.039
5273.566, 1222.078
5275.494, 1222.397
5277.423, 1224.440
5279.351, 1224.298
5281.280, 1223.797
5283.208, 1226.326
5285.137, 1226.729
5287.065, 1224.354
5288.994, 1220.162
5290.922, 1221.284
5292.851, 1224.260
5294.779, 1226.080
5296.708, 1222.714
5298.636, 1222.937
5300.564, 1220.755
5302.493, 1213.345
5304.421, 1217.008
5306.350, 1217.686
5308.278, 1215.994
5310.207, 1220.318
5312.135, 1215.512
5314.063, 1211.252
5315.992, 1214.612
5317.920, 1213.180
5319.849, 1214.093
5321.777, 1215.714
5323.706, 1209.657
5325.634, 1202.158
5327.563, 1199.427
5329.491, 1204.153
5331.420, 1202.476
5333.348, 1200.226
5335.277, 1199.037
5337.205, 1198.009
5339.134, 1197.411
5341.062, 1198.417
5342.991, 1201.327
5344.919, 1196.944
5346.848, 1197.816
5348.776, 1201.582
5350.705, 1194.938
5352.633, 1192.507
5354.562, 1192.761
5356.490, 1193.801
5358.418, 1193.390
5360.347, 1191.589
5362.275, 1189.830
5364.204, 1190.710
5366.132, 1190.300
5368.061, 1190.959
5369.989, 1193.486
5371.917, 1190.964
5373.846, 1187.889
5375.774, 1185.728
5377.703, 1185.090
5379.631, 1185.278
5381.560, 1182.807
5383.488, 1178.119
5385.417, 1182.510
5387.345, 1182.320
5389.274, 1179.081
5391.202, 1176.331
5393.131, 1182.439
5395.059, 1184.452
5396.988, 1180.322
5398.916, 1179.793
5400.845, 1179.082
5402.773, 1178.835
5404.702, 1179.574
5406.630, 1175.162
5408.559, 1175.647
5410.487, 1179.167
5412.416, 1177.069
5414.344, 1172.040
5416.272, 1170.420
5418.201, 1174.041
5420.129, 1173.170
5422.058, 1171.503
5423.986, 1169.547
5425.915, 1167.031
5427.843, 1164.910
5429.771, 1164.634
5431.700, 1165.485
5433.628, 1163.699
5435.557, 1164.467
5437.485, 1167.004
5439.414, 1169.793
5441.342, 1163.160
5443.271, 1161.708
5445.199, 1163.711
5447.128, 1162.993
5449.056, 1159.589
5450.985, 1154.366
5452.913, 1149.883
5454.842, 1153.974
5456.770, 1155.346
5458.699, 1154.255
5460.627, 1152.078
5462.556, 1155.614
5464.484, 1150.918
5466.413, 1144.541
5468.341, 1147.678
5470.270, 1147.795
5472.198, 1148.482
5474.126, 1149.631
5476.055, 1146.137
5477.983, 1143.976
5479.912, 1142.771
5481.840, 1141.790
5483.769, 1138.740
5485.697, 1139.352
5487.625, 1141.655
5489.554, 1142.581
5491.482, 1141.092
5493.411, 1139.029
5495.339, 1138.333
5497.268, 1143.218
5499.196, 1137.928
5501.125, 1134.258
5503.053, 1135.807
5504.982, 1135.970
5506.910, 1138.901
5508.839, 1135.986
5510.767, 1124.950
5512.696, 1129.895
5514.624, 1133.584
5516.553, 1131.723
5518.481, 1123.707
5520.410, 1128.212
5522.338, 1131.090
5524.267, 1129.077
5526.195, 1122.941
5528.124, 1120.570
5530.052, 1120.695
5531.980, 1120.282
5533.909, 1112.512
5535.837, 1121.398
5537.766, 1125.844
5539.694, 1117.266
5541.623, 1112.814
5543.551, 1111.705
5545.479, 1113.217
5547.408, 1116.696
5549.336, 1120.697
5551.265, 1116.508
5553.193, 1110.404
5555.122, 1110.255
5557.050, 1111.523
5558.979, 1107.410
5560.907, 1102.641
5562.836, 1105.299
5564.764, 1101.743
5566.693, 1100.554
5568.621, 1102.430
5570.550, 1102.320
5572.478, 1104.650
5574.407, 1103.940
5576.335, 1100.519
5578.264, 1101.671
5580.192, 1098.784
5582.121, 1097.025
5584.049, 1097.584
5585.978, 1094.221
5587.906, 1092.078
5589.834, 1092.062
5591.763, 1093.729
5593.691, 1095.283
5595.620, 1090.638
5597.548, 1086.706
5599.477, 1088.056
5601.405, 1089.658
5603.333, 1090.121
5605.262, 1088.624
5607.190, 1085.097
5609.119, 1081.794
5611.047, 1080.853
5612.976, 1081.717
5614.904, 1083.227
5616.833, 1084.101
5618.761, 1082.223
5620.690, 1080.464
5622.618, 1081.874
5624.547, 1082.006
5626.475, 1076.510
5628.404, 1070.581
5630.332, 1071.070
5632.261, 1074.179
5634.189, 1067.442
5636.118, 1059.705
5638.046, 1063.482
5639.975, 1061.976
5641.903, 1063.331
5643.832, 1064.845
5645.760, 1061.397
5647.688, 1059.682
5649.617, 1058.819
5651.545, 1057.068
5653.474, 1052.449
5655.402, 1057.916
5657.331, 1058.358
5659.259, 1055.057
5661.188, 1054.137
5663.116, 1054.167
5665.044, 1057.471
5666.973, 1060.868
5668.901, 1060.521
5670.830, 1058.005
5672.758, 1053.128
5674.687, 1047.410
5676.615, 1042.716
5678.544, 1045.189
5680.472, 1045.164
5682.401, 1043.911
5684.329, 1044.511
5686.258, 1045.043
5688.186, 1042.305
5690.115, 1040.425
5692.043, 1042.441
5693.972, 1041.531
5695.900, 1039.890
5697.829, 1037.642
5699.757, 1034.771
5701.686, 1031.740
5703.614, 1030.099
5705.542, 1030.023
5707.471, 1030.477
5709.399, 1026.599
5711.328, 1028.915
5713.256, 1029.293
5715.185, 1026.236
5717.113, 1031.035
5719.042, 1034.630
5720.970, 1032.760
5722.898, 1025.611
5724.827, 1015.036
5726.755, 1019.572
5728.684, 1025.733
5730.612, 1026.045
5732.541, 1017.480
5734.469, 1016.584
5736.398, 1018.805
5738.326, 1019.795
5740.255, 1016.892
5742.183, 1013.490
5744.112, 1011.242
5746.040, 1011.010
5747.969, 1012.366
5749.897, 1007.852
5751.826, 1005.977
5753.754, 1005.661
5755.683, 1005.290
5757.611, 1004.471
5759.540, 1006.180
5761.468, 1003.019
5763.396, 997.1312
5765.325, 1001.623
5767.253, 994.5515
5769.182, 993.1273
5771.110, 997.0524
5773.039, 997.0003
5774.967, 992.4199
5776.896, 992.3243
5778.824, 993.1520
5780.752, 989.9690
5782.681, 982.7517
5784.609, 984.1514
5786.538, 986.5958
5788.466, 985.0836
5790.395, 983.5475
5792.323, 987.3983
5794.252, 987.0710
5796.180, 982.3923
5798.109, 981.9661
5800.037, 981.7157
5801.966, 980.0332
5803.894, 976.8445
5805.823, 972.8394
5807.751, 971.7336
5809.680, 972.0728
5811.608, 972.5403
5813.537, 972.1903
5815.465, 970.0893
5817.394, 972.9572
5819.322, 972.8419
5821.250, 968.9812
5823.179, 966.9969
5825.107, 967.2531
5827.036, 965.7928
5828.964, 962.6699
5830.893, 959.6383
5832.821, 963.4111
5834.750, 963.7615
5836.678, 965.2888
5838.606, 969.1029
5840.535, 967.1862
5842.463, 964.8419
5844.392, 959.4987
5846.320, 953.0740
5848.249, 949.5875
5850.177, 951.6251
5852.106, 950.0334
5854.034, 949.8998
5855.963, 953.4484
5857.891, 948.6310
5859.820, 951.0687
5861.748, 950.2330
5863.677, 947.2740
5865.605, 950.9945
5867.534, 946.8055
5869.462, 944.9449
5871.391, 945.1931
5873.319, 944.7597
5875.248, 939.9141
5877.176, 940.0704
5879.104, 943.3235
5881.033, 945.3422
5882.961, 941.3015
5884.890, 938.4301
5886.818, 937.4261
5888.747, 938.2428
5890.675, 939.2645
5892.604, 931.0844
5894.532, 937.4981
5896.460, 936.3138
5898.389, 928.7621
5900.317, 931.4631
5902.246, 933.5316
5904.174, 926.4128
5906.103, 920.3438
5908.031, 921.3105
5909.960, 921.8983
5911.888, 929.2026
5913.817, 928.0361
5915.745, 922.5949
5917.674, 922.5325
5919.602, 916.9528
5921.531, 917.3997
5923.459, 918.3759
5925.388, 916.6487
5927.316, 914.2346
5929.245, 912.3234
5931.173, 917.4167
5933.102, 919.3137
5935.030, 912.4406
5936.958, 914.2630
5938.887, 914.0118
5940.815, 908.2322
5942.744, 904.1163
5944.672, 910.2464
5946.601, 907.6041
5948.529, 907.7858
5950.458, 906.8246
5952.386, 903.7421
5954.314, 904.3090
5956.243, 901.8002
5958.171, 898.6968
5960.100, 898.5563
5962.028, 900.1921
5963.957, 903.0081
5965.885, 904.0534
5967.814, 903.4213
5969.742, 896.0922
5971.671, 897.4114
5973.599, 895.2649
5975.528, 892.9760
5977.456, 895.5127
5979.385, 889.1574
5981.313, 891.6177
5983.242, 890.5584
5985.170, 891.1106
5987.099, 888.1744
5989.027, 886.3164
5990.956, 887.9459
5992.884, 887.6447
5994.813, 884.3071
5996.741, 884.9614
5998.669, 878.4849
6000.598, 878.2651
6002.526, 880.7460
6004.455, 877.5838
6006.383, 878.3021
6008.312, 877.5419
6010.240, 870.0674
6012.168, 874.2712
6014.097, 873.4236
6016.025, 865.1447
6017.954, 865.9769
6019.882, 863.4869
6021.811, 863.3860
6023.739, 862.4742
6025.668, 862.4916
6027.596, 865.1707
6029.525, 862.5152
6031.453, 859.6033
6033.382, 857.3409
6035.310, 858.9314
6037.239, 865.2549
6039.167, 860.8456
6041.096, 855.7101
6043.024, 850.3121
6044.953, 846.8666
6046.881, 847.7667
6048.810, 853.1077
6050.738, 852.2442
6052.667, 852.7062
6054.595, 852.8621
6056.523, 847.4439
6058.452, 841.1962
6060.380, 842.8384
6062.309, 845.6732
6064.237, 844.7571
6066.166, 839.2360
6068.094, 839.5559
6070.022, 835.3292
6071.951, 833.9758
6073.879, 835.1384
6075.808, 834.8608
6077.736, 832.5227
6079.665, 830.5818
6081.593, 827.8986
6083.522, 828.3235
6085.450, 833.4373
6087.379, 831.6367
6089.307, 829.0704
6091.236, 827.1304
6093.164, 821.9366
6095.093, 814.7474
6097.021, 823.6904
6098.950, 823.7081
6100.878, 821.1535
6102.807, 821.6917
6104.735, 823.3542
6106.664, 812.6954
6108.592, 818.3390
6110.521, 815.8712
6112.449, 809.8802
6114.377, 806.4047
6116.306, 805.4700
6118.234, 813.5265
6120.163, 807.9944
6122.091, 802.2432
6124.020, 802.4608
6125.948, 805.3142
6127.876, 799.2991
6129.805, 805.2979
6131.733, 796.9974
6133.662, 786.9645
6135.590, 792.8814
6137.519, 795.9293
6139.447, 797.2748
6141.376, 795.3017
6143.304, 793.8051
6145.233, 794.1068
6147.161, 792.2731
6149.090, 790.2938
6151.018, 790.2044
6152.947, 791.2487
6154.875, 791.1035
6156.804, 787.4280
6158.732, 782.4257
6160.661, 782.8292
6162.589, 783.7229
6164.518, 783.9594
6166.446, 782.6077
6168.375, 769.8852
6170.303, 774.8225
6172.231, 780.5809
6174.160, 779.9569
6176.088, 774.6630
6178.017, 770.4551
6179.945, 764.9134
6181.874, 770.0450
6183.802, 771.4496
6185.730, 769.3283
6187.659, 769.1594
6189.587, 763.9446
6191.516, 762.4064
6193.444, 760.9705
6195.373, 760.2621
6197.301, 759.7307
6199.230, 756.6224
6201.158, 758.4543
6203.087, 758.3354
6205.015, 754.4841
6206.944, 750.1616
6208.872, 749.2526
6210.801, 755.1991
6212.729, 755.3109
6214.658, 752.3077
6216.586, 747.6791
6218.515, 743.8670
6220.443, 743.1993
6222.372, 742.2246
6224.300, 743.6697
6226.229, 746.8519
6228.157, 749.5955
6230.085, 748.8148
6232.014, 741.7611
6233.942, 736.8002
6235.871, 738.4709
6237.799, 736.2762
6239.728, 732.8983
6241.656, 735.0606
6243.584, 740.8495
6245.513, 737.5176
6247.441, 735.3182
6249.370, 730.0410
6251.298, 723.9396
6253.227, 723.9656
6255.155, 729.4717
6257.084, 727.8555
6259.012, 726.4301
6260.941, 728.2505
6262.869, 730.7188
6264.798, 728.5013
6266.726, 717.1503
6268.655, 717.4481
6270.583, 716.3984
6272.512, 716.0958
6274.440, 717.3972
6276.369, 713.3311
6278.297, 708.7496
6280.226, 713.1091
6282.154, 711.3607
6284.083, 709.4924
6286.011, 711.1091
6287.939, 705.4218
6289.868, 705.1064
6291.796, 704.4503
6293.725, 704.7742
6295.653, 703.8873
6297.582, 701.4542
6299.510, 702.0120
6301.438, 701.4271
6303.367, 696.5654
6305.295, 696.4136
6307.224, 695.8045
6309.152, 692.9182
6311.081, 697.5392
6313.009, 694.7432
6314.938, 692.5225
6316.866, 689.9384
6318.795, 690.0326
6320.723, 691.4937
6322.652, 688.0532
6324.580, 689.4681
6326.509, 687.9143
6328.437, 680.7236
6330.366, 680.3802
6332.294, 685.5004
6334.223, 682.3104
6336.151, 681.0814
6338.080, 682.0992
6340.008, 677.8771
6341.937, 677.0035
6343.865, 679.2396
6345.793, 677.2875
6347.722, 675.5907
6349.650, 670.9814
6351.579, 666.7299
6353.507, 667.7168
6355.436, 670.6754
6357.364, 669.8063
6359.292, 663.1690
6361.221, 660.9167
6363.149, 663.3632
6365.078, 664.0140
6367.006, 662.8622
6368.935, 661.3951
6370.863, 658.7621
6372.792, 656.3103
6374.720, 659.2281
6376.649, 661.2631
6378.577, 656.9818
6380.506, 653.7799
6382.434, 658.4401
6384.363, 647.1944
6386.291, 650.1969
6388.220, 651.4272
6390.148, 650.9819
6392.077, 643.8381
6394.005, 645.3438
6395.934, 643.3826
6397.862, 641.2802
6399.791, 644.0023
6401.719, 637.8331
6403.647, 640.4795
6405.576, 639.6062
6407.504, 640.3442
6409.433, 637.5940
6411.361, 635.9218
6413.290, 637.7372
6415.218, 637.6218
6417.146, 634.4707
6419.075, 635.3103
6421.003, 629.0196
6422.932, 628.9857
6424.860, 631.6525
6426.789, 628.6762
6428.717, 629.5803
6430.646, 629.0060
6432.574, 621.7173
6434.503, 626.1064
6436.431, 625.4453
6438.360, 619.5984
6440.288, 621.6520
6442.217, 620.5315
6444.145, 620.3934
6446.074, 618.3837
6448.002, 617.3588
6449.931, 621.9446
6451.859, 623.0261
6453.788, 619.8860
6455.716, 615.2029
6457.645, 612.9955
6459.573, 614.2648
6461.501, 612.0820
6463.430, 614.3564
6465.358, 611.5421
6467.287, 611.0763
6469.215, 607.5470
6471.144, 604.1810
6473.072, 607.6617
6475.000, 609.8055
6476.929, 607.5528
6478.857, 602.5985
6480.786, 604.5478
6482.714, 604.2230
6484.643, 599.7549
6486.571, 598.0504
6488.500, 601.8596
6490.428, 594.8911
6492.357, 597.2708
6494.285, 596.6615
6496.214, 595.5936
6498.142, 594.2535
6500.071, 591.8237
6501.999, 593.0140
6503.928, 590.2958
6505.856, 586.5013
6507.785, 587.8900
6509.713, 586.7421
6511.642, 586.7526
6513.570, 589.2040
6515.499, 587.0964
6517.427, 586.5081
6519.355, 580.3665
6521.284, 583.9500
6523.212, 583.0504
6525.141, 579.6749
6527.069, 577.4944
6528.998, 575.0896
6530.926, 573.8004
6532.854, 575.0011
6534.783, 572.2978
6536.711, 574.5599
6538.640, 573.7182
6540.568, 569.6581
6542.497, 568.7025
6544.425, 571.0521
6546.354, 565.0194
6548.282, 570.3595
6550.211, 566.6715
6552.139, 564.1068
6554.068, 561.5709
6555.996, 562.3766
6557.925, 567.4658
6559.853, 560.1996
6561.782, 559.0715
6563.710, 557.9133
6565.639, 557.1927
6567.567, 556.1834
6569.496, 558.4902
6571.424, 560.7249
6573.353, 556.8033
6575.281, 552.1646
6577.209, 555.1281
6579.138, 551.1483
6581.066, 550.9628
6582.995, 550.9411
6584.923, 551.5080
6586.852, 551.9171
6588.780, 549.3000
6590.708, 548.3184
6592.637, 546.2590
6594.565, 548.1334
6596.494, 549.3107
6598.422, 550.1882
6600.351, 547.1660
6602.279, 542.5270
6604.208, 541.3348
6606.136, 539.3065
6608.065, 544.4280
6609.993, 538.3311
6611.922, 536.2648
6613.850, 539.8129
6615.779, 541.0721
6617.707, 539.4647
6619.636, 538.1679
6621.564, 534.6193
6623.493, 535.3947
6625.421, 531.0550
6627.350, 529.4227
6629.278, 530.9575
##END=



