##NAMES=Behoite
##RRUFFID=R130229
##IDEAL CHEMISTRY=Be(OH)_2_
##LOCALITY=Clear Creek pegmatite, Burnet County, Texas, USA
##OWNER=RRUFF
##SOURCE=Rock Currier
##DESCRIPTION=Colorless vitreous pseudo-octahedral crystals and intergrown clusters
##STATUS=The identification of this mineral has been confirmed by single-crystal X-ray diffraction
##URL=https://www.rruff.net/odr/rruff_sample/R130229
##DIFFRACTION SAMPLE DESCRIPTION=Single crystal, powder profile is calculated
##CELL PARAMETERS=a: 4.618 b: 7.049 c: 4.534 alpha: 90 beta: 90 gamma: 90 volume: 147.58 crystal system: orthorhombic
##FILETYPE=Raman RAW
##RAMAN WAVELENGTH=532

9.839966e+001, 0.000000e+000
1.003281e+002, 6.518119e+004
1.022566e+002, 6.698968e+004
1.041851e+002, 6.862291e+004
1.061135e+002, 7.029818e+004
1.080420e+002, 7.284792e+004
1.099705e+002, 7.532584e+004
1.118989e+002, 7.792891e+004
1.138274e+002, 8.074366e+004
1.157559e+002, 8.349291e+004
1.176843e+002, 8.651952e+004
1.196128e+002, 8.969398e+004
1.215413e+002, 9.289080e+004
1.234697e+002, 9.610857e+004
1.253982e+002, 9.941349e+004
1.273267e+002, 1.027425e+005
1.292551e+002, 1.061314e+005
1.311836e+002, 1.097758e+005
1.331121e+002, 1.141187e+005
1.350405e+002, 1.181391e+005
1.369690e+002, 1.213477e+005
1.388975e+002, 1.232456e+005
1.408259e+002, 1.245969e+005
1.427544e+002, 1.251614e+005
1.446829e+002, 1.249946e+005
1.466113e+002, 1.249965e+005
1.485398e+002, 1.252945e+005
1.504683e+002, 1.258203e+005
1.523967e+002, 1.265513e+005
1.543252e+002, 1.275684e+005
1.562537e+002, 1.287632e+005
1.581821e+002, 1.301827e+005
1.601106e+002, 1.318143e+005
1.620391e+002, 1.335886e+005
1.639675e+002, 1.355319e+005
1.658960e+002, 1.375798e+005
1.678245e+002, 1.396137e+005
1.697529e+002, 1.415959e+005
1.716814e+002, 1.435021e+005
1.736099e+002, 1.453086e+005
1.755383e+002, 1.470021e+005
1.774668e+002, 1.484739e+005
1.793953e+002, 1.497073e+005
1.813237e+002, 1.506997e+005
1.832522e+002, 1.515505e+005
1.851807e+002, 1.523079e+005
1.871091e+002, 1.529570e+005
1.890376e+002, 1.535186e+005
1.909661e+002, 1.540296e+005
1.928945e+002, 1.545213e+005
1.948230e+002, 1.549722e+005
1.967515e+002, 1.554343e+005
1.986799e+002, 1.559990e+005
2.006084e+002, 1.567098e+005
2.025369e+002, 1.574777e+005
2.044653e+002, 1.582535e+005
2.063938e+002, 1.590052e+005
2.083223e+002, 1.597823e+005
2.102507e+002, 1.606517e+005
2.121792e+002, 1.615891e+005
2.141077e+002, 1.623554e+005
2.160361e+002, 1.628852e+005
2.179646e+002, 1.633182e+005
2.198931e+002, 1.637314e+005
2.218215e+002, 1.641123e+005
2.237500e+002, 1.645116e+005
2.256785e+002, 1.649550e+005
2.276069e+002, 1.654349e+005
2.295354e+002, 1.658584e+005
2.314639e+002, 1.661849e+005
2.333923e+002, 1.664841e+005
2.353208e+002, 1.668119e+005
2.372493e+002, 1.672092e+005
2.391777e+002, 1.675890e+005
2.411062e+002, 1.679313e+005
2.430347e+002, 1.682530e+005
2.449631e+002, 1.686205e+005
2.468916e+002, 1.690307e+005
2.488201e+002, 1.695044e+005
2.507485e+002, 1.700460e+005
2.526770e+002, 1.706993e+005
2.546055e+002, 1.713545e+005
2.565339e+002, 1.719453e+005
2.584624e+002, 1.724965e+005
2.603909e+002, 1.731412e+005
2.623193e+002, 1.739585e+005
2.642478e+002, 1.748268e+005
2.661763e+002, 1.756639e+005
2.681047e+002, 1.763571e+005
2.700332e+002, 1.771624e+005
2.719617e+002, 1.781472e+005
2.738901e+002, 1.792814e+005
2.758186e+002, 1.804853e+005
2.777471e+002, 1.820996e+005
2.796755e+002, 1.835797e+005
2.816040e+002, 1.845110e+005
2.835325e+002, 1.848263e+005
2.854609e+002, 1.849155e+005
2.873894e+002, 1.847313e+005
2.893179e+002, 1.843437e+005
2.912463e+002, 1.840852e+005
2.931748e+002, 1.838716e+005
2.951033e+002, 1.838256e+005
2.970317e+002, 1.840349e+005
2.989602e+002, 1.844471e+005
3.008887e+002, 1.851156e+005
3.028171e+002, 1.861541e+005
3.047456e+002, 1.874678e+005
3.066741e+002, 1.887157e+005
3.086025e+002, 1.899959e+005
3.105310e+002, 1.911425e+005
3.124595e+002, 1.920683e+005
3.143879e+002, 1.927730e+005
3.163164e+002, 1.933537e+005
3.182449e+002, 1.936750e+005
3.201733e+002, 1.938905e+005
3.221018e+002, 1.943994e+005
3.240303e+002, 1.951334e+005
3.259587e+002, 1.961958e+005
3.278872e+002, 1.976434e+005
3.298157e+002, 1.994937e+005
3.317441e+002, 2.016126e+005
3.336726e+002, 2.039078e+005
3.356011e+002, 2.064634e+005
3.375295e+002, 2.093379e+005
3.394580e+002, 2.122555e+005
3.413865e+002, 2.158965e+005
3.433149e+002, 2.203845e+005
3.452434e+002, 2.256870e+005
3.471719e+002, 2.318753e+005
3.491003e+002, 2.419785e+005
3.510288e+002, 2.511963e+005
3.529573e+002, 2.548241e+005
3.548857e+002, 2.512608e+005
3.568142e+002, 2.466319e+005
3.587427e+002, 2.422549e+005
3.606711e+002, 2.382055e+005
3.625996e+002, 2.351443e+005
3.645281e+002, 2.335116e+005
3.664565e+002, 2.324776e+005
3.683850e+002, 2.314321e+005
3.703135e+002, 2.301328e+005
3.722419e+002, 2.296216e+005
3.741704e+002, 2.298719e+005
3.760989e+002, 2.309607e+005
3.780273e+002, 2.330317e+005
3.799558e+002, 2.360449e+005
3.818843e+002, 2.400130e+005
3.838127e+002, 2.448360e+005
3.857412e+002, 2.504716e+005
3.876697e+002, 2.572044e+005
3.895981e+002, 2.648653e+005
3.915266e+002, 2.735530e+005
3.934551e+002, 2.835381e+005
3.953835e+002, 2.954873e+005
3.973120e+002, 3.070607e+005
3.992405e+002, 3.187836e+005
4.011689e+002, 3.310160e+005
4.030974e+002, 3.371947e+005
4.050259e+002, 3.364802e+005
4.069543e+002, 3.313116e+005
4.088828e+002, 3.224203e+005
4.108113e+002, 3.092132e+005
4.127397e+002, 2.962415e+005
4.146682e+002, 2.840708e+005
4.165967e+002, 2.728475e+005
4.185251e+002, 2.633514e+005
4.204536e+002, 2.555220e+005
4.223821e+002, 2.490934e+005
4.243105e+002, 2.442101e+005
4.262390e+002, 2.407154e+005
4.281675e+002, 2.381403e+005
4.300959e+002, 2.366125e+005
4.320244e+002, 2.357874e+005
4.339529e+002, 2.354677e+005
4.358813e+002, 2.357609e+005
4.378098e+002, 2.362493e+005
4.397383e+002, 2.369039e+005
4.416667e+002, 2.376900e+005
4.435952e+002, 2.385464e+005
4.455237e+002, 2.399370e+005
4.474521e+002, 2.410086e+005
4.493806e+002, 2.412575e+005
4.513091e+002, 2.405945e+005
4.532375e+002, 2.398088e+005
4.551660e+002, 2.387134e+005
4.570945e+002, 2.376601e+005
4.590229e+002, 2.370730e+005
4.609514e+002, 2.380552e+005
4.628799e+002, 2.383428e+005
4.648083e+002, 2.372798e+005
4.667368e+002, 2.350781e+005
4.686653e+002, 2.329852e+005
4.705938e+002, 2.309332e+005
4.725222e+002, 2.291785e+005
4.744507e+002, 2.278565e+005
4.763792e+002, 2.271672e+005
4.783076e+002, 2.266510e+005
4.802361e+002, 2.263299e+005
4.821646e+002, 2.262054e+005
4.840930e+002, 2.262328e+005
4.860215e+002, 2.264265e+005
4.879500e+002, 2.267461e+005
4.898784e+002, 2.271690e+005
4.918069e+002, 2.276832e+005
4.937354e+002, 2.282173e+005
4.956638e+002, 2.287292e+005
4.975923e+002, 2.292676e+005
4.995208e+002, 2.298990e+005
5.014492e+002, 2.306568e+005
5.033777e+002, 2.312923e+005
5.053062e+002, 2.317068e+005
5.072346e+002, 2.320268e+005
5.091631e+002, 2.324178e+005
5.110916e+002, 2.328935e+005
5.130200e+002, 2.334396e+005
5.149485e+002, 2.340979e+005
5.168770e+002, 2.348394e+005
5.188054e+002, 2.355821e+005
5.207339e+002, 2.362732e+005
5.226624e+002, 2.369937e+005
5.245908e+002, 2.377808e+005
5.265193e+002, 2.386287e+005
5.284478e+002, 2.394383e+005
5.303762e+002, 2.401653e+005
5.323047e+002, 2.408149e+005
5.342332e+002, 2.413924e+005
5.361616e+002, 2.418425e+005
5.380901e+002, 2.422808e+005
5.400186e+002, 2.427718e+005
5.419470e+002, 2.432881e+005
5.438755e+002, 2.437458e+005
5.458040e+002, 2.442006e+005
5.477324e+002, 2.446219e+005
5.496609e+002, 2.450054e+005
5.515894e+002, 2.453588e+005
5.535178e+002, 2.458146e+005
5.554463e+002, 2.463992e+005
5.573748e+002, 2.470354e+005
5.593032e+002, 2.476368e+005
5.612317e+002, 2.481593e+005
5.631602e+002, 2.487187e+005
5.650886e+002, 2.493133e+005
5.670171e+002, 2.499237e+005
5.689456e+002, 2.505440e+005
5.708740e+002, 2.512180e+005
5.728025e+002, 2.518543e+005
5.747310e+002, 2.524338e+005
5.766594e+002, 2.529920e+005
5.785879e+002, 2.535958e+005
5.805164e+002, 2.542918e+005
5.824448e+002, 2.550125e+005
5.843733e+002, 2.557093e+005
5.863018e+002, 2.563572e+005
5.882302e+002, 2.571313e+005
5.901587e+002, 2.580936e+005
5.920872e+002, 2.591191e+005
5.940156e+002, 2.601479e+005
5.959441e+002, 2.611901e+005
5.978726e+002, 2.621458e+005
5.998010e+002, 2.630111e+005
6.017295e+002, 2.637718e+005
6.036580e+002, 2.643947e+005
6.055864e+002, 2.648067e+005
6.075149e+002, 2.651834e+005
6.094434e+002, 2.655730e+005
6.113718e+002, 2.659401e+005
6.133003e+002, 2.662082e+005
6.152288e+002, 2.662953e+005
6.171572e+002, 2.663917e+005
6.190857e+002, 2.665623e+005
6.210142e+002, 2.668174e+005
6.229426e+002, 2.671063e+005
6.248711e+002, 2.673665e+005
6.267996e+002, 2.677150e+005
6.287280e+002, 2.682230e+005
6.306565e+002, 2.688938e+005
6.325850e+002, 2.696049e+005
6.345134e+002, 2.703363e+005
6.364419e+002, 2.710981e+005
6.383704e+002, 2.719056e+005
6.402988e+002, 2.727786e+005
6.422273e+002, 2.736220e+005
6.441558e+002, 2.744076e+005
6.460842e+002, 2.751437e+005
6.480127e+002, 2.758329e+005
6.499412e+002, 2.764245e+005
6.518696e+002, 2.770541e+005
6.537981e+002, 2.777766e+005
6.557266e+002, 2.785784e+005
6.576550e+002, 2.793947e+005
6.595835e+002, 2.802709e+005
6.615120e+002, 2.811758e+005
6.634404e+002, 2.820999e+005
6.653689e+002, 2.830663e+005
6.672974e+002, 2.841661e+005
6.692258e+002, 2.854765e+005
6.711543e+002, 2.868528e+005
6.730828e+002, 2.882060e+005
6.750112e+002, 2.894930e+005
6.769397e+002, 2.908079e+005
6.788682e+002, 2.921888e+005
6.807966e+002, 2.934573e+005
6.827251e+002, 2.945290e+005
6.846536e+002, 2.953862e+005
6.865820e+002, 2.960270e+005
6.885105e+002, 2.965293e+005
6.904390e+002, 2.968535e+005
6.923674e+002, 2.969213e+005
6.942959e+002, 2.967165e+005
6.962244e+002, 2.965180e+005
6.981528e+002, 2.963724e+005
7.000813e+002, 2.963165e+005
7.020098e+002, 2.963838e+005
7.039382e+002, 2.966140e+005
7.058667e+002, 2.969260e+005
7.077952e+002, 2.973005e+005
7.097236e+002, 2.977350e+005
7.116521e+002, 2.982346e+005
7.135806e+002, 2.988146e+005
7.155090e+002, 2.994093e+005
7.174375e+002, 2.999884e+005
7.193660e+002, 3.005478e+005
7.212944e+002, 3.010861e+005
7.232229e+002, 3.014750e+005
7.251514e+002, 3.019359e+005
7.270798e+002, 3.025271e+005
7.290083e+002, 3.032395e+005
7.309368e+002, 3.039816e+005
7.328652e+002, 3.047110e+005
7.347937e+002, 3.055124e+005
7.367222e+002, 3.064360e+005
7.386506e+002, 3.074819e+005
7.405791e+002, 3.086082e+005
7.425076e+002, 3.100226e+005
7.444360e+002, 3.113526e+005
7.463645e+002, 3.124327e+005
7.482930e+002, 3.132468e+005
7.502214e+002, 3.138484e+005
7.521499e+002, 3.141159e+005
7.540784e+002, 3.142882e+005
7.560068e+002, 3.145101e+005
7.579353e+002, 3.147945e+005
7.598638e+002, 3.151457e+005
7.617922e+002, 3.154633e+005
7.637207e+002, 3.159294e+005
7.656492e+002, 3.167149e+005
7.675776e+002, 3.178733e+005
7.695061e+002, 3.190730e+005
7.714346e+002, 3.204085e+005
7.733630e+002, 3.216129e+005
7.752915e+002, 3.225316e+005
7.772200e+002, 3.231590e+005
7.791484e+002, 3.234029e+005
7.810769e+002, 3.231534e+005
7.830054e+002, 3.226269e+005
7.849338e+002, 3.220199e+005
7.868623e+002, 3.212900e+005
7.887908e+002, 3.206833e+005
7.907192e+002, 3.203571e+005
7.926477e+002, 3.201431e+005
7.945762e+002, 3.198260e+005
7.965046e+002, 3.193023e+005
7.984331e+002, 3.189921e+005
8.003616e+002, 3.189602e+005
8.022900e+002, 3.191706e+005
8.042185e+002, 3.196146e+005
8.061470e+002, 3.204378e+005
8.080754e+002, 3.212241e+005
8.100039e+002, 3.218080e+005
8.119324e+002, 3.223633e+005
8.138608e+002, 3.231124e+005
8.157893e+002, 3.241247e+005
8.177178e+002, 3.250583e+005
8.196462e+002, 3.257756e+005
8.215747e+002, 3.263609e+005
8.235032e+002, 3.269520e+005
8.254316e+002, 3.275972e+005
8.273601e+002, 3.281865e+005
8.292886e+002, 3.287295e+005
8.312170e+002, 3.292340e+005
8.331455e+002, 3.296938e+005
8.350740e+002, 3.300818e+005
8.370024e+002, 3.305585e+005
8.389309e+002, 3.312755e+005
8.408594e+002, 3.320627e+005
8.427878e+002, 3.326740e+005
8.447163e+002, 3.328650e+005
8.466448e+002, 3.331701e+005
8.485732e+002, 3.336272e+005
8.505017e+002, 3.342075e+005
8.524302e+002, 3.348951e+005
8.543586e+002, 3.357526e+005
8.562871e+002, 3.365377e+005
8.582156e+002, 3.371000e+005
8.601440e+002, 3.376062e+005
8.620725e+002, 3.382497e+005
8.640010e+002, 3.391268e+005
8.659294e+002, 3.399851e+005
8.678579e+002, 3.407905e+005
8.697864e+002, 3.415438e+005
8.717148e+002, 3.422378e+005
8.736433e+002, 3.428484e+005
8.755718e+002, 3.433808e+005
8.775002e+002, 3.438181e+005
8.794287e+002, 3.441639e+005
8.813572e+002, 3.444223e+005
8.832856e+002, 3.445871e+005
8.852141e+002, 3.447498e+005
8.871426e+002, 3.449573e+005
8.890710e+002, 3.452008e+005
8.909995e+002, 3.454869e+005
8.929280e+002, 3.458461e+005
8.948564e+002, 3.462471e+005
8.967849e+002, 3.466464e+005
8.987134e+002, 3.471475e+005
9.006418e+002, 3.478310e+005
9.025703e+002, 3.487218e+005
9.044988e+002, 3.495792e+005
9.064272e+002, 3.502969e+005
9.083557e+002, 3.509706e+005
9.102842e+002, 3.516449e+005
9.122126e+002, 3.522923e+005
9.141411e+002, 3.528381e+005
9.160696e+002, 3.532090e+005
9.179980e+002, 3.535035e+005
9.199265e+002, 3.538284e+005
9.218550e+002, 3.541925e+005
9.237834e+002, 3.544195e+005
9.257119e+002, 3.544476e+005
9.276404e+002, 3.544798e+005
9.295688e+002, 3.546076e+005
9.314973e+002, 3.548580e+005
9.334258e+002, 3.552242e+005
9.353542e+002, 3.556479e+005
9.372827e+002, 3.562323e+005
9.392112e+002, 3.570255e+005
9.411396e+002, 3.579753e+005
9.430681e+002, 3.589691e+005
9.449966e+002, 3.599702e+005
9.469250e+002, 3.609664e+005
9.488535e+002, 3.619402e+005
9.507820e+002, 3.628678e+005
9.527104e+002, 3.637198e+005
9.546389e+002, 3.644732e+005
9.565674e+002, 3.651548e+005
9.584958e+002, 3.657761e+005
9.604243e+002, 3.663483e+005
9.623528e+002, 3.668773e+005
9.642813e+002, 3.673630e+005
9.662097e+002, 3.679608e+005
9.681382e+002, 3.688639e+005
9.700667e+002, 3.698640e+005
9.719951e+002, 3.707137e+005
9.739236e+002, 3.712984e+005
9.758521e+002, 3.720493e+005
9.777805e+002, 3.730402e+005
9.797090e+002, 3.740899e+005
9.816375e+002, 3.750521e+005
9.835659e+002, 3.758719e+005
9.854944e+002, 3.766463e+005
9.874229e+002, 3.773934e+005
9.893513e+002, 3.780717e+005
9.912798e+002, 3.786868e+005
9.932083e+002, 3.792721e+005
9.951367e+002, 3.798523e+005
9.970652e+002, 3.804654e+005
9.989937e+002, 3.811485e+005
1.000922e+003, 3.818746e+005
1.002851e+003, 3.826803e+005
1.004779e+003, 3.837255e+005
1.006708e+003, 3.849932e+005
1.008636e+003, 3.864105e+005
1.010564e+003, 3.879929e+005
1.012493e+003, 3.896385e+005
1.014421e+003, 3.912050e+005
1.016350e+003, 3.926506e+005
1.018278e+003, 3.940924e+005
1.020207e+003, 3.955817e+005
1.022135e+003, 3.971172e+005
1.024064e+003, 3.987343e+005
1.025992e+003, 4.005490e+005
1.027921e+003, 4.022593e+005
1.029849e+003, 4.037536e+005
1.031778e+003, 4.052732e+005
1.033706e+003, 4.069685e+005
1.035635e+003, 4.088391e+005
1.037563e+003, 4.107378e+005
1.039491e+003, 4.125428e+005
1.041420e+003, 4.144263e+005
1.043348e+003, 4.164640e+005
1.045277e+003, 4.186007e+005
1.047205e+003, 4.207193e+005
1.049134e+003, 4.228813e+005
1.051062e+003, 4.249492e+005
1.052991e+003, 4.271085e+005
1.054919e+003, 4.291792e+005
1.056848e+003, 4.308220e+005
1.058776e+003, 4.322224e+005
1.060705e+003, 4.329927e+005
1.062633e+003, 4.330095e+005
1.064562e+003, 4.324389e+005
1.066490e+003, 4.312809e+005
1.068418e+003, 4.295055e+005
1.070347e+003, 4.275785e+005
1.072275e+003, 4.253122e+005
1.074204e+003, 4.231125e+005
1.076132e+003, 4.211458e+005
1.078061e+003, 4.194102e+005
1.079989e+003, 4.179193e+005
1.081918e+003, 4.167525e+005
1.083846e+003, 4.157775e+005
1.085775e+003, 4.149995e+005
1.087703e+003, 4.144047e+005
1.089632e+003, 4.139802e+005
1.091560e+003, 4.137947e+005
1.093489e+003, 4.136107e+005
1.095417e+003, 4.133532e+005
1.097345e+003, 4.131611e+005
1.099274e+003, 4.131657e+005
1.101202e+003, 4.134015e+005
1.103131e+003, 4.137520e+005
1.105059e+003, 4.141834e+005
1.106988e+003, 4.147663e+005
1.108916e+003, 4.155526e+005
1.110845e+003, 4.165046e+005
1.112773e+003, 4.173954e+005
1.114702e+003, 4.180265e+005
1.116630e+003, 4.187221e+005
1.118559e+003, 4.196728e+005
1.120487e+003, 4.206565e+005
1.122416e+003, 4.212720e+005
1.124344e+003, 4.214564e+005
1.126272e+003, 4.216802e+005
1.128201e+003, 4.220892e+005
1.130129e+003, 4.225934e+005
1.132058e+003, 4.231654e+005
1.133986e+003, 4.238196e+005
1.135915e+003, 4.244141e+005
1.137843e+003, 4.248358e+005
1.139772e+003, 4.253102e+005
1.141700e+003, 4.259107e+005
1.143629e+003, 4.266135e+005
1.145557e+003, 4.273454e+005
1.147486e+003, 4.281733e+005
1.149414e+003, 4.289116e+005
1.151343e+003, 4.294811e+005
1.153271e+003, 4.299745e+005
1.155199e+003, 4.304653e+005
1.157128e+003, 4.309478e+005
1.159056e+003, 4.315041e+005
1.160985e+003, 4.321527e+005
1.162913e+003, 4.328816e+005
1.164842e+003, 4.337603e+005
1.166770e+003, 4.347586e+005
1.168699e+003, 4.356116e+005
1.170627e+003, 4.361798e+005
1.172556e+003, 4.368682e+005
1.174484e+003, 4.377985e+005
1.176413e+003, 4.388494e+005
1.178341e+003, 4.398616e+005
1.180270e+003, 4.407765e+005
1.182198e+003, 4.416788e+005
1.184126e+003, 4.425320e+005
1.186055e+003, 4.433160e+005
1.187983e+003, 4.440024e+005
1.189912e+003, 4.445994e+005
1.191840e+003, 4.451689e+005
1.193769e+003, 4.457749e+005
1.195697e+003, 4.463311e+005
1.197626e+003, 4.468494e+005
1.199554e+003, 4.473863e+005
1.201483e+003, 4.479905e+005
1.203411e+003, 4.486867e+005
1.205340e+003, 4.495277e+005
1.207268e+003, 4.504277e+005
1.209197e+003, 4.515140e+005
1.211125e+003, 4.529232e+005
1.213053e+003, 4.545306e+005
1.214982e+003, 4.557768e+005
1.216910e+003, 4.563953e+005
1.218839e+003, 4.569760e+005
1.220767e+003, 4.576655e+005
1.222696e+003, 4.583440e+005
1.224624e+003, 4.589659e+005
1.226553e+003, 4.595871e+005
1.228481e+003, 4.600621e+005
1.230410e+003, 4.602793e+005
1.232338e+003, 4.606317e+005
1.234267e+003, 4.613502e+005
1.236195e+003, 4.623312e+005
1.238124e+003, 4.632282e+005
1.240052e+003, 4.638913e+005
1.241980e+003, 4.646594e+005
1.243909e+003, 4.656324e+005
1.245837e+003, 4.666221e+005
1.247766e+003, 4.674708e+005
1.249694e+003, 4.681673e+005
1.251623e+003, 4.688945e+005
1.253551e+003, 4.697135e+005
1.255480e+003, 4.705363e+005
1.257408e+003, 4.713014e+005
1.259337e+003, 4.720633e+005
1.261265e+003, 4.729186e+005
1.263194e+003, 4.738654e+005
1.265122e+003, 4.747676e+005
1.267051e+003, 4.755830e+005
1.268979e+003, 4.763631e+005
1.270907e+003, 4.771613e+005
1.272836e+003, 4.779748e+005
1.274764e+003, 4.787323e+005
1.276693e+003, 4.793787e+005
1.278621e+003, 4.801172e+005
1.280550e+003, 4.810182e+005
1.282478e+003, 4.819997e+005
1.284407e+003, 4.829862e+005
1.286335e+003, 4.839655e+005
1.288264e+003, 4.849118e+005
1.290192e+003, 4.858128e+005
1.292121e+003, 4.866780e+005
1.294049e+003, 4.874772e+005
1.295978e+003, 4.882464e+005
1.297906e+003, 4.890675e+005
1.299834e+003, 4.899552e+005
1.301763e+003, 4.907667e+005
1.303691e+003, 4.914376e+005
1.305620e+003, 4.920749e+005
1.307548e+003, 4.927066e+005
1.309477e+003, 4.933636e+005
1.311405e+003, 4.941465e+005
1.313334e+003, 4.951368e+005
1.315262e+003, 4.960670e+005
1.317191e+003, 4.967749e+005
1.319119e+003, 4.974984e+005
1.321048e+003, 4.984417e+005
1.322976e+003, 4.996166e+005
1.324905e+003, 5.006555e+005
1.326833e+003, 5.013815e+005
1.328761e+003, 5.021393e+005
1.330690e+003, 5.030128e+005
1.332618e+003, 5.039202e+005
1.334547e+003, 5.047623e+005
1.336475e+003, 5.055229e+005
1.338404e+003, 5.063507e+005
1.340332e+003, 5.073340e+005
1.342261e+003, 5.083153e+005
1.344189e+003, 5.092706e+005
1.346118e+003, 5.101738e+005
1.348046e+003, 5.109380e+005
1.349975e+003, 5.115235e+005
1.351903e+003, 5.122163e+005
1.353832e+003, 5.131223e+005
1.355760e+003, 5.140649e+005
1.357688e+003, 5.150025e+005
1.359617e+003, 5.159180e+005
1.361545e+003, 5.167460e+005
1.363474e+003, 5.174824e+005
1.365402e+003, 5.181651e+005
1.367331e+003, 5.187091e+005
1.369259e+003, 5.192800e+005
1.371188e+003, 5.199790e+005
1.373116e+003, 5.207784e+005
1.375045e+003, 5.215419e+005
1.376973e+003, 5.223325e+005
1.378902e+003, 5.229929e+005
1.380830e+003, 5.234344e+005
1.382759e+003, 5.238465e+005
1.384687e+003, 5.243390e+005
1.386615e+003, 5.249298e+005
1.388544e+003, 5.257184e+005
1.390472e+003, 5.268799e+005
1.392401e+003, 5.279187e+005
1.394329e+003, 5.286276e+005
1.396258e+003, 5.292367e+005
1.398186e+003, 5.299223e+005
1.400115e+003, 5.306589e+005
1.402043e+003, 5.313917e+005
1.403972e+003, 5.320944e+005
1.405900e+003, 5.328053e+005
1.407829e+003, 5.336176e+005
1.409757e+003, 5.343969e+005
1.411686e+003, 5.350081e+005
1.413614e+003, 5.354886e+005
1.415542e+003, 5.360607e+005
1.417471e+003, 5.367586e+005
1.419399e+003, 5.375664e+005
1.421328e+003, 5.384836e+005
1.423256e+003, 5.394366e+005
1.425185e+003, 5.403482e+005
1.427113e+003, 5.411761e+005
1.429042e+003, 5.419061e+005
1.430970e+003, 5.424826e+005
1.432899e+003, 5.429969e+005
1.434827e+003, 5.435977e+005
1.436756e+003, 5.441508e+005
1.438684e+003, 5.445024e+005
1.440613e+003, 5.446902e+005
1.442541e+003, 5.450489e+005
1.444469e+003, 5.455302e+005
1.446398e+003, 5.462913e+005
1.448326e+003, 5.474044e+005
1.450255e+003, 5.487058e+005
1.452183e+003, 5.500090e+005
1.454112e+003, 5.512548e+005
1.456040e+003, 5.525211e+005
1.457969e+003, 5.538220e+005
1.459897e+003, 5.550034e+005
1.461826e+003, 5.560320e+005
1.463754e+003, 5.569442e+005
1.465683e+003, 5.577358e+005
1.467611e+003, 5.584741e+005
1.469540e+003, 5.594472e+005
1.471468e+003, 5.608590e+005
1.473396e+003, 5.620828e+005
1.475325e+003, 5.627463e+005
1.477253e+003, 5.632666e+005
1.479182e+003, 5.638836e+005
1.481110e+003, 5.645875e+005
1.483039e+003, 5.654245e+005
1.484967e+003, 5.664481e+005
1.486896e+003, 5.674633e+005
1.488824e+003, 5.684898e+005
1.490753e+003, 5.694523e+005
1.492681e+003, 5.702668e+005
1.494610e+003, 5.709821e+005
1.496538e+003, 5.718140e+005
1.498467e+003, 5.728298e+005
1.500395e+003, 5.737676e+005
1.502323e+003, 5.745233e+005
1.504252e+003, 5.752439e+005
1.506180e+003, 5.760431e+005
1.508109e+003, 5.768776e+005
1.510037e+003, 5.776064e+005
1.511966e+003, 5.781768e+005
1.513894e+003, 5.788222e+005
1.515823e+003, 5.795969e+005
1.517751e+003, 5.804489e+005
1.519680e+003, 5.814101e+005
1.521608e+003, 5.824178e+005
1.523537e+003, 5.833292e+005
1.525465e+003, 5.840712e+005
1.527394e+003, 5.849801e+005
1.529322e+003, 5.861653e+005
1.531250e+003, 5.873284e+005
1.533179e+003, 5.883697e+005
1.535107e+003, 5.893271e+005
1.537036e+003, 5.902522e+005
1.538964e+003, 5.911539e+005
1.540893e+003, 5.920084e+005
1.542821e+003, 5.928193e+005
1.544750e+003, 5.936149e+005
1.546678e+003, 5.944022e+005
1.548607e+003, 5.951688e+005
1.550535e+003, 5.958949e+005
1.552464e+003, 5.965727e+005
1.554392e+003, 5.971912e+005
1.556321e+003, 5.977288e+005
1.558249e+003, 5.982809e+005
1.560177e+003, 5.990113e+005
1.562106e+003, 5.996559e+005
1.564034e+003, 5.999363e+005
1.565963e+003, 6.001576e+005
1.567891e+003, 6.008628e+005
1.569820e+003, 6.021004e+005
1.571748e+003, 6.032484e+005
1.573677e+003, 6.040498e+005
1.575605e+003, 6.049434e+005
1.577534e+003, 6.061593e+005
1.579462e+003, 6.073961e+005
1.581391e+003, 6.083579e+005
1.583319e+003, 6.090474e+005
1.585248e+003, 6.096758e+005
1.587176e+003, 6.103011e+005
1.589104e+003, 6.108231e+005
1.591033e+003, 6.111967e+005
1.592961e+003, 6.115373e+005
1.594890e+003, 6.118756e+005
1.596818e+003, 6.122231e+005
1.598747e+003, 6.126375e+005
1.600675e+003, 6.131423e+005
1.602604e+003, 6.136530e+005
1.604532e+003, 6.142667e+005
1.606461e+003, 6.148785e+005
1.608389e+003, 6.154537e+005
1.610318e+003, 6.161221e+005
1.612246e+003, 6.170022e+005
1.614175e+003, 6.180958e+005
1.616103e+003, 6.193978e+005
1.618031e+003, 6.208507e+005
1.619960e+003, 6.223450e+005
1.621888e+003, 6.238514e+005
1.623817e+003, 6.251444e+005
1.625745e+003, 6.259893e+005
1.627674e+003, 6.264764e+005
1.629602e+003, 6.269829e+005
1.631531e+003, 6.276792e+005
1.633459e+003, 6.281401e+005
1.635388e+003, 6.283559e+005
1.637316e+003, 6.285827e+005
1.639245e+003, 6.289696e+005
1.641173e+003, 6.294312e+005
1.643102e+003, 6.298259e+005
1.645030e+003, 6.301681e+005
1.646958e+003, 6.307026e+005
1.648887e+003, 6.315021e+005
1.650815e+003, 6.323588e+005
1.652744e+003, 6.332604e+005
1.654672e+003, 6.341773e+005
1.656601e+003, 6.350875e+005
1.658529e+003, 6.359930e+005
1.660458e+003, 6.369212e+005
1.662386e+003, 6.378844e+005
1.664315e+003, 6.387212e+005
1.666243e+003, 6.392748e+005
1.668172e+003, 6.399592e+005
1.670100e+003, 6.409408e+005
1.672029e+003, 6.420288e+005
1.673957e+003, 6.430767e+005
1.675885e+003, 6.441162e+005
1.677814e+003, 6.452467e+005
1.679742e+003, 6.464976e+005
1.681671e+003, 6.477142e+005
1.683599e+003, 6.488634e+005
1.685528e+003, 6.499384e+005
1.687456e+003, 6.508462e+005
1.689385e+003, 6.516885e+005
1.691313e+003, 6.525834e+005
1.693242e+003, 6.535044e+005
1.695170e+003, 6.543298e+005
1.697099e+003, 6.551714e+005
1.699027e+003, 6.557063e+005
1.700956e+003, 6.557318e+005
1.702884e+003, 6.557746e+005
1.704813e+003, 6.560681e+005
1.706741e+003, 6.565351e+005
1.708669e+003, 6.570929e+005
1.710598e+003, 6.577581e+005
1.712526e+003, 6.585192e+005
1.714455e+003, 6.594852e+005
1.716383e+003, 6.603458e+005
1.718312e+003, 6.608551e+005
1.720240e+003, 6.614612e+005
1.722169e+003, 6.624273e+005
1.724097e+003, 6.634863e+005
1.726026e+003, 6.642454e+005
1.727954e+003, 6.646601e+005
1.729883e+003, 6.650749e+005
1.731811e+003, 6.656190e+005
1.733740e+003, 6.659183e+005
1.735668e+003, 6.659307e+005
1.737596e+003, 6.658652e+005
1.739525e+003, 6.659023e+005
1.741453e+003, 6.660521e+005
1.743382e+003, 6.662491e+005
1.745310e+003, 6.665376e+005
1.747239e+003, 6.671903e+005
1.749167e+003, 6.682342e+005
1.751096e+003, 6.694724e+005
1.753024e+003, 6.708939e+005
1.754953e+003, 6.722397e+005
1.756881e+003, 6.733576e+005
1.758810e+003, 6.742181e+005
1.760738e+003, 6.747674e+005
1.762667e+003, 6.750173e+005
1.764595e+003, 6.753943e+005
1.766523e+003, 6.762741e+005
1.768452e+003, 6.768443e+005
1.770380e+003, 6.768479e+005
1.772309e+003, 6.769629e+005
1.774237e+003, 6.774513e+005
1.776166e+003, 6.781950e+005
1.778094e+003, 6.791039e+005
1.780023e+003, 6.801381e+005
1.781951e+003, 6.810474e+005
1.783880e+003, 6.817798e+005
1.785808e+003, 6.824428e+005
1.787737e+003, 6.829251e+005
1.789665e+003, 6.834496e+005
1.791594e+003, 6.841925e+005
1.793522e+003, 6.848953e+005
1.795450e+003, 6.852476e+005
1.797379e+003, 6.853189e+005
1.799307e+003, 6.855139e+005
1.801236e+003, 6.858978e+005
1.803164e+003, 6.861847e+005
1.805093e+003, 6.863547e+005
1.807021e+003, 6.865816e+005
1.808950e+003, 6.869661e+005
1.810878e+003, 6.874887e+005
1.812807e+003, 6.881061e+005
1.814735e+003, 6.888782e+005
1.816664e+003, 6.899279e+005
1.818592e+003, 6.912277e+005
1.820521e+003, 6.925933e+005
1.822449e+003, 6.939719e+005
1.824377e+003, 6.952308e+005
1.826306e+003, 6.962499e+005
1.828234e+003, 6.971149e+005
1.830163e+003, 6.979456e+005
1.832091e+003, 6.986144e+005
1.834020e+003, 6.988989e+005
1.835948e+003, 6.989037e+005
1.837877e+003, 6.990743e+005
1.839805e+003, 6.995126e+005
1.841734e+003, 6.999389e+005
1.843662e+003, 7.002620e+005
1.845591e+003, 7.006506e+005
1.847519e+003, 7.012201e+005
1.849448e+003, 7.018008e+005
1.851376e+003, 7.022386e+005
1.853304e+003, 7.025732e+005
1.855233e+003, 7.028982e+005
1.857161e+003, 7.032410e+005
1.859090e+003, 7.036645e+005
1.861018e+003, 7.042393e+005
1.862947e+003, 7.049573e+005
1.864875e+003, 7.057917e+005
1.866804e+003, 7.068616e+005
1.868732e+003, 7.082725e+005
1.870661e+003, 7.098395e+005
1.872589e+003, 7.113053e+005
1.874518e+003, 7.125953e+005
1.876446e+003, 7.137690e+005
1.878375e+003, 7.147409e+005
1.880303e+003, 7.154083e+005
1.882231e+003, 7.157288e+005
1.884160e+003, 7.157957e+005
1.886088e+003, 7.156668e+005
1.888017e+003, 7.154926e+005
1.889945e+003, 7.154859e+005
1.891874e+003, 7.156396e+005
1.893802e+003, 7.158412e+005
1.895731e+003, 7.161358e+005
1.897659e+003, 7.165682e+005
1.899588e+003, 7.169288e+005
1.901516e+003, 7.176266e+005
1.903445e+003, 7.188702e+005
1.905373e+003, 7.199026e+005
1.907302e+003, 7.203518e+005
1.909230e+003, 7.205673e+005
1.911158e+003, 7.208957e+005
1.913087e+003, 7.212504e+005
1.915015e+003, 7.213184e+005
1.916944e+003, 7.211425e+005
1.918872e+003, 7.213727e+005
1.920801e+003, 7.221469e+005
1.922729e+003, 7.229227e+005
1.924658e+003, 7.235743e+005
1.926586e+003, 7.240981e+005
1.928515e+003, 7.244067e+005
1.930443e+003, 7.246155e+005
1.932372e+003, 7.248572e+005
1.934300e+003, 7.250996e+005
1.936229e+003, 7.252540e+005
1.938157e+003, 7.253580e+005
1.940085e+003, 7.255452e+005
1.942014e+003, 7.258672e+005
1.943942e+003, 7.261246e+005
1.945871e+003, 7.261553e+005
1.947799e+003, 7.262446e+005
1.949728e+003, 7.265792e+005
1.951656e+003, 7.269308e+005
1.953585e+003, 7.270838e+005
1.955513e+003, 7.271657e+005
1.957442e+003, 7.274225e+005
1.959370e+003, 7.278825e+005
1.961299e+003, 7.284583e+005
1.963227e+003, 7.291452e+005
1.965156e+003, 7.299751e+005
1.967084e+003, 7.310015e+005
1.969012e+003, 7.319933e+005
1.970941e+003, 7.327395e+005
1.972869e+003, 7.334482e+005
1.974798e+003, 7.343046e+005
1.976726e+003, 7.351153e+005
1.978655e+003, 7.356387e+005
1.980583e+003, 7.359011e+005
1.982512e+003, 7.359489e+005
1.984440e+003, 7.357913e+005
1.986369e+003, 7.359994e+005
1.988297e+003, 7.368921e+005
1.990226e+003, 7.377364e+005
1.992154e+003, 7.381724e+005
1.994083e+003, 7.386986e+005
1.996011e+003, 7.395218e+005
1.997939e+003, 7.404862e+005
1.999868e+003, 7.414976e+005
2.001796e+003, 7.424849e+005
2.003725e+003, 7.433396e+005
2.005653e+003, 7.440877e+005
2.007582e+003, 7.448549e+005
2.009510e+003, 7.457327e+005
2.011439e+003, 7.465548e+005
2.013367e+003, 7.471290e+005
2.015296e+003, 7.478307e+005
2.017224e+003, 7.487433e+005
2.019153e+003, 7.496861e+005
2.021081e+003, 7.506032e+005
2.023010e+003, 7.513604e+005
2.024938e+003, 7.517954e+005
2.026866e+003, 7.519738e+005
2.028795e+003, 7.521407e+005
2.030723e+003, 7.524228e+005
2.032652e+003, 7.526945e+005
2.034580e+003, 7.530026e+005
2.036509e+003, 7.533859e+005
2.038437e+003, 7.535648e+005
2.040366e+003, 7.541446e+005
2.042294e+003, 7.556183e+005
2.044223e+003, 7.571212e+005
2.046151e+003, 7.579232e+005
2.048080e+003, 7.583026e+005
2.050008e+003, 7.587442e+005
2.051937e+003, 7.592568e+005
2.053865e+003, 7.597309e+005
2.055793e+003, 7.602271e+005
2.057722e+003, 7.607827e+005
2.059650e+003, 7.614554e+005
2.061579e+003, 7.621340e+005
2.063507e+003, 7.626818e+005
2.065436e+003, 7.632258e+005
2.067364e+003, 7.637743e+005
2.069293e+003, 7.642402e+005
2.071221e+003, 7.645723e+005
2.073150e+003, 7.647650e+005
2.075078e+003, 7.648462e+005
2.077007e+003, 7.648302e+005
2.078935e+003, 7.646819e+005
2.080864e+003, 7.644541e+005
2.082792e+003, 7.641243e+005
2.084720e+003, 7.636768e+005
2.086649e+003, 7.634053e+005
2.088577e+003, 7.634678e+005
2.090506e+003, 7.636644e+005
2.092434e+003, 7.638376e+005
2.094363e+003, 7.642267e+005
2.096291e+003, 7.649550e+005
2.098220e+003, 7.658953e+005
2.100148e+003, 7.669664e+005
2.102077e+003, 7.679929e+005
2.104005e+003, 7.685723e+005
2.105934e+003, 7.686022e+005
2.107862e+003, 7.684383e+005
2.109791e+003, 7.681903e+005
2.111719e+003, 7.676420e+005
2.113647e+003, 7.668898e+005
2.115576e+003, 7.660597e+005
2.117504e+003, 7.652053e+005
2.119433e+003, 7.645460e+005
2.121361e+003, 7.641327e+005
2.123290e+003, 7.640913e+005
2.125218e+003, 7.646133e+005
2.127147e+003, 7.654639e+005
2.129075e+003, 7.661860e+005
2.131004e+003, 7.667746e+005
2.132932e+003, 7.674312e+005
2.134861e+003, 7.681053e+005
2.136789e+003, 7.688863e+005
2.138718e+003, 7.698899e+005
2.140646e+003, 7.705169e+005
2.142574e+003, 7.704450e+005
2.144503e+003, 7.703478e+005
2.146431e+003, 7.703468e+005
2.148360e+003, 7.705294e+005
2.150288e+003, 7.711086e+005
2.152217e+003, 7.717815e+005
2.154145e+003, 7.723071e+005
2.156074e+003, 7.726737e+005
2.158002e+003, 7.727818e+005
2.159931e+003, 7.726512e+005
2.161859e+003, 7.725821e+005
2.163788e+003, 7.725583e+005
2.165716e+003, 7.725878e+005
2.167645e+003, 7.726714e+005
2.169573e+003, 7.729000e+005
2.171501e+003, 7.734723e+005
2.173430e+003, 7.739261e+005
2.175358e+003, 7.740853e+005
2.177287e+003, 7.742372e+005
2.179215e+003, 7.744403e+005
2.181144e+003, 7.747648e+005
2.183072e+003, 7.752538e+005
2.185001e+003, 7.758239e+005
2.186929e+003, 7.763339e+005
2.188858e+003, 7.767763e+005
2.190786e+003, 7.773533e+005
2.192715e+003, 7.780563e+005
2.194643e+003, 7.783786e+005
2.196572e+003, 7.782986e+005
2.198500e+003, 7.782899e+005
2.200428e+003, 7.784689e+005
2.202357e+003, 7.787198e+005
2.204285e+003, 7.791092e+005
2.206214e+003, 7.793906e+005
2.208142e+003, 7.791750e+005
2.210071e+003, 7.791121e+005
2.211999e+003, 7.797782e+005
2.213928e+003, 7.805759e+005
2.215856e+003, 7.809003e+005
2.217785e+003, 7.810105e+005
2.219713e+003, 7.813579e+005
2.221642e+003, 7.819464e+005
2.223570e+003, 7.826347e+005
2.225499e+003, 7.834172e+005
2.227427e+003, 7.840907e+005
2.229355e+003, 7.845262e+005
2.231284e+003, 7.853411e+005
2.233212e+003, 7.867790e+005
2.235141e+003, 7.876377e+005
2.237069e+003, 7.872570e+005
2.238998e+003, 7.868124e+005
2.240926e+003, 7.868912e+005
2.242855e+003, 7.869336e+005
2.244783e+003, 7.867528e+005
2.246712e+003, 7.864634e+005
2.248640e+003, 7.860556e+005
2.250569e+003, 7.857528e+005
2.252497e+003, 7.859167e+005
2.254426e+003, 7.864148e+005
2.256354e+003, 7.867433e+005
2.258282e+003, 7.869326e+005
2.260211e+003, 7.873744e+005
2.262139e+003, 7.880485e+005
2.264068e+003, 7.888487e+005
2.265996e+003, 7.898074e+005
2.267925e+003, 7.904816e+005
2.269853e+003, 7.905860e+005
2.271782e+003, 7.907523e+005
2.273710e+003, 7.912195e+005
2.275639e+003, 7.916490e+005
2.277567e+003, 7.919778e+005
2.279496e+003, 7.922184e+005
2.281424e+003, 7.923658e+005
2.283353e+003, 7.924200e+005
2.285281e+003, 7.922339e+005
2.287209e+003, 7.920235e+005
2.289138e+003, 7.921667e+005
2.291066e+003, 7.925320e+005
2.292995e+003, 7.928412e+005
2.294923e+003, 7.931378e+005
2.296852e+003, 7.934799e+005
2.298780e+003, 7.939005e+005
2.300709e+003, 7.943890e+005
2.302637e+003, 7.949420e+005
2.304566e+003, 7.954560e+005
2.306494e+003, 7.957310e+005
2.308423e+003, 7.962196e+005
2.310351e+003, 7.970700e+005
2.312280e+003, 7.978299e+005
2.314208e+003, 7.984975e+005
2.316136e+003, 7.988368e+005
2.318065e+003, 7.985279e+005
2.319993e+003, 7.981727e+005
2.321922e+003, 7.981281e+005
2.323850e+003, 7.983275e+005
2.325779e+003, 7.988292e+005
2.327707e+003, 7.994422e+005
2.329636e+003, 7.997991e+005
2.331564e+003, 7.999941e+005
2.333493e+003, 8.003727e+005
2.335421e+003, 8.008443e+005
2.337350e+003, 8.010033e+005
2.339278e+003, 8.008417e+005
2.341207e+003, 8.006394e+005
2.343135e+003, 8.004758e+005
2.345063e+003, 8.000850e+005
2.346992e+003, 7.993297e+005
2.348920e+003, 7.990316e+005
2.350849e+003, 7.996595e+005
2.352777e+003, 8.002793e+005
2.354706e+003, 8.004856e+005
2.356634e+003, 8.009082e+005
2.358563e+003, 8.017922e+005
2.360491e+003, 8.026138e+005
2.362420e+003, 8.031873e+005
2.364348e+003, 8.034871e+005
2.366277e+003, 8.033706e+005
2.368205e+003, 8.031624e+005
2.370134e+003, 8.032485e+005
2.372062e+003, 8.034653e+005
2.373990e+003, 8.035512e+005
2.375919e+003, 8.036052e+005
2.377847e+003, 8.038137e+005
2.379776e+003, 8.041727e+005
2.381704e+003, 8.045679e+005
2.383633e+003, 8.050185e+005
2.385561e+003, 8.057706e+005
2.387490e+003, 8.068247e+005
2.389418e+003, 8.077370e+005
2.391347e+003, 8.083926e+005
2.393275e+003, 8.092050e+005
2.395204e+003, 8.102747e+005
2.397132e+003, 8.111755e+005
2.399061e+003, 8.117888e+005
2.400989e+003, 8.122239e+005
2.402917e+003, 8.125065e+005
2.404846e+003, 8.125958e+005
2.406774e+003, 8.123432e+005
2.408703e+003, 8.122676e+005
2.410631e+003, 8.128412e+005
2.412560e+003, 8.134316e+005
2.414488e+003, 8.135731e+005
2.416417e+003, 8.136953e+005
2.418345e+003, 8.141258e+005
2.420274e+003, 8.147103e+005
2.422202e+003, 8.152448e+005
2.424131e+003, 8.157818e+005
2.426059e+003, 8.164548e+005
2.427988e+003, 8.171731e+005
2.429916e+003, 8.177815e+005
2.431844e+003, 8.182754e+005
2.433773e+003, 8.186738e+005
2.435701e+003, 8.189784e+005
2.437630e+003, 8.190930e+005
2.439558e+003, 8.190325e+005
2.441487e+003, 8.190630e+005
2.443415e+003, 8.191823e+005
2.445344e+003, 8.194976e+005
2.447272e+003, 8.200858e+005
2.449201e+003, 8.205133e+005
2.451129e+003, 8.206682e+005
2.453058e+003, 8.209080e+005
2.454986e+003, 8.212589e+005
2.456915e+003, 8.217601e+005
2.458843e+003, 8.226032e+005
2.460771e+003, 8.232737e+005
2.462700e+003, 8.236105e+005
2.464628e+003, 8.238035e+005
2.466557e+003, 8.237618e+005
2.468485e+003, 8.238177e+005
2.470414e+003, 8.242547e+005
2.472342e+003, 8.246421e+005
2.474271e+003, 8.246422e+005
2.476199e+003, 8.246428e+005
2.478128e+003, 8.249771e+005
2.480056e+003, 8.254065e+005
2.481985e+003, 8.256994e+005
2.483913e+003, 8.259286e+005
2.485842e+003, 8.261483e+005
2.487770e+003, 8.263793e+005
2.489698e+003, 8.267146e+005
2.491627e+003, 8.270753e+005
2.493555e+003, 8.272663e+005
2.495484e+003, 8.273811e+005
2.497412e+003, 8.276693e+005
2.499341e+003, 8.281054e+005
2.501269e+003, 8.284168e+005
2.503198e+003, 8.286107e+005
2.505126e+003, 8.288717e+005
2.507055e+003, 8.291469e+005
2.508983e+003, 8.296500e+005
2.510912e+003, 8.303464e+005
2.512840e+003, 8.306472e+005
2.514769e+003, 8.304846e+005
2.516697e+003, 8.303743e+005
2.518625e+003, 8.304311e+005
2.520554e+003, 8.304480e+005
2.522482e+003, 8.303360e+005
2.524411e+003, 8.304619e+005
2.526339e+003, 8.310366e+005
2.528268e+003, 8.314118e+005
2.530196e+003, 8.314269e+005
2.532125e+003, 8.315155e+005
2.534053e+003, 8.317938e+005
2.535982e+003, 8.320434e+005
2.537910e+003, 8.320165e+005
2.539839e+003, 8.321708e+005
2.541767e+003, 8.327797e+005
2.543696e+003, 8.333022e+005
2.545624e+003, 8.335872e+005
2.547552e+003, 8.336710e+005
2.549481e+003, 8.334979e+005
2.551409e+003, 8.333398e+005
2.553338e+003, 8.333920e+005
2.555266e+003, 8.335520e+005
2.557195e+003, 8.337328e+005
2.559123e+003, 8.340962e+005
2.561052e+003, 8.348220e+005
2.562980e+003, 8.356801e+005
2.564909e+003, 8.364719e+005
2.566837e+003, 8.371887e+005
2.568766e+003, 8.377182e+005
2.570694e+003, 8.381859e+005
2.572623e+003, 8.387900e+005
2.574551e+003, 8.393509e+005
2.576479e+003, 8.396057e+005
2.578408e+003, 8.397818e+005
2.580336e+003, 8.403108e+005
2.582265e+003, 8.410248e+005
2.584193e+003, 8.414799e+005
2.586122e+003, 8.418862e+005
2.588050e+003, 8.426974e+005
2.589979e+003, 8.436770e+005
2.591907e+003, 8.443217e+005
2.593836e+003, 8.446529e+005
2.595764e+003, 8.448863e+005
2.597693e+003, 8.449811e+005
2.599621e+003, 8.447743e+005
2.601550e+003, 8.443873e+005
2.603478e+003, 8.443108e+005
2.605406e+003, 8.445428e+005
2.607335e+003, 8.449616e+005
2.609263e+003, 8.455492e+005
2.611192e+003, 8.457445e+005
2.613120e+003, 8.455676e+005
2.615049e+003, 8.458546e+005
2.616977e+003, 8.465803e+005
2.618906e+003, 8.472003e+005
2.620834e+003, 8.476760e+005
2.622763e+003, 8.480832e+005
2.624691e+003, 8.483971e+005
2.626620e+003, 8.487279e+005
2.628548e+003, 8.491447e+005
2.630477e+003, 8.492099e+005
2.632405e+003, 8.488640e+005
2.634333e+003, 8.489093e+005
2.636262e+003, 8.494135e+005
2.638190e+003, 8.497098e+005
2.640119e+003, 8.496976e+005
2.642047e+003, 8.496994e+005
2.643976e+003, 8.496620e+005
2.645904e+003, 8.498330e+005
2.647833e+003, 8.503479e+005
2.649761e+003, 8.507231e+005
2.651690e+003, 8.510038e+005
2.653618e+003, 8.511814e+005
2.655547e+003, 8.512314e+005
2.657475e+003, 8.515745e+005
2.659404e+003, 8.523566e+005
2.661332e+003, 8.529463e+005
2.663260e+003, 8.530258e+005
2.665189e+003, 8.532994e+005
2.667117e+003, 8.538643e+005
2.669046e+003, 8.539638e+005
2.670974e+003, 8.534358e+005
2.672903e+003, 8.528973e+005
2.674831e+003, 8.525394e+005
2.676760e+003, 8.521718e+005
2.678688e+003, 8.517840e+005
2.680617e+003, 8.515402e+005
2.682545e+003, 8.515452e+005
2.684474e+003, 8.515123e+005
2.686402e+003, 8.514025e+005
2.688331e+003, 8.513603e+005
2.690259e+003, 8.513920e+005
2.692188e+003, 8.516322e+005
2.694116e+003, 8.521683e+005
2.696044e+003, 8.527516e+005
2.697973e+003, 8.532349e+005
2.699901e+003, 8.540348e+005
2.701830e+003, 8.552694e+005
2.703758e+003, 8.563471e+005
2.705687e+003, 8.571438e+005
2.707615e+003, 8.576241e+005
2.709544e+003, 8.575524e+005
2.711472e+003, 8.575146e+005
2.713401e+003, 8.575446e+005
2.715329e+003, 8.576033e+005
2.717258e+003, 8.577358e+005
2.719186e+003, 8.578128e+005
2.721115e+003, 8.579205e+005
2.723043e+003, 8.579445e+005
2.724971e+003, 8.577347e+005
2.726900e+003, 8.580458e+005
2.728828e+003, 8.591034e+005
2.730757e+003, 8.598715e+005
2.732685e+003, 8.600021e+005
2.734614e+003, 8.604799e+005
2.736542e+003, 8.616376e+005
2.738471e+003, 8.623917e+005
2.740399e+003, 8.625455e+005
2.742328e+003, 8.626155e+005
2.744256e+003, 8.626633e+005
2.746185e+003, 8.627468e+005
2.748113e+003, 8.629293e+005
2.750042e+003, 8.631334e+005
2.751970e+003, 8.634428e+005
2.753898e+003, 8.635521e+005
2.755827e+003, 8.633651e+005
2.757755e+003, 8.633163e+005
2.759684e+003, 8.634333e+005
2.761612e+003, 8.637689e+005
2.763541e+003, 8.643583e+005
2.765469e+003, 8.649755e+005
2.767398e+003, 8.655820e+005
2.769326e+003, 8.661514e+005
2.771255e+003, 8.666403e+005
2.773183e+003, 8.670613e+005
2.775112e+003, 8.673849e+005
2.777040e+003, 8.675786e+005
2.778969e+003, 8.676603e+005
2.780897e+003, 8.674322e+005
2.782825e+003, 8.668799e+005
2.784754e+003, 8.668021e+005
2.786682e+003, 8.671759e+005
2.788611e+003, 8.671975e+005
2.790539e+003, 8.668990e+005
2.792468e+003, 8.667142e+005
2.794396e+003, 8.666558e+005
2.796325e+003, 8.668348e+005
2.798253e+003, 8.671973e+005
2.800182e+003, 8.671339e+005
2.802110e+003, 8.667990e+005
2.804039e+003, 8.669573e+005
2.805967e+003, 8.674358e+005
2.807896e+003, 8.676186e+005
2.809824e+003, 8.675874e+005
2.811752e+003, 8.675174e+005
2.813681e+003, 8.674849e+005
2.815609e+003, 8.676554e+005
2.817538e+003, 8.679519e+005
2.819466e+003, 8.681620e+005
2.821395e+003, 8.683307e+005
2.823323e+003, 8.685260e+005
2.825252e+003, 8.687192e+005
2.827180e+003, 8.689226e+005
2.829109e+003, 8.690779e+005
2.831037e+003, 8.693069e+005
2.832966e+003, 8.693303e+005
2.834894e+003, 8.686105e+005
2.836823e+003, 8.678223e+005
2.838751e+003, 8.677013e+005
2.840679e+003, 8.678379e+005
2.842608e+003, 8.680261e+005
2.844536e+003, 8.681392e+005
2.846465e+003, 8.679214e+005
2.848393e+003, 8.678011e+005
2.850322e+003, 8.682763e+005
2.852250e+003, 8.686463e+005
2.854179e+003, 8.684733e+005
2.856107e+003, 8.682828e+005
2.858036e+003, 8.681819e+005
2.859964e+003, 8.683788e+005
2.861893e+003, 8.690920e+005
2.863821e+003, 8.698186e+005
2.865750e+003, 8.702779e+005
2.867678e+003, 8.707571e+005
2.869606e+003, 8.712982e+005
2.871535e+003, 8.716550e+005
2.873463e+003, 8.718071e+005
2.875392e+003, 8.717347e+005
2.877320e+003, 8.714214e+005
2.879249e+003, 8.713326e+005
2.881177e+003, 8.716065e+005
2.883106e+003, 8.720179e+005
2.885034e+003, 8.725455e+005
2.886963e+003, 8.730582e+005
2.888891e+003, 8.734166e+005
2.890820e+003, 8.738530e+005
2.892748e+003, 8.742975e+005
2.894677e+003, 8.745662e+005
2.896605e+003, 8.746755e+005
2.898533e+003, 8.748574e+005
2.900462e+003, 8.751383e+005
2.902390e+003, 8.752937e+005
2.904319e+003, 8.753810e+005
2.906247e+003, 8.754076e+005
2.908176e+003, 8.754801e+005
2.910104e+003, 8.759207e+005
2.912033e+003, 8.764921e+005
2.913961e+003, 8.767886e+005
2.915890e+003, 8.768997e+005
2.917818e+003, 8.769678e+005
2.919747e+003, 8.769678e+005
2.921675e+003, 8.768238e+005
2.923604e+003, 8.766902e+005
2.925532e+003, 8.767348e+005
2.927460e+003, 8.768255e+005
2.929389e+003, 8.769378e+005
2.931317e+003, 8.769798e+005
2.933246e+003, 8.768459e+005
2.935174e+003, 8.767694e+005
2.937103e+003, 8.768168e+005
2.939031e+003, 8.770089e+005
2.940960e+003, 8.775054e+005
2.942888e+003, 8.776890e+005
2.944817e+003, 8.772768e+005
2.946745e+003, 8.770782e+005
2.948674e+003, 8.775203e+005
2.950602e+003, 8.777210e+005
2.952531e+003, 8.775088e+005
2.954459e+003, 8.780088e+005
2.956387e+003, 8.792917e+005
2.958316e+003, 8.801067e+005
2.960244e+003, 8.802399e+005
2.962173e+003, 8.805693e+005
2.964101e+003, 8.810013e+005
2.966030e+003, 8.808525e+005
2.967958e+003, 8.803098e+005
2.969887e+003, 8.798958e+005
2.971815e+003, 8.797358e+005
2.973744e+003, 8.799565e+005
2.975672e+003, 8.805236e+005
2.977601e+003, 8.814377e+005
2.979529e+003, 8.823228e+005
2.981458e+003, 8.825800e+005
2.983386e+003, 8.826136e+005
2.985314e+003, 8.828188e+005
2.987243e+003, 8.828868e+005
2.989171e+003, 8.826463e+005
2.991100e+003, 8.823203e+005
2.993028e+003, 8.820401e+005
2.994957e+003, 8.818330e+005
2.996885e+003, 8.818662e+005
2.998814e+003, 8.817634e+005
3.000742e+003, 8.814537e+005
3.002671e+003, 8.810552e+005
3.004599e+003, 8.805464e+005
3.006528e+003, 8.803827e+005
3.008456e+003, 8.807534e+005
3.010385e+003, 8.809607e+005
3.012313e+003, 8.809776e+005
3.014241e+003, 8.815918e+005
3.016170e+003, 8.826014e+005
3.018098e+003, 8.829025e+005
3.020027e+003, 8.826253e+005
3.021955e+003, 8.825582e+005
3.023884e+003, 8.824722e+005
3.025812e+003, 8.816563e+005
3.027741e+003, 8.808216e+005
3.029669e+003, 8.809606e+005
3.031598e+003, 8.813829e+005
3.033526e+003, 8.813399e+005
3.035455e+003, 8.812830e+005
3.037383e+003, 8.815189e+005
3.039312e+003, 8.815644e+005
3.041240e+003, 8.810913e+005
3.043168e+003, 8.805976e+005
3.045097e+003, 8.802653e+005
3.047025e+003, 8.800964e+005
3.048954e+003, 8.801879e+005
3.050882e+003, 8.802431e+005
3.052811e+003, 8.800957e+005
3.054739e+003, 8.802778e+005
3.056668e+003, 8.807223e+005
3.058596e+003, 8.812107e+005
3.060525e+003, 8.816346e+005
3.062453e+003, 8.816205e+005
3.064382e+003, 8.813283e+005
3.066310e+003, 8.813356e+005
3.068239e+003, 8.813900e+005
3.070167e+003, 8.807966e+005
3.072095e+003, 8.802229e+005
3.074024e+003, 8.805763e+005
3.075952e+003, 8.809257e+005
3.077881e+003, 8.803505e+005
3.079809e+003, 8.797232e+005
3.081738e+003, 8.795007e+005
3.083666e+003, 8.792931e+005
3.085595e+003, 8.791331e+005
3.087523e+003, 8.790063e+005
3.089452e+003, 8.789302e+005
3.091380e+003, 8.793389e+005
3.093309e+003, 8.803085e+005
3.095237e+003, 8.810723e+005
3.097166e+003, 8.814456e+005
3.099094e+003, 8.819059e+005
3.101022e+003, 8.823199e+005
3.102951e+003, 8.826073e+005
3.104879e+003, 8.827248e+005
3.106808e+003, 8.826287e+005
3.108736e+003, 8.823986e+005
3.110665e+003, 8.820949e+005
3.112593e+003, 8.818488e+005
3.114522e+003, 8.817831e+005
3.116450e+003, 8.817938e+005
3.118379e+003, 8.816584e+005
3.120307e+003, 8.818571e+005
3.122236e+003, 8.825539e+005
3.124164e+003, 8.833356e+005
3.126093e+003, 8.841078e+005
3.128021e+003, 8.846878e+005
3.129949e+003, 8.849502e+005
3.131878e+003, 8.856821e+005
3.133806e+003, 8.867528e+005
3.135735e+003, 8.871108e+005
3.137663e+003, 8.869538e+005
3.139592e+003, 8.870468e+005
3.141520e+003, 8.871703e+005
3.143449e+003, 8.868368e+005
3.145377e+003, 8.864559e+005
3.147306e+003, 8.864849e+005
3.149234e+003, 8.865303e+005
3.151163e+003, 8.862783e+005
3.153091e+003, 8.860361e+005
3.155020e+003, 8.857883e+005
3.156948e+003, 8.858508e+005
3.158876e+003, 8.864758e+005
3.160805e+003, 8.869833e+005
3.162733e+003, 8.873614e+005
3.164662e+003, 8.873139e+005
3.166590e+003, 8.869075e+005
3.168519e+003, 8.871168e+005
3.170447e+003, 8.877995e+005
3.172376e+003, 8.886256e+005
3.174304e+003, 8.894684e+005
3.176233e+003, 8.901068e+005
3.178161e+003, 8.906933e+005
3.180090e+003, 8.913758e+005
3.182018e+003, 8.919441e+005
3.183947e+003, 8.922215e+005
3.185875e+003, 8.923802e+005
3.187803e+003, 8.922997e+005
3.189732e+003, 8.924522e+005
3.191660e+003, 8.929548e+005
3.193589e+003, 8.931301e+005
3.195517e+003, 8.929370e+005
3.197446e+003, 8.927460e+005
3.199374e+003, 8.925617e+005
3.201303e+003, 8.925456e+005
3.203231e+003, 8.924874e+005
3.205160e+003, 8.920843e+005
3.207088e+003, 8.915372e+005
3.209017e+003, 8.909675e+005
3.210945e+003, 8.906693e+005
3.212874e+003, 8.907676e+005
3.214802e+003, 8.912382e+005
3.216730e+003, 8.920683e+005
3.218659e+003, 8.928980e+005
3.220587e+003, 8.935570e+005
3.222516e+003, 8.939173e+005
3.224444e+003, 8.939107e+005
3.226373e+003, 8.938142e+005
3.228301e+003, 8.936680e+005
3.230230e+003, 8.933928e+005
3.232158e+003, 8.931411e+005
3.234087e+003, 8.930529e+005
3.236015e+003, 8.930778e+005
3.237944e+003, 8.929658e+005
3.239872e+003, 8.930710e+005
3.241801e+003, 8.936194e+005
3.243729e+003, 8.939018e+005
3.245657e+003, 8.935631e+005
3.247586e+003, 8.931558e+005
3.249514e+003, 8.927472e+005
3.251443e+003, 8.925938e+005
3.253371e+003, 8.926818e+005
3.255300e+003, 8.923262e+005
3.257228e+003, 8.917882e+005
3.259157e+003, 8.916080e+005
3.261085e+003, 8.916468e+005
3.263014e+003, 8.918482e+005
3.264942e+003, 8.920415e+005
3.266871e+003, 8.920940e+005
3.268799e+003, 8.921188e+005
3.270728e+003, 8.921061e+005
3.272656e+003, 8.920254e+005
3.274584e+003, 8.917743e+005
3.276513e+003, 8.917991e+005
3.278441e+003, 8.920316e+005
3.280370e+003, 8.919112e+005
3.282298e+003, 8.916508e+005
3.284227e+003, 8.918148e+005
3.286155e+003, 8.921128e+005
3.288084e+003, 8.921523e+005
3.290012e+003, 8.922442e+005
3.291941e+003, 8.925118e+005
3.293869e+003, 8.929121e+005
3.295798e+003, 8.934217e+005
3.297726e+003, 8.938811e+005
3.299655e+003, 8.942123e+005
3.301583e+003, 8.947551e+005
3.303511e+003, 8.954749e+005
3.305440e+003, 8.961316e+005
3.307368e+003, 8.966754e+005
3.309297e+003, 8.969064e+005
3.311225e+003, 8.971434e+005
3.313154e+003, 8.978583e+005
3.315082e+003, 8.985744e+005
3.317011e+003, 8.990294e+005
3.318939e+003, 8.996618e+005
3.320868e+003, 9.004911e+005
3.322796e+003, 9.019923e+005
3.324725e+003, 9.041331e+005
3.326653e+003, 9.054153e+005
3.328582e+003, 9.060048e+005
3.330510e+003, 9.068229e+005
3.332438e+003, 9.078185e+005
3.334367e+003, 9.091018e+005
3.336295e+003, 9.103963e+005
3.338224e+003, 9.114220e+005
3.340152e+003, 9.126216e+005
3.342081e+003, 9.140454e+005
3.344009e+003, 9.157348e+005
3.345938e+003, 9.177628e+005
3.347866e+003, 9.191608e+005
3.349795e+003, 9.199575e+005
3.351723e+003, 9.203398e+005
3.353652e+003, 9.206197e+005
3.355580e+003, 9.213563e+005
3.357509e+003, 9.223304e+005
3.359437e+003, 9.233602e+005
3.361365e+003, 9.244508e+005
3.363294e+003, 9.253338e+005
3.365222e+003, 9.265134e+005
3.367151e+003, 9.279681e+005
3.369079e+003, 9.292783e+005
3.371008e+003, 9.303789e+005
3.372936e+003, 9.310908e+005
3.374865e+003, 9.316043e+005
3.376793e+003, 9.323321e+005
3.378722e+003, 9.331128e+005
3.380650e+003, 9.337281e+005
3.382579e+003, 9.344988e+005
3.384507e+003, 9.356573e+005
3.386436e+003, 9.365169e+005
3.388364e+003, 9.365871e+005
3.390292e+003, 9.376381e+005
3.392221e+003, 9.395286e+005
3.394149e+003, 9.413984e+005
3.396078e+003, 9.432168e+005
3.398006e+003, 9.447388e+005
3.399935e+003, 9.464946e+005
3.401863e+003, 9.487630e+005
3.403792e+003, 9.515506e+005
3.405720e+003, 9.548258e+005
3.407649e+003, 9.586654e+005
3.409577e+003, 9.630545e+005
3.411506e+003, 9.682592e+005
3.413434e+003, 9.744133e+005
3.415363e+003, 9.818505e+005
3.417291e+003, 9.913396e+005
3.419219e+003, 1.003267e+006
3.421148e+003, 1.018386e+006
3.423076e+003, 1.036449e+006
3.425005e+003, 1.059784e+006
3.426933e+003, 1.088934e+006
3.428862e+003, 1.123545e+006
3.430790e+003, 1.163702e+006
3.432719e+003, 1.206317e+006
3.434647e+003, 1.252921e+006
3.436576e+003, 1.303828e+006
3.438504e+003, 1.363785e+006
3.440433e+003, 1.437507e+006
3.442361e+003, 1.524485e+006
3.444290e+003, 1.630673e+006
3.446218e+003, 1.735768e+006
3.448146e+003, 1.841561e+006
3.450075e+003, 1.915457e+006
3.452003e+003, 1.952673e+006
3.453932e+003, 1.942234e+006
3.455860e+003, 1.895616e+006
3.457789e+003, 1.819929e+006
3.459717e+003, 1.734599e+006
3.461646e+003, 1.646748e+006
3.463574e+003, 1.563975e+006
3.465503e+003, 1.487816e+006
3.467431e+003, 1.417255e+006
3.469360e+003, 1.352500e+006
3.471288e+003, 1.294297e+006
3.473217e+003, 1.243090e+006
3.475145e+003, 1.200461e+006
3.477073e+003, 1.166293e+006
3.479002e+003, 1.141816e+006
3.480930e+003, 1.125445e+006
3.482859e+003, 1.116785e+006
3.484787e+003, 1.114403e+006
3.486716e+003, 1.118511e+006
3.488644e+003, 1.124407e+006
3.490573e+003, 1.131977e+006
3.492501e+003, 1.140439e+006
3.494430e+003, 1.150851e+006
3.496358e+003, 1.164555e+006
3.498287e+003, 1.181236e+006
3.500215e+003, 1.203316e+006
3.502144e+003, 1.221118e+006
3.504072e+003, 1.234539e+006
3.506000e+003, 1.234400e+006
3.507929e+003, 1.221886e+006
3.509857e+003, 1.200508e+006
3.511786e+003, 1.175558e+006
3.513714e+003, 1.151828e+006
3.515643e+003, 1.129630e+006
3.517571e+003, 1.109395e+006
3.519500e+003, 1.090342e+006
3.521428e+003, 1.072411e+006
3.523357e+003, 1.055516e+006
3.525285e+003, 1.039620e+006
3.527214e+003, 1.024236e+006
3.529142e+003, 1.010392e+006
3.531071e+003, 9.993371e+005
3.532999e+003, 9.895746e+005
3.534927e+003, 9.804257e+005
3.536856e+003, 9.729529e+005
3.538784e+003, 9.673385e+005
3.540713e+003, 9.619701e+005
3.542641e+003, 9.570604e+005
3.544570e+003, 9.536508e+005
3.546498e+003, 9.509649e+005
3.548427e+003, 9.482593e+005
3.550355e+003, 9.459455e+005
3.552284e+003, 9.441183e+005
3.554212e+003, 9.426731e+005
3.556141e+003, 9.416428e+005
3.558069e+003, 9.404450e+005
3.559998e+003, 9.392829e+005
3.561926e+003, 9.384998e+005
3.563854e+003, 9.380284e+005
3.565783e+003, 9.377095e+005
3.567711e+003, 9.378051e+005
3.569640e+003, 9.383739e+005
3.571568e+003, 9.387149e+005
3.573497e+003, 9.386733e+005
3.575425e+003, 9.376942e+005
3.577354e+003, 9.362934e+005
3.579282e+003, 9.354907e+005
3.581211e+003, 9.345258e+005
3.583139e+003, 9.329327e+005
3.585068e+003, 9.318144e+005
3.586996e+003, 9.315320e+005
3.588925e+003, 9.310463e+005
3.590853e+003, 9.304493e+005
3.592781e+003, 9.303963e+005
3.594710e+003, 9.302907e+005
3.596638e+003, 9.293995e+005
3.598567e+003, 9.284436e+005
3.600495e+003, 9.279670e+005
3.602424e+003, 9.266253e+005
3.604352e+003, 9.244920e+005
3.606281e+003, 9.232790e+005
3.608209e+003, 9.225920e+005
3.610138e+003, 9.218297e+005
3.612066e+003, 9.208911e+005
3.613995e+003, 9.196298e+005
3.615923e+003, 9.186242e+005
3.617852e+003, 9.181138e+005
3.619780e+003, 9.174168e+005
3.621708e+003, 9.165907e+005
3.623637e+003, 9.156637e+005
3.625565e+003, 9.149077e+005
3.627494e+003, 9.146498e+005
3.629422e+003, 9.143522e+005
3.631351e+003, 9.137670e+005
3.633279e+003, 9.131619e+005
3.635208e+003, 9.125812e+005
3.637136e+003, 9.121736e+005
3.639065e+003, 9.116878e+005
3.640993e+003, 9.104300e+005
3.642922e+003, 9.091535e+005
3.644850e+003, 9.081070e+005
3.646779e+003, 9.073433e+005
3.648707e+003, 9.068346e+005
3.650635e+003, 9.063236e+005
3.652564e+003, 9.058157e+005
3.654492e+003, 9.055401e+005
3.656421e+003, 9.050494e+005
3.658349e+003, 9.038374e+005
3.660278e+003, 9.027999e+005
3.662206e+003, 9.021303e+005
3.664135e+003, 9.016724e+005
3.666063e+003, 9.013952e+005
3.667992e+003, 9.012035e+005
3.669920e+003, 9.010042e+005
3.671849e+003, 9.006369e+005
3.673777e+003, 9.002159e+005
3.675706e+003, 8.997431e+005
3.677634e+003, 8.995107e+005
3.679563e+003, 8.994730e+005
3.681491e+003, 8.987853e+005
3.683419e+003, 8.979852e+005
3.685348e+003, 8.974645e+005
3.687276e+003, 8.974522e+005
3.689205e+003, 8.983197e+005
3.691133e+003, 8.983458e+005
3.693062e+003, 8.974606e+005
3.694990e+003, 8.966421e+005
3.696919e+003, 8.959383e+005
3.698847e+003, 8.953588e+005
3.700776e+003, 8.950582e+005
3.702704e+003, 8.953042e+005
3.704633e+003, 8.953190e+005
3.706561e+003, 8.950558e+005
3.708490e+003, 8.951343e+005
3.710418e+003, 8.953953e+005
3.712346e+003, 8.957647e+005
3.714275e+003, 8.958721e+005
3.716203e+003, 8.952905e+005
3.718132e+003, 8.950251e+005
3.720060e+003, 8.951526e+005
3.721989e+003, 8.950948e+005
3.723917e+003, 8.948273e+005
3.725846e+003, 8.939505e+005
3.727774e+003, 8.934445e+005
3.729703e+003, 8.940158e+005
3.731631e+003, 8.945263e+005
3.733560e+003, 8.947931e+005
3.735488e+003, 8.950070e+005
3.737417e+003, 8.950438e+005
3.739345e+003, 8.947939e+005
3.741273e+003, 8.943023e+005
3.743202e+003, 8.937325e+005
3.745130e+003, 8.929170e+005
3.747059e+003, 8.919960e+005
3.748987e+003, 8.912495e+005
3.750916e+003, 8.906853e+005
3.752844e+003, 8.900306e+005
3.754773e+003, 8.898489e+005
3.756701e+003, 8.905292e+005
3.758630e+003, 8.911639e+005
3.760558e+003, 8.916191e+005
3.762487e+003, 8.920743e+005
3.764415e+003, 8.921739e+005
3.766344e+003, 8.912755e+005
3.768272e+003, 8.903208e+005
3.770200e+003, 8.898653e+005
3.772129e+003, 8.894434e+005
3.774057e+003, 8.891497e+005
3.775986e+003, 8.889191e+005
3.777914e+003, 8.889060e+005
3.779843e+003, 8.892404e+005
3.781771e+003, 8.896255e+005
3.783700e+003, 8.898594e+005
3.785628e+003, 8.897816e+005
3.787557e+003, 8.894570e+005
3.789485e+003, 8.893853e+005
3.791414e+003, 8.894116e+005
3.793342e+003, 8.895178e+005
3.795271e+003, 8.895599e+005
3.797199e+003, 8.895998e+005
3.799127e+003, 8.891775e+005
3.801056e+003, 8.884783e+005
3.802984e+003, 8.878298e+005
3.804913e+003, 8.873152e+005
3.806841e+003, 8.869770e+005
3.808770e+003, 8.868634e+005
3.810698e+003, 8.869529e+005
3.812627e+003, 8.873753e+005
3.814555e+003, 8.879572e+005
3.816484e+003, 8.885996e+005
3.818412e+003, 8.888719e+005
3.820341e+003, 8.885883e+005
3.822269e+003, 8.878352e+005
3.824198e+003, 8.867523e+005
3.826126e+003, 8.858108e+005
3.828054e+003, 8.849012e+005
3.829983e+003, 8.838701e+005
3.831911e+003, 8.830898e+005
3.833840e+003, 8.826533e+005
3.835768e+003, 8.828548e+005
3.837697e+003, 8.834310e+005
3.839625e+003, 8.838330e+005
3.841554e+003, 8.840460e+005
3.843482e+003, 8.839943e+005
3.845411e+003, 8.837845e+005
3.847339e+003, 8.834432e+005
3.849268e+003, 8.828641e+005
3.851196e+003, 8.821700e+005
3.853125e+003, 8.813110e+005
3.855053e+003, 8.809248e+005
3.856981e+003, 8.811874e+005
3.858910e+003, 8.817330e+005
3.860838e+003, 8.823437e+005
3.862767e+003, 8.824017e+005
3.864695e+003, 8.824058e+005
3.866624e+003, 8.828359e+005
3.868552e+003, 8.830220e+005
3.870481e+003, 8.829094e+005
3.872409e+003, 8.825728e+005
3.874338e+003, 8.824348e+005
3.876266e+003, 8.834529e+005
3.878195e+003, 8.843154e+005
3.880123e+003, 8.844314e+005
3.882052e+003, 8.844802e+005
3.883980e+003, 8.845175e+005
3.885908e+003, 8.847600e+005
3.887837e+003, 8.848621e+005
3.889765e+003, 8.844546e+005
3.891694e+003, 8.843462e+005
3.893622e+003, 8.846839e+005
3.895551e+003, 8.850235e+005
3.897479e+003, 8.852861e+005
3.899408e+003, 8.852799e+005
3.901336e+003, 8.851844e+005
3.903265e+003, 8.849340e+005
3.905193e+003, 8.852891e+005
3.907122e+003, 8.859942e+005
3.909050e+003, 8.863933e+005
3.910979e+003, 8.864968e+005
3.912907e+003, 8.861794e+005
3.914835e+003, 8.862091e+005
3.916764e+003, 8.866215e+005
3.918692e+003, 8.871314e+005
3.920621e+003, 8.874578e+005
3.922549e+003, 8.871591e+005
3.924478e+003, 8.871195e+005
3.926406e+003, 8.875955e+005
3.928335e+003, 8.869969e+005
3.930263e+003, 8.860613e+005
3.932192e+003, 8.863281e+005
3.934120e+003, 8.867071e+005
3.936049e+003, 8.865286e+005
3.937977e+003, 8.867332e+005
3.939906e+003, 8.872221e+005
3.941834e+003, 8.878023e+005
3.943762e+003, 8.881213e+005
3.945691e+003, 8.879202e+005
3.947619e+003, 8.876819e+005
3.949548e+003, 8.875174e+005
3.951476e+003, 8.878928e+005
3.953405e+003, 8.884593e+005
3.955333e+003, 8.888376e+005
3.957262e+003, 8.892577e+005
3.959190e+003, 8.898104e+005
3.961119e+003, 8.901133e+005
3.963047e+003, 8.902582e+005
3.964976e+003, 8.902113e+005
3.966904e+003, 8.904910e+005
3.968833e+003, 8.913084e+005
3.970761e+003, 8.914068e+005
3.972689e+003, 8.909741e+005
3.974618e+003, 8.908314e+005
3.976546e+003, 8.906563e+005
3.978475e+003, 8.903123e+005
3.980403e+003, 8.899585e+005
3.982332e+003, 8.896914e+005
3.984260e+003, 8.898093e+005
3.986189e+003, 8.899624e+005
3.988117e+003, 8.898135e+005
3.990046e+003, 8.896108e+005
3.991974e+003, 8.893611e+005
3.993903e+003, 8.890733e+005
3.995831e+003, 8.888910e+005
3.997760e+003, 8.890033e+005
3.999688e+003, 8.893209e+005
4.001616e+003, 8.898880e+005
4.003545e+003, 8.899098e+005
4.005473e+003, 8.896253e+005
4.007402e+003, 8.891648e+005
4.009330e+003, 8.890363e+005
4.011259e+003, 8.894365e+005
4.013187e+003, 8.896633e+005
4.015116e+003, 8.897651e+005
4.017044e+003, 8.897846e+005
4.018973e+003, 8.898258e+005
4.020901e+003, 8.898631e+005
4.022830e+003, 8.900493e+005
4.024758e+003, 8.902063e+005
4.026687e+003, 8.899343e+005
4.028615e+003, 8.894118e+005
4.030543e+003, 8.886238e+005
4.032472e+003, 8.883280e+005
4.034400e+003, 8.883576e+005
4.036329e+003, 8.879182e+005
4.038257e+003, 8.873984e+005
4.040186e+003, 8.868091e+005
4.042114e+003, 8.870868e+005
4.044043e+003, 8.879075e+005
4.045971e+003, 8.877959e+005
4.047900e+003, 8.877554e+005
4.049828e+003, 8.886340e+005
4.051757e+003, 8.882682e+005
4.053685e+003, 8.868628e+005
4.055614e+003, 8.870365e+005
4.057542e+003, 8.874646e+005
4.059470e+003, 8.870864e+005
4.061399e+003, 8.871150e+005
4.063327e+003, 8.875368e+005
4.065256e+003, 8.874162e+005
4.067184e+003, 8.872926e+005
4.069113e+003, 8.876408e+005
4.071041e+003, 8.878478e+005
4.072970e+003, 8.878833e+005
4.074898e+003, 8.882469e+005
4.076827e+003, 8.882563e+005
4.078755e+003, 8.871700e+005
4.080684e+003, 8.867061e+005
4.082612e+003, 8.869510e+005
4.084541e+003, 8.862296e+005
4.086469e+003, 8.852004e+005
4.088397e+003, 8.841189e+005
4.090326e+003, 8.840482e+005
4.092254e+003, 8.849106e+005
4.094183e+003, 8.848356e+005
4.096111e+003, 8.847525e+005
4.098040e+003, 8.856054e+005
4.099968e+003, 8.858647e+005
4.101896e+003, 8.854981e+005
4.103825e+003, 8.854058e+005
4.105754e+003, 8.852429e+005
4.107682e+003, 8.847044e+005
4.109610e+003, 8.844638e+005
4.111539e+003, 8.845088e+005
4.113468e+003, 8.845668e+005
4.115396e+003, 8.843231e+005
4.117324e+003, 8.834239e+005
4.119253e+003, 8.833156e+005
4.121182e+003, 8.839044e+005
4.123110e+003, 8.840263e+005
4.125038e+003, 8.841327e+005
4.126967e+003, 8.844683e+005
4.128896e+003, 8.847682e+005
4.130824e+003, 8.850901e+005
4.132752e+003, 8.859728e+005
4.134681e+003, 8.866593e+005
4.136609e+003, 8.864204e+005
4.138538e+003, 8.869884e+005
4.140466e+003, 8.879276e+005
4.142395e+003, 8.879968e+005
4.144323e+003, 8.879692e+005
4.146251e+003, 8.881561e+005
4.148180e+003, 8.883991e+005
4.150108e+003, 8.885883e+005
4.152037e+003, 8.884839e+005
4.153965e+003, 8.885065e+005
4.155894e+003, 8.887953e+005
4.157822e+003, 8.889710e+005
4.159751e+003, 8.890908e+005
4.161679e+003, 8.890871e+005
4.163607e+003, 8.894687e+005
4.165536e+003, 8.902574e+005
4.167465e+003, 8.900302e+005
4.169393e+003, 8.895148e+005
4.171321e+003, 8.895758e+005
4.173250e+003, 8.896621e+005
4.175179e+003, 8.897288e+005
4.177107e+003, 8.896715e+005
4.179035e+003, 8.899368e+005
4.180964e+003, 8.910555e+005
4.182893e+003, 8.918400e+005
4.184821e+003, 8.921625e+005
4.186749e+003, 8.921152e+005
4.188678e+003, 8.920123e+005
4.190606e+003, 8.920678e+005
4.192535e+003, 8.920778e+005
4.194463e+003, 8.919408e+005
4.196392e+003, 8.915228e+005
4.198320e+003, 8.907036e+005
4.200249e+003, 8.893603e+005
4.202177e+003, 8.888228e+005
4.204105e+003, 8.887190e+005
4.206034e+003, 8.883751e+005
4.207962e+003, 8.880097e+005
4.209891e+003, 8.876720e+005
4.211819e+003, 8.873578e+005
4.213748e+003, 8.874683e+005
4.215676e+003, 8.886185e+005
4.217604e+003, 8.893318e+005
4.219533e+003, 8.894474e+005
4.221462e+003, 8.895883e+005
4.223390e+003, 8.892435e+005
4.225318e+003, 8.881307e+005
4.227247e+003, 8.873155e+005
4.229176e+003, 8.868842e+005
4.231104e+003, 8.864416e+005
4.233032e+003, 8.865053e+005
4.234961e+003, 8.871175e+005
4.236890e+003, 8.875953e+005
4.238818e+003, 8.878275e+005
4.240746e+003, 8.873778e+005
4.242675e+003, 8.860638e+005
##END=



