##NAMES=Bellingerite
##RRUFFID=R050607
##IDEAL CHEMISTRY=Cu_3_(IO_3_)_6_·2H_2_O
##LOCALITY=Chuquicamata, Chile
##OWNER=RRUFF
##SOURCE=University of Arizona Mineral Museum
##DESCRIPTION=Bluish green prismatic crystals
##STATUS=The identification of this mineral has been confirmed by single-crystal X-ray diffraction
##URL=https://www.rruff.net/odr/rruff_sample/R050607
##DIFFRACTION SAMPLE DESCRIPTION=Single crystal, powder profile is calculated
##CELL PARAMETERS=a: 7.2687 b: 7.9609 c: 7.8601 alpha: 105.049 beta: 93.093 gamma: 96.977 volume: 434.2 crystal system: triclinic
##FILETYPE=Raman RAW
##RAMAN WAVELENGTH=532

87.66873, 637.2820
89.59720, 588.2493
91.52567, 596.6513
93.45413, 648.8091
95.38260, 669.9692
97.31107, 623.0853
99.23953, 576.5518
101.1680, 566.6700
103.0965, 616.9341
105.0249, 671.0465
106.9534, 690.5058
108.8819, 697.1692
110.8103, 784.1611
112.7388, 824.1894
114.6673, 1027.690
116.5957, 1598.104
118.5242, 2454.636
120.4527, 3746.866
122.3811, 5645.325
124.3096, 8099.039
126.2381, 10730.64
128.1665, 13508.72
130.0950, 16428.75
132.0235, 19495.12
133.9519, 22736.36
135.8804, 26057.52
137.8089, 29484.78
139.7373, 33111.14
141.6658, 36489.55
143.5943, 39749.46
145.5227, 42662.71
147.4512, 44667.65
149.3797, 43569.43
151.3081, 42565.42
153.2366, 41714.38
155.1651, 40939.26
157.0935, 40813.66
159.0220, 41659.89
160.9505, 43041.19
162.8789, 44450.26
164.8074, 46792.64
166.7359, 48355.43
168.6643, 48532.75
170.5928, 47505.56
172.5213, 45823.18
174.4497, 43133.70
176.3782, 39938.96
178.3067, 37403.80
180.2351, 35517.12
182.1636, 34108.05
184.0921, 33092.42
186.0205, 32721.89
187.9490, 32163.88
189.8775, 31409.54
191.8059, 30400.98
193.7344, 29113.69
195.6629, 27039.92
197.5913, 25246.28
199.5198, 24101.84
201.4483, 23655.21
203.3767, 23857.20
205.3052, 25083.82
207.2337, 26949.64
209.1621, 28836.44
211.0906, 30723.64
213.0191, 32678.01
214.9475, 34630.92
216.8760, 36522.36
218.8045, 38672.82
220.7329, 41298.13
222.6614, 44198.50
224.5899, 47102.73
226.5183, 50002.91
228.4468, 52990.64
230.3753, 56005.48
232.3037, 59007.79
234.2322, 61875.28
236.1607, 65197.07
238.0891, 68293.56
240.0176, 70013.07
241.9461, 70192.36
243.8745, 69499.38
245.8030, 67954.75
247.7315, 65122.63
249.6599, 62927.14
251.5884, 61133.09
253.5169, 60281.48
255.4453, 60745.20
257.3738, 62941.07
259.3023, 65970.08
261.2307, 69860.52
263.1592, 74713.84
265.0877, 78634.29
267.0161, 81818.22
268.9446, 83772.45
270.8731, 84169.84
272.8015, 82354.71
274.7300, 79519.55
276.6585, 75329.41
278.5869, 69922.66
280.5154, 64773.08
282.4439, 59666.87
284.3723, 55361.95
286.3008, 52302.47
288.2293, 50698.18
290.1577, 50176.33
292.0862, 51420.24
294.0147, 53755.46
295.9431, 55821.06
297.8716, 57657.88
299.8001, 59142.90
301.7285, 59625.18
303.6570, 58918.78
305.5855, 58874.10
307.5139, 59844.94
309.4424, 61676.82
311.3709, 64765.38
313.2993, 70970.66
315.2278, 76868.20
317.1563, 81629.04
319.0847, 85388.66
321.0132, 87267.96
322.9417, 85539.77
324.8701, 82083.50
326.7986, 78713.74
328.7271, 75405.54
330.6555, 72661.23
332.5840, 71164.27
334.5125, 70727.27
336.4409, 70293.26
338.3694, 69763.39
340.2979, 68940.71
342.2263, 67626.31
344.1548, 65772.70
346.0833, 63851.78
348.0117, 62180.36
349.9402, 60773.83
351.8687, 59370.21
353.7971, 58090.11
355.7256, 56543.79
357.6541, 54573.38
359.5826, 52192.19
361.5110, 49471.30
363.4395, 46207.23
365.3680, 42930.86
367.2964, 39799.14
369.2249, 36635.98
371.1534, 33898.32
373.0818, 31917.90
375.0103, 30578.57
376.9388, 29916.66
378.8672, 30207.12
380.7957, 30928.37
382.7242, 31981.51
384.6526, 33371.98
386.5811, 35322.25
388.5096, 37586.05
390.4380, 40644.41
392.3665, 45059.33
394.2950, 51381.03
396.2234, 58323.48
398.1519, 66670.33
400.0804, 75600.88
402.0088, 82726.84
403.9373, 86890.36
405.8658, 88428.33
407.7942, 86771.63
409.7227, 81487.02
411.6512, 74683.95
413.5796, 66665.11
415.5081, 58399.65
417.4366, 50912.12
419.3650, 44614.42
421.2935, 39365.09
423.2220, 35298.54
425.1504, 32276.77
427.0789, 29720.38
429.0074, 27544.54
430.9358, 25783.67
432.8643, 24324.09
434.7928, 23135.65
436.7212, 22431.50
438.6497, 22102.84
440.5782, 22282.97
442.5066, 22936.31
444.4351, 24044.18
446.3636, 25608.98
448.2920, 27602.19
450.2205, 30046.33
452.1490, 32971.89
454.0774, 36555.69
456.0059, 40430.23
457.9344, 44432.77
459.8628, 48511.09
461.7913, 53266.01
463.7198, 58404.80
465.6482, 64562.57
467.5767, 72449.47
469.5052, 82171.73
471.4336, 92756.78
473.3621, 104621.2
475.2906, 116544.1
477.2190, 126244.2
479.1475, 132867.6
481.0760, 135718.3
483.0044, 133493.7
484.9329, 127066.4
486.8614, 118269.6
488.7898, 107650.7
490.7183, 97048.46
492.6468, 87239.41
494.5752, 78727.16
496.5037, 71392.37
498.4322, 65420.39
500.3606, 60236.64
502.2891, 55351.93
504.2176, 50423.07
506.1460, 45602.32
508.0745, 40767.30
510.0030, 36161.73
511.9314, 32142.70
513.8599, 28768.47
515.7883, 25908.57
517.7168, 23485.88
519.6453, 21499.69
521.5737, 19830.06
523.5022, 18465.58
525.4307, 17298.75
527.3591, 16274.71
529.2876, 15363.03
531.2161, 14595.04
533.1445, 13995.30
535.0730, 13497.15
537.0015, 13051.83
538.9299, 12652.79
540.8584, 12325.13
542.7869, 12081.23
544.7153, 11895.23
546.6438, 11742.19
548.5723, 11649.49
550.5007, 11570.57
552.4292, 11485.96
554.3577, 11388.47
556.2861, 11303.24
558.2146, 11250.97
560.1431, 11221.92
562.0715, 11204.44
564.0000, 11190.28
565.9285, 11203.90
567.8569, 11259.50
569.7854, 11315.26
571.7139, 11338.37
573.6423, 11337.23
575.5708, 11337.40
577.4993, 11344.01
579.4277, 11349.18
581.3562, 11345.38
583.2847, 11327.52
585.2131, 11311.76
587.1416, 11292.38
589.0701, 11283.13
590.9985, 11301.36
592.9270, 11367.82
594.8555, 11425.33
596.7839, 11445.38
598.7124, 11440.79
600.6409, 11478.53
602.5693, 11566.38
604.4978, 11677.27
606.4263, 11800.44
608.3547, 11929.15
610.2832, 12071.28
612.2117, 12238.50
614.1401, 12433.80
616.0686, 12665.14
617.9971, 12915.29
619.9255, 13167.53
621.8540, 13424.36
623.7825, 13681.76
625.7109, 13930.36
627.6394, 14161.88
629.5679, 14412.81
631.4963, 14695.07
633.4248, 14999.24
635.3533, 15308.46
637.2817, 15600.67
639.2102, 15913.82
641.1387, 16282.28
643.0671, 16687.16
644.9956, 17064.73
646.9241, 17367.87
648.8525, 17720.20
650.7810, 18136.82
652.7095, 18657.59
654.6379, 19246.77
656.5664, 19889.07
658.4949, 20623.15
660.4233, 21418.65
662.3518, 22398.42
664.2803, 23514.38
666.2087, 24746.38
668.1372, 26392.73
670.0657, 28451.14
671.9941, 31010.04
673.9226, 34256.67
675.8511, 38115.50
677.7795, 42319.61
679.7080, 47011.21
681.6365, 51748.88
683.5649, 57100.73
685.4934, 62629.55
687.4219, 69125.13
689.3503, 76578.17
691.2788, 85995.20
693.2073, 96568.13
695.1357, 108187.5
697.0642, 121621.8
698.9927, 135951.0
700.9211, 150909.4
702.8496, 171457.2
704.7781, 197886.9
706.7065, 231379.9
708.6350, 274268.7
710.5635, 329231.7
712.4919, 381547.2
714.4204, 438246.6
716.3489, 480866.2
718.2773, 495924.3
720.2058, 485445.2
722.1343, 460921.3
724.0627, 412828.6
725.9912, 360645.4
727.9197, 310965.0
729.8481, 263576.8
731.7766, 226005.8
733.7051, 199888.1
735.6335, 182825.7
737.5620, 173340.9
739.4905, 171855.2
741.4189, 172818.6
743.3474, 176995.4
745.2759, 181579.7
747.2043, 185714.5
749.1328, 188770.5
751.0613, 191086.1
752.9897, 191449.1
754.9182, 191976.8
756.8467, 194007.4
758.7751, 197236.4
760.7036, 203574.7
762.6321, 212979.3
764.5605, 225622.0
766.4890, 241567.0
768.4175, 261144.8
770.3459, 283835.4
772.2744, 309556.3
774.2029, 338601.8
776.1313, 371614.3
778.0598, 409233.0
779.9883, 448986.4
781.9167, 494916.4
783.8452, 540708.3
785.7737, 578866.2
787.7021, 611787.5
789.6306, 630710.3
791.5591, 631281.3
793.4875, 617487.3
795.4160, 593947.2
797.3445, 558033.8
799.2729, 520891.8
801.2014, 485243.4
803.1299, 449081.4
805.0583, 409982.6
806.9868, 366710.8
808.9153, 323540.1
810.8438, 278303.1
812.7722, 234890.4
814.7007, 196290.5
816.6292, 162379.5
818.5576, 133800.7
820.4861, 111396.8
822.4146, 93470.02
824.3430, 78755.75
826.2715, 68035.17
828.2000, 58652.36
830.1284, 50672.50
832.0569, 43930.05
833.9854, 38082.30
835.9138, 33156.92
837.8423, 29083.70
839.7708, 26045.18
841.6992, 23642.84
843.6277, 21603.83
845.5562, 19971.09
847.4846, 18572.26
849.4131, 17479.49
851.3416, 16573.40
853.2700, 15773.99
855.1985, 15080.88
857.1270, 14439.17
859.0554, 13845.25
860.9839, 13290.17
862.9124, 12778.36
864.8408, 12313.81
866.7693, 11869.67
868.6978, 11451.91
870.6262, 11052.48
872.5547, 10654.54
874.4832, 10261.38
876.4116, 9903.447
878.3401, 9595.403
880.2686, 9310.812
882.1970, 9047.951
884.1255, 8821.497
886.0540, 8597.919
887.9824, 8360.680
889.9109, 8133.918
891.8394, 7949.761
893.7678, 7804.579
895.6963, 7651.190
897.6248, 7466.800
899.5532, 7297.374
901.4817, 7163.956
903.4102, 7066.412
905.3386, 6971.554
907.2671, 6887.219
909.1956, 6791.739
911.1240, 6664.726
913.0525, 6505.454
914.9810, 6384.921
916.9094, 6328.599
918.8379, 6294.991
920.7664, 6258.361
922.6948, 6221.348
924.6233, 6207.520
926.5518, 6229.864
928.4802, 6232.654
930.4087, 6186.815
932.3372, 6151.530
934.2656, 6154.199
936.1941, 6170.206
938.1226, 6181.206
940.0510, 6199.353
941.9795, 6222.598
943.9080, 6212.736
945.8364, 6155.467
947.7649, 6110.332
949.6934, 6104.767
951.6218, 6103.043
953.5503, 6076.184
955.4788, 6036.456
957.4072, 6007.840
959.3357, 6005.210
961.2642, 5982.629
963.1926, 5911.227
965.1211, 5802.963
967.0496, 5688.703
968.9780, 5569.505
970.9065, 5453.074
972.8350, 5342.905
974.7634, 5216.295
976.6919, 5094.935
978.6204, 5001.645
980.5488, 4922.896
982.4773, 4843.300
984.4058, 4745.150
986.3342, 4646.805
988.2627, 4558.891
990.1912, 4476.908
992.1196, 4401.826
994.0481, 4309.345
995.9766, 4200.863
997.9050, 4090.966
999.8335, 4000.312
1001.762, 3933.358
1003.690, 3872.633
1005.619, 3809.016
1007.547, 3749.626
1009.476, 3684.503
1011.404, 3600.000
1013.333, 3506.224
1015.261, 3418.559
1017.190, 3377.188
1019.118, 3352.844
1021.047, 3301.744
1022.975, 3232.411
1024.904, 3173.974
1026.832, 3176.914
1028.760, 3179.595
1030.689, 3160.130
1032.617, 3126.760
1034.546, 3084.333
1036.474, 3050.386
1038.403, 3034.153
1040.331, 3037.843
1042.260, 3036.008
1044.188, 3015.360
1046.117, 2981.142
1048.045, 2946.985
1049.974, 2913.115
1051.902, 2891.978
1053.831, 2901.624
1055.759, 2919.758
1057.688, 2914.346
1059.616, 2853.317
1061.544, 2795.865
1063.473, 2772.831
1065.401, 2774.794
1067.330, 2790.527
1069.258, 2782.678
1071.187, 2752.589
1073.115, 2721.691
1075.044, 2708.364
1076.972, 2713.195
1078.901, 2717.660
1080.829, 2705.207
1082.758, 2682.333
1084.686, 2657.604
1086.615, 2628.458
1088.543, 2600.099
1090.471, 2582.114
1092.400, 2571.544
1094.328, 2566.892
1096.257, 2561.120
1098.185, 2550.952
1100.114, 2544.648
1102.042, 2566.909
1103.971, 2609.132
1105.899, 2621.729
1107.828, 2605.380
1109.756, 2576.065
1111.685, 2564.754
1113.613, 2581.107
1115.542, 2597.850
1117.470, 2597.147
1119.398, 2585.730
1121.327, 2583.231
1123.255, 2601.317
1125.184, 2624.886
1127.112, 2633.187
1129.041, 2627.704
1130.969, 2621.738
1132.898, 2618.708
1134.826, 2619.626
1136.755, 2636.977
1138.683, 2675.935
1140.612, 2681.588
1142.540, 2649.736
1144.469, 2615.683
1146.397, 2626.084
1148.325, 2660.048
1150.254, 2663.504
1152.182, 2633.660
1154.111, 2600.477
1156.039, 2585.594
1157.968, 2590.896
1159.896, 2613.756
1161.825, 2645.005
1163.753, 2640.320
1165.682, 2601.826
1167.610, 2553.721
1169.539, 2531.650
1171.467, 2540.142
1173.396, 2561.699
1175.324, 2575.325
1177.252, 2581.415
1179.181, 2584.069
1181.109, 2581.074
1183.038, 2563.913
1184.966, 2556.836
1186.895, 2560.581
1188.823, 2565.469
1190.752, 2572.072
1192.680, 2579.366
1194.609, 2571.154
1196.537, 2536.102
1198.466, 2485.665
1200.394, 2443.479
1202.323, 2423.223
1204.251, 2425.495
1206.179, 2429.468
1208.108, 2430.819
1210.036, 2416.328
1211.965, 2393.742
1213.893, 2374.822
1215.822, 2367.821
1217.750, 2367.656
1219.679, 2355.203
1221.607, 2321.705
1223.536, 2266.523
1225.464, 2211.075
1227.393, 2169.906
1229.321, 2154.571
1231.250, 2149.748
1233.178, 2138.092
1235.106, 2132.288
1237.035, 2138.158
1238.963, 2147.867
1240.892, 2150.719
1242.820, 2150.776
1244.749, 2154.248
1246.677, 2169.567
1248.606, 2197.216
1250.534, 2229.001
1252.463, 2235.591
1254.391, 2212.921
1256.320, 2205.394
1258.248, 2215.792
1260.177, 2240.337
1262.105, 2261.845
1264.033, 2272.896
1265.962, 2266.043
1267.890, 2256.403
1269.819, 2246.289
1271.747, 2228.553
1273.676, 2209.372
1275.604, 2192.660
1277.533, 2167.865
1279.461, 2145.846
1281.390, 2156.784
1283.318, 2172.465
1285.247, 2150.405
1287.175, 2077.125
1289.104, 2008.915
1291.032, 1951.571
1292.960, 1919.918
1294.889, 1924.022
1296.817, 1934.551
1298.746, 1907.248
1300.674, 1838.599
1302.603, 1792.172
1304.531, 1795.253
1306.460, 1797.446
1308.388, 1767.922
1310.317, 1719.580
1312.245, 1684.963
1314.174, 1671.652
1316.102, 1653.359
1318.031, 1608.020
1319.959, 1562.953
1321.887, 1556.536
1323.816, 1595.682
1325.744, 1607.753
1327.673, 1550.753
1329.601, 1501.547
1331.530, 1485.598
1333.458, 1492.047
1335.387, 1501.948
1337.315, 1514.293
1339.244, 1512.865
1341.172, 1483.969
1343.101, 1462.350
1345.029, 1463.732
1346.958, 1471.957
1348.886, 1477.700
1350.814, 1482.645
1352.743, 1481.650
1354.671, 1468.560
1356.600, 1455.978
1358.528, 1440.111
1360.457, 1428.212
1362.385, 1439.752
1364.314, 1485.161
1366.242, 1508.710
1368.171, 1485.670
1370.099, 1457.445
1372.028, 1441.513
1373.956, 1439.335
1375.885, 1447.039
1377.813, 1479.599
1379.741, 1496.749
1381.670, 1478.929
1383.598, 1460.292
1385.527, 1475.456
1387.455, 1523.002
1389.384, 1544.835
1391.312, 1526.695
1393.241, 1505.016
1395.169, 1486.413
1397.098, 1479.849
1399.026, 1487.813
1400.955, 1503.158
1402.883, 1506.933
1404.812, 1490.359
1406.740, 1483.607
1408.668, 1505.804
1410.597, 1535.690
1412.525, 1551.160
1414.454, 1551.131
1416.382, 1557.240
1418.311, 1580.803
1420.239, 1597.910
1422.168, 1586.752
1424.096, 1571.525
1426.025, 1580.308
1427.953, 1615.354
1429.882, 1648.406
1431.810, 1689.480
1433.739, 1712.945
1435.667, 1702.141
1437.595, 1682.519
1439.524, 1675.826
1441.452, 1680.749
1443.381, 1692.848
1445.309, 1719.260
1447.238, 1742.543
1449.166, 1756.142
1451.095, 1767.640
1453.023, 1784.964
1454.952, 1806.990
1456.880, 1821.605
1458.809, 1821.972
1460.737, 1828.808
1462.666, 1855.648
1464.594, 1885.665
1466.522, 1901.746
1468.451, 1908.088
1470.379, 1924.681
1472.308, 1958.496
1474.236, 1985.377
1476.165, 2000.331
1478.093, 2002.590
1480.022, 1980.167
1481.950, 1941.911
1483.879, 1936.396
1485.807, 1978.438
1487.736, 2015.596
1489.664, 2030.041
1491.593, 2044.616
1493.521, 2072.751
1495.449, 2109.609
1497.378, 2141.995
1499.306, 2173.778
1501.235, 2192.558
1503.163, 2191.941
1505.092, 2184.670
1507.020, 2159.701
1508.949, 2134.260
1510.877, 2157.366
1512.806, 2266.515
1514.734, 2333.295
1516.663, 2338.281
1518.591, 2325.673
1520.520, 2302.264
1522.448, 2274.544
1524.376, 2249.707
1526.305, 2224.335
1528.233, 2223.227
1530.162, 2275.640
1532.090, 2312.923
1534.019, 2304.455
1535.947, 2280.673
1537.876, 2270.442
1539.804, 2271.132
1541.733, 2280.488
1543.661, 2309.991
1545.590, 2326.882
1547.518, 2310.101
1549.447, 2284.355
1551.375, 2260.436
1553.303, 2243.913
1555.232, 2260.001
1557.160, 2321.289
1559.089, 2356.968
1561.017, 2335.772
1562.946, 2305.976
1564.874, 2284.149
1566.803, 2275.578
1568.731, 2294.872
1570.660, 2342.731
1572.588, 2382.667
1574.517, 2423.730
1576.445, 2431.463
1578.374, 2352.958
1580.302, 2262.847
1582.230, 2240.794
1584.159, 2279.324
1586.087, 2289.907
1588.016, 2249.490
1589.944, 2236.046
1591.873, 2304.892
1593.801, 2366.588
1595.730, 2377.270
1597.658, 2344.947
1599.587, 2282.040
1601.515, 2172.209
1603.444, 2097.328
1605.372, 2084.883
1607.301, 2082.904
1609.229, 2087.541
1611.157, 2087.612
1613.086, 2060.001
1615.014, 2062.282
1616.943, 2065.911
1618.871, 2037.134
1620.800, 2067.644
1622.728, 2043.993
1624.657, 2005.443
1626.585, 1967.982
1628.514, 1934.755
1630.442, 1917.581
1632.371, 1932.513
1634.299, 1923.113
1636.228, 1863.104
1638.156, 1812.808
1640.084, 1797.759
1642.013, 1793.410
1643.941, 1771.822
1645.870, 1734.389
1647.798, 1709.766
1649.727, 1706.794
1651.655, 1704.062
1653.584, 1706.902
1655.512, 1703.660
1657.441, 1686.120
1659.369, 1659.707
1661.298, 1632.132
1663.226, 1601.853
1665.155, 1578.973
1667.083, 1563.370
1669.011, 1554.457
1670.940, 1562.113
1672.868, 1566.953
1674.797, 1543.571
1676.725, 1563.273
1678.654, 1510.438
1680.582, 1576.461
1682.511, 1610.866
1684.439, 1604.057
1686.368, 1578.737
1688.296, 1511.936
1690.225, 1452.502
1692.153, 1460.121
1694.082, 1521.357
1696.010, 1551.326
1697.938, 1533.106
1699.867, 1522.384
1701.795, 1535.126
1703.724, 1538.237
1705.652, 1512.926
1707.581, 1476.551
1709.509, 1442.625
1711.438, 1412.572
1713.366, 1409.706
1715.295, 1460.618
1717.223, 1486.031
1719.152, 1464.247
1721.080, 1436.067
1723.009, 1407.475
1724.937, 1389.529
1726.865, 1406.930
1728.794, 1459.625
1730.722, 1482.665
1732.651, 1451.336
1734.579, 1433.511
1736.508, 1455.702
1738.436, 1465.720
1740.365, 1420.865
1742.293, 1359.552
1744.222, 1341.307
1746.150, 1366.882
1748.079, 1374.464
1750.007, 1355.875
1751.936, 1332.208
1753.864, 1291.762
1755.792, 1261.970
1757.721, 1252.542
1759.649, 1262.889
1761.578, 1306.735
1763.506, 1382.859
1765.435, 1407.889
1767.363, 1336.576
1769.292, 1289.451
1771.220, 1278.895
1773.149, 1282.340
1775.077, 1305.447
1777.006, 1327.532
1778.934, 1318.707
1780.863, 1282.527
1782.791, 1261.011
1784.719, 1259.624
1786.648, 1260.668
1788.576, 1260.964
1790.505, 1266.450
1792.433, 1293.787
1794.362, 1314.487
1796.290, 1292.132
1798.219, 1238.269
1800.147, 1205.632
1802.076, 1193.499
1804.004, 1208.580
1805.933, 1287.945
1807.861, 1334.315
1809.790, 1302.226
1811.718, 1251.063
1813.646, 1212.798
1815.575, 1187.963
1817.503, 1178.729
1819.432, 1185.353
1821.360, 1206.149
1823.289, 1258.204
1825.217, 1278.002
1827.146, 1222.868
1829.074, 1166.598
1831.003, 1144.805
1832.931, 1145.236
1834.860, 1160.898
1836.788, 1186.702
1838.717, 1186.891
1840.645, 1151.384
1842.573, 1141.186
1844.502, 1186.334
1846.430, 1223.361
1848.359, 1211.912
1850.287, 1193.061
1852.216, 1207.517
1854.144, 1238.872
1856.073, 1253.048
1858.001, 1249.612
1859.930, 1224.418
1861.858, 1156.828
1863.787, 1121.555
1865.715, 1168.865
1867.644, 1218.208
1869.572, 1228.701
1871.500, 1216.871
1873.429, 1201.610
1875.357, 1182.788
1877.286, 1158.563
1879.214, 1125.056
1881.143, 1099.342
1883.071, 1076.324
1885.000, 1069.756
1886.928, 1101.842
1888.857, 1131.766
1890.785, 1123.626
1892.714, 1096.709
1894.642, 1085.162
1896.571, 1089.261
1898.499, 1105.285
1900.427, 1142.918
1902.356, 1173.402
1904.284, 1202.523
1906.213, 1214.771
1908.141, 1202.093
1910.070, 1173.631
1911.998, 1121.116
1913.927, 1062.645
1915.855, 1050.604
1917.784, 1086.221
1919.712, 1092.920
1921.641, 1054.077
1923.569, 1033.616
1925.498, 1049.847
1927.426, 1076.958
1929.354, 1120.790
1931.283, 1154.531
1933.211, 1143.477
1935.140, 1112.007
1937.068, 1116.798
1938.997, 1154.916
1940.925, 1167.149
1942.854, 1142.513
1944.782, 1117.724
1946.711, 1090.872
1948.639, 1079.393
1950.568, 1109.867
1952.496, 1139.490
1954.425, 1119.384
1956.353, 1077.107
1958.281, 1077.637
1960.210, 1123.034
1962.138, 1144.141
1964.067, 1123.087
1965.995, 1110.879
1967.924, 1121.114
1969.852, 1121.862
1971.781, 1093.201
1973.709, 1064.361
1975.638, 1056.449
1977.566, 1060.441
1979.495, 1058.157
1981.423, 1051.573
1983.352, 1077.390
1985.280, 1148.394
1987.208, 1166.341
1989.137, 1090.206
1991.065, 1036.239
1992.994, 1051.406
1994.922, 1078.011
1996.851, 1085.104
1998.779, 1086.198
2000.708, 1102.403
2002.636, 1122.347
2004.565, 1109.183
2006.493, 1062.484
2008.422, 1039.272
2010.350, 1053.206
2012.279, 1061.601
2014.207, 1043.040
2016.135, 1038.479
2018.064, 1086.324
2019.992, 1125.981
2021.921, 1096.157
2023.849, 1039.871
2025.778, 1027.741
2027.706, 1054.890
2029.635, 1077.613
2031.563, 1094.613
2033.492, 1114.770
2035.420, 1149.204
2037.349, 1160.496
2039.277, 1125.871
2041.206, 1090.225
2043.134, 1074.391
2045.063, 1063.898
2046.991, 1034.936
2048.919, 1010.317
2050.848, 1047.429
2052.776, 1128.279
2054.705, 1142.856
2056.633, 1075.858
2058.562, 1031.179
2060.490, 1026.878
2062.419, 1030.818
2064.347, 1036.801
2066.276, 1049.714
2068.204, 1081.548
2070.133, 1111.497
2072.061, 1122.036
2073.990, 1118.275
2075.918, 1103.183
2077.846, 1079.164
2079.775, 1082.024
2081.703, 1119.199
2083.632, 1126.611
2085.560, 1087.154
2087.489, 1055.515
2089.417, 1038.825
2091.346, 1041.419
2093.274, 1096.735
2095.203, 1136.787
2097.131, 1088.038
2099.060, 1012.364
2100.988, 1000.273
2102.917, 1033.385
2104.845, 1036.512
2106.773, 1002.233
2108.702, 1002.086
2110.630, 1074.134
2112.559, 1111.623
2114.487, 1095.051
2116.416, 1071.585
2118.344, 1037.405
2120.273, 1015.565
2122.201, 1026.903
2124.130, 1046.485
2126.058, 1047.746
2127.987, 1065.286
2129.915, 1061.381
2131.844, 1095.786
2133.772, 1101.353
2135.700, 1124.514
2137.629, 1153.029
2139.557, 1149.320
2141.486, 1194.312
2143.414, 1192.241
2145.343, 1177.443
2147.271, 1148.555
2149.200, 1123.363
2151.128, 1118.624
2153.057, 1116.825
2154.985, 1091.745
2156.914, 1059.156
2158.842, 1054.313
2160.771, 1074.867
2162.699, 1108.625
2164.627, 1156.612
2166.556, 1174.725
2168.484, 1150.574
2170.413, 1135.093
2172.341, 1146.530
2174.270, 1151.797
2176.198, 1128.986
2178.127, 1111.268
2180.055, 1122.676
2181.984, 1139.726
2183.912, 1130.603
2185.841, 1119.167
2187.769, 1157.491
2189.698, 1230.574
2191.626, 1262.580
2193.554, 1252.512
2195.483, 1248.481
2197.411, 1254.195
2199.340, 1251.145
2201.268, 1233.347
2203.197, 1217.927
2205.125, 1210.037
2207.054, 1204.317
2208.982, 1188.777
2210.911, 1186.657
2212.839, 1223.194
2214.768, 1270.853
2216.696, 1311.823
2218.625, 1336.999
2220.553, 1314.937
2222.481, 1256.591
2224.410, 1237.991
2226.338, 1259.719
2228.267, 1275.014
2230.195, 1279.679
2232.124, 1294.443
2234.052, 1330.313
2235.981, 1350.251
2237.909, 1323.115
2239.838, 1314.145
2241.766, 1364.945
2243.695, 1417.513
2245.623, 1438.866
2247.552, 1446.633
2249.480, 1458.341
2251.408, 1466.501
2253.337, 1458.167
2255.265, 1436.180
2257.194, 1404.729
2259.122, 1366.844
2261.051, 1346.960
2262.979, 1346.089
2264.908, 1369.129
2266.836, 1430.482
2268.765, 1460.487
2270.693, 1422.111
2272.622, 1393.843
2274.550, 1389.717
2276.479, 1399.915
2278.407, 1437.328
2280.335, 1468.129
2282.264, 1474.275
2284.192, 1462.253
2286.121, 1416.219
2288.049, 1370.495
2289.978, 1390.922
2291.906, 1379.771
2293.835, 1396.997
2295.763, 1435.093
2297.692, 1450.239
2299.620, 1519.874
2301.549, 1547.659
2303.477, 1519.841
2305.406, 1480.466
2307.334, 1419.182
2309.262, 1371.787
2311.191, 1346.388
2313.119, 1330.327
2315.048, 1316.208
2316.976, 1316.322
2318.905, 1355.374
2320.833, 1389.216
2322.762, 1375.556
2324.690, 1399.604
2326.619, 1364.707
2328.547, 1389.220
2330.476, 1368.212
2332.404, 1323.748
2334.333, 1340.423
2336.261, 1407.599
2338.189, 1433.793
2340.118, 1418.511
2342.046, 1387.195
2343.975, 1338.588
2345.903, 1305.016
2347.832, 1295.582
2349.760, 1287.308
2351.689, 1276.282
2353.617, 1266.981
2355.546, 1270.390
2357.474, 1260.481
2359.403, 1203.709
2361.331, 1165.370
2363.260, 1186.394
2365.188, 1223.328
2367.116, 1259.449
2369.045, 1282.469
2370.973, 1266.337
2372.902, 1238.201
2374.830, 1241.859
2376.759, 1267.319
2378.687, 1296.632
2380.616, 1324.849
2382.544, 1312.548
2384.473, 1261.689
2386.401, 1222.966
2388.330, 1198.155
2390.258, 1169.073
2392.187, 1127.200
2394.115, 1128.438
2396.043, 1215.983
2397.972, 1263.737
2399.900, 1232.693
2401.829, 1197.300
2403.757, 1153.246
2405.686, 1133.374
2407.614, 1174.651
2409.543, 1197.537
2411.471, 1141.706
2413.400, 1087.280
2415.328, 1091.967
2417.257, 1114.371
2419.185, 1121.446
2421.114, 1123.402
2423.042, 1132.829
2424.970, 1145.438
2426.899, 1154.735
2428.827, 1160.936
2430.756, 1161.336
2432.684, 1159.371
2434.613, 1176.341
2436.541, 1155.884
2438.470, 1191.804
2440.398, 1126.319
2442.327, 1085.423
2444.255, 1076.282
2446.184, 1065.526
2448.112, 1050.998
2450.041, 1043.690
2451.969, 1046.229
2453.897, 1048.620
2455.826, 1046.959
2457.754, 1051.656
2459.683, 1077.649
2461.611, 1089.858
2463.540, 1064.899
2465.468, 1045.122
2467.397, 1056.240
2469.325, 1061.477
2471.254, 1019.900
2473.182, 997.6738
2475.111, 1067.984
2477.039, 1131.757
2478.968, 1088.440
2480.896, 1023.188
2482.824, 1029.687
2484.753, 1061.124
2486.681, 1050.698
2488.610, 1024.579
2490.538, 1032.228
2492.467, 1059.087
2494.395, 1076.634
2496.324, 1081.984
2498.252, 1054.964
2500.181, 1006.424
2502.109, 1001.386
2504.038, 1037.803
2505.966, 1056.696
2507.895, 1057.245
2509.823, 1046.446
2511.751, 1023.029
2513.680, 1028.064
2515.608, 1068.155
2517.537, 1086.772
2519.465, 1075.120
2521.394, 1050.834
2523.322, 981.3262
2525.251, 966.6137
2527.179, 1039.208
2529.108, 1095.616
2531.036, 1123.535
2532.965, 1129.029
2534.893, 1098.862
2536.822, 1081.918
2538.750, 1110.565
2540.678, 1129.335
2542.607, 1112.719
2544.535, 1094.371
2546.464, 1089.114
2548.392, 1081.449
2550.321, 1053.471
2552.249, 1038.388
2554.178, 1076.238
2556.106, 1106.340
2558.035, 1075.411
2559.963, 1036.328
2561.892, 1027.753
2563.820, 1033.251
2565.749, 1036.160
2567.677, 1047.931
2569.605, 1104.695
2571.534, 1153.104
2573.462, 1116.868
2575.391, 1049.248
2577.319, 1011.011
2579.248, 1001.331
2581.176, 1034.526
2583.105, 1085.883
2585.033, 1103.816
2586.962, 1102.619
2588.890, 1117.325
2590.819, 1137.301
2592.747, 1127.027
2594.676, 1144.397
2596.604, 1110.839
2598.532, 1148.265
2600.461, 1154.046
2602.389, 1131.549
2604.318, 1085.019
2606.246, 1026.639
2608.175, 1035.218
2610.103, 1107.034
2612.032, 1155.224
2613.960, 1180.227
2615.889, 1161.211
2617.817, 1097.465
2619.746, 1079.897
2621.674, 1108.799
2623.603, 1131.843
2625.531, 1146.297
2627.459, 1139.932
2629.388, 1105.389
2631.316, 1086.332
2633.245, 1082.546
2635.173, 1101.231
2637.102, 1145.927
2639.030, 1166.078
2640.959, 1152.051
2642.887, 1154.990
2644.816, 1187.350
2646.744, 1216.499
2648.673, 1246.882
2650.601, 1255.758
2652.530, 1239.415
2654.458, 1213.548
2656.386, 1174.813
2658.315, 1157.800
2660.243, 1181.812
2662.172, 1188.202
2664.100, 1207.295
2666.029, 1158.524
2667.957, 1248.117
2669.886, 1301.695
2671.814, 1302.138
2673.743, 1264.460
2675.671, 1140.939
2677.600, 1106.968
2679.528, 1252.104
2681.457, 1342.318
2683.385, 1345.787
2685.313, 1348.661
2687.242, 1365.040
2689.170, 1380.668
2691.099, 1402.795
2693.027, 1399.761
2694.956, 1327.381
2696.884, 1310.330
2698.813, 1381.215
2700.741, 1430.969
2702.670, 1437.955
2704.598, 1434.308
2706.527, 1415.689
2708.455, 1412.980
2710.384, 1451.371
2712.312, 1461.064
2714.240, 1417.380
2716.169, 1417.208
2718.097, 1499.309
2720.026, 1535.468
2721.954, 1456.121
2723.883, 1428.827
2725.811, 1511.846
2727.740, 1558.319
2729.668, 1545.676
2731.597, 1541.896
2733.525, 1557.382
2735.454, 1585.221
2737.382, 1640.778
2739.311, 1668.943
2741.239, 1661.968
2743.167, 1633.347
2745.096, 1570.075
2747.024, 1564.182
2748.953, 1644.228
2750.881, 1702.410
2752.810, 1719.439
2754.738, 1722.033
2756.667, 1707.772
2758.595, 1685.086
2760.524, 1648.000
2762.452, 1674.373
2764.381, 1791.327
2766.309, 1843.973
2768.238, 1791.172
2770.166, 1779.482
2772.094, 1812.943
2774.023, 1861.298
2775.951, 1924.044
2777.880, 1935.587
2779.808, 1881.590
2781.737, 1884.839
2783.665, 1955.084
2785.594, 2013.229
2787.522, 2058.944
2789.451, 2080.463
2791.379, 2078.468
2793.308, 2058.364
2795.236, 2024.354
2797.165, 2058.793
2799.093, 2068.074
2801.021, 2096.917
2802.950, 2152.161
2804.878, 2181.234
2806.807, 2250.952
2808.735, 2297.687
2810.664, 2323.577
2812.592, 2325.176
2814.521, 2316.579
2816.449, 2343.253
2818.378, 2395.251
2820.306, 2465.652
2822.235, 2532.634
2824.163, 2538.903
2826.092, 2521.663
2828.020, 2547.111
2829.948, 2592.667
2831.877, 2626.826
2833.805, 2661.403
2835.734, 2719.851
2837.662, 2776.795
2839.591, 2788.502
2841.519, 2802.072
2843.448, 2873.957
2845.376, 2948.017
2847.305, 2971.806
2849.233, 2993.734
2851.162, 3054.070
2853.090, 3115.892
2855.019, 3149.050
2856.947, 3194.122
2858.875, 3300.576
2860.804, 3373.741
2862.732, 3342.152
2864.661, 3317.271
2866.589, 3317.068
2868.518, 3366.943
2870.446, 3501.705
2872.375, 3605.175
2874.303, 3625.452
2876.232, 3647.457
2878.160, 3677.173
2880.089, 3730.127
2882.017, 3817.944
2883.946, 3863.831
2885.874, 3840.722
2887.802, 3875.352
2889.731, 3995.976
2891.659, 4087.302
2893.588, 4148.646
2895.516, 4200.616
2897.445, 4244.995
2899.373, 4291.786
2901.302, 4343.452
2903.230, 4433.274
2905.159, 4484.529
2907.087, 4606.230
2909.016, 4635.323
2910.944, 4725.290
2912.873, 4838.807
2914.801, 4873.778
2916.729, 4895.322
2918.658, 5056.924
2920.586, 5065.036
2922.515, 5220.303
2924.443, 5176.079
2926.372, 5214.213
2928.300, 5275.926
2930.229, 5313.837
2932.157, 5362.725
2934.086, 5445.163
2936.014, 5537.517
2937.943, 5632.766
2939.871, 5728.228
2941.800, 5789.574
2943.728, 5908.416
2945.656, 5892.502
2947.585, 5890.190
2949.513, 5908.113
2951.442, 5991.637
2953.370, 6036.864
2955.299, 6097.471
2957.227, 6208.778
2959.156, 6227.853
2961.084, 6335.459
2963.013, 6403.308
2964.941, 6432.056
2966.870, 6455.134
2968.798, 6477.036
2970.727, 6520.137
2972.655, 6576.900
2974.583, 6623.254
2976.512, 6672.940
2978.440, 6777.184
2980.369, 6874.467
2982.297, 6864.943
2984.226, 6845.640
2986.154, 6927.134
2988.083, 7012.678
2990.011, 7040.469
2991.940, 7038.414
2993.868, 6982.046
2995.797, 6963.329
2997.725, 7054.967
2999.654, 7118.775
3001.582, 7116.448
3003.510, 7135.317
3005.439, 7201.461
3007.367, 7241.865
3009.296, 7245.358
3011.224, 7222.938
3013.153, 7235.993
3015.081, 7170.797
3017.010, 7204.310
3018.938, 7188.820
3020.867, 7137.130
3022.795, 7101.003
3024.724, 7077.530
3026.652, 7069.772
3028.581, 7061.787
3030.509, 7020.217
3032.438, 6981.492
3034.366, 7004.245
3036.294, 7014.171
3038.223, 6946.190
3040.151, 6880.368
3042.080, 6861.311
3044.008, 6842.473
3045.937, 6810.686
3047.865, 6775.914
3049.794, 6733.637
3051.722, 6718.977
3053.651, 6755.978
3055.579, 6763.943
3057.508, 6743.333
3059.436, 6708.797
3061.365, 6662.975
3063.293, 6618.261
3065.221, 6573.772
3067.150, 6528.342
3069.078, 6477.926
3071.007, 6393.602
3072.935, 6323.692
3074.864, 6344.886
3076.792, 6378.912
3078.721, 6374.853
3080.649, 6341.868
3082.578, 6272.669
3084.506, 6198.254
3086.435, 6119.494
3088.363, 6059.178
3090.292, 6022.861
3092.220, 5989.499
3094.148, 5955.817
3096.077, 5920.586
3098.005, 5881.612
3099.934, 5902.729
3101.862, 5959.527
3103.791, 5936.581
3105.719, 5859.290
3107.648, 5760.104
3109.576, 5667.377
3111.505, 5632.002
3113.433, 5611.354
3115.362, 5573.186
3117.290, 5533.958
3119.219, 5498.763
3121.147, 5476.582
3123.075, 5488.604
3125.004, 5451.692
3126.932, 5298.430
3128.861, 5228.918
3130.789, 5260.757
3132.718, 5271.500
3134.646, 5256.697
3136.575, 5231.391
3138.503, 5195.226
3140.432, 5134.722
3142.360, 5069.212
3144.289, 5042.844
3146.217, 5020.335
3148.146, 4947.651
3150.074, 4890.290
3152.002, 4915.587
3153.931, 4917.068
3155.859, 4841.957
3157.788, 4764.341
3159.716, 4694.350
3161.645, 4638.500
3163.573, 4596.792
3165.502, 4594.925
3167.430, 4553.829
3169.359, 4527.709
3171.287, 4516.215
3173.216, 4481.792
3175.144, 4473.688
3177.073, 4484.580
3179.001, 4483.018
3180.929, 4430.279
3182.858, 4363.501
3184.786, 4288.329
3186.715, 4230.327
3188.643, 4211.677
3190.572, 4183.025
3192.500, 4137.283
3194.429, 4116.508
3196.357, 4125.601
3198.286, 4081.402
3200.214, 4074.418
3202.143, 3996.792
3204.071, 4016.920
3206.000, 3974.224
3207.928, 3900.772
3209.856, 3795.466
3211.785, 3730.146
3213.713, 3778.703
3215.642, 3796.935
3217.570, 3692.656
3219.499, 3635.833
3221.427, 3651.240
3223.356, 3623.978
3225.284, 3544.099
3227.213, 3494.517
3229.141, 3467.099
3231.070, 3424.868
3232.998, 3372.761
3234.927, 3307.250
3236.855, 3251.334
3238.783, 3233.229
3240.712, 3222.522
3242.640, 3209.983
3244.569, 3190.488
3246.497, 3164.227
3248.426, 3119.932
3250.354, 3055.569
3252.283, 3018.540
3254.211, 3009.697
3256.140, 3015.104
3258.068, 3024.339
3259.997, 3012.918
3261.925, 2985.172
3263.854, 2941.328
3265.782, 2887.328
3267.710, 2803.230
3269.639, 2762.198
3271.567, 2815.109
3273.496, 2816.424
3275.424, 2731.858
3277.353, 2676.998
3279.281, 2650.791
3281.210, 2626.301
3283.138, 2600.128
3285.067, 2563.638
3286.995, 2522.439
3288.924, 2486.640
3290.852, 2443.096
3292.781, 2348.162
3294.709, 2318.650
3296.637, 2410.068
3298.566, 2436.901
3300.494, 2348.125
3302.423, 2303.606
3304.351, 2294.799
3306.280, 2206.866
3308.208, 2196.611
3310.137, 2103.899
3312.065, 2145.310
3313.994, 2166.601
3315.922, 2154.363
3317.851, 2067.552
3319.779, 2014.067
3321.708, 2025.776
3323.636, 2022.594
3325.564, 1997.733
3327.493, 1945.421
3329.421, 1931.542
3331.350, 1865.345
3333.278, 1865.464
3335.207, 1818.863
3337.135, 1770.855
3339.064, 1763.733
3340.992, 1749.474
3342.921, 1706.121
3344.849, 1684.583
3346.778, 1697.068
3348.706, 1723.590
3350.635, 1752.257
3352.563, 1703.003
3354.491, 1621.781
3356.420, 1589.751
3358.348, 1583.862
3360.277, 1602.141
3362.205, 1605.457
3364.134, 1567.390
3366.062, 1528.948
3367.991, 1494.001
3369.919, 1462.005
3371.848, 1433.934
3373.776, 1425.302
3375.705, 1427.067
3377.633, 1438.614
3379.562, 1423.828
3381.490, 1296.292
3383.418, 1228.387
3385.347, 1319.578
3387.275, 1345.867
3389.204, 1209.818
3391.132, 1192.193
3393.061, 1268.053
3394.989, 1257.267
3396.918, 1199.745
3398.846, 1163.856
3400.775, 1139.628
3402.703, 1119.330
3404.632, 1105.143
3406.560, 1105.977
3408.489, 1094.582
3410.417, 1068.482
3412.345, 1030.915
3414.274, 992.2397
3416.202, 1032.057
3418.131, 1082.755
3420.059, 1035.787
3421.988, 964.5349
3423.916, 902.1866
3425.845, 866.0984
3427.773, 860.9445
3429.702, 884.6651
3431.630, 939.8568
3433.559, 950.4282
3435.487, 921.0778
3437.416, 837.9379
3439.344, 766.5020
3441.272, 798.6969
3443.201, 844.4629
3445.129, 878.9501
3447.058, 878.2712
3448.986, 828.6391
3450.915, 818.2443
3452.843, 839.8907
3454.772, 843.1230
3456.700, 828.4863
3458.629, 780.5145
3460.557, 740.8033
3462.486, 739.3348
3464.414, 751.2067
3466.343, 779.5485
3468.271, 764.3630
3470.199, 700.1964
3472.128, 624.5115
3474.056, 561.3700
3475.985, 585.5350
3477.913, 635.7624
3479.842, 680.5778
3481.770, 698.5126
3483.699, 680.2297
3485.627, 654.3043
3487.556, 623.1174
3489.484, 613.6015
3491.413, 621.7570
3493.341, 646.3982
3495.270, 665.3121
3497.198, 659.0277
3499.126, 626.7151
3501.055, 635.2672
3502.983, 525.3604
3504.912, 588.8745
3506.840, 553.6273
3508.769, 461.3078
3510.697, 445.1959
3512.626, 470.7696
3514.554, 519.9677
3516.483, 556.3038
3518.411, 567.3374
3520.340, 542.5817
3522.268, 550.4213
3524.197, 537.7573
3526.125, 523.0568
3528.053, 526.8527
3529.982, 517.0915
3531.910, 535.5092
3533.839, 520.2131
3535.767, 403.3251
3537.696, 361.4955
3539.624, 408.1209
3541.553, 424.3983
3543.481, 422.7577
3545.410, 460.3918
3547.338, 501.4860
3549.267, 520.6551
3551.195, 514.8931
3553.124, 474.6963
3555.052, 465.1154
3556.980, 494.2467
3558.909, 524.7379
3560.837, 544.2485
3562.766, 526.4049
3564.694, 486.0864
3566.623, 412.3406
3568.551, 362.3382
3570.480, 347.8798
3572.408, 374.0993
3574.337, 432.8715
3576.265, 452.4471
3578.194, 450.2699
3580.122, 440.7919
3582.051, 442.9626
3583.979, 480.7468
3585.907, 472.7783
3587.836, 477.9360
3589.764, 490.7449
3591.693, 461.8060
3593.621, 474.3247
3595.550, 450.3805
3597.478, 382.9550
3599.407, 350.0486
3601.335, 335.2661
3603.264, 399.1941
3605.192, 337.5833
3607.121, 364.0848
3609.049, 415.4105
3610.978, 350.4187
3612.906, 302.0385
3614.834, 367.8727
3616.763, 398.3621
3618.691, 354.5991
3620.620, 373.6017
3622.548, 425.6745
3624.477, 381.3404
3626.405, 330.5245
3628.334, 362.1681
3630.262, 412.4084
3632.191, 485.3361
3634.119, 487.2577
3636.048, 428.6916
3637.976, 397.3157
3639.905, 387.8684
3641.833, 400.8329
3643.761, 413.7530
3645.690, 420.9219
3647.618, 404.2241
3649.547, 364.1736
3651.475, 402.0870
3653.404, 461.9422
3655.332, 374.2893
3657.261, 295.5774
3659.189, 358.4695
3661.118, 406.0452
3663.046, 413.4748
3664.975, 382.0084
3666.903, 326.2928
3668.832, 281.7959
3670.760, 262.7939
3672.688, 298.4754
3674.617, 320.2616
3676.545, 303.2153
3678.474, 312.9242
3680.402, 342.4829
3682.331, 324.2226
3684.259, 298.7328
3686.188, 318.8598
3688.116, 335.5143
3690.045, 324.1669
3691.973, 336.6160
3693.902, 366.2480
3695.830, 324.0618
3697.759, 353.3029
3699.687, 319.8054
3701.615, 365.9550
3703.544, 367.2399
3705.472, 364.3309
3707.401, 359.8348
3709.329, 367.4417
3711.258, 364.6805
3713.186, 289.8748
3715.115, 239.2558
3717.043, 274.5165
3718.972, 322.1871
3720.900, 373.1216
3722.829, 385.4097
3724.757, 370.7370
3726.686, 329.9305
3728.614, 305.2532
3730.542, 327.4116
3732.471, 359.0077
3734.399, 389.8576
3736.328, 320.1879
3738.256, 365.4227
3740.185, 306.3041
3742.113, 364.5113
3744.042, 314.8204
3745.970, 266.2529
3747.899, 232.3301
3749.827, 292.9134
3751.756, 368.8458
3753.684, 316.9297
3755.613, 290.4318
3757.541, 390.1666
3759.469, 443.8978
3761.398, 447.9909
3763.326, 406.4356
3765.255, 365.1817
3767.183, 402.8837
3769.112, 409.6651
3771.040, 304.2638
3772.969, 277.9778
3774.897, 311.7634
3776.826, 306.6625
3778.754, 304.5518
3780.683, 363.9261
3782.611, 393.0814
3784.540, 352.8477
3786.468, 309.7378
3788.396, 278.8182
3790.325, 313.9937
3792.253, 355.2854
3794.182, 368.8465
3796.110, 339.8885
3798.039, 368.9409
3799.967, 284.3474
3801.896, 363.0234
3803.824, 319.1430
3805.753, 273.4527
3807.681, 287.2829
3809.610, 298.2107
3811.538, 298.3562
3813.467, 302.0708
3815.395, 308.6255
3817.323, 307.5916
3819.252, 309.1699
3821.180, 309.7813
3823.109, 304.3290
3825.037, 307.0064
3826.966, 298.4328
3828.894, 272.1961
3830.823, 174.9761
3832.751, 182.3437
3834.680, 175.5905
3836.608, 183.2635
3838.537, 227.7686
3840.465, 258.4860
3842.394, 312.6984
3844.322, 352.8560
3846.250, 344.5961
3848.179, 368.7206
3850.107, 315.7405
3852.036, 349.8138
3853.964, 337.3798
3855.893, 288.6025
3857.821, 195.9064
3859.750, 248.8039
3861.678, 216.6325
3863.607, 312.2603
3865.535, 249.1667
3867.464, 337.6361
3869.392, 366.7243
3871.321, 327.6499
3873.249, 336.0994
3875.177, 360.6850
3877.106, 362.1857
3879.034, 347.6456
3880.963, 307.9064
3882.891, 319.7865
3884.820, 348.7917
3886.748, 290.0658
3888.677, 244.0747
3890.605, 278.1375
3892.534, 303.8742
3894.462, 305.3476
3896.391, 299.0135
3898.319, 303.7815
3900.248, 343.9270
3902.176, 324.4911
3904.104, 228.9405
3906.033, 199.6420
3907.961, 227.1808
3909.890, 305.4066
3911.818, 357.4754
3913.747, 352.1508
3915.675, 313.8693
3917.604, 242.7786
3919.532, 220.8636
3921.461, 240.2975
3923.389, 308.3102
3925.318, 341.5341
3927.246, 308.2828
3929.175, 280.4175
3931.103, 276.5968
3933.031, 274.9442
3934.960, 250.9282
3936.888, 227.6882
3938.817, 253.7824
3940.745, 275.9028
3942.674, 291.7236
3944.602, 291.3810
3946.531, 209.8118
3948.459, 177.0402
3950.388, 210.8173
3952.316, 205.7001
3954.245, 206.0902
3956.173, 254.0233
3958.102, 245.2314
3960.030, 214.8844
3961.958, 230.2381
3963.887, 236.4041
3965.815, 188.7045
3967.744, 175.1184
3969.672, 227.6805
3971.601, 291.1978
3973.529, 294.1670
3975.458, 205.3257
3977.386, 176.8390
3979.315, 196.2089
3981.243, 208.3805
3983.172, 245.1622
3985.100, 232.5769
3987.029, 224.6474
3988.957, 288.4487
3990.885, 291.4557
3992.814, 226.7244
3994.742, 210.4062
3996.671, 234.4175
3998.599, 230.9456
4000.528, 251.8498
4002.456, 243.4570
4004.385, 260.2704
4006.313, 229.2473
4008.242, 207.4847
4010.170, 208.1015
4012.099, 200.4096
4014.027, 150.0931
4015.956, 120.5470
4017.884, 176.8996
4019.813, 208.4171
4021.741, 175.8248
4023.669, 179.9609
4025.598, 212.9463
4027.526, 212.3458
4029.455, 210.0618
4031.383, 205.9908
4033.312, 196.0387
4035.240, 187.0543
4037.169, 183.4438
4039.097, 190.5227
4041.026, 222.9566
4042.954, 264.3018
4044.883, 265.3651
4046.811, 157.9810
4048.740, 92.84706
4050.668, 106.0006
4052.596, 124.6254
4054.525, 167.7065
4056.453, 233.1952
4058.382, 266.1670
4060.310, 260.2656
4062.239, 231.3215
4064.167, 204.3796
4066.096, 172.5910
4068.024, 162.9116
4069.953, 136.5510
4071.881, 184.9973
4073.810, 117.3240
4075.738, 160.4923
4077.667, 196.7941
4079.595, 170.0618
4081.523, 120.6057
4083.452, 73.95227
4085.380, 143.5777
4087.309, 203.4218
4089.237, 165.5654
4091.166, 153.1373
4093.094, 167.8071
4095.023, 170.8423
4096.951, 162.4846
4098.880, 134.5726
4100.808, 126.4071
4102.737, 141.7628
4104.665, 156.9798
4106.594, 168.3449
4108.522, 168.2536
4110.451, 158.9947
4112.379, 148.8921
4114.308, 160.6470
4116.236, 174.5863
4118.165, 175.2352
4120.093, 157.6337
4122.021, 125.3165
4123.950, 148.4868
4125.878, 168.2417
4127.807, 98.14359
4129.735, 86.89023
4131.664, 159.9070
4133.592, 144.4955
4135.521, 98.38924
4137.449, 137.4322
4139.377, 170.0628
4141.306, 138.0908
4143.234, 158.6422
4145.163, 189.6392
4147.091, 185.0822
4149.020, 160.9459
4150.948, 120.6550
4152.877, 137.4050
4154.805, 153.8794
4156.734, 132.5369
4158.662, 129.9060
4160.591, 143.2571
4162.519, 164.1272
4164.448, 163.9957
4166.376, 157.5396
4168.305, 151.4904
4170.233, 122.0394
4172.162, 127.5973
4174.090, 100.5905
4176.019, 105.6825
4177.947, 92.57476
4179.875, 77.98709
4181.804, 43.07564
4183.732, 61.42645
4185.661, 49.20056
4187.589, 61.69485
4189.518, 112.4856
4191.446, 112.9702
4193.375, 117.0500
4195.303, 163.8839
4197.231, 206.3280
4199.160, 244.5108
4201.088, 256.4164
4203.017, 259.3179
4204.945, 239.9036
4206.874, 221.9851
4208.802, 155.0205
4210.731, 106.2590
4212.659, 65.99442
4214.588, 49.44348
4216.516, 63.15070
4218.445, 98.82457
4220.373, 125.9593
4222.302, 131.4742
4224.230, 110.8289
4226.159, 118.7112
4228.087, 137.0376
4230.016, 175.2316
4231.944, 175.9034
4233.873, 96.21758
4235.801, 96.83376
4237.729, 125.2229
4239.658, 79.34954
4241.586, 85.64394
4243.515, 170.9243
4245.443, 101.9607
4247.372, 3.765901
4249.300, 18.00780
4251.229, 69.83823
4253.157, 130.8516
4255.085, 57.16627
4257.014, -27.48848
4258.942, -22.10003
4260.871, 7.803235
4262.799, 44.57727
4264.728, 57.54622
4266.656, 32.12741
4268.585, 47.99150
4270.513, 62.22394
4272.442, 48.83768
4274.370, 103.6733
4276.299, 136.3444
4278.227, 153.6786
4280.156, 68.32076
4282.084, -35.77393
4284.013, -42.02943
4285.941, -36.81801
4287.870, -31.67171
4289.798, 45.82086
4291.727, 111.0699
4293.655, 74.69044
4295.583, 59.77471
4297.512, 65.88071
4299.440, 46.48068
4301.369, 23.88994
4303.297, 6.489111
4305.226, 3.972070
4307.154, 19.63327
4309.083, 9.5036989E-03
4311.011, 12.24806
4312.939, -0.7353897
4314.868, 10.01956
4316.796, 53.07098
4318.725, 29.82236
4320.653, 84.20903
4322.582, 199.4930
4324.510, 175.1495
4326.439, 104.8730
4328.367, 17.16037
4330.296, 17.16083
4332.224, -22.51027
4334.153, -2.369523
4336.081, -12.64370
4338.010, -9.437664
4339.938, -0.4588085
4341.867, -15.82040
4343.795, 3.437910
4345.724, 3.951318
4347.652, -13.07575
4349.581, -8.917523
4351.509, -37.40057
4353.438, -12.40869
4355.366, -49.67892
4357.294, -26.58657
4359.223, -44.33075
4361.151, 65.41410
4363.080, -51.60705
4365.008, -88.02502
4366.937, -50.53311
4368.865, 76.72909
4370.793, 144.5441
4372.722, 159.2701
4374.650, 176.0000
4376.579, 205.9605
4378.507, 251.5552
4380.436, 132.8400
4382.364, -8.501590
4384.293, 19.16772
4386.221, 3.124295
4388.150, -45.74828
4390.078, 87.00025
4392.007, 190.3444
4393.935, 153.8527
4395.864, -7.382001
4397.792, -147.9843
4399.721, 10.96242
4401.649, 127.7454
4403.578, 142.3376
4405.506, 126.3722
4407.435, 128.2294
4409.363, 122.4575
4411.292, 174.9600
4413.220, 97.53365
4415.148, 149.5029
4417.077, 123.3082
4419.005, 102.8176
4420.934, 17.48706
4422.862, 94.14870
4424.791, 115.7887
4426.719, 162.2078
4428.647, 194.0186
4430.576, 76.24104
4432.504, 1.156053
4434.433, 3.359707
4436.361, -53.17111
4438.290, -81.76085
4440.218, 11.54847
4442.147, 25.67424
4444.075, -4.544672
4446.004, 24.68432
4447.932, 59.13977
4449.861, 83.46082
4451.789, 92.52087
4453.718, 101.7782
4455.646, 88.52150
4457.575, 112.4349
4459.503, 87.12951
4461.432, 120.4557
4463.360, -42.38998
4465.289, 98.15112
4467.217, -38.77016
4469.146, -122.5353
4471.074, 55.82426
4473.002, 97.26713
4474.931, 52.66817
4476.859, 29.43522
4478.788, 51.47993
4480.716, 11.62102
4482.645, 34.48479
4484.573, -28.70024
4486.501, -24.02571
4488.430, -51.14922
4490.358, -52.38797
4492.287, -27.36682
4494.215, -43.29648
4496.144, 2.671248
4498.072, -8.153768
4500.001, -25.16526
4501.929, -30.76211
4503.858, 17.17645
4505.786, 52.19562
4507.715, 9.460578
4509.643, -9.957580
4511.572, -8.275752
4513.500, -3.307817
4515.429, -7.740478
4517.357, -16.92146
4519.286, 74.32793
4521.214, 140.7096
4523.143, 112.2829
4525.071, 70.60904
4527.000, 44.46916
4528.928, 80.03899
4530.856, 43.33926
4532.785, -31.20867
4534.713, 27.68071
4536.642, 54.11179
4538.570, 3.989084
4540.499, 56.34192
4542.427, 139.2103
4544.355, 229.8323
4546.284, 148.9601
4548.212, 26.77552
4550.141, 92.02111
4552.069, 84.10491
4553.998, -0.9150141
4555.926, -22.68138
4557.855, 0.9875861
4559.783, 55.54181
4561.712, -0.1640233
4563.640, -40.79712
4565.569, 72.54602
4567.497, 92.29956
4569.426, 64.36346
4571.354, 64.18950
4573.283, 92.05907
4575.211, 132.6747
4577.140, 127.1376
4579.068, 102.8074
4580.997, 67.91438
4582.925, -13.78164
4584.854, -69.10299
4586.782, -37.81301
4588.710, 0.3534426
4590.639, 26.50442
4592.567, 0.4093281
4594.496, 34.09510
4596.424, 99.26367
4598.353, 71.33955
4600.281, 22.99183
4602.209, -18.72893
4604.138, 10.12060
4606.066, 39.54453
4607.995, 31.43596
4609.923, 22.93622
4611.852, 14.86661
4613.780, -2.118582
4615.709, 52.78891
4617.637, 111.8905
4619.566, 21.90032
4621.494, -26.29957
4623.423, -14.21707
4625.351, 18.67544
4627.280, 53.09039
4629.208, 79.78220
4631.137, 10.44458
4633.065, -40.92901
4634.994, -8.866325
4636.922, 96.01485
4638.851, 158.0717
4640.779, 56.34282
4642.708, -57.20262
4644.636, -113.9688
4646.564, 11.15603
4648.493, 80.88654
4650.421, 68.65816
4652.350, -18.64254
4654.278, -42.14606
4656.207, 22.91316
4658.135, 64.15798
4660.063, 66.51421
4661.992, 24.84985
4663.920, 72.14639
4665.849, 103.2064
4667.777, -5.109098
4669.706, -16.92431
4671.634, 13.52906
4673.563, 8.310957
4675.491, 3.432428
4677.420, 3.644408
4679.348, 6.773884
4681.277, 23.00953
4683.205, 44.74951
4685.134, 34.01587
4687.062, -9.700961
4688.991, -76.14771
4690.919, -68.95939
4692.848, -89.88242
4694.776, -58.99702
4696.705, -61.97677
4698.633, -10.69782
4700.562, 47.63902
4702.490, 7.728135
4704.418, -21.05226
4706.347, 104.5692
4708.275, 104.9559
4710.204, 27.19352
4712.132, -16.43453
4714.061, -30.90588
4715.989, -37.46551
4717.917, -49.55925
4719.846, -47.96262
4721.774, -51.72580
4723.703, -45.17266
4725.631, -54.07088
4727.560, -61.50721
4729.488, -67.27258
4731.417, -47.69469
4733.345, 10.74863
4735.274, 37.99221
4737.202, 26.85294
4739.131, -27.49680
4741.059, -53.79755
4742.988, -46.78082
4744.916, 19.78725
4746.845, 4.385940
4748.773, -23.62974
4750.702, 27.29918
4752.630, 23.99588
4754.559, -5.290950
4756.487, 9.070858
4758.416, 0.5183312
4760.344, -15.13558
4762.272, 21.59151
4764.201, 66.03510
4766.129, 81.40346
4768.058, -70.96174
4769.986, -118.9645
4771.915, -42.22084
4773.843, -53.71302
4775.771, -29.71233
4777.700, 49.94412
4779.628, 67.63335
4781.557, 47.44536
4783.485, 3.6859591E-02
4785.414, 42.46739
4787.342, -108.1265
4789.271, 69.27904
4791.199, 106.5134
4793.128, 59.69148
4795.056, -37.25309
4796.985, -147.7682
4798.913, -182.4895
4800.842, -58.71549
4802.770, -21.47660
4804.699, -28.86287
4806.627, -50.79300
4808.556, 11.47240
4810.484, 57.67825
4812.413, -39.09830
4814.341, -106.4403
4816.270, -112.2808
4818.198, -15.16278
4820.126, 33.30174
4822.055, 24.98302
4823.983, -61.65410
4825.912, -88.05195
4827.840, -57.23796
4829.769, 48.95666
4831.697, -54.26274
4833.625, -218.0822
4835.554, -117.3458
4837.482, -95.20596
4839.411, -99.25040
4841.339, 66.16987
4843.268, 128.4414
4845.196, 71.46751
4847.125, -113.5943
4849.053, -170.5730
4850.982, -124.5579
4852.910, -90.72767
4854.839, -103.1359
4856.767, -116.0715
4858.696, -78.74553
4860.624, -69.44927
4862.553, -24.85899
4864.481, -18.68305
4866.410, 1.836808
4868.338, 4.317180
4870.267, -7.543396
4872.195, -98.47845
4874.124, -36.55988
4876.052, -79.33087
4877.980, -81.61655
4879.909, -45.45916
4881.837, -40.08271
4883.766, -45.17391
4885.694, -55.44460
4887.623, -65.31968
4889.551, -71.31810
4891.479, -113.9509
4893.408, -87.16690
4895.336, -93.52362
4897.265, -105.1876
4899.193, 5.928562
4901.122, 46.37042
4903.050, -4.300574
4904.979, -176.8103
4906.907, -157.4645
4908.836, -26.24724
4910.764, -33.42344
4912.693, 10.40674
4914.621, 61.58086
4916.550, -24.63903
4918.478, -84.62518
4920.407, -92.02833
4922.335, -118.8715
4924.264, -133.2132
4926.192, -83.57951
4928.121, -116.4343
4930.049, -50.24547
4931.978, 20.99618
4933.906, -71.91293
4935.834, -46.05405
4937.763, -22.05142
4939.691, -179.1924
4941.620, -144.6329
4943.548, -49.23353
4945.477, -50.51466
4947.405, -94.25873
4949.333, -133.3702
4951.262, -141.2651
4953.190, -129.0114
4955.119, -134.2153
4957.047, -62.10555
4958.976, -87.08086
4960.904, -51.56219
4962.833, 19.16956
4964.761, -29.06182
4966.690, -53.20673
4968.618, 1.522062
4970.547, 6.279553
4972.475, 21.90210
4974.404, 64.65708
4976.332, -45.55903
4978.261, -122.7614
4980.189, -108.8155
4982.118, 23.28502
4984.046, 53.94194
4985.975, -27.02688
4987.903, -60.12342
4989.832, -97.76563
4991.760, -114.5276
4993.688, -128.1839
4995.617, -144.0640
4997.545, -118.7807
4999.474, -142.2906
5001.402, -100.1831
5003.331, -58.49736
5005.259, -111.8419
5007.188, -50.35450
5009.116, 13.90852
5011.044, -56.25824
5012.973, -27.27275
5014.901, 15.36873
5016.830, 4.739210
5018.758, 10.14614
5020.687, 12.40485
5022.615, -21.74184
5024.544, -11.19514
5026.472, -31.35499
5028.401, -60.74895
5030.329, -119.4479
5032.258, -176.2428
5034.186, -201.9742
5036.115, -213.4511
5038.043, -195.6063
5039.972, -180.0704
5041.900, -114.9199
5043.829, -49.15147
5045.757, -0.7514650
5047.686, 38.29112
5049.614, 9.527048
5051.542, -57.34855
5053.471, -139.7427
5055.399, -120.5256
5057.328, -108.8939
5059.256, -172.7198
5061.185, -166.6622
5063.113, -123.0563
5065.042, -68.13202
5066.970, -86.95817
5068.898, -52.08044
5070.827, 33.00023
5072.755, 26.68170
5074.684, 41.19997
5076.612, -99.97703
5078.541, -5.613404
5080.469, -52.13672
5082.398, -129.4888
5084.326, -57.35020
5086.255, -39.06989
5088.183, -49.01877
5090.112, -66.18650
5092.040, -149.6613
5093.969, -187.1128
5095.897, -144.3217
5097.826, -186.7415
5099.754, -135.6469
5101.683, -136.8691
5103.611, -77.19530
5105.540, -110.1404
5107.468, -96.69103
5109.396, -69.47106
5111.325, -43.15320
5113.253, -48.43759
5115.182, -129.8884
5117.110, -105.1913
5119.039, -93.66569
5120.967, -145.2910
5122.896, -61.41864
5124.824, -68.11658
5126.752, -181.0168
5128.681, -105.5819
5130.609, -73.87502
5132.538, -69.57214
5134.466, -62.73869
5136.395, -16.68686
5138.323, -120.9922
5140.252, -109.8912
5142.180, -170.9752
5144.109, -160.5135
5146.037, -166.6217
5147.966, -112.4218
5149.894, -163.5258
5151.823, -118.9345
5153.751, -121.2473
5155.680, -84.45071
5157.608, -36.29033
5159.537, -42.96456
5161.465, -16.26304
5163.394, -68.41529
5165.322, -21.86620
5167.250, -54.27963
5169.179, -104.4889
5171.107, -128.5441
5173.036, -161.3127
5174.964, -164.3149
5176.893, -218.9350
5178.821, -163.8897
5180.750, -194.3426
5182.678, -218.3064
5184.606, -101.8990
5186.535, -113.4419
5188.463, -143.9288
5190.392, -135.2608
5192.320, -171.9155
5194.249, -160.8600
5196.177, -97.61736
5198.106, -3.117405
5200.034, -76.12664
5201.963, -148.5669
5203.891, 18.72097
5205.820, 9.042589
5207.748, -25.11576
5209.677, -11.84809
5211.605, -82.45000
5213.534, -153.6869
5215.462, -191.4485
5217.391, -166.6698
5219.319, -79.76250
5221.248, -19.16565
5223.176, -87.43449
5225.104, -76.97128
5227.033, -82.38349
5228.961, -134.9684
5230.890, -165.3022
5232.818, -198.0423
5234.747, -192.6843
5236.675, -17.04267
5238.604, 3.467942
5240.532, -38.53060
5242.460, -53.62241
5244.389, -69.48710
5246.317, -112.1915
5248.246, -173.3760
5250.174, -213.3346
5252.103, -161.9053
5254.031, -77.44099
5255.960, -37.76723
5257.888, -76.45506
5259.817, -129.0040
5261.745, -156.1769
5263.674, -124.9491
5265.602, -102.3805
5267.531, -103.4408
5269.459, -53.62670
5271.388, -83.10662
5273.316, 1.006413
5275.245, 24.49477
5277.173, -11.02990
5279.102, -33.08461
5281.030, -44.93978
5282.958, -154.2541
5284.887, -183.1308
5286.815, -144.2621
5288.744, -51.41666
5290.672, -61.03693
5292.601, -103.3652
5294.529, -133.9382
5296.458, -73.83766
5298.386, -66.67651
5300.314, -107.2832
5302.243, -169.1922
5304.171, -68.68381
5306.100, -37.03382
5308.028, -156.7511
5309.957, -36.92406
5311.885, 40.33107
5313.814, 13.07376
5315.742, -126.3009
5317.671, -172.5895
5319.599, -185.9347
5321.528, -204.6719
5323.456, -124.2617
5325.385, -105.0285
5327.313, -133.9412
5329.242, -118.5396
5331.170, -125.7586
5333.099, -147.4977
5335.027, -128.3524
5336.956, -132.1373
5338.884, -121.2998
5340.813, -108.0025
5342.741, -121.6681
5344.669, -133.7518
5346.598, -129.6837
5348.526, -112.0905
5350.455, -211.7947
5352.383, -234.8313
5354.312, -169.0037
5356.240, -42.72994
5358.168, -37.33069
5360.097, -62.19490
5362.025, -55.07680
5363.954, -58.72850
5365.882, -91.79300
5367.811, -76.66711
5369.739, -130.5141
5371.668, -185.8480
5373.596, -155.3393
5375.525, -160.7841
5377.453, -60.81546
5379.382, -90.64597
5381.310, -99.04770
5383.239, -54.85511
5385.167, -135.7289
5387.096, -163.0579
5389.024, -115.8435
5390.953, -106.1963
5392.881, -103.5596
5394.810, -97.72604
5396.738, -83.83869
5398.667, -61.24640
5400.595, -2.243823
5402.523, 36.82073
5404.452, -72.13228
5406.380, -172.4171
5408.309, -196.6644
5410.237, -144.5175
5412.166, -163.0858
5414.094, -164.3065
5416.022, -143.2814
5417.951, -106.9226
5419.879, -149.2688
5421.808, -140.0357
5423.736, -86.54510
5425.665, -174.2881
5427.593, -80.62278
5429.522, -29.71557
5431.450, -162.1343
5433.379, -126.5787
5435.307, -111.9021
5437.236, -115.9984
5439.164, -54.95711
5441.093, -84.90521
5443.021, -131.1304
5444.950, -150.5295
5446.878, -106.9862
5448.807, -85.70428
5450.735, -103.5867
5452.664, -146.7966
5454.592, -39.35694
5456.521, -3.570311
5458.449, -60.73594
5460.377, -4.856480
5462.306, -105.2487
5464.234, -17.11043
5466.163, -15.76630
5468.091, -48.63732
5470.020, -32.96996
5471.948, -15.01966
5473.876, -31.94360
5475.805, -70.58704
5477.733, -94.58053
5479.662, -81.05524
5481.590, -118.4491
5483.519, -84.96526
5485.447, -148.6102
5487.376, -144.2857
5489.304, -134.8351
5491.233, -168.3386
5493.161, -184.2514
5495.090, -164.7379
5497.018, -211.5937
5498.947, -146.0418
5500.875, -67.26480
5502.804, -50.71133
5504.732, -19.93399
5506.661, -53.54356
5508.589, -91.64470
5510.518, -5.311995
5512.446, -75.00006
5514.375, -158.0369
5516.303, -175.2584
5518.231, -68.98805
5520.160, 29.44822
5522.088, -12.96709
5524.017, 8.595137
5525.945, -147.6618
5527.874, -96.81386
5529.802, -104.2952
5531.730, -195.9958
5533.659, -180.9162
5535.587, -111.1311
5537.516, -50.44592
5539.444, -50.74538
5541.373, -55.58000
5543.301, -38.41809
5545.230, -23.87747
5547.158, -55.84584
5549.087, -127.3355
5551.015, -157.7652
5552.944, -149.9205
5554.872, -214.3932
5556.801, -64.47166
5558.729, 30.02188
5560.658, -53.43112
5562.586, 12.32686
5564.515, -5.594720
5566.443, -13.11610
5568.372, -19.21362
5570.300, 10.03464
5572.229, 36.47984
5574.157, -1.079475
5576.085, 30.85397
5578.014, -39.51323
5579.942, 19.03207
5581.871, 13.68919
5583.799, -52.96334
5585.728, -6.789079
5587.656, -55.11237
5589.584, -101.6029
5591.513, 6.997106
5593.441, -97.20293
5595.370, -92.40067
5597.298, -12.90392
5599.227, -29.52555
5601.155, 2.437513
5603.084, 57.42030
5605.012, 80.46683
5606.941, -18.69702
5608.869, -120.2373
5610.798, -92.53485
5612.726, 2.194033
5614.655, -44.58146
5616.583, -23.45035
5618.512, -111.5337
5620.440, -222.2285
5622.369, -16.59231
5624.297, -52.40966
5626.226, -113.1758
5628.154, -96.75635
5630.083, -12.93533
5632.011, -97.14510
5633.939, -99.44848
5635.868, 18.48284
5637.796, 55.81186
5639.725, -1.639924
5641.653, -93.59013
5643.582, -147.4582
5645.510, -145.3266
5647.438, -79.14885
5649.367, -111.5588
5651.295, -84.40440
5653.224, -65.55486
5655.152, -119.8868
5657.081, -145.3684
5659.009, -104.0489
5660.938, -123.0828
5662.866, -50.83495
5664.795, -83.61214
5666.723, -45.26875
5668.652, -8.168514
5670.580, -29.25383
5672.509, -40.32174
5674.437, -30.55213
5676.366, -37.23988
5678.294, -56.22400
5680.223, -32.88501
5682.151, 10.26623
5684.080, -2.912732
5686.008, 124.7309
5687.937, 66.53684
5689.865, -130.2890
5691.793, -212.6368
5693.722, -55.64821
5695.650, -3.735464
5697.579, -58.67345
5699.507, -71.81271
5701.436, -57.55853
5703.364, -87.89146
5705.292, -103.6663
5707.221, -29.42414
5709.149, -49.83767
5711.078, -57.41617
5713.006, -52.29486
5714.935, -49.83375
5716.863, 35.72807
5718.792, -16.56552
5720.720, -55.92496
5722.649, 17.57833
5724.577, -92.28926
5726.506, -62.71741
5728.434, -80.50761
5730.363, -74.22335
5732.291, -99.49196
5734.220, -104.8359
5736.148, -87.04128
5738.077, -52.95164
5740.005, -45.09061
5741.934, 30.14083
5743.862, 40.91484
5745.791, -41.71946
5747.719, -177.8951
5749.647, -62.29466
5751.576, -24.10431
5753.504, -40.96742
5755.433, 10.84165
5757.361, -39.00435
5759.290, -75.36280
5761.218, -101.1086
5763.146, -128.6576
5765.075, -52.77488
5767.003, 26.74612
5768.932, 29.10301
5770.860, -20.42648
5772.789, 97.65249
5774.717, 122.1680
5776.646, 1.852099
5778.574, -126.7904
5780.503, -18.41927
5782.431, -2.378861
5784.360, 16.25003
5786.288, 36.28324
5788.217, 16.14074
5790.145, 30.44646
5792.074, 24.65836
5794.002, 16.67275
5795.931, 30.92752
5797.859, -0.6782339
5799.788, 33.37060
5801.716, -5.415725
5803.645, -23.25536
5805.573, -38.11629
5807.501, -77.45061
5809.430, -122.0377
5811.358, -140.2296
5813.287, -138.7690
5815.215, -101.2234
5817.144, -5.596291
5819.072, 28.88376
5821.000, -41.32480
5822.929, 1.257839
5824.857, -17.75372
5826.786, -36.89867
5828.714, -53.71937
5830.643, -43.71667
5832.571, -80.53046
5834.500, -32.67913
5836.428, -27.25201
5838.357, -60.99571
5840.285, -168.3622
5842.214, -164.3774
5844.142, -119.3975
5846.071, -89.66575
5847.999, -83.33384
5849.928, 38.34589
5851.856, 99.01850
5853.785, 63.76702
5855.713, -28.93457
5857.642, -39.69079
5859.570, -23.17539
5861.499, -40.88266
5863.427, -78.34333
5865.355, 49.76529
5867.284, -92.53939
5869.212, -167.3081
5871.141, -86.43917
5873.069, 58.81998
5874.998, 114.5547
5876.926, 14.94456
5878.854, -34.92204
5880.783, 32.43644
5882.711, -75.57404
5884.640, -29.36205
5886.568, 21.46058
5888.497, -5.052201
5890.425, 25.69226
5892.354, -72.82363
5894.282, 5.052151
5896.211, 19.10819
5898.139, -39.12413
5900.068, 4.663318
5901.996, 38.90462
5903.925, 42.59745
5905.853, 18.07866
5907.782, -22.56628
5909.710, 11.36997
5911.639, -2.097801
5913.567, 45.08092
5915.496, 121.6536
5917.424, -7.758282
5919.353, 61.37268
5921.281, 72.52323
5923.209, 4.015773
5925.138, -63.04211
5927.066, 45.92025
5928.995, -5.479742
5930.923, -15.04800
5932.852, 30.34465
5934.780, 16.38540
5936.708, -7.385488
5938.637, 18.90861
5940.565, 5.538677
5942.494, -60.14128
5944.422, -63.83368
5946.351, -36.25546
5948.279, 14.74695
5950.208, 22.45001
5952.136, 52.97088
5954.065, 85.41319
5955.993, 74.56167
5957.922, 116.2151
5959.850, 90.66737
5961.779, 40.67348
5963.707, -32.54061
5965.636, 87.58202
5967.564, 160.3022
5969.493, 102.5499
5971.421, 26.08262
5973.350, 105.7307
5975.278, 74.04655
5977.207, 30.86021
5979.135, 51.35548
5981.063, -3.665979
5982.992, 216.8692
5984.920, 178.2548
5986.849, 55.72461
5988.777, 82.51296
5990.706, -120.1147
5992.634, 9.426582
5994.563, 88.58074
5996.491, 41.61096
5998.419, -23.83756
6000.348, 71.72954
6002.276, 60.23944
6004.205, -18.11128
6006.133, -66.24613
6008.062, -14.42005
6009.990, -33.45554
6011.919, -25.16412
6013.847, -44.20034
6015.776, -61.32011
6017.704, 14.08137
6019.633, -10.82951
6021.561, 104.5482
6023.490, 36.11360
6025.418, 27.11238
6027.347, 111.1332
6029.275, 72.45951
6031.204, 48.75166
6033.132, 45.39750
6035.061, 58.80232
6036.989, 105.0827
6038.917, 199.6786
6040.846, 10.31762
6042.774, -39.28577
6044.703, 95.31230
6046.631, -62.24638
6048.560, 98.06168
6050.488, 76.90099
6052.417, 15.67115
6054.345, 28.12405
6056.273, 26.98210
6058.202, 75.58533
6060.130, 93.00911
6062.059, 27.45611
6063.987, -14.22862
6065.916, -23.76837
6067.844, -51.03716
6069.773, -34.46932
6071.701, -43.86230
6073.630, 19.99709
6075.558, 68.76183
6077.487, 73.19098
6079.415, 85.32938
6081.344, 88.86502
6083.272, 39.36002
6085.201, 100.3564
6087.129, 44.93906
6089.058, 107.7493
6090.986, 164.4044
6092.915, 131.5241
6094.843, 169.2938
6096.771, 86.47247
6098.700, 132.5455
6100.628, 84.46357
6102.557, -17.51172
6104.485, -84.39899
6106.414, 19.77908
6108.342, 119.4159
6110.271, 123.0929
6112.199, 79.72878
6114.127, 58.18660
6116.056, 75.30933
6117.984, 140.4735
6119.913, 186.7261
6121.841, 120.1193
6123.770, 1.768179
6125.698, 101.7241
6127.627, -44.88410
6129.555, -31.96482
6131.484, 53.25212
6133.412, 113.0465
6135.341, 133.7250
6137.269, 24.66752
6139.198, 55.45997
6141.126, 68.90631
6143.055, 67.53599
6144.983, 99.35234
6146.912, -64.23790
6148.840, -27.84485
6150.769, 5.351851
6152.697, 68.37572
6154.625, 69.85020
6156.554, 164.8865
6158.482, 106.2749
6160.411, 129.6629
6162.339, 195.3931
6164.268, 228.6958
6166.196, 176.0271
6168.125, -1.591992
6170.053, -20.66632
6171.981, 52.89902
6173.910, 116.1580
6175.838, 129.5985
6177.767, 151.0811
6179.695, 222.3032
6181.624, 103.2406
6183.552, 70.05336
6185.481, 166.7984
6187.409, 165.2326
6189.338, 8.234262
6191.266, 83.55849
6193.195, 46.03935
6195.123, -2.574242
6197.052, 71.07294
6198.980, 0.2283684
6200.909, 113.7414
6202.837, 99.12137
6204.766, 99.45538
6206.694, 122.0810
6208.623, 53.62555
6210.551, 157.4128
6212.479, 261.5309
6214.408, 214.0196
6216.336, 143.4023
6218.265, 160.9424
6220.193, 207.9963
6222.122, 144.6624
6224.050, 90.24708
6225.979, 179.0925
6227.907, 192.3551
6229.835, 201.0718
6231.764, 176.2944
6233.692, 197.5912
6235.621, 126.1699
6237.549, 30.77309
6239.478, 3.502940
6241.406, 94.50899
6243.335, 34.94600
6245.263, 84.82173
6247.192, 50.42954
6249.120, 54.66093
6251.049, 131.3080
6252.977, 88.87788
6254.906, 169.2453
6256.834, 164.5762
6258.763, 69.91051
6260.691, 165.5221
6262.620, 148.1121
6264.548, 123.5543
6266.477, 150.4405
6268.405, 66.31886
6270.333, 45.32705
6272.262, 118.4990
6274.190, 195.6197
6276.119, 159.5535
6278.047, 83.34509
6279.976, 105.9752
6281.904, 217.9267
6283.833, 197.5278
6285.761, -26.65407
6287.689, 190.2254
6289.618, 116.3221
6291.546, 26.27151
6293.475, 108.8167
6295.403, 181.6054
6297.332, 85.89361
6299.260, 265.4944
6301.189, 342.4547
6303.117, 211.0778
6305.046, 184.2687
6306.974, 179.5887
6308.903, 42.10262
6310.831, 112.9459
6312.760, 112.4580
6314.688, 186.8704
6316.617, 185.0118
6318.545, 124.7892
6320.474, 119.3780
6322.402, 180.3948
6324.331, 201.7917
6326.259, 191.5432
6328.188, 102.6715
6330.116, 188.4844
6332.044, 108.9434
6333.973, 145.6266
6335.901, 141.2359
6337.830, 129.4950
6339.758, 151.9748
6341.687, 166.6996
6343.615, 149.9162
6345.543, 135.7605
6347.472, 107.6759
6349.400, -39.89517
6351.329, 131.0870
6353.257, 151.5248
6355.186, 8.328984
6357.114, 176.2164
6359.043, 204.9089
6360.971, 142.4058
6362.900, 225.1140
6364.828, 235.4668
6366.757, 115.2082
6368.685, 40.66564
6370.614, 271.0635
6372.542, 91.28443
6374.471, 219.1870
6376.399, 262.0955
6378.328, 222.7294
6380.256, 231.1253
6382.185, 237.6863
6384.113, 186.7684
6386.042, 231.1514
6387.970, 147.7194
6389.898, 126.2934
6391.827, 173.8963
6393.755, 159.2793
6395.684, 165.8499
6397.612, 261.9288
6399.541, 100.6220
6401.469, 34.95040
6403.397, 140.3339
6405.326, 263.2939
6407.254, 253.1653
6409.183, 136.1897
6411.111, 67.84901
6413.040, 207.4895
6414.968, 241.8706
6416.897, 177.5250
6418.825, 168.8432
6420.754, 153.7322
6422.682, 128.3644
6424.611, 177.5651
6426.539, 250.5079
6428.468, 153.5775
6430.396, 37.01896
6432.325, 110.6774
6434.253, 28.35557
6436.182, 162.7374
6438.110, 200.5900
6440.039, 202.8459
6441.967, 127.0507
6443.896, 60.56558
6445.824, 176.9351
6447.752, 229.2734
6449.681, 126.6793
6451.609, 81.71779
6453.538, 169.6270
6455.466, 218.7197
6457.395, 218.8397
6459.323, 320.0097
6461.251, 147.5728
6463.180, 216.6763
6465.108, 202.2494
6467.037, 216.2456
6468.965, 234.8608
6470.894, 191.7075
6472.822, 111.6407
6474.751, 36.21991
6476.679, -46.11987
6478.608, 106.6676
6480.536, 112.5589
6482.465, 118.5255
6484.393, 213.7822
6486.322, 203.1562
6488.250, 178.7161
6490.179, 86.87664
6492.107, 92.23861
6494.036, 223.0739
6495.964, 297.3775
6497.893, 223.4231
6499.821, 279.8720
6501.750, 86.58293
6503.678, 225.9219
6505.606, 161.4121
6507.535, 98.70151
6509.463, 206.6600
6511.392, 242.8749
6513.320, 97.97492
6515.249, 196.3108
6517.177, 73.10276
6519.105, 113.6070
6521.034, 177.0003
6522.962, 119.6152
6524.891, 138.9166
6526.819, 225.5349
6528.748, 110.9756
6530.676, 144.3275
6532.605, 233.5471
6534.533, 311.0950
6536.462, 234.4939
6538.390, 160.7200
6540.319, 172.5136
6542.247, 197.5117
6544.176, 163.5564
6546.104, 129.4519
6548.033, 172.1459
6549.961, 263.5161
6551.890, 246.1287
6553.818, 128.7570
6555.747, 46.74742
6557.675, 101.9143
6559.604, 267.5040
6561.532, -11.56384
6563.460, 107.5122
6565.389, 222.4783
6567.317, 177.7280
6569.246, 100.2955
6571.174, 128.6559
6573.103, 99.45156
6575.031, 30.11041
6576.959, 127.6821
6578.888, 233.3580
6580.816, 294.3327
6582.745, 189.9915
6584.673, 161.7898
6586.602, 241.3247
6588.530, 80.65275
6590.459, 122.5972
6592.387, 230.2121
6594.316, 232.7426
6596.244, 170.7982
6598.173, 106.5181
6600.101, 159.5553
6602.030, 260.3725
6603.958, 208.5643
6605.887, 239.6202
6607.815, 271.0044
6609.744, 256.1567
6611.672, 202.8471
6613.601, 261.7328
6615.529, 214.7025
6617.458, 194.5200
6619.386, 190.5333
6621.314, 96.00999
6623.243, 156.0300
6625.171, 118.5145
6627.100, 167.4142
6629.028, 203.3613
6630.957, 139.1286
##END=



