##NAMES=Belovite-(Ce)
##RRUFFID=R070163
##IDEAL CHEMISTRY=NaCeSr_3_(PO_4_)_3_F
##LOCALITY=Mochalin Log, Kyshtym, Chelyabinsk Oblast', Urals Region, Russia
##OWNER=RRUFF
##SOURCE=Michael Scott
##DESCRIPTION=Brownish red vitreous massive, associated with bastnasite-(La), R070142; 785 Raman signal was overwhelmed by fluorescence and is not posted.
##STATUS=The identification of this mineral has been confirmed only by single crystal X-ray diffraction
##URL=https://www.rruff.net/odr/rruff_sample/R070163
##DIFFRACTION SAMPLE DESCRIPTION=Single crystal, powder profile is calculated
##CELL PARAMETERS=a: 9.639 b: 9.639 c: 7.073 alpha: 90 beta: 90 gamma: 120 volume: 569.1 crystal system: hexagonal
##FILETYPE=Raman RAW
##RAMAN WAVELENGTH=785

163.8887, 236.8179
165.8171, 247.1760
167.7456, 255.8230
169.6741, 265.3866
171.6025, 275.9302
173.5310, 286.7868
175.4595, 297.2641
177.3879, 308.8027
179.3164, 324.3470
181.2449, 340.6452
183.1733, 348.5682
185.1018, 348.1552
187.0303, 356.1806
188.9587, 377.4825
190.8872, 397.0734
192.8157, 409.2335
194.7441, 418.8860
196.6726, 427.4048
198.6011, 436.1337
200.5295, 449.7650
202.4580, 468.0773
204.3865, 481.1401
206.3149, 481.6101
208.2434, 487.6230
210.1719, 508.9366
212.1003, 531.7612
214.0288, 545.4064
215.9573, 553.0706
217.8857, 560.6293
219.8142, 568.0609
221.7427, 576.7941
223.6711, 587.3745
225.5996, 598.8222
227.5281, 611.5883
229.4565, 624.6202
231.3850, 636.8894
233.3135, 648.7408
235.2419, 661.5805
237.1704, 676.4109
239.0989, 687.9851
241.0273, 688.7378
242.9558, 698.3513
244.8843, 726.7398
246.8127, 757.8107
248.7412, 781.6272
250.6697, 800.9120
252.5981, 820.0356
254.5266, 838.5847
256.4550, 857.5207
258.3835, 877.3170
260.3120, 897.5396
262.2404, 918.2857
264.1689, 939.3875
266.0974, 959.4886
268.0258, 978.3433
269.9543, 998.2431
271.8828, 1020.648
273.8112, 1048.234
275.7397, 1083.076
277.6682, 1110.262
279.5966, 1120.131
281.5251, 1132.575
283.4536, 1160.665
285.3820, 1190.645
287.3105, 1206.297
289.2390, 1213.171
291.1674, 1233.667
293.0959, 1268.544
295.0244, 1294.410
296.9529, 1302.817
298.8813, 1310.089
300.8098, 1320.140
302.7383, 1334.636
304.6667, 1355.284
306.5952, 1372.161
308.5237, 1375.752
310.4521, 1371.069
312.3806, 1374.329
314.3091, 1387.692
316.2375, 1402.906
318.1660, 1423.445
320.0945, 1440.697
322.0229, 1452.232
323.9514, 1460.736
325.8799, 1464.281
327.8083, 1462.333
329.7368, 1457.911
331.6653, 1451.881
333.5937, 1449.836
335.5222, 1452.393
337.4507, 1454.157
339.3791, 1454.563
341.3076, 1456.099
343.2361, 1462.684
345.1645, 1467.251
347.0930, 1462.019
349.0215, 1451.217
350.9499, 1446.573
352.8784, 1449.048
354.8069, 1452.078
356.7353, 1456.150
358.6638, 1454.938
360.5923, 1441.519
362.5207, 1436.280
364.4492, 1455.068
366.3777, 1469.307
368.3061, 1456.422
370.2346, 1430.427
372.1631, 1414.197
374.0915, 1405.013
376.0200, 1404.170
377.9485, 1417.174
379.8769, 1420.258
381.8054, 1392.695
383.7339, 1371.060
385.6623, 1374.338
387.5908, 1379.176
389.5193, 1371.302
391.4477, 1359.017
393.3762, 1345.023
395.3047, 1327.961
397.2331, 1314.664
399.1616, 1308.300
401.0901, 1302.368
403.0185, 1299.491
404.9470, 1289.103
406.8755, 1266.493
408.8039, 1248.820
410.7324, 1236.847
412.6609, 1223.258
414.5893, 1216.751
416.5178, 1217.115
418.4463, 1206.569
420.3747, 1178.883
422.3032, 1155.205
424.2317, 1140.618
426.1601, 1129.119
428.0886, 1118.984
430.0171, 1110.047
431.9455, 1105.886
433.8740, 1100.588
435.8025, 1090.033
437.7309, 1076.246
439.6594, 1057.227
441.5879, 1033.510
443.5163, 1016.266
445.4448, 1008.706
447.3733, 1006.625
449.3017, 1007.701
451.2302, 1005.244
453.1587, 999.1204
455.0871, 994.4515
457.0156, 998.8364
458.9441, 1000.112
460.8725, 981.1213
462.8010, 954.6526
464.7295, 942.9694
466.6579, 942.8657
468.5864, 937.2780
470.5149, 925.4669
472.4433, 916.5771
474.3718, 912.5828
476.3003, 908.3869
478.2287, 909.3573
480.1572, 910.3026
482.0857, 900.0604
484.0141, 887.7332
485.9426, 886.2612
487.8711, 888.9249
489.7995, 883.3441
491.7280, 875.3909
493.6565, 876.5508
495.5849, 882.3630
497.5134, 876.1322
499.4419, 858.3874
501.3703, 850.3953
503.2988, 852.7218
505.2273, 854.0088
507.1557, 853.7672
509.0842, 853.6912
511.0127, 853.6113
512.9411, 853.4951
514.8696, 854.8567
516.7980, 853.3752
518.7265, 842.7603
520.6550, 829.0930
522.5834, 823.9133
524.5119, 826.8064
526.4404, 833.5165
528.3688, 841.6149
530.2973, 838.1349
532.2258, 823.7834
534.1542, 818.3809
536.0827, 824.4323
538.0112, 830.1506
539.9396, 835.3839
541.8681, 833.3950
543.7966, 821.6716
545.7250, 809.9099
547.6535, 800.3854
549.5820, 794.2691
551.5104, 798.7371
553.4389, 805.0449
555.3674, 802.5133
557.2958, 793.8558
559.2243, 785.5460
561.1528, 783.3087
563.0812, 781.2601
565.0097, 769.1501
566.9382, 764.1458
568.8666, 773.7807
570.7951, 777.8259
572.7236, 769.9567
574.6520, 763.4101
576.5805, 763.3205
578.5090, 762.1136
580.4374, 756.0996
582.3659, 751.6091
584.2944, 750.9635
586.2228, 751.9389
588.1513, 755.2648
590.0798, 760.2649
592.0082, 756.5048
593.9367, 741.7899
595.8652, 729.0884
597.7936, 716.3575
599.7221, 711.1161
601.6506, 720.4112
603.5790, 726.3749
605.5075, 719.4739
607.4360, 712.0731
609.3644, 712.1109
611.2929, 712.6718
613.2214, 708.5922
615.1498, 702.3975
617.0783, 698.1292
619.0068, 696.8409
620.9352, 695.8655
622.8637, 691.3536
624.7922, 686.7869
626.7206, 687.4030
628.6491, 687.8886
630.5776, 683.2967
632.5060, 672.7770
634.4345, 659.4513
636.3630, 654.7798
638.2914, 660.4232
640.2199, 661.5038
642.1484, 655.9478
644.0768, 652.9675
646.0053, 655.4909
647.9338, 653.8555
649.8622, 642.0768
651.7907, 630.9616
653.7192, 628.1912
655.6476, 626.8074
657.5761, 620.9676
659.5046, 611.5873
661.4330, 600.1453
663.3615, 592.1452
665.2900, 590.0594
667.2184, 590.1428
669.1469, 589.6375
671.0754, 587.9434
673.0038, 584.5451
674.9323, 579.5307
676.8608, 572.6642
678.7892, 566.1586
680.7177, 563.1179
682.6462, 562.5922
684.5746, 559.2432
686.5031, 552.1156
688.4316, 542.9338
690.3600, 530.7172
692.2885, 522.0635
694.2170, 519.9116
696.1454, 518.0016
698.0739, 515.1608
700.0024, 509.1571
701.9308, 498.8074
703.8593, 491.2713
705.7878, 490.2563
707.7162, 488.8563
709.6447, 481.9017
711.5732, 472.6089
713.5016, 464.4050
715.4301, 457.4128
717.3586, 453.4783
719.2870, 451.6266
721.2155, 447.1591
723.1440, 440.0191
725.0724, 432.1411
727.0009, 423.5516
728.9294, 416.0084
730.8578, 408.5572
732.7863, 405.6304
734.7148, 412.0102
736.6432, 413.4170
738.5717, 407.9055
740.5002, 400.8238
742.4286, 390.1729
744.3571, 383.6387
746.2856, 388.1296
748.2141, 386.8721
750.1425, 368.4324
752.0710, 352.1352
753.9995, 349.4999
755.9279, 348.9191
757.8564, 343.7517
759.7849, 337.8623
761.7133, 333.2720
763.6418, 329.1719
765.5703, 324.8426
767.4987, 320.1920
769.4272, 316.3266
771.3557, 312.3481
773.2841, 306.2974
775.2126, 299.9287
777.1411, 294.8892
779.0695, 289.9844
780.9980, 284.9651
782.9265, 281.2914
784.8549, 280.5349
786.7834, 281.1521
788.7119, 277.5151
790.6403, 269.9214
792.5688, 265.4544
794.4973, 265.1130
796.4257, 263.3673
798.3542, 258.7758
800.2827, 255.9023
802.2111, 256.4864
804.1396, 255.5163
806.0681, 250.8857
807.9965, 247.9987
809.9250, 248.8159
811.8535, 248.6186
813.7819, 247.6902
815.7104, 246.6607
817.6389, 241.8597
819.5673, 237.0309
821.4958, 237.4394
823.4243, 240.8513
825.3527, 243.1969
827.2812, 241.1612
829.2097, 237.0605
831.1381, 235.0305
833.0666, 233.1810
834.9951, 230.2989
836.9235, 227.6780
838.8520, 226.5808
840.7805, 227.8069
842.7089, 227.5905
844.6374, 222.8617
846.5659, 219.4651
848.4943, 221.8129
850.4228, 225.0896
852.3513, 224.3447
854.2797, 221.5417
856.2082, 221.7268
858.1367, 223.6086
860.0651, 221.5808
861.9936, 218.0977
863.9221, 216.6612
865.8505, 215.0210
867.7790, 213.6967
869.7075, 213.2883
871.6359, 215.4916
873.5644, 221.2249
875.4929, 222.2365
877.4213, 216.6315
879.3498, 214.0932
881.2783, 217.4481
883.2067, 222.6717
885.1352, 228.8813
887.0637, 230.9194
888.9921, 225.2837
890.9206, 219.2550
892.8491, 216.6691
894.7775, 221.3182
896.7060, 233.5086
898.6345, 240.5830
900.5629, 237.4650
902.4914, 234.4525
904.4199, 238.0784
906.3483, 241.7024
908.2768, 240.4702
910.2053, 240.0137
912.1337, 242.3463
914.0622, 243.7901
915.9907, 245.0909
917.9191, 249.4305
919.8476, 254.5316
921.7761, 256.1097
923.7045, 254.8758
925.6330, 256.8106
927.5615, 264.6336
929.4899, 271.7780
931.4184, 276.2073
933.3469, 279.6624
935.2753, 278.8498
937.2038, 279.8513
939.1323, 289.9659
941.0607, 298.0267
942.9892, 295.7298
944.9177, 292.7784
946.8461, 293.8163
948.7746, 296.8406
950.7031, 304.7281
952.6315, 314.5640
954.5600, 321.0598
956.4885, 324.2571
958.4169, 325.5336
960.3454, 330.7750
962.2739, 341.7937
964.2023, 349.4047
966.1308, 351.9638
968.0593, 355.8480
969.9877, 361.3796
971.9162, 369.7194
973.8447, 380.7807
975.7731, 391.8946
977.7016, 404.9801
979.6301, 413.2970
981.5585, 412.4568
983.4870, 413.8435
985.4155, 421.8057
987.3439, 434.6618
989.2724, 450.9221
991.2009, 461.9143
993.1293, 465.5808
995.0578, 473.9592
996.9863, 491.3200
998.9147, 507.8098
1000.843, 517.9515
1002.772, 525.6033
1004.700, 538.3555
1006.629, 549.2809
1008.557, 549.9871
1010.486, 559.6520
1012.414, 582.7878
1014.342, 602.2405
1016.271, 621.4919
1018.199, 641.8614
1020.128, 656.2993
1022.056, 670.1536
1023.985, 688.5873
1025.913, 711.6423
1027.842, 734.6920
1029.770, 755.7243
1031.699, 777.4574
1033.627, 796.4526
1035.556, 813.1304
1037.484, 838.7126
1039.412, 876.5410
1041.341, 913.8545
1043.269, 939.4553
1045.198, 962.5234
1047.126, 996.3653
1049.055, 1035.227
1050.983, 1073.679
1052.912, 1110.447
1054.840, 1146.046
1056.769, 1181.313
1058.697, 1209.310
1060.626, 1248.334
1062.554, 1308.248
1064.483, 1362.801
1066.411, 1408.016
1068.339, 1449.126
1070.268, 1486.699
1072.196, 1536.621
1074.125, 1598.660
1076.053, 1653.076
1077.982, 1697.767
1079.910, 1758.007
1081.839, 1838.608
1083.767, 1908.923
1085.696, 1965.663
1087.624, 2025.160
1089.553, 2088.682
1091.481, 2173.417
1093.410, 2275.824
1095.338, 2354.898
1097.266, 2414.418
1099.195, 2483.267
1101.123, 2565.214
1103.052, 2652.814
1104.980, 2743.022
1106.909, 2859.665
1108.837, 2984.985
1110.766, 3070.908
1112.694, 3151.152
1114.623, 3256.904
1116.551, 3369.657
1118.480, 3485.209
1120.408, 3608.747
1122.337, 3748.137
1124.265, 3878.799
1126.193, 3975.635
1128.122, 4097.154
1130.050, 4269.615
1131.979, 4429.562
1133.907, 4562.182
1135.836, 4714.264
1137.764, 4896.602
1139.693, 5086.827
1141.621, 5271.795
1143.550, 5465.978
1145.478, 5678.705
1147.407, 5889.934
1149.335, 6101.560
1151.264, 6295.603
1153.192, 6467.398
1155.120, 6687.376
1157.049, 6951.598
1158.977, 7219.076
1160.906, 7486.157
1162.834, 7738.310
1164.763, 7989.497
1166.691, 8263.951
1168.620, 8546.521
1170.548, 8816.842
1172.477, 9086.108
1174.405, 9376.038
1176.334, 9665.031
1178.262, 9931.419
1180.191, 10186.98
1182.119, 10428.61
1184.047, 10674.57
1185.976, 10953.13
1187.904, 11211.36
1189.833, 11430.74
1191.761, 11621.81
1193.690, 11792.14
1195.618, 11945.41
1197.547, 12072.15
1199.475, 12205.94
1201.404, 12353.84
1203.332, 12398.45
1205.261, 12353.12
1207.189, 12383.80
1209.118, 12456.81
1211.046, 12444.96
1212.974, 12384.11
1214.903, 12349.74
1216.831, 12304.46
1218.760, 12187.23
1220.688, 12052.90
1222.617, 11949.08
1224.545, 11852.56
1226.474, 11743.52
1228.402, 11646.17
1230.331, 11584.40
1232.259, 11513.52
1234.188, 11408.68
1236.116, 11317.24
1238.045, 11254.68
1239.973, 11183.35
1241.901, 11091.56
1243.830, 11040.51
1245.758, 11030.68
1247.687, 11031.01
1249.615, 11045.61
1251.544, 11089.74
1253.472, 11164.52
1255.401, 11275.40
1257.329, 11420.47
1259.258, 11603.92
1261.186, 11808.43
1263.115, 12002.30
1265.043, 12242.00
1266.972, 12567.29
1268.900, 12924.03
1270.828, 13298.36
1272.757, 13681.53
1274.685, 14057.96
1276.614, 14519.61
1278.542, 15085.44
1280.471, 15641.14
1282.399, 16185.87
1284.328, 16777.46
1286.256, 17394.00
1288.185, 17930.83
1290.113, 18438.74
1292.042, 19037.52
1293.970, 19659.86
1295.899, 20218.20
1297.827, 20760.29
1299.755, 21334.63
1301.684, 21893.37
1303.612, 22444.83
1305.541, 22893.93
1307.469, 23197.79
1309.398, 23518.56
1311.326, 23883.12
1313.255, 24292.04
1315.183, 24715.71
1317.112, 24978.61
1319.040, 25117.92
1320.969, 25218.47
1322.897, 25311.44
1324.826, 25456.88
1326.754, 25588.63
1328.682, 25640.63
1330.611, 25662.17
1332.539, 25696.23
1334.468, 25686.77
1336.396, 25600.45
1338.325, 25508.73
1340.253, 25420.43
1342.182, 25363.81
1344.110, 25334.08
1346.039, 25233.36
1347.967, 25079.57
1349.896, 24946.06
1351.824, 24812.27
1353.753, 24616.54
1355.681, 24430.70
1357.609, 24354.08
1359.538, 24277.74
1361.466, 24147.14
1363.395, 23972.67
1365.323, 23728.08
1367.252, 23531.05
1369.180, 23393.74
1371.109, 23241.23
1373.037, 23071.87
1374.966, 22896.68
1376.894, 22723.50
1378.823, 22559.93
1380.751, 22420.14
1382.680, 22344.38
1384.608, 22252.27
1386.536, 22069.82
1388.465, 21906.10
1390.393, 21801.23
1392.322, 21718.57
1394.250, 21659.11
1396.179, 21588.51
1398.107, 21509.64
1400.036, 21476.06
1401.964, 21460.82
1403.893, 21396.43
1405.821, 21308.32
1407.750, 21217.75
1409.678, 21127.51
1411.607, 21042.70
1413.535, 20948.15
1415.464, 20836.75
1417.392, 20730.37
1419.320, 20634.46
1421.249, 20506.30
1423.177, 20351.16
1425.106, 20206.62
1427.034, 20061.39
1428.963, 19897.49
1430.891, 19718.10
1432.820, 19492.89
1434.748, 19318.22
1436.677, 19256.67
1438.605, 19131.64
1440.534, 18900.13
1442.462, 18739.79
1444.391, 18650.34
1446.319, 18432.68
1448.247, 18163.33
1450.176, 18054.43
1452.104, 17977.66
1454.033, 17774.75
1455.961, 17579.50
1457.890, 17463.29
1459.818, 17349.65
1461.747, 17225.93
1463.675, 17089.96
1465.604, 16947.70
1467.532, 16873.60
1469.461, 16822.84
1471.389, 16666.83
1473.318, 16490.06
1475.246, 16359.61
1477.174, 16285.13
1479.103, 16317.48
1481.031, 16310.90
1482.960, 16240.74
1484.888, 16150.04
1486.817, 16053.21
1488.745, 16062.50
1490.674, 16103.78
1492.602, 16006.91
1494.531, 15892.63
1496.459, 15873.78
1498.388, 15866.01
1500.316, 15838.80
1502.245, 15804.60
1504.173, 15760.23
1506.101, 15751.15
1508.030, 15769.34
1509.958, 15773.14
1511.887, 15772.36
1513.815, 15785.75
1515.744, 15792.18
1517.672, 15759.99
1519.601, 15756.13
1521.529, 15814.30
1523.458, 15852.46
1525.386, 15870.48
1527.315, 15944.79
1529.243, 16028.04
1531.172, 15978.90
1533.100, 15929.97
1535.028, 15991.21
1536.957, 16060.09
1538.885, 16108.39
1540.814, 16121.38
1542.742, 16094.49
1544.671, 16091.60
1546.599, 16111.45
1548.528, 16170.28
1550.456, 16222.07
1552.385, 16208.09
1554.313, 16202.67
1556.242, 16240.41
1558.170, 16250.13
1560.099, 16218.66
1562.027, 16227.10
1563.955, 16256.29
1565.884, 16229.70
1567.812, 16192.83
1569.741, 16203.25
1571.669, 16206.93
1573.598, 16182.12
1575.526, 16169.54
1577.455, 16174.04
1579.383, 16123.31
1581.312, 16050.13
1583.240, 16068.22
1585.169, 16098.71
1587.097, 16049.89
1589.026, 16008.01
1590.954, 16002.39
1592.882, 15989.99
1594.811, 15967.56
1596.739, 15959.32
1598.668, 15960.94
1600.596, 15954.63
1602.525, 15962.21
1604.453, 16015.22
1606.382, 16060.50
1608.310, 16085.46
1610.239, 16104.18
1612.167, 16119.23
1614.096, 16123.64
1616.024, 16147.76
1617.953, 16271.52
1619.881, 16374.18
1621.809, 16360.01
1623.738, 16360.56
1625.666, 16394.41
1627.595, 16422.33
1629.523, 16439.94
1631.452, 16419.25
1633.380, 16408.96
1635.309, 16486.27
1637.237, 16528.55
1639.166, 16445.85
1641.094, 16445.54
1643.023, 16526.21
1644.951, 16565.40
1646.880, 16547.12
1648.808, 16416.20
1650.736, 16282.38
1652.665, 16212.99
1654.593, 16129.71
1656.522, 16014.75
1658.450, 15935.00
1660.379, 15883.71
1662.307, 15861.18
1664.236, 15824.52
1666.164, 15740.43
1668.093, 15641.54
1670.021, 15534.67
1671.950, 15428.02
1673.878, 15320.85
1675.807, 15200.42
1677.735, 15084.28
1679.663, 14992.89
1681.592, 14907.50
1683.520, 14820.60
1685.449, 14752.45
1687.377, 14703.90
1689.306, 14685.10
1691.234, 14651.24
1693.163, 14513.97
1695.091, 14377.98
1697.020, 14274.96
1698.948, 14232.17
1700.877, 14239.87
1702.805, 14157.48
1704.734, 14033.99
1706.662, 13921.42
1708.590, 13860.24
1710.519, 13885.38
1712.447, 13866.12
1714.376, 13791.79
1716.304, 13721.14
1718.233, 13654.43
1720.161, 13583.94
1722.090, 13524.53
1724.018, 13486.15
1725.947, 13456.31
1727.875, 13429.28
1729.804, 13349.35
1731.732, 13253.85
1733.661, 13199.23
1735.589, 13157.83
1737.517, 13122.55
1739.446, 13077.93
1741.374, 13024.28
1743.303, 12979.30
1745.231, 12928.62
1747.160, 12838.74
1749.088, 12761.60
1751.017, 12742.48
1752.945, 12676.23
1754.874, 12568.90
1756.802, 12488.26
1758.731, 12418.42
1760.659, 12360.33
1762.588, 12266.84
1764.516, 12076.76
1766.444, 11990.41
1768.373, 11978.98
1770.301, 11907.48
1772.230, 11816.16
1774.158, 11741.73
1776.087, 11644.28
1778.015, 11503.82
1779.944, 11401.41
1781.872, 11328.61
1783.801, 11281.84
1785.729, 11220.68
1787.658, 11122.04
1789.586, 11005.90
1791.515, 10875.56
1793.443, 10734.17
1795.371, 10597.06
1797.300, 10493.99
1799.228, 10393.27
1801.157, 10280.68
1803.085, 10205.37
1805.014, 10156.18
1806.942, 10079.68
1808.871, 9977.078
1810.799, 9831.793
1812.728, 9727.054
1814.656, 9678.750
1816.585, 9526.590
1818.513, 9334.377
1820.442, 9245.070
1822.370, 9168.871
1824.298, 9066.433
1826.227, 8962.992
1828.155, 8867.067
1830.084, 8819.269
1832.012, 8760.108
1833.941, 8592.525
1835.869, 8477.256
1837.798, 8442.631
1839.726, 8401.966
1841.655, 8332.407
1843.583, 8172.679
1845.512, 8028.429
1847.440, 7955.748
1849.369, 7900.884
1851.297, 7844.023
1853.225, 7705.259
1855.154, 7550.875
1857.082, 7424.588
1859.011, 7349.206
1860.939, 7323.042
1862.868, 7229.166
1864.796, 7105.493
1866.725, 7012.403
1868.653, 6920.094
1870.582, 6816.281
1872.510, 6680.407
1874.439, 6541.220
1876.367, 6488.142
1878.296, 6438.366
1880.224, 6344.135
1882.152, 6245.650
1884.081, 6145.606
1886.009, 6024.140
1887.938, 5905.297
1889.866, 5811.733
1891.795, 5708.044
1893.723, 5586.439
1895.652, 5493.182
1897.580, 5411.165
1899.509, 5312.833
1901.437, 5206.637
1903.366, 5096.715
1905.294, 5018.583
1907.223, 4949.946
1909.151, 4829.393
1911.079, 4713.301
1913.008, 4631.381
1914.936, 4539.833
1916.865, 4437.966
1918.793, 4356.645
1920.722, 4282.901
1922.650, 4208.372
1924.579, 4126.211
1926.507, 4041.956
1928.436, 3997.225
1930.364, 3948.949
1932.293, 3857.746
1934.221, 3764.728
1936.150, 3673.075
1938.078, 3568.628
1940.006, 3476.675
1941.935, 3427.960
1943.863, 3367.880
1945.792, 3293.222
1947.720, 3218.421
1949.649, 3152.187
1951.577, 3117.643
1953.506, 3058.473
1955.434, 2968.863
1957.363, 2912.277
1959.291, 2870.292
1961.220, 2819.061
1963.148, 2759.424
1965.077, 2693.566
1967.005, 2621.577
1968.933, 2555.619
1970.862, 2515.198
1972.790, 2473.967
1974.719, 2428.323
1976.647, 2369.512
1978.576, 2307.036
1980.504, 2255.056
1982.433, 2214.985
1984.361, 2191.211
1986.290, 2160.010
1988.218, 2120.402
1990.147, 2071.746
1992.075, 2018.143
1994.004, 1955.942
1995.932, 1936.791
1997.860, 1924.711
1999.789, 1863.946
2001.717, 1799.664
2003.646, 1742.901
2005.574, 1711.245
2007.503, 1689.209
2009.431, 1656.177
2011.360, 1623.699
2013.288, 1594.773
2015.217, 1563.709
2017.145, 1531.264
2019.074, 1497.514
2021.002, 1464.674
2022.931, 1433.895
2024.859, 1416.877
2026.787, 1398.560
2028.716, 1363.590
2030.644, 1322.993
2032.573, 1281.934
2034.501, 1260.697
2036.430, 1244.808
2038.358, 1226.078
2040.287, 1194.985
2042.215, 1155.903
2044.144, 1125.034
2046.072, 1099.727
2048.000, 1080.739
2049.929, 1053.906
2051.857, 1026.893
2053.786, 1034.411
2055.714, 1030.547
2057.643, 992.9409
2059.571, 962.4264
2061.500, 942.4757
2063.428, 931.1440
2065.357, 923.2703
2067.285, 918.9710
2069.214, 887.1969
2071.142, 852.2690
2073.071, 856.1890
2074.999, 843.4945
2076.927, 809.1740
2078.856, 796.2163
2080.784, 788.2034
2082.713, 766.7697
2084.641, 750.8429
2086.570, 741.0286
2088.498, 727.8802
2090.427, 714.2357
2092.355, 700.6556
2094.284, 691.5316
2096.212, 683.0001
2098.141, 666.5919
2100.069, 651.3595
2101.998, 639.0405
2103.926, 629.9332
2105.854, 620.0356
2107.783, 599.2169
2109.711, 592.0806
2111.640, 598.8755
2113.568, 587.0165
2115.497, 572.3060
2117.425, 564.0042
2119.354, 557.1599
2121.282, 550.9631
2123.211, 535.2057
2125.139, 523.5675
2127.068, 518.6921
2128.996, 504.2104
2130.925, 491.8575
2132.853, 498.4239
2134.781, 494.0927
2136.710, 477.5394
2138.638, 467.1236
2140.567, 460.3374
2142.495, 458.8329
2144.424, 446.6483
2146.352, 431.3288
2148.281, 435.8173
2150.209, 435.7131
2152.138, 421.4212
2154.066, 412.1052
2155.995, 408.4388
2157.923, 403.9636
2159.852, 400.5054
2161.780, 397.0828
2163.708, 390.4193
2165.637, 381.6916
2167.565, 374.6190
2169.494, 368.5696
2171.422, 362.5786
2173.351, 355.3286
2175.279, 356.7119
2177.208, 363.5670
2179.136, 357.2310
2181.065, 346.5409
2182.993, 332.6773
2184.922, 325.9497
2186.850, 326.1674
2188.779, 324.6093
2190.707, 323.5667
2192.635, 324.9642
2194.564, 319.5591
2196.492, 312.0052
2198.421, 308.2453
2200.349, 308.7013
2202.278, 308.6315
2204.206, 307.2531
2206.135, 303.0240
2208.063, 296.9925
2209.992, 288.3828
2211.920, 283.3710
2213.849, 284.9666
2215.777, 279.1418
2217.706, 272.4717
2219.634, 275.6588
2221.563, 276.1722
2223.491, 269.3210
2225.419, 261.6263
2227.348, 260.5147
2229.276, 266.0597
2231.205, 265.0374
2233.133, 264.3449
2235.062, 266.8844
2236.990, 265.3567
2238.919, 259.2142
2240.847, 242.9461
2242.776, 237.4621
2244.704, 239.4463
2246.633, 239.6089
2248.561, 243.3140
2250.490, 247.4911
2252.418, 246.6753
2254.346, 239.5578
2256.275, 232.8813
2258.203, 236.2561
2260.132, 242.9034
2262.060, 239.7216
2263.989, 231.1826
2265.917, 220.9099
2267.846, 221.4555
2269.774, 225.4440
2271.703, 223.8972
2273.631, 218.5668
2275.560, 216.7758
2277.488, 226.1105
2279.417, 222.1672
2281.345, 212.0770
2283.273, 214.2973
2285.202, 213.8768
2287.130, 205.2150
2289.059, 210.1327
2290.987, 216.0474
2292.916, 211.1618
2294.844, 205.6395
2296.773, 203.0276
2298.701, 210.9700
2300.630, 210.1377
2302.558, 200.9101
2304.487, 195.8654
2306.415, 195.5189
2308.344, 200.3748
2310.272, 200.2750
2312.200, 198.2123
2314.129, 196.6696
2316.057, 195.1508
2317.986, 197.2734
2319.914, 205.6087
2321.843, 202.7516
2323.771, 193.7521
2325.700, 188.8357
2327.628, 183.9847
2329.557, 179.5035
2331.485, 181.7291
2333.414, 184.2299
2335.342, 182.1305
2337.271, 184.6071
2339.199, 186.6971
2341.127, 178.5088
2343.056, 174.5664
2344.984, 174.4928
2346.913, 175.7443
2348.841, 176.8768
2350.770, 175.7916
2352.698, 170.2769
2354.627, 168.8140
2356.555, 170.0323
2358.484, 166.8507
2360.412, 166.7620
2362.341, 172.5126
2364.269, 170.3207
2366.198, 166.9581
2368.126, 168.8708
2370.054, 161.8296
2371.983, 153.9982
2373.911, 156.6153
2375.840, 154.7807
2377.768, 151.9930
2379.697, 159.5210
2381.625, 159.5491
2383.554, 152.3872
2385.482, 156.1588
2387.411, 158.1407
2389.339, 154.2954
2391.268, 147.3971
2393.196, 144.8112
2395.125, 150.4803
2397.053, 147.9401
2398.981, 143.5484
2400.910, 141.2185
2402.838, 142.0600
2404.767, 143.5841
2406.695, 143.6388
2408.624, 139.3433
2410.552, 134.2624
2412.481, 135.4452
2414.409, 135.6863
2416.338, 135.1826
2418.266, 138.6047
2420.195, 136.6286
2422.123, 130.3180
2424.052, 132.7798
2425.980, 133.8406
2427.908, 130.9849
2429.837, 129.5221
2431.765, 127.3041
2433.694, 123.9879
2435.622, 123.2725
2437.551, 123.8418
2439.479, 126.5689
2441.408, 125.0652
2443.336, 124.1754
2445.265, 128.4756
2447.193, 127.8396
2449.122, 126.7644
2451.050, 130.3211
2452.979, 131.2757
2454.907, 130.2742
2456.835, 129.1819
2458.764, 127.8378
2460.692, 125.7370
2462.621, 125.3697
2464.549, 125.2690
2466.478, 124.9403
2468.406, 128.8106
2470.335, 131.0735
2472.263, 131.4137
2474.192, 133.5218
2476.120, 137.0367
2478.049, 138.1621
2479.977, 138.8487
2481.906, 139.6004
2483.834, 140.6426
2485.762, 141.0583
2487.691, 141.6190
2489.619, 141.4368
2491.548, 147.6587
2493.476, 149.5755
2495.405, 140.1231
2497.333, 144.1133
2499.262, 150.3649
2501.190, 148.8151
2503.119, 144.9103
2505.047, 144.4721
2506.976, 150.1055
2508.904, 149.2036
2510.833, 146.1447
2512.761, 154.2819
2514.689, 148.0784
2516.618, 141.7512
2518.546, 141.3987
2520.475, 139.3590
2522.403, 137.8873
2524.332, 134.3276
2526.260, 132.0551
2528.189, 129.9872
2530.117, 126.9448
2532.046, 123.0483
2533.974, 121.5096
2535.903, 118.1772
2537.831, 114.5986
2539.760, 111.6250
2541.688, 106.9943
2543.616, 103.5734
2545.545, 101.4440
2547.473, 101.7715
2549.402, 102.0537
2551.330, 98.22618
2553.259, 94.98610
2555.187, 90.57658
2557.116, 86.41021
2559.044, 86.58704
2560.973, 85.01975
2562.901, 81.12968
2564.830, 79.78258
2566.758, 80.61869
2568.687, 83.15492
2570.615, 86.99687
2572.543, 82.82388
2574.472, 75.12855
2576.400, 72.33897
2578.329, 74.11490
2580.257, 74.00911
2582.186, 73.46586
2584.114, 71.26823
2586.043, 69.89697
2587.971, 71.28468
2589.900, 70.57372
2591.828, 67.13779
2593.757, 67.49047
2595.685, 68.95615
2597.614, 72.56149
2599.542, 70.38776
2601.470, 63.23794
2603.399, 61.41886
2605.327, 60.34843
2607.256, 62.17004
2609.184, 61.58511
2611.113, 60.57087
2613.041, 58.56149
2614.970, 60.26990
2616.898, 63.42208
2618.827, 63.25795
2620.755, 61.67011
2622.684, 58.76441
2624.612, 55.67704
2626.541, 57.44491
2628.469, 58.23099
2630.397, 55.12872
2632.326, 54.46951
2634.254, 57.41373
2636.183, 55.62663
2638.111, 52.46736
2640.040, 52.90577
2641.968, 55.68785
2643.897, 52.30187
2645.825, 49.76888
2647.754, 49.17192
2649.682, 47.18435
2651.611, 51.72344
2653.539, 52.94739
2655.468, 51.80136
2657.396, 51.24324
2659.324, 49.92311
2661.253, 50.36891
2663.181, 50.18419
2665.110, 48.05669
2667.038, 46.17624
2668.967, 42.60976
2670.895, 44.98340
2672.824, 46.26623
2674.752, 47.44102
2676.681, 45.02592
2678.609, 44.98566
2680.538, 47.24245
2682.466, 45.44492
2684.395, 45.94720
2686.323, 42.51161
2688.251, 39.90485
2690.180, 40.97059
2692.108, 42.25947
2694.037, 45.99917
2695.965, 44.60638
2697.894, 39.00910
2699.822, 36.92243
2701.751, 37.08548
2703.679, 37.50990
2705.608, 38.41706
2707.536, 36.80308
2709.465, 37.88782
2711.393, 42.86666
2713.322, 43.12560
2715.250, 39.43251
2717.178, 37.00264
2719.107, 35.99716
2721.035, 38.32849
2722.964, 36.45930
2724.892, 29.72537
2726.821, 38.08752
2728.749, 41.44902
2730.678, 36.37989
2732.606, 37.18462
2734.535, 38.65149
2736.463, 38.19397
2738.392, 36.50503
2740.320, 34.69338
2742.249, 32.33642
2744.177, 32.68024
2746.105, 32.72698
2748.034, 32.59005
2749.962, 36.56720
2751.891, 35.63449
2753.819, 33.33133
2755.748, 29.31957
2757.676, 28.34984
2759.605, 28.85366
2761.533, 27.91061
2763.462, 27.46275
2765.390, 29.91211
2767.319, 31.87165
2769.247, 32.07082
2771.176, 33.41277
2773.104, 33.56756
2775.032, 28.42778
2776.961, 27.79898
2778.889, 28.18436
2780.818, 29.02367
2782.746, 26.00895
2784.675, 26.22082
2786.603, 30.27365
2788.532, 31.71557
2790.460, 31.59058
2792.389, 31.96273
2794.317, 32.43261
2796.246, 32.12593
2798.174, 29.49455
2800.103, 25.57729
2802.031, 27.10210
2803.959, 28.11840
2805.888, 28.47248
2807.816, 33.51583
2809.745, 34.46584
2811.673, 32.38062
2813.602, 28.53772
2815.530, 28.25187
2817.459, 28.34072
2819.387, 28.28538
2821.316, 26.77718
2823.244, 29.07188
2825.173, 32.15328
2827.101, 29.88465
2829.030, 35.50924
2830.958, 37.66450
2832.886, 29.17860
2834.815, 27.02987
2836.743, 27.07298
2838.672, 28.12357
2840.600, 31.59521
2842.529, 29.43382
2844.457, 25.76987
2846.386, 25.16770
2848.314, 25.34216
2850.243, 27.38819
2852.171, 30.35076
2854.100, 28.92567
2856.028, 30.27277
2857.957, 32.33263
2859.885, 28.88100
2861.813, 28.38785
2863.742, 28.77367
2865.670, 27.95418
2867.599, 31.06120
2869.527, 30.87494
2871.456, 28.05111
2873.384, 24.90919
2875.313, 30.42040
2877.241, 35.40294
2879.170, 31.39384
2881.098, 34.26232
2883.027, 37.10926
2884.955, 38.28885
2886.884, 36.21918
2888.812, 28.63630
2890.740, 25.11866
2892.669, 29.79864
2894.597, 32.19897
2896.526, 31.50745
2898.454, 29.90612
2900.383, 32.14013
2902.311, 31.72622
2904.240, 33.43564
2906.168, 38.84581
2908.097, 33.86955
2910.025, 27.97063
2911.954, 25.52695
2913.882, 29.72562
2915.811, 34.07994
2917.739, 36.66992
2919.667, 36.37008
2921.596, 36.15870
2923.524, 33.47437
2925.453, 30.78602
2927.381, 34.70223
2929.310, 33.88298
2931.238, 34.21303
2933.167, 36.94389
2935.095, 35.22012
2937.024, 37.53207
2938.952, 40.47540
2940.881, 39.62522
2942.809, 37.31939
2944.738, 35.75163
2946.666, 36.19436
2948.594, 38.53342
2950.523, 38.47980
2952.451, 37.30353
2954.380, 43.34655
2956.308, 45.79986
2958.237, 43.05396
2960.165, 41.14655
2962.094, 40.13404
2964.022, 43.68853
2965.951, 47.58390
2967.879, 44.87033
2969.808, 46.52710
2971.736, 50.12319
2973.665, 51.17548
2975.593, 47.08566
2977.521, 49.36084
2979.450, 48.57816
2981.378, 47.45903
2983.307, 52.04284
2985.235, 54.91671
2987.164, 54.78375
2989.092, 47.93673
2991.021, 49.72866
2992.949, 54.64671
2994.878, 59.55213
2996.806, 59.03128
2998.735, 59.25651
3000.663, 60.50369
3002.592, 65.97932
3004.520, 66.26833
3006.448, 70.34210
3008.377, 71.15935
3010.305, 68.27652
3012.234, 66.98065
3014.162, 69.93887
3016.091, 73.66188
3018.019, 72.64970
3019.948, 72.55274
3021.876, 78.04963
3023.805, 83.44146
3025.733, 80.78717
3027.662, 83.02630
3029.590, 85.49856
3031.519, 86.68510
3033.447, 89.29136
3035.375, 95.13761
3037.304, 97.00129
3039.232, 93.35645
3041.161, 99.26793
3043.089, 99.81424
3045.018, 103.3971
3046.946, 106.1744
3048.875, 108.4001
3050.803, 110.4280
3052.732, 112.5529
3054.660, 113.7271
3056.589, 115.4230
3058.517, 117.7157
3060.446, 116.8653
3062.374, 126.6076
3064.302, 126.1722
3066.231, 125.2493
3068.159, 127.4312
3070.088, 131.3029
3072.016, 133.9725
3073.945, 136.2701
3075.873, 139.3914
3077.802, 144.3295
3079.730, 139.9837
3081.659, 144.2851
3083.587, 156.9630
3085.516, 151.6625
3087.444, 151.6470
3089.373, 159.9323
3091.301, 172.7941
3093.229, 173.7374
3095.158, 173.4421
3097.086, 173.0702
3099.015, 174.0475
3100.943, 182.4400
3102.872, 190.8784
3104.800, 191.9686
3106.729, 184.9246
3108.657, 185.5641
3110.586, 200.0827
3112.514, 212.0306
3114.443, 201.2831
3116.371, 209.1339
3118.300, 211.2140
3120.228, 209.5395
3122.156, 211.9753
3124.085, 219.4194
3126.013, 232.1873
3127.942, 240.0642
3129.870, 236.4790
3131.799, 240.8090
3133.727, 248.3880
3135.656, 251.1345
3137.584, 247.7466
3139.513, 252.0559
3141.441, 254.0516
3143.370, 259.9266
3145.298, 266.1474
3147.227, 271.2411
3149.155, 278.6546
3151.083, 275.9467
3153.012, 275.2479
3154.940, 281.6869
3156.869, 300.0753
3158.797, 308.1114
3160.726, 289.7386
3162.654, 302.7452
3164.583, 309.3857
3166.511, 310.0301
3168.440, 313.3027
3170.368, 328.8265
3172.297, 327.4427
3174.225, 320.8848
3176.154, 324.6005
3178.082, 333.9075
3180.010, 337.2530
3181.939, 337.4289
3183.867, 334.2141
3185.796, 340.3611
3187.724, 342.0489
3189.653, 347.6703
3191.581, 356.9293
3193.510, 352.7917
3195.438, 356.9133
3197.367, 368.2009
3199.295, 377.5840
3201.224, 369.5502
3203.152, 376.6193
3205.081, 379.4423
3207.009, 374.6091
3208.938, 374.9850
3210.866, 371.7988
3212.794, 383.0096
3214.723, 396.8075
3216.651, 393.8423
3218.580, 405.5354
3220.508, 417.2908
3222.437, 424.3975
3224.365, 421.5020
3226.294, 424.8164
3228.222, 432.6560
3230.151, 439.3947
3232.079, 449.1035
3234.008, 456.8504
3235.936, 475.7643
3237.865, 480.4723
3239.793, 478.5446
3241.721, 500.4436
3243.650, 519.5223
3245.578, 525.8331
3247.507, 533.7369
3249.435, 553.5358
3251.364, 575.1989
3253.292, 580.7703
3255.221, 586.6484
3257.149, 602.5661
3259.078, 635.1924
3261.006, 650.7076
3262.935, 664.6262
3264.863, 681.8215
3266.792, 702.4063
3268.720, 709.3838
3270.648, 731.3414
3272.577, 744.8057
3274.505, 741.6885
3276.434, 773.9512
3278.362, 790.0826
3280.291, 810.2040
3282.219, 834.0704
3284.148, 850.9175
3286.076, 852.0767
3288.005, 855.9280
3289.933, 852.1014
3291.862, 841.0027
3293.790, 870.4336
3295.719, 889.6708
3297.647, 890.6074
3299.575, 876.2974
3301.504, 855.0226
3303.432, 853.9462
3305.361, 847.4633
3307.289, 847.0521
3309.218, 858.0103
3311.146, 851.0311
3313.075, 833.0563
3315.003, 823.7678
3316.932, 825.2578
3318.860, 827.5127
3320.789, 787.6742
3322.717, 787.7571
3324.646, 800.7126
3326.574, 800.3273
3328.502, 798.4149
3330.431, 766.0894
3332.359, 752.1257
3334.288, 756.7065
3336.216, 758.5716
3338.145, 741.8586
3340.073, 750.1436
3342.002, 742.3167
3343.930, 722.5991
3345.859, 735.0988
3347.787, 726.5048
3349.716, 710.7465
3351.644, 701.5217
3353.573, 703.5638
3355.501, 699.4492
3357.429, 683.9423
3359.358, 686.5062
3361.286, 696.2053
3363.215, 692.7318
3365.143, 675.9296
3367.072, 655.6104
3369.000, 650.9921
3370.929, 657.0884
3372.857, 655.3212
3374.786, 632.5380
3376.714, 635.8290
3378.643, 641.6123
3380.571, 634.5458
3382.500, 620.2004
3384.428, 584.5017
3386.356, 602.0880
3388.285, 612.3599
3390.213, 584.5858
3392.142, 573.8283
3394.070, 555.3589
3395.999, 553.2924
3397.927, 548.1379
3399.856, 530.5827
3401.784, 547.7292
3403.713, 536.2454
3405.641, 543.0293
3407.570, 537.7736
3409.498, 493.6184
3411.427, 479.8694
3413.355, 478.2543
3415.283, 469.6696
3417.212, 464.1565
3419.140, 470.7298
3421.069, 459.0103
3422.997, 440.3510
3424.926, 441.1820
3426.854, 440.4858
3428.783, 417.5594
3430.711, 414.7839
3432.640, 387.8400
3434.568, 381.7295
3436.497, 387.2508
3438.425, 381.0042
3440.354, 371.5732
3442.282, 365.6104
3444.210, 353.9280
3446.139, 341.5674
3448.067, 334.3163
3449.996, 322.4188
3451.924, 335.1250
3453.853, 330.9717
3455.781, 316.8434
3457.710, 307.3953
3459.638, 298.8193
3461.567, 305.7174
3463.495, 290.8225
3465.424, 278.5096
3467.352, 284.9723
3469.281, 292.9370
3471.209, 285.9355
3473.137, 275.5377
3475.066, 274.2250
3476.994, 277.4413
3478.923, 268.5896
3480.851, 253.5835
3482.780, 252.3682
3484.708, 254.2484
3486.637, 248.6640
3488.565, 235.4226
3490.494, 243.3706
3492.422, 236.4084
3494.351, 229.8948
3496.279, 230.7670
3498.208, 231.3400
3500.136, 208.2078
3502.064, 213.3344
3503.993, 216.3210
3505.921, 218.7858
3507.850, 217.5646
3509.778, 198.4621
3511.707, 200.0448
3513.635, 195.6933
3515.564, 186.8956
3517.492, 184.8344
3519.421, 192.8603
3521.349, 180.7165
3523.278, 179.1102
3525.206, 178.6154
3527.135, 177.2412
3529.063, 175.7405
3530.991, 174.5426
3532.920, 160.0428
3534.848, 155.1427
3536.777, 158.7816
3538.705, 156.7421
3540.634, 142.8820
3542.562, 150.6256
3544.491, 150.6428
3546.419, 149.5516
3548.348, 143.3299
3550.276, 134.0223
3552.205, 132.3618
3554.133, 128.5064
3556.062, 133.4548
3557.990, 132.0152
3559.918, 123.4011
3561.847, 117.2680
3563.775, 124.1852
3565.704, 120.9362
3567.632, 118.6465
3569.561, 119.5881
3571.489, 119.4547
3573.418, 116.0003
3575.346, 120.3957
3577.275, 116.3854
3579.203, 109.4276
3581.132, 102.1624
3583.060, 100.9073
3584.989, 109.3156
3586.917, 101.9217
3588.845, 92.94157
3590.774, 100.1861
3592.702, 96.48833
3594.631, 84.21440
3596.559, 98.28819
3598.488, 98.05753
3600.416, 85.35810
3602.345, 84.19065
3604.273, 84.23506
3606.202, 80.32164
3608.130, 86.41381
3610.059, 78.38107
3611.987, 82.84666
3613.916, 83.04980
3615.844, 76.81826
3617.772, 70.91959
3619.701, 71.84204
3621.629, 68.67805
3623.558, 61.46484
3625.486, 61.60466
3627.415, 64.66170
3629.343, 66.17799
3631.272, 67.94532
3633.200, 73.46648
3635.129, 61.11410
3637.057, 60.91630
3638.986, 61.38638
3640.914, 58.66790
3642.843, 60.62172
3644.771, 53.26743
3646.699, 53.03268
3648.628, 62.39846
3650.556, 60.07952
3652.485, 55.37880
3654.413, 61.39280
3656.342, 55.13273
3658.270, 54.64793
3660.199, 52.25470
3662.127, 49.60167
3664.056, 46.44182
3665.984, 44.04644
3667.913, 46.44170
3669.841, 48.18563
3671.770, 43.63109
3673.698, 38.63234
3675.626, 38.84318
3677.555, 40.62319
3679.483, 38.35127
3681.412, 40.14701
3683.340, 38.65178
3685.269, 33.14913
3687.197, 34.65991
3689.126, 35.63550
3691.054, 33.40561
3692.983, 39.92469
3694.911, 32.38528
3696.840, 30.24064
3698.768, 32.04950
3700.697, 38.42076
3702.625, 38.33394
3704.553, 28.92497
3706.482, 35.14767
3708.410, 31.30304
3710.339, 34.53903
3712.267, 33.59755
3714.196, 29.02870
3716.124, 28.03922
3718.053, 32.61425
3719.981, 32.33752
3721.910, 26.80654
3723.838, 29.94902
3725.767, 27.69257
3727.695, 23.42920
3729.624, 24.04700
3731.552, 27.96926
3733.480, 25.99150
3735.409, 19.03416
3737.337, 24.92500
3739.266, 22.47957
3741.194, 21.92029
3743.123, 27.21615
3745.051, 27.19681
3746.980, 25.82024
3748.908, 20.01411
3750.837, 24.88700
3752.765, 22.37266
3754.694, 17.76975
3756.622, 18.30147
3758.551, 21.03484
3760.479, 18.50522
3762.407, 22.97083
3764.336, 19.44536
3766.264, 16.66425
3768.193, 17.35461
3770.121, 20.64570
3772.050, 23.09123
3773.978, 19.92265
3775.907, 16.31813
3777.835, 15.02007
3779.764, 13.48918
3781.692, 16.62919
3783.621, 16.37589
3785.549, 13.13406
3787.478, 17.60165
3789.406, 26.42159
3791.334, 14.44015
3793.263, 12.87793
3795.191, 14.23683
3797.120, 17.79038
3799.048, 20.29144
3800.977, 19.77900
3802.905, 20.67143
3804.834, 18.00209
3806.762, 18.35083
3808.691, 19.57978
3810.619, 18.88354
3812.548, 16.77929
3814.476, 16.28722
3816.405, 17.63301
3818.333, 15.95868
3820.261, 14.17048
3822.190, 12.85539
3824.118, 13.87004
3826.047, 16.28614
3827.975, 15.14899
3829.904, 13.51141
3831.832, 14.31882
3833.761, 11.04465
3835.689, 13.44495
3837.618, 13.75363
3839.546, 14.86530
3841.475, 12.53951
3843.403, 14.73377
3845.332, 16.74795
3847.260, 12.53852
3849.188, 10.81996
3851.117, 16.20482
3853.045, 16.99405
3854.974, 16.20673
3856.902, 15.78945
3858.831, 16.57822
3860.759, 16.54929
3862.688, 14.38934
3864.616, 12.02414
3866.545, 13.91888
3868.473, 11.76053
3870.402, 7.113005
3872.330, 12.35437
3874.259, 13.98840
3876.187, 15.83211
3878.115, 17.46350
3880.044, 16.36546
3881.972, 15.46486
3883.901, 6.259633
3885.829, 14.48032
3887.758, 14.64745
3889.686, 13.50712
3891.615, 12.14867
3893.543, 13.02030
3895.472, 15.85317
3897.400, 16.47292
3899.329, 13.22452
3901.257, 13.16803
3903.186, 10.94005
3905.114, 16.04885
3907.042, 7.705389
3908.971, 11.22852
3910.899, 11.84411
3912.828, 11.57292
3914.756, 15.36749
3916.685, 11.09389
3918.613, 10.22046
3920.542, 8.252404
3922.470, 8.564420
3924.399, 11.55808
3926.327, 9.953211
3928.256, 10.90364
3930.184, 10.92419
3932.113, 9.402632
3934.041, 9.973305
3935.969, 9.150097
3937.898, 9.958289
3939.826, 12.18436
3941.755, 9.149558
3943.683, 7.185854
3945.612, 7.209860
3947.540, 14.18575
3949.469, 16.38615
3951.397, 11.26339
3953.326, 9.727439
3955.254, 11.98897
3957.183, 9.141444
3959.111, 13.60295
3961.040, 13.23817
3962.968, 15.01256
3964.896, 13.66458
3966.825, 10.85882
3968.753, 11.62489
3970.682, 12.53362
3972.610, 11.37181
3974.539, 13.44106
3976.467, 17.20209
3978.396, 13.90069
3980.324, 10.74734
3982.253, 9.467211
3984.181, 16.09600
3986.110, 11.92545
3988.038, 12.68598
3989.967, 14.30632
3991.895, 9.770156
3993.823, 6.445417
3995.752, 8.067831
3997.680, 9.205338
3999.609, 14.25638
4001.537, 8.958459
4003.466, 11.19137
4005.394, 6.930198
4007.323, 10.45043
4009.251, 14.52028
4011.180, 11.21268
4013.108, 13.39072
4015.037, 17.54205
4016.965, 10.46772
4018.894, 10.34278
4020.822, 7.272679
4022.750, 10.73898
4024.679, 13.16773
4026.607, 13.09354
4028.536, 8.577689
4030.464, 14.01682
4032.393, 13.34541
4034.321, 10.58002
4036.250, 9.589375
4038.178, 8.075764
4040.107, 10.50438
4042.035, 15.96822
4043.964, 11.63082
4045.892, 11.98737
4047.821, 18.02196
4049.749, 16.43555
4051.677, 14.54645
4053.606, 10.66434
4055.534, 10.47545
4057.463, 7.959973
4059.391, 7.126409
4061.320, 11.10771
4063.248, 12.69085
4065.177, 9.125525
4067.105, 7.280432
4069.034, 7.242709
4070.962, 10.01247
4072.891, 14.33651
4074.819, 12.05564
4076.748, 11.61118
4078.676, 10.27957
4080.604, 13.50242
4082.533, 12.89584
4084.461, 11.64017
4086.390, 10.45499
4088.318, 13.27707
4090.247, 14.36448
4092.175, 8.006321
4094.104, 10.03052
4096.032, 8.650774
4097.960, 13.41638
4099.889, 13.11615
4101.817, 7.171953
4103.746, 6.837072
4105.674, 9.497385
4107.603, 11.85952
4109.531, 14.19601
4111.460, 8.898142
4113.388, 8.810952
4115.317, 12.15854
4117.245, 11.99090
4119.174, 12.99426
4121.102, 13.47446
4123.031, 7.255743
4124.959, 6.330857
4126.888, 7.449767
4128.816, 11.38694
4130.745, 10.98348
4132.673, 6.711145
4134.602, 9.132096
4136.530, 7.915801
4138.458, 6.680903
4140.387, 12.24890
4142.315, 10.59248
4144.244, 8.113694
4146.172, 10.29364
4148.101, 11.01395
4150.029, 9.105801
4151.958, 5.815742
4153.886, 6.402586
4155.814, 12.04441
4157.743, 10.15252
4159.671, 13.86258
4161.600, 4.568606
4163.528, 7.015477
4165.457, 15.47399
4167.385, 10.25132
4169.314, 11.29137
4171.242, 12.81126
4173.171, 10.99622
4175.099, 12.86325
4177.028, 9.435359
4178.956, 5.713764
4180.885, 12.47340
4182.813, 13.56210
4184.742, 9.264086
4186.670, 10.73398
4188.599, 11.48261
4190.527, 8.360304
4192.456, 7.112767
4194.384, 6.620069
4196.313, 9.218177
4198.241, 12.73748
4200.169, 10.78792
4202.098, 9.807208
4204.026, 5.551019
4205.955, 8.317454
4207.883, 8.368261
4209.812, 12.90684
4211.740, 7.572999
4213.668, 6.372018
4215.597, 7.192341
4217.525, 8.480048
4219.454, 8.148593
4221.382, 6.014306
4223.311, 5.702152
4225.239, 8.644851
4227.168, 8.685828
4229.096, 7.157706
4231.025, 5.172953
4232.953, 9.172699
4234.882, 10.54574
4236.810, 9.460289
4238.739, 10.54374
4240.667, 7.658237
4242.596, 9.943409
4244.524, 10.02228
4246.453, 3.175957
4248.381, 11.02051
4250.310, 10.52614
4252.238, 4.780731
4254.167, 8.256985
4256.095, 4.745307
4258.023, 13.58845
4259.952, 8.121134
4261.880, 8.629139
4263.809, 8.504734
4265.737, 11.98307
4267.666, 7.257185
4269.594, 7.543311
4271.522, 16.54775
4273.451, 11.28049
4275.379, 11.87551
4277.308, 9.403111
4279.236, 10.57226
4281.165, 8.577659
4283.093, 14.16136
4285.022, 15.58103
4286.950, 11.39336
4288.879, 10.67940
4290.807, 10.61864
4292.736, 8.054916
4294.664, 10.85899
4296.593, 12.59183
4298.521, 8.246383
4300.450, 9.187354
4302.378, 11.88745
4304.307, 13.16481
4306.235, 13.26739
4308.164, 17.13707
4310.092, 13.96923
4312.021, 5.769228
4313.949, 12.31785
4315.877, 13.11687
4317.806, 7.714954
4319.734, 10.05841
4321.663, 13.30786
4323.591, 11.19907
4325.520, 8.082593
4327.448, 8.073853
4329.376, 8.744345
4331.305, 12.55960
4333.233, 1.008063
4335.162, 15.69083
4337.090, 13.38367
4339.019, 7.615897
4340.947, 11.41630
4342.876, 7.103836
4344.804, 9.985907
4346.733, 11.22446
4348.661, 12.32855
4350.590, 10.54889
4352.518, 5.275202
4354.447, 18.42047
4356.375, 9.115073
4358.304, 17.84930
4360.232, 9.148543
4362.161, 5.665339
4364.089, 3.437919
4366.018, 9.827560
4367.946, 12.19590
4369.875, 11.27650
4371.803, 11.11000
4373.731, 10.28761
4375.660, 14.22954
4377.588, 11.49883
4379.517, 14.34536
4381.445, 11.49394
##END=



