##NAMES=Bertrandite
##RRUFFID=R110025
##IDEAL CHEMISTRY=Be_4_Si_2_O_7_(OH)_2_
##LOCALITY=Foote mine, Kings Mountain, North Carolina, USA
##OWNER=RRUFF
##SOURCE=
##DESCRIPTION=Colorless bladed crystals associated with lithiophilite R100096 
##STATUS=The identification of this mineral has been confirmed by single-crystal X-ray diffraction
##URL=https://www.rruff.net/odr/rruff_sample/R110025
##DIFFRACTION SAMPLE DESCRIPTION=Single crystal, powder profile is calculated
##CELL PARAMETERS=a: 8.757 b: 15.058 c: 4.555 alpha: 90 beta: 90 gamma: 90 volume: 600.6 crystal system: orthorhombic
##FILETYPE=Raman RAW
##RAMAN WAVELENGTH=532

195.2430, 2188.208
197.1714, 2209.806
199.0999, 2236.391
201.0284, 2267.161
202.9568, 2296.406
204.8853, 2327.702
206.8138, 2355.133
208.7422, 2372.561
210.6707, 2372.322
212.5992, 2369.781
214.5276, 2365.176
216.4561, 2359.463
218.3846, 2357.956
220.3130, 2359.644
222.2415, 2366.633
224.1700, 2383.247
226.0984, 2412.939
228.0269, 2439.113
229.9554, 2455.858
231.8838, 2464.434
233.8123, 2467.867
235.7408, 2461.891
237.6692, 2452.489
239.5977, 2445.066
241.5262, 2440.409
243.4546, 2437.614
245.3831, 2437.202
247.3116, 2438.453
249.2400, 2437.781
251.1685, 2433.451
253.0970, 2430.109
255.0254, 2429.386
256.9539, 2432.037
258.8824, 2434.833
260.8108, 2437.306
262.7393, 2440.262
264.6678, 2444.634
266.5962, 2450.689
268.5247, 2456.822
270.4532, 2462.343
272.3816, 2466.535
274.3101, 2472.121
276.2386, 2480.230
278.1670, 2489.099
280.0955, 2496.717
282.0240, 2502.030
283.9524, 2506.584
285.8809, 2511.440
287.8094, 2516.966
289.7378, 2522.950
291.6663, 2528.129
293.5948, 2533.738
295.5232, 2541.087
297.4517, 2553.858
299.3802, 2565.213
301.3086, 2572.888
303.2371, 2577.911
305.1656, 2583.900
307.0940, 2591.671
309.0225, 2599.920
310.9510, 2608.483
312.8794, 2618.118
314.8079, 2625.716
316.7364, 2629.483
318.6648, 2631.698
320.5933, 2635.974
322.5218, 2643.097
324.4502, 2649.809
326.3787, 2656.504
328.3072, 2663.832
330.2356, 2670.948
332.1641, 2676.118
334.0926, 2680.843
336.0210, 2686.802
337.9495, 2695.584
339.8780, 2704.988
341.8064, 2712.914
343.7349, 2719.284
345.6634, 2725.723
347.5918, 2733.704
349.5203, 2742.664
351.4488, 2752.656
353.3772, 2764.058
355.3057, 2773.603
357.2342, 2780.212
359.1626, 2784.957
361.0911, 2789.179
363.0196, 2791.981
364.9480, 2795.011
366.8765, 2799.231
368.8050, 2804.516
370.7334, 2808.987
372.6619, 2811.103
374.5904, 2813.289
376.5188, 2817.310
378.4473, 2823.193
380.3758, 2828.821
382.3042, 2836.148
384.2327, 2844.799
386.1612, 2852.652
388.0896, 2854.912
390.0181, 2857.479
391.9466, 2863.354
393.8750, 2874.283
395.8035, 2886.004
397.7320, 2896.334
399.6604, 2905.298
401.5889, 2913.324
403.5174, 2920.737
405.4458, 2927.303
407.3743, 2932.853
409.3028, 2937.993
411.2312, 2943.936
413.1597, 2950.444
415.0882, 2956.233
417.0166, 2960.759
418.9451, 2964.425
420.8736, 2969.805
422.8020, 2977.616
424.7305, 2986.372
426.6590, 2994.808
428.5874, 3003.143
430.5159, 3010.556
432.4444, 3016.358
434.3728, 3020.655
436.3013, 3025.128
438.2298, 3029.832
440.1582, 3034.641
442.0867, 3039.493
444.0152, 3044.881
445.9436, 3052.183
447.8721, 3062.228
449.8006, 3071.664
451.7290, 3077.135
453.6575, 3079.554
455.5860, 3082.875
457.5144, 3086.710
459.4429, 3090.210
461.3714, 3094.172
463.2998, 3102.281
465.2283, 3111.006
467.1568, 3118.902
469.0852, 3124.899
471.0137, 3131.074
472.9422, 3137.613
474.8706, 3144.508
476.7991, 3152.082
478.7276, 3160.661
480.6560, 3168.476
482.5845, 3174.557
484.5130, 3180.130
486.4414, 3186.338
488.3699, 3194.220
490.2984, 3202.622
492.2268, 3211.094
494.1553, 3219.057
496.0838, 3227.978
498.0122, 3239.282
499.9407, 3249.860
501.8692, 3258.373
503.7976, 3264.397
505.7261, 3268.772
507.6546, 3269.927
509.5830, 3270.862
511.5115, 3273.682
513.4399, 3279.585
515.3684, 3285.647
517.2969, 3290.914
519.2253, 3296.895
521.1538, 3300.908
523.0823, 3308.019
525.0107, 3314.523
526.9392, 3319.425
528.8677, 3323.704
530.7961, 3327.894
532.7246, 3331.844
534.6531, 3336.854
536.5815, 3344.217
538.5100, 3352.434
540.4385, 3359.511
542.3669, 3364.522
544.2954, 3369.500
546.2239, 3375.205
548.1523, 3381.398
550.0808, 3387.509
552.0093, 3393.223
553.9377, 3399.625
555.8662, 3407.664
557.7947, 3417.574
559.7231, 3426.593
561.6516, 3433.587
563.5801, 3439.759
565.5085, 3446.733
567.4370, 3453.820
569.3655, 3461.258
571.2939, 3469.033
573.2224, 3477.569
575.1509, 3486.760
577.0793, 3498.251
579.0078, 3507.973
580.9363, 3513.138
582.8647, 3514.695
584.7932, 3517.402
586.7217, 3521.725
588.6501, 3526.426
590.5786, 3531.913
592.5071, 3539.552
594.4355, 3546.224
596.3640, 3551.531
598.2925, 3555.757
600.2209, 3559.227
602.1494, 3561.537
604.0779, 3564.479
606.0063, 3568.859
607.9348, 3574.065
609.8633, 3578.749
611.7917, 3582.754
613.7202, 3586.520
615.6487, 3590.309
617.5771, 3593.726
619.5056, 3596.757
621.4341, 3599.733
623.3625, 3602.891
625.2910, 3605.946
627.2195, 3608.338
629.1479, 3612.848
631.0764, 3620.283
633.0049, 3629.376
634.9333, 3639.520
636.8618, 3650.168
638.7903, 3659.122
640.7188, 3665.264
642.6472, 3670.104
644.5757, 3673.597
646.5042, 3674.919
648.4326, 3677.396
650.3611, 3683.069
652.2896, 3689.687
654.2180, 3694.930
656.1465, 3697.872
658.0750, 3701.839
660.0034, 3707.551
661.9319, 3714.056
663.8604, 3720.182
665.7888, 3725.244
667.7173, 3730.419
669.6458, 3736.400
671.5742, 3743.069
673.5027, 3748.874
675.4312, 3753.973
677.3596, 3758.748
679.2881, 3763.188
681.2166, 3767.706
683.1450, 3773.216
685.0735, 3778.954
687.0020, 3787.132
688.9304, 3799.250
690.8589, 3814.895
692.7874, 3828.187
694.7158, 3838.078
696.6443, 3846.107
698.5728, 3851.343
700.5012, 3854.166
702.4297, 3858.771
704.3582, 3867.642
706.2866, 3876.761
708.2151, 3884.278
710.1436, 3889.695
712.0720, 3895.664
714.0005, 3904.665
715.9290, 3912.804
717.8574, 3916.543
719.7859, 3916.080
721.7144, 3915.440
723.6428, 3914.026
725.5713, 3913.171
727.4998, 3913.933
729.4282, 3916.465
731.3567, 3919.947
733.2852, 3925.342
735.2136, 3931.122
737.1421, 3935.833
739.0706, 3939.439
740.9990, 3943.005
742.9275, 3946.668
744.8560, 3950.546
746.7844, 3955.254
748.7129, 3962.546
750.6414, 3970.605
752.5698, 3979.044
754.4983, 3987.218
756.4268, 3996.702
758.3552, 4007.909
760.2837, 4018.956
762.2122, 4028.835
764.1406, 4037.531
766.0691, 4045.263
767.9976, 4051.065
769.9260, 4056.272
771.8545, 4061.812
773.7830, 4066.731
775.7114, 4069.286
777.6399, 4069.170
779.5684, 4069.272
781.4968, 4070.933
783.4253, 4073.114
785.3538, 4076.499
787.2822, 4082.022
789.2107, 4087.937
791.1392, 4092.958
793.0676, 4099.450
794.9961, 4106.810
796.9246, 4112.800
798.8530, 4119.703
800.7815, 4130.438
802.7100, 4144.317
804.6384, 4153.803
806.5669, 4156.177
808.4954, 4158.561
810.4238, 4164.637
812.3523, 4172.562
814.2808, 4178.487
816.2092, 4182.154
818.1377, 4185.265
820.0662, 4188.048
821.9946, 4191.413
823.9231, 4196.760
825.8516, 4205.459
827.7800, 4215.486
829.7085, 4226.378
831.6370, 4234.952
833.5654, 4241.035
835.4939, 4242.992
837.4224, 4244.704
839.3508, 4247.976
841.2793, 4253.185
843.2078, 4256.909
845.1362, 4257.978
847.0647, 4259.823
848.9932, 4264.549
850.9216, 4271.261
852.8501, 4277.297
854.7786, 4282.150
856.7070, 4287.797
858.6355, 4293.868
860.5640, 4301.315
862.4924, 4310.603
864.4209, 4319.123
866.3494, 4324.112
868.2778, 4325.444
870.2063, 4327.194
872.1348, 4330.000
874.0632, 4334.156
875.9917, 4337.628
877.9202, 4338.228
879.8486, 4340.602
881.7771, 4347.602
883.7056, 4357.888
885.6340, 4368.537
887.5625, 4379.279
889.4910, 4390.138
891.4194, 4399.786
893.3479, 4407.003
895.2764, 4412.445
897.2048, 4415.128
899.1333, 4419.680
901.0618, 4428.582
902.9902, 4439.307
904.9187, 4448.292
906.8472, 4455.190
908.7756, 4461.907
910.7041, 4468.618
912.6326, 4474.514
914.5610, 4480.708
916.4895, 4487.165
918.4180, 4495.128
920.3464, 4505.500
922.2749, 4518.914
924.2034, 4535.229
926.1318, 4556.126
928.0603, 4575.950
929.9888, 4589.209
931.9172, 4591.351
933.8457, 4589.999
935.7742, 4588.542
937.7026, 4588.105
939.6311, 4587.122
941.5596, 4583.747
943.4880, 4579.133
945.4165, 4576.199
947.3450, 4578.177
949.2734, 4585.325
951.2019, 4592.575
953.1304, 4600.646
955.0588, 4611.929
956.9873, 4621.859
958.9158, 4626.801
960.8442, 4628.459
962.7727, 4633.792
964.7012, 4641.182
966.6296, 4649.570
968.5581, 4659.104
970.4866, 4667.154
972.4150, 4669.624
974.3435, 4669.173
976.2720, 4671.995
978.2004, 4679.796
980.1289, 4690.606
982.0574, 4700.106
983.9858, 4705.406
985.9143, 4713.962
987.8428, 4728.534
989.7712, 4745.728
991.6997, 4757.721
993.6282, 4765.601
995.5566, 4772.474
997.4851, 4775.989
999.4136, 4775.703
1001.342, 4773.178
1003.271, 4770.701
1005.199, 4770.162
1007.127, 4772.343
1009.056, 4776.766
1010.984, 4782.296
1012.913, 4786.333
1014.841, 4787.602
1016.770, 4790.242
1018.698, 4794.655
1020.627, 4799.856
1022.555, 4805.146
1024.484, 4811.097
1026.412, 4815.682
1028.341, 4816.712
1030.269, 4816.777
1032.198, 4817.732
1034.126, 4819.753
1036.054, 4824.753
1037.983, 4829.726
1039.911, 4839.029
1041.840, 4849.621
1043.768, 4861.126
1045.697, 4873.140
1047.625, 4880.501
1049.554, 4883.648
1051.482, 4888.261
1053.411, 4896.408
1055.339, 4906.455
1057.268, 4914.422
1059.196, 4921.569
1061.125, 4929.020
1063.053, 4936.661
1064.981, 4944.046
1066.910, 4951.414
1068.838, 4958.588
1070.767, 4967.217
1072.695, 4978.010
1074.624, 4988.620
1076.552, 4995.197
1078.481, 4996.943
1080.409, 4998.591
1082.338, 5001.708
1084.266, 5006.111
1086.195, 5011.228
1088.123, 5017.385
1090.052, 5022.914
1091.980, 5028.294
1093.908, 5034.703
1095.837, 5041.698
1097.765, 5048.978
1099.694, 5056.229
1101.622, 5063.159
1103.551, 5067.617
1105.479, 5070.853
1107.408, 5074.411
1109.336, 5079.884
1111.265, 5087.924
1113.193, 5097.337
1115.122, 5101.430
1117.050, 5100.038
1118.979, 5101.389
1120.907, 5111.399
1122.835, 5121.677
1124.764, 5126.242
1126.692, 5130.300
1128.621, 5136.669
1130.549, 5144.114
1132.478, 5151.177
1134.406, 5159.272
1136.335, 5168.896
1138.263, 5179.055
1140.192, 5189.625
1142.120, 5198.547
1144.049, 5203.986
1145.977, 5209.366
1147.906, 5218.782
1149.834, 5232.178
1151.762, 5244.956
1153.691, 5255.389
1155.619, 5262.875
1157.548, 5267.282
1159.476, 5272.761
1161.405, 5279.040
1163.333, 5284.880
1165.262, 5290.250
1167.190, 5296.135
1169.119, 5299.214
1171.047, 5297.126
1172.976, 5295.378
1174.904, 5296.578
1176.833, 5301.123
1178.761, 5303.845
1180.689, 5302.831
1182.618, 5303.709
1184.546, 5309.231
1186.475, 5319.081
1188.403, 5328.326
1190.332, 5333.407
1192.260, 5339.685
1194.189, 5350.282
1196.117, 5359.411
1198.046, 5362.803
1199.974, 5361.456
1201.903, 5363.143
1203.831, 5372.134
1205.760, 5382.038
1207.688, 5387.564
1209.616, 5390.172
1211.545, 5397.423
1213.473, 5411.292
1215.402, 5425.404
1217.330, 5436.558
1219.259, 5445.617
1221.187, 5455.196
1223.116, 5466.733
1225.044, 5475.489
1226.973, 5480.796
1228.901, 5482.724
1230.830, 5482.518
1232.758, 5481.429
1234.687, 5484.545
1236.615, 5493.539
1238.543, 5505.304
1240.472, 5519.009
1242.400, 5532.567
1244.329, 5544.515
1246.257, 5554.086
1248.186, 5561.527
1250.114, 5563.909
1252.043, 5567.498
1253.971, 5576.688
1255.900, 5590.234
1257.828, 5601.812
1259.757, 5611.705
1261.685, 5618.931
1263.614, 5620.020
1265.542, 5622.419
1267.470, 5632.302
1269.399, 5649.160
1271.327, 5662.323
1273.256, 5669.603
1275.184, 5675.374
1277.113, 5679.982
1279.041, 5685.154
1280.970, 5692.750
1282.898, 5703.081
1284.827, 5710.396
1286.755, 5713.044
1288.684, 5715.912
1290.612, 5721.177
1292.541, 5728.562
1294.469, 5736.758
1296.397, 5745.087
1298.326, 5754.025
1300.254, 5761.086
1302.183, 5769.563
1304.111, 5782.514
1306.040, 5797.772
1307.968, 5807.010
1309.897, 5807.689
1311.825, 5809.369
1313.754, 5816.555
1315.682, 5824.644
1317.611, 5829.792
1319.539, 5832.533
1321.468, 5834.939
1323.396, 5835.169
1325.324, 5840.076
1327.253, 5855.319
1329.181, 5874.732
1331.110, 5891.797
1333.038, 5905.916
1334.967, 5919.042
1336.895, 5929.150
1338.824, 5939.597
1340.752, 5952.613
1342.681, 5965.787
1344.609, 5974.204
1346.538, 5974.896
1348.466, 5976.778
1350.395, 5980.833
1352.323, 5985.693
1354.251, 5991.327
1356.180, 5998.302
1358.108, 6007.428
1360.037, 6020.771
1361.965, 6030.860
1363.894, 6033.278
1365.822, 6033.945
1367.751, 6036.429
1369.679, 6040.063
1371.608, 6043.411
1373.536, 6046.048
1375.465, 6049.708
1377.393, 6057.175
1379.322, 6063.900
1381.250, 6065.407
1383.178, 6062.787
1385.107, 6067.068
1387.035, 6084.257
1388.964, 6099.133
1390.892, 6107.857
1392.821, 6113.072
1394.749, 6116.292
1396.678, 6117.046
1398.606, 6120.813
1400.535, 6129.931
1402.463, 6138.494
1404.392, 6145.695
1406.320, 6151.980
1408.249, 6157.820
1410.177, 6163.341
1412.105, 6169.860
1414.034, 6177.203
1415.962, 6186.828
1417.891, 6200.399
1419.819, 6214.959
1421.748, 6226.194
1423.676, 6234.179
1425.605, 6244.586
1427.533, 6258.850
1429.462, 6271.619
1431.390, 6282.163
1433.319, 6290.096
1435.247, 6292.727
1437.176, 6290.047
1439.104, 6290.345
1441.032, 6298.011
1442.961, 6304.183
1444.889, 6304.232
1446.818, 6302.841
1448.746, 6306.711
1450.675, 6317.748
1452.603, 6327.031
1454.532, 6331.841
1456.460, 6338.679
1458.389, 6350.330
1460.317, 6363.056
1462.246, 6373.041
1464.174, 6381.063
1466.103, 6388.413
1468.031, 6392.058
1469.959, 6398.091
1471.888, 6409.120
1473.816, 6422.720
1475.745, 6436.925
1477.673, 6453.236
1479.602, 6468.346
1481.530, 6479.585
1483.459, 6492.425
1485.387, 6510.466
1487.316, 6526.830
1489.244, 6535.593
1491.173, 6538.917
1493.101, 6539.990
1495.030, 6537.289
1496.958, 6536.112
1498.886, 6540.823
1500.815, 6547.656
1502.743, 6554.555
1504.672, 6561.104
1506.600, 6566.372
1508.529, 6570.115
1510.457, 6575.654
1512.386, 6582.292
1514.314, 6592.570
1516.243, 6608.806
1518.171, 6629.652
1520.100, 6650.354
1522.028, 6669.222
1523.957, 6685.354
1525.885, 6697.113
1527.813, 6707.539
1529.742, 6717.597
1531.670, 6725.966
1533.599, 6731.045
1535.527, 6731.944
1537.456, 6734.380
1539.384, 6741.885
1541.313, 6747.916
1543.241, 6751.048
1545.170, 6752.866
1547.098, 6754.180
1549.027, 6754.741
1550.955, 6757.399
1552.884, 6762.846
1554.812, 6768.094
1556.740, 6772.075
1558.669, 6777.286
1560.597, 6786.743
1562.526, 6799.381
1564.454, 6808.264
1566.383, 6810.109
1568.311, 6817.463
1570.240, 6835.323
1572.168, 6853.661
1574.097, 6867.249
1576.025, 6877.586
1577.954, 6886.875
1579.882, 6895.310
1581.811, 6905.855
1583.739, 6920.200
1585.667, 6932.059
1587.596, 6939.661
1589.524, 6944.314
1591.453, 6945.016
1593.381, 6942.923
1595.310, 6946.517
1597.238, 6959.517
1599.167, 6967.501
1601.095, 6964.391
1603.024, 6958.770
1604.952, 6955.574
1606.881, 6954.646
1608.809, 6955.243
1610.738, 6957.548
1612.666, 6962.325
1614.594, 6970.829
1616.523, 6980.645
1618.451, 6990.578
1620.380, 6999.978
1622.308, 7007.544
1624.237, 7013.290
1626.165, 7019.800
1628.094, 7026.557
1630.022, 7033.802
1631.951, 7042.716
1633.879, 7050.905
1635.808, 7058.134
1637.736, 7064.072
1639.665, 7067.648
1641.593, 7069.124
1643.521, 7069.327
1645.450, 7066.028
1647.378, 7065.971
1649.307, 7072.151
1651.235, 7082.415
1653.164, 7097.219
1655.092, 7115.087
1657.021, 7128.478
1658.949, 7135.890
1660.878, 7143.688
1662.806, 7153.436
1664.735, 7161.938
1666.663, 7165.559
1668.592, 7167.688
1670.520, 7173.180
1672.448, 7181.865
1674.377, 7190.570
1676.305, 7201.513
1678.234, 7207.386
1680.162, 7202.693
1682.091, 7197.900
1684.019, 7198.567
1685.948, 7203.476
1687.876, 7210.290
1689.805, 7219.438
1691.733, 7227.741
1693.662, 7233.978
1695.590, 7241.383
1697.519, 7251.613
1699.447, 7261.995
1701.375, 7268.305
1703.304, 7273.054
1705.232, 7286.721
1707.161, 7311.810
1709.089, 7327.513
1711.018, 7324.702
1712.946, 7323.698
1714.875, 7333.864
1716.803, 7345.822
1718.732, 7351.910
1720.660, 7353.717
1722.589, 7357.305
1724.517, 7362.726
1726.446, 7370.373
1728.374, 7382.658
1730.302, 7392.892
1732.231, 7397.430
1734.159, 7400.093
1736.088, 7403.812
1738.016, 7408.942
1739.945, 7416.497
1741.873, 7427.534
1743.802, 7437.470
1745.730, 7443.062
1747.659, 7451.422
1749.587, 7466.698
1751.516, 7482.715
1753.444, 7493.657
1755.373, 7499.798
1757.301, 7505.191
1759.229, 7510.219
1761.158, 7511.932
1763.086, 7510.758
1765.015, 7507.739
1766.943, 7503.094
1768.872, 7499.997
1770.800, 7500.472
1772.729, 7505.116
1774.657, 7515.256
1776.586, 7530.906
1778.514, 7544.681
1780.443, 7553.474
1782.371, 7560.687
1784.300, 7563.571
1786.228, 7567.924
1788.156, 7581.107
1790.085, 7598.640
1792.013, 7611.711
1793.942, 7620.913
1795.870, 7626.240
1797.799, 7625.874
1799.727, 7627.103
1801.656, 7629.342
1803.584, 7635.278
1805.513, 7649.694
1807.441, 7666.194
1809.370, 7675.463
1811.298, 7678.255
1813.227, 7680.927
1815.155, 7685.232
1817.083, 7688.454
1819.012, 7689.735
1820.940, 7691.650
1822.869, 7693.301
1824.797, 7697.433
1826.726, 7706.913
1828.654, 7721.273
1830.583, 7740.941
1832.511, 7769.794
1834.440, 7786.099
1836.368, 7775.287
1838.297, 7768.217
1840.225, 7775.565
1842.154, 7786.951
1844.082, 7795.579
1846.010, 7801.636
1847.939, 7805.205
1849.867, 7805.641
1851.796, 7808.829
1853.724, 7819.198
1855.653, 7826.902
1857.581, 7830.151
1859.510, 7833.021
1861.438, 7835.948
1863.367, 7841.013
1865.295, 7851.843
1867.224, 7867.328
1869.152, 7879.745
1871.081, 7886.850
1873.009, 7895.018
1874.938, 7905.155
1876.866, 7913.718
1878.794, 7920.609
1880.723, 7924.378
1882.651, 7922.040
1884.580, 7917.380
1886.508, 7917.820
1888.437, 7923.406
1890.365, 7926.897
1892.294, 7927.305
1894.222, 7930.632
1896.151, 7941.044
1898.079, 7949.808
1900.008, 7952.464
1901.936, 7953.952
1903.865, 7956.245
1905.793, 7961.263
1907.721, 7973.925
1909.650, 7993.376
1911.578, 8008.749
1913.507, 8016.167
1915.435, 8025.093
1917.364, 8038.486
1919.292, 8049.491
1921.221, 8053.860
1923.149, 8055.421
1925.078, 8059.814
1927.006, 8059.427
1928.935, 8063.915
1930.863, 8056.741
1932.792, 8050.835
1934.720, 8045.510
1936.648, 8044.323
1938.577, 8049.833
1940.505, 8056.916
1942.434, 8065.776
1944.362, 8073.509
1946.291, 8074.513
1948.219, 8084.427
1950.148, 8079.994
1952.076, 8097.643
1954.005, 8109.549
1955.933, 8113.464
1957.862, 8115.833
1959.790, 8114.646
1961.719, 8116.428
1963.647, 8126.188
1965.575, 8137.794
1967.504, 8147.586
1969.432, 8156.125
1971.361, 8164.756
1973.289, 8172.972
1975.218, 8176.856
1977.146, 8174.920
1979.075, 8176.083
1981.003, 8184.378
1982.932, 8190.925
1984.860, 8188.495
1986.789, 8188.429
1988.717, 8202.411
1990.646, 8220.026
1992.574, 8225.407
1994.502, 8220.723
1996.431, 8219.128
1998.359, 8220.326
2000.288, 8224.309
2002.216, 8233.951
2004.145, 8242.345
2006.073, 8251.468
2008.002, 8257.419
2009.930, 8254.910
2011.859, 8253.168
2013.787, 8261.145
2015.716, 8275.538
2017.644, 8288.921
2019.573, 8300.690
2021.501, 8311.161
2023.429, 8319.681
2025.358, 8325.545
2027.286, 8327.126
2029.215, 8329.288
2031.143, 8336.517
2033.072, 8342.533
2035.000, 8342.245
2036.929, 8341.663
2038.857, 8347.959
2040.786, 8359.439
2042.714, 8370.030
2044.643, 8379.111
2046.571, 8389.780
2048.500, 8401.062
2050.428, 8412.146
2052.356, 8423.553
2054.285, 8431.229
2056.213, 8432.647
2058.142, 8431.927
2060.070, 8432.217
2061.999, 8432.742
2063.927, 8433.025
2065.856, 8433.838
2067.784, 8435.699
2069.713, 8439.053
2071.641, 8441.045
2073.570, 8440.298
2075.498, 8443.627
2077.427, 8451.326
2079.355, 8463.388
2081.283, 8484.367
2083.212, 8502.525
2085.140, 8508.232
2087.069, 8509.599
2088.997, 8516.152
2090.926, 8524.758
2092.854, 8528.159
2094.783, 8526.491
2096.711, 8521.724
2098.640, 8509.778
2100.568, 8508.270
2102.497, 8527.420
2104.425, 8540.679
2106.354, 8538.933
2108.282, 8537.474
2110.210, 8541.818
2112.139, 8548.657
2114.067, 8555.936
2115.996, 8562.981
2117.924, 8568.893
2119.853, 8573.699
2121.781, 8577.771
2123.710, 8581.049
2125.638, 8587.621
2127.567, 8600.477
2129.495, 8609.113
2131.424, 8612.139
2133.352, 8612.019
2135.281, 8604.096
2137.209, 8600.423
2139.137, 8610.030
2141.066, 8624.182
2142.994, 8635.037
2144.923, 8644.513
2146.851, 8657.771
2148.780, 8672.844
2150.708, 8678.101
2152.637, 8672.885
2154.565, 8674.646
2156.494, 8685.840
2158.422, 8697.980
2160.351, 8710.933
2162.279, 8720.548
2164.208, 8725.261
2166.136, 8726.754
2168.064, 8724.421
2169.993, 8721.188
2171.921, 8720.057
2173.850, 8720.410
2175.778, 8720.775
2177.707, 8721.823
2179.635, 8725.430
2181.564, 8731.597
2183.492, 8737.317
2185.421, 8741.438
2187.349, 8749.902
2189.278, 8766.942
2191.206, 8776.155
2193.135, 8767.506
2195.063, 8759.052
2196.991, 8760.056
2198.920, 8763.645
2200.848, 8764.183
2202.777, 8766.451
2204.705, 8777.650
2206.634, 8793.604
2208.562, 8804.146
2210.491, 8808.958
2212.419, 8812.259
2214.348, 8812.971
2216.276, 8821.313
2218.205, 8841.043
2220.133, 8851.601
2222.062, 8846.505
2223.990, 8842.132
2225.918, 8845.027
2227.847, 8848.520
2229.775, 8847.785
2231.704, 8849.272
2233.632, 8861.811
2235.561, 8874.744
2237.489, 8872.661
2239.418, 8878.971
2241.346, 8865.428
2243.275, 8876.322
2245.203, 8878.140
2247.132, 8871.087
2249.060, 8873.146
2250.989, 8886.862
2252.917, 8897.542
2254.845, 8903.297
2256.774, 8906.241
2258.702, 8904.201
2260.631, 8904.474
2262.559, 8910.154
2264.488, 8917.967
2266.416, 8926.853
2268.345, 8935.766
2270.273, 8945.010
2272.202, 8952.496
2274.130, 8952.886
2276.059, 8962.512
2277.987, 8958.554
2279.916, 8973.713
2281.844, 8982.036
2283.772, 8983.104
2285.701, 8985.271
2287.629, 8988.063
2289.558, 8992.611
2291.486, 8998.746
2293.415, 9005.954
2295.343, 9017.771
2297.272, 9025.771
2299.200, 9026.831
2301.129, 9026.942
2303.057, 9028.497
2304.986, 9030.944
2306.914, 9034.246
2308.843, 9037.471
2310.771, 9037.294
2312.699, 9037.534
2314.628, 9048.002
2316.556, 9064.020
2318.485, 9068.683
2320.413, 9062.706
2322.342, 9060.438
2324.270, 9062.220
2326.199, 9063.584
2328.127, 9063.791
2330.056, 9065.558
2331.984, 9069.493
2333.913, 9073.375
2335.841, 9076.658
2337.770, 9080.714
2339.698, 9087.906
2341.626, 9094.049
2343.555, 9097.999
2345.483, 9100.120
2347.412, 9096.864
2349.340, 9095.687
2351.269, 9105.503
2353.197, 9119.138
2355.126, 9126.649
2357.054, 9131.825
2358.983, 9143.385
2360.911, 9148.355
2362.840, 9154.013
2364.768, 9161.677
2366.697, 9163.417
2368.625, 9170.236
2370.553, 9175.543
2372.482, 9180.652
2374.410, 9180.543
2376.339, 9173.764
2378.267, 9169.575
2380.196, 9169.900
2382.124, 9172.660
2384.053, 9176.936
2385.981, 9182.900
2387.910, 9191.158
2389.838, 9199.267
2391.767, 9208.855
2393.695, 9215.015
2395.624, 9214.825
2397.552, 9210.855
2399.480, 9200.378
2401.409, 9192.326
2403.337, 9199.363
2405.266, 9214.759
2407.194, 9227.785
2409.123, 9238.813
2411.051, 9251.021
2412.980, 9258.115
2414.908, 9269.933
2416.837, 9270.405
2418.765, 9272.854
2420.694, 9277.710
2422.622, 9282.058
2424.551, 9285.232
2426.479, 9293.895
2428.407, 9311.135
2430.336, 9324.295
2432.264, 9330.918
2434.193, 9333.353
2436.121, 9325.786
2438.050, 9324.356
2439.978, 9342.498
2441.907, 9353.621
2443.835, 9340.971
2445.764, 9332.540
2447.692, 9348.161
2449.621, 9365.983
2451.549, 9367.715
2453.478, 9367.911
2455.406, 9381.159
2457.334, 9397.043
2459.263, 9405.448
2461.191, 9407.614
2463.120, 9406.092
2465.048, 9401.504
2466.977, 9391.026
2468.905, 9380.290
2470.834, 9384.710
2472.762, 9387.038
2474.691, 9411.032
2476.619, 9412.297
2478.548, 9426.136
2480.476, 9452.511
2482.405, 9466.666
2484.333, 9466.253
2486.261, 9468.110
2488.190, 9475.202
2490.118, 9473.068
2492.047, 9457.964
2493.975, 9447.012
2495.904, 9448.604
2497.832, 9446.860
2499.761, 9436.691
2501.689, 9432.029
2503.618, 9436.239
2505.546, 9443.604
2507.475, 9453.375
2509.403, 9463.050
2511.332, 9471.738
2513.260, 9478.572
2515.188, 9481.149
2517.117, 9482.853
2519.045, 9483.131
2520.974, 9485.693
2522.902, 9497.149
2524.831, 9507.854
2526.759, 9510.962
2528.688, 9510.913
2530.616, 9510.548
2532.545, 9510.994
2534.473, 9512.941
2536.402, 9516.607
2538.330, 9520.956
2540.259, 9527.702
2542.187, 9544.499
2544.115, 9563.504
2546.044, 9566.078
2547.972, 9558.409
2549.901, 9556.518
2551.829, 9559.267
2553.758, 9561.974
2555.686, 9565.216
2557.615, 9570.710
2559.543, 9578.652
2561.472, 9588.969
2563.400, 9593.516
2565.329, 9606.831
2567.257, 9605.642
2569.186, 9608.413
2571.114, 9615.280
2573.042, 9624.799
2574.971, 9638.053
2576.899, 9647.936
2578.828, 9654.278
2580.756, 9658.447
2582.685, 9660.642
2584.613, 9660.725
2586.542, 9664.916
2588.470, 9667.982
2590.399, 9669.276
2592.327, 9676.584
2594.256, 9675.563
2596.184, 9679.566
2598.113, 9692.976
2600.041, 9702.847
2601.969, 9704.712
2603.898, 9705.696
2605.826, 9701.564
2607.755, 9706.818
2609.683, 9731.265
2611.612, 9751.676
2613.540, 9762.002
2615.469, 9769.604
2617.397, 9777.929
2619.326, 9780.478
2621.254, 9770.228
2623.183, 9761.221
2625.111, 9760.103
2627.040, 9760.835
2628.968, 9763.678
2630.896, 9766.444
2632.825, 9767.011
2634.753, 9769.200
2636.682, 9771.171
2638.610, 9778.550
2640.539, 9800.056
2642.467, 9817.677
2644.396, 9818.999
2646.324, 9817.200
2648.253, 9817.808
2650.181, 9820.696
2652.110, 9829.158
2654.038, 9836.472
2655.967, 9837.099
2657.895, 9836.801
2659.823, 9839.369
2661.752, 9842.265
2663.680, 9842.110
2665.609, 9843.441
2667.537, 9851.663
2669.466, 9859.433
2671.394, 9859.769
2673.323, 9858.250
2675.251, 9860.890
2677.180, 9861.708
2679.108, 9852.910
2681.037, 9845.605
2682.965, 9849.140
2684.894, 9858.712
2686.822, 9874.786
2688.750, 9890.171
2690.679, 9894.849
2692.607, 9898.520
2694.536, 9907.088
2696.464, 9918.859
2698.393, 9938.881
2700.321, 9952.849
2702.250, 9942.638
2704.178, 9927.800
2706.107, 9928.128
2708.035, 9931.562
2709.964, 9929.028
2711.892, 9925.235
2713.821, 9920.755
2715.749, 9920.413
2717.677, 9929.572
2719.606, 9941.393
2721.534, 9951.456
2723.463, 9957.782
2725.391, 9956.246
2727.320, 9954.021
2729.248, 9957.384
2731.177, 9963.736
2733.105, 9973.713
2735.034, 9984.473
2736.962, 9993.926
2738.891, 10002.57
2740.819, 10007.88
2742.748, 10013.36
2744.676, 10021.69
2746.604, 10028.25
2748.533, 10028.94
2750.461, 10028.16
2752.390, 10030.03
2754.318, 10031.69
2756.247, 10031.76
2758.175, 10033.49
2760.104, 10041.14
2762.032, 10048.15
2763.961, 10047.93
2765.889, 10048.79
2767.818, 10052.94
2769.746, 10059.07
2771.675, 10070.13
2773.603, 10075.26
2775.531, 10065.61
2777.460, 10056.00
2779.388, 10056.65
2781.317, 10054.87
2783.245, 10046.10
2785.174, 10041.49
2787.102, 10046.49
2789.031, 10055.22
2790.959, 10063.67
2792.888, 10076.10
2794.816, 10091.23
2796.745, 10106.90
2798.673, 10124.62
2800.602, 10130.08
2802.530, 10113.45
2804.458, 10098.56
2806.387, 10091.44
2808.315, 10088.48
2810.244, 10092.62
2812.172, 10097.39
2814.101, 10102.14
2816.029, 10105.83
2817.958, 10104.55
2819.886, 10106.36
2821.815, 10111.26
2823.743, 10109.33
2825.672, 10099.23
2827.600, 10098.26
2829.529, 10110.22
2831.457, 10121.65
2833.385, 10133.74
2835.314, 10135.04
2837.242, 10140.23
2839.171, 10142.08
2841.099, 10139.25
2843.028, 10141.71
2844.956, 10136.95
2846.885, 10136.54
2848.813, 10139.58
2850.742, 10142.17
2852.670, 10143.04
2854.599, 10137.07
2856.527, 10126.92
2858.456, 10113.95
2860.384, 10104.83
2862.313, 10118.08
2864.241, 10140.00
2866.169, 10148.66
2868.098, 10153.56
2870.026, 10167.40
2871.955, 10180.99
2873.883, 10179.79
2875.812, 10177.60
2877.740, 10185.99
2879.669, 10197.63
2881.597, 10211.90
2883.526, 10221.91
2885.454, 10219.36
2887.383, 10219.03
2889.311, 10231.96
2891.240, 10240.13
2893.168, 10232.10
2895.096, 10226.10
2897.025, 10226.61
2898.953, 10233.03
2900.882, 10249.43
2902.810, 10256.90
2904.739, 10249.70
2906.667, 10242.58
2908.596, 10235.00
2910.524, 10239.76
2912.453, 10240.69
2914.381, 10242.32
2916.310, 10254.72
2918.238, 10251.48
2920.167, 10260.21
2922.095, 10267.93
2924.023, 10273.84
2925.952, 10283.80
2927.880, 10294.98
2929.809, 10300.09
2931.737, 10299.53
2933.666, 10296.19
2935.594, 10289.76
2937.523, 10274.02
2939.451, 10259.64
2941.380, 10263.28
2943.308, 10274.00
2945.237, 10275.36
2947.165, 10279.93
2949.094, 10304.95
2951.022, 10325.53
2952.950, 10324.01
2954.879, 10316.89
2956.807, 10313.05
2958.736, 10308.09
2960.664, 10301.14
2962.593, 10296.12
2964.521, 10294.29
2966.450, 10296.90
2968.378, 10306.73
2970.307, 10314.31
2972.235, 10317.81
2974.164, 10319.70
2976.092, 10319.39
2978.021, 10319.90
2979.949, 10321.16
2981.877, 10321.76
2983.806, 10321.62
2985.734, 10319.80
2987.663, 10317.65
2989.591, 10323.15
2991.520, 10329.68
2993.448, 10318.80
2995.377, 10303.26
2997.305, 10304.32
2999.234, 10310.79
3001.162, 10311.94
3003.091, 10312.16
3005.019, 10316.49
3006.948, 10317.39
3008.876, 10306.46
3010.804, 10299.73
3012.733, 10305.78
3014.661, 10313.81
3016.590, 10320.15
3018.518, 10331.75
3020.447, 10350.36
3022.375, 10366.29
3024.304, 10377.15
3026.232, 10384.14
3028.161, 10386.30
3030.089, 10385.22
3032.018, 10381.33
3033.946, 10377.71
3035.875, 10374.97
3037.803, 10374.94
3039.731, 10375.04
3041.660, 10368.82
3043.588, 10359.65
3045.517, 10347.54
3047.445, 10339.71
3049.374, 10347.60
3051.302, 10354.71
3053.231, 10347.57
3055.159, 10343.50
3057.088, 10348.09
3059.016, 10357.25
3060.945, 10356.08
3062.873, 10354.97
3064.802, 10361.32
3066.730, 10348.79
3068.658, 10349.84
3070.587, 10354.13
3072.515, 10361.01
3074.444, 10368.25
3076.372, 10373.79
3078.301, 10366.66
3080.229, 10355.37
3082.158, 10358.63
3084.086, 10367.71
3086.015, 10371.29
3087.943, 10374.05
3089.872, 10378.89
3091.800, 10384.21
3093.729, 10391.46
3095.657, 10391.62
3097.585, 10378.97
3099.514, 10368.43
3101.442, 10366.30
3103.371, 10361.14
3105.299, 10351.68
3107.228, 10349.07
3109.156, 10353.67
3111.085, 10360.56
3113.013, 10368.04
3114.942, 10369.14
3116.870, 10371.01
3118.799, 10366.96
3120.727, 10366.97
3122.656, 10359.03
3124.584, 10352.03
3126.512, 10358.91
3128.441, 10362.48
3130.369, 10353.01
3132.298, 10346.51
3134.226, 10351.08
3136.155, 10355.02
3138.083, 10355.79
3140.012, 10362.67
3141.940, 10375.85
3143.869, 10385.03
3145.797, 10389.73
3147.726, 10397.07
3149.654, 10402.00
3151.583, 10385.85
3153.511, 10365.30
3155.439, 10365.77
3157.368, 10372.02
3159.296, 10372.53
3161.225, 10372.51
3163.153, 10376.73
3165.082, 10377.25
3167.010, 10368.98
3168.939, 10362.98
3170.867, 10359.94
3172.796, 10359.92
3174.724, 10363.34
3176.653, 10358.85
3178.581, 10347.80
3180.510, 10331.70
3182.438, 10317.29
3184.366, 10321.93
3186.295, 10330.36
3188.223, 10318.26
3190.152, 10311.07
3192.080, 10330.76
3194.009, 10348.43
3195.937, 10348.99
3197.866, 10352.06
3199.794, 10360.18
3201.723, 10363.94
3203.651, 10360.68
3205.580, 10361.08
3207.508, 10364.16
3209.437, 10363.18
3211.365, 10356.98
3213.293, 10335.71
3215.222, 10316.74
3217.150, 10326.75
3219.079, 10340.10
3221.007, 10340.61
3222.936, 10339.11
3224.864, 10337.61
3226.793, 10337.75
3228.721, 10340.18
3230.650, 10340.80
3232.578, 10339.31
3234.507, 10337.95
3236.435, 10336.48
3238.364, 10329.03
3240.292, 10323.34
3242.220, 10335.98
3244.149, 10352.25
3246.077, 10357.80
3248.006, 10362.49
3249.934, 10370.67
3251.863, 10379.80
3253.791, 10390.78
3255.720, 10397.16
3257.648, 10398.04
3259.577, 10395.23
3261.505, 10388.67
3263.434, 10377.17
3265.362, 10363.99
3267.291, 10357.16
3269.219, 10352.92
3271.147, 10344.98
3273.076, 10342.99
3275.004, 10343.13
3276.933, 10340.51
3278.861, 10342.87
3280.790, 10342.94
3282.718, 10348.84
3284.647, 10355.41
3286.575, 10361.57
3288.504, 10360.66
3290.432, 10358.41
3292.361, 10371.33
3294.289, 10386.06
3296.218, 10389.34
3298.146, 10388.69
3300.074, 10385.27
3302.003, 10384.62
3303.931, 10389.11
3305.860, 10390.00
3307.788, 10385.98
3309.717, 10378.00
3311.645, 10367.98
3313.574, 10367.53
3315.502, 10369.89
3317.431, 10364.89
3319.359, 10356.84
3321.288, 10343.66
3323.216, 10340.41
3325.145, 10363.41
3327.073, 10373.30
3329.001, 10362.14
3330.930, 10361.34
3332.858, 10371.19
3334.787, 10364.51
3336.715, 10348.42
3338.644, 10341.00
3340.572, 10339.00
3342.501, 10341.89
3344.429, 10344.44
3346.358, 10345.05
3348.286, 10340.79
3350.215, 10328.93
3352.143, 10316.63
3354.072, 10304.21
3356.000, 10295.98
3357.928, 10291.33
3359.857, 10287.64
3361.785, 10285.53
3363.714, 10282.99
3365.642, 10287.42
3367.571, 10309.75
3369.499, 10326.50
3371.428, 10330.42
3373.356, 10328.61
3375.285, 10320.77
3377.213, 10318.99
3379.142, 10322.19
3381.070, 10333.84
3382.999, 10341.28
3384.927, 10324.67
3386.855, 10306.45
3388.784, 10303.73
3390.712, 10297.63
3392.641, 10281.15
3394.569, 10278.22
3396.498, 10276.81
3398.426, 10291.64
3400.355, 10285.80
3402.283, 10296.83
3404.212, 10312.50
3406.140, 10319.79
3408.069, 10321.70
3409.997, 10316.38
3411.926, 10311.51
3413.854, 10308.53
3415.782, 10303.95
3417.711, 10297.90
3419.639, 10291.69
3421.568, 10287.23
3423.496, 10288.84
3425.425, 10294.48
3427.353, 10309.27
3429.282, 10313.78
3431.210, 10295.28
3433.139, 10289.79
3435.067, 10304.25
3436.996, 10309.60
3438.924, 10306.95
3440.853, 10305.92
3442.781, 10304.38
3444.709, 10298.95
3446.638, 10293.91
3448.566, 10292.80
3450.495, 10290.54
3452.423, 10281.82
3454.352, 10287.94
3456.280, 10306.55
3458.209, 10314.17
3460.137, 10313.94
3462.066, 10313.65
3463.994, 10308.28
3465.923, 10290.45
3467.851, 10277.05
3469.780, 10276.93
3471.708, 10275.70
3473.636, 10272.43
3475.565, 10276.53
3477.493, 10272.28
3479.422, 10277.13
3481.350, 10267.97
3483.279, 10264.04
3485.207, 10262.45
3487.136, 10255.92
3489.064, 10251.40
3490.993, 10247.55
3492.921, 10238.60
3494.850, 10234.29
3496.778, 10226.06
3498.707, 10218.05
3500.635, 10210.88
3502.563, 10211.23
3504.492, 10209.64
3506.420, 10208.31
3508.349, 10208.94
3510.277, 10208.04
3512.206, 10209.32
3514.134, 10207.61
3516.063, 10206.90
3517.991, 10211.69
3519.920, 10219.09
3521.848, 10226.42
3523.777, 10239.10
3525.705, 10259.17
3527.634, 10257.54
3529.562, 10245.43
3531.490, 10263.09
3533.419, 10293.29
3535.347, 10321.08
3537.276, 10349.98
3539.204, 10389.84
3541.133, 10413.24
3543.061, 10419.03
3544.990, 10430.75
3546.918, 10470.25
3548.847, 10621.74
3550.775, 10797.60
3552.704, 10973.54
3554.632, 11036.43
3556.561, 10909.21
3558.489, 10756.55
3560.417, 10594.97
3562.346, 10497.25
3564.274, 10445.25
3566.203, 10416.04
3568.131, 10387.49
3570.060, 10338.30
3571.988, 10297.22
3573.917, 10268.77
3575.845, 10257.99
3577.774, 10262.31
3579.702, 10264.03
3581.631, 10263.75
3583.559, 10253.76
3585.488, 10257.07
3587.416, 10288.69
3589.344, 10329.56
3591.273, 10377.56
3593.201, 10388.46
3595.130, 10368.66
3597.058, 10330.29
3598.987, 10290.55
3600.915, 10258.33
3602.844, 10245.82
3604.772, 10260.61
3606.701, 10256.86
3608.629, 10232.75
3610.558, 10212.59
3612.486, 10196.16
3614.415, 10181.46
3616.343, 10174.63
3618.271, 10181.48
3620.200, 10186.89
3622.128, 10188.07
3624.057, 10186.79
3625.985, 10183.66
3627.914, 10180.01
3629.842, 10176.71
3631.771, 10174.08
3633.699, 10174.30
3635.628, 10178.80
3637.556, 10184.99
3639.485, 10191.99
3641.413, 10195.26
3643.342, 10194.00
3645.270, 10182.79
3647.198, 10173.37
3649.127, 10168.00
3651.055, 10174.60
3652.984, 10192.26
3654.912, 10187.41
3656.841, 10171.05
3658.769, 10163.48
3660.698, 10149.74
3662.626, 10142.79
3664.555, 10132.41
3666.483, 10126.31
3668.412, 10119.84
3670.340, 10119.62
3672.269, 10109.80
3674.197, 10120.61
3676.125, 10122.88
3678.054, 10117.76
3679.982, 10101.84
3681.911, 10100.03
3683.839, 10107.32
3685.768, 10109.43
3687.696, 10108.94
3689.625, 10106.97
3691.553, 10104.64
3693.482, 10099.89
3695.410, 10103.76
3697.339, 10111.88
3699.267, 10106.56
3701.196, 10101.64
3703.124, 10115.71
3705.052, 10125.78
3706.981, 10127.44
3708.909, 10114.82
3710.838, 10092.07
3712.766, 10072.83
3714.695, 10059.43
3716.623, 10058.27
3718.552, 10056.57
3720.480, 10050.21
3722.409, 10046.75
3724.337, 10046.13
3726.266, 10048.38
3728.194, 10050.08
3730.123, 10047.95
3732.051, 10042.05
3733.979, 10030.66
3735.908, 10024.46
3737.836, 10023.50
3739.765, 10030.92
3741.693, 10035.35
3743.622, 10017.67
3745.550, 10011.77
3747.479, 10027.94
3749.407, 10036.82
3751.336, 10037.69
3753.264, 10031.89
3755.193, 10024.94
3757.121, 10020.96
3759.050, 10021.17
3760.978, 10012.56
3762.906, 10018.95
3764.835, 10001.81
3766.763, 9995.861
3768.692, 9995.971
3770.620, 10001.36
3772.549, 10004.95
3774.477, 10005.21
3776.406, 10002.66
3778.334, 10000.23
3780.263, 10005.36
3782.191, 10011.51
3784.120, 10015.93
3786.048, 10015.83
3787.977, 10011.29
3789.905, 10016.61
3791.833, 10021.45
3793.762, 10010.32
3795.690, 9993.998
3797.619, 9974.203
3799.547, 9967.409
3801.476, 9972.476
3803.404, 9973.415
3805.333, 9970.561
3807.261, 9974.537
3809.190, 9957.013
3811.118, 9972.723
3813.047, 9971.528
3814.975, 9959.688
3816.904, 9965.059
3818.832, 9970.154
3820.760, 9963.028
3822.689, 9955.439
3824.617, 9950.342
3826.546, 9947.476
3828.474, 9946.081
3830.403, 9942.849
3832.331, 9940.491
3834.260, 9937.451
3836.188, 9938.348
3838.117, 9940.236
3840.045, 9936.129
3841.974, 9923.606
3843.902, 9892.666
3845.831, 9878.222
3847.759, 9896.501
3849.688, 9904.608
3851.616, 9904.173
3853.544, 9891.105
3855.473, 9886.707
3857.401, 9903.885
3859.330, 9918.796
3861.258, 9927.651
3863.187, 9911.868
3865.115, 9890.194
3867.044, 9882.564
3868.972, 9877.245
3870.901, 9869.861
3872.829, 9866.729
3874.758, 9865.606
3876.686, 9874.386
3878.615, 9879.271
3880.543, 9870.482
3882.471, 9862.828
3884.400, 9857.585
3886.328, 9844.604
3888.257, 9833.646
3890.185, 9824.417
3892.114, 9811.800
3894.042, 9806.783
3895.971, 9793.104
3897.899, 9791.580
3899.828, 9792.338
3901.756, 9790.651
3903.685, 9782.696
3905.613, 9778.313
3907.542, 9775.029
3909.470, 9772.542
3911.398, 9769.928
3913.327, 9762.275
3915.255, 9747.082
3917.184, 9726.512
3919.112, 9734.645
3921.041, 9748.434
3922.969, 9735.053
3924.898, 9729.531
3926.826, 9743.915
3928.755, 9740.354
3930.683, 9724.155
3932.612, 9719.482
3934.540, 9716.582
3936.469, 9707.751
3938.397, 9702.979
3940.325, 9702.864
3942.254, 9711.629
3944.182, 9718.643
3946.111, 9717.160
3948.039, 9715.396
3949.968, 9712.614
3951.896, 9700.501
3953.825, 9683.885
3955.753, 9670.649
3957.682, 9659.250
3959.610, 9655.271
3961.539, 9657.549
3963.467, 9657.415
3965.396, 9653.260
3967.324, 9650.284
3969.252, 9640.421
3971.181, 9637.625
3973.109, 9619.947
3975.038, 9609.581
3976.966, 9604.006
3978.895, 9602.194
3980.823, 9599.457
3982.752, 9595.170
3984.680, 9601.790
3986.609, 9605.371
3988.537, 9590.082
3990.466, 9572.482
3992.394, 9556.303
3994.323, 9558.877
3996.251, 9567.219
3998.179, 9561.720
4000.108, 9557.448
4002.036, 9559.012
4003.965, 9554.050
4005.893, 9546.764
4007.822, 9550.679
4009.750, 9551.265
4011.679, 9540.507
4013.607, 9529.452
4015.536, 9519.675
4017.464, 9509.354
4019.393, 9500.879
4021.321, 9495.986
4023.250, 9494.737
4025.178, 9496.917
4027.106, 9511.313
4029.035, 9522.800
4030.963, 9522.591
4032.892, 9517.559
4034.820, 9509.448
4036.749, 9500.369
4038.677, 9489.964
4040.606, 9483.661
4042.534, 9480.071
4044.463, 9476.276
4046.391, 9472.689
4048.320, 9467.188
4050.248, 9457.499
4052.177, 9449.932
4054.105, 9449.971
4056.033, 9437.177
4057.962, 9432.101
4059.890, 9416.813
4061.819, 9415.779
4063.747, 9410.103
4065.676, 9401.170
4067.604, 9392.838
4069.533, 9387.451
4071.461, 9388.184
4073.390, 9390.155
4075.318, 9380.271
4077.247, 9369.698
4079.175, 9357.653
4081.104, 9350.954
4083.032, 9342.646
4084.960, 9335.943
4086.889, 9330.343
4088.817, 9321.849
4090.746, 9316.338
4092.674, 9310.638
4094.603, 9298.563
4096.531, 9300.746
4098.460, 9298.705
4100.388, 9295.135
4102.317, 9285.502
4104.245, 9277.938
4106.174, 9279.154
4108.102, 9283.696
4110.031, 9278.505
4111.959, 9275.137
4113.888, 9272.005
4115.816, 9261.456
4117.745, 9259.856
4119.673, 9253.528
4121.602, 9244.643
4123.530, 9234.542
4125.458, 9218.121
4127.387, 9210.372
4129.315, 9214.115
4131.244, 9222.595
4133.172, 9222.630
4135.101, 9212.761
4137.029, 9200.837
4138.958, 9191.959
4140.886, 9194.768
4142.814, 9198.669
4144.743, 9193.837
4146.671, 9176.438
4148.600, 9163.119
4150.528, 9160.335
4152.457, 9151.215
4154.385, 9146.489
4156.314, 9151.630
4158.242, 9152.001
4160.171, 9139.885
4162.099, 9130.040
4164.028, 9128.323
4165.956, 9120.101
4167.885, 9108.224
4169.813, 9100.339
4171.742, 9092.949
4173.670, 9082.268
4175.599, 9071.872
4177.527, 9065.042
4179.456, 9065.858
4181.384, 9070.237
4183.313, 9072.865
4185.241, 9058.811
4187.169, 9040.863
4189.098, 9031.188
4191.026, 9018.551
4192.955, 8999.708
4194.883, 8999.896
4196.812, 8989.997
4198.740, 8995.366
4200.668, 8984.192
4202.597, 8977.768
4204.525, 8978.451
4206.454, 8978.877
4208.382, 8968.465
4210.311, 8957.234
4212.239, 8949.818
4214.168, 8945.064
4216.096, 8940.376
4218.025, 8934.963
4219.953, 8927.490
4221.882, 8917.062
4223.810, 8915.913
4225.739, 8913.545
4227.667, 8897.894
4229.596, 8890.760
4231.524, 8891.342
4233.453, 8895.012
4235.381, 8893.026
4237.310, 8877.949
4239.238, 8870.370
4241.167, 8866.939
4243.095, 8845.847
4245.023, 8829.045
4246.952, 8828.001
4248.880, 8828.384
4250.809, 8829.631
4252.737, 8824.718
4254.666, 8817.878
4256.594, 8813.286
4258.522, 8797.809
4260.451, 8787.208
4262.379, 8776.313
4264.308, 8774.237
4266.236, 8781.802
4268.165, 8780.466
4270.093, 8777.737
4272.022, 8781.186
4273.950, 8778.998
4275.879, 8772.681
4277.807, 8776.421
4279.736, 8777.198
4281.664, 8766.963
4283.593, 8751.300
4285.521, 8733.424
4287.450, 8717.028
4289.378, 8711.464
4291.307, 8723.318
4293.235, 8726.191
4295.164, 8727.332
4297.092, 8727.395
4299.021, 8720.474
4300.949, 8718.110
4302.877, 8701.915
4304.806, 8693.161
4306.734, 8682.316
4308.663, 8692.246
4310.591, 8674.198
4312.520, 8684.875
4314.448, 8692.184
4316.376, 8682.306
4318.305, 8679.255
4320.233, 8681.223
4322.162, 8675.417
4324.090, 8674.409
4326.019, 8671.300
4327.947, 8667.287
4329.876, 8664.882
4331.804, 8657.141
4333.733, 8657.725
4335.661, 8661.971
4337.590, 8645.665
4339.518, 8634.210
4341.447, 8635.912
4343.375, 8628.104
4345.304, 8658.769
4347.232, 8631.652
4349.161, 8623.746
4351.089, 8636.202
4353.018, 8610.878
4354.946, 8584.478
4356.875, 8580.210
4358.803, 8577.296
4360.731, 8575.635
4362.660, 8579.070
4364.588, 8581.392
4366.517, 8581.260
4368.445, 8597.843
4370.374, 8613.473
4372.302, 8605.986
4374.230, 8606.584
4376.159, 8611.037
4378.087, 8595.072
4380.016, 8575.068
4381.944, 8560.274
4383.873, 8538.634
4385.801, 8520.379
4387.730, 8522.557
4389.658, 8521.664
4391.587, 8516.274
4393.515, 8531.690
4395.444, 8539.220
4397.372, 8517.675
4399.301, 8505.434
4401.229, 8498.986
4403.158, 8490.812
4405.086, 8481.736
4407.015, 8472.070
4408.943, 8459.466
4410.872, 8448.478
4412.800, 8442.666
4414.729, 8440.574
4416.657, 8439.518
4418.585, 8430.946
4420.514, 8428.036
4422.442, 8431.410
4424.371, 8425.330
4426.299, 8419.854
4428.228, 8424.543
4430.156, 8425.031
4432.084, 8420.347
4434.013, 8410.026
4435.941, 8397.546
4437.870, 8384.412
4439.798, 8384.714
4441.727, 8382.393
4443.655, 8357.372
4445.584, 8364.183
4447.512, 8384.165
4449.441, 8371.646
4451.369, 8349.224
4453.298, 8324.373
4455.226, 8336.357
4457.155, 8350.968
4459.083, 8347.101
4461.012, 8339.818
4462.940, 8335.515
4464.869, 8345.730
4466.797, 8352.450
4468.726, 8351.041
4470.654, 8336.705
4472.583, 8320.860
4474.511, 8311.812
4476.439, 8298.077
4478.368, 8283.439
4480.296, 8272.094
4482.225, 8268.651
4484.153, 8271.207
4486.082, 8268.075
4488.010, 8259.467
4489.938, 8245.746
4491.867, 8238.497
4493.795, 8234.353
4495.724, 8230.094
4497.652, 8225.576
4499.581, 8219.465
4501.509, 8216.828
4503.438, 8216.870
4505.366, 8212.960
4507.295, 8220.562
4509.223, 8224.396
4511.152, 8227.571
4513.080, 8217.818
4515.009, 8200.247
4516.937, 8182.668
4518.866, 8168.400
4520.794, 8159.003
4522.723, 8145.592
4524.651, 8137.512
4526.580, 8130.396
4528.508, 8121.176
4530.437, 8125.641
4532.365, 8116.809
4534.293, 8120.490
4536.222, 8120.877
4538.150, 8124.938
4540.079, 8128.841
4542.007, 8126.821
4543.936, 8120.164
4545.864, 8115.874
4547.792, 8116.729
4549.721, 8114.497
4551.649, 8137.229
4553.578, 8115.364
4555.506, 8107.021
4557.435, 8105.435
4559.363, 8077.888
4561.292, 8060.687
4563.220, 8060.737
4565.149, 8044.849
4567.077, 8031.336
4569.006, 8029.210
4570.934, 8037.552
4572.863, 8045.733
4574.791, 8043.180
4576.720, 8034.870
4578.648, 8023.828
4580.577, 8015.572
4582.505, 8005.167
4584.434, 7993.528
4586.362, 7997.817
4588.291, 8000.965
4590.219, 7995.436
4592.147, 8003.875
4594.076, 8012.750
4596.004, 8012.462
4597.933, 7987.848
4599.861, 7959.022
4601.790, 7958.889
4603.718, 7970.366
4605.646, 7982.102
4607.575, 7959.158
4609.503, 7937.272
4611.432, 7928.248
4613.360, 7926.381
4615.289, 7925.075
4617.217, 7920.729
4619.146, 7912.027
4621.074, 7903.343
4623.003, 7899.331
4624.931, 7895.441
4626.860, 7891.850
4628.788, 7889.533
4630.717, 7891.190
4632.645, 7895.008
4634.574, 7892.146
4636.502, 7881.138
4638.431, 7863.213
4640.359, 7845.589
4642.288, 7833.177
4644.216, 7828.405
4646.145, 7833.347
4648.073, 7839.696
4650.001, 7839.305
4651.930, 7836.746
4653.858, 7829.788
4655.787, 7812.833
4657.715, 7796.729
4659.644, 7783.239
4661.572, 7766.043
4663.500, 7759.621
4665.429, 7766.123
4667.357, 7776.990
4669.286, 7783.058
4671.214, 7780.501
4673.143, 7760.982
4675.071, 7742.960
4677.000, 7742.038
4678.928, 7736.784
4680.857, 7729.602
4682.785, 7723.175
4684.714, 7721.515
4686.642, 7721.524
4688.571, 7716.219
4690.499, 7714.995
4692.428, 7713.253
4694.356, 7710.597
4696.285, 7681.219
4698.213, 7702.036
4700.142, 7681.413
4702.070, 7664.332
4703.999, 7664.040
4705.927, 7649.209
4707.855, 7639.617
4709.784, 7650.314
4711.712, 7643.804
4713.641, 7635.372
4715.569, 7637.368
4717.498, 7640.385
4719.426, 7641.952
4721.354, 7642.666
4723.283, 7628.298
4725.211, 7608.382
4727.140, 7604.613
4729.068, 7593.979
4730.997, 7578.984
4732.925, 7574.763
4734.854, 7567.194
4736.782, 7555.354
4738.711, 7547.378
4740.639, 7542.687
4742.568, 7533.406
4744.496, 7529.503
4746.425, 7519.616
4748.353, 7513.944
4750.282, 7507.356
4752.210, 7499.521
4754.139, 7489.055
4756.067, 7492.059
4757.996, 7496.542
4759.924, 7494.482
4761.853, 7482.046
4763.781, 7472.286
4765.709, 7479.483
4767.638, 7478.299
4769.566, 7470.551
4771.495, 7458.212
4773.423, 7445.278
4775.352, 7434.642
4777.280, 7430.767
4779.208, 7432.615
4781.137, 7436.729
4783.065, 7435.223
4784.994, 7437.146
4786.922, 7441.264
4788.851, 7441.593
4790.779, 7443.884
4792.708, 7443.776
4794.636, 7423.646
4796.565, 7401.604
4798.493, 7384.777
4800.422, 7389.022
4802.350, 7384.303
4804.279, 7365.769
4806.207, 7346.480
4808.136, 7337.907
4810.064, 7342.190
4811.993, 7329.221
4813.921, 7325.166
4815.850, 7335.584
4817.778, 7331.686
4819.707, 7323.841
4821.635, 7317.533
4823.563, 7303.545
4825.492, 7292.659
4827.420, 7289.243
4829.349, 7277.841
4831.277, 7271.405
4833.206, 7279.128
4835.134, 7273.338
4837.063, 7262.513
4838.991, 7251.911
4840.919, 7246.519
4842.848, 7245.768
4844.776, 7253.428
4846.705, 7232.457
4848.633, 7216.930
4850.562, 7229.656
4852.490, 7230.239
4854.419, 7225.150
4856.347, 7221.481
4858.276, 7214.859
4860.204, 7203.853
4862.133, 7187.016
4864.061, 7174.978
4865.990, 7168.219
4867.918, 7172.092
4869.847, 7149.234
4871.775, 7127.886
4873.704, 7130.079
4875.632, 7141.756
4877.561, 7148.319
4879.489, 7137.172
4881.417, 7116.608
4883.346, 7098.867
4885.274, 7093.460
4887.203, 7083.035
4889.131, 7075.012
4891.060, 7077.080
4892.988, 7065.934
4894.917, 7076.470
4896.845, 7054.908
4898.773, 7048.018
4900.702, 7048.900
4902.630, 7051.729
4904.559, 7052.882
4906.487, 7048.639
4908.416, 7036.014
4910.344, 7030.789
4912.273, 7025.249
4914.201, 7014.560
4916.130, 7004.839
4918.058, 6994.917
4919.987, 6984.085
4921.915, 6985.345
4923.844, 6988.747
4925.772, 6989.451
4927.701, 6983.774
4929.629, 6976.748
4931.558, 6967.671
4933.486, 6953.550
4935.415, 6940.855
4937.343, 6927.685
4939.271, 6920.680
4941.200, 6915.026
4943.128, 6911.466
4945.057, 6910.044
4946.985, 6911.720
4948.914, 6909.961
4950.842, 6899.962
4952.771, 6877.128
4954.699, 6850.546
4956.627, 6868.307
4958.556, 6866.885
4960.484, 6844.649
4962.413, 6837.251
4964.341, 6838.903
4966.270, 6841.648
4968.198, 6826.453
4970.127, 6824.931
4972.055, 6829.452
4973.984, 6817.896
4975.912, 6813.137
4977.841, 6809.198
4979.769, 6791.623
4981.698, 6781.468
4983.626, 6781.061
4985.555, 6793.810
4987.483, 6788.108
4989.412, 6776.188
4991.340, 6769.881
4993.269, 6754.667
4995.197, 6743.029
4997.125, 6743.568
4999.054, 6747.419
5000.982, 6744.102
5002.911, 6729.110
5004.839, 6706.911
5006.768, 6696.604
5008.696, 6700.097
5010.625, 6668.087
5012.553, 6652.964
5014.481, 6659.915
5016.410, 6657.291
5018.338, 6660.900
5020.267, 6655.783
5022.195, 6654.154
5024.124, 6641.346
5026.052, 6629.616
5027.981, 6618.073
5029.909, 6616.252
5031.838, 6615.600
5033.766, 6605.273
5035.695, 6595.293
5037.623, 6589.157
5039.552, 6588.927
5041.480, 6589.810
5043.409, 6585.759
5045.337, 6574.626
5047.266, 6571.242
5049.194, 6565.653
5051.123, 6556.424
5053.051, 6561.130
5054.979, 6541.831
5056.908, 6505.772
5058.836, 6491.721
5060.765, 6492.514
5062.693, 6497.029
5064.622, 6487.558
5066.550, 6485.543
5068.479, 6483.042
5070.407, 6469.247
5072.335, 6465.689
5074.264, 6466.728
5076.192, 6468.091
5078.121, 6463.647
5080.049, 6455.641
5081.978, 6445.556
5083.906, 6441.765
5085.835, 6434.094
5087.763, 6433.255
5089.692, 6425.259
5091.620, 6424.874
5093.549, 6418.325
5095.477, 6412.763
5097.406, 6405.088
5099.334, 6399.589
5101.263, 6390.067
5103.191, 6390.623
5105.120, 6391.167
5107.048, 6385.225
5108.977, 6369.861
5110.905, 6357.854
5112.833, 6353.318
5114.762, 6359.271
5116.690, 6362.064
5118.619, 6358.682
5120.547, 6348.563
5122.476, 6345.229
5124.404, 6324.347
5126.333, 6326.479
5128.261, 6312.009
5130.189, 6295.651
5132.118, 6288.666
5134.046, 6279.550
5135.975, 6272.629
5137.903, 6268.498
5139.832, 6258.007
5141.760, 6253.271
5143.689, 6254.386
5145.617, 6258.099
5147.546, 6262.708
5149.474, 6263.195
5151.403, 6252.773
5153.331, 6243.359
5155.260, 6231.587
5157.188, 6216.809
5159.117, 6220.274
5161.045, 6215.855
5162.974, 6201.542
5164.902, 6203.516
5166.831, 6184.107
5168.759, 6182.139
5170.688, 6163.118
5172.616, 6170.375
5174.544, 6171.546
5176.473, 6162.180
5178.401, 6156.273
5180.330, 6149.681
5182.258, 6140.407
5184.187, 6121.480
5186.115, 6107.716
5188.043, 6103.348
5189.972, 6111.768
5191.900, 6116.031
5193.829, 6116.003
5195.757, 6114.620
5197.686, 6106.400
5199.614, 6087.417
5201.543, 6062.281
5203.471, 6070.137
5205.400, 6066.642
5207.328, 6053.907
5209.257, 6057.164
5211.185, 6046.391
5213.114, 6032.990
5215.042, 6028.164
5216.971, 6031.268
5218.899, 6029.499
5220.828, 6019.184
5222.756, 6005.810
5224.685, 6005.192
5226.613, 6007.407
5228.542, 5987.758
5230.470, 5988.402
5232.398, 5986.752
5234.327, 5966.202
5236.255, 5955.549
5238.184, 5950.207
5240.112, 5946.897
5242.041, 5945.433
5243.969, 5928.935
5245.897, 5910.799
5247.826, 5912.523
5249.754, 5902.722
5251.683, 5890.212
5253.611, 5880.753
5255.540, 5881.158
5257.468, 5879.850
5259.397, 5874.239
5261.325, 5863.991
5263.254, 5856.126
5265.182, 5848.205
5267.111, 5838.255
5269.039, 5831.938
5270.968, 5829.601
5272.896, 5828.178
5274.825, 5814.200
5276.753, 5818.802
5278.682, 5823.208
5280.610, 5796.242
5282.539, 5796.354
5284.467, 5800.331
5286.396, 5796.981
5288.324, 5797.755
5290.252, 5776.310
5292.181, 5789.031
5294.109, 5796.261
5296.038, 5778.414
5297.966, 5757.961
5299.895, 5747.111
5301.823, 5736.868
5303.751, 5728.708
5305.680, 5725.153
5307.608, 5731.320
5309.537, 5729.182
5311.465, 5721.349
5313.394, 5710.427
5315.322, 5700.464
5317.251, 5687.040
5319.179, 5677.372
5321.108, 5669.814
5323.036, 5658.024
5324.965, 5653.287
5326.893, 5639.112
5328.822, 5622.972
5330.750, 5615.432
5332.679, 5613.477
5334.607, 5602.702
5336.536, 5599.970
5338.464, 5600.433
5340.393, 5598.738
5342.321, 5585.321
5344.250, 5571.517
5346.178, 5562.371
5348.106, 5553.436
5350.035, 5545.164
5351.963, 5542.302
5353.892, 5531.517
5355.820, 5530.561
5357.749, 5522.955
5359.677, 5508.963
5361.605, 5495.740
5363.534, 5491.872
5365.462, 5485.979
5367.391, 5484.869
5369.319, 5484.486
5371.248, 5485.291
5373.176, 5486.860
5375.105, 5485.682
5377.033, 5460.160
5378.962, 5436.974
5380.890, 5425.807
5382.819, 5410.929
5384.747, 5403.004
5386.676, 5396.679
5388.604, 5382.698
5390.533, 5385.697
5392.461, 5376.384
5394.390, 5354.463
5396.318, 5351.964
5398.247, 5353.765
5400.175, 5350.005
5402.104, 5336.364
5404.032, 5324.928
5405.960, 5315.677
5407.889, 5310.197
5409.817, 5315.435
5411.746, 5304.514
5413.674, 5293.711
5415.603, 5289.417
5417.531, 5273.339
5419.459, 5267.581
5421.388, 5260.107
5423.316, 5253.279
5425.245, 5248.861
5427.173, 5246.227
5429.102, 5236.114
5431.030, 5227.548
5432.959, 5215.642
5434.887, 5203.726
5436.816, 5189.557
5438.744, 5193.662
5440.673, 5191.197
5442.601, 5181.009
5444.530, 5167.797
5446.458, 5167.181
5448.387, 5157.828
5450.315, 5140.409
5452.244, 5141.970
5454.172, 5151.070
5456.101, 5146.663
5458.029, 5120.542
5459.958, 5121.371
5461.886, 5106.369
5463.814, 5085.021
5465.743, 5078.641
5467.671, 5073.382
5469.600, 5068.736
5471.528, 5065.975
5473.457, 5053.863
5475.385, 5053.710
5477.313, 5033.179
5479.242, 5028.091
5481.170, 5026.104
5483.099, 5005.751
5485.027, 4987.979
5486.956, 4994.173
5488.884, 4999.982
5490.813, 4985.711
5492.741, 4964.380
5494.670, 4972.494
5496.598, 4960.942
5498.527, 4942.915
5500.455, 4928.104
##END=



