##NAMES=Beryllonite
##RRUFFID=R070249
##IDEAL CHEMISTRY=NaBe(PO_4_)
##LOCALITY=Melrose Farm Beryllonite prospects (McAllister prospects),  Stoneham, Oxford County, Maine, USA
##OWNER=RRUFF
##SOURCE=Michael Scott
##DESCRIPTION=Two colorless single crystal fragments
##STATUS=The identification of this mineral has been confirmed by X-ray diffraction and chemical analysis
##URL=https://www.rruff.net/odr/rruff_sample/R070249
##MEASURED CHEMISTRY=Na_1.00_Be_1.00_P_1.00_O_4_ ; Be estimated by difference
##DIFFRACTION SAMPLE DESCRIPTION=Powder
##CELL PARAMETERS=a: 8.1355 b: 7.801 c: 14.2018 alpha: 90 beta: 90.028 gamma: 90 volume: 901.32 crystal system: monoclinic
##FILETYPE=Raman RAW
##RAMAN WAVELENGTH=532

173.9221, 9308.538
175.8506, 9370.071
177.7791, 9411.863
179.7075, 9416.648
181.6360, 9426.974
183.5645, 9459.883
185.4929, 9536.277
187.4214, 9599.009
189.3499, 9627.068
191.2783, 9641.647
193.2068, 9686.786
195.1353, 9800.971
197.0637, 9917.540
198.9922, 10000.88
200.9207, 10023.38
202.8491, 10052.76
204.7776, 10096.41
206.7061, 10151.99
208.6345, 10214.45
210.5630, 10288.76
212.4915, 10367.00
214.4199, 10443.14
216.3484, 10515.05
218.2769, 10590.15
220.2053, 10668.09
222.1338, 10748.22
224.0623, 10841.20
225.9907, 10957.20
227.9192, 11080.66
229.8477, 11197.42
231.7761, 11314.02
233.7046, 11412.31
235.6331, 11491.36
237.5615, 11551.99
239.4900, 11583.67
241.4185, 11574.99
243.3469, 11542.26
245.2754, 11505.94
247.2039, 11457.11
249.1323, 11418.62
251.0608, 11398.31
252.9893, 11403.25
254.9177, 11410.47
256.8462, 11411.66
258.7747, 11418.22
260.7031, 11442.60
262.6316, 11491.74
264.5601, 11554.85
266.4885, 11632.15
268.4170, 11728.05
270.3455, 11821.97
272.2739, 11914.57
274.2024, 12003.84
276.1309, 12085.62
278.0593, 12149.17
279.9878, 12214.39
281.9163, 12291.22
283.8447, 12381.78
285.7732, 12464.32
287.7017, 12540.34
289.6301, 12605.78
291.5586, 12648.08
293.4871, 12644.66
295.4155, 12638.79
297.3440, 12643.75
299.2725, 12658.20
301.2009, 12683.26
303.1294, 12731.83
305.0579, 12789.96
306.9863, 12829.84
308.9148, 12854.76
310.8433, 12861.12
312.7717, 12835.20
314.7002, 12775.21
316.6287, 12733.40
318.5571, 12720.21
320.4856, 12728.92
322.4141, 12752.12
324.3425, 12786.95
326.2710, 12836.05
328.1995, 12895.47
330.1279, 12961.22
332.0564, 13062.71
333.9849, 13208.56
335.9133, 13386.74
337.8418, 13582.31
339.7703, 13789.91
341.6987, 14020.35
343.6272, 14269.09
345.5557, 14530.91
347.4841, 14847.33
349.4126, 15268.77
351.3411, 15718.35
353.2695, 16125.75
355.1980, 16539.02
357.1265, 16818.77
359.0549, 16927.00
360.9834, 16866.29
362.9119, 16673.09
364.8403, 16272.74
366.7688, 15805.99
368.6973, 15371.34
370.6257, 14954.95
372.5542, 14604.22
374.4827, 14330.37
376.4111, 14129.12
378.3396, 13980.88
380.2681, 13883.78
382.1965, 13831.79
384.1250, 13827.96
386.0535, 13875.23
387.9819, 13940.06
389.9104, 14007.74
391.8389, 14084.65
393.7673, 14196.49
395.6958, 14363.97
397.6243, 14540.50
399.5527, 14732.52
401.4812, 14948.80
403.4097, 15082.60
405.3381, 15095.05
407.2666, 15029.57
409.1951, 14932.79
411.1235, 14776.16
413.0520, 14633.17
414.9805, 14522.41
416.9089, 14440.40
418.8374, 14392.05
420.7659, 14383.01
422.6943, 14402.67
424.6228, 14449.06
426.5513, 14524.48
428.4797, 14615.05
430.4082, 14722.83
432.3367, 14844.24
434.2651, 14972.31
436.1936, 15119.02
438.1221, 15262.35
440.0505, 15385.71
441.9790, 15483.49
443.9075, 15602.54
445.8359, 15734.17
447.7644, 15897.86
449.6929, 16121.57
451.6213, 16384.16
453.5498, 16738.27
455.4783, 17204.52
457.4067, 17786.46
459.3352, 18446.56
461.2637, 19273.32
463.1921, 20112.97
465.1206, 20883.12
467.0491, 21730.21
468.9775, 22248.89
470.9060, 22385.97
472.8345, 22155.84
474.7629, 21675.13
476.6914, 20798.36
478.6199, 19864.10
480.5483, 18973.56
482.4768, 18105.79
484.4053, 17393.86
486.3337, 16846.16
488.2622, 16439.25
490.1907, 16155.96
492.1191, 16014.50
494.0476, 15925.43
495.9761, 15881.37
497.9045, 15872.31
499.8330, 15853.01
501.7615, 15786.25
503.6899, 15742.72
505.6184, 15765.41
507.5469, 15848.97
509.4753, 15937.20
511.4038, 16001.05
513.3323, 16073.79
515.2607, 16188.40
517.1892, 16347.98
519.1177, 16546.63
521.0461, 16814.19
522.9746, 17123.37
524.9031, 17408.88
526.8315, 17677.83
528.7600, 17905.38
530.6885, 18086.34
532.6169, 18219.50
534.5454, 18291.14
536.4739, 18237.93
538.4023, 18158.22
540.3308, 18135.15
542.2593, 18172.85
544.1877, 18258.50
546.1162, 18433.23
548.0447, 18660.70
549.9731, 18789.05
551.9016, 18802.12
553.8301, 18749.72
555.7585, 18592.45
557.6870, 18343.01
559.6155, 18195.78
561.5439, 18203.27
563.4724, 18309.60
565.4009, 18501.96
567.3293, 18878.88
569.2578, 19161.67
571.1863, 19341.16
573.1147, 19398.88
575.0432, 19310.17
576.9717, 18980.91
578.9001, 18634.90
580.8286, 18310.48
582.7571, 18011.95
584.6855, 17805.51
586.6140, 17715.52
588.5425, 17692.62
590.4709, 17726.28
592.3994, 17821.75
594.3279, 17906.09
596.2563, 17986.54
598.1848, 18042.28
600.1133, 18045.38
602.0417, 17981.63
603.9702, 17891.42
605.8987, 17745.64
607.8271, 17579.69
609.7556, 17465.93
611.6841, 17443.15
613.6125, 17431.59
615.5410, 17402.35
617.4695, 17353.11
619.3979, 17322.57
621.3264, 17320.22
623.2549, 17328.39
625.1833, 17337.71
627.1118, 17348.03
629.0403, 17360.17
630.9688, 17364.66
632.8972, 17375.18
634.8257, 17409.50
636.7542, 17493.21
638.6826, 17560.57
640.6111, 17589.58
642.5396, 17598.56
644.4680, 17622.55
646.3965, 17678.98
648.3250, 17726.12
650.2534, 17745.15
652.1819, 17736.41
654.1104, 17741.57
656.0388, 17766.23
657.9673, 17798.24
659.8958, 17831.60
661.8242, 17866.04
663.7527, 17907.09
665.6812, 17967.91
667.6096, 18027.86
669.5381, 18071.85
671.4666, 18073.83
673.3950, 18100.71
675.3235, 18185.54
677.2520, 18282.34
679.1804, 18329.93
681.1089, 18304.50
683.0374, 18291.13
684.9658, 18320.58
686.8943, 18379.98
688.8228, 18430.45
690.7512, 18465.16
692.6797, 18499.01
694.6082, 18534.75
696.5366, 18572.43
698.4651, 18613.30
700.3936, 18669.32
702.3220, 18713.42
704.2505, 18723.60
706.1790, 18683.00
708.1074, 18692.41
710.0359, 18797.34
711.9644, 18912.36
713.8928, 18972.94
715.8213, 18978.03
717.7498, 18991.02
719.6782, 19031.83
721.6067, 19081.19
723.5352, 19122.08
725.4636, 19140.08
727.3921, 19176.20
729.3206, 19244.20
731.2490, 19327.41
733.1775, 19404.06
735.1060, 19478.94
737.0344, 19536.37
738.9629, 19555.35
740.8914, 19555.00
742.8198, 19573.47
744.7483, 19630.42
746.6768, 19683.96
748.6052, 19725.27
750.5337, 19756.62
752.4622, 19790.64
754.3906, 19839.28
756.3191, 19873.31
758.2476, 19864.60
760.1760, 19823.79
762.1045, 19816.53
764.0330, 19882.81
765.9614, 19950.77
767.8899, 19991.10
769.8184, 20000.94
771.7468, 20030.95
773.6753, 20106.75
775.6038, 20179.23
777.5322, 20216.60
779.4607, 20219.46
781.3892, 20236.02
783.3176, 20292.08
785.2461, 20349.00
787.1746, 20384.01
789.1030, 20386.68
791.0315, 20397.50
792.9600, 20413.76
794.8884, 20440.36
796.8169, 20484.63
798.7454, 20548.73
800.6738, 20607.37
802.6023, 20652.34
804.5308, 20691.53
806.4592, 20730.27
808.3877, 20767.78
810.3162, 20806.17
812.2446, 20855.05
814.1731, 20899.60
816.1016, 20918.29
818.0300, 20903.68
819.9585, 20903.82
821.8870, 20944.49
823.8154, 21000.11
825.7439, 21045.61
827.6724, 21073.57
829.6008, 21103.39
831.5293, 21136.61
833.4578, 21172.35
835.3862, 21210.35
837.3147, 21251.98
839.2432, 21291.45
841.1716, 21328.62
843.1001, 21362.14
845.0286, 21388.65
846.9570, 21400.37
848.8855, 21421.18
850.8140, 21456.04
852.7424, 21501.12
854.6709, 21551.28
856.5994, 21608.48
858.5278, 21666.05
860.4563, 21723.60
862.3848, 21780.54
864.3132, 21838.09
866.2417, 21902.17
868.1702, 21951.16
870.0986, 21969.93
872.0271, 21975.34
873.9556, 21993.14
875.8840, 22038.16
877.8125, 22075.29
879.7410, 22094.62
881.6694, 22107.47
883.5979, 22128.88
885.5264, 22158.94
887.4548, 22196.31
889.3833, 22245.30
891.3118, 22299.42
893.2402, 22350.52
895.1687, 22387.99
897.0972, 22440.64
899.0256, 22529.21
900.9541, 22625.84
902.8826, 22690.15
904.8110, 22716.33
906.7395, 22742.72
908.6680, 22779.74
910.5964, 22819.46
912.5249, 22852.01
914.4534, 22871.91
916.3818, 22903.21
918.3103, 22958.48
920.2388, 23020.21
922.1672, 23071.70
924.0957, 23107.35
926.0242, 23146.43
927.9526, 23188.86
929.8811, 23235.60
931.8096, 23289.63
933.7380, 23351.61
935.6665, 23408.48
937.5950, 23447.68
939.5234, 23489.57
941.4519, 23546.05
943.3804, 23619.54
945.3088, 23700.34
947.2373, 23801.04
949.1658, 23897.15
951.0942, 23965.39
953.0227, 24007.86
954.9512, 24076.22
956.8796, 24192.13
958.8081, 24313.19
960.7366, 24412.30
962.6650, 24493.23
964.5935, 24594.85
966.5220, 24717.76
968.4504, 24865.70
970.3789, 25034.68
972.3074, 25228.57
974.2358, 25466.55
976.1643, 25768.61
978.0928, 26084.30
980.0212, 26361.64
981.9497, 26651.64
983.8782, 27047.71
985.8066, 27556.03
987.7351, 28164.74
989.6636, 28820.37
991.5920, 29582.51
993.5205, 30545.15
995.4490, 31689.79
997.3774, 33094.61
999.3059, 34692.18
1001.234, 36576.53
1003.163, 38955.82
1005.091, 41885.39
1007.020, 44846.71
1008.948, 48350.95
1010.877, 51348.96
1012.805, 53343.40
1014.734, 54361.37
1016.662, 54072.59
1018.591, 51600.66
1020.519, 48527.36
1022.448, 45314.63
1024.376, 41933.45
1026.304, 39055.52
1028.233, 36709.57
1030.161, 34770.37
1032.090, 33227.96
1034.018, 32086.27
1035.947, 31294.55
1037.875, 30925.08
1039.804, 30762.95
1041.732, 30814.97
1043.661, 31000.77
1045.589, 31207.47
1047.518, 31498.59
1049.446, 31676.27
1051.375, 31713.62
1053.303, 31636.64
1055.231, 31453.03
1057.160, 31125.80
1059.088, 30814.63
1061.017, 30482.59
1062.945, 30206.10
1064.874, 30079.82
1066.802, 30078.76
1068.731, 30009.05
1070.659, 29841.32
1072.588, 29605.83
1074.516, 29295.80
1076.445, 28925.01
1078.373, 28574.27
1080.302, 28237.82
1082.230, 27929.21
1084.158, 27619.85
1086.087, 27346.51
1088.015, 27193.30
1089.944, 27191.69
1091.872, 27185.63
1093.801, 27130.39
1095.729, 27073.28
1097.658, 27057.72
1099.586, 27084.57
1101.515, 27099.06
1103.443, 27072.44
1105.372, 27054.34
1107.300, 27073.22
1109.229, 27126.82
1111.157, 27168.90
1113.085, 27193.20
1115.014, 27213.84
1116.942, 27222.21
1118.871, 27231.15
1120.799, 27269.24
1122.728, 27341.65
1124.656, 27421.51
1126.585, 27517.64
1128.513, 27608.85
1130.442, 27673.92
1132.370, 27712.07
1134.299, 27758.20
1136.227, 27816.59
1138.156, 27885.37
1140.084, 27971.32
1142.012, 28070.87
1143.941, 28153.17
1145.869, 28192.95
1147.798, 28247.23
1149.726, 28355.12
1151.655, 28473.32
1153.583, 28522.67
1155.512, 28488.91
1157.440, 28461.44
1159.369, 28453.27
1161.297, 28457.13
1163.226, 28475.98
1165.154, 28506.74
1167.083, 28517.14
1169.011, 28484.40
1170.939, 28460.06
1172.868, 28453.00
1174.796, 28468.18
1176.725, 28521.79
1178.653, 28666.27
1180.582, 28765.62
1182.510, 28768.58
1184.439, 28750.59
1186.367, 28787.69
1188.296, 28890.76
1190.224, 28969.54
1192.153, 29002.87
1194.081, 29031.65
1196.010, 29076.36
1197.938, 29129.84
1199.866, 29174.44
1201.795, 29206.66
1203.723, 29237.64
1205.652, 29255.76
1207.580, 29283.77
1209.509, 29351.25
1211.437, 29472.71
1213.366, 29564.91
1215.294, 29611.34
1217.223, 29641.74
1219.151, 29656.44
1221.080, 29662.01
1223.008, 29691.54
1224.937, 29761.70
1226.865, 29826.20
1228.793, 29870.43
1230.722, 29910.50
1232.650, 29968.05
1234.579, 30043.11
1236.507, 30102.23
1238.436, 30128.44
1240.364, 30155.22
1242.293, 30199.73
1244.221, 30257.14
1246.150, 30315.38
1248.078, 30374.44
1250.007, 30433.31
1251.935, 30490.08
1253.864, 30547.91
1255.792, 30615.75
1257.720, 30701.27
1259.649, 30749.81
1261.577, 30723.29
1263.506, 30708.29
1265.434, 30725.41
1267.363, 30774.08
1269.291, 30863.41
1271.220, 31011.82
1273.148, 31129.65
1275.077, 31190.12
1277.005, 31225.79
1278.934, 31244.01
1280.862, 31252.46
1282.791, 31290.39
1284.719, 31373.46
1286.647, 31458.80
1288.576, 31531.71
1290.504, 31599.08
1292.433, 31671.16
1294.361, 31752.37
1296.290, 31816.15
1298.218, 31849.15
1300.147, 31876.25
1302.075, 31901.02
1304.004, 31926.76
1305.932, 31964.70
1307.861, 32037.78
1309.789, 32088.64
1311.718, 32089.33
1313.646, 32088.34
1315.574, 32123.37
1317.503, 32193.08
1319.431, 32266.88
1321.360, 32350.03
1323.288, 32426.60
1325.217, 32479.47
1327.145, 32530.35
1329.074, 32609.79
1331.002, 32718.85
1332.931, 32805.14
1334.859, 32853.03
1336.788, 32887.82
1338.716, 32903.81
1340.645, 32918.36
1342.573, 32977.79
1344.501, 33105.50
1346.430, 33206.35
1348.358, 33241.82
1350.287, 33273.32
1352.215, 33338.33
1354.144, 33430.56
1356.072, 33507.39
1358.001, 33543.88
1359.929, 33600.26
1361.858, 33714.83
1363.786, 33824.96
1365.715, 33865.82
1367.643, 33837.49
1369.572, 33844.11
1371.500, 33903.40
1373.428, 33968.10
1375.357, 34024.77
1377.285, 34080.32
1379.214, 34143.38
1381.142, 34213.54
1383.071, 34284.26
1384.999, 34362.14
1386.928, 34428.04
1388.856, 34464.88
1390.785, 34488.70
1392.713, 34521.00
1394.642, 34562.95
1396.570, 34602.39
1398.499, 34625.54
1400.427, 34662.35
1402.355, 34739.38
1404.284, 34834.50
1406.212, 34894.02
1408.141, 34892.68
1410.069, 34928.07
1411.998, 35024.63
1413.926, 35139.25
1415.855, 35276.39
1417.783, 35416.14
1419.712, 35496.26
1421.640, 35456.81
1423.569, 35456.04
1425.497, 35521.43
1427.426, 35598.00
1429.354, 35656.15
1431.282, 35700.80
1433.211, 35747.84
1435.139, 35791.83
1437.068, 35853.02
1438.996, 35970.09
1440.925, 36071.20
1442.853, 36082.46
1444.782, 36042.30
1446.710, 36078.37
1448.639, 36220.40
1450.567, 36328.50
1452.496, 36332.92
1454.424, 36332.03
1456.353, 36392.99
1458.281, 36498.20
1460.209, 36605.21
1462.138, 36719.49
1464.066, 36807.87
1465.995, 36846.18
1467.923, 36873.73
1469.852, 36908.71
1471.780, 36951.63
1473.709, 37005.85
1475.637, 37076.70
1477.566, 37142.42
1479.494, 37199.69
1481.423, 37249.89
1483.351, 37281.05
1485.280, 37304.89
1487.208, 37367.65
1489.136, 37496.43
1491.065, 37602.17
1492.993, 37673.05
1494.922, 37726.58
1496.850, 37756.07
1498.779, 37776.30
1500.707, 37830.43
1502.636, 37955.02
1504.564, 38040.06
1506.493, 38050.47
1508.421, 38062.63
1510.350, 38104.06
1512.278, 38170.88
1514.207, 38261.91
1516.135, 38392.29
1518.063, 38493.59
1519.992, 38547.32
1521.920, 38593.06
1523.849, 38638.13
1525.777, 38686.61
1527.706, 38743.54
1529.634, 38808.91
1531.563, 38886.79
1533.491, 38999.57
1535.420, 39089.80
1537.348, 39113.32
1539.277, 39123.25
1541.205, 39188.54
1543.134, 39298.52
1545.062, 39362.14
1546.990, 39342.84
1548.919, 39356.77
1550.847, 39475.73
1552.776, 39608.15
1554.704, 39680.29
1556.633, 39709.42
1558.561, 39748.25
1560.490, 39801.56
1562.418, 39851.30
1564.347, 39870.43
1566.275, 39912.84
1568.204, 40039.62
1570.132, 40202.25
1572.061, 40311.80
1573.989, 40365.09
1575.917, 40382.94
1577.846, 40333.60
1579.774, 40307.41
1581.703, 40363.30
1583.631, 40453.08
1585.560, 40521.40
1587.488, 40569.56
1589.417, 40629.00
1591.345, 40700.36
1593.274, 40787.79
1595.202, 40915.19
1597.131, 41038.85
1599.059, 41123.45
1600.988, 41176.79
1602.916, 41235.27
1604.844, 41300.68
1606.773, 41367.55
1608.701, 41448.02
1610.630, 41512.80
1612.558, 41537.09
1614.487, 41542.11
1616.415, 41561.30
1618.344, 41593.63
1620.272, 41652.15
1622.201, 41752.63
1624.129, 41854.13
1626.058, 41951.59
1627.986, 42039.92
1629.915, 42109.89
1631.843, 42163.96
1633.771, 42232.53
1635.700, 42335.69
1637.628, 42397.36
1639.557, 42339.99
1641.485, 42311.20
1643.414, 42399.18
1645.342, 42547.29
1647.271, 42655.85
1649.199, 42720.17
1651.128, 42777.96
1653.056, 42826.50
1654.985, 42876.13
1656.913, 42934.32
1658.842, 42990.05
1660.770, 43033.91
1662.698, 43067.68
1664.627, 43097.97
1666.555, 43116.95
1668.484, 43157.04
1670.412, 43229.03
1672.341, 43314.70
1674.269, 43413.40
1676.198, 43518.81
1678.126, 43632.36
1680.055, 43755.75
1681.983, 43830.14
1683.912, 43828.17
1685.840, 43834.30
1687.769, 43856.56
1689.697, 43898.65
1691.625, 43972.53
1693.554, 44064.65
1695.482, 44144.84
1697.411, 44210.35
1699.339, 44287.91
1701.268, 44401.20
1703.196, 44487.00
1705.125, 44511.57
1707.053, 44520.99
1708.982, 44539.79
1710.910, 44569.99
1712.839, 44621.15
1714.767, 44696.57
1716.696, 44775.70
1718.624, 44865.32
1720.552, 44943.70
1722.481, 44985.88
1724.409, 45029.31
1726.338, 45121.12
1728.266, 45246.35
1730.195, 45323.14
1732.123, 45341.76
1734.052, 45350.91
1735.980, 45327.70
1737.909, 45344.45
1739.837, 45470.23
1741.766, 45618.62
1743.694, 45688.33
1745.623, 45701.02
1747.551, 45786.13
1749.479, 45975.23
1751.408, 46095.80
1753.336, 46064.15
1755.265, 46040.86
1757.193, 46113.74
1759.122, 46222.16
1761.050, 46312.36
1762.979, 46385.02
1764.907, 46440.41
1766.836, 46475.20
1768.764, 46509.85
1770.693, 46528.23
1772.621, 46580.46
1774.550, 46729.08
1776.478, 46893.98
1778.406, 46986.95
1780.335, 47025.64
1782.263, 47082.23
1784.192, 47165.40
1786.120, 47229.01
1788.049, 47239.78
1789.977, 47270.57
1791.906, 47380.47
1793.834, 47500.94
1795.763, 47557.35
1797.691, 47566.52
1799.620, 47597.95
1801.548, 47656.86
1803.477, 47709.04
1805.405, 47728.71
1807.333, 47773.55
1809.262, 47892.95
1811.190, 48014.02
1813.119, 48054.50
1815.047, 48052.43
1816.976, 48130.64
1818.904, 48326.12
1820.833, 48438.69
1822.761, 48384.71
1824.690, 48372.09
1826.618, 48466.93
1828.547, 48578.61
1830.475, 48654.62
1832.404, 48708.09
1834.332, 48760.84
1836.260, 48812.46
1838.189, 48867.58
1840.117, 48933.60
1842.046, 48988.91
1843.974, 49012.61
1845.903, 49048.98
1847.831, 49118.03
1849.760, 49207.13
1851.688, 49312.61
1853.617, 49429.16
1855.545, 49514.05
1857.474, 49562.02
1859.402, 49605.12
1861.331, 49642.25
1863.259, 49684.11
1865.188, 49731.21
1867.116, 49787.46
1869.044, 49871.67
1870.973, 49959.73
1872.901, 49987.70
1874.830, 49962.11
1876.758, 50004.37
1878.687, 50147.42
1880.615, 50270.27
1882.544, 50335.86
1884.472, 50386.45
1886.401, 50420.28
1888.329, 50467.05
1890.258, 50591.59
1892.186, 50757.00
1894.115, 50804.82
1896.043, 50707.46
1897.971, 50673.77
1899.900, 50738.64
1901.828, 50836.64
1903.757, 50996.46
1905.685, 51138.65
1907.614, 51205.89
1909.542, 51232.95
1911.471, 51257.61
1913.399, 51282.75
1915.328, 51357.37
1917.256, 51518.00
1919.185, 51641.14
1921.113, 51720.79
1923.042, 51765.38
1924.970, 51732.38
1926.898, 51711.93
1928.827, 51777.11
1930.755, 51886.96
1932.684, 51968.29
1934.612, 52024.52
1936.541, 52099.89
1938.469, 52204.35
1940.398, 52282.25
1942.326, 52321.45
1944.255, 52337.65
1946.183, 52287.47
1948.112, 52269.07
1950.040, 52377.68
1951.969, 52553.61
1953.897, 52719.24
1955.825, 52868.75
1957.754, 52921.88
1959.682, 52831.66
1961.611, 52808.91
1963.539, 52921.32
1965.468, 53042.88
1967.396, 53164.69
1969.325, 53258.25
1971.253, 53287.91
1973.182, 53285.61
1975.110, 53298.69
1977.039, 53327.11
1978.967, 53371.84
1980.896, 53438.41
1982.824, 53502.27
1984.752, 53558.34
1986.681, 53618.62
1988.609, 53691.57
1990.538, 53762.85
1992.466, 53820.02
1994.395, 53875.23
1996.323, 53949.60
1998.252, 54033.07
2000.180, 54084.09
2002.109, 54100.20
2004.037, 54163.00
2005.966, 54313.78
2007.894, 54413.75
2009.823, 54355.07
2011.751, 54337.75
2013.679, 54502.81
2015.608, 54688.88
2017.536, 54720.73
2019.465, 54677.59
2021.393, 54754.74
2023.322, 54955.98
2025.250, 55060.38
2027.179, 55026.71
2029.107, 55001.20
2031.036, 54954.07
2032.964, 54979.51
2034.893, 55176.86
2036.821, 55362.71
2038.750, 55423.87
2040.678, 55440.34
2042.606, 55508.83
2044.535, 55603.09
2046.463, 55638.74
2048.392, 55617.37
2050.320, 55636.76
2052.249, 55711.48
2054.177, 55802.03
2056.106, 55930.76
2058.034, 56030.95
2059.963, 56069.47
2061.891, 56087.52
2063.820, 56092.62
2065.748, 56107.17
2067.677, 56175.65
2069.605, 56282.64
2071.533, 56342.70
2073.462, 56342.35
2075.390, 56411.71
2077.319, 56598.10
2079.247, 56704.37
2081.176, 56637.27
2083.104, 56605.92
2085.033, 56734.42
2086.961, 56866.25
2088.890, 56863.63
2090.818, 56832.30
2092.747, 56918.54
2094.675, 57080.78
2096.604, 57189.54
2098.532, 57242.85
2100.460, 57261.45
2102.389, 57219.96
2104.317, 57193.85
2106.246, 57153.20
2108.174, 57175.34
2110.103, 57338.82
2112.031, 57492.33
2113.960, 57552.97
2115.888, 57573.76
2117.817, 57595.21
2119.745, 57619.66
2121.674, 57654.85
2123.602, 57698.39
2125.531, 57728.43
2127.459, 57739.35
2129.387, 57792.03
2131.316, 57914.62
2133.244, 58027.52
2135.173, 58124.71
2137.101, 58195.46
2139.030, 58216.28
2140.958, 58231.31
2142.887, 58276.59
2144.815, 58329.98
2146.744, 58357.47
2148.672, 58368.88
2150.601, 58396.09
2152.529, 58439.00
2154.458, 58499.86
2156.386, 58582.00
2158.314, 58650.78
2160.243, 58685.24
2162.171, 58752.34
2164.100, 58925.75
2166.028, 59058.39
2167.957, 59054.04
2169.885, 59029.09
2171.814, 59060.70
2173.742, 59127.69
2175.671, 59210.17
2177.599, 59302.86
2179.528, 59388.68
2181.456, 59467.49
2183.385, 59555.50
2185.313, 59659.27
2187.241, 59710.32
2189.170, 59678.46
2191.098, 59674.69
2193.027, 59752.70
2194.955, 59814.82
2196.884, 59795.15
2198.812, 59781.25
2200.741, 59837.29
2202.669, 59915.80
2204.598, 59962.62
2206.526, 59997.23
2208.455, 60073.97
2210.383, 60181.63
2212.312, 60216.72
2214.240, 60175.43
2216.168, 60184.11
2218.097, 60263.25
2220.025, 60312.57
2221.954, 60300.81
2223.882, 60298.06
2225.811, 60304.25
2227.739, 60352.56
2229.668, 60515.83
2231.596, 60656.57
2233.525, 60645.70
2235.453, 60591.20
2237.382, 60599.73
2239.310, 60665.79
2241.239, 60810.09
2243.167, 61007.44
2245.095, 61097.96
2247.024, 61081.93
2248.952, 61062.73
2250.881, 61040.98
2252.809, 61068.23
2254.738, 61190.55
2256.666, 61276.04
2258.595, 61264.62
2260.523, 61260.27
2262.452, 61286.11
2264.380, 61341.53
2266.309, 61466.95
2268.237, 61581.01
2270.166, 61601.40
2272.094, 61569.67
2274.022, 61516.46
2275.951, 61470.18
2277.879, 61521.46
2279.808, 61657.75
2281.736, 61761.71
2283.665, 61828.65
2285.593, 61873.68
2287.522, 61882.02
2289.450, 61895.31
2291.379, 61886.41
2293.307, 61936.01
2295.236, 62124.69
2297.164, 62256.05
2299.093, 62214.20
2301.021, 62163.76
2302.949, 62190.27
2304.878, 62259.11
2306.806, 62384.27
2308.735, 62501.09
2310.663, 62493.82
2312.592, 62419.18
2314.520, 62416.16
2316.449, 62478.97
2318.377, 62568.09
2320.306, 62684.38
2322.234, 62800.00
2324.163, 62922.94
2326.091, 62927.52
2328.020, 62747.52
2329.948, 62662.90
2331.876, 62806.91
2333.805, 62909.53
2335.733, 62860.31
2337.662, 62824.48
2339.590, 62869.58
2341.519, 62935.14
2343.447, 63006.58
2345.376, 63064.21
2347.304, 63071.06
2349.233, 63072.59
2351.161, 63140.30
2353.090, 63230.93
2355.018, 63248.02
2356.947, 63217.59
2358.875, 63254.67
2360.803, 63357.35
2362.732, 63402.75
2364.660, 63377.18
2366.589, 63386.32
2368.517, 63441.43
2370.446, 63470.04
2372.374, 63441.21
2374.303, 63481.63
2376.231, 63683.80
2378.160, 63816.73
2380.088, 63775.59
2382.017, 63709.88
2383.945, 63618.25
2385.874, 63588.27
2387.802, 63709.31
2389.730, 63860.70
2391.659, 63970.29
2393.587, 64049.55
2395.516, 64127.73
2397.444, 64170.17
2399.373, 64082.82
2401.301, 63938.23
2403.230, 63915.00
2405.158, 63993.15
2407.087, 64079.74
2409.015, 64175.04
2410.944, 64202.28
2412.872, 64158.25
2414.801, 64168.30
2416.729, 64244.51
2418.657, 64336.02
2420.586, 64453.05
2422.514, 64526.48
2424.443, 64534.50
2426.371, 64516.02
2428.300, 64424.68
2430.228, 64389.86
2432.157, 64474.72
2434.085, 64560.63
2436.014, 64597.71
2437.942, 64634.73
2439.871, 64717.03
2441.799, 64787.44
2443.728, 64795.44
2445.656, 64782.20
2447.584, 64781.80
2449.513, 64788.60
2451.441, 64798.33
2453.370, 64808.28
2455.298, 64807.27
2457.227, 64805.11
2459.155, 64821.43
2461.084, 64857.55
2463.012, 64915.77
2464.941, 64996.32
2466.869, 65122.94
2468.798, 65313.61
2470.726, 65333.41
2472.655, 65156.84
2474.583, 65100.23
2476.511, 65200.44
2478.440, 65253.19
2480.368, 65210.88
2482.297, 65205.59
2484.225, 65293.21
2486.154, 65359.57
2488.082, 65389.33
2490.011, 65399.49
2491.939, 65367.97
2493.868, 65366.75
2495.796, 65435.32
2497.725, 65505.19
2499.653, 65556.34
2501.582, 65585.32
2503.510, 65575.40
2505.438, 65561.50
2507.367, 65563.66
2509.295, 65573.93
2511.224, 65568.70
2513.152, 65587.01
2515.081, 65718.08
2517.009, 65841.62
2518.938, 65765.77
2520.866, 65636.98
2522.795, 65679.44
2524.723, 65831.99
2526.652, 66020.01
2528.580, 66199.15
2530.509, 66202.18
2532.437, 66094.41
2534.365, 66107.25
2536.294, 66208.98
2538.222, 66203.84
2540.151, 66101.13
2542.079, 66073.76
2544.008, 66126.52
2545.936, 66189.47
2547.865, 66264.24
2549.793, 66288.87
2551.722, 66257.32
2553.650, 66251.04
2555.579, 66279.41
2557.507, 66323.77
2559.436, 66377.14
2561.364, 66467.84
2563.292, 66645.80
2565.221, 66691.49
2567.149, 66532.45
2569.078, 66433.80
2571.006, 66466.19
2572.935, 66510.96
2574.863, 66555.67
2576.792, 66582.06
2578.720, 66536.02
2580.649, 66559.68
2582.577, 66739.48
2584.506, 66871.45
2586.434, 66843.30
2588.363, 66845.38
2590.291, 67028.23
2592.219, 67155.45
2594.148, 67046.34
2596.076, 66967.62
2598.005, 67134.95
2599.933, 67247.20
2601.862, 67094.88
2603.790, 66932.75
2605.719, 66913.86
2607.647, 66950.27
2609.576, 66995.56
2611.504, 67053.17
2613.433, 67156.77
2615.361, 67238.88
2617.290, 67227.05
2619.218, 67183.38
2621.146, 67121.02
2623.075, 67096.46
2625.003, 67205.31
2626.932, 67346.50
2628.860, 67419.19
2630.789, 67439.96
2632.717, 67391.27
2634.646, 67337.70
2636.574, 67378.88
2638.503, 67454.32
2640.431, 67464.64
2642.360, 67462.53
2644.288, 67555.57
2646.217, 67685.27
2648.145, 67735.28
2650.073, 67747.05
2652.002, 67808.92
2653.930, 67885.70
2655.859, 67906.93
2657.787, 67893.55
2659.716, 67872.04
2661.644, 67864.62
2663.573, 67970.54
2665.501, 68121.31
2667.430, 68108.42
2669.358, 68004.19
2671.287, 67995.41
2673.215, 68057.48
2675.144, 68141.85
2677.072, 68223.95
2679.000, 68183.75
2680.929, 68071.55
2682.857, 68049.57
2684.786, 68101.00
2686.714, 68171.49
2688.643, 68253.77
2690.571, 68321.88
2692.500, 68375.62
2694.428, 68412.87
2696.357, 68434.26
2698.285, 68431.41
2700.214, 68415.89
2702.142, 68445.80
2704.071, 68501.78
2705.999, 68476.74
2707.927, 68396.88
2709.856, 68400.95
2711.784, 68468.95
2713.713, 68533.38
2715.641, 68594.00
2717.570, 68663.55
2719.498, 68733.12
2721.427, 68757.18
2723.355, 68744.97
2725.284, 68739.81
2727.212, 68737.32
2729.141, 68710.59
2731.069, 68676.30
2732.998, 68702.95
2734.926, 68771.43
2736.854, 68811.87
2738.783, 68829.50
2740.711, 68833.48
2742.640, 68834.80
2744.568, 68874.13
2746.497, 68931.76
2748.425, 68938.76
2750.354, 68921.27
2752.282, 68959.27
2754.211, 69033.39
2756.139, 69092.22
2758.068, 69150.88
2759.996, 69257.34
2761.925, 69378.98
2763.853, 69451.95
2765.781, 69481.46
2767.710, 69466.27
2769.638, 69424.42
2771.567, 69338.30
2773.495, 69286.48
2775.424, 69484.55
2777.352, 69732.16
2779.281, 69665.47
2781.209, 69476.43
2783.138, 69404.75
2785.066, 69411.42
2786.995, 69469.48
2788.923, 69564.09
2790.852, 69733.21
2792.780, 69871.37
2794.708, 69806.14
2796.637, 69713.75
2798.565, 69756.13
2800.494, 69842.07
2802.422, 69917.95
2804.351, 69967.95
2806.279, 69953.43
2808.208, 69941.27
2810.136, 69987.35
2812.065, 70034.56
2813.993, 70031.42
2815.922, 70037.68
2817.850, 70105.41
2819.779, 70168.54
2821.707, 70192.11
2823.635, 70209.60
2825.564, 70246.07
2827.492, 70262.21
2829.421, 70220.54
2831.349, 70189.63
2833.278, 70172.71
2835.206, 70208.96
2837.135, 70336.62
2839.063, 70443.20
2840.992, 70487.51
2842.920, 70517.16
2844.849, 70515.94
2846.777, 70562.94
2848.706, 70691.84
2850.634, 70752.77
2852.563, 70694.49
2854.491, 70668.84
2856.419, 70723.42
2858.348, 70724.48
2860.276, 70658.87
2862.205, 70651.80
2864.133, 70715.21
2866.062, 70757.50
2867.990, 70768.52
2869.919, 70821.85
2871.847, 70916.98
2873.776, 70981.84
2875.704, 71016.54
2877.633, 71010.73
2879.561, 70981.66
2881.490, 71002.09
2883.418, 71074.17
2885.346, 71275.88
2887.275, 71498.13
2889.203, 71431.32
2891.132, 71231.99
2893.060, 71132.07
2894.989, 71127.64
2896.917, 71292.13
2898.846, 71466.53
2900.774, 71441.69
2902.703, 71369.53
2904.631, 71362.86
2906.560, 71407.01
2908.488, 71549.80
2910.417, 71653.76
2912.345, 71614.51
2914.273, 71565.18
2916.202, 71549.92
2918.130, 71582.11
2920.059, 71723.63
2921.987, 71811.41
2923.916, 71782.83
2925.844, 71771.42
2927.773, 71821.80
2929.701, 71874.73
2931.630, 71927.13
2933.558, 71967.57
2935.487, 71996.76
2937.415, 71993.20
2939.344, 71944.84
2941.272, 71966.95
2943.200, 72076.13
2945.129, 72092.16
2947.057, 72030.65
2948.986, 72039.72
2950.914, 72105.79
2952.843, 72149.94
2954.771, 72170.73
2956.700, 72135.13
2958.628, 72091.90
2960.557, 72177.20
2962.485, 72287.84
2964.414, 72249.95
2966.342, 72199.36
2968.271, 72305.77
2970.199, 72446.58
2972.127, 72567.59
2974.056, 72633.20
2975.984, 72579.17
2977.913, 72529.93
2979.841, 72574.20
2981.770, 72564.55
2983.698, 72409.41
2985.627, 72341.12
2987.555, 72464.91
2989.484, 72622.23
2991.412, 72846.88
2993.341, 72862.47
2995.269, 72624.80
2997.198, 72534.26
2999.126, 72634.69
3001.054, 72650.54
3002.983, 72594.48
3004.911, 72637.80
3006.840, 72755.16
3008.768, 72884.45
3010.697, 72991.49
3012.625, 72981.42
3014.554, 72912.49
3016.482, 72852.25
3018.411, 72808.38
3020.339, 72768.22
3022.268, 72775.38
3024.196, 72936.91
3026.125, 73039.08
3028.053, 72918.54
3029.981, 72858.48
3031.910, 73048.09
3033.838, 73174.92
3035.767, 73160.96
3037.695, 73151.36
3039.624, 73167.52
3041.552, 73160.27
3043.481, 73117.98
3045.409, 73069.70
3047.338, 73019.27
3049.266, 73097.03
3051.195, 73268.93
3053.123, 73406.95
3055.052, 73488.25
3056.980, 73403.98
3058.908, 73271.45
3060.837, 73258.03
3062.765, 73310.22
3064.694, 73416.73
3066.622, 73515.35
3068.551, 73552.44
3070.479, 73585.20
3072.408, 73651.35
3074.336, 73683.99
3076.265, 73626.53
3078.193, 73599.65
3080.122, 73612.53
3082.050, 73685.55
3083.979, 73834.41
3085.907, 73853.77
3087.835, 73737.93
3089.764, 73719.85
3091.692, 73784.96
3093.621, 73922.39
3095.549, 74061.35
3097.478, 74011.59
3099.406, 73916.16
3101.335, 73983.82
3103.263, 74085.74
3105.192, 74135.45
3107.120, 74162.68
3109.049, 74160.41
3110.977, 74185.83
3112.906, 74279.36
3114.834, 74317.01
3116.762, 74210.02
3118.691, 74220.41
3120.619, 74384.39
3122.548, 74375.91
3124.476, 74207.09
3126.405, 74160.60
3128.333, 74219.11
3130.262, 74331.04
3132.190, 74447.77
3134.119, 74452.47
3136.047, 74432.77
3137.976, 74489.24
3139.904, 74554.16
3141.833, 74583.52
3143.761, 74601.65
3145.689, 74624.05
3147.618, 74624.00
3149.546, 74574.05
3151.475, 74563.09
3153.403, 74602.00
3155.332, 74616.69
3157.260, 74600.99
3159.189, 74573.83
3161.117, 74549.05
3163.046, 74609.80
3164.974, 74715.71
3166.903, 74813.89
3168.831, 74891.55
3170.760, 74900.30
3172.688, 74932.03
3174.616, 75093.99
3176.545, 75201.84
3178.473, 75144.42
3180.402, 75095.74
3182.330, 75081.88
3184.259, 75048.46
3186.187, 74978.55
3188.116, 74997.56
3190.044, 75095.48
3191.973, 75155.70
3193.901, 75170.50
3195.830, 75065.51
3197.758, 74975.89
3199.687, 75147.87
3201.615, 75341.20
3203.543, 75383.84
3205.472, 75397.11
3207.400, 75452.73
3209.329, 75435.49
3211.257, 75291.61
3213.186, 75291.72
3215.114, 75507.95
3217.043, 75634.43
3218.971, 75671.18
3220.900, 75596.98
3222.828, 75481.51
3224.757, 75496.49
3226.685, 75553.48
3228.614, 75533.35
3230.542, 75510.98
3232.470, 75517.98
3234.399, 75565.13
3236.327, 75714.02
3238.256, 75773.78
3240.184, 75703.88
3242.113, 75708.91
3244.041, 75816.57
3245.970, 75806.63
3247.898, 75729.51
3249.827, 75899.03
3251.755, 76103.80
3253.684, 75931.10
3255.612, 75708.46
3257.541, 75714.63
3259.469, 75810.84
3261.397, 75988.71
3263.326, 76142.77
3265.254, 76278.50
3267.183, 76253.84
3269.111, 76052.77
3271.040, 76045.48
3272.968, 76201.42
3274.897, 76284.02
3276.825, 76308.70
3278.754, 76286.88
3280.682, 76255.90
3282.611, 76253.05
3284.539, 76250.98
3286.468, 76219.13
3288.396, 76233.37
3290.324, 76362.28
3292.253, 76430.78
3294.181, 76434.91
3296.110, 76460.35
3298.038, 76494.55
3299.967, 76425.24
3301.895, 76341.44
3303.824, 76430.14
3305.752, 76552.11
3307.681, 76638.59
3309.609, 76638.20
3311.538, 76477.05
3313.466, 76410.74
3315.395, 76509.77
3317.323, 76649.91
3319.251, 76822.78
3321.180, 76919.86
3323.108, 76948.27
3325.037, 76920.34
3326.965, 76868.28
3328.894, 76798.38
3330.822, 76778.93
3332.751, 76897.23
3334.679, 76988.65
3336.608, 77026.40
3338.536, 76952.75
3340.465, 76758.06
3342.393, 76703.00
3344.322, 76760.23
3346.250, 76703.27
3348.178, 76665.63
3350.107, 76914.52
3352.035, 77171.36
3353.964, 77204.89
3355.892, 77178.34
3357.821, 77108.59
3359.749, 77099.77
3361.678, 77191.73
3363.606, 77196.14
3365.535, 77129.14
3367.463, 77075.35
3369.392, 77044.72
3371.320, 77049.71
3373.249, 77094.72
3375.177, 77206.50
3377.105, 77313.23
3379.034, 77403.77
3380.962, 77424.70
3382.891, 77361.36
3384.819, 77416.30
3386.748, 77565.58
3388.676, 77577.71
3390.605, 77523.24
3392.533, 77513.76
3394.462, 77510.64
3396.390, 77464.92
3398.319, 77453.60
3400.247, 77520.41
3402.176, 77529.63
3404.104, 77434.20
3406.032, 77620.34
3407.961, 77952.71
3409.889, 77839.16
3411.818, 77585.53
3413.746, 77667.28
3415.675, 77785.86
3417.603, 77742.61
3419.532, 77735.59
3421.460, 77821.55
3423.389, 77893.56
3425.317, 77941.45
3427.246, 77952.35
3429.174, 77932.23
3431.103, 77881.83
3433.031, 77828.73
3434.959, 77773.48
3436.888, 77774.92
3438.816, 77876.15
3440.745, 77963.01
3442.673, 78018.02
3444.602, 78003.24
3446.530, 77943.55
3448.459, 78039.67
3450.387, 78161.94
3452.316, 78057.19
3454.244, 78009.22
3456.173, 78245.89
3458.101, 78394.38
3460.030, 78273.23
3461.958, 78191.52
3463.886, 78153.18
3465.815, 78207.80
3467.743, 78297.30
3469.672, 78307.98
3471.600, 78279.74
3473.529, 78203.92
3475.457, 78185.70
3477.386, 78304.84
3479.314, 78322.88
3481.243, 78228.12
3483.171, 78231.63
3485.100, 78301.74
3487.028, 78337.48
3488.957, 78368.27
3490.885, 78442.48
3492.813, 78476.91
3494.742, 78423.48
3496.670, 78418.94
3498.599, 78492.90
3500.527, 78533.73
3502.456, 78537.84
3504.384, 78450.67
3506.313, 78376.41
3508.241, 78441.27
3510.170, 78531.73
3512.098, 78622.04
3514.027, 78666.67
3515.955, 78657.99
3517.884, 78580.12
3519.812, 78491.60
3521.740, 78584.92
3523.669, 78721.05
3525.597, 78745.88
3527.526, 78768.97
3529.454, 78841.52
3531.383, 78909.12
3533.311, 78967.34
3535.240, 78853.65
3537.168, 78656.73
3539.097, 78563.38
3541.025, 78603.29
3542.954, 78868.87
3544.882, 79103.63
3546.811, 79236.26
3548.739, 79230.35
3550.667, 79098.91
3552.596, 79056.82
3554.524, 79058.88
3556.453, 78956.02
3558.381, 78903.67
3560.310, 79085.02
3562.238, 79191.27
3564.167, 79151.19
3566.095, 79134.80
3568.024, 79155.00
3569.952, 79218.94
3571.881, 79278.16
3573.809, 79237.87
3575.738, 79217.84
3577.666, 79310.43
3579.594, 79350.78
3581.523, 79307.06
3583.451, 79387.27
3585.380, 79534.84
3587.308, 79497.33
3589.237, 79425.44
3591.165, 79474.74
3593.094, 79503.92
3595.022, 79468.95
3596.951, 79416.41
3598.879, 79357.02
3600.808, 79471.62
3602.736, 79627.84
3604.665, 79609.19
3606.593, 79526.53
3608.521, 79389.93
3610.450, 79400.16
3612.378, 79664.59
3614.307, 79679.90
3616.235, 79543.40
3618.164, 79577.93
3620.092, 79641.02
3622.021, 79523.91
3623.949, 79533.45
3625.878, 79834.16
3627.806, 79967.73
3629.735, 79932.88
3631.663, 79862.52
3633.592, 79822.87
3635.520, 79965.09
3637.448, 80071.13
3639.377, 80009.07
3641.305, 80026.02
3643.234, 80152.21
3645.162, 80228.47
3647.091, 80259.16
3649.019, 80255.72
3650.948, 80218.45
3652.876, 80106.90
3654.805, 80102.81
3656.733, 80279.93
3658.662, 80338.54
3660.590, 80315.84
3662.519, 80334.20
3664.447, 80373.14
3666.375, 80434.82
3668.304, 80455.66
3670.232, 80362.82
3672.161, 80423.51
3674.089, 80598.39
3676.018, 80734.50
3677.946, 80806.61
3679.875, 80758.20
3681.803, 80701.65
3683.732, 80638.75
3685.660, 80722.49
3687.589, 80908.78
3689.517, 80903.32
3691.446, 80831.78
3693.374, 80863.81
3695.302, 80898.47
3697.231, 80865.22
3699.159, 80936.80
3701.088, 81090.63
3703.016, 81092.90
3704.945, 81029.08
3706.873, 81016.28
3708.802, 81001.82
3710.730, 80921.89
3712.659, 80985.43
3714.587, 81173.91
3716.516, 81216.48
3718.444, 81193.55
3720.373, 81197.83
3722.301, 81238.16
3724.229, 81325.80
3726.158, 81437.38
3728.086, 81567.52
3730.015, 81735.10
3731.943, 81844.23
3733.872, 81689.95
3735.800, 81529.28
3737.729, 81452.05
3739.657, 81417.02
3741.586, 81429.30
3743.514, 81632.17
3745.443, 81836.16
3747.371, 81739.95
3749.300, 81652.86
3751.228, 81701.43
3753.156, 81678.32
3755.085, 81603.09
3757.013, 81643.50
3758.942, 81724.14
3760.870, 81780.43
3762.799, 81803.55
3764.727, 81757.43
3766.656, 81887.39
3768.584, 82107.87
3770.513, 82044.16
3772.441, 81928.23
3774.370, 81953.07
3776.298, 82014.20
3778.227, 82095.70
3780.155, 82193.88
3782.083, 82276.20
3784.012, 82247.31
3785.940, 82193.17
3787.869, 82133.45
3789.797, 82216.80
3791.726, 82481.97
3793.654, 82416.20
3795.583, 82221.00
3797.511, 82184.52
3799.440, 82271.52
3801.368, 82509.64
3803.297, 82582.68
3805.225, 82472.56
3807.154, 82238.29
3809.082, 82060.04
3811.010, 82189.95
3812.939, 82331.79
3814.867, 82411.17
3816.796, 82484.46
3818.724, 82535.45
3820.653, 82418.37
3822.581, 82346.04
3824.510, 82565.95
3826.438, 82640.09
3828.367, 82525.11
3830.295, 82536.27
3832.224, 82599.56
3834.152, 82565.21
3836.081, 82523.94
3838.009, 82499.26
3839.938, 82557.09
3841.866, 82669.12
3843.794, 82644.86
3845.723, 82605.72
3847.651, 82694.84
3849.580, 82646.92
3851.508, 82449.69
3853.437, 82488.41
3855.365, 82630.23
3857.294, 82585.13
3859.222, 82499.65
3861.151, 82437.23
3863.079, 82374.38
3865.008, 82306.35
3866.936, 82197.95
3868.865, 82090.57
3870.793, 82000.45
3872.721, 82004.22
3874.650, 82163.59
3876.578, 82065.34
3878.507, 81872.98
3880.435, 81937.84
3882.364, 82002.05
3884.292, 81955.45
3886.221, 81862.88
3888.149, 81742.91
3890.078, 81645.07
3892.006, 81574.37
3893.935, 81555.02
3895.863, 81516.76
3897.792, 81449.54
3899.720, 81371.83
3901.648, 81297.37
3903.577, 81258.62
3905.505, 81213.34
3907.434, 81138.30
3909.362, 81090.73
3911.291, 81063.87
3913.219, 81054.57
3915.148, 81014.82
3917.076, 80879.63
3919.005, 80777.88
3920.933, 80732.54
3922.862, 80707.82
3924.790, 80647.91
3926.719, 80459.59
3928.647, 80388.10
3930.575, 80553.82
3932.504, 80463.91
3934.432, 80266.37
3936.361, 80357.23
3938.289, 80414.22
3940.218, 80265.90
3942.146, 80054.93
3944.075, 79857.93
3946.003, 80022.54
3947.932, 80213.48
3949.860, 80131.52
3951.789, 79947.63
3953.717, 79728.27
3955.646, 79760.91
3957.574, 79869.38
3959.502, 79725.45
3961.431, 79615.82
3963.359, 79626.60
3965.288, 79617.99
3967.216, 79584.45
3969.145, 79587.27
3971.073, 79500.55
3973.002, 79226.26
3974.930, 79165.59
3976.859, 79223.52
3978.787, 79195.61
3980.716, 79088.20
3982.644, 78970.97
3984.573, 78962.13
3986.501, 79004.52
3988.429, 78887.38
3990.358, 78738.53
3992.286, 78729.19
3994.215, 78668.86
3996.143, 78578.16
3998.072, 78504.73
4000.000, 78403.80
4001.929, 78366.29
4003.857, 78299.83
4005.786, 78269.91
4007.714, 78283.41
4009.643, 78213.09
4011.571, 78163.98
4013.500, 78105.17
4015.428, 77896.64
4017.356, 77891.20
4019.285, 77971.45
4021.213, 77940.98
4023.142, 77892.10
4025.070, 77832.46
4026.999, 77681.05
4028.927, 77593.23
4030.856, 77531.98
4032.784, 77460.69
4034.713, 77448.98
4036.641, 77329.52
4038.570, 77262.99
4040.498, 77320.48
4042.427, 77258.56
4044.355, 77114.55
4046.283, 77068.64
4048.212, 76996.49
4050.140, 76881.46
4052.069, 76803.77
4053.997, 76751.62
4055.926, 76692.34
4057.854, 76625.38
4059.783, 76595.01
4061.711, 76562.64
4063.640, 76511.91
4065.568, 76451.53
4067.497, 76389.64
4069.425, 76326.22
4071.354, 76263.32
4073.282, 76202.28
4075.210, 76155.80
4077.139, 76080.18
4079.067, 75897.52
4080.996, 75781.89
4082.924, 75754.87
4084.853, 75680.41
4086.781, 75639.30
4088.710, 75659.53
4090.638, 75662.38
4092.567, 75613.38
4094.495, 75518.67
4096.424, 75464.93
4098.352, 75452.37
4100.280, 75351.63
4102.209, 75198.98
4104.138, 75134.41
4106.066, 75117.10
4107.994, 75106.02
4109.923, 75037.27
4111.852, 74912.81
4113.780, 74757.34
4115.708, 74623.32
4117.637, 74543.41
4119.565, 74527.87
4121.494, 74579.22
4123.422, 74504.03
4125.351, 74420.12
4127.279, 74482.48
4129.208, 74497.78
4131.136, 74440.29
4133.064, 74418.13
4134.993, 74369.92
4136.921, 74189.41
4138.850, 74098.21
4140.778, 74142.11
4142.707, 74048.38
4144.635, 73927.66
4146.563, 73950.38
4148.492, 73883.78
4150.421, 73704.27
4152.349, 73681.43
4154.277, 73714.76
4156.206, 73699.41
4158.135, 73659.36
4160.063, 73593.30
4161.991, 73496.86
4163.920, 73419.03
4165.849, 73484.17
4167.777, 73368.22
4169.705, 73059.34
4171.634, 72975.62
4173.563, 72991.35
4175.491, 73143.96
4177.419, 73163.78
4179.348, 72926.70
4181.276, 72761.13
4183.205, 72659.27
4185.133, 72555.04
4187.062, 72513.17
4188.990, 72573.67
4190.918, 72584.25
4192.847, 72551.38
4194.775, 72511.76
4196.704, 72386.04
4198.632, 72199.92
4200.561, 72202.64
4202.489, 72226.38
4204.418, 72149.09
4206.346, 72142.30
4208.274, 72227.93
4210.203, 72214.07
4212.132, 72152.91
4214.060, 72090.64
4215.988, 72033.19
4217.917, 71996.93
4219.846, 71931.79
4221.774, 71866.23
4223.702, 71941.91
4225.631, 71762.80
4227.560, 71384.85
4229.488, 71607.80
4231.416, 71857.33
4233.345, 71645.30
4235.273, 71468.59
4237.202, 71370.42
4239.130, 71423.01
4241.059, 71469.84
4242.987, 71384.22
4244.916, 71442.73
4246.844, 71528.89
4248.772, 71306.65
4250.701, 71127.28
4252.629, 71187.87
4254.558, 71238.86
4256.486, 71283.20
4258.415, 71326.95
4260.343, 71382.04
4262.271, 71461.32
4264.200, 71485.02
4266.129, 71449.01
4268.057, 71278.92
4269.985, 71238.82
4271.914, 71381.44
4273.843, 71413.25
4275.771, 71380.78
4277.699, 71311.55
4279.628, 71219.98
4281.557, 71137.60
4283.485, 71297.80
4285.413, 71471.32
4287.342, 71513.73
4289.271, 71419.21
4291.199, 71266.63
4293.127, 71312.05
4295.056, 71400.40
4296.984, 71491.45
4298.913, 71450.27
4300.841, 71354.48
4302.770, 71335.97
4304.698, 71346.21
4306.626, 71377.53
4308.555, 71337.77
4310.483, 71337.06
4312.412, 71569.09
4314.340, 71587.91
4316.269, 71386.79
4318.197, 71337.46
4320.126, 71363.41
4322.054, 71454.85
4323.982, 71353.67
4325.911, 71204.71
4327.840, 71548.48
4329.768, 71722.53
4331.696, 71509.60
4333.625, 71373.91
4335.554, 71317.82
4337.482, 71330.96
4339.410, 71393.40
4341.339, 71486.75
4343.268, 71528.57
4345.196, 71534.03
4347.124, 71516.80
4349.053, 71439.38
4350.981, 71341.96
4352.910, 71318.95
4354.838, 71383.89
4356.767, 71541.92
4358.695, 71483.52
4360.624, 71365.88
4362.552, 71413.39
4364.480, 71430.65
4366.409, 71407.09
4368.337, 71524.87
4370.266, 71627.01
4372.194, 71586.24
4374.123, 71541.34
4376.051, 71509.95
4377.979, 71512.40
4379.908, 71566.92
4381.837, 71692.38
4383.765, 71672.71
4385.693, 71605.95
4387.622, 71563.26
4389.551, 71637.92
4391.479, 71776.01
4393.407, 71634.98
4395.336, 71546.25
4397.265, 71657.63
4399.193, 71601.05
4401.121, 71501.05
4403.050, 71568.33
4404.979, 71654.34
4406.907, 71716.77
4408.835, 71611.94
4410.764, 71576.42
4412.692, 71794.23
4414.621, 71809.00
4416.549, 71724.92
4418.478, 71811.99
4420.406, 71853.71
4422.334, 71800.08
4424.263, 71809.13
4426.191, 71803.81
4428.120, 71691.45
4430.048, 71670.77
4431.977, 71721.55
4433.905, 71793.63
4435.834, 71805.22
4437.762, 71738.60
4439.690, 71847.62
4441.619, 71947.57
4443.548, 71876.55
4445.476, 71804.57
4447.404, 71761.17
4449.333, 71809.24
4451.262, 71771.85
4453.190, 71606.30
4455.118, 71641.98
4457.047, 71719.02
4458.976, 71656.34
4460.904, 71676.95
4462.832, 71754.45
4464.761, 71789.76
4466.689, 71763.37
4468.618, 71663.15
4470.546, 71694.45
4472.475, 71754.13
4474.403, 71751.91
4476.332, 71885.16
4478.260, 72033.90
4480.188, 71807.23
4482.117, 71669.60
4484.045, 71727.51
4485.974, 71867.77
4487.902, 71973.27
4489.831, 71936.34
4491.759, 71896.23
4493.688, 71869.76
4495.616, 71921.66
4497.545, 71853.56
4499.473, 71657.87
4501.401, 71769.20
4503.330, 71874.72
4505.259, 71813.81
4507.187, 71726.78
4509.115, 71664.17
4511.044, 71700.36
4512.973, 71696.09
4514.901, 71656.98
4516.829, 71685.66
4518.758, 71739.51
4520.687, 71802.59
4522.615, 71890.63
4524.543, 71944.41
4526.472, 71896.23
4528.400, 71853.15
4530.329, 71816.41
4532.257, 71732.59
4534.186, 71734.70
4536.114, 71824.73
4538.042, 71764.27
4539.971, 71738.21
4541.899, 71908.86
4543.828, 71961.55
4545.756, 71923.22
4547.685, 71759.29
4549.613, 71867.38
4551.542, 72138.93
4553.470, 71866.14
4555.398, 71679.13
4557.327, 71752.86
4559.256, 71794.66
4561.184, 71802.30
4563.112, 71750.10
4565.041, 71846.16
4566.970, 71998.45
4568.898, 72091.07
4570.826, 71959.89
4572.755, 71662.36
4574.684, 71585.62
4576.612, 71618.64
4578.540, 71716.11
4580.469, 71836.99
4582.397, 71880.61
4584.326, 71719.79
4586.254, 71704.98
4588.183, 71774.80
4590.111, 71804.77
4592.040, 71822.40
4593.968, 71836.30
4595.896, 71880.59
4597.825, 71900.44
4599.753, 71875.27
4601.682, 71689.52
4603.610, 71575.67
4605.539, 71763.63
4607.467, 71767.46
4609.396, 71687.84
4611.324, 71643.25
4613.253, 71813.13
4615.181, 72072.19
4617.109, 71939.27
4619.038, 71803.26
4620.967, 71758.29
4622.895, 71754.34
4624.823, 71774.04
4626.752, 71828.11
4628.681, 71755.16
4630.609, 71674.77
4632.537, 71698.05
4634.466, 71775.36
4636.395, 71870.44
4638.323, 71961.19
4640.251, 71963.58
4642.180, 71870.80
4644.108, 71638.32
4646.037, 71562.52
4647.965, 71734.36
4649.894, 71772.88
4651.822, 71732.46
4653.750, 71636.94
4655.679, 71647.16
4657.607, 71674.70
4659.536, 71607.69
4661.464, 71577.09
4663.393, 71588.91
4665.321, 71686.49
4667.250, 71608.88
4669.178, 71419.73
4671.106, 71499.09
4673.035, 71572.33
4674.964, 71573.52
4676.892, 71585.50
4678.820, 71613.08
4680.749, 71666.87
4682.678, 71623.57
4684.606, 71556.56
4686.534, 71515.30
4688.463, 71484.32
4690.392, 71484.61
4692.320, 71580.31
4694.248, 71551.16
4696.177, 71475.30
4698.105, 71587.64
4700.034, 71629.75
4701.962, 71572.23
4703.891, 71416.34
4705.819, 71375.44
4707.748, 71493.35
4709.676, 71611.80
4711.604, 71611.66
4713.533, 71439.01
4715.461, 71402.23
4717.390, 71424.23
4719.318, 71458.08
4721.247, 71431.41
4723.175, 71370.83
4725.104, 71289.29
4727.032, 71271.34
4728.961, 71294.63
4730.889, 71329.91
4732.817, 71367.81
4734.746, 71354.29
4736.675, 71114.51
4738.603, 71003.80
4740.531, 71059.25
4742.460, 71239.70
4744.389, 71238.41
4746.317, 71056.84
4748.245, 71146.74
4750.174, 71234.90
4752.103, 71207.88
4754.031, 71108.09
4755.959, 71028.10
4757.888, 71014.52
4759.816, 71123.93
4761.745, 71205.69
4763.673, 71120.27
4765.602, 71119.80
4767.530, 71070.17
4769.458, 70799.80
4771.387, 70775.96
4773.315, 70847.51
4775.244, 70736.87
4777.172, 70785.90
4779.101, 70888.40
4781.029, 70745.67
4782.958, 70849.70
4784.886, 71050.15
4786.814, 70750.30
4788.743, 70630.41
4790.672, 70713.79
4792.600, 70618.48
4794.528, 70576.59
4796.457, 70611.90
4798.386, 70571.14
4800.314, 70577.76
4802.242, 70648.55
4804.171, 70622.30
4806.100, 70515.65
4808.028, 70355.73
4809.956, 70391.83
4811.885, 70455.98
4813.813, 70469.97
4815.742, 70373.48
4817.670, 70279.33
4819.599, 70246.22
4821.527, 70297.60
4823.456, 70283.66
4825.384, 70078.81
4827.313, 70159.68
4829.241, 70253.34
4831.169, 70153.02
4833.098, 70144.17
4835.026, 70130.27
4836.955, 69997.20
4838.883, 69894.04
4840.812, 69858.53
4842.740, 69934.59
4844.669, 69933.48
4846.597, 69890.84
4848.525, 69848.97
4850.454, 69864.34
4852.383, 69854.38
4854.311, 69700.83
4856.239, 69674.20
4858.168, 69690.05
4860.097, 69569.42
4862.025, 69618.40
4863.953, 69685.01
4865.882, 69496.63
4867.811, 69498.88
4869.739, 69569.38
4871.667, 69401.72
4873.596, 69406.70
4875.524, 69489.28
4877.453, 69450.24
4879.381, 69363.44
4881.310, 69298.87
4883.238, 69399.77
4885.167, 69385.14
4887.095, 69276.35
4889.023, 69093.41
4890.952, 69120.18
4892.880, 69246.10
4894.809, 69255.06
4896.737, 69174.23
4898.666, 69038.13
4900.594, 68843.98
4902.522, 68821.06
4904.451, 68885.28
4906.380, 68867.04
4908.308, 68865.17
4910.236, 68878.02
4912.165, 68888.02
4914.094, 68912.59
4916.022, 68881.35
4917.950, 68648.30
4919.879, 68679.02
4921.808, 68788.34
4923.736, 68616.72
4925.664, 68476.49
4927.593, 68439.40
4929.521, 68623.73
4931.450, 68486.22
4933.378, 68310.37
4935.307, 68521.41
4937.235, 68413.08
4939.164, 68221.43
4941.092, 68280.30
4943.021, 68071.12
4944.949, 67962.84
4946.877, 68329.34
4948.806, 68242.64
4950.734, 67992.22
4952.663, 67838.02
4954.591, 67908.09
4956.520, 67989.48
4958.448, 67944.41
4960.377, 67974.08
4962.305, 67898.52
4964.233, 67604.14
4966.162, 67668.77
4968.091, 67791.09
4970.019, 67811.71
4971.947, 67782.60
4973.876, 67623.09
4975.805, 67349.95
4977.733, 67344.48
4979.661, 67394.95
4981.590, 67412.20
4983.519, 67327.90
4985.447, 67207.00
4987.375, 67121.08
4989.304, 67414.00
4991.232, 67261.83
4993.161, 66792.73
4995.089, 67070.34
4997.018, 67184.58
4998.946, 67040.53
5000.875, 66723.94
5002.803, 66808.45
5004.731, 67004.59
5006.660, 66596.16
5008.588, 66624.81
5010.517, 66751.65
5012.445, 66395.98
5014.374, 66460.32
5016.302, 66635.34
5018.230, 66581.91
5020.159, 66379.04
5022.088, 66199.59
5024.016, 66161.66
5025.944, 66267.94
5027.873, 66249.70
5029.802, 66021.15
5031.730, 66098.38
5033.658, 66139.42
5035.587, 66033.78
5037.516, 65945.84
5039.444, 65935.21
5041.372, 65963.35
5043.301, 65807.45
5045.229, 65710.98
5047.158, 65676.60
5049.086, 65607.70
5051.015, 65545.80
5052.943, 65495.25
5054.872, 65452.08
5056.800, 65434.36
5058.729, 65430.56
5060.657, 65431.34
5062.585, 65329.35
5064.514, 65230.63
5066.442, 65214.19
5068.371, 65214.66
5070.299, 65089.77
5072.228, 64819.03
5074.156, 64890.82
5076.085, 64911.88
5078.013, 64806.73
5079.941, 64687.63
5081.870, 64688.65
5083.799, 64763.24
5085.727, 64764.32
5087.655, 64729.91
5089.584, 64655.94
5091.513, 64526.20
5093.441, 64430.70
5095.369, 64274.75
5097.298, 63928.53
5099.227, 63926.07
5101.155, 64025.95
5103.083, 64090.06
5105.012, 63869.93
5106.940, 63752.82
5108.869, 63780.59
5110.797, 63625.34
5112.726, 63595.43
5114.654, 63634.17
5116.583, 63461.23
5118.511, 63432.80
5120.439, 63421.77
5122.368, 63232.70
5124.296, 63254.20
5126.225, 63240.29
5128.153, 62994.13
5130.082, 63091.73
5132.010, 63058.57
5133.938, 62797.20
5135.867, 62963.96
5137.796, 63000.52
5139.724, 62879.23
5141.652, 62824.77
5143.581, 62748.74
5145.510, 62644.67
5147.438, 62475.59
5149.366, 62577.72
5151.295, 62611.58
5153.224, 62370.24
5155.152, 62337.67
5157.080, 62386.04
5159.009, 62420.33
5160.938, 62198.66
5162.866, 62164.74
5164.794, 62229.72
5166.723, 61950.06
5168.651, 61946.54
5170.580, 62056.08
5172.508, 62037.70
5174.437, 62024.94
5176.365, 61914.38
5178.293, 61656.40
5180.222, 61632.35
5182.150, 61724.59
5184.079, 61803.59
5186.007, 61550.52
5187.936, 61408.85
5189.864, 61354.71
5191.793, 61254.55
5193.721, 61224.49
5195.649, 61204.69
5197.578, 61149.22
5199.507, 61167.65
5201.435, 61166.24
5203.363, 61104.64
5205.292, 60892.47
5207.221, 60894.55
5209.149, 60964.69
5211.077, 60762.55
5213.006, 60636.37
5214.935, 60560.54
5216.863, 60503.45
5218.791, 60484.29
5220.720, 60398.70
5222.648, 60250.04
5224.577, 60155.91
5226.505, 60172.25
5228.434, 60213.19
5230.362, 60125.37
5232.291, 60078.39
5234.219, 60065.71
5236.147, 60070.26
5238.076, 59992.34
5240.004, 59850.03
5241.933, 59681.04
5243.861, 59555.80
5245.790, 59508.24
5247.718, 59497.89
5249.646, 59500.84
5251.575, 59264.19
5253.504, 59146.89
5255.432, 59276.47
5257.360, 59222.50
5259.289, 59037.31
5261.218, 58864.82
5263.146, 59017.45
5265.074, 59024.09
5267.003, 58962.63
5268.932, 58934.27
5270.860, 58767.37
5272.788, 58687.52
5274.717, 58700.11
5276.646, 58518.38
5278.574, 58344.82
5280.502, 58208.24
5282.431, 58114.32
5284.359, 57965.86
5286.288, 57868.07
5288.216, 57876.45
5290.145, 58071.93
5292.073, 58017.08
5294.001, 57767.15
5295.930, 57551.55
5297.858, 57610.02
5299.787, 57686.64
5301.715, 57597.32
5303.644, 57550.32
5305.572, 57432.47
5307.501, 57241.88
5309.429, 57029.91
5311.357, 56962.15
5313.286, 57021.64
5315.215, 57159.30
5317.143, 57044.85
5319.071, 56914.36
5321.000, 56844.82
5322.929, 56830.34
5324.857, 56627.70
5326.785, 56450.44
5328.714, 56524.62
5330.643, 56525.09
5332.571, 56436.18
5334.499, 56306.39
5336.428, 56332.58
5338.356, 56135.39
5340.285, 55905.04
5342.213, 55892.46
5344.142, 55854.63
5346.070, 55815.96
5347.999, 55749.58
5349.927, 55476.11
5351.855, 55506.70
5353.784, 55537.09
5355.712, 55212.05
5357.641, 55252.80
5359.569, 55334.04
5361.498, 55330.39
5363.426, 55311.80
5365.354, 55199.69
5367.283, 55039.82
5369.212, 54881.69
5371.140, 54649.24
5373.068, 54577.44
5374.997, 54635.80
5376.926, 54522.10
5378.854, 54723.56
5380.782, 54719.29
5382.711, 54069.57
5384.640, 54080.81
5386.568, 54201.94
5388.496, 54205.12
5390.425, 53953.80
5392.354, 53766.14
5394.282, 53609.27
5396.210, 53463.36
5398.139, 53478.20
5400.067, 53507.82
5401.996, 53478.20
5403.924, 53281.58
5405.853, 53328.90
5407.781, 53336.16
5409.709, 53199.16
5411.638, 53051.68
5413.566, 52963.90
5415.495, 52867.92
5417.423, 52694.80
5419.352, 52579.14
5421.280, 52611.69
5423.209, 52709.60
5425.137, 52594.00
5427.065, 52496.53
5428.994, 52445.34
5430.923, 52436.28
5432.851, 52374.23
5434.779, 52260.14
5436.708, 52120.77
5438.637, 51988.75
5440.565, 51934.27
5442.493, 51878.89
5444.422, 51789.07
5446.351, 51685.46
5448.279, 51443.54
5450.207, 51288.20
5452.136, 51387.96
5454.064, 51358.12
5455.993, 51349.29
5457.921, 51318.18
5459.850, 51142.41
5461.778, 50989.08
5463.707, 50943.69
5465.635, 50960.92
5467.563, 50777.46
5469.492, 50656.68
5471.420, 50576.14
5473.349, 50494.79
5475.277, 50346.91
5477.206, 50307.61
5479.134, 50313.91
5481.063, 50219.41
5482.991, 50171.44
5484.920, 50065.45
5486.848, 49878.73
5488.776, 49627.95
5490.705, 49706.39
5492.634, 49762.81
5494.562, 49581.51
5496.490, 49408.99
5498.419, 49412.14
5500.348, 49450.89
5502.276, 49340.49
5504.204, 49225.92
5506.133, 49160.10
5508.062, 49083.18
5509.990, 48860.29
5511.918, 48754.20
5513.847, 48709.02
5515.775, 48683.64
5517.704, 48729.42
5519.632, 48415.65
5521.561, 48210.07
5523.489, 48399.78
5525.417, 48313.82
5527.346, 48253.31
5529.274, 48159.09
5531.203, 47912.02
5533.131, 47696.13
5535.060, 47712.78
5536.988, 47794.86
5538.917, 47618.47
5540.845, 47562.71
5542.773, 47559.75
5544.702, 47540.19
5546.631, 47416.79
5548.559, 47354.43
5550.487, 47231.39
5552.416, 47041.76
5554.345, 47128.81
5556.273, 47033.03
5558.201, 46901.06
5560.130, 46850.64
5562.059, 46558.46
5563.987, 46459.97
5565.915, 46491.35
5567.844, 46503.28
5569.772, 46386.25
5571.701, 46241.50
5573.629, 46193.96
5575.558, 46385.36
5577.486, 46050.91
5579.415, 45847.50
5581.343, 45840.72
5583.271, 45767.76
5585.200, 45695.49
5587.128, 45632.41
5589.057, 45549.15
5590.985, 45366.01
5592.914, 45452.06
5594.842, 45422.14
5596.771, 45189.02
5598.699, 45019.63
5600.628, 45061.01
5602.556, 45043.46
5604.484, 44878.49
5606.413, 44856.22
5608.342, 44748.98
5610.270, 44630.72
5612.198, 44560.89
5614.127, 44577.26
5616.056, 44373.90
5617.984, 44113.65
5619.912, 43956.75
5621.841, 43996.77
5623.770, 43918.94
5625.698, 43852.96
5627.626, 43900.07
5629.555, 43826.61
5631.483, 43632.52
5633.412, 43459.81
5635.340, 43402.48
5637.269, 43266.07
5639.197, 43165.43
5641.125, 43084.64
5643.054, 42991.58
5644.982, 42906.59
5646.911, 42907.57
5648.839, 42902.75
5650.768, 42806.41
5652.696, 42782.10
5654.625, 42672.23
5656.553, 42532.34
5658.481, 42448.27
5660.410, 42489.43
5662.339, 42490.24
5664.267, 42385.96
5666.195, 42174.71
5668.124, 42090.76
5670.053, 42002.75
5671.981, 41922.33
5673.909, 41878.49
5675.838, 41841.59
5677.767, 41636.50
5679.695, 41460.41
5681.623, 41475.95
5683.552, 41501.35
5685.480, 41392.99
5687.409, 41196.63
5689.337, 40996.39
5691.266, 40940.48
5693.194, 41035.63
5695.123, 41020.02
5697.051, 40799.86
5698.979, 40728.52
5700.908, 40645.71
5702.836, 40567.18
5704.765, 40506.30
5706.693, 40418.48
5708.622, 40442.25
5710.550, 40358.53
5712.479, 40164.65
5714.407, 40251.86
5716.336, 40151.92
5718.264, 39967.01
5720.192, 39792.94
5722.121, 39699.70
5724.050, 39721.25
5725.978, 39605.13
5727.906, 39427.28
5729.835, 39440.78
5731.764, 39386.65
5733.692, 39386.76
5735.620, 39352.87
5737.549, 39152.17
5739.478, 39087.61
5741.406, 39028.31
5743.334, 38971.21
5745.263, 38937.71
5747.191, 38844.64
5749.120, 38686.48
5751.048, 38601.64
5752.977, 38635.54
5754.905, 38474.61
5756.833, 38351.20
5758.762, 38268.29
5760.690, 38204.94
5762.619, 38154.11
5764.547, 38028.70
5766.476, 37912.29
5768.404, 37842.82
5770.333, 37820.95
5772.261, 37730.71
5774.189, 37750.22
5776.118, 37696.90
5778.047, 37355.63
5779.975, 37376.44
5781.903, 37338.25
5783.832, 37242.78
5785.761, 37153.01
5787.689, 36943.35
5789.617, 36975.54
5791.546, 37011.25
5793.475, 36919.31
5795.403, 36771.00
5797.331, 36722.25
5799.260, 36566.14
5801.188, 36403.52
5803.117, 36581.05
5805.045, 36574.24
5806.974, 36404.18
5808.902, 36201.91
5810.831, 36087.26
5812.759, 36053.10
5814.688, 35990.24
5816.616, 35955.56
5818.544, 35943.11
5820.473, 35801.78
5822.401, 35586.94
5824.330, 35507.52
5826.258, 35524.36
5828.187, 35465.17
5830.115, 35291.98
5832.044, 35255.15
5833.972, 35196.61
5835.900, 34983.86
5837.829, 34929.63
5839.758, 34881.73
5841.686, 34806.86
5843.614, 34715.91
5845.543, 34655.46
5847.472, 34551.80
5849.400, 34559.14
5851.328, 34582.65
5853.257, 34458.67
5855.186, 34299.60
5857.114, 34301.14
5859.042, 34344.46
5860.971, 34303.53
5862.899, 34043.52
5864.828, 33939.89
5866.756, 33850.46
5868.685, 33766.46
5870.613, 33758.08
5872.542, 33626.00
5874.470, 33501.38
5876.398, 33396.82
5878.327, 33317.42
5880.255, 33322.05
5882.184, 33305.36
5884.112, 33229.02
5886.041, 33109.87
5887.969, 32987.17
5889.897, 32948.41
5891.826, 32830.25
5893.755, 32663.24
5895.683, 32549.57
5897.611, 32679.68
5899.540, 32524.15
5901.469, 32472.85
5903.397, 32512.53
5905.325, 32426.78
5907.254, 32156.10
5909.183, 32188.74
5911.111, 32225.68
5913.039, 32091.37
5914.968, 31936.71
5916.896, 31818.94
5918.825, 31725.37
5920.753, 31646.11
5922.682, 31581.11
5924.610, 31628.49
5926.539, 31513.96
5928.467, 31315.44
5930.396, 31174.92
5932.324, 31306.68
5934.252, 31192.32
5936.181, 31099.53
5938.109, 31048.15
5940.038, 30979.72
5941.966, 30758.30
5943.895, 30825.23
5945.823, 30774.98
5947.752, 30621.12
5949.680, 30549.53
5951.608, 30465.50
5953.537, 30395.29
5955.466, 30264.26
5957.394, 30164.31
5959.322, 30311.66
5961.251, 30157.70
5963.180, 30020.47
5965.108, 29937.09
5967.036, 29870.41
5968.965, 29793.70
5970.894, 29725.95
5972.822, 29631.29
5974.750, 29554.13
5976.679, 29552.63
5978.607, 29665.28
5980.536, 29534.27
5982.464, 29313.83
5984.393, 29208.19
5986.321, 29304.17
5988.250, 29095.33
5990.178, 28995.84
5992.106, 28999.07
5994.035, 28993.70
5995.963, 28876.51
5997.892, 28823.21
5999.820, 28540.10
6001.749, 28463.13
6003.677, 28636.75
6005.605, 28521.59
6007.534, 28377.08
6009.463, 28327.32
6011.391, 28275.31
6013.319, 28145.05
6015.248, 27965.52
6017.177, 27927.72
6019.105, 27910.05
6021.033, 27854.87
6022.962, 27774.20
6024.891, 27776.58
6026.819, 27556.15
6028.747, 27457.48
6030.676, 27450.98
6032.604, 27413.77
6034.533, 27404.69
6036.461, 27313.76
6038.390, 27115.45
6040.318, 27018.57
6042.247, 27144.33
6044.175, 27115.38
6046.104, 27021.62
6048.032, 26942.06
6049.960, 26842.22
6051.889, 26685.72
6053.817, 26572.17
6055.746, 26627.30
6057.674, 26547.31
6059.603, 26440.20
6061.531, 26462.34
6063.460, 26246.16
6065.388, 26173.20
6067.316, 26111.21
6069.245, 26046.35
6071.174, 26013.17
6073.102, 25966.00
6075.030, 25949.72
6076.959, 25794.80
6078.888, 25660.93
6080.816, 25687.60
6082.744, 25674.07
6084.673, 25566.75
6086.602, 25501.44
6088.530, 25411.23
6090.458, 25251.38
6092.387, 25156.65
6094.315, 25215.93
6096.244, 25112.88
6098.172, 24973.21
6100.101, 24913.36
6102.029, 24849.05
6103.958, 24833.77
6105.886, 24685.91
6107.814, 24607.61
6109.743, 24636.55
6111.671, 24568.82
6113.600, 24296.09
6115.528, 24306.18
6117.457, 24334.92
6119.385, 24240.45
6121.313, 24094.98
6123.242, 24037.82
6125.171, 24030.98
6127.099, 24027.12
6129.027, 23974.10
6130.956, 23844.63
6132.885, 23622.25
6134.813, 23769.07
6136.741, 23691.19
6138.670, 23487.18
6140.599, 23382.72
6142.527, 23348.53
6144.455, 23222.48
6146.384, 23198.70
6148.313, 23186.46
6150.241, 23123.36
6152.169, 23046.79
6154.098, 22965.66
6156.026, 22996.29
6157.955, 22907.75
6159.883, 22800.02
6161.812, 22817.37
6163.740, 22595.73
6165.668, 22587.50
6167.597, 22526.76
6169.525, 22408.43
6171.454, 22336.70
6173.382, 22376.98
6175.311, 22362.98
6177.239, 22213.15
6179.168, 22068.35
6181.096, 22016.43
6183.024, 22039.41
6184.953, 21984.52
6186.882, 21896.83
6188.810, 21870.90
6190.738, 21776.53
6192.667, 21604.35
6194.596, 21651.29
6196.524, 21536.89
6198.452, 21532.81
6200.381, 21414.39
6202.310, 21270.91
6204.238, 21354.38
6206.166, 21254.05
6208.095, 21144.11
6210.023, 21039.59
6211.952, 20947.35
6213.880, 20896.52
6215.809, 20946.09
6217.737, 20871.61
6219.666, 20700.09
6221.594, 20704.86
6223.522, 20731.41
6225.451, 20552.02
6227.379, 20491.93
6229.308, 20332.72
6231.236, 20342.23
6233.165, 20337.52
6235.093, 20238.93
6237.021, 20156.21
6238.950, 20075.35
6240.879, 20035.05
6242.807, 20000.21
6244.735, 19947.77
6246.664, 19883.27
6248.593, 19832.38
6250.521, 19673.63
6252.449, 19685.65
6254.378, 19688.32
6256.307, 19646.81
6258.235, 19583.23
6260.163, 19415.52
6262.092, 19361.69
6264.021, 19314.50
6265.949, 19299.35
6267.877, 19300.41
6269.806, 19253.43
6271.734, 19094.69
6273.663, 19165.21
6275.591, 18988.23
6277.520, 18825.70
6279.448, 18812.83
6281.376, 18841.35
6283.305, 18800.57
6285.233, 18656.94
6287.162, 18687.83
6289.090, 18652.82
6291.019, 18477.19
6292.947, 18325.76
6294.876, 18434.99
6296.804, 18323.65
6298.732, 18313.30
6300.661, 18222.73
6302.590, 18113.75
6304.518, 18246.65
6306.446, 18175.67
6308.375, 17994.43
6310.304, 17963.30
6312.232, 17893.15
6314.160, 17761.66
6316.089, 17717.28
6318.018, 17691.75
6319.946, 17712.37
6321.874, 17670.98
6323.803, 17530.11
6325.731, 17434.87
6327.660, 17472.39
6329.588, 17322.62
6331.517, 17336.39
6333.445, 17361.26
6335.374, 17313.69
6337.302, 17213.31
6339.230, 17111.43
6341.159, 17036.20
6343.087, 16935.10
6345.016, 16941.34
6346.944, 16934.19
6348.873, 16882.64
6350.801, 16821.37
6352.729, 16772.96
6354.658, 16657.09
6356.587, 16642.61
6358.515, 16645.06
6360.443, 16573.55
6362.372, 16466.39
6364.301, 16435.24
6366.229, 16380.84
6368.157, 16337.17
6370.086, 16290.31
6372.015, 16258.72
6373.943, 16190.30
6375.871, 16083.04
6377.800, 16139.89
6379.729, 16021.09
6381.657, 15985.14
6383.585, 15930.20
6385.514, 15846.49
6387.442, 15803.96
6389.371, 15831.45
6391.299, 15661.46
6393.228, 15717.75
6395.156, 15662.63
6397.084, 15546.52
6399.013, 15464.64
6400.941, 15418.03
6402.870, 15389.61
6404.798, 15378.94
6406.727, 15347.86
6408.655, 15177.86
6410.584, 15137.08
6412.512, 15230.31
6414.440, 15109.78
6416.369, 15111.06
6418.298, 15121.01
6420.226, 14980.08
6422.154, 14867.68
6424.083, 14839.12
6426.012, 14800.66
6427.940, 14675.26
6429.868, 14788.24
6431.797, 14694.46
6433.726, 14566.23
6435.654, 14510.73
6437.582, 14526.13
6439.511, 14552.88
6441.439, 14456.58
6443.368, 14448.12
6445.296, 14398.96
6447.225, 14305.76
6449.153, 14276.50
6451.082, 14233.75
6453.010, 14093.60
6454.938, 14216.52
6456.867, 14129.16
6458.795, 14020.70
6460.724, 13918.96
6462.652, 13870.14
6464.581, 13877.67
6466.509, 13881.55
6468.438, 13816.55
6470.366, 13828.09
6472.295, 13800.18
6474.223, 13694.01
6476.151, 13604.33
6478.080, 13544.13
6480.009, 13460.50
6481.937, 13482.16
6483.865, 13575.46
6485.794, 13401.53
6487.723, 13288.76
6489.651, 13291.65
6491.579, 13340.35
6493.508, 13340.24
6495.437, 13137.12
6497.365, 13122.74
6499.293, 13126.17
6501.222, 13115.26
6503.150, 13041.42
6505.079, 12961.58
6507.007, 12942.43
6508.936, 12931.90
6510.864, 12787.50
6512.792, 12804.05
6514.721, 12837.55
6516.649, 12823.33
6518.578, 12721.46
6520.506, 12622.72
6522.435, 12657.25
6524.363, 12555.96
6526.292, 12531.00
6528.220, 12465.67
6530.148, 12543.63
6532.077, 12522.64
6534.006, 12423.58
6535.934, 12440.29
6537.862, 12305.66
6539.791, 12233.20
6541.720, 12226.38
6543.648, 12152.16
6545.576, 12168.72
6547.505, 12159.61
6549.434, 12049.36
6551.362, 12005.12
6553.290, 12025.62
6555.219, 11997.21
6557.147, 12011.68
6559.076, 11849.46
6561.004, 11797.82
6562.933, 11847.06
6564.861, 11814.68
6566.790, 11769.31
6568.718, 11665.30
6570.646, 11539.18
##END=



