##NAMES=Betekhtinite
##RRUFFID=R070087
##IDEAL CHEMISTRY=(Cu,Fe)_21_Pb_2_S_15_
##LOCALITY=Dzhezkazgan deposit, central Kazakhstan
##OWNER=RRUFF
##SOURCE=Michael Scott
##DESCRIPTION=Aggregate of black bladed to prismatic crystals associated with quartz
##STATUS=The identification of this mineral has been confirmed by X-ray diffraction and chemical analysis
##URL=https://www.rruff.net/odr/rruff_sample/R070087
##MEASURED CHEMISTRY=(Cu_20.15_Fe_0.85_)(Pb_1.80_Ag_0.11_Fe_0.09_)S_15.00_
##DIFFRACTION SAMPLE DESCRIPTION=Powder
##CELL PARAMETERS=a: 3.9037 b: 14.8002 c: 22.729 alpha: 90 beta: 90 gamma: 90 volume: 1313.19 crystal system: orthorhombic
##FILETYPE=Raman RAW
##RAMAN WAVELENGTH=532

157.6475, 333.1873
159.5759, 342.7991
161.5044, 353.3169
163.4329, 367.5352
165.3613, 382.4936
167.2898, 391.8910
169.2183, 390.2246
171.1467, 389.5016
173.0752, 395.4872
175.0037, 415.5068
176.9321, 429.8217
178.8606, 435.3080
180.7891, 435.1114
182.7175, 434.5699
184.6460, 431.8412
186.5745, 430.5193
188.5029, 432.8469
190.4314, 439.4435
192.3599, 445.7575
194.2883, 452.1369
196.2168, 457.6870
198.1453, 459.8717
200.0737, 453.6255
202.0022, 448.7092
203.9307, 451.0098
205.8591, 461.7471
207.7876, 468.8948
209.7161, 468.8696
211.6445, 463.7778
213.5730, 459.4247
215.5014, 455.8885
217.4299, 453.0009
219.3584, 450.1512
221.2868, 446.2962
223.2153, 445.6876
225.1438, 451.5129
227.0723, 460.1896
229.0007, 465.0250
230.9292, 463.8121
232.8577, 461.3306
234.7861, 459.1369
236.7146, 456.5147
238.6431, 456.2851
240.5715, 461.6450
242.5000, 468.6136
244.4285, 471.9360
246.3569, 466.5462
248.2854, 461.9917
250.2139, 462.0314
252.1423, 467.2327
254.0708, 470.8791
255.9993, 470.7675
257.9277, 469.1745
259.8562, 468.5636
261.7847, 470.2796
263.7131, 471.5869
265.6416, 471.6482
267.5701, 470.8870
269.4985, 470.4567
271.4270, 469.8737
273.3555, 469.6839
275.2839, 471.4567
277.2124, 476.9531
279.1409, 481.4254
281.0693, 482.6546
282.9978, 481.0362
284.9263, 480.2590
286.8547, 481.5659
288.7832, 483.4306
290.7117, 484.4023
292.6401, 484.2426
294.5686, 483.1558
296.4971, 480.5147
298.4255, 477.5280
300.3540, 476.4159
302.2825, 476.9846
304.2109, 478.6073
306.1394, 482.5291
308.0679, 488.9648
309.9963, 492.8185
311.9248, 492.1940
313.8533, 489.5526
315.7817, 488.1842
317.7102, 489.2558
319.6387, 489.4555
321.5671, 486.8902
323.4956, 480.8737
325.4241, 476.1458
327.3525, 471.5301
329.2810, 469.7636
331.2095, 472.9222
333.1379, 483.1778
335.0664, 489.5738
336.9948, 488.4146
338.9233, 480.8334
340.8518, 475.9714
342.7802, 475.8841
344.7087, 476.8917
346.6372, 476.0881
348.5656, 472.9684
350.4941, 471.9363
352.4226, 474.6259
354.3510, 477.7552
356.2795, 478.6403
358.2080, 477.1754
360.1364, 477.4042
362.0649, 477.6367
363.9934, 477.4192
365.9218, 475.4202
367.8503, 470.5819
369.7788, 467.5854
371.7072, 469.0023
373.6357, 475.5872
375.5642, 479.1174
377.4926, 479.0049
379.4211, 476.6180
381.3496, 474.0749
383.2780, 468.4468
385.2065, 463.6600
387.1350, 463.9031
389.0634, 470.0142
390.9919, 475.0306
392.9204, 473.5409
394.8488, 469.8011
396.7773, 468.9855
398.7058, 472.0930
400.6342, 473.5915
402.5627, 475.8420
404.4912, 479.3929
406.4196, 480.2605
408.3481, 468.2949
410.2766, 457.5024
412.2050, 459.8690
414.1335, 475.8427
416.0620, 486.6502
417.9904, 481.6263
419.9189, 471.4757
421.8474, 466.8378
423.7758, 471.6065
425.7043, 475.6967
427.6328, 477.2869
429.5612, 476.4608
431.4897, 473.8394
433.4182, 470.1198
435.3466, 469.4417
437.2751, 472.4294
439.2036, 478.3337
441.1320, 481.7198
443.0605, 480.9929
444.9890, 478.5959
446.9174, 477.0111
448.8459, 478.6180
450.7744, 481.2252
452.7029, 482.3022
454.6313, 481.6385
456.5598, 481.3789
458.4883, 483.1435
460.4167, 486.1094
462.3452, 490.1787
464.2737, 495.9222
466.2021, 498.8141
468.1306, 497.8225
470.0591, 495.8399
471.9875, 494.6388
473.9160, 493.4380
475.8445, 493.0587
477.7729, 495.2728
479.7014, 498.5730
481.6299, 498.3893
483.5583, 492.9200
485.4868, 489.2332
487.4153, 490.5942
489.3437, 495.6680
491.2722, 498.1051
493.2007, 493.2837
495.1291, 487.6154
497.0576, 485.1926
498.9861, 489.7140
500.9145, 495.4788
502.8430, 496.9213
504.7715, 494.9785
506.6999, 491.5248
508.6284, 495.1175
510.5569, 500.7887
512.4854, 505.9406
514.4138, 506.3778
516.3423, 503.0688
518.2708, 501.9379
520.1992, 503.2880
522.1277, 506.4762
524.0562, 507.8452
525.9846, 506.2450
527.9131, 501.3970
529.8416, 499.1494
531.7700, 503.9832
533.6985, 513.2754
535.6270, 518.0720
537.5554, 515.8735
539.4839, 512.3297
541.4124, 512.9157
543.3408, 518.8611
545.2693, 522.8841
547.1978, 521.1349
549.1262, 516.3753
551.0547, 514.2454
552.9832, 517.7642
554.9116, 520.7312
556.8401, 520.7991
558.7686, 519.3336
560.6970, 521.0193
562.6255, 529.1519
564.5540, 534.9552
566.4824, 533.2310
568.4109, 520.3027
570.3394, 515.5885
572.2678, 524.6580
574.1963, 535.5977
576.1248, 537.9357
578.0532, 533.9931
579.9817, 531.5366
581.9101, 533.0668
583.8386, 535.0279
585.7670, 536.1603
587.6955, 533.3223
589.6240, 531.0595
591.5524, 529.6091
593.4809, 531.5285
595.4094, 535.8569
597.3378, 542.9202
599.2663, 547.4373
601.1948, 546.7183
603.1232, 543.1442
605.0517, 543.5395
606.9802, 551.9717
608.9086, 558.6669
610.8371, 557.7567
612.7656, 549.9794
614.6940, 545.8464
616.6225, 548.5504
618.5510, 553.0573
620.4794, 556.8032
622.4079, 560.4014
624.3364, 562.9501
626.2648, 563.4214
628.1933, 562.6506
630.1218, 562.0109
632.0502, 561.8046
633.9787, 563.3849
635.9072, 569.5798
637.8356, 575.4477
639.7641, 576.1572
641.6926, 570.8190
643.6210, 568.0588
645.5495, 572.3093
647.4780, 578.9716
649.4064, 582.5505
651.3349, 580.2461
653.2634, 579.0947
655.1918, 581.6155
657.1203, 585.7459
659.0488, 587.2304
660.9772, 583.7930
662.9057, 580.9553
664.8342, 580.7534
666.7626, 583.2870
668.6911, 585.7461
670.6196, 588.6214
672.5480, 591.0065
674.4765, 593.2292
676.4050, 595.0956
678.3334, 594.0076
680.2619, 583.9819
682.1904, 575.8676
684.1188, 576.1777
686.0473, 588.2084
687.9758, 595.4811
689.9042, 594.3846
691.8327, 591.3181
693.7612, 590.1530
695.6896, 591.0334
697.6181, 592.7993
699.5466, 596.3034
701.4750, 599.7638
703.4035, 601.3650
705.3320, 599.5887
707.2604, 600.4871
709.1889, 609.2504
711.1174, 618.2228
713.0458, 619.5334
714.9743, 608.7349
716.9028, 602.5932
718.8312, 607.9116
720.7597, 618.1021
722.6882, 622.3781
724.6166, 618.2208
726.5451, 615.1469
728.4736, 616.1941
730.4020, 620.4349
732.3305, 624.0199
734.2590, 627.3820
736.1874, 628.3885
738.1159, 625.5800
740.0444, 618.1756
741.9728, 614.2077
743.9013, 615.2058
745.8298, 617.8925
747.7582, 619.4811
749.6867, 621.7769
751.6152, 625.5769
753.5436, 632.8527
755.4721, 637.5545
757.4006, 638.5081
759.3290, 635.6301
761.2575, 634.0887
763.1860, 634.9334
765.1144, 638.2915
767.0429, 642.7913
768.9714, 647.7217
770.8998, 651.2411
772.8283, 651.9891
774.7568, 651.4583
776.6852, 652.6733
778.6137, 655.1189
780.5422, 656.2975
782.4706, 656.1166
784.3991, 656.6220
786.3276, 656.8059
788.2560, 655.2903
790.1845, 653.1541
792.1130, 649.1368
794.0414, 647.3497
795.9699, 649.3890
797.8984, 654.6740
799.8268, 659.2054
801.7553, 661.9164
803.6838, 661.5898
805.6122, 659.8353
807.5407, 661.1420
809.4692, 664.7464
811.3976, 671.8785
813.3261, 676.1702
815.2546, 675.8694
817.1830, 670.4726
819.1115, 668.8052
821.0400, 675.2289
822.9684, 686.1710
824.8969, 688.1633
826.8254, 681.6500
828.7538, 675.3574
830.6823, 672.5347
832.6108, 674.7151
834.5392, 679.7327
836.4677, 683.1926
838.3962, 685.1889
840.3246, 687.9300
842.2531, 694.1652
844.1816, 697.7663
846.1100, 694.9333
848.0385, 690.9643
849.9670, 689.2725
851.8954, 690.2399
853.8239, 689.5631
855.7524, 688.5984
857.6808, 691.9025
859.6093, 700.5977
861.5378, 710.0910
863.4662, 715.2862
865.3947, 717.7828
867.3232, 717.8727
869.2516, 715.1021
871.1801, 711.0613
873.1086, 707.3148
875.0370, 704.5823
876.9655, 706.2885
878.8940, 712.3824
880.8224, 718.3626
882.7509, 722.5705
884.6794, 726.1438
886.6078, 726.0420
888.5363, 721.9194
890.4648, 716.2632
892.3932, 715.6161
894.3217, 716.6607
896.2502, 718.3673
898.1786, 721.1971
900.1071, 725.1099
902.0356, 726.9229
903.9641, 727.6876
905.8925, 732.1888
907.8210, 736.5638
909.7495, 736.0098
911.6779, 729.2402
913.6064, 730.3698
915.5349, 736.8957
917.4633, 742.1217
919.3918, 742.4490
921.3203, 741.8989
923.2487, 744.2812
925.1772, 744.7374
927.1057, 739.4472
929.0341, 730.5530
930.9626, 727.2480
932.8911, 732.6362
934.8195, 739.0646
936.7480, 747.1544
938.6765, 759.5625
940.6049, 771.6718
942.5334, 773.4207
944.4619, 766.9499
946.3903, 762.0729
948.3188, 760.2625
950.2473, 759.1474
952.1757, 758.1987
954.1042, 762.6810
956.0327, 767.3226
957.9611, 768.7363
959.8896, 768.9783
961.8181, 772.9559
963.7465, 781.2777
965.6750, 787.5551
967.6035, 787.2978
969.5319, 784.3388
971.4604, 781.5886
973.3889, 783.6145
975.3173, 786.0133
977.2458, 785.9811
979.1743, 787.3013
981.1027, 792.8641
983.0312, 799.7593
984.9597, 802.0083
986.8881, 798.1630
988.8166, 794.3797
990.7451, 792.3721
992.6735, 791.8937
994.6020, 791.0638
996.5305, 790.8445
998.4589, 792.2056
1000.387, 795.6400
1002.316, 801.1747
1004.244, 810.3546
1006.173, 818.4575
1008.101, 822.9147
1010.030, 823.4539
1011.958, 824.3924
1013.887, 827.7061
1015.815, 831.3526
1017.744, 832.6450
1019.672, 829.6840
1021.601, 825.0844
1023.529, 818.2666
1025.458, 813.9744
1027.386, 811.9455
1029.314, 810.2192
1031.243, 811.0740
1033.171, 815.7353
1035.100, 821.3400
1037.028, 827.5037
1038.957, 833.5392
1040.885, 835.4988
1042.814, 829.2313
1044.742, 825.4636
1046.671, 829.1794
1048.599, 834.0146
1050.528, 836.6818
1052.456, 841.7128
1054.385, 846.1836
1056.313, 848.3351
1058.241, 847.2092
1060.170, 846.0506
1062.098, 846.1093
1064.027, 847.3830
1065.955, 850.4633
1067.884, 852.4949
1069.812, 851.6977
1071.741, 849.8892
1073.669, 851.9020
1075.598, 865.1351
1077.526, 872.6443
1079.454, 868.2806
1081.383, 860.0396
1083.311, 856.8044
1085.240, 857.4645
1087.168, 859.2809
1089.097, 861.9538
1091.025, 866.2278
1092.954, 873.8277
1094.882, 884.8168
1096.811, 888.7393
1098.739, 875.7216
1100.668, 864.9561
1102.596, 865.5457
1104.525, 875.3787
1106.453, 881.8845
1108.381, 882.9119
1110.310, 883.6238
1112.238, 884.8871
1114.167, 886.1580
1116.095, 886.5844
1118.024, 885.9747
1119.952, 886.0839
1121.881, 886.7670
1123.809, 889.3802
1125.738, 895.4730
1127.666, 904.3263
1129.595, 909.3092
1131.523, 906.2178
1133.452, 904.2098
1135.380, 906.3313
1137.308, 909.5444
1139.237, 910.8738
1141.165, 913.1769
1143.094, 915.2925
1145.022, 915.6974
1146.951, 914.7323
1148.879, 916.2320
1150.808, 921.0763
1152.736, 926.4279
1154.665, 933.3305
1156.593, 938.1154
1158.522, 939.4572
1160.450, 937.5186
1162.379, 932.2579
1164.307, 918.2799
1166.235, 909.1595
1168.164, 910.1616
1170.092, 920.7294
1172.021, 931.9709
1173.949, 934.6197
1175.878, 935.5533
1177.806, 934.3901
1179.735, 933.4007
1181.663, 932.4190
1183.592, 934.3575
1185.520, 937.8636
1187.449, 943.4486
1189.377, 949.6960
1191.306, 959.7458
1193.234, 965.4711
1195.162, 961.1982
1197.091, 948.9958
1199.019, 942.8933
1200.948, 945.0522
1202.876, 947.5497
1204.805, 947.9373
1206.733, 956.3654
1208.662, 963.2054
1210.590, 960.3437
1212.519, 956.4572
1214.447, 958.2831
1216.376, 966.4386
1218.304, 972.1594
1220.233, 970.2475
1222.161, 968.5793
1224.089, 972.1277
1226.018, 979.0193
1227.946, 984.5583
1229.875, 985.3778
1231.803, 983.9576
1233.732, 983.3674
1235.660, 985.9730
1237.589, 991.3822
1239.517, 993.6182
1241.446, 990.9359
1243.374, 987.5580
1245.303, 986.5645
1247.231, 989.3156
1249.160, 994.6915
1251.088, 1002.148
1253.016, 1005.323
1254.945, 1004.662
1256.873, 1004.496
1258.802, 1004.153
1260.730, 1000.494
1262.659, 998.6679
1264.587, 1010.117
1266.516, 1031.051
1268.444, 1042.627
1270.373, 1034.716
1272.301, 1023.244
1274.230, 1021.779
1276.158, 1033.210
1278.087, 1042.244
1280.015, 1040.860
1281.943, 1040.062
1283.872, 1043.945
1285.800, 1047.174
1287.729, 1042.729
1289.657, 1030.402
1291.586, 1026.636
1293.514, 1035.208
1295.443, 1044.360
1297.371, 1045.845
1299.300, 1039.310
1301.228, 1032.480
1303.157, 1032.086
1305.085, 1036.496
1307.014, 1041.788
1308.942, 1046.475
1310.870, 1050.809
1312.799, 1054.483
1314.727, 1055.629
1316.656, 1055.697
1318.584, 1056.962
1320.513, 1058.771
1322.441, 1061.365
1324.370, 1066.156
1326.298, 1073.481
1328.227, 1075.955
1330.155, 1068.951
1332.084, 1063.961
1334.012, 1066.800
1335.941, 1074.708
1337.869, 1077.962
1339.797, 1072.774
1341.726, 1073.482
1343.654, 1080.805
1345.583, 1085.417
1347.511, 1082.937
1349.440, 1075.469
1351.368, 1076.461
1353.297, 1092.229
1355.225, 1106.564
1357.154, 1111.440
1359.082, 1110.228
1361.011, 1107.717
1362.939, 1103.919
1364.868, 1100.392
1366.796, 1097.279
1368.724, 1099.301
1370.653, 1112.529
1372.581, 1128.797
1374.510, 1134.227
1376.438, 1126.510
1378.367, 1121.109
1380.295, 1122.770
1382.224, 1126.687
1384.152, 1128.737
1386.081, 1127.466
1388.009, 1125.832
1389.938, 1125.386
1391.866, 1129.252
1393.795, 1136.235
1395.723, 1140.146
1397.651, 1140.367
1399.580, 1139.698
1401.508, 1142.216
1403.437, 1149.096
1405.365, 1153.639
1407.294, 1156.326
1409.222, 1158.465
1411.151, 1161.393
1413.079, 1165.605
1415.008, 1166.584
1416.936, 1159.214
1418.865, 1155.589
1420.793, 1166.534
1422.722, 1180.898
1424.650, 1186.291
1426.578, 1183.326
1428.507, 1174.850
1430.435, 1154.268
1432.364, 1145.344
1434.292, 1168.484
1436.221, 1197.209
1438.149, 1207.923
1440.078, 1201.812
1442.006, 1194.447
1443.935, 1184.968
1445.863, 1178.542
1447.792, 1179.036
1449.720, 1182.826
1451.649, 1186.586
1453.577, 1190.213
1455.505, 1190.682
1457.434, 1183.042
1459.362, 1180.520
1461.291, 1190.201
1463.219, 1202.845
1465.148, 1208.525
1467.076, 1205.741
1469.005, 1207.742
1470.933, 1222.876
1472.862, 1232.514
1474.790, 1228.161
1476.719, 1218.993
1478.647, 1214.527
1480.576, 1214.989
1482.504, 1216.243
1484.432, 1215.316
1486.361, 1219.073
1488.289, 1234.380
1490.218, 1251.472
1492.146, 1259.991
1494.075, 1259.624
1496.003, 1258.959
1497.932, 1259.063
1499.860, 1257.237
1501.789, 1249.702
1503.717, 1242.329
1505.646, 1239.767
1507.574, 1242.054
1509.503, 1249.550
1511.431, 1265.706
1513.359, 1276.451
1515.288, 1273.979
1517.216, 1268.642
1519.145, 1266.415
1521.073, 1267.137
1523.002, 1271.187
1524.930, 1279.729
1526.859, 1285.247
1528.787, 1284.090
1530.716, 1282.112
1532.644, 1283.691
1534.573, 1286.374
1536.501, 1283.807
1538.430, 1274.478
1540.358, 1270.031
1542.286, 1273.500
1544.215, 1280.720
1546.143, 1293.317
1548.072, 1306.668
1550.000, 1313.141
1551.929, 1311.896
1553.857, 1311.740
1555.786, 1314.190
1557.714, 1317.038
1559.643, 1318.138
1561.571, 1319.391
1563.500, 1325.433
1565.428, 1337.590
1567.357, 1342.004
1569.285, 1331.344
1571.214, 1324.829
1573.142, 1326.006
1575.070, 1332.373
1576.999, 1346.563
1578.927, 1365.963
1580.856, 1373.547
1582.784, 1361.637
1584.713, 1351.725
1586.641, 1343.761
1588.570, 1340.580
1590.498, 1345.084
1592.427, 1354.287
1594.355, 1362.932
1596.284, 1370.595
1598.212, 1376.872
1600.141, 1385.372
1602.069, 1388.520
1603.997, 1380.438
1605.926, 1368.824
1607.854, 1360.520
1609.783, 1354.948
1611.711, 1354.072
1613.640, 1361.977
1615.568, 1370.632
1617.497, 1381.833
1619.425, 1390.597
1621.354, 1392.862
1623.282, 1390.627
1625.211, 1389.606
1627.139, 1391.318
1629.068, 1390.342
1630.996, 1381.000
1632.924, 1376.138
1634.853, 1381.794
1636.781, 1392.781
1638.710, 1405.235
1640.638, 1419.160
1642.567, 1426.127
1644.495, 1420.928
1646.424, 1417.628
1648.352, 1416.453
1650.281, 1418.898
1652.209, 1429.152
1654.138, 1443.036
1656.066, 1450.921
1657.995, 1452.804
1659.923, 1448.143
1661.851, 1423.615
1663.780, 1410.273
1665.708, 1427.561
1667.637, 1451.042
1669.565, 1455.464
1671.494, 1443.367
1673.422, 1436.078
1675.351, 1431.411
1677.279, 1435.986
1679.208, 1458.515
1681.136, 1480.862
1683.065, 1497.314
1684.993, 1507.301
1686.922, 1508.037
1688.850, 1498.489
1690.778, 1492.084
1692.707, 1489.340
1694.635, 1488.882
1696.564, 1495.830
1698.492, 1499.634
1700.421, 1488.643
1702.349, 1470.396
1704.278, 1463.617
1706.206, 1471.165
1708.135, 1479.872
1710.063, 1491.170
1711.992, 1501.616
1713.920, 1513.984
1715.849, 1522.092
1717.777, 1515.521
1719.705, 1499.793
1721.634, 1498.503
1723.562, 1520.432
1725.491, 1536.052
1727.419, 1542.394
1729.348, 1546.381
1731.276, 1551.288
1733.205, 1553.767
1735.133, 1548.198
1737.062, 1536.306
1738.990, 1530.365
1740.919, 1535.713
1742.847, 1537.020
1744.776, 1526.325
1746.704, 1521.845
1748.632, 1534.339
1750.561, 1552.649
1752.489, 1567.089
1754.418, 1577.282
1756.346, 1577.806
1758.275, 1559.842
1760.203, 1551.749
1762.132, 1558.631
1764.060, 1570.972
1765.989, 1594.237
1767.917, 1614.922
1769.846, 1614.442
1771.774, 1595.445
1773.703, 1587.196
1775.631, 1593.356
1777.559, 1599.680
1779.488, 1607.350
1781.416, 1611.237
1783.345, 1605.590
1785.273, 1598.713
1787.202, 1600.676
1789.130, 1609.384
1791.059, 1609.480
1792.987, 1597.315
1794.916, 1595.290
1796.844, 1613.746
1798.773, 1630.160
1800.701, 1635.469
1802.630, 1635.657
1804.558, 1632.257
1806.486, 1627.805
1808.415, 1631.193
1810.343, 1643.339
1812.272, 1653.316
1814.200, 1662.202
1816.129, 1662.728
1818.057, 1638.430
1819.986, 1619.390
1821.914, 1638.010
1823.843, 1673.167
1825.771, 1681.490
1827.700, 1663.613
1829.628, 1660.807
1831.557, 1685.155
1833.485, 1686.663
1835.413, 1703.271
1837.342, 1713.142
1839.270, 1716.637
1841.199, 1694.661
1843.127, 1705.575
1845.056, 1703.309
1846.984, 1700.502
1848.913, 1716.046
1850.841, 1697.775
1852.770, 1713.028
1854.698, 1714.898
1856.627, 1722.893
1858.555, 1717.626
1860.484, 1716.455
1862.412, 1728.551
1864.340, 1733.301
1866.269, 1726.507
1868.197, 1734.891
1870.126, 1716.157
1872.054, 1721.220
1873.983, 1750.040
1875.911, 1770.877
1877.840, 1776.761
1879.768, 1772.708
1881.697, 1765.287
1883.625, 1754.500
1885.554, 1741.090
1887.482, 1721.227
1889.411, 1713.394
1891.339, 1725.960
1893.267, 1741.086
1895.196, 1755.038
1897.124, 1766.379
1899.053, 1774.965
1900.981, 1779.846
1902.910, 1776.173
1904.838, 1764.622
1906.767, 1761.392
1908.695, 1769.290
1910.624, 1780.410
1912.552, 1797.178
1914.481, 1810.353
1916.409, 1815.255
1918.338, 1814.665
1920.266, 1806.600
1922.194, 1795.592
1924.123, 1799.373
1926.051, 1821.456
1927.980, 1832.251
1929.908, 1821.147
1931.837, 1814.477
1933.765, 1818.569
1935.694, 1824.605
1937.622, 1828.067
1939.551, 1831.507
1941.479, 1840.547
1943.408, 1852.517
1945.336, 1852.121
1947.265, 1832.821
1949.193, 1831.156
1951.121, 1860.760
1953.050, 1882.089
1954.978, 1879.244
1956.907, 1876.314
1958.835, 1887.742
1960.764, 1901.634
1962.692, 1905.313
1964.621, 1901.253
1966.549, 1895.614
1968.478, 1888.484
1970.406, 1885.806
1972.335, 1888.696
1974.263, 1894.619
1976.192, 1909.116
1978.120, 1917.963
1980.048, 1909.260
1981.977, 1896.446
1983.905, 1891.767
1985.834, 1893.491
1987.762, 1898.169
1989.691, 1906.535
1991.619, 1910.618
1993.548, 1906.652
1995.476, 1904.609
1997.405, 1902.538
1999.333, 1905.465
2001.262, 1920.024
2003.190, 1934.843
2005.119, 1939.653
2007.047, 1940.074
2008.975, 1946.946
2010.904, 1959.273
2012.832, 1969.407
2014.761, 1977.870
2016.689, 1976.095
2018.618, 1955.250
2020.546, 1944.586
2022.475, 1963.723
2024.403, 1981.645
2026.332, 1973.056
2028.260, 1960.960
2030.189, 1977.344
2032.117, 2009.385
2034.046, 2015.454
2035.974, 1991.601
2037.902, 1981.579
2039.831, 1997.065
2041.759, 2005.958
2043.688, 1998.337
2045.616, 1997.088
2047.545, 2016.921
2049.473, 2035.479
2051.402, 2037.091
2053.330, 2029.981
2055.259, 2022.198
2057.187, 2015.384
2059.116, 2018.478
2061.044, 2031.762
2062.972, 2040.685
2064.901, 2043.159
2066.829, 2044.137
2068.758, 2044.402
2070.686, 2043.951
2072.615, 2042.571
2074.543, 2040.706
2076.472, 2036.305
2078.400, 2033.161
2080.329, 2038.323
2082.257, 2049.947
2084.186, 2058.657
2086.114, 2064.080
2088.042, 2068.083
2089.971, 2068.975
2091.899, 2072.649
2093.828, 2083.530
2095.756, 2090.999
2097.685, 2089.188
2099.613, 2085.903
2101.542, 2084.428
2103.470, 2085.198
2105.399, 2088.624
2107.327, 2094.710
2109.256, 2104.218
2111.184, 2117.056
2113.113, 2129.979
2115.041, 2147.618
2116.969, 2150.466
2118.898, 2122.810
2120.826, 2101.753
2122.755, 2096.196
2124.683, 2096.524
2126.612, 2098.403
2128.540, 2104.051
2130.469, 2120.153
2132.397, 2139.105
2134.326, 2143.259
2136.254, 2136.560
2138.183, 2139.947
2140.111, 2154.256
2142.040, 2168.281
2143.968, 2182.608
2145.896, 2189.918
2147.825, 2185.854
2149.753, 2179.011
2151.682, 2167.142
2153.610, 2159.191
2155.539, 2161.941
2157.467, 2169.811
2159.396, 2178.766
2161.324, 2187.657
2163.253, 2193.468
2165.181, 2196.484
2167.110, 2199.387
2169.038, 2201.947
2170.967, 2210.103
2172.895, 2227.979
2174.823, 2235.325
2176.752, 2219.831
2178.680, 2209.248
2180.609, 2215.292
2182.537, 2226.791
2184.466, 2241.465
2186.394, 2255.090
2188.323, 2264.689
2190.251, 2269.768
2192.180, 2267.887
2194.108, 2260.191
2196.037, 2253.646
2197.965, 2248.091
2199.894, 2249.503
2201.822, 2260.700
2203.750, 2262.493
2205.679, 2243.846
2207.607, 2237.933
2209.536, 2269.575
2211.464, 2294.082
2213.393, 2285.403
2215.321, 2270.648
2217.250, 2265.270
2219.178, 2267.999
2221.107, 2281.967
2223.035, 2301.325
2224.964, 2311.323
2226.892, 2312.388
2228.821, 2307.336
2230.749, 2295.670
2232.677, 2293.826
2234.606, 2306.676
2236.534, 2309.171
2238.463, 2287.501
2240.391, 2276.398
2242.320, 2295.409
2244.248, 2313.853
2246.177, 2319.194
2248.105, 2319.700
2250.034, 2318.337
2251.962, 2317.643
2253.891, 2322.102
2255.819, 2328.673
2257.748, 2328.210
2259.676, 2323.911
2261.604, 2332.476
2263.533, 2353.284
2265.461, 2364.588
2267.390, 2362.439
2269.318, 2365.213
2271.247, 2384.189
2273.175, 2390.523
2275.104, 2368.067
2277.032, 2350.922
2278.961, 2348.314
2280.889, 2352.810
2282.818, 2362.968
2284.746, 2376.667
2286.675, 2397.483
2288.603, 2416.740
2290.531, 2421.886
2292.460, 2418.957
2294.388, 2418.996
2296.317, 2421.905
2298.245, 2429.845
2300.174, 2444.671
2302.102, 2440.325
2304.031, 2403.381
2305.959, 2392.907
2307.888, 2423.833
2309.816, 2440.836
2311.745, 2427.969
2313.673, 2418.272
2315.602, 2420.388
2317.530, 2430.527
2319.458, 2456.415
2321.387, 2478.213
2323.315, 2480.674
2325.244, 2475.208
2327.172, 2470.737
2329.101, 2467.127
2331.029, 2461.248
2332.958, 2456.842
2334.886, 2471.739
2336.815, 2498.835
2338.743, 2497.257
2340.672, 2467.534
2342.600, 2446.871
2344.529, 2436.821
2346.457, 2441.120
2348.385, 2471.741
2350.314, 2494.459
2352.242, 2507.234
2354.171, 2511.468
2356.099, 2497.974
2358.028, 2491.663
2359.956, 2506.888
2361.885, 2521.646
2363.813, 2522.599
2365.742, 2520.307
2367.670, 2523.743
2369.599, 2526.976
2371.527, 2519.700
2373.456, 2510.263
2375.384, 2515.419
2377.313, 2529.395
2379.241, 2534.148
2381.169, 2531.389
2383.098, 2529.102
2385.026, 2528.252
2386.955, 2543.421
2388.883, 2577.988
2390.812, 2595.589
2392.740, 2587.506
2394.669, 2577.743
2396.597, 2558.437
2398.526, 2554.607
2400.454, 2581.205
2402.383, 2598.334
2404.311, 2592.574
2406.240, 2584.020
2408.168, 2576.750
2410.096, 2574.778
2412.025, 2582.598
2413.953, 2593.874
2415.882, 2608.935
2417.810, 2620.209
2419.739, 2615.744
2421.667, 2606.246
2423.596, 2608.136
2425.524, 2615.462
2427.453, 2616.220
2429.381, 2612.000
2431.310, 2603.685
2433.238, 2593.735
2435.167, 2603.202
2437.095, 2633.629
2439.023, 2634.763
2440.952, 2595.097
2442.880, 2585.772
2444.809, 2614.719
2446.737, 2629.529
2448.666, 2621.071
2450.594, 2617.082
2452.523, 2621.143
2454.451, 2634.245
2456.380, 2665.259
2458.308, 2691.476
2460.237, 2712.346
2462.165, 2720.687
2464.094, 2707.067
2466.022, 2690.130
2467.950, 2671.936
2469.879, 2660.827
2471.807, 2667.287
2473.736, 2676.984
2475.664, 2679.681
2477.593, 2678.603
2479.521, 2670.113
2481.450, 2665.722
2483.378, 2691.067
2485.307, 2725.600
2487.235, 2729.938
2489.164, 2714.904
2491.092, 2698.422
2493.021, 2684.839
2494.949, 2693.881
2496.877, 2721.554
2498.806, 2734.919
2500.734, 2733.844
2502.663, 2715.426
2504.591, 2679.036
2506.520, 2683.243
2508.448, 2733.922
2510.377, 2756.931
2512.305, 2738.576
2514.234, 2723.763
2516.162, 2715.029
2518.091, 2713.753
2520.019, 2721.045
2521.948, 2734.118
2523.876, 2757.877
2525.804, 2771.347
2527.733, 2764.562
2529.661, 2759.011
2531.590, 2770.042
2533.518, 2770.262
2535.447, 2731.310
2537.375, 2709.126
2539.304, 2739.232
2541.232, 2771.132
2543.161, 2788.194
2545.089, 2794.066
2547.018, 2781.124
2548.946, 2770.032
2550.875, 2775.731
2552.803, 2788.684
2554.731, 2807.381
2556.660, 2822.695
2558.588, 2820.982
2560.517, 2815.411
2562.445, 2821.479
2564.374, 2831.354
2566.302, 2837.322
2568.231, 2839.218
2570.159, 2834.680
2572.088, 2827.123
2574.016, 2821.028
2575.945, 2818.405
2577.873, 2828.707
2579.802, 2845.189
2581.730, 2847.395
2583.658, 2840.178
2585.587, 2842.664
2587.515, 2852.443
2589.444, 2856.146
2591.372, 2853.779
2593.301, 2841.482
2595.229, 2821.787
2597.158, 2816.640
2599.086, 2826.320
2601.015, 2847.060
2602.943, 2880.605
2604.872, 2893.373
2606.800, 2880.079
2608.729, 2880.735
2610.657, 2897.263
2612.585, 2894.183
2614.514, 2867.127
2616.442, 2859.932
2618.371, 2883.124
2620.299, 2896.135
2622.228, 2892.653
2624.156, 2889.457
2626.085, 2886.911
2628.013, 2882.684
2629.942, 2875.019
2631.870, 2874.933
2633.799, 2886.599
2635.727, 2897.843
2637.656, 2905.905
2639.584, 2915.748
2641.512, 2930.630
2643.441, 2937.733
2645.369, 2931.450
2647.298, 2931.828
2649.226, 2947.048
2651.155, 2959.282
2653.083, 2964.519
2655.012, 2966.488
2656.940, 2964.988
2658.869, 2960.895
2660.797, 2948.665
2662.726, 2951.155
2664.654, 2989.016
2666.583, 3009.886
2668.511, 2984.187
2670.439, 2964.668
2672.368, 2961.088
2674.296, 2969.303
2676.225, 2997.994
2678.153, 3015.004
2680.082, 3003.157
2682.010, 2991.930
2683.939, 2992.531
2685.867, 2992.284
2687.796, 2978.281
2689.724, 2980.215
2691.653, 3017.371
2693.581, 3043.597
2695.510, 3037.317
2697.438, 3027.025
2699.366, 3015.262
2701.295, 3012.597
2703.223, 3031.410
2705.152, 3044.091
2707.080, 3040.535
2709.009, 3036.603
2710.937, 3034.583
2712.866, 3039.447
2714.794, 3068.178
2716.723, 3078.582
2718.651, 3038.934
2720.580, 3016.886
2722.508, 3040.624
2724.437, 3061.693
2726.365, 3060.481
2728.293, 3056.766
2730.222, 3048.284
2732.150, 3052.431
2734.079, 3084.841
2736.007, 3103.885
2737.936, 3091.795
2739.864, 3081.134
2741.793, 3084.304
2743.721, 3087.796
2745.650, 3088.184
2747.578, 3088.515
2749.507, 3086.425
2751.435, 3092.631
2753.364, 3114.694
2755.292, 3132.289
2757.220, 3143.303
2759.149, 3142.094
2761.077, 3115.473
2763.006, 3106.686
2764.934, 3130.525
2766.863, 3139.895
2768.791, 3113.411
2770.720, 3104.479
2772.648, 3138.397
2774.577, 3161.070
2776.505, 3166.906
2778.434, 3171.015
2780.362, 3176.349
2782.291, 3172.604
2784.219, 3149.113
2786.147, 3146.905
2788.076, 3180.163
2790.004, 3195.731
2791.933, 3189.142
2793.861, 3184.510
2795.790, 3184.174
2797.718, 3185.899
2799.647, 3188.600
2801.575, 3199.666
2803.504, 3221.301
2805.432, 3225.726
2807.361, 3212.755
2809.289, 3214.290
2811.218, 3232.846
2813.146, 3236.416
2815.074, 3224.722
2817.003, 3220.774
2818.931, 3223.664
2820.860, 3226.282
2822.788, 3228.420
2824.717, 3227.275
2826.645, 3225.730
2828.574, 3243.009
2830.502, 3271.974
2832.431, 3284.025
2834.359, 3283.461
2836.288, 3279.817
2838.216, 3273.384
2840.145, 3258.527
2842.073, 3245.298
2844.001, 3257.978
2845.930, 3281.651
2847.858, 3302.479
2849.787, 3311.440
2851.715, 3279.668
2853.644, 3248.098
2855.572, 3275.083
2857.501, 3312.357
2859.429, 3316.327
2861.358, 3309.840
2863.286, 3302.058
2865.215, 3301.292
2867.143, 3320.286
2869.072, 3338.311
2871.000, 3348.204
2872.928, 3347.469
2874.857, 3319.559
2876.785, 3306.134
2878.714, 3340.750
2880.642, 3362.642
2882.571, 3346.058
2884.499, 3341.530
2886.428, 3368.366
2888.356, 3385.572
2890.285, 3375.570
2892.213, 3368.762
2894.142, 3366.039
2896.070, 3374.003
2897.999, 3396.466
2899.927, 3397.404
2901.855, 3365.522
2903.784, 3354.231
2905.712, 3366.885
2907.641, 3379.094
2909.569, 3391.226
2911.498, 3413.096
2913.426, 3441.288
2915.355, 3445.388
2917.283, 3432.263
2919.212, 3435.759
2921.140, 3448.371
2923.069, 3446.809
2924.997, 3440.330
2926.926, 3450.508
2928.854, 3462.343
2930.782, 3451.483
2932.711, 3430.928
2934.639, 3403.661
2936.568, 3388.229
2938.496, 3403.872
2940.425, 3432.949
2942.353, 3482.689
2944.282, 3511.071
2946.210, 3485.083
2948.139, 3462.454
2950.067, 3474.069
2951.996, 3483.847
2953.924, 3475.263
2955.853, 3478.169
2957.781, 3500.464
2959.709, 3519.892
2961.638, 3534.318
2963.566, 3537.241
2965.495, 3525.854
2967.423, 3514.919
2969.352, 3504.878
2971.280, 3501.597
2973.209, 3505.700
2975.137, 3523.608
2977.066, 3549.297
2978.994, 3535.129
2980.923, 3503.087
2982.851, 3521.475
2984.780, 3559.688
2986.708, 3561.414
2988.636, 3552.184
2990.565, 3576.717
2992.493, 3595.367
2994.422, 3554.496
2996.350, 3521.422
2998.279, 3562.035
3000.207, 3595.924
3002.136, 3576.849
3004.064, 3559.513
3005.993, 3561.625
3007.921, 3568.981
3009.850, 3579.704
3011.778, 3592.260
3013.707, 3608.246
3015.635, 3614.186
3017.563, 3606.954
3019.492, 3612.314
3021.420, 3632.250
3023.349, 3643.770
3025.277, 3647.450
3027.206, 3645.832
3029.134, 3639.792
3031.063, 3625.014
3032.991, 3613.034
3034.920, 3633.676
3036.848, 3663.387
3038.777, 3679.826
3040.705, 3684.472
3042.634, 3669.334
3044.562, 3656.260
3046.490, 3658.383
3048.419, 3666.171
3050.347, 3686.179
3052.276, 3689.089
3054.204, 3642.178
3056.133, 3629.142
3058.061, 3662.559
3059.990, 3692.902
3061.918, 3715.642
3063.847, 3719.167
3065.775, 3703.638
3067.704, 3693.357
3069.632, 3690.226
3071.561, 3708.568
3073.489, 3736.312
3075.417, 3744.163
3077.346, 3748.615
3079.274, 3788.160
3081.203, 3817.707
3083.131, 3784.573
3085.060, 3750.047
3086.988, 3756.448
3088.917, 3763.488
3090.845, 3757.510
3092.774, 3752.347
3094.702, 3747.399
3096.631, 3757.242
3098.559, 3787.479
3100.488, 3808.016
3102.416, 3817.827
3104.344, 3821.787
3106.273, 3820.930
3108.201, 3819.585
3110.130, 3816.916
3112.058, 3804.639
3113.987, 3795.270
3115.915, 3817.329
3117.844, 3837.118
3119.772, 3809.415
3121.701, 3786.749
3123.629, 3805.255
3125.558, 3818.572
3127.486, 3792.904
3129.415, 3793.155
3131.343, 3836.139
3133.271, 3860.219
3135.200, 3855.708
3137.128, 3855.609
3139.057, 3861.129
3140.985, 3866.162
3142.914, 3870.396
3144.842, 3871.995
3146.771, 3872.882
3148.699, 3874.983
3150.628, 3879.991
3152.556, 3894.041
3154.485, 3904.823
3156.413, 3901.324
3158.342, 3898.106
3160.270, 3899.519
3162.198, 3903.673
3164.127, 3909.222
3166.055, 3926.076
3167.984, 3963.025
3169.912, 3960.096
3171.841, 3923.485
3173.769, 3899.749
3175.698, 3891.833
3177.626, 3910.555
3179.555, 3942.287
3181.483, 3978.666
3183.412, 4000.355
3185.340, 3980.546
3187.269, 3959.311
3189.197, 3948.118
3191.125, 3961.163
3193.054, 4012.395
3194.982, 4040.209
3196.911, 4027.114
3198.839, 4009.296
3200.768, 3987.262
3202.696, 3966.302
3204.625, 3949.908
3206.553, 3948.521
3208.482, 3957.979
3210.410, 3975.636
3212.339, 3995.325
3214.267, 4008.940
3216.196, 4027.562
3218.124, 4073.049
3220.052, 4091.276
3221.981, 4065.144
3223.909, 4042.034
3225.838, 4027.666
3227.766, 4028.304
3229.695, 4042.745
3231.623, 4065.130
3233.552, 4088.404
3235.480, 4088.661
3237.409, 4086.211
3239.337, 4122.435
3241.266, 4148.102
3243.194, 4117.440
3245.123, 4090.087
3247.051, 4084.171
3248.979, 4098.885
3250.908, 4141.735
3252.836, 4143.043
3254.765, 4094.778
3256.693, 4102.015
3258.622, 4143.534
3260.550, 4138.911
3262.479, 4118.284
3264.407, 4126.457
3266.336, 4144.835
3268.264, 4165.614
3270.193, 4177.963
3272.121, 4172.415
3274.050, 4165.517
3275.978, 4158.399
3277.906, 4159.469
3279.835, 4169.596
3281.763, 4171.772
3283.692, 4170.362
3285.620, 4191.203
3287.549, 4217.266
3289.477, 4224.307
3291.406, 4223.902
3293.334, 4227.542
3295.263, 4221.958
3297.191, 4194.518
3299.120, 4179.633
3301.048, 4183.705
3302.977, 4210.561
3304.905, 4254.430
3306.833, 4238.953
3308.762, 4190.561
3310.690, 4174.798
3312.619, 4191.112
3314.547, 4269.485
3316.476, 4326.489
3318.404, 4289.604
3320.333, 4250.425
3322.261, 4225.954
3324.190, 4223.809
3326.118, 4248.847
3328.047, 4282.503
3329.975, 4318.644
3331.904, 4310.080
3333.832, 4286.740
3335.760, 4301.310
3337.689, 4322.404
3339.617, 4325.982
3341.546, 4325.167
3343.474, 4325.411
3345.403, 4321.313
3347.331, 4311.543
3349.260, 4303.411
3351.188, 4300.029
3353.117, 4334.746
3355.045, 4377.464
3356.974, 4339.248
3358.902, 4292.624
3360.831, 4306.319
3362.759, 4329.317
3364.688, 4342.003
3366.616, 4353.974
3368.544, 4367.411
3370.473, 4378.725
3372.401, 4387.628
3374.330, 4387.401
3376.258, 4383.899
3378.187, 4390.597
3380.115, 4399.627
3382.044, 4407.101
3383.972, 4406.831
3385.901, 4384.479
3387.829, 4379.147
3389.758, 4396.454
3391.686, 4419.581
3393.615, 4445.675
3395.543, 4463.671
3397.471, 4473.173
3399.400, 4472.738
3401.328, 4463.590
3403.257, 4434.833
3405.185, 4419.194
3407.114, 4428.125
3409.042, 4448.835
3410.971, 4482.835
3412.899, 4490.316
3414.828, 4474.688
3416.756, 4441.711
3418.685, 4419.209
3420.613, 4463.124
3422.542, 4506.819
3424.470, 4505.896
3426.398, 4508.765
3428.327, 4542.749
3430.255, 4538.122
3432.184, 4496.561
3434.112, 4479.278
3436.041, 4482.056
3437.969, 4504.166
3439.898, 4520.607
3441.826, 4491.592
3443.755, 4482.466
3445.683, 4550.702
3447.612, 4575.229
3449.540, 4544.461
3451.469, 4552.959
3453.397, 4589.599
3455.325, 4578.585
3457.254, 4554.757
3459.182, 4563.686
3461.111, 4577.577
3463.039, 4583.635
3464.968, 4581.788
3466.896, 4570.216
3468.825, 4563.519
3470.753, 4563.557
3472.682, 4591.911
3474.610, 4625.853
3476.539, 4630.663
3478.467, 4620.620
3480.396, 4594.796
3482.324, 4584.453
3484.252, 4607.009
3486.181, 4605.026
3488.109, 4579.678
3490.038, 4596.236
3491.966, 4631.801
3493.895, 4648.778
3495.823, 4648.972
3497.752, 4623.238
3499.680, 4609.549
3501.609, 4629.687
3503.537, 4644.833
3505.466, 4654.373
3507.394, 4658.376
3509.323, 4660.515
3511.251, 4675.157
3513.179, 4681.170
3515.108, 4649.232
3517.036, 4633.385
3518.965, 4651.662
3520.893, 4669.948
3522.822, 4684.812
3524.750, 4690.134
3526.679, 4687.727
3528.607, 4672.229
3530.536, 4664.693
3532.464, 4687.517
3534.393, 4707.573
3536.321, 4717.999
3538.250, 4730.006
3540.178, 4742.202
3542.106, 4722.425
3544.035, 4697.688
3545.963, 4709.008
3547.892, 4731.149
3549.820, 4756.101
3551.749, 4770.340
3553.677, 4771.083
3555.606, 4752.471
3557.534, 4723.682
3559.463, 4746.617
3561.391, 4776.021
3563.320, 4744.902
3565.248, 4729.020
3567.177, 4763.756
3569.105, 4787.191
3571.033, 4788.442
3572.962, 4791.550
3574.890, 4795.462
3576.819, 4796.355
3578.747, 4798.949
3580.676, 4816.755
3582.604, 4812.955
3584.533, 4754.806
3586.461, 4767.156
3588.390, 4840.077
3590.318, 4868.506
3592.247, 4862.914
3594.175, 4805.300
3596.104, 4778.222
3598.032, 4846.053
3599.960, 4867.526
3601.889, 4815.047
3603.817, 4812.188
3605.746, 4843.658
3607.674, 4870.022
3609.603, 4884.338
3611.531, 4873.234
3613.460, 4869.600
3615.388, 4900.339
3617.317, 4877.691
3619.245, 4818.995
3621.174, 4838.289
3623.102, 4882.090
3625.031, 4871.390
3626.959, 4856.800
3628.887, 4855.774
3630.816, 4872.946
3632.744, 4906.271
3634.673, 4900.324
3636.601, 4876.850
3638.530, 4878.214
3640.458, 4890.893
3642.387, 4915.066
3644.315, 4925.198
3646.244, 4916.176
3648.172, 4921.318
3650.101, 4937.063
3652.029, 4951.784
3653.958, 4961.499
3655.886, 4965.567
3657.814, 4956.840
3659.743, 4923.929
3661.671, 4936.454
3663.600, 4985.193
3665.528, 5019.059
3667.457, 5029.436
3669.385, 4984.831
3671.314, 4965.861
3673.242, 5027.558
3675.171, 5044.284
3677.099, 5018.392
3679.028, 4999.024
3680.956, 4986.493
3682.885, 4971.153
3684.813, 4980.455
3686.741, 5057.894
3688.670, 5077.180
3690.598, 5043.238
3692.527, 5058.376
3694.455, 5088.959
3696.384, 5072.821
3698.312, 5057.716
3700.241, 5070.160
3702.169, 5076.884
3704.098, 5077.099
3706.026, 5090.697
3707.955, 5103.850
3709.883, 5086.144
3711.812, 5068.083
3713.740, 5068.886
3715.668, 5056.493
3717.597, 5032.387
3719.525, 5042.455
3721.454, 5067.125
3723.382, 5074.864
3725.311, 5082.060
3727.239, 5095.589
3729.168, 5114.324
3731.096, 5136.546
3733.025, 5141.741
3734.953, 5143.565
3736.882, 5173.708
3738.810, 5188.146
3740.739, 5159.926
3742.667, 5136.186
3744.595, 5120.625
3746.524, 5116.515
3748.452, 5125.166
3750.381, 5168.496
3752.309, 5187.348
3754.238, 5145.044
3756.166, 5140.340
3758.095, 5167.111
3760.023, 5163.793
3761.952, 5158.767
3763.880, 5191.564
3765.809, 5219.047
3767.737, 5233.650
3769.666, 5204.288
3771.594, 5153.376
3773.522, 5163.262
3775.451, 5194.344
3777.379, 5224.127
3779.308, 5238.907
3781.236, 5232.035
3783.165, 5236.930
3785.093, 5247.557
3787.022, 5251.581
3788.950, 5251.006
3790.879, 5248.614
3792.807, 5231.825
3794.736, 5199.680
3796.664, 5205.603
3798.593, 5227.485
3800.521, 5232.623
3802.449, 5241.119
3804.378, 5262.062
3806.306, 5274.220
3808.235, 5277.059
3810.163, 5280.585
3812.092, 5277.783
3814.020, 5244.465
3815.949, 5249.714
3817.877, 5308.416
3819.806, 5318.447
3821.734, 5297.739
3823.663, 5289.833
3825.591, 5298.010
3827.520, 5347.271
3829.448, 5347.706
3831.376, 5301.177
3833.305, 5293.383
3835.233, 5309.146
3837.162, 5339.849
3839.090, 5352.618
3841.019, 5325.010
3842.947, 5302.625
3844.876, 5296.864
3846.804, 5363.067
3848.733, 5410.563
3850.661, 5362.077
3852.590, 5345.060
3854.518, 5383.823
3856.447, 5363.445
3858.375, 5325.842
3860.303, 5329.705
3862.232, 5337.767
3864.160, 5336.222
3866.089, 5350.099
3868.017, 5372.452
3869.946, 5365.811
3871.874, 5355.591
3873.803, 5362.354
3875.731, 5363.264
3877.660, 5355.936
3879.588, 5376.398
3881.517, 5396.661
3883.445, 5366.232
3885.374, 5353.564
3887.302, 5383.500
3889.230, 5375.791
3891.159, 5346.888
3893.087, 5369.052
3895.016, 5394.794
3896.944, 5392.657
3898.873, 5388.861
3900.801, 5386.533
3902.730, 5397.335
3904.658, 5410.841
3906.587, 5405.686
3908.515, 5399.693
3910.444, 5404.248
3912.372, 5407.119
3914.301, 5402.924
3916.229, 5358.136
3918.157, 5343.240
3920.086, 5404.011
3922.014, 5419.824
3923.943, 5395.178
3925.871, 5392.088
3927.800, 5383.248
3929.728, 5322.582
3931.657, 5325.736
3933.585, 5404.724
3935.514, 5395.980
3937.442, 5366.078
3939.371, 5402.756
3941.299, 5431.386
3943.228, 5430.512
3945.156, 5423.840
3947.084, 5423.001
3949.013, 5436.438
3950.941, 5433.835
3952.870, 5410.302
3954.798, 5400.836
3956.727, 5400.971
3958.655, 5385.558
3960.584, 5389.562
3962.512, 5444.470
3964.441, 5452.433
3966.369, 5415.238
3968.298, 5392.389
3970.226, 5390.464
3972.155, 5405.052
3974.083, 5408.420
3976.011, 5408.270
3977.940, 5393.440
3979.868, 5385.874
3981.797, 5396.856
3983.725, 5420.204
3985.654, 5437.200
3987.582, 5403.162
3989.511, 5386.550
3991.439, 5423.160
3993.368, 5442.630
3995.296, 5431.315
3997.225, 5420.406
3999.153, 5422.238
4001.082, 5452.370
4003.010, 5470.687
4004.938, 5463.611
4006.867, 5449.148
4008.795, 5437.426
4010.724, 5429.283
4012.652, 5427.920
4014.581, 5468.101
4016.509, 5486.089
4018.438, 5461.690
4020.366, 5449.453
4022.295, 5468.006
4024.223, 5489.101
4026.152, 5473.485
4028.080, 5457.583
4030.009, 5474.948
4031.937, 5466.287
4033.865, 5416.777
4035.794, 5417.163
4037.722, 5446.631
4039.651, 5473.549
4041.579, 5475.652
4043.508, 5442.160
4045.436, 5463.341
4047.365, 5502.687
4049.293, 5462.714
4051.222, 5442.543
4053.150, 5478.042
4055.079, 5475.402
4057.007, 5463.075
4058.936, 5474.502
4060.864, 5473.610
4062.792, 5456.243
4064.721, 5475.000
4066.649, 5505.854
4068.578, 5480.520
4070.506, 5462.497
4072.435, 5484.696
4074.363, 5494.894
4076.292, 5495.616
4078.220, 5508.814
4080.149, 5516.952
4082.077, 5503.191
4084.006, 5510.302
4085.934, 5536.148
4087.863, 5532.340
4089.791, 5526.848
4091.719, 5553.618
4093.648, 5540.906
4095.576, 5496.999
4097.505, 5520.550
4099.433, 5549.279
4101.362, 5526.165
4103.290, 5517.147
4105.219, 5519.595
4107.147, 5522.426
4109.076, 5537.527
4111.004, 5551.320
4112.933, 5533.081
4114.861, 5499.836
4116.790, 5504.179
4118.718, 5517.999
4120.646, 5548.387
4122.575, 5569.106
4124.503, 5565.156
4126.432, 5545.479
4128.360, 5519.670
4130.289, 5498.689
4132.217, 5488.338
4134.146, 5535.124
4136.074, 5552.079
4138.002, 5547.448
4139.931, 5575.850
4141.859, 5583.619
4143.788, 5590.293
4145.716, 5568.621
4147.645, 5542.290
4149.573, 5572.615
4151.502, 5586.464
4153.430, 5565.602
4155.359, 5603.735
4157.287, 5663.911
4159.216, 5639.795
4161.144, 5595.493
4163.073, 5586.117
4165.001, 5581.533
4166.930, 5573.134
4168.858, 5571.456
4170.787, 5590.126
4172.715, 5623.279
4174.644, 5634.366
4176.572, 5628.952
4178.500, 5615.491
4180.429, 5604.559
4182.357, 5587.957
4184.286, 5592.592
4186.214, 5635.285
4188.143, 5642.527
4190.071, 5612.376
4192.000, 5578.020
4193.928, 5594.025
4195.856, 5634.741
4197.785, 5608.272
4199.713, 5589.879
4201.642, 5634.555
4203.570, 5635.573
4205.499, 5596.486
4207.427, 5627.305
4209.356, 5644.413
4211.284, 5559.190
4213.213, 5552.916
4215.141, 5622.708
4217.070, 5689.155
4218.998, 5722.806
4220.927, 5705.732
4222.855, 5658.200
4224.784, 5603.759
4226.712, 5618.512
4228.641, 5653.820
4230.569, 5701.481
4232.498, 5697.278
4234.426, 5667.160
4236.354, 5688.362
4238.283, 5700.958
4240.211, 5678.287
4242.140, 5645.910
4244.068, 5627.128
4245.997, 5690.243
4247.925, 5737.643
4249.854, 5736.788
4251.782, 5727.413
4253.710, 5722.393
4255.639, 5755.131
4257.567, 5762.070
4259.496, 5727.384
4261.424, 5740.733
4263.353, 5767.363
4265.281, 5772.782
4267.210, 5765.660
4269.138, 5749.097
4271.067, 5746.801
4272.995, 5754.583
4274.924, 5778.234
4276.852, 5779.560
4278.781, 5761.199
4280.709, 5740.877
4282.638, 5741.216
4284.566, 5785.830
4286.495, 5808.650
4288.423, 5810.012
4290.352, 5779.172
4292.280, 5777.249
4294.208, 5833.131
4296.137, 5873.907
4298.065, 5898.875
4299.994, 5903.063
4301.922, 5908.341
4303.851, 5919.898
4305.779, 5919.164
4307.708, 5908.520
4309.636, 5884.324
4311.564, 5871.906
4313.493, 5873.277
4315.421, 5887.667
4317.350, 5891.313
4319.278, 5864.818
4321.207, 5870.783
4323.135, 5896.763
4325.064, 5902.104
4326.992, 5898.518
4328.921, 5889.540
4330.849, 5908.779
4332.778, 5939.768
4334.706, 5964.039
4336.635, 5974.036
4338.563, 5970.884
4340.492, 5968.698
4342.420, 5965.538
4344.349, 5958.930
4346.277, 5950.167
4348.206, 5947.000
4350.134, 5982.310
4352.063, 6006.138
4353.991, 5994.733
4355.919, 5989.313
4357.848, 5993.225
4359.776, 6015.361
4361.705, 6029.949
4363.633, 6030.265
4365.562, 5984.430
4367.490, 5959.836
4369.418, 6039.658
4371.347, 6090.229
4373.275, 6105.038
4375.204, 6074.550
4377.132, 6058.445
4379.061, 6083.784
4380.989, 6114.731
4382.918, 6127.420
4384.846, 6069.614
4386.775, 6057.800
4388.703, 6103.053
4390.632, 6105.038
4392.560, 6102.318
4394.489, 6118.669
4396.417, 6122.321
4398.346, 6124.158
4400.274, 6169.880
4402.203, 6176.365
4404.131, 6129.261
4406.060, 6142.285
4407.988, 6174.648
4409.917, 6193.390
4411.845, 6176.851
4413.773, 6149.457
4415.702, 6220.319
4417.630, 6263.598
4419.559, 6208.741
4421.487, 6210.271
4423.416, 6229.386
4425.344, 6202.007
4427.272, 6235.084
4429.201, 6322.169
4431.129, 6339.859
4433.058, 6318.000
4434.986, 6265.098
4436.915, 6254.485
4438.843, 6262.789
4440.772, 6244.346
4442.700, 6251.341
4444.629, 6280.974
4446.557, 6270.957
4448.486, 6246.256
4450.414, 6209.597
4452.343, 6258.243
4454.271, 6331.602
4456.200, 6316.008
4458.128, 6290.930
4460.057, 6274.843
4461.985, 6308.155
4463.914, 6343.487
4465.842, 6352.342
4467.771, 6363.695
4469.699, 6376.316
4471.627, 6393.855
4473.556, 6371.862
4475.484, 6322.372
4477.413, 6374.972
4479.341, 6429.949
4481.270, 6431.571
4483.198, 6416.887
4485.126, 6392.345
4487.055, 6346.922
4488.983, 6352.071
4490.912, 6406.086
4492.840, 6410.912
4494.769, 6418.394
4496.697, 6456.993
4498.626, 6450.144
4500.554, 6440.311
4502.483, 6492.229
4504.411, 6514.568
4506.340, 6506.644
4508.268, 6518.174
4510.197, 6509.716
4512.125, 6464.046
4514.054, 6471.701
4515.982, 6511.254
4517.911, 6586.347
4519.839, 6588.074
4521.768, 6537.928
4523.696, 6495.291
4525.625, 6494.643
4527.553, 6539.642
4529.481, 6571.765
4531.410, 6587.370
4533.338, 6583.415
4535.267, 6581.992
4537.195, 6583.345
4539.124, 6577.394
4541.052, 6605.461
4542.980, 6656.214
4544.909, 6610.779
4546.837, 6583.451
4548.766, 6625.343
4550.694, 6579.603
4552.623, 6539.441
4554.551, 6603.216
4556.480, 6630.742
4558.408, 6636.881
4560.337, 6716.125
4562.265, 6712.587
4564.194, 6607.937
4566.122, 6625.941
4568.051, 6664.515
4569.979, 6670.932
4571.908, 6645.637
4573.836, 6626.788
4575.765, 6661.691
4577.693, 6692.046
4579.622, 6708.965
4581.550, 6704.193
4583.479, 6703.580
4585.407, 6715.467
4587.335, 6765.128
4589.264, 6796.325
4591.192, 6770.178
4593.121, 6780.541
4595.049, 6786.891
4596.978, 6723.057
4598.906, 6732.965
4600.834, 6785.239
4602.763, 6753.030
4604.691, 6737.990
4606.620, 6760.542
4608.548, 6733.888
4610.477, 6731.832
4612.405, 6795.264
4614.334, 6822.191
4616.262, 6826.144
4618.191, 6823.390
4620.119, 6783.057
4622.048, 6758.846
4623.976, 6895.409
4625.905, 6966.069
4627.833, 6944.199
4629.762, 6912.987
4631.690, 6899.354
4633.619, 6910.174
4635.547, 6872.731
4637.476, 6844.514
4639.404, 6872.064
4641.333, 6868.611
4643.261, 6861.610
4645.189, 6912.453
4647.118, 6904.937
4649.046, 6866.350
4650.975, 6917.916
4652.903, 6933.965
4654.832, 6903.148
4656.760, 6905.800
4658.688, 6915.859
4660.617, 6920.190
4662.545, 6945.829
4664.474, 6976.770
4666.402, 7004.445
4668.331, 6988.405
4670.259, 6972.507
4672.188, 7035.502
4674.116, 7033.592
4676.045, 6990.555
4677.973, 6994.099
4679.902, 7011.634
4681.830, 7030.938
4683.759, 7011.817
4685.687, 7009.881
4687.616, 7035.492
4689.544, 6999.094
4691.473, 6966.017
4693.401, 6981.474
4695.330, 7019.059
4697.258, 7036.683
4699.187, 6987.354
4701.115, 6980.476
4703.043, 7013.618
4704.972, 7084.829
4706.900, 7131.638
4708.829, 7144.301
4710.757, 7103.146
4712.686, 7073.052
4714.614, 7064.355
4716.542, 7059.821
4718.471, 7065.851
4720.399, 7084.450
4722.328, 7121.308
4724.256, 7147.446
4726.185, 7147.815
4728.113, 7115.270
4730.042, 7102.099
4731.970, 7151.231
4733.899, 7142.302
4735.827, 7125.185
4737.756, 7180.934
4739.684, 7212.077
4741.613, 7221.223
4743.541, 7215.339
4745.470, 7241.817
4747.398, 7273.238
4749.327, 7203.363
4751.255, 7200.307
4753.184, 7264.133
4755.112, 7213.304
4757.041, 7191.230
4758.969, 7226.361
4760.897, 7258.923
4762.826, 7266.379
4764.754, 7238.743
4766.683, 7222.738
4768.611, 7211.045
4770.540, 7199.853
4772.468, 7168.143
4774.396, 7162.694
4776.325, 7245.765
4778.253, 7247.983
4780.182, 7212.338
4782.110, 7176.271
4784.039, 7190.438
4785.967, 7230.873
4787.896, 7260.719
4789.824, 7317.733
4791.753, 7368.680
4793.681, 7340.307
4795.610, 7326.664
4797.538, 7323.364
4799.467, 7265.737
4801.395, 7294.746
4803.324, 7385.011
4805.252, 7366.491
4807.181, 7352.200
4809.109, 7360.470
4811.038, 7368.347
4812.966, 7361.937
4814.895, 7342.323
4816.823, 7344.066
4818.751, 7361.847
4820.680, 7385.941
4822.608, 7337.923
4824.537, 7315.506
4826.465, 7359.292
4828.394, 7377.319
4830.322, 7389.228
4832.250, 7400.962
4834.179, 7328.085
4836.107, 7288.575
4838.036, 7365.729
4839.964, 7408.372
4841.893, 7420.919
4843.821, 7405.948
4845.750, 7383.686
4847.678, 7373.923
4849.607, 7398.743
4851.535, 7400.852
4853.464, 7402.877
4855.392, 7423.340
4857.321, 7431.100
4859.249, 7436.647
4861.178, 7458.250
4863.106, 7437.567
4865.035, 7426.921
4866.963, 7481.969
4868.892, 7502.490
4870.820, 7506.734
4872.749, 7531.859
4874.677, 7485.826
4876.605, 7445.383
4878.534, 7509.944
4880.462, 7515.020
4882.391, 7494.000
4884.319, 7502.696
4886.248, 7498.542
4888.176, 7495.930
4890.104, 7522.096
4892.033, 7531.024
4893.961, 7515.127
4895.890, 7458.119
4897.818, 7461.141
4899.747, 7505.646
4901.675, 7594.516
4903.604, 7523.291
4905.532, 7436.888
4907.461, 7532.754
4909.389, 7572.882
4911.318, 7570.182
4913.246, 7556.724
4915.175, 7587.429
4917.103, 7607.169
4919.032, 7540.690
4920.960, 7577.615
4922.889, 7614.490
4924.817, 7498.295
4926.746, 7472.766
4928.674, 7511.466
4930.603, 7589.294
4932.531, 7620.159
4934.459, 7628.383
4936.388, 7642.995
4938.316, 7592.362
4940.245, 7549.696
4942.173, 7603.753
4944.102, 7573.763
4946.030, 7554.775
4947.958, 7617.875
4949.887, 7590.764
4951.815, 7557.715
4953.744, 7587.874
4955.672, 7600.381
4957.601, 7606.320
4959.529, 7613.125
4961.458, 7660.396
4963.386, 7684.601
4965.315, 7656.306
4967.243, 7646.711
4969.172, 7627.592
4971.100, 7588.741
4973.029, 7632.513
4974.957, 7663.111
4976.886, 7651.096
4978.814, 7612.884
4980.743, 7592.290
4982.671, 7603.318
4984.600, 7669.932
4986.528, 7679.815
4988.457, 7633.005
4990.385, 7629.395
4992.313, 7657.018
4994.242, 7691.133
4996.170, 7660.697
4998.099, 7670.122
5000.027, 7695.208
5001.956, 7643.464
5003.884, 7624.997
5005.813, 7634.914
5007.741, 7642.236
5009.669, 7667.647
5011.598, 7692.544
5013.526, 7687.590
5015.455, 7720.646
5017.383, 7753.927
5019.312, 7752.239
5021.240, 7703.473
5023.169, 7682.547
5025.097, 7752.210
5027.026, 7731.497
5028.954, 7701.046
5030.883, 7699.935
5032.811, 7746.482
5034.740, 7777.212
5036.668, 7766.758
5038.597, 7670.473
5040.525, 7666.025
5042.454, 7751.542
5044.382, 7742.047
5046.311, 7694.476
5048.239, 7656.353
5050.167, 7724.063
5052.096, 7749.790
5054.024, 7747.474
5055.953, 7760.350
5057.881, 7795.260
5059.810, 7794.485
5061.738, 7696.851
5063.667, 7707.814
5065.595, 7740.645
5067.523, 7724.966
5069.452, 7756.338
5071.380, 7767.342
5073.309, 7732.797
5075.237, 7785.289
5077.166, 7817.424
5079.094, 7803.323
5081.023, 7753.038
5082.951, 7734.484
5084.880, 7746.191
5086.808, 7745.993
5088.737, 7791.968
5090.665, 7834.373
5092.594, 7792.597
5094.522, 7743.941
5096.451, 7724.060
5098.379, 7762.386
5100.308, 7770.404
5102.236, 7787.729
5104.165, 7834.806
5106.093, 7765.096
5108.021, 7750.365
5109.950, 7808.057
5111.878, 7758.164
5113.807, 7727.895
5115.735, 7742.462
5117.664, 7817.498
5119.592, 7814.350
5121.521, 7782.097
5123.449, 7805.457
5125.377, 7820.365
5127.306, 7799.572
5129.234, 7724.675
5131.163, 7737.898
5133.091, 7761.315
5135.020, 7761.813
5136.948, 7801.491
5138.877, 7788.750
5140.805, 7739.633
5142.734, 7772.460
5144.662, 7782.216
5146.591, 7788.142
5148.519, 7856.137
5150.448, 7868.225
5152.376, 7847.982
5154.305, 7819.409
5156.233, 7795.755
5158.162, 7793.670
5160.090, 7817.164
5162.019, 7866.022
5163.947, 7857.159
5165.875, 7795.519
5167.804, 7737.056
5169.732, 7732.792
5171.661, 7758.879
5173.589, 7779.853
5175.518, 7777.971
5177.446, 7778.962
5179.375, 7800.720
5181.303, 7829.587
5183.231, 7838.034
5185.160, 7827.026
5187.088, 7852.864
5189.017, 7841.797
5190.945, 7814.925
5192.874, 7833.550
5194.802, 7854.739
5196.731, 7860.430
5198.659, 7834.073
5200.588, 7805.668
5202.516, 7835.906
5204.445, 7919.051
5206.373, 7850.389
5208.302, 7795.103
5210.230, 7778.709
5212.159, 7782.513
5214.087, 7812.408
5216.016, 7831.992
5217.944, 7800.100
5219.873, 7836.324
5221.801, 7876.306
5223.729, 7891.459
5225.658, 7892.811
5227.586, 7874.023
5229.515, 7840.918
5231.443, 7793.607
5233.372, 7798.136
5235.300, 7837.610
5237.229, 7895.055
5239.157, 7922.437
5241.085, 7894.129
5243.014, 7827.410
5244.942, 7832.168
5246.871, 7857.958
5248.799, 7874.288
5250.728, 7847.640
5252.656, 7782.968
5254.585, 7773.354
5256.513, 7872.828
5258.442, 7896.009
5260.370, 7896.270
5262.299, 7892.360
5264.227, 7878.610
5266.156, 7888.446
5268.084, 7877.709
5270.013, 7755.250
5271.941, 7801.062
5273.870, 7845.681
5275.798, 7819.108
5277.727, 7811.649
5279.655, 7834.061
5281.583, 7871.742
5283.512, 7906.221
5285.440, 7887.630
5287.369, 7853.806
5289.297, 7832.265
5291.226, 7890.865
5293.154, 7907.562
5295.083, 7867.573
5297.011, 7823.650
5298.939, 7805.034
5300.868, 7798.039
5302.796, 7784.602
5304.725, 7871.701
5306.653, 7920.328
5308.582, 7897.996
5310.510, 7916.526
5312.439, 7900.462
5314.367, 7861.165
5316.296, 7825.608
5318.224, 7827.537
5320.153, 7838.168
5322.081, 7848.679
5324.010, 7917.596
5325.938, 7892.316
5327.867, 7821.766
5329.795, 7819.049
5331.724, 7780.741
5333.652, 7792.362
5335.581, 7870.726
5337.509, 7833.863
5339.438, 7826.772
5341.366, 7833.994
5343.294, 7776.048
5345.223, 7762.644
5347.151, 7778.184
5349.080, 7806.982
5351.008, 7816.170
5352.937, 7797.727
5354.865, 7785.171
5356.793, 7831.545
5358.722, 7846.959
5360.650, 7823.159
5362.579, 7771.289
5364.507, 7766.814
5366.436, 7742.256
5368.364, 7719.508
5370.293, 7751.028
5372.221, 7782.847
5374.150, 7819.050
5376.078, 7851.266
5378.007, 7829.362
5379.935, 7746.159
5381.864, 7684.305
5383.792, 7745.289
5385.721, 7763.178
5387.649, 7756.882
5389.578, 7748.822
5391.506, 7794.039
5393.435, 7798.059
5395.363, 7767.895
5397.292, 7726.379
5399.220, 7752.032
5401.148, 7769.772
5403.077, 7770.113
5405.005, 7801.020
5406.934, 7784.199
5408.862, 7789.281
5410.791, 7860.823
5412.719, 7857.930
5414.647, 7801.722
5416.576, 7748.561
5418.504, 7777.011
5420.433, 7742.933
5422.361, 7728.837
5424.290, 7757.487
5426.218, 7711.303
5428.147, 7736.039
5430.075, 7769.486
5432.004, 7718.416
5433.932, 7690.380
5435.861, 7744.787
5437.789, 7820.023
5439.718, 7722.327
5441.646, 7775.221
5443.575, 7794.648
5445.503, 7683.033
5447.432, 7688.787
5449.360, 7694.825
5451.289, 7682.364
5453.217, 7653.136
5455.146, 7670.495
5457.074, 7674.695
5459.002, 7665.457
5460.931, 7713.984
5462.859, 7688.821
5464.788, 7665.682
5466.716, 7693.573
5468.645, 7693.163
5470.573, 7675.368
5472.501, 7667.779
5474.430, 7702.268
5476.358, 7720.955
5478.287, 7705.438
5480.215, 7663.459
5482.144, 7621.673
5484.072, 7615.606
5486.001, 7634.106
5487.929, 7657.364
5489.858, 7615.509
5491.786, 7600.622
5493.715, 7618.384
5495.643, 7657.447
5497.572, 7719.134
5499.500, 7716.338
5501.429, 7660.180
5503.357, 7603.855
5505.286, 7642.758
5507.214, 7662.576
5509.143, 7629.380
5511.071, 7609.586
5513.000, 7601.310
5514.928, 7598.389
5516.856, 7597.541
5518.785, 7607.654
5520.713, 7616.283
5522.642, 7609.954
5524.570, 7576.263
5526.499, 7549.523
5528.427, 7571.714
5530.355, 7611.681
5532.284, 7590.475
5534.212, 7545.256
5536.141, 7529.364
5538.069, 7543.334
5539.998, 7524.817
5541.926, 7571.540
5543.855, 7583.974
5545.783, 7527.272
5547.712, 7593.747
5549.640, 7525.465
5551.569, 7467.374
5553.497, 7568.482
5555.426, 7585.969
5557.354, 7549.478
5559.283, 7511.257
5561.211, 7523.601
5563.140, 7520.507
5565.068, 7543.539
5566.997, 7573.229
5568.925, 7558.973
5570.854, 7566.828
5572.782, 7561.443
5574.710, 7522.055
5576.639, 7415.875
5578.567, 7404.135
5580.496, 7466.793
5582.424, 7545.928
5584.353, 7473.404
5586.281, 7463.554
5588.209, 7492.599
5590.138, 7513.394
5592.066, 7422.376
5593.995, 7422.703
5595.923, 7449.900
5597.852, 7443.101
5599.780, 7476.720
5601.709, 7466.206
5603.637, 7443.595
5605.566, 7446.062
5607.494, 7449.757
5609.423, 7430.204
5611.351, 7417.426
5613.280, 7449.088
5615.208, 7391.103
5617.137, 7370.424
5619.065, 7405.603
5620.994, 7478.303
5622.922, 7467.794
5624.851, 7430.973
5626.779, 7395.243
5628.708, 7372.926
5630.636, 7328.270
5632.564, 7332.597
5634.493, 7348.606
5636.421, 7295.241
5638.350, 7357.678
5640.278, 7369.236
5642.207, 7339.290
5644.135, 7392.727
5646.063, 7302.293
5647.992, 7281.683
5649.920, 7331.230
5651.849, 7340.746
5653.777, 7288.422
5655.706, 7281.277
5657.634, 7291.791
5659.563, 7228.289
5661.491, 7287.634
5663.420, 7341.383
5665.348, 7340.684
5667.277, 7284.635
5669.205, 7273.548
5671.134, 7254.348
5673.062, 7229.529
5674.991, 7231.056
5676.919, 7257.866
5678.848, 7280.802
5680.776, 7290.574
5682.705, 7287.769
5684.633, 7248.394
5686.562, 7258.658
5688.490, 7277.719
5690.418, 7230.406
5692.347, 7232.492
5694.275, 7261.485
5696.204, 7271.742
5698.132, 7228.330
5700.061, 7187.498
5701.989, 7201.182
5703.917, 7193.281
5705.846, 7104.128
5707.774, 7185.793
5709.703, 7204.348
5711.631, 7210.305
5713.560, 7267.772
5715.488, 7208.625
5717.417, 7135.313
5719.345, 7123.338
5721.274, 7189.110
5723.202, 7241.434
5725.131, 7178.330
5727.059, 7102.779
5728.988, 7087.221
5730.916, 7141.302
5732.845, 7245.256
5734.773, 7215.508
5736.702, 7074.899
5738.630, 7053.751
5740.559, 7096.201
5742.487, 7129.051
5744.416, 7125.222
5746.344, 7084.398
5748.272, 7030.323
5750.201, 7045.145
5752.129, 7087.547
5754.058, 7077.053
5755.986, 7071.761
5757.915, 7086.165
5759.843, 7077.040
5761.771, 7013.671
5763.700, 6980.574
5765.628, 7012.979
5767.557, 7007.415
5769.485, 6947.523
5771.414, 7030.360
5773.342, 7123.509
5775.271, 7104.129
5777.199, 6990.400
5779.128, 6916.212
5781.056, 6992.842
5782.985, 7024.639
5784.913, 6990.054
5786.842, 6956.849
5788.770, 7026.850
5790.699, 7072.108
5792.627, 7054.212
5794.556, 6981.163
5796.484, 6970.104
5798.413, 6944.549
5800.341, 6938.010
5802.270, 6966.535
5804.198, 7010.907
5806.126, 6974.063
5808.055, 6937.165
5809.983, 6930.411
5811.912, 6945.324
5813.840, 6963.871
5815.769, 6961.441
5817.697, 6945.482
5819.625, 6926.768
5821.554, 6885.323
5823.482, 6828.883
5825.411, 6856.456
5827.339, 6949.081
5829.268, 6891.296
5831.196, 6875.183
5833.125, 6881.699
5835.053, 6884.583
5836.982, 6870.532
5838.910, 6909.879
5840.839, 6870.417
5842.767, 6802.704
5844.696, 6778.731
5846.624, 6861.336
5848.553, 6863.133
5850.481, 6815.754
5852.410, 6785.120
5854.338, 6878.743
5856.267, 6873.499
5858.195, 6870.292
5860.124, 6844.068
5862.052, 6750.746
5863.980, 6773.772
5865.909, 6745.865
5867.837, 6758.902
5869.766, 6824.463
5871.694, 6816.107
5873.623, 6762.668
5875.551, 6742.554
5877.479, 6753.777
5879.408, 6761.581
5881.336, 6716.124
5883.265, 6663.494
5885.193, 6662.930
5887.122, 6710.937
5889.050, 6727.458
5890.979, 6749.931
5892.907, 6708.700
5894.836, 6659.734
5896.764, 6675.758
5898.693, 6715.891
5900.621, 6676.007
5902.550, 6641.582
5904.478, 6645.265
5906.407, 6630.054
5908.335, 6746.759
5910.264, 6688.973
5912.192, 6596.388
5914.121, 6648.563
5916.049, 6657.665
5917.978, 6657.340
5919.906, 6629.783
5921.834, 6602.275
5923.763, 6654.945
5925.691, 6605.721
5927.620, 6579.941
5929.548, 6575.804
5931.477, 6574.769
5933.405, 6603.555
5935.333, 6542.313
5937.262, 6528.466
5939.190, 6577.828
5941.119, 6642.124
5943.047, 6622.481
5944.976, 6556.403
5946.904, 6530.185
5948.833, 6541.286
5950.761, 6517.871
5952.690, 6540.148
5954.618, 6489.084
5956.547, 6443.301
5958.475, 6461.705
5960.404, 6479.731
5962.332, 6505.301
5964.261, 6484.870
5966.189, 6432.649
5968.118, 6388.759
5970.046, 6394.266
5971.975, 6473.292
5973.903, 6455.088
5975.832, 6385.146
5977.760, 6416.623
5979.688, 6400.979
5981.617, 6383.094
5983.545, 6385.141
5985.474, 6414.460
5987.402, 6466.917
5989.331, 6431.709
5991.259, 6384.826
5993.188, 6350.030
5995.116, 6349.722
5997.044, 6448.804
5998.973, 6393.277
6000.901, 6353.062
6002.830, 6376.430
6004.758, 6424.659
6006.687, 6352.550
6008.615, 6330.517
6010.544, 6319.408
6012.472, 6337.506
6014.401, 6391.007
6016.329, 6252.344
6018.258, 6324.329
6020.186, 6297.373
6022.115, 6214.442
6024.043, 6273.541
6025.972, 6340.496
6027.900, 6291.259
6029.829, 6279.276
6031.757, 6294.364
6033.686, 6231.203
6035.614, 6194.712
6037.542, 6218.143
6039.471, 6232.893
6041.399, 6224.545
6043.328, 6220.841
6045.256, 6241.463
6047.185, 6306.129
6049.113, 6267.995
6051.042, 6172.517
6052.970, 6194.375
6054.898, 6270.430
6056.827, 6138.217
6058.755, 6087.813
6060.684, 6147.687
6062.612, 6127.652
6064.541, 6170.306
6066.469, 6166.184
6068.398, 6132.673
6070.326, 6103.898
6072.255, 6103.916
6074.183, 6088.917
6076.112, 6120.101
6078.040, 6099.255
6079.969, 6052.826
6081.897, 6066.520
6083.826, 6055.586
6085.754, 6018.250
6087.683, 6017.497
6089.611, 6062.221
6091.540, 6119.937
6093.468, 6089.702
6095.396, 6032.357
6097.325, 5928.104
6099.253, 5897.099
6101.182, 6004.593
6103.110, 6014.896
6105.039, 5984.926
6106.967, 5953.859
6108.896, 5969.262
6110.824, 6019.375
6112.752, 5979.244
6114.681, 5985.663
6116.609, 5972.982
6118.538, 5931.012
6120.466, 5890.402
6122.395, 5910.156
6124.323, 5927.191
6126.252, 5887.948
6128.180, 5923.163
6130.109, 5967.452
6132.037, 5836.892
6133.966, 5861.130
6135.894, 5786.042
6137.823, 5809.621
6139.751, 5866.234
6141.680, 5825.474
6143.608, 5828.069
6145.537, 5844.736
6147.465, 5836.988
6149.394, 5846.796
6151.322, 5877.862
6153.250, 5840.335
6155.179, 5775.242
6157.107, 5694.574
6159.036, 5690.554
6160.964, 5748.921
6162.893, 5779.999
6164.821, 5788.480
6166.750, 5740.309
6168.678, 5757.397
6170.606, 5764.613
6172.535, 5691.458
6174.463, 5681.332
6176.392, 5748.153
6178.320, 5790.910
6180.249, 5748.299
6182.177, 5674.186
6184.106, 5688.002
6186.034, 5677.025
6187.963, 5633.637
6189.891, 5629.387
6191.820, 5669.514
6193.748, 5699.077
6195.677, 5604.887
6197.605, 5599.391
6199.534, 5610.881
6201.462, 5608.438
6203.391, 5605.609
6205.319, 5622.642
6207.248, 5576.678
6209.176, 5554.844
6211.104, 5539.012
6213.033, 5575.249
6214.961, 5638.333
6216.890, 5544.521
6218.818, 5541.834
6220.747, 5549.086
6222.675, 5537.518
6224.604, 5514.065
6226.532, 5494.945
6228.460, 5486.776
6230.389, 5541.828
6232.317, 5552.696
6234.246, 5510.050
6236.174, 5455.679
6238.103, 5436.757
6240.031, 5469.538
6241.960, 5458.466
6243.888, 5392.471
6245.817, 5357.887
6247.745, 5387.337
6249.674, 5373.299
6251.602, 5377.600
6253.531, 5425.126
6255.459, 5382.727
6257.388, 5332.356
6259.316, 5382.843
6261.245, 5344.281
6263.173, 5402.042
6265.102, 5327.240
6267.030, 5305.347
6268.958, 5359.484
6270.887, 5364.549
6272.815, 5329.870
6274.744, 5296.103
6276.672, 5275.584
6278.601, 5264.891
6280.529, 5286.974
6282.458, 5346.615
6284.386, 5217.161
6286.314, 5261.148
6288.243, 5277.263
6290.171, 5268.155
6292.100, 5256.197
6294.028, 5229.042
6295.957, 5257.452
6297.885, 5243.537
6299.814, 5234.658
6301.742, 5235.401
6303.671, 5219.817
6305.599, 5173.226
6307.528, 5156.711
6309.456, 5131.346
6311.385, 5147.379
6313.313, 5117.500
6315.242, 5089.221
6317.170, 5171.016
6319.099, 5117.093
6321.027, 5104.442
6322.956, 5106.787
6324.884, 5084.135
6326.813, 5060.249
6328.741, 5074.236
6330.669, 5066.425
6332.598, 5119.842
6334.526, 5165.416
6336.455, 5100.983
6338.383, 5063.546
6340.312, 5149.527
6342.240, 5044.603
6344.168, 4962.068
6346.097, 4980.207
6348.025, 4995.086
6349.954, 5025.946
6351.882, 5071.732
6353.811, 5024.287
6355.739, 5031.797
6357.668, 4990.926
6359.596, 4960.957
6361.525, 4958.862
6363.453, 4949.448
6365.382, 4902.430
6367.310, 4901.849
6369.239, 4881.578
6371.167, 4882.501
6373.096, 4927.139
6375.024, 4961.480
6376.953, 4939.629
6378.881, 4927.447
6380.810, 4916.988
6382.738, 4852.149
6384.667, 4838.308
6386.595, 4883.861
6388.523, 4901.144
6390.452, 4797.745
6392.380, 4832.463
6394.309, 4821.532
6396.237, 4817.576
6398.166, 4834.094
6400.094, 4856.434
6402.022, 4859.539
6403.951, 4816.431
6405.879, 4788.284
6407.808, 4762.789
6409.736, 4715.406
6411.665, 4690.170
6413.593, 4711.901
6415.522, 4746.093
6417.450, 4715.209
6419.379, 4692.610
6421.307, 4699.851
6423.236, 4719.647
6425.164, 4745.153
6427.093, 4752.653
6429.021, 4687.677
6430.950, 4710.487
6432.878, 4699.929
6434.807, 4709.580
6436.735, 4698.740
6438.664, 4662.996
6440.592, 4636.587
6442.521, 4637.811
6444.449, 4662.418
6446.377, 4653.420
6448.306, 4657.749
6450.234, 4676.774
6452.163, 4662.472
6454.091, 4606.007
6456.020, 4609.640
6457.948, 4610.035
6459.876, 4565.686
6461.805, 4555.775
6463.733, 4591.116
6465.662, 4596.092
6467.590, 4537.310
6469.519, 4569.574
6471.447, 4526.653
6473.376, 4496.956
6475.304, 4555.381
6477.233, 4545.631
6479.161, 4489.888
6481.090, 4502.641
6483.018, 4527.650
6484.947, 4522.618
6486.875, 4568.378
6488.804, 4467.831
6490.732, 4472.074
6492.661, 4514.254
6494.589, 4444.868
6496.518, 4425.838
6498.446, 4482.294
6500.375, 4434.074
6502.303, 4418.456
6504.231, 4467.313
6506.160, 4456.259
6508.088, 4387.216
6510.017, 4413.202
6511.945, 4433.293
6513.874, 4424.283
6515.802, 4373.331
6517.730, 4352.073
6519.659, 4382.286
6521.587, 4406.407
6523.516, 4382.995
6525.444, 4393.934
6527.373, 4310.375
6529.301, 4424.525
6531.230, 4380.227
6533.158, 4344.120
6535.087, 4363.426
6537.015, 4344.462
6538.944, 4276.686
6540.872, 4320.643
6542.801, 4346.417
6544.729, 4329.856
6546.658, 4312.004
6548.586, 4250.050
6550.515, 4198.561
6552.443, 4232.606
6554.372, 4266.318
6556.300, 4243.534
6558.229, 4256.122
6560.157, 4308.977
6562.085, 4268.329
6564.014, 4224.325
6565.942, 4232.237
6567.871, 4237.585
6569.799, 4271.478
6571.728, 4198.571
6573.656, 4250.354
6575.584, 4263.254
6577.513, 4201.025
6579.441, 4158.531
6581.370, 4164.652
6583.298, 4159.606
6585.227, 4141.062
6587.155, 4166.623
6589.084, 4179.841
6591.012, 4177.966
6592.941, 4192.268
6594.869, 4169.587
6596.798, 4124.038
6598.726, 4135.010
6600.655, 4174.232
6602.583, 4122.944
6604.512, 4062.683
6606.440, 4043.783
6608.369, 4101.830
6610.297, 4124.675
6612.226, 4107.005
6614.154, 4106.023
6616.083, 4032.239
6618.011, 4036.883
6619.939, 4110.897
6621.868, 4081.351
6623.796, 4060.977
6625.725, 4041.016
6627.653, 4010.723
##END=



