##NAMES=Beudantite
##RRUFFID=R060985
##IDEAL CHEMISTRY=PbFe^3+^_3_(AsO_4_)(SO_4_)(OH)_6_
##LOCALITY=Kintore Opencut, Broken Hill, New South Wales, Australia
##OWNER=RRUFF
##SOURCE=Bob Jenkins
##DESCRIPTION=Pale green rhombohedra
##STATUS=The identification of this mineral is confirmed by single-crystal X-ray diffraction and chemical analysis
##URL=https://www.rruff.net/odr/rruff_sample/R060985
##MEASURED CHEMISTRY=(Pb_0.92_Cu_0.06_Zn_0.02_)(Fe^3+^_2.46_Al_0.54_)(As_1.00_O_4_)(S_0.54_As_0.46_)O_4_)((OH)_5.00_(H_2_O)_1.00_)
##DIFFRACTION SAMPLE DESCRIPTION=Single crystal, powder profile is calculated
##CELL PARAMETERS=a: 7.25 b: 7.25 c: 16.97 alpha: 90 beta: 90 gamma: 120 volume: 773 crystal system: hexagonal
##FILETYPE=Raman RAW
##RAMAN WAVELENGTH=532

124.6177, 3129.574
126.5461, 3749.150
128.4746, 4369.674
130.4031, 5002.875
132.3315, 5541.200
134.2600, 6026.894
136.1885, 6411.803
138.1169, 6660.303
140.0454, 6764.720
141.9739, 6738.612
143.9023, 6594.004
145.8308, 6246.521
147.7593, 5900.620
149.6877, 5532.179
151.6162, 5164.118
153.5447, 4845.428
155.4731, 4588.385
157.4016, 4381.339
159.3301, 4229.946
161.2585, 4137.182
163.1870, 4088.523
165.1155, 4087.903
167.0439, 4130.499
168.9724, 4214.138
170.9009, 4323.647
172.8293, 4475.969
174.7578, 4690.446
176.6863, 4961.857
178.6147, 5297.317
180.5432, 5691.358
182.4717, 6167.582
184.4001, 6659.724
186.3286, 7199.147
188.2571, 7747.617
190.1855, 8245.741
192.1140, 8732.116
194.0425, 9119.998
195.9709, 9368.032
197.8994, 9424.293
199.8279, 9407.743
201.7563, 9302.904
203.6848, 9122.717
205.6133, 8896.118
207.5417, 8588.534
209.4702, 8251.543
211.3987, 7914.745
213.3272, 7568.686
215.2556, 7233.980
217.1841, 6906.812
219.1126, 6584.727
221.0410, 6312.013
222.9695, 6107.262
224.8980, 5942.053
226.8264, 5783.222
228.7549, 5616.042
230.6834, 5483.025
232.6118, 5398.208
234.5403, 5376.620
236.4688, 5361.088
238.3972, 5363.771
240.3257, 5367.354
242.2542, 5348.107
244.1826, 5286.316
246.1111, 5224.735
248.0396, 5182.220
249.9680, 5178.210
251.8965, 5151.424
253.8250, 5086.875
255.7534, 5001.423
257.6819, 4922.313
259.6104, 4851.952
261.5388, 4789.442
263.4673, 4736.898
265.3958, 4698.556
267.3242, 4659.855
269.2527, 4610.963
271.1812, 4560.404
273.1096, 4528.530
275.0381, 4516.239
276.9666, 4522.878
278.8950, 4551.288
280.8235, 4600.210
282.7520, 4669.083
284.6804, 4759.231
286.6089, 4868.550
288.5374, 5001.960
290.4658, 5178.883
292.3943, 5363.526
294.3228, 5545.800
296.2512, 5736.415
298.1797, 5885.151
300.1082, 5973.114
302.0366, 6009.534
303.9651, 6023.339
305.8936, 6038.645
307.8220, 6018.206
309.7505, 5932.604
311.6790, 5773.563
313.6074, 5603.207
315.5359, 5438.513
317.4644, 5275.489
319.3928, 5093.164
321.3213, 4868.548
323.2498, 4644.808
325.1782, 4440.667
327.1067, 4256.225
329.0352, 4091.269
330.9636, 3941.678
332.8921, 3810.290
334.8206, 3701.104
336.7491, 3612.842
338.6775, 3548.124
340.6060, 3506.034
342.5345, 3488.762
344.4629, 3488.695
346.3914, 3505.876
348.3199, 3538.012
350.2483, 3576.988
352.1768, 3620.760
354.1053, 3671.816
356.0337, 3730.160
357.9622, 3796.721
359.8907, 3867.170
361.8191, 3941.950
363.7476, 4020.418
365.6761, 4102.813
367.6045, 4198.023
369.5330, 4284.813
371.4615, 4358.296
373.3899, 4418.052
375.3184, 4463.355
377.2469, 4482.278
379.1753, 4491.361
381.1038, 4509.488
383.0323, 4533.729
384.9607, 4570.811
386.8892, 4622.145
388.8177, 4689.743
390.7461, 4761.678
392.6746, 4830.842
394.6031, 4908.652
396.5315, 5002.776
398.4600, 5112.578
400.3885, 5241.077
402.3169, 5390.575
404.2454, 5560.532
406.1739, 5732.652
408.1023, 5906.113
410.0308, 6081.806
411.9593, 6261.354
413.8877, 6445.761
415.8162, 6631.509
417.7447, 6833.623
419.6731, 7039.586
421.6016, 7208.797
423.5301, 7329.435
425.4585, 7430.330
427.3870, 7521.136
429.3155, 7601.201
431.2439, 7673.298
433.1724, 7751.340
435.1009, 7817.040
437.0293, 7839.666
438.9578, 7811.894
440.8863, 7762.999
442.8147, 7691.763
444.7432, 7601.354
446.6717, 7523.996
448.6001, 7443.502
450.5286, 7388.180
452.4571, 7378.652
454.3855, 7403.557
456.3140, 7495.128
458.2425, 7671.991
460.1709, 7922.226
462.0994, 8239.673
464.0279, 8650.345
465.9563, 9108.462
467.8848, 9637.381
469.8133, 10249.46
471.7417, 10772.92
473.6702, 11221.32
475.5987, 11538.67
477.5271, 11665.35
479.4556, 11536.17
481.3841, 11259.71
483.3125, 10806.59
485.2410, 10187.50
487.1695, 9535.608
489.0979, 8809.244
491.0264, 8097.894
492.9549, 7441.666
494.8833, 6848.479
496.8118, 6310.659
498.7403, 5819.784
500.6687, 5385.081
502.5972, 5017.322
504.5257, 4727.979
506.4541, 4481.765
508.3826, 4263.805
510.3111, 4074.337
512.2395, 3912.558
514.1680, 3779.669
516.0964, 3669.777
518.0249, 3581.708
519.9534, 3515.417
521.8818, 3464.657
523.8103, 3427.979
525.7388, 3406.439
527.6672, 3405.264
529.5957, 3430.585
531.5242, 3470.767
533.4526, 3526.137
535.3811, 3595.775
537.3096, 3673.614
539.2380, 3758.446
541.1665, 3850.515
543.0950, 3950.784
545.0234, 4077.586
546.9519, 4183.433
548.8804, 4262.535
550.8088, 4318.875
552.7373, 4366.579
554.6658, 4412.503
556.5942, 4438.272
558.5227, 4439.079
560.4512, 4413.732
562.3796, 4378.882
564.3081, 4335.862
566.2366, 4283.594
568.1650, 4217.457
570.0935, 4135.289
572.0220, 4055.673
573.9504, 3989.599
575.8789, 3925.939
577.8074, 3848.720
579.7358, 3743.750
581.6644, 3641.145
583.5928, 3546.425
585.5213, 3458.583
587.4498, 3373.803
589.3782, 3292.633
591.3067, 3214.071
593.2352, 3137.541
595.1636, 3063.393
597.0921, 2990.354
599.0206, 2912.594
600.9490, 2838.900
602.8775, 2777.396
604.8060, 2729.178
606.7344, 2688.100
608.6629, 2651.689
610.5914, 2621.019
612.5198, 2600.061
614.4483, 2596.666
616.3768, 2594.762
618.3052, 2595.296
620.2337, 2595.697
622.1622, 2581.546
624.0906, 2547.067
626.0191, 2499.522
627.9476, 2442.050
629.8760, 2367.913
631.8045, 2298.375
633.7330, 2229.709
635.6614, 2168.661
637.5899, 2122.825
639.5184, 2093.850
641.4468, 2073.545
643.3753, 2061.277
645.3038, 2054.969
647.2322, 2050.437
649.1607, 2045.714
651.0892, 2042.717
653.0176, 2040.589
654.9461, 2039.718
656.8746, 2043.549
658.8030, 2055.332
660.7315, 2070.159
662.6600, 2086.131
664.5884, 2104.305
666.5169, 2123.681
668.4454, 2145.708
670.3738, 2168.688
672.3023, 2189.676
674.2308, 2206.536
676.1592, 2228.088
678.0877, 2265.903
680.0162, 2306.488
681.9446, 2329.709
683.8731, 2318.564
685.8016, 2308.760
687.7300, 2311.470
689.6585, 2321.283
691.5870, 2316.382
693.5154, 2289.371
695.4439, 2258.841
697.3724, 2232.224
699.3008, 2209.260
701.2293, 2186.223
703.1578, 2161.108
705.0862, 2137.088
707.0147, 2116.338
708.9432, 2099.431
710.8716, 2082.711
712.8001, 2061.364
714.7286, 2044.332
716.6570, 2038.897
718.5855, 2050.057
720.5140, 2058.139
722.4424, 2055.455
724.3709, 2050.074
726.2994, 2054.646
728.2278, 2076.842
730.1563, 2091.918
732.0848, 2088.206
734.0132, 2074.642
735.9417, 2066.021
737.8702, 2062.763
739.7986, 2065.200
741.7271, 2077.071
743.6556, 2096.249
745.5840, 2108.882
747.5125, 2110.947
749.4410, 2112.222
751.3694, 2115.342
753.2979, 2120.425
755.2264, 2128.240
757.1548, 2141.370
759.0833, 2154.815
761.0118, 2163.262
762.9402, 2162.725
764.8687, 2178.384
766.7972, 2221.688
768.7256, 2270.758
770.6541, 2308.222
772.5826, 2333.723
774.5110, 2370.321
776.4395, 2422.931
778.3680, 2488.706
780.2964, 2566.388
782.2249, 2658.981
784.1534, 2758.897
786.0818, 2861.608
788.0103, 2972.890
789.9388, 3102.496
791.8672, 3252.427
793.7957, 3405.279
795.7242, 3558.864
797.6526, 3713.140
799.5811, 3868.201
801.5096, 4021.334
803.4380, 4181.962
805.3665, 4358.609
807.2950, 4541.759
809.2234, 4709.649
811.1519, 4853.129
813.0804, 5000.267
815.0089, 5152.273
816.9373, 5312.732
818.8658, 5489.403
820.7943, 5677.165
822.7227, 5892.521
824.6512, 6133.841
826.5797, 6404.532
828.5081, 6718.520
830.4366, 7059.332
832.3651, 7457.103
834.2935, 7942.406
836.2220, 8492.301
838.1505, 9061.704
840.0789, 9697.957
842.0074, 10269.05
843.9359, 10762.21
845.8643, 11169.39
847.7928, 11423.49
849.7213, 11504.44
851.6497, 11472.88
853.5782, 11310.72
855.5067, 11037.66
857.4351, 10735.88
859.3636, 10395.45
861.2921, 10043.38
863.2205, 9687.582
865.1490, 9327.546
867.0775, 8961.371
869.0059, 8566.479
870.9344, 8187.488
872.8629, 7844.028
874.7913, 7533.028
876.7198, 7220.939
878.6483, 6904.585
880.5767, 6595.751
882.5052, 6299.242
884.4337, 6014.139
886.3621, 5743.368
888.2906, 5470.188
890.2191, 5231.966
892.1475, 5059.522
894.0760, 4943.848
896.0045, 4795.152
897.9329, 4572.102
899.8614, 4363.975
901.7899, 4208.751
903.7183, 4091.757
905.6468, 3969.419
907.5753, 3829.439
909.5037, 3699.604
911.4322, 3589.130
913.3607, 3496.269
915.2891, 3409.432
917.2176, 3329.649
919.1461, 3254.314
921.0745, 3184.028
923.0030, 3118.516
924.9315, 3056.474
926.8599, 2999.238
928.7884, 2943.892
930.7169, 2888.953
932.6453, 2835.270
934.5738, 2784.817
936.5023, 2738.329
938.4307, 2693.641
940.3592, 2648.073
942.2877, 2603.740
944.2161, 2566.747
946.1446, 2543.824
948.0731, 2515.843
950.0015, 2472.880
951.9300, 2425.616
953.8585, 2389.357
955.7869, 2367.802
957.7154, 2346.108
959.6439, 2317.179
961.5723, 2287.396
963.5008, 2264.774
965.4293, 2257.892
967.3577, 2243.863
969.2862, 2208.929
971.2147, 2174.160
973.1431, 2162.938
975.0716, 2175.802
977.0001, 2197.346
978.9285, 2221.956
980.8570, 2257.714
982.7855, 2305.755
984.7139, 2364.266
986.6424, 2450.227
988.5709, 2598.739
990.4993, 2745.980
992.4278, 2868.755
994.3563, 2969.667
996.2847, 3011.418
998.2132, 2980.151
1000.142, 2907.583
1002.070, 2787.081
1003.999, 2630.618
1005.927, 2487.996
1007.856, 2360.812
1009.784, 2251.856
1011.712, 2159.539
1013.641, 2083.972
1015.569, 2025.935
1017.498, 1994.854
1019.426, 1971.977
1021.355, 1958.479
1023.283, 1951.492
1025.212, 1944.691
1027.140, 1937.396
1029.069, 1932.719
1030.997, 1931.850
1032.926, 1933.979
1034.854, 1937.756
1036.782, 1942.816
1038.711, 1950.272
1040.639, 1960.404
1042.568, 1972.570
1044.496, 1987.421
1046.425, 2006.993
1048.353, 2022.573
1050.282, 2030.439
1052.210, 2038.891
1054.139, 2053.524
1056.067, 2073.958
1057.996, 2092.976
1059.924, 2110.481
1061.853, 2126.164
1063.781, 2138.498
1065.709, 2148.324
1067.638, 2158.050
1069.566, 2165.101
1071.495, 2175.912
1073.423, 2195.092
1075.352, 2217.491
1077.280, 2234.784
1079.209, 2242.567
1081.137, 2252.378
1083.066, 2267.504
1084.994, 2283.089
1086.923, 2293.774
1088.851, 2299.599
1090.780, 2307.355
1092.708, 2321.056
1094.637, 2333.828
1096.565, 2343.515
1098.494, 2350.220
1100.422, 2351.471
1102.350, 2341.289
1104.279, 2333.070
1106.207, 2330.056
1108.136, 2331.412
1110.064, 2335.412
1111.993, 2350.521
1113.921, 2354.320
1115.850, 2333.203
1117.778, 2304.441
1119.707, 2292.085
1121.635, 2298.972
1123.564, 2292.468
1125.492, 2258.969
1127.421, 2217.778
1129.349, 2178.246
1131.277, 2140.379
1133.206, 2110.352
1135.134, 2089.511
1137.063, 2076.107
1138.991, 2075.940
1140.920, 2083.354
1142.848, 2079.337
1144.777, 2049.854
1146.705, 2030.650
1148.634, 2034.091
1150.562, 2045.537
1152.491, 2047.722
1154.419, 2040.024
1156.348, 2034.609
1158.276, 2034.452
1160.204, 2036.076
1162.133, 2041.831
1164.061, 2049.965
1165.990, 2042.801
1167.918, 2006.840
1169.847, 1972.719
1171.775, 1949.954
1173.704, 1934.147
1175.632, 1916.471
1177.561, 1894.736
1179.489, 1874.289
1181.418, 1854.755
1183.346, 1836.658
1185.275, 1820.731
1187.203, 1806.855
1189.131, 1793.164
1191.060, 1778.545
1192.988, 1765.803
1194.917, 1758.330
1196.845, 1753.915
1198.774, 1746.262
1200.702, 1732.213
1202.631, 1723.018
1204.559, 1721.788
1206.488, 1725.619
1208.416, 1733.232
1210.345, 1747.757
1212.273, 1753.725
1214.202, 1743.627
1216.130, 1733.172
1218.058, 1729.020
1219.987, 1730.604
1221.915, 1735.201
1223.844, 1747.536
1225.772, 1754.013
1227.701, 1747.124
1229.629, 1735.520
1231.558, 1725.793
1233.486, 1717.513
1235.415, 1717.926
1237.343, 1735.432
1239.272, 1752.530
1241.200, 1759.332
1243.129, 1758.138
1245.057, 1761.234
1246.985, 1772.004
1248.914, 1781.115
1250.842, 1788.436
1252.771, 1792.318
1254.699, 1790.104
1256.628, 1779.597
1258.556, 1771.802
1260.485, 1767.259
1262.413, 1765.413
1264.342, 1767.293
1266.270, 1772.268
1268.199, 1777.127
1270.127, 1780.517
1272.056, 1788.276
1273.984, 1808.150
1275.912, 1827.393
1277.841, 1836.019
1279.769, 1834.189
1281.698, 1828.932
1283.626, 1816.628
1285.555, 1807.880
1287.483, 1807.532
1289.412, 1812.922
1291.340, 1819.463
1293.269, 1830.888
1295.197, 1835.014
1297.126, 1820.846
1299.054, 1809.047
1300.983, 1815.906
1302.911, 1839.084
1304.839, 1851.551
1306.768, 1847.406
1308.696, 1843.232
1310.625, 1842.937
1312.553, 1844.275
1314.482, 1843.905
1316.410, 1841.704
1318.339, 1843.111
1320.267, 1853.208
1322.196, 1859.783
1324.124, 1851.187
1326.053, 1836.319
1327.981, 1834.130
1329.910, 1850.217
1331.838, 1858.562
1333.766, 1849.304
1335.695, 1835.301
1337.623, 1821.590
1339.552, 1808.492
1341.480, 1799.240
1343.409, 1796.586
1345.337, 1793.504
1347.266, 1787.674
1349.194, 1781.383
1351.123, 1777.078
1353.051, 1775.012
1354.980, 1772.671
1356.908, 1769.221
1358.837, 1766.858
1360.765, 1768.366
1362.693, 1771.015
1364.622, 1771.224
1366.550, 1769.953
1368.479, 1761.462
1370.407, 1732.695
1372.336, 1711.096
1374.264, 1719.506
1376.193, 1743.805
1378.121, 1753.255
1380.050, 1742.855
1381.978, 1733.792
1383.907, 1732.051
1385.835, 1731.595
1387.764, 1729.653
1389.692, 1726.059
1391.620, 1719.521
1393.549, 1708.577
1395.477, 1698.526
1397.406, 1693.519
1399.334, 1687.980
1401.263, 1673.917
1403.191, 1650.414
1405.120, 1642.455
1407.048, 1669.665
1408.977, 1686.005
1410.905, 1674.938
1412.834, 1654.723
1414.762, 1646.056
1416.691, 1651.119
1418.619, 1650.563
1420.547, 1636.233
1422.476, 1626.856
1424.404, 1630.908
1426.333, 1641.089
1428.261, 1647.802
1430.190, 1650.882
1432.118, 1652.728
1434.047, 1651.910
1435.975, 1651.567
1437.904, 1655.781
1439.832, 1659.542
1441.761, 1655.045
1443.689, 1641.918
1445.618, 1631.492
1447.546, 1626.455
1449.474, 1623.864
1451.403, 1626.904
1453.331, 1630.090
1455.260, 1619.850
1457.188, 1592.122
1459.117, 1582.255
1461.045, 1612.398
1462.974, 1637.689
1464.902, 1635.850
1466.831, 1618.726
1468.759, 1608.687
1470.688, 1607.268
1472.616, 1606.951
1474.545, 1608.880
1476.473, 1610.259
1478.401, 1613.811
1480.330, 1615.398
1482.258, 1605.154
1484.187, 1572.414
1486.115, 1556.410
1488.044, 1571.066
1489.972, 1584.397
1491.901, 1581.334
1493.829, 1570.493
1495.758, 1566.987
1497.686, 1573.298
1499.615, 1578.200
1501.543, 1582.732
1503.472, 1584.744
1505.400, 1581.445
1507.328, 1576.479
1509.257, 1576.624
1511.185, 1582.962
1513.114, 1583.217
1515.042, 1567.328
1516.971, 1558.280
1518.899, 1569.260
1520.828, 1587.469
1522.756, 1598.464
1524.685, 1602.365
1526.613, 1599.442
1528.542, 1583.053
1530.470, 1573.750
1532.399, 1587.948
1534.327, 1606.073
1536.255, 1608.547
1538.184, 1598.316
1540.112, 1591.300
1542.041, 1588.685
1543.969, 1589.008
1545.898, 1591.778
1547.826, 1597.108
1549.755, 1606.765
1551.683, 1619.029
1553.612, 1627.782
1555.540, 1633.238
1557.469, 1633.245
1559.397, 1622.335
1561.326, 1611.635
1563.254, 1607.344
1565.182, 1607.802
1567.111, 1609.130
1569.039, 1611.521
1570.968, 1612.733
1572.896, 1609.855
1574.825, 1609.476
1576.753, 1615.914
1578.682, 1625.865
1580.610, 1635.120
1582.539, 1644.193
1584.467, 1648.597
1586.396, 1645.113
1588.324, 1641.441
1590.253, 1637.092
1592.181, 1635.153
1594.109, 1641.339
1596.038, 1655.372
1597.966, 1658.496
1599.895, 1641.038
1601.823, 1632.557
1603.752, 1646.776
1605.680, 1662.306
1607.609, 1665.049
1609.537, 1659.272
1611.466, 1658.564
1613.394, 1663.929
1615.323, 1671.425
1617.251, 1680.824
1619.180, 1691.681
1621.108, 1708.765
1623.036, 1723.866
1624.965, 1722.832
1626.893, 1702.114
1628.822, 1691.624
1630.750, 1702.367
1632.679, 1708.330
1634.607, 1702.992
1636.536, 1694.901
1638.464, 1687.981
1640.393, 1683.470
1642.321, 1687.815
1644.250, 1711.712
1646.178, 1721.138
1648.107, 1699.583
1650.035, 1681.651
1651.964, 1684.424
1653.892, 1696.829
1655.820, 1703.801
1657.749, 1705.361
1659.677, 1702.063
1661.606, 1689.850
1663.534, 1679.318
1665.463, 1672.815
1667.391, 1668.148
1669.320, 1661.882
1671.248, 1656.068
1673.177, 1658.487
1675.105, 1671.855
1677.034, 1686.763
1678.962, 1711.076
1680.891, 1725.951
1682.819, 1720.217
1684.747, 1705.146
1686.676, 1691.111
1688.604, 1678.262
1690.533, 1674.659
1692.461, 1690.174
1694.390, 1698.229
1696.318, 1689.277
1698.247, 1680.854
1700.175, 1685.892
1702.104, 1695.713
1704.032, 1693.181
1705.961, 1674.993
1707.889, 1660.675
1709.818, 1652.369
1711.746, 1645.094
1713.674, 1636.299
1715.603, 1630.157
1717.531, 1629.805
1719.460, 1634.332
1721.388, 1642.975
1723.317, 1661.151
1725.245, 1663.448
1727.174, 1627.382
1729.102, 1605.002
1731.031, 1622.814
1732.959, 1648.260
1734.888, 1650.152
1736.816, 1633.583
1738.745, 1629.644
1740.673, 1642.420
1742.601, 1653.513
1744.530, 1663.197
1746.458, 1667.243
1748.387, 1659.890
1750.315, 1649.529
1752.244, 1645.261
1754.172, 1646.135
1756.101, 1644.256
1758.029, 1638.735
1759.958, 1633.722
1761.886, 1630.580
1763.815, 1627.344
1765.743, 1620.500
1767.672, 1615.515
1769.600, 1621.850
1771.528, 1636.646
1773.457, 1639.978
1775.385, 1627.903
1777.314, 1619.146
1779.242, 1619.039
1781.171, 1619.595
1783.099, 1613.604
1785.028, 1608.365
1786.956, 1613.740
1788.885, 1626.873
1790.813, 1635.023
1792.742, 1637.285
1794.670, 1637.068
1796.599, 1632.921
1798.527, 1630.530
1800.455, 1634.092
1802.384, 1639.739
1804.312, 1644.842
1806.241, 1648.857
1808.169, 1648.814
1810.098, 1643.859
1812.026, 1640.052
1813.955, 1639.491
1815.883, 1638.406
1817.812, 1633.210
1819.740, 1628.641
1821.669, 1629.021
1823.597, 1633.243
1825.526, 1638.535
1827.454, 1645.385
1829.382, 1649.468
1831.311, 1647.188
1833.239, 1646.895
1835.168, 1655.734
1837.096, 1662.065
1839.025, 1653.668
1840.953, 1638.383
1842.882, 1633.332
1844.810, 1639.854
1846.739, 1646.992
1848.667, 1661.390
1850.596, 1665.613
1852.524, 1644.441
1854.453, 1629.024
1856.381, 1641.814
1858.309, 1664.388
1860.238, 1671.321
1862.166, 1663.771
1864.095, 1660.567
1866.023, 1664.448
1867.952, 1662.848
1869.880, 1645.356
1871.809, 1635.722
1873.737, 1647.239
1875.666, 1664.783
1877.594, 1681.163
1879.523, 1693.234
1881.451, 1688.742
1883.380, 1667.370
1885.308, 1659.148
1887.236, 1672.782
1889.165, 1682.937
1891.093, 1678.799
1893.022, 1673.839
1894.950, 1677.351
1896.879, 1683.246
1898.807, 1682.220
1900.736, 1676.145
1902.664, 1676.397
1904.593, 1685.862
1906.521, 1690.075
1908.450, 1683.724
1910.378, 1677.465
1912.307, 1672.029
1914.235, 1669.982
1916.163, 1678.691
1918.092, 1689.917
1920.020, 1682.927
1921.949, 1655.337
1923.877, 1646.750
1925.806, 1672.065
1927.734, 1687.739
1929.663, 1683.432
1931.591, 1679.624
1933.520, 1680.842
1935.448, 1687.343
1937.377, 1705.654
1939.305, 1728.353
1941.234, 1732.104
1943.162, 1716.755
1945.090, 1707.049
1947.019, 1705.153
1948.947, 1706.862
1950.876, 1713.498
1952.804, 1719.533
1954.733, 1720.272
1956.661, 1720.894
1958.590, 1728.198
1960.518, 1738.685
1962.447, 1743.109
1964.375, 1741.298
1966.304, 1740.725
1968.232, 1744.405
1970.161, 1742.583
1972.089, 1722.504
1974.017, 1710.871
1975.946, 1727.063
1977.874, 1748.542
1979.803, 1755.267
1981.731, 1751.165
1983.660, 1743.905
1985.588, 1731.909
1987.517, 1732.784
1989.445, 1755.823
1991.374, 1767.767
1993.302, 1756.343
1995.231, 1745.255
1997.159, 1740.098
1999.088, 1740.852
2001.016, 1753.542
2002.944, 1769.357
2004.873, 1769.017
2006.801, 1755.951
2008.730, 1755.262
2010.658, 1770.633
2012.587, 1783.572
2014.515, 1792.043
2016.444, 1795.998
2018.372, 1788.934
2020.301, 1784.585
2022.229, 1795.274
2024.158, 1810.400
2026.086, 1815.636
2028.015, 1812.671
2029.943, 1810.241
2031.871, 1807.776
2033.800, 1808.578
2035.728, 1814.846
2037.657, 1820.652
2039.585, 1825.612
2041.514, 1829.874
2043.442, 1833.487
2045.371, 1836.421
2047.299, 1838.121
2049.228, 1839.104
2051.156, 1838.886
2053.084, 1838.400
2055.013, 1845.781
2056.941, 1863.588
2058.870, 1872.497
2060.798, 1862.314
2062.727, 1858.307
2064.656, 1872.450
2066.584, 1886.850
2068.512, 1892.296
2070.441, 1893.907
2072.369, 1898.547
2074.298, 1903.146
2076.226, 1896.719
2078.155, 1878.369
2080.083, 1876.531
2082.012, 1897.668
2083.940, 1907.532
2085.869, 1895.237
2087.797, 1887.377
2089.726, 1894.507
2091.654, 1903.505
2093.583, 1907.095
2095.511, 1908.795
2097.439, 1912.046
2099.368, 1916.094
2101.296, 1920.912
2103.225, 1926.482
2105.153, 1922.689
2107.082, 1899.393
2109.010, 1893.468
2110.939, 1921.714
2112.867, 1941.878
2114.796, 1940.658
2116.724, 1939.540
2118.653, 1950.297
2120.581, 1961.846
2122.510, 1962.075
2124.438, 1958.344
2126.366, 1966.505
2128.295, 1982.628
2130.223, 1987.314
2132.152, 1978.927
2134.080, 1976.601
2136.009, 1984.243
2137.937, 1991.498
2139.866, 1995.865
2141.794, 2000.544
2143.723, 2012.100
2145.651, 2018.701
2147.580, 2005.566
2149.508, 1989.982
2151.437, 1995.383
2153.365, 2014.183
2155.293, 2024.141
2157.222, 2025.672
2159.150, 2026.438
2161.079, 2026.344
2163.007, 2027.740
2164.936, 2033.009
2166.864, 2033.254
2168.793, 2016.967
2170.721, 2008.356
2172.650, 2027.418
2174.578, 2045.655
2176.507, 2035.293
2178.435, 2017.854
2180.364, 2022.870
2182.292, 2044.106
2184.220, 2066.251
2186.149, 2089.149
2188.077, 2085.565
2190.006, 2049.660
2191.934, 2034.803
2193.863, 2053.016
2195.791, 2073.353
2197.720, 2092.110
2199.648, 2104.408
2201.577, 2107.437
2203.505, 2103.751
2205.434, 2087.832
2207.362, 2071.985
2209.291, 2075.054
2211.219, 2086.802
2213.147, 2083.272
2215.076, 2065.849
2217.004, 2047.743
2218.933, 2028.624
2220.861, 2018.276
2222.790, 2018.131
2224.718, 2023.496
2226.647, 2036.066
2228.575, 2047.940
2230.504, 2059.257
2232.432, 2065.745
2234.361, 2059.938
2236.289, 2054.258
2238.218, 2061.304
2240.146, 2071.530
2242.074, 2071.365
2244.003, 2064.054
2245.931, 2056.415
2247.860, 2049.736
2249.788, 2058.575
2251.717, 2084.182
2253.645, 2098.772
2255.574, 2097.512
2257.502, 2095.577
2259.431, 2098.558
2261.359, 2096.304
2263.288, 2077.798
2265.216, 2065.501
2267.145, 2072.467
2269.073, 2084.520
2271.001, 2096.732
2272.930, 2105.091
2274.858, 2099.675
2276.787, 2089.745
2278.715, 2094.961
2280.644, 2111.458
2282.572, 2126.822
2284.501, 2140.424
2286.429, 2142.452
2288.358, 2128.491
2290.286, 2115.370
2292.215, 2099.618
2294.143, 2092.385
2296.072, 2099.060
2298.000, 2107.634
2299.928, 2118.555
2301.857, 2126.212
2303.785, 2126.356
2305.714, 2124.251
2307.642, 2122.758
2309.571, 2121.862
2311.499, 2122.135
2313.428, 2122.734
2315.356, 2120.567
2317.285, 2116.917
2319.213, 2116.983
2321.142, 2120.012
2323.070, 2140.067
2324.999, 2179.305
2326.927, 2215.912
2328.855, 2251.804
2330.784, 2264.653
2332.712, 2242.882
2334.641, 2216.916
2336.569, 2191.148
2338.498, 2168.938
2340.426, 2143.885
2342.355, 2132.618
2344.283, 2159.958
2346.212, 2188.054
2348.140, 2177.771
2350.069, 2156.619
2351.997, 2158.066
2353.926, 2173.268
2355.854, 2189.360
2357.782, 2204.399
2359.711, 2209.993
2361.639, 2206.169
2363.568, 2208.300
2365.496, 2218.503
2367.425, 2226.303
2369.353, 2232.237
2371.282, 2234.702
2373.210, 2233.841
2375.139, 2228.191
2377.067, 2209.766
2378.996, 2204.525
2380.924, 2241.091
2382.853, 2264.299
2384.781, 2235.479
2386.709, 2205.998
2388.638, 2207.912
2390.566, 2221.934
2392.495, 2240.703
2394.423, 2254.645
2396.352, 2247.538
2398.280, 2230.332
2400.209, 2220.930
2402.137, 2217.414
2404.066, 2208.809
2405.994, 2197.855
2407.923, 2223.655
2409.851, 2294.955
2411.780, 2310.223
2413.708, 2258.302
2415.636, 2220.793
2417.565, 2202.614
2419.493, 2205.892
2421.422, 2241.757
2423.350, 2265.579
2425.279, 2255.522
2427.207, 2249.797
2429.136, 2264.863
2431.064, 2274.335
2432.993, 2257.362
2434.921, 2246.636
2436.850, 2268.268
2438.778, 2289.812
2440.707, 2284.764
2442.635, 2275.464
2444.563, 2287.986
2446.492, 2304.591
2448.420, 2298.227
2450.349, 2281.101
2452.277, 2277.864
2454.206, 2283.650
2456.134, 2282.820
2458.063, 2276.373
2459.991, 2266.307
2461.920, 2254.228
2463.848, 2258.302
2465.777, 2281.727
2467.705, 2291.779
2469.634, 2281.961
2471.562, 2277.702
2473.490, 2280.279
2475.419, 2285.178
2477.347, 2293.140
2479.276, 2298.664
2481.204, 2298.515
2483.133, 2301.014
2485.061, 2313.568
2486.990, 2321.232
2488.918, 2317.744
2490.847, 2312.327
2492.775, 2306.980
2494.704, 2303.671
2496.632, 2302.964
2498.561, 2305.281
2500.489, 2314.045
2502.417, 2321.542
2504.346, 2316.933
2506.274, 2310.962
2508.203, 2315.724
2510.131, 2326.098
2512.060, 2339.012
2513.988, 2350.391
2515.917, 2352.777
2517.845, 2347.891
2519.774, 2337.709
2521.702, 2323.339
2523.631, 2302.096
2525.559, 2278.118
2527.488, 2288.494
2529.416, 2332.654
2531.344, 2359.908
2533.273, 2370.810
2535.201, 2370.511
2537.130, 2359.641
2539.058, 2352.266
2540.987, 2350.571
2542.915, 2348.790
2544.844, 2341.930
2546.772, 2344.865
2548.701, 2360.469
2550.629, 2375.816
2552.558, 2391.940
2554.486, 2394.652
2556.415, 2370.950
2558.343, 2359.119
2560.271, 2379.949
2562.200, 2396.853
2564.128, 2399.780
2566.057, 2401.297
2567.985, 2405.277
2569.914, 2407.384
2571.842, 2402.472
2573.771, 2400.651
2575.699, 2410.785
2577.628, 2419.506
2579.556, 2421.574
2581.485, 2417.211
2583.413, 2395.117
2585.342, 2381.218
2587.270, 2405.862
2589.198, 2431.438
2591.127, 2421.458
2593.055, 2405.002
2594.984, 2410.228
2596.912, 2423.676
2598.841, 2430.695
2600.769, 2435.870
2602.698, 2446.908
2604.626, 2458.779
2606.555, 2465.478
2608.483, 2467.738
2610.412, 2465.222
2612.340, 2460.162
2614.269, 2453.746
2616.197, 2449.648
2618.125, 2460.995
2620.054, 2480.640
2621.982, 2490.866
2623.911, 2491.607
2625.839, 2478.806
2627.768, 2458.047
2629.696, 2457.515
2631.625, 2473.373
2633.553, 2476.834
2635.482, 2470.622
2637.410, 2472.209
2639.339, 2480.729
2641.267, 2486.529
2643.196, 2489.500
2645.124, 2496.002
2647.052, 2505.988
2648.981, 2513.214
2650.909, 2517.503
2652.838, 2516.096
2654.766, 2509.373
2656.695, 2509.335
2658.623, 2517.554
2660.552, 2528.963
2662.480, 2545.260
2664.409, 2557.616
2666.337, 2566.049
2668.266, 2566.159
2670.194, 2556.437
2672.123, 2559.818
2674.051, 2582.728
2675.979, 2595.966
2677.908, 2596.968
2679.836, 2591.668
2681.765, 2577.381
2683.693, 2581.400
2685.622, 2610.020
2687.550, 2622.506
2689.479, 2607.090
2691.407, 2600.311
2693.336, 2605.376
2695.264, 2615.347
2697.193, 2632.143
2699.121, 2638.734
2701.050, 2630.939
2702.978, 2627.186
2704.906, 2632.401
2706.835, 2635.918
2708.763, 2634.778
2710.692, 2642.892
2712.620, 2665.335
2714.549, 2671.297
2716.477, 2650.726
2718.406, 2642.006
2720.334, 2651.681
2722.263, 2671.887
2724.191, 2710.824
2726.120, 2728.465
2728.048, 2718.117
2729.977, 2709.417
2731.905, 2705.672
2733.833, 2709.877
2735.762, 2732.963
2737.690, 2741.866
2739.619, 2732.919
2741.547, 2723.603
2743.476, 2713.793
2745.404, 2715.040
2747.333, 2731.129
2749.261, 2748.909
2751.190, 2771.813
2753.118, 2780.487
2755.047, 2769.408
2756.975, 2782.732
2758.904, 2829.956
2760.832, 2848.722
2762.760, 2823.309
2764.689, 2802.683
2766.617, 2788.436
2768.546, 2776.443
2770.474, 2765.761
2772.403, 2772.006
2774.331, 2798.472
2776.260, 2811.576
2778.188, 2805.388
2780.117, 2807.655
2782.045, 2819.167
2783.974, 2836.434
2785.902, 2859.066
2787.831, 2858.042
2789.759, 2828.833
2791.688, 2841.707
2793.616, 2900.042
2795.544, 2920.099
2797.473, 2904.962
2799.401, 2903.705
2801.330, 2915.603
2803.258, 2917.737
2805.187, 2912.171
2807.115, 2921.874
2809.044, 2945.006
2810.972, 2965.487
2812.901, 2982.106
2814.829, 2985.245
2816.758, 2979.874
2818.686, 2985.907
2820.615, 2997.216
2822.543, 2986.415
2824.471, 2966.843
2826.400, 2978.580
2828.328, 3006.774
2830.257, 3025.132
2832.185, 3035.377
2834.114, 3038.511
2836.042, 3038.249
2837.971, 3040.691
2839.899, 3044.279
2841.828, 3044.270
2843.756, 3046.836
2845.685, 3062.667
2847.613, 3080.881
2849.542, 3083.740
2851.470, 3088.841
2853.398, 3116.184
2855.327, 3145.399
2857.255, 3163.346
2859.184, 3173.918
2861.112, 3178.385
2863.041, 3179.623
2864.969, 3173.330
2866.898, 3174.019
2868.826, 3196.520
2870.755, 3215.759
2872.683, 3219.095
2874.612, 3219.718
2876.540, 3223.089
2878.469, 3221.158
2880.397, 3202.112
2882.325, 3196.429
2884.254, 3218.422
2886.182, 3242.604
2888.111, 3269.491
2890.039, 3284.148
2891.968, 3279.867
2893.896, 3279.840
2895.825, 3287.977
2897.753, 3298.500
2899.682, 3310.616
2901.610, 3335.422
2903.539, 3373.946
2905.467, 3388.484
2907.396, 3375.860
2909.324, 3373.498
2911.252, 3381.318
2913.181, 3393.405
2915.109, 3409.049
2917.038, 3424.976
2918.966, 3440.396
2920.895, 3451.241
2922.823, 3458.904
2924.752, 3463.284
2926.680, 3469.891
2928.609, 3491.281
2930.537, 3517.312
2932.466, 3536.434
2934.394, 3549.874
2936.323, 3553.441
2938.251, 3559.526
2940.179, 3586.061
2942.108, 3608.072
2944.036, 3595.530
2945.965, 3591.988
2947.893, 3634.856
2949.822, 3666.210
2951.750, 3655.707
2953.679, 3647.428
2955.607, 3657.275
2957.536, 3670.700
2959.464, 3685.652
2961.393, 3701.702
2963.321, 3719.825
2965.250, 3730.413
2967.178, 3720.772
2969.106, 3742.131
2971.035, 3798.982
2972.963, 3823.531
2974.892, 3815.230
2976.820, 3814.883
2978.749, 3822.832
2980.677, 3831.456
2982.606, 3841.465
2984.534, 3860.631
2986.463, 3881.763
2988.391, 3889.641
2990.320, 3889.656
2992.248, 3882.634
2994.177, 3881.929
2996.105, 3911.498
2998.033, 3944.217
2999.962, 3955.549
3001.890, 3964.740
3003.819, 3983.313
3005.747, 4003.860
3007.676, 4022.039
3009.604, 4041.832
3011.533, 4068.502
3013.461, 4088.030
3015.390, 4095.449
3017.318, 4105.479
3019.247, 4122.500
3021.175, 4128.154
3023.104, 4114.543
3025.032, 4125.829
3026.960, 4162.589
3028.889, 4179.386
3030.817, 4178.861
3032.746, 4179.630
3034.674, 4183.063
3036.603, 4197.191
3038.531, 4214.885
3040.460, 4215.242
3042.388, 4217.425
3044.317, 4251.783
3046.245, 4289.885
3048.174, 4296.723
3050.102, 4308.390
3052.031, 4355.579
3053.959, 4391.855
3055.887, 4394.716
3057.816, 4381.647
3059.744, 4340.258
3061.673, 4338.875
3063.601, 4398.763
3065.530, 4453.484
3067.458, 4498.443
3069.387, 4514.289
3071.315, 4501.673
3073.244, 4513.902
3075.172, 4546.638
3077.101, 4570.130
3079.029, 4583.226
3080.958, 4577.070
3082.886, 4565.250
3084.814, 4567.848
3086.743, 4580.811
3088.671, 4600.500
3090.600, 4628.352
3092.528, 4671.339
3094.457, 4709.767
3096.385, 4735.334
3098.314, 4748.502
3100.242, 4728.679
3102.171, 4738.516
3104.099, 4791.342
3106.028, 4834.801
3107.956, 4865.029
3109.885, 4870.105
3111.813, 4851.623
3113.741, 4843.707
3115.670, 4849.375
3117.598, 4889.262
3119.527, 4938.011
3121.455, 4936.956
3123.384, 4919.671
3125.312, 4920.766
3127.241, 4934.277
3129.169, 4967.584
3131.098, 4994.964
3133.026, 5001.479
3134.955, 5006.377
3136.883, 5009.985
3138.812, 5028.375
3140.740, 5074.696
3142.668, 5104.194
3144.597, 5115.032
3146.525, 5122.989
3148.454, 5129.860
3150.382, 5151.803
3152.311, 5179.836
3154.239, 5178.800
3156.168, 5171.875
3158.096, 5202.295
3160.025, 5232.945
3161.953, 5218.365
3163.882, 5207.061
3165.810, 5227.457
3167.739, 5248.865
3169.667, 5260.077
3171.595, 5268.662
3173.524, 5274.326
3175.452, 5286.099
3177.381, 5305.774
3179.309, 5312.914
3181.238, 5308.811
3183.166, 5311.823
3185.095, 5319.399
3187.023, 5328.454
3188.952, 5334.900
3190.880, 5324.605
3192.809, 5321.271
3194.737, 5346.200
3196.666, 5376.678
3198.594, 5412.248
3200.522, 5429.296
3202.451, 5419.021
3204.379, 5411.090
3206.308, 5411.063
3208.236, 5397.626
3210.165, 5370.637
3212.093, 5364.948
3214.022, 5373.924
3215.950, 5377.565
3217.879, 5379.913
3219.807, 5387.689
3221.736, 5396.514
3223.664, 5399.919
3225.593, 5405.568
3227.521, 5423.023
3229.449, 5428.843
3231.378, 5414.831
3233.306, 5403.395
3235.235, 5399.930
3237.163, 5387.327
3239.092, 5367.793
3241.020, 5384.567
3242.949, 5418.770
3244.877, 5415.167
3246.806, 5398.746
3248.734, 5407.127
3250.663, 5412.954
3252.591, 5389.537
3254.520, 5368.290
3256.448, 5369.274
3258.376, 5360.746
3260.305, 5337.990
3262.233, 5315.906
3264.162, 5296.541
3266.090, 5301.614
3268.019, 5322.116
3269.947, 5303.302
3271.876, 5267.973
3273.804, 5243.397
3275.733, 5235.714
3277.661, 5262.110
3279.590, 5286.006
3281.518, 5299.077
3283.447, 5283.204
3285.375, 5222.907
3287.303, 5187.813
3289.232, 5185.087
3291.160, 5192.193
3293.089, 5203.916
3295.017, 5186.975
3296.946, 5158.789
3298.874, 5145.374
3300.803, 5142.301
3302.731, 5158.497
3304.660, 5159.165
3306.588, 5115.732
3308.517, 5092.097
3310.445, 5122.706
3312.374, 5130.095
3314.302, 5113.344
3316.230, 5103.991
3318.159, 5101.659
3320.087, 5105.080
3322.016, 5106.485
3323.944, 5095.417
3325.873, 5075.739
3327.801, 5039.515
3329.730, 5017.728
3331.658, 5027.183
3333.587, 5022.830
3335.515, 4984.313
3337.444, 4980.880
3339.372, 5008.296
3341.301, 5012.635
3343.229, 5001.602
3345.157, 4998.003
3347.086, 4988.160
3349.014, 4946.158
3350.943, 4912.368
3352.871, 4910.458
3354.800, 4920.441
3356.728, 4944.146
3358.657, 4934.059
3360.585, 4884.514
3362.514, 4882.036
3364.442, 4911.063
3366.371, 4909.671
3368.299, 4900.964
3370.228, 4918.897
3372.156, 4933.932
3374.084, 4926.329
3376.013, 4915.162
3377.941, 4898.270
3379.870, 4902.087
3381.798, 4927.794
3383.727, 4938.895
3385.655, 4938.937
3387.584, 4954.507
3389.512, 4964.256
3391.441, 4918.626
3393.369, 4883.813
3395.298, 4902.955
3397.226, 4944.394
3399.155, 5010.488
3401.083, 5035.386
3403.011, 5007.996
3404.940, 5029.332
3406.868, 5080.410
3408.797, 5080.832
3410.725, 5070.799
3412.654, 5101.224
3414.582, 5136.946
3416.511, 5165.763
3418.439, 5178.879
3420.368, 5165.362
3422.296, 5161.041
3424.225, 5166.769
3426.153, 5187.310
3428.082, 5212.993
3430.010, 5219.210
3431.938, 5218.753
3433.867, 5220.796
3435.795, 5225.192
3437.724, 5228.902
3439.652, 5241.022
3441.581, 5262.921
3443.509, 5288.558
3445.438, 5313.563
3447.366, 5300.459
3449.295, 5277.865
3451.223, 5296.756
3453.152, 5314.145
3455.080, 5308.062
3457.009, 5267.411
3458.937, 5178.089
3460.865, 5119.135
3462.794, 5098.503
3464.722, 5031.853
3466.651, 4938.490
3468.579, 4859.221
3470.508, 4788.145
3472.436, 4727.081
3474.365, 4657.313
3476.293, 4566.932
3478.222, 4477.080
3480.150, 4389.883
3482.079, 4304.535
3484.007, 4223.820
3485.936, 4159.231
3487.864, 4099.341
3489.792, 4022.943
3491.721, 3956.907
3493.649, 3928.256
3495.578, 3882.884
3497.506, 3813.153
3499.435, 3747.970
3501.363, 3689.922
3503.292, 3648.801
3505.220, 3611.925
3507.149, 3563.747
3509.077, 3510.911
3511.006, 3445.636
3512.934, 3407.647
3514.863, 3408.706
3516.791, 3400.107
3518.719, 3380.527
3520.648, 3365.102
3522.576, 3345.596
3524.505, 3307.266
3526.433, 3264.759
3528.362, 3221.392
3530.290, 3190.573
3532.219, 3180.542
3534.147, 3170.741
3536.076, 3159.099
3538.004, 3129.701
3539.933, 3097.921
3541.861, 3089.303
3543.790, 3083.020
3545.718, 3066.377
3547.646, 3054.187
3549.575, 3047.993
3551.503, 3051.760
3553.432, 3060.722
3555.360, 3052.734
3557.289, 3039.807
3559.217, 3038.218
3561.146, 3034.287
3563.074, 3017.489
3565.003, 3005.765
3566.931, 3000.922
3568.860, 2997.100
3570.788, 2989.738
3572.717, 2953.882
3574.645, 2919.151
3576.573, 2910.518
3578.502, 2917.250
3580.430, 2941.751
3582.359, 2938.159
3584.287, 2902.042
3586.216, 2883.019
3588.144, 2882.674
3590.073, 2922.409
3592.001, 2950.284
3593.930, 2916.850
3595.858, 2886.313
3597.787, 2869.014
3599.715, 2869.702
3601.644, 2882.894
3603.572, 2875.549
3605.500, 2862.434
3607.429, 2860.463
3609.357, 2860.350
3611.286, 2858.751
3613.214, 2857.913
3615.143, 2858.231
3617.071, 2852.956
3619.000, 2843.254
3620.928, 2831.233
3622.857, 2818.921
3624.785, 2807.494
3626.714, 2798.796
3628.642, 2793.076
3630.571, 2798.752
3632.499, 2810.464
3634.427, 2797.174
3636.356, 2784.533
3638.284, 2815.309
3640.213, 2836.038
3642.141, 2819.807
3644.070, 2811.604
3645.998, 2813.137
3647.927, 2808.051
3649.855, 2799.441
3651.784, 2787.561
3653.712, 2784.360
3655.641, 2808.209
3657.569, 2804.855
3659.498, 2766.011
3661.426, 2754.060
3663.354, 2761.982
3665.283, 2772.126
3667.211, 2781.010
3669.140, 2785.186
3671.068, 2791.108
3672.997, 2801.443
3674.925, 2803.562
3676.854, 2799.403
3678.782, 2798.774
3680.711, 2800.043
3682.639, 2804.493
3684.568, 2804.045
3686.496, 2795.157
3688.425, 2785.573
3690.353, 2777.908
3692.281, 2781.157
3694.210, 2789.235
3696.138, 2791.139
3698.067, 2800.187
3699.995, 2833.513
3701.924, 2835.281
3703.852, 2809.015
3705.781, 2802.980
3707.709, 2805.750
3709.638, 2802.093
3711.566, 2797.112
3713.495, 2785.687
3715.423, 2800.319
3717.352, 2835.013
3719.280, 2818.347
3721.208, 2784.842
3723.137, 2795.204
3725.065, 2803.938
3726.994, 2779.911
3728.922, 2779.511
3730.851, 2803.338
3732.779, 2826.687
3734.708, 2838.885
3736.636, 2809.443
3738.565, 2786.940
3740.493, 2800.972
3742.422, 2807.395
3744.350, 2805.211
3746.279, 2813.970
3748.207, 2823.737
3750.135, 2819.100
3752.064, 2810.571
3753.992, 2796.852
3755.921, 2801.776
3757.849, 2821.638
3759.778, 2824.058
3761.706, 2816.295
3763.635, 2801.594
3765.563, 2793.577
3767.492, 2802.774
3769.420, 2804.895
3771.349, 2801.141
3773.277, 2800.289
3775.206, 2801.250
3777.134, 2800.648
3779.063, 2807.228
3780.991, 2828.209
3782.919, 2839.582
3784.848, 2842.043
3786.776, 2837.870
3788.705, 2836.034
3790.633, 2846.981
3792.562, 2853.454
3794.490, 2850.800
3796.419, 2849.509
3798.347, 2847.030
3800.276, 2831.393
3802.204, 2823.150
3804.133, 2838.418
3806.061, 2842.395
3807.990, 2830.057
3809.918, 2828.214
3811.846, 2829.585
3813.775, 2816.669
3815.703, 2814.187
3817.632, 2835.165
3819.560, 2852.007
3821.489, 2860.787
3823.417, 2836.390
3825.346, 2810.839
3827.274, 2819.065
3829.203, 2836.165
3831.131, 2858.505
3833.060, 2868.603
3834.988, 2867.765
3836.917, 2855.366
3838.845, 2847.088
3840.773, 2857.649
3842.702, 2860.590
3844.630, 2851.908
3846.559, 2844.610
3848.487, 2843.882
3850.416, 2865.266
3852.344, 2874.349
3854.273, 2857.318
3856.201, 2854.142
3858.130, 2862.929
3860.058, 2860.506
3861.987, 2853.746
3863.915, 2843.102
3865.844, 2847.808
3867.772, 2868.683
3869.700, 2876.214
3871.629, 2872.772
3873.557, 2853.299
3875.486, 2844.822
3877.414, 2868.615
3879.343, 2880.252
3881.271, 2877.020
3883.200, 2845.966
3885.128, 2818.459
3887.057, 2820.950
3888.985, 2830.610
3890.914, 2843.093
3892.842, 2858.797
3894.771, 2871.766
3896.699, 2867.452
3898.627, 2862.159
3900.556, 2862.202
3902.484, 2869.227
3904.413, 2879.196
3906.341, 2869.951
3908.270, 2860.827
3910.198, 2869.412
3912.127, 2872.010
3914.055, 2865.055
3915.984, 2866.979
3917.912, 2871.647
3919.841, 2872.589
3921.769, 2866.790
3923.698, 2856.104
3925.626, 2853.217
3927.554, 2851.888
3929.483, 2845.446
3931.411, 2842.171
3933.340, 2843.848
3935.268, 2864.430
3937.197, 2897.440
3939.125, 2887.703
3941.054, 2863.316
3942.982, 2842.346
3944.911, 2839.493
3946.839, 2860.959
3948.768, 2856.924
3950.696, 2843.028
3952.625, 2846.700
3954.553, 2854.580
3956.481, 2869.677
3958.410, 2861.880
3960.338, 2843.083
3962.267, 2858.116
3964.195, 2880.019
3966.124, 2877.886
3968.052, 2864.559
3969.981, 2843.141
3971.909, 2842.003
3973.838, 2864.902
3975.766, 2875.656
3977.695, 2872.754
3979.623, 2865.415
3981.552, 2869.889
3983.480, 2886.928
3985.408, 2881.485
3987.337, 2853.188
3989.265, 2832.893
3991.194, 2842.004
3993.122, 2862.026
3995.051, 2868.216
3996.979, 2856.049
3998.908, 2844.964
4000.836, 2841.513
4002.765, 2847.554
4004.693, 2876.111
4006.622, 2898.528
4008.550, 2884.801
4010.479, 2853.389
4012.407, 2849.697
4014.335, 2869.253
4016.264, 2873.526
4018.192, 2856.333
4020.121, 2838.841
4022.049, 2834.461
4023.978, 2863.182
4025.906, 2882.837
4027.835, 2877.190
4029.763, 2879.531
4031.692, 2876.105
4033.620, 2868.521
4035.549, 2861.996
4037.477, 2872.711
4039.406, 2888.201
4041.334, 2888.256
4043.262, 2883.747
4045.191, 2878.072
4047.119, 2870.719
4049.048, 2861.355
4050.976, 2859.562
4052.905, 2882.211
4054.833, 2900.820
4056.762, 2901.666
4058.690, 2885.141
4060.619, 2867.300
4062.547, 2866.152
4064.476, 2874.074
4066.404, 2888.119
4068.333, 2893.660
4070.261, 2890.832
4072.189, 2891.158
4074.118, 2893.616
4076.046, 2886.536
4077.975, 2889.343
4079.903, 2901.010
4081.832, 2911.747
4083.760, 2918.532
4085.689, 2916.582
4087.617, 2905.309
4089.546, 2887.565
4091.474, 2884.521
4093.403, 2886.014
4095.331, 2880.954
4097.260, 2882.298
4099.188, 2891.122
4101.117, 2895.532
4103.045, 2896.664
4104.974, 2893.646
4106.902, 2897.071
4108.831, 2907.115
4110.759, 2907.056
4112.688, 2898.607
4114.616, 2894.556
4116.544, 2898.562
4118.473, 2902.056
4120.401, 2897.638
4122.330, 2896.830
4124.258, 2892.959
4126.187, 2884.921
4128.115, 2878.287
4130.043, 2886.705
4131.972, 2901.317
4133.900, 2893.818
4135.829, 2881.444
4137.757, 2882.433
4139.686, 2901.681
4141.614, 2920.807
4143.543, 2900.470
4145.471, 2888.749
4147.400, 2915.394
4149.328, 2911.701
4151.257, 2894.169
4153.185, 2918.781
4155.114, 2934.356
4157.042, 2916.413
4158.971, 2908.778
4160.899, 2909.136
4162.828, 2920.979
4164.756, 2922.528
4166.685, 2906.503
4168.613, 2896.593
4170.542, 2891.309
4172.470, 2902.418
4174.398, 2918.394
4176.327, 2931.431
4178.255, 2931.438
4180.184, 2927.561
4182.112, 2919.920
4184.041, 2913.613
4185.969, 2909.329
4187.897, 2921.862
4189.826, 2958.344
4191.754, 2978.346
4193.683, 2968.130
4195.611, 2917.540
4197.540, 2905.713
4199.468, 2923.006
4201.397, 2933.653
4203.325, 2944.411
4205.254, 2953.313
4207.182, 2946.008
4209.111, 2918.962
4211.039, 2925.918
4212.968, 2942.042
4214.896, 2941.510
4216.825, 2946.351
4218.753, 2958.112
4220.682, 2968.223
4222.610, 2970.042
4224.539, 2956.139
4226.467, 2953.627
4228.396, 2963.633
4230.324, 2982.373
4232.252, 2991.872
4234.181, 2975.193
4236.109, 2971.080
4238.038, 2977.264
4239.966, 2977.413
4241.895, 2972.293
4243.823, 2957.263
4245.751, 2965.421
4247.680, 2987.812
4249.608, 2995.159
4251.537, 2993.569
4253.465, 2981.655
4255.394, 2979.692
4257.322, 2987.166
4259.251, 3008.879
4261.179, 3023.040
4263.108, 3020.840
4265.036, 3008.093
4266.965, 2994.083
4268.893, 2996.302
4270.822, 2999.397
4272.750, 2998.814
4274.679, 3027.806
4276.607, 3055.584
4278.536, 3036.032
4280.464, 3023.386
4282.393, 3026.335
4284.321, 3043.272
4286.250, 3058.910
4288.178, 3059.815
4290.106, 3054.173
4292.035, 3047.927
4293.963, 3082.365
4295.892, 3104.865
4297.820, 3077.984
4299.749, 3072.616
4301.677, 3083.839
4303.605, 3081.274
4305.534, 3084.909
4307.462, 3105.389
4309.391, 3081.159
4311.319, 3045.798
4313.248, 3062.939
4315.176, 3077.227
4317.105, 3076.522
4319.033, 3082.087
4320.962, 3087.955
4322.890, 3086.088
4324.819, 3086.649
4326.747, 3089.832
4328.676, 3090.854
4330.604, 3090.265
4332.533, 3086.818
4334.461, 3102.464
4336.390, 3123.410
4338.318, 3099.971
4340.247, 3079.407
4342.175, 3077.270
4344.104, 3100.382
4346.032, 3127.891
4347.960, 3137.170
4349.889, 3124.753
4351.817, 3095.428
4353.746, 3092.624
4355.674, 3101.725
4357.603, 3111.540
4359.531, 3118.104
4361.459, 3125.193
4363.388, 3156.037
4365.316, 3177.427
4367.245, 3169.097
4369.173, 3163.293
4371.102, 3157.002
4373.030, 3140.256
4374.959, 3133.090
4376.887, 3139.433
4378.816, 3156.540
4380.744, 3171.144
4382.673, 3175.159
4384.601, 3156.601
4386.530, 3127.915
4388.458, 3129.997
4390.387, 3148.875
4392.315, 3180.089
4394.244, 3173.606
4396.172, 3151.717
4398.101, 3143.306
4400.029, 3137.846
4401.958, 3136.762
4403.886, 3165.872
4405.814, 3189.523
4407.743, 3181.869
4409.671, 3185.751
4411.600, 3193.873
4413.528, 3181.854
4415.457, 3176.851
4417.385, 3186.630
4419.313, 3186.171
4421.242, 3174.489
4423.170, 3136.322
4425.099, 3143.963
4427.027, 3183.335
4428.956, 3183.947
4430.884, 3189.483
4432.813, 3216.710
4434.741, 3204.327
4436.670, 3175.056
4438.598, 3147.360
4440.527, 3143.869
4442.455, 3159.783
4444.384, 3168.721
4446.312, 3177.886
4448.241, 3192.389
4450.169, 3185.623
4452.098, 3169.935
4454.026, 3155.940
4455.955, 3170.123
4457.883, 3207.163
4459.812, 3199.548
4461.740, 3184.653
4463.668, 3179.734
4465.597, 3194.845
4467.525, 3211.442
4469.454, 3194.303
4471.382, 3197.161
4473.311, 3222.308
4475.239, 3231.549
4477.167, 3233.543
4479.096, 3232.626
4481.024, 3239.230
4482.953, 3242.341
4484.881, 3219.518
4486.810, 3199.952
4488.738, 3192.519
4490.667, 3240.725
4492.595, 3264.335
4494.524, 3213.176
4496.452, 3198.726
4498.381, 3206.942
4500.309, 3222.507
4502.238, 3221.342
4504.166, 3207.029
4506.095, 3209.854
4508.023, 3213.305
4509.952, 3210.850
4511.880, 3214.146
4513.809, 3211.406
4515.737, 3170.501
4517.666, 3187.705
4519.594, 3242.028
4521.522, 3221.902
4523.451, 3209.960
4525.379, 3231.029
4527.308, 3221.363
4529.236, 3205.745
4531.165, 3203.764
4533.093, 3198.208
4535.021, 3198.188
4536.950, 3240.547
4538.878, 3246.851
4540.807, 3206.329
4542.735, 3184.683
4544.664, 3198.249
4546.592, 3270.428
4548.521, 3272.305
4550.449, 3239.230
4552.378, 3214.068
4554.306, 3207.545
4556.235, 3212.069
4558.163, 3189.114
4560.092, 3190.451
4562.020, 3233.570
4563.949, 3220.619
4565.877, 3193.626
4567.806, 3183.134
4569.734, 3198.308
4571.663, 3219.523
4573.591, 3205.115
4575.520, 3205.831
4577.448, 3223.262
4579.376, 3222.199
4581.305, 3212.355
4583.233, 3197.620
4585.162, 3222.562
4587.090, 3243.333
4589.019, 3202.242
4590.947, 3196.663
4592.875, 3209.644
4594.804, 3177.379
4596.732, 3203.661
4598.661, 3280.408
4600.589, 3257.917
4602.518, 3224.111
4604.446, 3219.122
4606.375, 3247.425
4608.303, 3272.261
4610.232, 3256.126
4612.160, 3228.394
4614.089, 3207.022
4616.017, 3231.848
4617.946, 3240.111
4619.874, 3226.752
4621.803, 3212.505
4623.731, 3211.567
4625.660, 3230.871
4627.588, 3247.804
4629.517, 3260.964
4631.445, 3271.998
4633.374, 3250.670
4635.302, 3223.826
4637.230, 3240.030
4639.159, 3234.930
4641.087, 3212.888
4643.016, 3216.653
4644.944, 3214.806
4646.873, 3199.997
4648.801, 3220.668
4650.729, 3239.641
4652.658, 3239.691
4654.586, 3217.171
4656.515, 3197.653
4658.443, 3208.534
4660.372, 3216.419
4662.300, 3219.815
4664.229, 3217.727
4666.157, 3227.128
4668.086, 3242.129
4670.014, 3223.882
4671.943, 3206.381
4673.871, 3199.691
4675.800, 3199.123
4677.728, 3209.260
4679.657, 3237.233
4681.585, 3239.329
4683.514, 3236.271
4685.442, 3246.525
4687.371, 3263.167
4689.299, 3272.567
4691.228, 3256.695
4693.156, 3212.510
4695.084, 3166.594
4697.013, 3218.375
4698.941, 3248.172
4700.870, 3235.331
4702.798, 3220.314
4704.727, 3208.824
4706.655, 3203.344
4708.583, 3216.304
4710.512, 3223.648
4712.440, 3205.669
4714.369, 3213.050
4716.297, 3232.794
4718.226, 3256.188
4720.154, 3249.660
4722.083, 3231.404
4724.011, 3240.968
4725.940, 3229.595
4727.868, 3210.499
4729.797, 3257.608
4731.725, 3259.395
4733.654, 3215.635
4735.582, 3233.343
4737.511, 3250.435
4739.439, 3244.778
4741.368, 3210.065
4743.296, 3197.772
4745.225, 3230.276
4747.153, 3214.725
4749.082, 3189.998
4751.010, 3188.939
4752.938, 3203.356
4754.867, 3220.594
4756.795, 3227.316
4758.724, 3236.585
4760.652, 3241.244
4762.581, 3224.978
4764.509, 3208.212
4766.438, 3200.965
4768.366, 3231.807
4770.294, 3236.794
4772.223, 3215.901
4774.151, 3203.949
4776.080, 3204.496
4778.008, 3215.364
4779.937, 3219.629
4781.865, 3221.323
4783.794, 3221.398
4785.722, 3211.837
4787.651, 3199.136
4789.579, 3185.375
4791.508, 3230.583
4793.436, 3267.859
4795.365, 3253.934
4797.293, 3248.641
4799.222, 3240.464
4801.150, 3211.119
4803.079, 3225.578
4805.007, 3245.862
4806.936, 3224.977
4808.864, 3224.311
4810.792, 3231.005
4812.721, 3216.385
4814.649, 3220.394
4816.578, 3231.911
4818.506, 3220.282
4820.435, 3232.166
4822.363, 3253.687
4824.292, 3230.833
4826.220, 3248.794
4828.148, 3287.668
4830.077, 3235.760
4832.005, 3204.998
4833.934, 3205.812
4835.862, 3193.280
4837.791, 3195.470
4839.719, 3214.448
4841.648, 3233.589
4843.576, 3221.300
4845.505, 3182.121
4847.433, 3183.959
4849.362, 3197.392
4851.290, 3211.410
4853.219, 3232.071
4855.147, 3232.944
4857.076, 3211.401
4859.004, 3232.903
4860.933, 3236.076
4862.861, 3191.791
4864.790, 3194.149
4866.718, 3208.158
4868.646, 3218.430
4870.575, 3243.515
4872.503, 3240.944
4874.432, 3183.256
4876.360, 3175.571
4878.289, 3185.661
4880.217, 3195.697
4882.146, 3210.733
4884.074, 3217.753
4886.002, 3209.062
4887.931, 3177.240
4889.859, 3159.695
4891.788, 3180.265
4893.716, 3191.084
4895.645, 3189.702
4897.573, 3174.926
4899.502, 3167.623
4901.430, 3172.069
4903.359, 3196.711
4905.287, 3188.151
4907.216, 3166.708
4909.144, 3146.075
4911.073, 3167.562
4913.001, 3182.768
4914.930, 3146.475
4916.858, 3163.348
4918.787, 3167.422
4920.715, 3117.547
4922.644, 3144.550
4924.572, 3187.862
4926.500, 3205.910
4928.429, 3189.836
4930.357, 3162.292
4932.286, 3135.110
4934.214, 3180.486
4936.143, 3210.776
4938.071, 3176.212
4940.000, 3130.177
4941.928, 3113.369
4943.856, 3150.745
4945.785, 3161.343
4947.713, 3171.447
4949.642, 3190.017
4951.570, 3159.379
4953.499, 3135.307
4955.427, 3144.008
4957.356, 3108.890
4959.284, 3093.161
4961.213, 3118.854
4963.141, 3167.136
4965.070, 3169.989
4966.998, 3119.904
4968.927, 3135.016
4970.855, 3145.133
4972.784, 3131.614
4974.712, 3131.895
4976.641, 3138.372
4978.569, 3143.395
4980.498, 3119.760
4982.426, 3114.241
4984.354, 3130.669
4986.283, 3150.576
4988.211, 3147.995
4990.140, 3128.783
4992.068, 3110.991
4993.997, 3141.559
4995.925, 3181.951
4997.854, 3128.869
4999.782, 3139.242
5001.710, 3171.625
5003.639, 3125.375
5005.567, 3131.021
5007.496, 3152.938
5009.424, 3120.986
5011.353, 3149.083
5013.281, 3175.362
5015.210, 3127.926
5017.138, 3094.693
5019.067, 3095.189
5020.995, 3139.799
5022.924, 3133.738
5024.852, 3118.380
5026.781, 3121.516
5028.709, 3113.181
5030.638, 3096.665
5032.566, 3074.737
5034.495, 3060.111
5036.423, 3069.599
5038.352, 3100.529
5040.280, 3126.604
5042.208, 3117.791
5044.137, 3089.293
5046.065, 3128.290
5047.994, 3118.421
5049.922, 3077.184
5051.851, 3084.031
5053.779, 3094.705
5055.708, 3108.469
5057.636, 3140.666
5059.564, 3143.843
5061.493, 3133.785
5063.421, 3127.563
5065.350, 3102.155
5067.278, 3096.423
5069.207, 3136.784
5071.135, 3120.664
5073.064, 3102.003
5074.992, 3106.853
5076.921, 3072.267
5078.849, 3079.675
5080.778, 3128.400
5082.706, 3106.115
5084.635, 3090.933
5086.563, 3090.940
5088.492, 3085.760
5090.420, 3067.174
5092.349, 3043.581
5094.277, 3024.777
5096.206, 3051.497
5098.134, 3077.639
5100.063, 3051.236
5101.991, 3055.084
5103.919, 3066.996
5105.848, 3070.841
5107.776, 3084.901
5109.705, 3069.955
5111.633, 3024.779
5113.562, 3023.345
5115.490, 3031.295
5117.418, 3037.747
5119.347, 3040.344
5121.275, 3040.382
5123.204, 3033.998
5125.132, 3011.249
5127.061, 3015.323
5128.989, 3009.657
5130.918, 2953.851
5132.846, 2978.840
5134.775, 2996.972
5136.703, 2954.521
5138.632, 2991.622
5140.560, 3021.643
5142.489, 3016.354
5144.417, 2969.318
5146.346, 2951.702
5148.274, 2960.948
5150.203, 2970.576
5152.131, 2971.053
5154.060, 2963.920
5155.988, 2949.755
5157.917, 2952.228
5159.845, 2964.115
5161.773, 2978.117
5163.702, 2964.813
5165.630, 2954.427
5167.559, 2956.495
5169.487, 2970.603
5171.416, 2954.416
5173.344, 2921.392
5175.272, 2910.537
5177.201, 2933.147
5179.129, 2949.811
5181.058, 2921.000
5182.986, 2916.734
5184.915, 2928.063
5186.843, 2946.325
5188.772, 2937.473
5190.700, 2936.926
5192.629, 2946.125
5194.557, 2939.815
5196.486, 2919.725
5198.414, 2900.333
5200.343, 2901.787
5202.271, 2897.971
5204.200, 2890.532
5206.128, 2880.965
5208.057, 2893.693
5209.985, 2918.735
5211.914, 2944.382
5213.842, 2937.924
5215.771, 2925.417
5217.699, 2912.846
5219.627, 2901.817
5221.556, 2892.007
5223.484, 2896.927
5225.413, 2927.269
5227.341, 2896.693
5229.270, 2874.384
5231.198, 2882.277
5233.126, 2915.239
5235.055, 2908.602
5236.983, 2878.911
5238.912, 2873.030
5240.840, 2858.138
5242.769, 2841.231
5244.697, 2829.244
5246.626, 2867.462
5248.554, 2884.302
5250.483, 2868.939
5252.411, 2875.926
5254.340, 2862.873
5256.268, 2836.876
5258.197, 2810.700
5260.125, 2811.903
5262.054, 2828.221
5263.982, 2850.205
5265.911, 2865.754
5267.839, 2861.993
5269.768, 2847.533
5271.696, 2853.103
5273.625, 2847.446
5275.553, 2838.291
5277.481, 2838.202
5279.410, 2827.726
5281.338, 2812.297
5283.267, 2798.928
5285.195, 2816.182
5287.124, 2820.953
5289.052, 2812.018
5290.980, 2789.460
5292.909, 2843.271
5294.837, 2877.626
5296.766, 2832.346
5298.694, 2804.225
5300.623, 2813.010
5302.551, 2837.207
5304.480, 2813.617
5306.408, 2798.073
5308.337, 2797.263
5310.265, 2810.494
5312.194, 2837.103
5314.122, 2838.414
5316.051, 2813.147
5317.979, 2807.997
5319.908, 2804.868
5321.836, 2794.071
5323.765, 2768.708
5325.693, 2796.806
5327.622, 2798.966
5329.550, 2764.505
5331.479, 2831.535
5333.407, 2835.409
5335.335, 2799.557
5337.264, 2795.843
5339.192, 2773.623
5341.121, 2759.120
5343.049, 2768.020
5344.978, 2828.365
5346.906, 2827.820
5348.834, 2797.418
5350.763, 2812.782
5352.691, 2801.547
5354.620, 2792.226
5356.548, 2796.434
5358.477, 2750.726
5360.405, 2764.444
5362.334, 2801.239
5364.262, 2777.038
5366.191, 2763.908
5368.119, 2759.264
5370.048, 2758.136
5371.976, 2753.212
5373.905, 2775.357
5375.833, 2802.341
5377.762, 2793.723
5379.690, 2764.820
5381.619, 2761.846
5383.547, 2791.580
5385.476, 2784.131
5387.404, 2767.308
5389.333, 2770.366
5391.261, 2822.439
5393.189, 2766.395
5395.118, 2728.672
5397.046, 2746.789
5398.975, 2742.807
5400.903, 2758.979
5402.832, 2758.746
5404.760, 2705.150
5406.688, 2723.974
5408.617, 2749.786
5410.545, 2752.815
5412.474, 2709.642
5414.402, 2719.626
5416.331, 2736.265
5418.259, 2722.313
5420.188, 2734.970
5422.116, 2748.132
5424.045, 2749.864
5425.973, 2728.343
5427.902, 2740.660
5429.830, 2749.203
5431.759, 2741.674
5433.687, 2761.622
5435.616, 2796.694
5437.544, 2796.098
5439.473, 2706.206
5441.401, 2691.147
5443.330, 2698.404
5445.258, 2707.797
5447.187, 2734.308
5449.115, 2703.143
5451.043, 2627.797
5452.972, 2545.821
5454.900, 2658.212
5456.829, 2722.091
5458.757, 2721.580
5460.686, 2700.856
5462.614, 2699.969
5464.542, 2698.875
5466.471, 2692.483
5468.399, 2691.776
5470.328, 2704.680
5472.256, 2716.903
5474.185, 2717.631
5476.113, 2711.010
5478.042, 2703.056
5479.970, 2693.361
5481.899, 2679.108
5483.827, 2688.916
5485.756, 2686.098
5487.684, 2670.578
5489.613, 2697.958
5491.541, 2693.336
5493.470, 2683.559
5495.398, 2686.849
5497.327, 2648.583
5499.255, 2638.140
5501.184, 2659.185
5503.112, 2697.829
5505.041, 2681.374
5506.969, 2671.996
5508.897, 2675.588
5510.826, 2652.274
5512.754, 2668.306
5514.683, 2685.690
5516.611, 2682.651
5518.540, 2653.422
5520.468, 2668.749
5522.396, 2680.309
5524.325, 2644.809
5526.253, 2665.630
5528.182, 2672.983
5530.110, 2669.224
5532.039, 2678.244
5533.967, 2663.203
5535.896, 2648.387
5537.824, 2649.926
5539.753, 2696.455
5541.681, 2666.261
5543.610, 2650.319
5545.538, 2678.857
5547.467, 2663.768
5549.395, 2665.897
5551.324, 2663.352
5553.252, 2640.176
5555.181, 2651.132
5557.109, 2625.214
5559.038, 2594.926
5560.966, 2605.254
5562.895, 2646.026
5564.823, 2641.520
5566.751, 2624.133
5568.680, 2676.005
5570.608, 2658.415
5572.537, 2644.510
5574.465, 2648.871
5576.394, 2634.242
5578.322, 2655.851
5580.250, 2662.634
5582.179, 2639.894
5584.107, 2612.039
5586.036, 2631.314
5587.964, 2655.829
5589.893, 2655.576
5591.821, 2620.476
5593.750, 2612.048
5595.678, 2616.777
5597.607, 2617.975
5599.535, 2612.680
5601.464, 2579.779
5603.392, 2578.898
5605.321, 2663.913
5607.249, 2653.109
5609.178, 2635.129
5611.106, 2628.772
5613.035, 2630.433
5614.963, 2616.029
5616.892, 2635.795
5618.820, 2658.679
5620.749, 2631.469
5622.677, 2608.520
5624.605, 2627.791
5626.534, 2654.301
5628.462, 2617.205
5630.391, 2624.548
5632.319, 2635.894
5634.248, 2642.645
5636.176, 2670.255
5638.104, 2627.210
5640.033, 2575.890
5641.961, 2561.441
5643.890, 2627.828
5645.818, 2652.383
5647.747, 2624.560
5649.675, 2592.769
5651.604, 2655.333
5653.532, 2637.587
5655.461, 2625.650
5657.389, 2642.778
5659.318, 2644.997
5661.246, 2632.606
5663.175, 2627.808
5665.103, 2632.760
5667.032, 2623.397
5668.960, 2662.252
5670.889, 2664.044
5672.817, 2622.468
5674.746, 2607.385
5676.674, 2630.668
5678.603, 2641.538
5680.531, 2632.646
5682.459, 2632.643
5684.388, 2604.876
5686.316, 2596.230
5688.245, 2610.644
5690.173, 2617.518
5692.102, 2632.732
5694.030, 2626.557
5695.958, 2609.259
5697.887, 2622.193
5699.815, 2607.632
5701.744, 2621.615
5703.672, 2647.875
5705.601, 2613.857
5707.529, 2627.010
5709.458, 2637.789
5711.386, 2629.690
5713.315, 2601.920
5715.243, 2616.619
5717.172, 2611.326
5719.100, 2589.679
5721.029, 2576.301
5722.957, 2570.555
5724.886, 2595.867
5726.814, 2612.855
5728.743, 2587.573
5730.671, 2595.509
5732.600, 2590.551
5734.528, 2583.290
5736.457, 2590.475
5738.385, 2628.731
5740.313, 2624.676
5742.242, 2594.853
5744.170, 2568.380
5746.099, 2611.757
5748.027, 2620.615
5749.956, 2614.009
5751.884, 2603.801
5753.813, 2572.717
5755.741, 2558.010
5757.669, 2573.042
5759.598, 2593.924
5761.526, 2570.363
5763.455, 2554.030
5765.383, 2543.713
5767.312, 2548.609
5769.240, 2578.117
5771.169, 2564.207
5773.097, 2540.773
5775.026, 2531.996
5776.954, 2548.462
5778.883, 2576.303
5780.811, 2560.634
5782.740, 2555.091
5784.668, 2583.445
5786.597, 2567.546
5788.525, 2513.222
5790.454, 2509.744
5792.382, 2558.549
5794.311, 2563.156
5796.239, 2526.695
5798.167, 2521.152
5800.096, 2546.210
5802.024, 2566.625
5803.953, 2559.960
5805.881, 2537.987
5807.810, 2528.089
5809.738, 2541.195
5811.667, 2489.541
5813.595, 2499.354
5815.523, 2515.371
5817.452, 2509.886
5819.380, 2536.397
5821.309, 2541.773
5823.237, 2523.436
5825.166, 2512.318
5827.094, 2547.231
5829.023, 2522.895
5830.951, 2515.848
5832.880, 2508.611
5834.808, 2476.948
5836.737, 2488.962
5838.665, 2526.409
5840.594, 2511.661
5842.522, 2447.510
5844.451, 2469.683
5846.379, 2500.467
5848.308, 2514.580
5850.236, 2516.111
5852.165, 2523.047
5854.093, 2474.864
5856.021, 2469.715
5857.950, 2481.581
5859.878, 2477.118
5861.807, 2463.834
5863.735, 2493.906
5865.664, 2490.646
5867.592, 2464.780
5869.521, 2493.791
5871.449, 2468.922
5873.377, 2477.274
5875.306, 2500.142
5877.234, 2497.272
5879.163, 2451.704
5881.091, 2461.936
5883.020, 2483.001
5884.948, 2492.225
5886.877, 2503.993
5888.805, 2454.845
5890.734, 2450.403
5892.662, 2475.334
5894.591, 2491.406
5896.519, 2527.772
5898.448, 2478.395
5900.376, 2460.336
5902.305, 2495.006
5904.233, 2495.819
5906.162, 2449.448
5908.090, 2478.329
5910.019, 2507.030
5911.947, 2462.127
5913.875, 2470.644
5915.804, 2424.231
5917.732, 2452.347
5919.661, 2523.987
5921.589, 2462.412
5923.518, 2464.649
5925.446, 2472.646
5927.375, 2474.190
5929.303, 2470.100
5931.231, 2449.151
5933.160, 2470.159
5935.088, 2480.621
5937.017, 2477.911
5938.945, 2484.374
5940.874, 2490.132
5942.802, 2501.919
5944.731, 2505.327
5946.659, 2493.130
5948.588, 2466.592
5950.516, 2455.055
5952.445, 2469.656
5954.373, 2470.843
5956.302, 2441.422
5958.230, 2466.593
5960.159, 2472.245
5962.087, 2479.112
5964.016, 2492.384
5965.944, 2502.606
5967.873, 2494.581
5969.801, 2449.282
5971.729, 2441.513
5973.658, 2469.718
5975.586, 2453.502
5977.515, 2485.304
5979.443, 2474.575
5981.372, 2444.614
5983.300, 2434.245
5985.229, 2454.839
5987.157, 2468.826
5989.085, 2467.388
5991.014, 2464.558
5992.942, 2465.842
5994.871, 2405.011
5996.799, 2511.175
5998.728, 2572.405
6000.656, 2541.693
6002.585, 2490.569
6004.513, 2439.120
6006.442, 2462.433
6008.370, 2462.674
6010.299, 2432.520
6012.227, 2446.206
6014.156, 2439.930
6016.084, 2422.837
6018.013, 2409.396
6019.941, 2419.431
6021.870, 2479.646
6023.798, 2418.519
6025.727, 2427.670
6027.655, 2440.502
6029.583, 2409.279
6031.512, 2410.830
6033.440, 2419.459
6035.369, 2469.035
6037.297, 2495.906
6039.226, 2470.882
6041.154, 2484.709
6043.083, 2456.820
6045.011, 2460.049
6046.939, 2452.881
6048.868, 2407.085
6050.796, 2413.265
6052.725, 2436.406
6054.653, 2473.072
6056.582, 2489.098
6058.510, 2466.619
6060.439, 2444.376
6062.367, 2442.041
6064.296, 2455.920
6066.224, 2464.310
6068.153, 2457.594
6070.081, 2470.556
6072.010, 2448.874
6073.938, 2426.949
6075.867, 2424.732
6077.795, 2438.020
6079.724, 2420.178
6081.652, 2438.040
6083.581, 2446.555
6085.509, 2419.802
6087.438, 2379.013
6089.366, 2443.169
6091.294, 2414.425
6093.223, 2390.760
6095.151, 2427.540
6097.080, 2488.939
6099.008, 2411.346
6100.937, 2442.062
6102.865, 2439.699
6104.793, 2409.327
6106.722, 2387.552
6108.650, 2395.119
6110.579, 2455.482
6112.507, 2440.994
6114.436, 2409.759
6116.364, 2409.908
6118.293, 2441.019
6120.221, 2414.322
6122.150, 2396.928
6124.078, 2414.548
6126.007, 2426.337
6127.935, 2388.436
6129.864, 2401.530
6131.792, 2420.132
6133.721, 2404.074
6135.649, 2393.825
6137.578, 2420.544
6139.506, 2401.322
6141.435, 2407.964
6143.363, 2395.247
6145.292, 2400.928
6147.220, 2431.410
6149.148, 2412.125
6151.077, 2434.643
6153.005, 2404.024
6154.934, 2373.082
6156.862, 2381.775
6158.791, 2415.706
6160.719, 2374.407
6162.647, 2404.576
6164.576, 2415.774
6166.504, 2403.307
6168.433, 2406.917
6170.361, 2416.652
6172.290, 2400.216
6174.218, 2381.125
6176.147, 2393.138
6178.075, 2424.934
6180.004, 2416.719
6181.932, 2392.702
6183.861, 2348.142
6185.789, 2350.754
6187.718, 2383.234
6189.646, 2388.169
6191.575, 2391.250
6193.503, 2415.210
6195.432, 2412.215
6197.360, 2404.823
6199.289, 2417.549
6201.217, 2433.265
6203.146, 2387.755
6205.074, 2372.434
6207.002, 2365.574
6208.931, 2368.233
6210.859, 2398.349
6212.788, 2399.115
6214.716, 2388.934
6216.645, 2385.831
6218.573, 2387.593
6220.501, 2388.237
6222.430, 2385.985
6224.358, 2400.498
6226.287, 2403.725
6228.215, 2394.413
6230.144, 2383.876
6232.072, 2381.609
6234.001, 2382.533
6235.929, 2397.564
6237.858, 2397.429
6239.786, 2403.669
6241.715, 2403.939
6243.643, 2361.641
6245.572, 2378.016
6247.500, 2403.462
6249.429, 2377.317
6251.357, 2351.756
6253.286, 2361.686
6255.214, 2369.909
6257.143, 2416.471
6259.071, 2416.529
6261.000, 2364.007
6262.928, 2341.538
6264.856, 2379.419
6266.785, 2361.585
6268.713, 2361.291
6270.642, 2362.702
6272.570, 2371.568
6274.499, 2374.602
6276.427, 2360.020
6278.355, 2356.095
6280.284, 2358.558
6282.212, 2331.164
6284.141, 2347.298
6286.069, 2371.199
6287.998, 2333.105
6289.926, 2388.382
6291.855, 2350.701
6293.783, 2374.175
6295.712, 2365.702
6297.640, 2321.614
6299.569, 2333.830
6301.497, 2329.317
6303.426, 2326.913
6305.354, 2367.552
6307.283, 2359.248
6309.211, 2316.510
6311.140, 2334.027
6313.068, 2292.673
6314.997, 2343.098
6316.925, 2336.320
6318.854, 2345.127
6320.782, 2364.608
6322.710, 2323.216
6324.639, 2343.195
6326.567, 2333.034
6328.496, 2284.390
6330.424, 2297.936
6332.353, 2343.072
6334.281, 2334.815
6336.209, 2349.130
6338.138, 2350.526
6340.066, 2317.596
6341.995, 2361.399
6343.923, 2389.053
6345.852, 2305.479
6347.780, 2324.532
6349.709, 2347.498
6351.637, 2308.301
6353.566, 2289.399
6355.494, 2318.824
6357.423, 2360.957
6359.351, 2351.706
6361.280, 2361.811
6363.208, 2302.661
6365.137, 2295.798
6367.065, 2302.203
6368.994, 2297.027
6370.922, 2331.354
6372.851, 2323.857
6374.779, 2280.723
6376.708, 2321.423
6378.636, 2344.150
6380.564, 2317.394
6382.493, 2302.944
6384.421, 2333.300
6386.350, 2332.667
6388.278, 2266.727
6390.207, 2236.069
6392.135, 2273.776
6394.063, 2330.468
6395.992, 2324.425
6397.920, 2302.135
6399.849, 2317.564
6401.777, 2333.583
6403.706, 2331.580
6405.634, 2314.343
6407.563, 2300.429
6409.491, 2351.374
6411.420, 2329.730
6413.348, 2313.197
6415.277, 2301.905
6417.205, 2298.708
6419.134, 2302.075
6421.062, 2298.647
6422.991, 2298.507
6424.919, 2344.521
6426.848, 2322.746
6428.776, 2295.574
6430.705, 2278.400
6432.633, 2257.721
6434.562, 2276.323
6436.490, 2279.188
6438.418, 2245.781
6440.347, 2265.189
6442.275, 2260.606
6444.204, 2255.185
6446.132, 2319.967
6448.061, 2294.761
6449.989, 2313.755
6451.917, 2295.308
6453.846, 2282.180
6455.774, 2252.225
6457.703, 2228.368
6459.631, 2266.237
6461.560, 2314.008
6463.488, 2273.656
6465.417, 2254.652
6467.345, 2245.036
6469.274, 2261.992
6471.202, 2284.442
6473.131, 2253.860
6475.059, 2207.175
6476.988, 2257.726
6478.916, 2252.270
6480.845, 2244.857
6482.773, 2247.524
6484.702, 2258.128
6486.630, 2282.246
6488.559, 2262.304
6490.487, 2249.889
6492.416, 2236.293
6494.344, 2224.226
6496.272, 2222.205
6498.201, 2223.234
6500.129, 2218.674
6502.058, 2226.786
6503.986, 2196.029
6505.915, 2224.579
6507.843, 2240.910
6509.771, 2216.539
6511.700, 2193.665
6513.628, 2203.857
6515.557, 2205.703
6517.485, 2196.522
6519.414, 2212.442
6521.342, 2215.319
6523.271, 2221.378
6525.199, 2203.172
6527.128, 2177.087
6529.056, 2207.985
6530.985, 2179.090
6532.913, 2190.214
6534.842, 2218.493
6536.770, 2236.955
6538.699, 2211.522
6540.627, 2183.689
6542.556, 2204.211
6544.484, 2193.845
6546.413, 2175.950
6548.341, 2176.606
6550.270, 2179.986
6552.198, 2184.387
6554.126, 2192.658
6556.055, 2190.404
6557.983, 2161.181
6559.912, 2141.184
6561.840, 2171.970
6563.769, 2185.386
##END=



