##NAMES=Biphosphammite
##RRUFFID=R180019
##IDEAL CHEMISTRY=(NH_4_)H_2_(PO_4_)
##LOCALITY=Ojuela mine, Mapimí, Municipio de Mapimí, Durango, Mexico
##OWNER=RRUFF
##SOURCE=Peter Megaw
##DESCRIPTION=Colorless tetragonal prismatic crystals
##STATUS=The identification of this mineral has been confirmed only by single crystal X-ray diffraction
##URL=https://www.rruff.net/odr/rruff_sample/R180019
##DIFFRACTION SAMPLE DESCRIPTION=Single crystal, powder profile is calculated
##CELL PARAMETERS=a: 7.5272 b: 7.5272 c: 7.5741 alpha: 90 beta: 90 gamma: 90 volume: 429.143 crystal system: tetragonal
##FILETYPE=Raman RAW
##RAMAN WAVELENGTH=780

7.084375e+001, 7.709236e+002
7.277222e+001, 7.210907e+002
7.470068e+001, 7.163898e+002
7.662915e+001, 7.620497e+002
7.855762e+001, 8.329944e+002
8.048608e+001, 9.219442e+002
8.241455e+001, 1.039445e+003
8.434302e+001, 1.191145e+003
8.627148e+001, 1.377552e+003
8.819995e+001, 1.600204e+003
9.012842e+001, 1.869349e+003
9.205688e+001, 2.139314e+003
9.398535e+001, 2.413999e+003
9.591382e+001, 2.518196e+003
9.784229e+001, 2.433012e+003
9.977075e+001, 2.347070e+003
1.016992e+002, 2.268393e+003
1.036277e+002, 2.195511e+003
1.055562e+002, 2.128702e+003
1.074846e+002, 2.060486e+003
1.094131e+002, 1.999463e+003
1.113416e+002, 1.950027e+003
1.132700e+002, 1.909277e+003
1.151985e+002, 1.871397e+003
1.171270e+002, 1.833044e+003
1.190554e+002, 1.798307e+003
1.209839e+002, 1.765616e+003
1.229124e+002, 1.735860e+003
1.248408e+002, 1.709528e+003
1.267693e+002, 1.685932e+003
1.286978e+002, 1.663807e+003
1.306262e+002, 1.642373e+003
1.325547e+002, 1.623106e+003
1.344832e+002, 1.605526e+003
1.364116e+002, 1.590663e+003
1.383401e+002, 1.579634e+003
1.402686e+002, 1.572069e+003
1.421970e+002, 1.565914e+003
1.441255e+002, 1.560873e+003
1.460540e+002, 1.559064e+003
1.479824e+002, 1.560729e+003
1.499109e+002, 1.566072e+003
1.518394e+002, 1.576713e+003
1.537678e+002, 1.590887e+003
1.556963e+002, 1.605453e+003
1.576248e+002, 1.620603e+003
1.595532e+002, 1.633281e+003
1.614817e+002, 1.640454e+003
1.634102e+002, 1.647903e+003
1.653386e+002, 1.658495e+003
1.672671e+002, 1.669788e+003
1.691956e+002, 1.679521e+003
1.711240e+002, 1.687688e+003
1.730525e+002, 1.690780e+003
1.749810e+002, 1.687515e+003
1.769094e+002, 1.679671e+003
1.788379e+002, 1.667054e+003
1.807664e+002, 1.650176e+003
1.826948e+002, 1.628092e+003
1.846233e+002, 1.602002e+003
1.865518e+002, 1.576651e+003
1.884802e+002, 1.552004e+003
1.904087e+002, 1.528764e+003
1.923372e+002, 1.507523e+003
1.942656e+002, 1.487092e+003
1.961941e+002, 1.465411e+003
1.981226e+002, 1.444355e+003
2.000510e+002, 1.428527e+003
2.019795e+002, 1.420510e+003
2.039080e+002, 1.411179e+003
2.058364e+002, 1.397705e+003
2.077649e+002, 1.386034e+003
2.096934e+002, 1.378854e+003
2.116218e+002, 1.374575e+003
2.135503e+002, 1.371911e+003
2.154788e+002, 1.371201e+003
2.174072e+002, 1.369066e+003
2.193357e+002, 1.363824e+003
2.212642e+002, 1.360052e+003
2.231926e+002, 1.359574e+003
2.251211e+002, 1.359843e+003
2.270496e+002, 1.359129e+003
2.289780e+002, 1.357722e+003
2.309065e+002, 1.356603e+003
2.328350e+002, 1.355263e+003
2.347634e+002, 1.355793e+003
2.366919e+002, 1.358905e+003
2.386204e+002, 1.362853e+003
2.405488e+002, 1.367718e+003
2.424773e+002, 1.372284e+003
2.444058e+002, 1.375081e+003
2.463342e+002, 1.375979e+003
2.482627e+002, 1.375681e+003
2.501912e+002, 1.373110e+003
2.521196e+002, 1.372704e+003
2.540481e+002, 1.376828e+003
2.559766e+002, 1.382308e+003
2.579050e+002, 1.388538e+003
2.598335e+002, 1.394498e+003
2.617620e+002, 1.396628e+003
2.636904e+002, 1.394468e+003
2.656189e+002, 1.394921e+003
2.675474e+002, 1.399590e+003
2.694758e+002, 1.404586e+003
2.714043e+002, 1.409000e+003
2.733328e+002, 1.412615e+003
2.752612e+002, 1.414932e+003
2.771897e+002, 1.416193e+003
2.791182e+002, 1.417461e+003
2.810466e+002, 1.418624e+003
2.829751e+002, 1.420629e+003
2.849036e+002, 1.425057e+003
2.868320e+002, 1.428044e+003
2.887605e+002, 1.425754e+003
2.906890e+002, 1.423002e+003
2.926174e+002, 1.427210e+003
2.945459e+002, 1.436574e+003
2.964744e+002, 1.440954e+003
2.984028e+002, 1.438608e+003
3.003313e+002, 1.438130e+003
3.022598e+002, 1.442755e+003
3.041882e+002, 1.448335e+003
3.061167e+002, 1.452995e+003
3.080452e+002, 1.457754e+003
3.099736e+002, 1.465205e+003
3.119021e+002, 1.474258e+003
3.138306e+002, 1.479505e+003
3.157590e+002, 1.478557e+003
3.176875e+002, 1.479770e+003
3.196160e+002, 1.486616e+003
3.215445e+002, 1.493604e+003
3.234729e+002, 1.498046e+003
3.254014e+002, 1.501340e+003
3.273299e+002, 1.505547e+003
3.292583e+002, 1.510369e+003
3.311868e+002, 1.513866e+003
3.331153e+002, 1.514534e+003
3.350437e+002, 1.516854e+003
3.369722e+002, 1.526215e+003
3.389007e+002, 1.531321e+003
3.408291e+002, 1.524892e+003
3.427576e+002, 1.512808e+003
3.446861e+002, 1.501835e+003
3.466145e+002, 1.491741e+003
3.485430e+002, 1.480194e+003
3.504715e+002, 1.465936e+003
3.523999e+002, 1.452608e+003
3.543284e+002, 1.440118e+003
3.562569e+002, 1.428720e+003
3.581853e+002, 1.418599e+003
3.601138e+002, 1.409410e+003
3.620423e+002, 1.400423e+003
3.639707e+002, 1.391906e+003
3.658992e+002, 1.385672e+003
3.678277e+002, 1.382618e+003
3.697561e+002, 1.380267e+003
3.716846e+002, 1.378337e+003
3.736131e+002, 1.377789e+003
3.755415e+002, 1.378690e+003
3.774700e+002, 1.381553e+003
3.793985e+002, 1.386416e+003
3.813269e+002, 1.393306e+003
3.832554e+002, 1.402334e+003
3.851839e+002, 1.413528e+003
3.871123e+002, 1.426673e+003
3.890408e+002, 1.441515e+003
3.909693e+002, 1.458814e+003
3.928977e+002, 1.483490e+003
3.948262e+002, 1.503941e+003
3.967547e+002, 1.514795e+003
3.986831e+002, 1.517400e+003
4.006116e+002, 1.512824e+003
4.025401e+002, 1.501128e+003
4.044685e+002, 1.483988e+003
4.063970e+002, 1.459667e+003
4.083255e+002, 1.440289e+003
4.102539e+002, 1.428464e+003
4.121824e+002, 1.420643e+003
4.141109e+002, 1.417956e+003
4.160393e+002, 1.416045e+003
4.179678e+002, 1.411018e+003
4.198963e+002, 1.404364e+003
4.218247e+002, 1.399882e+003
4.237532e+002, 1.397541e+003
4.256817e+002, 1.397059e+003
4.276101e+002, 1.398497e+003
4.295386e+002, 1.401303e+003
4.314671e+002, 1.407491e+003
4.333955e+002, 1.411909e+003
4.353240e+002, 1.410112e+003
4.372525e+002, 1.407328e+003
4.391809e+002, 1.410547e+003
4.411094e+002, 1.417781e+003
4.430379e+002, 1.420972e+003
4.449663e+002, 1.420212e+003
4.468948e+002, 1.422380e+003
4.488233e+002, 1.430313e+003
4.507517e+002, 1.436719e+003
4.526802e+002, 1.438868e+003
4.546087e+002, 1.440286e+003
4.565371e+002, 1.441745e+003
4.584656e+002, 1.443976e+003
4.603941e+002, 1.447895e+003
4.623225e+002, 1.453331e+003
4.642510e+002, 1.461088e+003
4.661795e+002, 1.471590e+003
4.681079e+002, 1.477254e+003
4.700364e+002, 1.474962e+003
4.719649e+002, 1.471293e+003
4.738933e+002, 1.467049e+003
4.758218e+002, 1.462145e+003
4.777503e+002, 1.456787e+003
4.796787e+002, 1.450604e+003
4.816072e+002, 1.443490e+003
4.835357e+002, 1.435226e+003
4.854641e+002, 1.424939e+003
4.873926e+002, 1.412507e+003
4.893211e+002, 1.398890e+003
4.912495e+002, 1.382250e+003
4.931780e+002, 1.367255e+003
4.951065e+002, 1.353914e+003
4.970349e+002, 1.342536e+003
4.989634e+002, 1.334092e+003
5.008919e+002, 1.326888e+003
5.028203e+002, 1.319286e+003
5.047488e+002, 1.311933e+003
5.066773e+002, 1.306138e+003
5.086057e+002, 1.301967e+003
5.105342e+002, 1.299288e+003
5.124626e+002, 1.299203e+003
5.143911e+002, 1.298546e+003
5.163196e+002, 1.296171e+003
5.182480e+002, 1.295073e+003
5.201765e+002, 1.295447e+003
5.221050e+002, 1.298213e+003
5.240334e+002, 1.306070e+003
5.259619e+002, 1.314934e+003
5.278904e+002, 1.319120e+003
5.298188e+002, 1.319679e+003
5.317473e+002, 1.322716e+003
5.336758e+002, 1.329328e+003
5.356042e+002, 1.332931e+003
5.375327e+002, 1.333285e+003
5.394612e+002, 1.331903e+003
5.413896e+002, 1.328388e+003
5.433181e+002, 1.324701e+003
5.452466e+002, 1.322800e+003
5.471750e+002, 1.319818e+003
5.491035e+002, 1.312325e+003
5.510320e+002, 1.303274e+003
5.529604e+002, 1.297978e+003
5.548889e+002, 1.295756e+003
5.568174e+002, 1.291885e+003
5.587458e+002, 1.286401e+003
5.606743e+002, 1.279932e+003
5.626028e+002, 1.272212e+003
5.645313e+002, 1.264930e+003
5.664598e+002, 1.259007e+003
5.683882e+002, 1.252561e+003
5.703167e+002, 1.243738e+003
5.722452e+002, 1.235267e+003
5.741736e+002, 1.229823e+003
5.761021e+002, 1.225341e+003
5.780306e+002, 1.218707e+003
5.799590e+002, 1.210454e+003
5.818875e+002, 1.202323e+003
5.838160e+002, 1.194463e+003
5.857444e+002, 1.188495e+003
5.876729e+002, 1.185353e+003
5.896014e+002, 1.180540e+003
5.915298e+002, 1.171183e+003
5.934583e+002, 1.163467e+003
5.953868e+002, 1.160552e+003
5.973152e+002, 1.157517e+003
5.992437e+002, 1.151224e+003
6.011722e+002, 1.143810e+003
6.031006e+002, 1.136765e+003
6.050291e+002, 1.130543e+003
6.069576e+002, 1.126369e+003
6.088860e+002, 1.123769e+003
6.108145e+002, 1.120703e+003
6.127430e+002, 1.117083e+003
6.146714e+002, 1.112800e+003
6.165999e+002, 1.107381e+003
6.185284e+002, 1.102422e+003
6.204568e+002, 1.098169e+003
6.223853e+002, 1.094430e+003
6.243138e+002, 1.091829e+003
6.262422e+002, 1.089006e+003
6.281707e+002, 1.084346e+003
6.300992e+002, 1.079686e+003
6.320276e+002, 1.077396e+003
6.339561e+002, 1.076233e+003
6.358846e+002, 1.073748e+003
6.378130e+002, 1.070056e+003
6.397415e+002, 1.066844e+003
6.416700e+002, 1.064290e+003
6.435984e+002, 1.061451e+003
6.455269e+002, 1.057584e+003
6.474554e+002, 1.054715e+003
6.493839e+002, 1.053787e+003
6.513123e+002, 1.052370e+003
6.532408e+002, 1.049504e+003
6.551693e+002, 1.046494e+003
6.570977e+002, 1.044726e+003
6.590262e+002, 1.042485e+003
6.609547e+002, 1.037353e+003
6.628831e+002, 1.031685e+003
6.648116e+002, 1.029403e+003
6.667401e+002, 1.029569e+003
6.686685e+002, 1.028548e+003
6.705970e+002, 1.026216e+003
6.725255e+002, 1.024039e+003
6.744539e+002, 1.022104e+003
6.763824e+002, 1.019338e+003
6.783109e+002, 1.015050e+003
6.802393e+002, 1.012633e+003
6.821678e+002, 1.014217e+003
6.840963e+002, 1.014438e+003
6.860247e+002, 1.009762e+003
6.879532e+002, 1.005493e+003
6.898817e+002, 1.005262e+003
6.918101e+002, 1.005335e+003
6.937386e+002, 1.002140e+003
6.956671e+002, 9.978931e+002
6.975955e+002, 9.959666e+002
6.995240e+002, 9.955143e+002
7.014525e+002, 9.941403e+002
7.033809e+002, 9.919458e+002
7.053094e+002, 9.894802e+002
7.072379e+002, 9.867590e+002
7.091663e+002, 9.852919e+002
7.110948e+002, 9.852653e+002
7.130233e+002, 9.859135e+002
7.149517e+002, 9.878300e+002
7.168802e+002, 9.881373e+002
7.188087e+002, 9.848534e+002
7.207371e+002, 9.817360e+002
7.226656e+002, 9.797742e+002
7.245941e+002, 9.785150e+002
7.265225e+002, 9.785060e+002
7.284510e+002, 9.783309e+002
7.303795e+002, 9.762462e+002
7.323079e+002, 9.736364e+002
7.342364e+002, 9.725506e+002
7.361649e+002, 9.722188e+002
7.380933e+002, 9.708223e+002
7.400218e+002, 9.687825e+002
7.419503e+002, 9.677089e+002
7.438787e+002, 9.676198e+002
7.458072e+002, 9.680391e+002
7.477357e+002, 9.692171e+002
7.496641e+002, 9.691588e+002
7.515926e+002, 9.666367e+002
7.535211e+002, 9.655819e+002
7.554495e+002, 9.681863e+002
7.573780e+002, 9.692663e+002
7.593065e+002, 9.657949e+002
7.612349e+002, 9.638781e+002
7.631634e+002, 9.671613e+002
7.650919e+002, 9.703549e+002
7.670203e+002, 9.707497e+002
7.689488e+002, 9.695643e+002
7.708773e+002, 9.664191e+002
7.728057e+002, 9.633678e+002
7.747342e+002, 9.629561e+002
7.766627e+002, 9.638251e+002
7.785911e+002, 9.636232e+002
7.805196e+002, 9.628285e+002
7.824481e+002, 9.632095e+002
7.843765e+002, 9.646174e+002
7.863050e+002, 9.643853e+002
7.882335e+002, 9.621910e+002
7.901619e+002, 9.614138e+002
7.920904e+002, 9.625952e+002
7.940189e+002, 9.628967e+002
7.959473e+002, 9.617096e+002
7.978758e+002, 9.616293e+002
7.998043e+002, 9.633182e+002
8.017327e+002, 9.651210e+002
8.036612e+002, 9.675585e+002
8.055897e+002, 9.677884e+002
8.075181e+002, 9.627498e+002
8.094466e+002, 9.596152e+002
8.113751e+002, 9.640906e+002
8.133035e+002, 9.677285e+002
8.152320e+002, 9.647009e+002
8.171605e+002, 9.606908e+002
8.190889e+002, 9.592888e+002
8.210174e+002, 9.592912e+002
8.229459e+002, 9.596677e+002
8.248743e+002, 9.606124e+002
8.268028e+002, 9.638682e+002
8.287313e+002, 9.672262e+002
8.306597e+002, 9.641671e+002
8.325882e+002, 9.574215e+002
8.345167e+002, 9.569263e+002
8.364451e+002, 9.614169e+002
8.383736e+002, 9.627741e+002
8.403021e+002, 9.614842e+002
8.422305e+002, 9.627694e+002
8.441590e+002, 9.667267e+002
8.460875e+002, 9.701356e+002
8.480159e+002, 9.728283e+002
8.499444e+002, 9.731115e+002
8.518729e+002, 9.701589e+002
8.538013e+002, 9.686237e+002
8.557298e+002, 9.697715e+002
8.576583e+002, 9.707873e+002
8.595867e+002, 9.700887e+002
8.615152e+002, 9.712875e+002
8.634437e+002, 9.766185e+002
8.653721e+002, 9.813761e+002
8.673006e+002, 9.829069e+002
8.692291e+002, 9.859156e+002
8.711575e+002, 9.931409e+002
8.730860e+002, 1.000905e+003
8.750145e+002, 1.006681e+003
8.769429e+002, 1.013278e+003
8.788714e+002, 1.023237e+003
8.807999e+002, 1.033817e+003
8.827283e+002, 1.041278e+003
8.846568e+002, 1.049859e+003
8.865853e+002, 1.064634e+003
8.885137e+002, 1.081923e+003
8.904422e+002, 1.096557e+003
8.923707e+002, 1.111903e+003
8.942991e+002, 1.132370e+003
8.962276e+002, 1.156915e+003
8.981561e+002, 1.182535e+003
9.000845e+002, 1.211142e+003
9.020130e+002, 1.247658e+003
9.039415e+002, 1.291672e+003
9.058699e+002, 1.341473e+003
9.077984e+002, 1.397232e+003
9.097269e+002, 1.461120e+003
9.116553e+002, 1.532823e+003
9.135838e+002, 1.606471e+003
9.155123e+002, 1.682413e+003
9.174407e+002, 1.747181e+003
9.193692e+002, 1.802056e+003
9.212977e+002, 1.832394e+003
9.232261e+002, 1.837218e+003
9.251546e+002, 1.818169e+003
9.270831e+002, 1.772475e+003
9.290115e+002, 1.717102e+003
9.309400e+002, 1.651471e+003
9.328685e+002, 1.582601e+003
9.347969e+002, 1.509532e+003
9.367254e+002, 1.443565e+003
9.386539e+002, 1.386659e+003
9.405823e+002, 1.334505e+003
9.425108e+002, 1.285943e+003
9.444393e+002, 1.244460e+003
9.463677e+002, 1.211216e+003
9.482962e+002, 1.183325e+003
9.502247e+002, 1.160867e+003
9.521531e+002, 1.141090e+003
9.540816e+002, 1.123825e+003
9.560101e+002, 1.107461e+003
9.579385e+002, 1.090873e+003
9.598670e+002, 1.076739e+003
9.617955e+002, 1.065714e+003
9.637239e+002, 1.057643e+003
9.656524e+002, 1.054375e+003
9.675809e+002, 1.050983e+003
9.695093e+002, 1.046583e+003
9.714378e+002, 1.040790e+003
9.733663e+002, 1.030469e+003
9.752947e+002, 1.023215e+003
9.772232e+002, 1.024826e+003
9.791517e+002, 1.026063e+003
9.810801e+002, 1.022487e+003
9.830086e+002, 1.017985e+003
9.849371e+002, 1.014427e+003
9.868655e+002, 1.010538e+003
9.887940e+002, 1.004525e+003
9.907225e+002, 9.995911e+002
9.926509e+002, 9.979542e+002
9.945794e+002, 9.975980e+002
9.965079e+002, 9.986891e+002
9.984363e+002, 9.987902e+002
1.000365e+003, 9.961750e+002
1.002293e+003, 9.921249e+002
1.004222e+003, 9.857108e+002
1.006150e+003, 9.803660e+002
1.008079e+003, 9.790570e+002
1.010007e+003, 9.789642e+002
1.011936e+003, 9.793247e+002
1.013864e+003, 9.785630e+002
1.015793e+003, 9.742505e+002
1.017721e+003, 9.700898e+002
1.019649e+003, 9.690908e+002
1.021578e+003, 9.690990e+002
1.023506e+003, 9.693823e+002
1.025435e+003, 9.688566e+002
1.027363e+003, 9.658821e+002
1.029292e+003, 9.626810e+002
1.031220e+003, 9.601541e+002
1.033149e+003, 9.590043e+002
1.035077e+003, 9.610745e+002
1.037006e+003, 9.630486e+002
1.038934e+003, 9.624131e+002
1.040863e+003, 9.608968e+002
1.042791e+003, 9.588914e+002
1.044719e+003, 9.576470e+002
1.046648e+003, 9.586884e+002
1.048576e+003, 9.600226e+002
1.050505e+003, 9.604144e+002
1.052433e+003, 9.604455e+002
1.054362e+003, 9.613466e+002
1.056290e+003, 9.609455e+002
1.058219e+003, 9.563469e+002
1.060147e+003, 9.519579e+002
1.062076e+003, 9.503960e+002
1.064004e+003, 9.501859e+002
1.065933e+003, 9.504794e+002
1.067861e+003, 9.516984e+002
1.069790e+003, 9.555293e+002
1.071718e+003, 9.582207e+002
1.073647e+003, 9.567183e+002
1.075575e+003, 9.548529e+002
1.077504e+003, 9.545077e+002
1.079432e+003, 9.545085e+002
1.081360e+003, 9.545028e+002
1.083289e+003, 9.545369e+002
1.085217e+003, 9.532528e+002
1.087146e+003, 9.542280e+002
1.089074e+003, 9.628098e+002
1.091003e+003, 9.677736e+002
1.092931e+003, 9.614758e+002
1.094860e+003, 9.564203e+002
1.096788e+003, 9.573414e+002
1.098717e+003, 9.588826e+002
1.100645e+003, 9.610969e+002
1.102574e+003, 9.610428e+002
1.104502e+003, 9.564375e+002
1.106431e+003, 9.523031e+002
1.108359e+003, 9.497639e+002
1.110287e+003, 9.476920e+002
1.112216e+003, 9.456193e+002
1.114144e+003, 9.445358e+002
1.116073e+003, 9.458820e+002
1.118001e+003, 9.455040e+002
1.119930e+003, 9.408995e+002
1.121858e+003, 9.390494e+002
1.123787e+003, 9.422787e+002
1.125715e+003, 9.436652e+002
1.127644e+003, 9.421478e+002
1.129572e+003, 9.409219e+002
1.131501e+003, 9.405348e+002
1.133429e+003, 9.388797e+002
1.135358e+003, 9.349676e+002
1.137286e+003, 9.341083e+002
1.139214e+003, 9.367920e+002
1.141143e+003, 9.402210e+002
1.143071e+003, 9.447589e+002
1.145000e+003, 9.439621e+002
1.146928e+003, 9.379450e+002
1.148857e+003, 9.367753e+002
1.150785e+003, 9.399996e+002
1.152714e+003, 9.442969e+002
1.154642e+003, 9.490589e+002
1.156571e+003, 9.510167e+002
1.158499e+003, 9.508774e+002
1.160428e+003, 9.495491e+002
1.162356e+003, 9.489284e+002
1.164285e+003, 9.552723e+002
1.166213e+003, 9.644554e+002
1.168141e+003, 9.687025e+002
1.170070e+003, 9.705171e+002
1.171998e+003, 9.729075e+002
1.173927e+003, 9.755504e+002
1.175855e+003, 9.780421e+002
1.177784e+003, 9.805720e+002
1.179712e+003, 9.827499e+002
1.181641e+003, 9.858483e+002
1.183569e+003, 9.918187e+002
1.185498e+003, 9.977529e+002
1.187426e+003, 1.001939e+003
1.189355e+003, 1.005774e+003
1.191283e+003, 1.009571e+003
1.193212e+003, 1.013526e+003
1.195140e+003, 1.017676e+003
1.197068e+003, 1.021908e+003
1.198997e+003, 1.025976e+003
1.200925e+003, 1.031053e+003
1.202854e+003, 1.038249e+003
1.204782e+003, 1.043366e+003
1.206711e+003, 1.045013e+003
1.208639e+003, 1.049925e+003
1.210568e+003, 1.059176e+003
1.212496e+003, 1.068060e+003
1.214425e+003, 1.076072e+003
1.216353e+003, 1.081952e+003
1.218282e+003, 1.085909e+003
1.220210e+003, 1.092129e+003
1.222139e+003, 1.100204e+003
1.224067e+003, 1.107562e+003
1.225995e+003, 1.114474e+003
1.227924e+003, 1.122026e+003
1.229852e+003, 1.129941e+003
1.231781e+003, 1.137743e+003
1.233709e+003, 1.145437e+003
1.235638e+003, 1.154046e+003
1.237566e+003, 1.161367e+003
1.239495e+003, 1.163602e+003
1.241423e+003, 1.165385e+003
1.243352e+003, 1.170429e+003
1.245280e+003, 1.176398e+003
1.247209e+003, 1.181265e+003
1.249137e+003, 1.187767e+003
1.251066e+003, 1.198430e+003
1.252994e+003, 1.208063e+003
1.254922e+003, 1.215170e+003
1.256851e+003, 1.220300e+003
1.258779e+003, 1.221585e+003
1.260708e+003, 1.227637e+003
1.262636e+003, 1.242328e+003
1.264565e+003, 1.249659e+003
1.266493e+003, 1.247484e+003
1.268422e+003, 1.249840e+003
1.270350e+003, 1.256614e+003
1.272279e+003, 1.261281e+003
1.274207e+003, 1.264726e+003
1.276136e+003, 1.272920e+003
1.278064e+003, 1.283491e+003
1.279993e+003, 1.290999e+003
1.281921e+003, 1.296131e+003
1.283849e+003, 1.298542e+003
1.285778e+003, 1.301256e+003
1.287706e+003, 1.308103e+003
1.289635e+003, 1.316103e+003
1.291563e+003, 1.324588e+003
1.293492e+003, 1.331397e+003
1.295420e+003, 1.333801e+003
1.297349e+003, 1.338336e+003
1.299277e+003, 1.347975e+003
1.301206e+003, 1.355286e+003
1.303134e+003, 1.357769e+003
1.305063e+003, 1.363905e+003
1.306991e+003, 1.375045e+003
1.308920e+003, 1.380312e+003
1.310848e+003, 1.379825e+003
1.312776e+003, 1.385350e+003
1.314705e+003, 1.396183e+003
1.316633e+003, 1.408234e+003
1.318562e+003, 1.419214e+003
1.320490e+003, 1.422327e+003
1.322419e+003, 1.422551e+003
1.324347e+003, 1.426839e+003
1.326276e+003, 1.432397e+003
1.328204e+003, 1.436781e+003
1.330133e+003, 1.441024e+003
1.332061e+003, 1.445804e+003
1.333990e+003, 1.450746e+003
1.335918e+003, 1.454172e+003
1.337847e+003, 1.460716e+003
1.339775e+003, 1.473564e+003
1.341703e+003, 1.484172e+003
1.343632e+003, 1.491169e+003
1.345560e+003, 1.499740e+003
1.347489e+003, 1.510003e+003
1.349417e+003, 1.518221e+003
1.351346e+003, 1.525392e+003
1.353274e+003, 1.537533e+003
1.355203e+003, 1.552481e+003
1.357131e+003, 1.565505e+003
1.359060e+003, 1.578044e+003
1.360988e+003, 1.588297e+003
1.362917e+003, 1.603732e+003
1.364845e+003, 1.633359e+003
1.366774e+003, 1.661445e+003
1.368702e+003, 1.679080e+003
1.370630e+003, 1.698457e+003
1.372559e+003, 1.723229e+003
1.374487e+003, 1.748681e+003
1.376416e+003, 1.773667e+003
1.378344e+003, 1.803832e+003
1.380273e+003, 1.839257e+003
1.382201e+003, 1.872061e+003
1.384130e+003, 1.903214e+003
1.386058e+003, 1.936503e+003
1.387987e+003, 1.971227e+003
1.389915e+003, 2.005774e+003
1.391844e+003, 2.041094e+003
1.393772e+003, 2.078094e+003
1.395701e+003, 2.116314e+003
1.397629e+003, 2.155604e+003
1.399557e+003, 2.195964e+003
1.401486e+003, 2.238001e+003
1.403414e+003, 2.279623e+003
1.405343e+003, 2.320781e+003
1.407271e+003, 2.359336e+003
1.409200e+003, 2.395634e+003
1.411128e+003, 2.436568e+003
1.413057e+003, 2.479749e+003
1.414985e+003, 2.513820e+003
1.416914e+003, 2.543893e+003
1.418842e+003, 2.580641e+003
1.420771e+003, 2.615973e+003
1.422699e+003, 2.640833e+003
1.424628e+003, 2.663205e+003
1.426556e+003, 2.687793e+003
1.428484e+003, 2.710207e+003
1.430413e+003, 2.727503e+003
1.432341e+003, 2.749593e+003
1.434270e+003, 2.778289e+003
1.436198e+003, 2.801511e+003
1.438127e+003, 2.818984e+003
1.440055e+003, 2.833053e+003
1.441984e+003, 2.843571e+003
1.443912e+003, 2.848798e+003
1.445841e+003, 2.851425e+003
1.447769e+003, 2.852864e+003
1.449698e+003, 2.855060e+003
1.451626e+003, 2.859982e+003
1.453555e+003, 2.864336e+003
1.455483e+003, 2.867195e+003
1.457411e+003, 2.868803e+003
1.459340e+003, 2.870689e+003
1.461268e+003, 2.865080e+003
1.463197e+003, 2.852693e+003
1.465125e+003, 2.847241e+003
1.467054e+003, 2.845355e+003
1.468982e+003, 2.836431e+003
1.470911e+003, 2.825534e+003
1.472839e+003, 2.817982e+003
1.474768e+003, 2.811218e+003
1.476696e+003, 2.803604e+003
1.478625e+003, 2.796202e+003
1.480553e+003, 2.789830e+003
1.482482e+003, 2.780292e+003
1.484410e+003, 2.766902e+003
1.486339e+003, 2.750853e+003
1.488267e+003, 2.733187e+003
1.490195e+003, 2.719014e+003
1.492124e+003, 2.707267e+003
1.494052e+003, 2.699156e+003
1.495981e+003, 2.687574e+003
1.497909e+003, 2.662515e+003
1.499838e+003, 2.637265e+003
1.501766e+003, 2.614493e+003
1.503695e+003, 2.601019e+003
1.505623e+003, 2.599200e+003
1.507552e+003, 2.590777e+003
1.509480e+003, 2.574432e+003
1.511409e+003, 2.552865e+003
1.513337e+003, 2.530239e+003
1.515266e+003, 2.518170e+003
1.517194e+003, 2.508306e+003
1.519122e+003, 2.492080e+003
1.521051e+003, 2.473140e+003
1.522979e+003, 2.448461e+003
1.524908e+003, 2.433620e+003
1.526836e+003, 2.435107e+003
1.528765e+003, 2.421741e+003
1.530693e+003, 2.393579e+003
1.532622e+003, 2.378334e+003
1.534550e+003, 2.371298e+003
1.536479e+003, 2.358924e+003
1.538407e+003, 2.344707e+003
1.540336e+003, 2.333380e+003
1.542264e+003, 2.319747e+003
1.544193e+003, 2.296941e+003
1.546121e+003, 2.279027e+003
1.548049e+003, 2.269630e+003
1.549978e+003, 2.260513e+003
1.551906e+003, 2.251521e+003
1.553835e+003, 2.245731e+003
1.555763e+003, 2.240094e+003
1.557692e+003, 2.224933e+003
1.559620e+003, 2.209467e+003
1.561549e+003, 2.202432e+003
1.563477e+003, 2.195439e+003
1.565406e+003, 2.183915e+003
1.567334e+003, 2.174897e+003
1.569263e+003, 2.170372e+003
1.571191e+003, 2.160070e+003
1.573120e+003, 2.145689e+003
1.575048e+003, 2.139919e+003
1.576976e+003, 2.136515e+003
1.578905e+003, 2.124655e+003
1.580833e+003, 2.113265e+003
1.582762e+003, 2.109122e+003
1.584690e+003, 2.100576e+003
1.586619e+003, 2.082748e+003
1.588547e+003, 2.076159e+003
1.590476e+003, 2.081815e+003
1.592404e+003, 2.077356e+003
1.594333e+003, 2.066848e+003
1.596261e+003, 2.058213e+003
1.598190e+003, 2.050980e+003
1.600118e+003, 2.044977e+003
1.602047e+003, 2.040215e+003
1.603975e+003, 2.037115e+003
1.605903e+003, 2.033475e+003
1.607832e+003, 2.029063e+003
1.609760e+003, 2.024015e+003
1.611689e+003, 2.019050e+003
1.613617e+003, 2.017230e+003
1.615546e+003, 2.014881e+003
1.617474e+003, 2.006490e+003
1.619403e+003, 1.998711e+003
1.621331e+003, 1.994155e+003
1.623260e+003, 1.990587e+003
1.625188e+003, 1.987785e+003
1.627117e+003, 1.987871e+003
1.629045e+003, 1.988755e+003
1.630974e+003, 1.982428e+003
1.632902e+003, 1.975147e+003
1.634830e+003, 1.975068e+003
1.636759e+003, 1.973896e+003
1.638687e+003, 1.966118e+003
1.640616e+003, 1.960481e+003
1.642544e+003, 1.957706e+003
1.644473e+003, 1.956781e+003
1.646401e+003, 1.956505e+003
1.648330e+003, 1.952199e+003
1.650258e+003, 1.947846e+003
1.652187e+003, 1.948565e+003
1.654115e+003, 1.947846e+003
1.656044e+003, 1.941123e+003
1.657972e+003, 1.939853e+003
1.659901e+003, 1.945573e+003
1.661829e+003, 1.941490e+003
1.663757e+003, 1.930966e+003
1.665686e+003, 1.920996e+003
1.667614e+003, 1.911534e+003
1.669543e+003, 1.902243e+003
1.671471e+003, 1.893768e+003
1.673400e+003, 1.886220e+003
1.675328e+003, 1.880665e+003
1.677257e+003, 1.876748e+003
1.679185e+003, 1.869665e+003
1.681114e+003, 1.859572e+003
1.683042e+003, 1.840751e+003
1.684971e+003, 1.829682e+003
1.686899e+003, 1.838511e+003
1.688828e+003, 1.840545e+003
1.690756e+003, 1.830395e+003
1.692684e+003, 1.818670e+003
1.694613e+003, 1.807857e+003
1.696541e+003, 1.804632e+003
1.698470e+003, 1.804742e+003
1.700398e+003, 1.806800e+003
1.702327e+003, 1.804226e+003
1.704255e+003, 1.794243e+003
1.706184e+003, 1.784490e+003
1.708112e+003, 1.776103e+003
1.710041e+003, 1.773564e+003
1.711969e+003, 1.772187e+003
1.713898e+003, 1.763941e+003
1.715826e+003, 1.754013e+003
1.717755e+003, 1.746166e+003
1.719683e+003, 1.735209e+003
1.721611e+003, 1.720379e+003
1.723540e+003, 1.713156e+003
1.725468e+003, 1.710384e+003
1.727397e+003, 1.702355e+003
1.729325e+003, 1.693451e+003
1.731254e+003, 1.688238e+003
1.733182e+003, 1.681760e+003
1.735111e+003, 1.673047e+003
1.737039e+003, 1.660515e+003
1.738968e+003, 1.645602e+003
1.740896e+003, 1.636449e+003
1.742825e+003, 1.630076e+003
1.744753e+003, 1.622447e+003
1.746682e+003, 1.618100e+003
1.748610e+003, 1.621999e+003
1.750538e+003, 1.619031e+003
1.752467e+003, 1.609032e+003
1.754395e+003, 1.598850e+003
1.756324e+003, 1.588839e+003
1.758252e+003, 1.579197e+003
1.760181e+003, 1.570501e+003
1.762109e+003, 1.562740e+003
1.764038e+003, 1.557751e+003
1.765966e+003, 1.555554e+003
1.767895e+003, 1.550335e+003
1.769823e+003, 1.542317e+003
1.771752e+003, 1.529145e+003
1.773680e+003, 1.518776e+003
1.775609e+003, 1.516077e+003
1.777537e+003, 1.509748e+003
1.779465e+003, 1.498553e+003
1.781394e+003, 1.493303e+003
1.783322e+003, 1.489792e+003
1.785251e+003, 1.477830e+003
1.787179e+003, 1.467739e+003
1.789108e+003, 1.465529e+003
1.791036e+003, 1.458342e+003
1.792965e+003, 1.445305e+003
1.794893e+003, 1.441498e+003
1.796822e+003, 1.441104e+003
1.798750e+003, 1.432709e+003
1.800679e+003, 1.425797e+003
1.802607e+003, 1.427985e+003
1.804536e+003, 1.421644e+003
1.806464e+003, 1.406773e+003
1.808392e+003, 1.398941e+003
1.810321e+003, 1.395632e+003
1.812249e+003, 1.394969e+003
1.814178e+003, 1.392005e+003
1.816106e+003, 1.382730e+003
1.818035e+003, 1.375500e+003
1.819963e+003, 1.370267e+003
1.821892e+003, 1.362333e+003
1.823820e+003, 1.354382e+003
1.825749e+003, 1.349955e+003
1.827677e+003, 1.346178e+003
1.829606e+003, 1.342571e+003
1.831534e+003, 1.336357e+003
1.833463e+003, 1.328678e+003
1.835391e+003, 1.328811e+003
1.837319e+003, 1.329452e+003
1.839248e+003, 1.323943e+003
1.841176e+003, 1.317729e+003
1.843105e+003, 1.312128e+003
1.845033e+003, 1.307980e+003
1.846962e+003, 1.305157e+003
1.848890e+003, 1.303943e+003
1.850819e+003, 1.302400e+003
1.852747e+003, 1.299238e+003
1.854676e+003, 1.295584e+003
1.856604e+003, 1.291587e+003
1.858533e+003, 1.286351e+003
1.860461e+003, 1.281459e+003
1.862390e+003, 1.280832e+003
1.864318e+003, 1.279302e+003
1.866246e+003, 1.274435e+003
1.868175e+003, 1.273249e+003
1.870103e+003, 1.275130e+003
1.872032e+003, 1.271721e+003
1.873960e+003, 1.267405e+003
1.875889e+003, 1.266785e+003
1.877817e+003, 1.266906e+003
1.879746e+003, 1.267266e+003
1.881674e+003, 1.270051e+003
1.883603e+003, 1.273118e+003
1.885531e+003, 1.271053e+003
1.887460e+003, 1.267730e+003
1.889388e+003, 1.264570e+003
1.891317e+003, 1.262553e+003
1.893245e+003, 1.262028e+003
1.895173e+003, 1.266703e+003
1.897102e+003, 1.271160e+003
1.899030e+003, 1.269555e+003
1.900959e+003, 1.265415e+003
1.902887e+003, 1.259688e+003
1.904816e+003, 1.251152e+003
1.906744e+003, 1.245020e+003
1.908673e+003, 1.256490e+003
1.910601e+003, 1.266543e+003
1.912530e+003, 1.261324e+003
1.914458e+003, 1.258325e+003
1.916387e+003, 1.257939e+003
1.918315e+003, 1.253494e+003
1.920244e+003, 1.250222e+003
1.922172e+003, 1.253640e+003
1.924100e+003, 1.259274e+003
1.926029e+003, 1.267550e+003
1.927957e+003, 1.262622e+003
1.929886e+003, 1.251594e+003
1.931814e+003, 1.246296e+003
1.933743e+003, 1.244336e+003
1.935671e+003, 1.245470e+003
1.937600e+003, 1.247094e+003
1.939528e+003, 1.248415e+003
1.941457e+003, 1.246241e+003
1.943385e+003, 1.243855e+003
1.945314e+003, 1.243414e+003
1.947242e+003, 1.242898e+003
1.949171e+003, 1.241852e+003
1.951099e+003, 1.237629e+003
1.953027e+003, 1.234547e+003
1.954956e+003, 1.240019e+003
1.956884e+003, 1.241636e+003
1.958813e+003, 1.236786e+003
1.960741e+003, 1.230241e+003
1.962670e+003, 1.223764e+003
1.964598e+003, 1.219178e+003
1.966527e+003, 1.218383e+003
1.968455e+003, 1.222820e+003
1.970384e+003, 1.213969e+003
1.972312e+003, 1.197243e+003
1.974241e+003, 1.189640e+003
1.976169e+003, 1.184999e+003
1.978098e+003, 1.181249e+003
1.980026e+003, 1.174326e+003
1.981954e+003, 1.164482e+003
1.983883e+003, 1.152265e+003
1.985811e+003, 1.141630e+003
1.987740e+003, 1.136405e+003
1.989668e+003, 1.132005e+003
1.991597e+003, 1.127441e+003
1.993525e+003, 1.120119e+003
1.995454e+003, 1.109739e+003
1.997382e+003, 1.094212e+003
1.999311e+003, 1.079986e+003
2.001239e+003, 1.068103e+003
2.003168e+003, 1.058089e+003
2.005096e+003, 1.049085e+003
2.007025e+003, 1.039239e+003
2.008953e+003, 1.032316e+003
2.010881e+003, 1.030098e+003
2.012810e+003, 1.017412e+003
2.014738e+003, 1.001177e+003
2.016667e+003, 9.919689e+002
2.018595e+003, 9.815645e+002
2.020524e+003, 9.666984e+002
2.022452e+003, 9.589933e+002
2.024381e+003, 9.541359e+002
2.026309e+003, 9.441893e+002
2.028238e+003, 9.333705e+002
2.030166e+003, 9.228908e+002
2.032095e+003, 9.111079e+002
2.034023e+003, 8.990814e+002
2.035952e+003, 8.896965e+002
2.037880e+003, 8.793190e+002
2.039808e+003, 8.665851e+002
2.041737e+003, 8.588307e+002
2.043665e+003, 8.533288e+002
2.045594e+003, 8.433919e+002
2.047522e+003, 8.350983e+002
2.049451e+003, 8.307345e+002
2.051379e+003, 8.175540e+002
2.053308e+003, 7.999678e+002
2.055236e+003, 7.857020e+002
2.057165e+003, 7.776279e+002
2.059093e+003, 7.769143e+002
2.061022e+003, 7.677862e+002
2.062950e+003, 7.547459e+002
2.064879e+003, 7.478609e+002
2.066807e+003, 7.416300e+002
2.068736e+003, 7.343427e+002
2.070664e+003, 7.255616e+002
2.072593e+003, 7.163465e+002
2.074521e+003, 7.082865e+002
2.076449e+003, 7.010742e+002
2.078378e+003, 6.947633e+002
2.080306e+003, 6.874236e+002
2.082235e+003, 6.802296e+002
2.084163e+003, 6.763813e+002
2.086092e+003, 6.692753e+002
2.088020e+003, 6.566409e+002
2.089949e+003, 6.482430e+002
2.091877e+003, 6.414430e+002
2.093806e+003, 6.329329e+002
2.095734e+003, 6.253150e+002
2.097663e+003, 6.191803e+002
2.099591e+003, 6.137905e+002
2.101520e+003, 6.096400e+002
2.103448e+003, 6.078978e+002
2.105376e+003, 6.033326e+002
2.107305e+003, 5.955023e+002
2.109233e+003, 5.888914e+002
2.111162e+003, 5.834352e+002
2.113090e+003, 5.792415e+002
2.115019e+003, 5.753512e+002
2.116947e+003, 5.711443e+002
2.118876e+003, 5.641937e+002
2.120804e+003, 5.560547e+002
2.122733e+003, 5.469532e+002
2.124661e+003, 5.436720e+002
2.126590e+003, 5.437117e+002
2.128518e+003, 5.395931e+002
2.130447e+003, 5.342280e+002
2.132375e+003, 5.286266e+002
2.134303e+003, 5.250895e+002
2.136232e+003, 5.228123e+002
2.138160e+003, 5.211476e+002
2.140089e+003, 5.179149e+002
2.142017e+003, 5.128240e+002
2.143946e+003, 5.083910e+002
2.145874e+003, 5.045193e+002
2.147803e+003, 5.013565e+002
2.149731e+003, 4.977841e+002
2.151660e+003, 4.937851e+002
2.153588e+003, 4.897548e+002
2.155517e+003, 4.864686e+002
2.157445e+003, 4.857551e+002
2.159374e+003, 4.809579e+002
2.161302e+003, 4.742062e+002
2.163230e+003, 4.729361e+002
2.165159e+003, 4.711435e+002
2.167087e+003, 4.661607e+002
2.169016e+003, 4.605231e+002
2.170944e+003, 4.554226e+002
2.172873e+003, 4.518488e+002
2.174801e+003, 4.512544e+002
2.176730e+003, 4.535289e+002
2.178658e+003, 4.505718e+002
2.180587e+003, 4.468231e+002
2.182515e+003, 4.456144e+002
2.184444e+003, 4.451025e+002
2.186372e+003, 4.441298e+002
2.188301e+003, 4.382317e+002
2.190229e+003, 4.332162e+002
2.192157e+003, 4.314474e+002
2.194086e+003, 4.286402e+002
2.196014e+003, 4.257134e+002
2.197943e+003, 4.246849e+002
2.199871e+003, 4.235719e+002
2.201800e+003, 4.217577e+002
2.203728e+003, 4.164730e+002
2.205657e+003, 4.125125e+002
2.207585e+003, 4.134994e+002
2.209514e+003, 4.133503e+002
2.211442e+003, 4.117411e+002
2.213371e+003, 4.092101e+002
2.215299e+003, 4.066308e+002
2.217228e+003, 4.042097e+002
2.219156e+003, 3.991948e+002
2.221084e+003, 3.950070e+002
2.223013e+003, 3.970005e+002
2.224941e+003, 3.968928e+002
2.226870e+003, 3.946245e+002
2.228798e+003, 3.933372e+002
2.230727e+003, 3.913199e+002
2.232655e+003, 3.875064e+002
2.234584e+003, 3.841437e+002
2.236512e+003, 3.815815e+002
2.238441e+003, 3.803980e+002
2.240369e+003, 3.791789e+002
2.242298e+003, 3.777681e+002
2.244226e+003, 3.775250e+002
2.246155e+003, 3.770683e+002
2.248083e+003, 3.753257e+002
2.250011e+003, 3.751470e+002
2.251940e+003, 3.749395e+002
2.253868e+003, 3.715322e+002
2.255797e+003, 3.687625e+002
2.257725e+003, 3.673349e+002
2.259654e+003, 3.655281e+002
2.261582e+003, 3.642148e+002
2.263511e+003, 3.640829e+002
2.265439e+003, 3.617018e+002
2.267368e+003, 3.595077e+002
2.269296e+003, 3.645095e+002
2.271225e+003, 3.636962e+002
2.273153e+003, 3.554935e+002
2.275082e+003, 3.519643e+002
2.277010e+003, 3.500745e+002
2.278938e+003, 3.479209e+002
2.280867e+003, 3.491044e+002
2.282795e+003, 3.508557e+002
2.284724e+003, 3.471614e+002
2.286652e+003, 3.460983e+002
2.288581e+003, 3.476729e+002
2.290509e+003, 3.447545e+002
2.292438e+003, 3.400979e+002
2.294366e+003, 3.349019e+002
2.296295e+003, 3.323802e+002
2.298223e+003, 3.327531e+002
2.300152e+003, 3.387366e+002
2.302080e+003, 3.395487e+002
2.304009e+003, 3.356334e+002
2.305937e+003, 3.325264e+002
2.307865e+003, 3.309247e+002
2.309794e+003, 3.311419e+002
2.311722e+003, 3.314660e+002
2.313651e+003, 3.308152e+002
2.315579e+003, 3.279811e+002
2.317508e+003, 3.232222e+002
2.319436e+003, 3.188834e+002
2.321365e+003, 3.216087e+002
2.323293e+003, 3.229427e+002
2.325222e+003, 3.209744e+002
2.327150e+003, 3.219763e+002
2.329079e+003, 3.213983e+002
2.331007e+003, 3.156166e+002
2.332936e+003, 3.152968e+002
2.334864e+003, 3.169850e+002
2.336792e+003, 3.156006e+002
2.338721e+003, 3.143243e+002
2.340649e+003, 3.131456e+002
2.342578e+003, 3.089280e+002
2.344506e+003, 3.062896e+002
2.346435e+003, 3.065878e+002
2.348363e+003, 3.057964e+002
2.350292e+003, 3.039494e+002
2.352220e+003, 3.010484e+002
2.354149e+003, 2.994109e+002
2.356077e+003, 2.986664e+002
2.358006e+003, 2.983434e+002
2.359934e+003, 2.972216e+002
2.361863e+003, 2.957108e+002
2.363791e+003, 2.962740e+002
2.365719e+003, 2.966267e+002
2.367648e+003, 2.960436e+002
2.369576e+003, 2.955305e+002
2.371505e+003, 2.946501e+002
2.373433e+003, 2.928327e+002
2.375362e+003, 2.921980e+002
2.377290e+003, 2.919007e+002
2.379219e+003, 2.908510e+002
2.381147e+003, 2.879999e+002
2.383076e+003, 2.849189e+002
2.385004e+003, 2.873270e+002
2.386933e+003, 2.888758e+002
2.388861e+003, 2.878445e+002
2.390790e+003, 2.860410e+002
2.392718e+003, 2.835538e+002
2.394646e+003, 2.794910e+002
2.396575e+003, 2.801824e+002
2.398503e+003, 2.817464e+002
2.400432e+003, 2.801796e+002
2.402360e+003, 2.790320e+002
2.404289e+003, 2.781791e+002
2.406217e+003, 2.767557e+002
2.408146e+003, 2.746668e+002
2.410074e+003, 2.719273e+002
2.412003e+003, 2.678803e+002
2.413931e+003, 2.654150e+002
2.415860e+003, 2.654570e+002
2.417788e+003, 2.644701e+002
2.419717e+003, 2.634931e+002
2.421645e+003, 2.630881e+002
2.423573e+003, 2.628535e+002
2.425502e+003, 2.623972e+002
2.427430e+003, 2.612299e+002
2.429359e+003, 2.613415e+002
2.431287e+003, 2.616807e+002
2.433216e+003, 2.596357e+002
2.435144e+003, 2.579941e+002
2.437073e+003, 2.567478e+002
2.439001e+003, 2.540023e+002
2.440930e+003, 2.524992e+002
2.442858e+003, 2.527258e+002
2.444787e+003, 2.549059e+002
2.446715e+003, 2.540057e+002
2.448644e+003, 2.481839e+002
2.450572e+003, 2.465048e+002
2.452500e+003, 2.464573e+002
2.454429e+003, 2.468533e+002
2.456357e+003, 2.427380e+002
2.458286e+003, 2.389132e+002
2.460214e+003, 2.424219e+002
2.462143e+003, 2.422814e+002
2.464071e+003, 2.394975e+002
2.466000e+003, 2.365128e+002
2.467928e+003, 2.339301e+002
2.469857e+003, 2.322491e+002
2.471785e+003, 2.330577e+002
2.473714e+003, 2.339480e+002
2.475642e+003, 2.341605e+002
2.477571e+003, 2.323024e+002
2.479499e+003, 2.298392e+002
2.481427e+003, 2.273669e+002
2.483356e+003, 2.274377e+002
2.485284e+003, 2.266820e+002
2.487213e+003, 2.237020e+002
2.489141e+003, 2.244581e+002
2.491070e+003, 2.243362e+002
2.492998e+003, 2.206384e+002
2.494927e+003, 2.203701e+002
2.496855e+003, 2.200848e+002
2.498784e+003, 2.164796e+002
2.500712e+003, 2.143920e+002
2.502641e+003, 2.136705e+002
2.504569e+003, 2.141454e+002
2.506498e+003, 2.131563e+002
2.508426e+003, 2.118987e+002
2.510354e+003, 2.133916e+002
2.512283e+003, 2.131784e+002
2.514211e+003, 2.116969e+002
2.516140e+003, 2.113126e+002
2.518068e+003, 2.093825e+002
2.519997e+003, 2.068347e+002
2.521925e+003, 2.076806e+002
2.523854e+003, 2.078112e+002
2.525782e+003, 2.069180e+002
2.527711e+003, 2.080267e+002
2.529639e+003, 2.060837e+002
2.531568e+003, 2.011354e+002
2.533496e+003, 2.027139e+002
2.535425e+003, 2.043134e+002
2.537353e+003, 2.038350e+002
2.539281e+003, 2.006714e+002
2.541210e+003, 1.991722e+002
2.543138e+003, 2.010511e+002
2.545067e+003, 2.017663e+002
2.546995e+003, 2.012410e+002
2.548924e+003, 1.993331e+002
2.550852e+003, 1.967759e+002
2.552781e+003, 1.950979e+002
2.554709e+003, 1.951025e+002
2.556638e+003, 1.953405e+002
2.558566e+003, 1.961548e+002
2.560495e+003, 1.976740e+002
2.562423e+003, 1.958435e+002
2.564352e+003, 1.931856e+002
2.566280e+003, 1.914166e+002
2.568208e+003, 1.919479e+002
2.570137e+003, 1.918534e+002
2.572065e+003, 1.890568e+002
2.573994e+003, 1.874756e+002
2.575922e+003, 1.869641e+002
2.577851e+003, 1.873600e+002
2.579779e+003, 1.865739e+002
2.581708e+003, 1.857835e+002
2.583636e+003, 1.864947e+002
2.585565e+003, 1.820221e+002
2.587493e+003, 1.783303e+002
2.589422e+003, 1.825340e+002
2.591350e+003, 1.820312e+002
2.593279e+003, 1.792812e+002
2.595207e+003, 1.763061e+002
2.597135e+003, 1.761100e+002
2.599064e+003, 1.767310e+002
2.600992e+003, 1.759490e+002
2.602921e+003, 1.762265e+002
2.604849e+003, 1.769112e+002
2.606778e+003, 1.778473e+002
2.608706e+003, 1.745581e+002
2.610635e+003, 1.707870e+002
2.612563e+003, 1.698399e+002
2.614492e+003, 1.698409e+002
2.616420e+003, 1.701201e+002
2.618349e+003, 1.703176e+002
2.620277e+003, 1.690346e+002
2.622206e+003, 1.670870e+002
2.624134e+003, 1.650778e+002
2.626063e+003, 1.666377e+002
2.627991e+003, 1.669148e+002
2.629919e+003, 1.629682e+002
2.631848e+003, 1.614310e+002
2.633776e+003, 1.615001e+002
2.635705e+003, 1.623413e+002
2.637633e+003, 1.633191e+002
2.639562e+003, 1.627487e+002
2.641490e+003, 1.602137e+002
2.643419e+003, 1.618250e+002
2.645347e+003, 1.620693e+002
2.647276e+003, 1.588828e+002
2.649204e+003, 1.574367e+002
2.651133e+003, 1.578409e+002
2.653061e+003, 1.594489e+002
2.654990e+003, 1.576740e+002
2.656918e+003, 1.560829e+002
2.658846e+003, 1.557133e+002
2.660775e+003, 1.556028e+002
2.662703e+003, 1.543571e+002
2.664632e+003, 1.522608e+002
2.666560e+003, 1.530601e+002
2.668489e+003, 1.514609e+002
2.670417e+003, 1.478641e+002
2.672346e+003, 1.473590e+002
2.674274e+003, 1.482146e+002
2.676203e+003, 1.488983e+002
2.678131e+003, 1.463874e+002
2.680060e+003, 1.450395e+002
2.681988e+003, 1.454223e+002
2.683917e+003, 1.482108e+002
2.685845e+003, 1.458364e+002
2.687773e+003, 1.421954e+002
2.689702e+003, 1.431066e+002
2.691630e+003, 1.424654e+002
2.693559e+003, 1.417681e+002
2.695487e+003, 1.429748e+002
2.697416e+003, 1.406965e+002
2.699344e+003, 1.374016e+002
2.701273e+003, 1.350891e+002
2.703201e+003, 1.372000e+002
2.705130e+003, 1.383233e+002
2.707058e+003, 1.363889e+002
2.708987e+003, 1.376748e+002
2.710915e+003, 1.372361e+002
2.712844e+003, 1.346100e+002
2.714772e+003, 1.376512e+002
2.716700e+003, 1.378778e+002
2.718629e+003, 1.345967e+002
2.720557e+003, 1.323624e+002
2.722486e+003, 1.303062e+002
2.724414e+003, 1.288145e+002
2.726343e+003, 1.295208e+002
2.728271e+003, 1.285359e+002
2.730200e+003, 1.267484e+002
2.732128e+003, 1.257489e+002
2.734057e+003, 1.264231e+002
2.735985e+003, 1.259979e+002
2.737914e+003, 1.212685e+002
2.739842e+003, 1.201124e+002
2.741771e+003, 1.214453e+002
2.743699e+003, 1.245017e+002
2.745627e+003, 1.216162e+002
2.747556e+003, 1.192408e+002
2.749484e+003, 1.194263e+002
2.751413e+003, 1.194344e+002
2.753341e+003, 1.201081e+002
2.755270e+003, 1.208179e+002
2.757198e+003, 1.188896e+002
2.759127e+003, 1.188308e+002
2.761055e+003, 1.189050e+002
2.762984e+003, 1.153123e+002
2.764912e+003, 1.149315e+002
2.766841e+003, 1.163947e+002
2.768769e+003, 1.181217e+002
2.770698e+003, 1.165667e+002
2.772626e+003, 1.148921e+002
2.774554e+003, 1.144119e+002
2.776483e+003, 1.123563e+002
2.778411e+003, 1.105720e+002
2.780340e+003, 1.101074e+002
2.782268e+003, 1.137963e+002
2.784197e+003, 1.125260e+002
2.786125e+003, 1.085398e+002
2.788054e+003, 1.085080e+002
2.789982e+003, 1.090089e+002
2.791911e+003, 1.092022e+002
2.793839e+003, 1.083123e+002
2.795768e+003, 1.079665e+002
2.797696e+003, 1.078111e+002
2.799625e+003, 1.076337e+002
2.801553e+003, 1.065893e+002
2.803481e+003, 1.055935e+002
2.805410e+003, 1.048735e+002
2.807338e+003, 1.042191e+002
2.809267e+003, 1.038003e+002
2.811195e+003, 1.036799e+002
2.813124e+003, 1.039345e+002
2.815052e+003, 1.042026e+002
2.816981e+003, 1.042424e+002
2.818909e+003, 1.038815e+002
2.820838e+003, 1.012663e+002
2.822766e+003, 1.004159e+002
2.824695e+003, 1.020919e+002
2.826623e+003, 1.024513e+002
2.828552e+003, 1.014001e+002
2.830480e+003, 1.001704e+002
2.832408e+003, 1.014005e+002
2.834337e+003, 1.015167e+002
2.836265e+003, 1.005901e+002
2.838194e+003, 9.893554e+001
2.840122e+003, 9.781156e+001
2.842051e+003, 9.752775e+001
2.843979e+003, 9.770739e+001
2.845908e+003, 9.604860e+001
2.847836e+003, 9.526783e+001
2.849765e+003, 9.585043e+001
2.851693e+003, 9.887185e+001
2.853622e+003, 9.537391e+001
2.855550e+003, 9.111774e+001
2.857479e+003, 9.169761e+001
2.859407e+003, 9.396992e+001
2.861335e+003, 9.436109e+001
2.863264e+003, 9.214118e+001
2.865192e+003, 8.984895e+001
2.867121e+003, 8.941315e+001
2.869049e+003, 8.966905e+001
2.870978e+003, 8.862943e+001
2.872906e+003, 8.878189e+001
2.874835e+003, 8.839967e+001
2.876763e+003, 8.657493e+001
2.878692e+003, 8.753831e+001
2.880620e+003, 8.822600e+001
2.882549e+003, 8.800918e+001
2.884477e+003, 8.791844e+001
2.886406e+003, 8.598261e+001
2.888334e+003, 8.435799e+001
2.890262e+003, 8.506401e+001
2.892191e+003, 8.458025e+001
2.894119e+003, 8.384095e+001
2.896048e+003, 8.337580e+001
2.897976e+003, 8.337792e+001
2.899905e+003, 8.372472e+001
2.901833e+003, 8.381448e+001
2.903762e+003, 8.285616e+001
2.905690e+003, 8.137912e+001
2.907619e+003, 7.979582e+001
2.909547e+003, 7.856123e+001
2.911476e+003, 8.012676e+001
2.913404e+003, 7.994655e+001
2.915333e+003, 7.815745e+001
2.917261e+003, 7.633824e+001
2.919189e+003, 7.636539e+001
2.921118e+003, 7.671017e+001
2.923046e+003, 7.634567e+001
2.924975e+003, 7.742033e+001
2.926903e+003, 7.719431e+001
2.928832e+003, 7.568102e+001
2.930760e+003, 7.410374e+001
2.932689e+003, 7.406072e+001
2.934617e+003, 7.489633e+001
2.936546e+003, 7.589238e+001
2.938474e+003, 7.526237e+001
2.940403e+003, 7.339106e+001
2.942331e+003, 7.161904e+001
2.944260e+003, 7.262532e+001
2.946188e+003, 7.240993e+001
2.948116e+003, 7.176140e+001
2.950045e+003, 7.155139e+001
2.951973e+003, 7.309310e+001
2.953902e+003, 7.228495e+001
2.955830e+003, 6.978078e+001
2.957759e+003, 6.854797e+001
2.959687e+003, 7.038489e+001
2.961616e+003, 7.269340e+001
2.963544e+003, 7.352367e+001
2.965473e+003, 7.016777e+001
2.967401e+003, 6.875956e+001
2.969330e+003, 6.896689e+001
2.971258e+003, 6.805991e+001
2.973187e+003, 6.672974e+001
2.975115e+003, 6.539885e+001
2.977043e+003, 6.456517e+001
2.978972e+003, 6.656490e+001
2.980900e+003, 6.743970e+001
2.982829e+003, 6.735181e+001
2.984757e+003, 6.735683e+001
2.986686e+003, 6.644987e+001
2.988614e+003, 6.550475e+001
2.990543e+003, 6.496437e+001
2.992471e+003, 6.488530e+001
2.994400e+003, 6.690265e+001
2.996328e+003, 6.833068e+001
2.998257e+003, 6.728253e+001
3.000185e+003, 6.724498e+001
3.002114e+003, 6.565059e+001
3.004042e+003, 6.341715e+001
3.005970e+003, 6.362399e+001
3.007899e+003, 6.271688e+001
3.009827e+003, 6.408302e+001
3.011756e+003, 6.747419e+001
3.013684e+003, 6.354414e+001
3.015613e+003, 6.115241e+001
3.017541e+003, 6.109073e+001
3.019470e+003, 6.247942e+001
3.021398e+003, 6.553992e+001
3.023327e+003, 6.645026e+001
3.025255e+003, 6.510578e+001
3.027184e+003, 6.319565e+001
3.029112e+003, 6.339492e+001
3.031041e+003, 6.427650e+001
3.032969e+003, 6.472208e+001
3.034897e+003, 6.351048e+001
3.036826e+003, 6.262232e+001
3.038754e+003, 6.242661e+001
3.040683e+003, 6.293812e+001
3.042611e+003, 6.343697e+001
3.044540e+003, 6.344621e+001
3.046468e+003, 6.301457e+001
3.048397e+003, 6.255278e+001
3.050325e+003, 6.040094e+001
3.052254e+003, 5.930380e+001
3.054182e+003, 6.034197e+001
3.056111e+003, 6.258862e+001
3.058039e+003, 6.064293e+001
3.059968e+003, 5.951907e+001
3.061896e+003, 6.263478e+001
3.063824e+003, 6.336024e+001
3.065753e+003, 6.159411e+001
3.067681e+003, 5.970572e+001
3.069610e+003, 6.057581e+001
3.071538e+003, 6.205126e+001
3.073467e+003, 6.363023e+001
3.075395e+003, 6.459416e+001
3.077324e+003, 6.382153e+001
3.079252e+003, 6.104700e+001
3.081181e+003, 5.973459e+001
3.083109e+003, 6.070758e+001
3.085038e+003, 6.057021e+001
3.086966e+003, 6.053575e+001
3.088895e+003, 5.995095e+001
3.090823e+003, 5.846874e+001
3.092751e+003, 6.019968e+001
3.094680e+003, 6.100992e+001
3.096608e+003, 6.108299e+001
3.098537e+003, 6.143307e+001
3.100465e+003, 6.213753e+001
3.102394e+003, 6.142010e+001
3.104322e+003, 6.081539e+001
3.106251e+003, 6.294695e+001
3.108179e+003, 6.139761e+001
3.110108e+003, 5.937312e+001
3.112036e+003, 5.856138e+001
3.113965e+003, 5.960991e+001
3.115893e+003, 6.054639e+001
3.117822e+003, 6.085999e+001
3.119750e+003, 6.090775e+001
3.121678e+003, 6.234982e+001
3.123607e+003, 6.160524e+001
3.125535e+003, 6.186353e+001
3.127464e+003, 6.355811e+001
3.129392e+003, 6.169509e+001
3.131321e+003, 6.062079e+001
3.133249e+003, 6.236739e+001
3.135178e+003, 6.609095e+001
3.137106e+003, 6.247889e+001
3.139035e+003, 6.252562e+001
3.140963e+003, 6.312197e+001
3.142892e+003, 6.099456e+001
3.144820e+003, 6.054680e+001
3.146749e+003, 6.349360e+001
3.148677e+003, 6.524572e+001
3.150605e+003, 6.210007e+001
3.152534e+003, 6.316479e+001
3.154462e+003, 6.251385e+001
3.156391e+003, 6.162780e+001
3.158319e+003, 6.263087e+001
3.160248e+003, 6.007331e+001
3.162176e+003, 6.213538e+001
3.164105e+003, 6.508659e+001
3.166033e+003, 6.418087e+001
3.167962e+003, 6.432400e+001
3.169890e+003, 6.461909e+001
3.171819e+003, 6.527800e+001
3.173747e+003, 6.629933e+001
3.175676e+003, 6.265423e+001
3.177604e+003, 6.221816e+001
3.179532e+003, 6.278993e+001
3.181461e+003, 6.057773e+001
3.183389e+003, 5.946712e+001
3.185318e+003, 5.865319e+001
3.187246e+003, 5.978811e+001
3.189175e+003, 6.394075e+001
3.191103e+003, 5.977232e+001
3.193032e+003, 5.909464e+001
3.194960e+003, 6.012262e+001
3.196889e+003, 5.888203e+001
3.198817e+003, 5.846320e+001
3.200746e+003, 5.721341e+001
3.202674e+003, 5.614544e+001
3.204603e+003, 5.645176e+001
3.206531e+003, 5.956469e+001
3.208459e+003, 5.825632e+001
3.210388e+003, 5.646949e+001
3.212316e+003, 5.769765e+001
3.214245e+003, 5.950016e+001
3.216173e+003, 5.984805e+001
3.218102e+003, 5.887270e+001
3.220030e+003, 5.747343e+001
3.221959e+003, 5.854949e+001
3.223887e+003, 5.737844e+001
3.225816e+003, 5.787588e+001
3.227744e+003, 6.029396e+001
3.229673e+003, 5.768111e+001
3.231601e+003, 5.762447e+001
3.233530e+003, 5.917408e+001
3.235458e+003, 6.036154e+001
3.237386e+003, 5.835349e+001
3.239315e+003, 5.649383e+001
3.241243e+003, 5.709092e+001
3.243172e+003, 5.920585e+001
3.245100e+003, 6.040864e+001
3.247029e+003, 6.059237e+001
3.248957e+003, 6.141324e+001
3.250886e+003, 6.150405e+001
3.252814e+003, 5.872022e+001
3.254743e+003, 5.968230e+001
3.256671e+003, 6.034998e+001
3.258600e+003, 5.987706e+001
3.260528e+003, 5.873090e+001
3.262457e+003, 6.047834e+001
3.264385e+003, 5.994801e+001
3.266313e+003, 5.882070e+001
3.268242e+003, 5.880592e+001
3.270170e+003, 6.058704e+001
3.272099e+003, 6.167342e+001
3.274027e+003, 6.410960e+001
3.275956e+003, 6.655726e+001
3.277884e+003, 6.496066e+001
3.279813e+003, 6.896315e+001
3.281741e+003, 6.926534e+001
3.283670e+003, 6.755156e+001
3.285598e+003, 6.898727e+001
3.287527e+003, 7.054386e+001
3.289455e+003, 7.215319e+001
3.291384e+003, 7.303533e+001
3.293312e+003, 7.346523e+001
3.295240e+003, 7.718841e+001
3.297169e+003, 8.076564e+001
3.299097e+003, 8.147313e+001
3.301026e+003, 8.043062e+001
3.302954e+003, 8.296114e+001
3.304883e+003, 7.948675e+001
3.306811e+003, 8.160309e+001
3.308740e+003, 8.611436e+001
3.310668e+003, 8.579951e+001
3.312597e+003, 8.591533e+001
3.314525e+003, 8.706905e+001
3.316454e+003, 8.893185e+001
3.318382e+003, 9.003383e+001
3.320311e+003, 8.623068e+001
3.322239e+003, 8.674075e+001
3.324167e+003, 8.737195e+001
3.326096e+003, 8.728043e+001
3.328024e+003, 8.816698e+001
3.329953e+003, 8.587135e+001
3.331881e+003, 8.745178e+001
3.333810e+003, 8.975551e+001
3.335738e+003, 8.988561e+001
3.337667e+003, 9.288765e+001
3.339595e+003, 9.037236e+001
3.341524e+003, 9.051964e+001
3.343452e+003, 9.310049e+001
3.345381e+003, 9.095207e+001
3.347309e+003, 9.055016e+001
3.349238e+003, 9.165511e+001
3.351166e+003, 9.289749e+001
3.353094e+003, 9.333829e+001
3.355023e+003, 9.408601e+001
3.356951e+003, 9.160936e+001
3.358880e+003, 9.079683e+001
3.360808e+003, 9.301888e+001
3.362737e+003, 9.640459e+001
3.364665e+003, 8.938889e+001
3.366594e+003, 8.979295e+001
3.368522e+003, 9.303421e+001
3.370451e+003, 9.326041e+001
3.372379e+003, 9.288844e+001
3.374308e+003, 8.924028e+001
3.376236e+003, 8.881157e+001
3.378165e+003, 9.041458e+001
3.380093e+003, 8.925414e+001
3.382021e+003, 8.732851e+001
3.383950e+003, 8.789241e+001
3.385878e+003, 8.738031e+001
3.387807e+003, 8.541132e+001
3.389735e+003, 8.688979e+001
3.391664e+003, 8.686858e+001
3.393592e+003, 8.464665e+001
3.395521e+003, 8.379713e+001
3.397449e+003, 8.608862e+001
3.399378e+003, 8.350669e+001
3.401306e+003, 8.038878e+001
3.403235e+003, 8.112291e+001
3.405163e+003, 8.320660e+001
3.407092e+003, 8.116875e+001
3.409020e+003, 8.174489e+001
3.410948e+003, 7.777784e+001
3.412877e+003, 7.649392e+001
3.414805e+003, 7.898528e+001
3.416734e+003, 7.720201e+001
3.418662e+003, 7.662399e+001
3.420591e+003, 7.537178e+001
3.422519e+003, 7.471679e+001
3.424448e+003, 7.494598e+001
3.426376e+003, 7.262510e+001
3.428305e+003, 7.577011e+001
3.430233e+003, 7.468244e+001
3.432162e+003, 7.177056e+001
3.434090e+003, 7.145294e+001
3.436019e+003, 6.710140e+001
3.437947e+003, 6.746291e+001
3.439875e+003, 6.787260e+001
3.441804e+003, 6.721635e+001
3.443732e+003, 6.684311e+001
3.445661e+003, 6.855337e+001
3.447589e+003, 6.633440e+001
3.449518e+003, 6.467358e+001
3.451446e+003, 6.454726e+001
##END=



