##NAMES=Birchite
##RRUFFID=R150100
##IDEAL CHEMISTRY=Cd_2_Cu_2_(PO_4_)_2_(SO_4_)·5H_2_O
##LOCALITY=Block 14 Opencut, Broken Hill, New South Wales, Australia
##OWNER=RRUFF
##SOURCE=William W. Pinch
##DESCRIPTION=Sprays and aggregates of light green acicular crystals on quartz and pale pinkish almandine, associated with anglesite, pyromorphite, and libethenite. Authors sample from the type find.
##STATUS=The identification of this mineral has been confirmed by single-crystal X-ray diffraction
##URL=https://www.rruff.net/odr/rruff_sample/R150100
##DIFFRACTION SAMPLE DESCRIPTION=Single crystal, powder profile is calculated
##CELL PARAMETERS=a: 10.4919 b: 20.919 c: 6.1729 alpha: 90 beta: 90 gamma: 90 volume: 1354.8 crystal system: orthorhombic
##FILETYPE=Raman RAW
##RAMAN WAVELENGTH=532

100.3281, 1886.416
102.2566, 2010.743
104.1851, 2095.950
106.1135, 2124.012
108.0420, 2114.190
109.9705, 2117.484
111.8989, 2153.792
113.8274, 2216.024
115.7559, 2288.157
117.6843, 2374.398
119.6128, 2478.905
121.5413, 2615.713
123.4697, 2795.175
125.3982, 2942.103
127.3267, 3048.972
129.2551, 3113.126
131.1836, 3132.626
133.1121, 3060.318
135.0405, 2970.743
136.9690, 2904.909
138.8975, 2872.282
140.8259, 2855.298
142.7544, 2854.600
144.6829, 2870.426
146.6113, 2894.203
148.5398, 2928.089
150.4683, 2970.255
152.3967, 3020.494
154.3252, 3084.895
156.2537, 3152.838
158.1821, 3223.666
160.1106, 3297.359
162.0391, 3372.483
163.9675, 3453.015
165.8960, 3533.438
167.8245, 3603.518
169.7529, 3662.471
171.6814, 3709.477
173.6099, 3740.390
175.5383, 3742.746
177.4668, 3758.691
179.3953, 3782.778
181.3237, 3824.676
183.2522, 3898.309
185.1807, 4046.681
187.1091, 4185.693
189.0376, 4281.426
190.9661, 4334.157
192.8945, 4336.686
194.8230, 4255.455
196.7515, 4120.106
198.6799, 3996.155
200.6084, 3895.307
202.5369, 3802.599
204.4653, 3711.358
206.3938, 3619.394
208.3223, 3533.562
210.2507, 3453.832
212.1792, 3379.894
214.1077, 3319.854
216.0361, 3275.005
217.9646, 3241.848
219.8931, 3220.142
221.8215, 3211.674
223.7500, 3206.355
225.6785, 3203.179
227.6069, 3201.798
229.5354, 3195.996
231.4639, 3177.911
233.3923, 3161.163
235.3208, 3153.143
237.2493, 3153.978
239.1777, 3165.291
241.1062, 3187.782
243.0347, 3222.599
244.9631, 3263.829
246.8916, 3314.675
248.8201, 3370.366
250.7485, 3427.181
252.6770, 3487.187
254.6055, 3545.310
256.5339, 3606.186
258.4624, 3665.840
260.3909, 3709.414
262.3193, 3734.671
264.2478, 3741.667
266.1763, 3728.429
268.1047, 3686.115
270.0332, 3634.253
271.9617, 3566.472
273.8901, 3488.204
275.8186, 3418.560
277.7471, 3360.531
279.6755, 3311.487
281.6040, 3272.409
283.5325, 3244.367
285.4609, 3221.995
287.3894, 3209.933
289.3179, 3205.369
291.2463, 3191.469
293.1748, 3169.325
295.1033, 3137.603
297.0317, 3092.030
298.9602, 3031.965
300.8887, 2967.078
302.8171, 2895.546
304.7456, 2819.841
306.6741, 2751.084
308.6025, 2690.878
310.5310, 2635.164
312.4595, 2581.930
314.3879, 2530.910
316.3164, 2483.466
318.2449, 2438.684
320.1733, 2397.413
322.1018, 2362.131
324.0303, 2334.177
325.9587, 2310.141
327.8872, 2287.949
329.8157, 2266.840
331.7441, 2252.073
333.6726, 2245.954
335.6011, 2245.428
337.5295, 2245.392
339.4580, 2244.405
341.3865, 2246.023
343.3149, 2251.358
345.2434, 2260.822
347.1719, 2270.776
349.1003, 2279.771
351.0288, 2289.681
352.9573, 2302.237
354.8857, 2317.559
356.8142, 2335.381
358.7427, 2355.389
360.6711, 2377.788
362.5996, 2403.400
364.5281, 2433.751
366.4565, 2465.952
368.3850, 2498.509
370.3135, 2531.331
372.2419, 2563.998
374.1704, 2596.091
376.0989, 2627.852
378.0273, 2660.286
379.9558, 2693.876
381.8843, 2727.699
383.8127, 2759.917
385.7412, 2788.833
387.6697, 2825.437
389.5981, 2868.898
391.5266, 2920.008
393.4551, 2979.860
395.3835, 3049.714
397.3120, 3123.318
399.2405, 3199.140
401.1689, 3277.205
403.0974, 3353.073
405.0259, 3430.922
406.9543, 3503.798
408.8828, 3568.291
410.8113, 3626.682
412.7397, 3672.348
414.6682, 3703.639
416.5967, 3722.793
418.5251, 3732.862
420.4536, 3725.530
422.3821, 3718.839
424.3105, 3717.422
426.2390, 3720.478
428.1675, 3732.075
430.0959, 3751.528
432.0244, 3779.453
433.9529, 3819.120
435.8813, 3874.948
437.8098, 3932.101
439.7383, 3991.410
441.6667, 4050.528
443.5952, 4099.264
445.5237, 4121.753
447.4521, 4145.933
449.3806, 4187.520
451.3091, 4249.339
453.2375, 4306.170
455.1660, 4370.919
457.0945, 4421.977
459.0229, 4432.650
460.9514, 4382.624
462.8799, 4308.794
464.8083, 4200.745
466.7368, 4065.918
468.6653, 3945.235
470.5938, 3840.740
472.5222, 3753.510
474.4507, 3684.727
476.3792, 3646.511
478.3076, 3607.387
480.2361, 3573.040
482.1646, 3535.701
484.0930, 3486.845
486.0215, 3425.525
487.9500, 3353.285
489.8784, 3267.670
491.8069, 3168.673
493.7354, 3073.530
495.6638, 2977.445
497.5923, 2888.061
499.5208, 2808.974
501.4492, 2740.003
503.3777, 2679.664
505.3062, 2628.903
507.2346, 2585.787
509.1631, 2548.810
511.0916, 2517.073
513.0200, 2491.902
514.9485, 2476.152
516.8770, 2467.770
518.8054, 2461.937
520.7339, 2456.745
522.6624, 2455.465
524.5908, 2460.363
526.5193, 2472.051
528.4478, 2484.806
530.3762, 2497.418
532.3047, 2510.939
534.2332, 2525.947
536.1616, 2541.074
538.0901, 2560.221
540.0186, 2585.027
541.9470, 2614.601
543.8755, 2644.583
545.8040, 2671.148
547.7324, 2705.572
549.6609, 2752.027
551.5894, 2811.528
553.5178, 2876.941
555.4463, 2960.079
557.3748, 3040.110
559.3032, 3100.516
561.2317, 3141.106
563.1602, 3175.290
565.0886, 3198.331
567.0171, 3218.645
568.9456, 3246.635
570.8740, 3305.615
572.8025, 3345.754
574.7310, 3358.655
576.6594, 3346.976
578.5879, 3320.021
580.5164, 3265.028
582.4448, 3211.907
584.3733, 3169.477
586.3018, 3137.693
588.2302, 3123.163
590.1587, 3125.973
592.0872, 3144.788
594.0156, 3178.863
595.9441, 3227.528
597.8726, 3289.370
599.8010, 3366.597
601.7295, 3455.274
603.6580, 3552.914
605.5864, 3675.938
607.5149, 3785.013
609.4434, 3876.848
611.3718, 3949.578
613.3003, 3998.829
615.2288, 4011.160
617.1572, 4015.300
619.0857, 4012.310
621.0142, 4002.017
622.9426, 4018.727
624.8711, 4061.649
626.7996, 4131.297
628.7280, 4230.418
630.6565, 4359.294
632.5850, 4501.047
634.5134, 4644.728
636.4419, 4804.943
638.3704, 4998.167
640.2988, 5234.879
642.2273, 5478.903
644.1558, 5797.991
646.0842, 6092.681
648.0127, 6244.502
649.9412, 6235.244
651.8696, 6090.726
653.7981, 5765.510
655.7266, 5305.488
657.6550, 4884.075
659.5835, 4494.612
661.5120, 4149.395
663.4404, 3856.105
665.3689, 3610.068
667.2974, 3401.691
669.2258, 3241.886
671.1543, 3109.433
673.0828, 3000.022
675.0112, 2915.718
676.9397, 2845.329
678.8682, 2792.875
680.7966, 2751.358
682.7251, 2715.596
684.6536, 2686.045
686.5820, 2660.902
688.5105, 2641.458
690.4390, 2625.439
692.3674, 2611.251
694.2959, 2599.682
696.2244, 2588.685
698.1528, 2577.718
700.0813, 2567.663
702.0098, 2559.474
703.9382, 2553.374
705.8667, 2549.155
707.7952, 2546.213
709.7236, 2545.002
711.6521, 2547.073
713.5806, 2554.779
715.5090, 2561.258
717.4375, 2562.314
719.3660, 2559.860
721.2944, 2560.060
723.2229, 2565.294
725.1514, 2570.883
727.0798, 2575.846
729.0083, 2580.024
730.9368, 2583.284
732.8652, 2584.853
734.7937, 2586.355
736.7222, 2588.293
738.6506, 2590.708
740.5791, 2594.538
742.5076, 2600.925
744.4360, 2607.942
746.3645, 2615.128
748.2930, 2622.710
750.2214, 2628.702
752.1499, 2632.184
754.0784, 2634.907
756.0068, 2637.827
757.9353, 2640.949
759.8638, 2645.112
761.7922, 2650.746
763.7207, 2657.315
765.6492, 2664.329
767.5776, 2671.387
769.5061, 2679.703
771.4346, 2690.659
773.3630, 2701.510
775.2915, 2709.989
777.2200, 2715.219
779.1484, 2720.483
781.0769, 2726.629
783.0054, 2733.062
784.9338, 2739.165
786.8623, 2745.012
788.7908, 2751.231
790.7192, 2759.516
792.6477, 2767.608
794.5762, 2773.081
796.5046, 2775.187
798.4331, 2776.789
800.3616, 2777.203
802.2900, 2777.951
804.2185, 2781.613
806.1470, 2791.234
808.0754, 2798.032
810.0039, 2797.802
811.9324, 2795.231
813.8608, 2796.164
815.7893, 2801.787
817.7178, 2807.128
819.6462, 2810.137
821.5747, 2812.193
823.5032, 2815.684
825.4316, 2823.858
827.3601, 2828.598
829.2886, 2827.257
831.2170, 2822.836
833.1455, 2819.371
835.0740, 2816.881
837.0024, 2815.785
838.9309, 2816.326
840.8594, 2818.164
842.7878, 2820.901
844.7163, 2826.573
846.6448, 2830.390
848.5732, 2830.859
850.5017, 2829.723
852.4302, 2829.481
854.3586, 2830.356
856.2871, 2831.590
858.2156, 2834.228
860.1440, 2836.732
862.0725, 2836.978
864.0010, 2831.269
865.9294, 2828.571
867.8579, 2831.190
869.7864, 2835.862
871.7148, 2838.460
873.6433, 2838.633
875.5718, 2837.752
877.5002, 2836.328
879.4287, 2833.687
881.3572, 2829.010
883.2856, 2821.321
885.2141, 2814.421
887.1426, 2809.675
889.0710, 2805.613
890.9995, 2800.647
892.9280, 2794.706
894.8564, 2789.857
896.7849, 2786.484
898.7134, 2784.552
900.6418, 2783.848
902.5703, 2784.316
904.4988, 2785.751
906.4272, 2788.463
908.3557, 2791.281
910.2842, 2793.086
912.2126, 2793.183
914.1411, 2794.042
916.0696, 2794.611
917.9980, 2796.677
919.9265, 2800.923
921.8550, 2807.443
923.7834, 2817.350
925.7119, 2828.563
927.6404, 2846.881
929.5688, 2871.671
931.4973, 2903.367
933.4258, 2956.376
935.3542, 3017.456
937.2827, 3110.702
939.2112, 3240.804
941.1396, 3410.444
943.0681, 3629.732
944.9966, 3915.619
946.9250, 4221.696
948.8535, 4554.833
950.7820, 4894.564
952.7104, 5180.969
954.6389, 5405.198
956.5674, 5581.634
958.4958, 5675.265
960.4243, 5732.180
962.3528, 5816.311
964.2813, 5906.964
966.2097, 6091.660
968.1382, 6386.802
970.0667, 6799.049
971.9951, 7333.906
973.9236, 7990.099
975.8521, 8782.971
977.7805, 9749.661
979.7090, 10806.80
981.6375, 11972.95
983.5659, 13308.00
985.4944, 14316.63
987.4229, 15081.31
989.3513, 15401.40
991.2798, 15100.17
993.2083, 14247.52
995.1367, 13139.00
997.0652, 11537.59
998.9937, 10019.81
1000.922, 8761.691
1002.851, 7748.894
1004.779, 6940.149
1006.708, 6377.747
1008.636, 5945.410
1010.564, 5647.674
1012.493, 5468.333
1014.421, 5368.396
1016.350, 5359.908
1018.278, 5386.569
1020.207, 5480.493
1022.135, 5575.184
1024.064, 5613.784
1025.992, 5599.605
1027.921, 5516.505
1029.849, 5330.026
1031.778, 5111.089
1033.706, 4895.116
1035.635, 4681.420
1037.563, 4492.079
1039.491, 4326.624
1041.420, 4187.124
1043.348, 4076.722
1045.277, 3992.522
1047.205, 3932.642
1049.134, 3901.275
1051.062, 3889.069
1052.991, 3894.740
1054.919, 3916.890
1056.848, 3953.386
1058.776, 4008.129
1060.705, 4072.358
1062.633, 4165.026
1064.562, 4254.735
1066.490, 4317.454
1068.418, 4354.812
1070.347, 4351.540
1072.275, 4285.039
1074.204, 4197.270
1076.132, 4105.221
1078.061, 4009.217
1079.989, 3922.223
1081.918, 3847.593
1083.846, 3778.966
1085.775, 3715.989
1087.703, 3658.323
1089.632, 3605.063
1091.560, 3556.159
1093.489, 3511.541
1095.417, 3472.888
1097.345, 3438.016
1099.274, 3403.931
1101.202, 3370.513
1103.131, 3343.208
1105.059, 3320.667
1106.988, 3307.387
1108.916, 3305.541
1110.845, 3314.773
1112.773, 3332.826
1114.702, 3361.800
1116.630, 3395.550
1118.559, 3437.421
1120.487, 3481.646
1122.416, 3521.212
1124.344, 3559.494
1126.272, 3579.573
1128.201, 3573.781
1130.129, 3551.173
1132.058, 3515.891
1133.986, 3467.782
1135.915, 3421.726
1137.843, 3379.592
1139.772, 3339.056
1141.700, 3297.663
1143.629, 3256.957
1145.557, 3223.284
1147.486, 3201.969
1149.414, 3178.896
1151.343, 3150.523
1153.271, 3120.830
1155.199, 3094.336
1157.128, 3071.070
1159.056, 3046.544
1160.985, 3017.758
1162.913, 2990.634
1164.842, 2967.736
1166.770, 2948.901
1168.699, 2932.943
1170.627, 2922.937
1172.556, 2911.248
1174.484, 2893.896
1176.413, 2875.432
1178.341, 2861.509
1180.270, 2852.960
1182.198, 2845.879
1184.126, 2840.500
1186.055, 2835.691
1187.983, 2831.459
1189.912, 2827.317
1191.840, 2821.556
1193.769, 2813.701
1195.697, 2806.022
1197.626, 2799.558
1199.554, 2794.206
1201.483, 2789.634
1203.411, 2785.719
1205.340, 2784.205
1207.268, 2787.856
1209.197, 2790.815
1211.125, 2788.229
1213.053, 2781.203
1214.982, 2779.037
1216.910, 2784.365
1218.839, 2788.413
1220.767, 2789.088
1222.696, 2787.774
1224.624, 2786.218
1226.553, 2784.755
1228.481, 2782.586
1230.410, 2778.820
1232.338, 2776.376
1234.267, 2776.948
1236.195, 2779.759
1238.124, 2782.249
1240.052, 2783.670
1241.980, 2785.568
1243.909, 2788.123
1245.837, 2790.885
1247.766, 2793.457
1249.694, 2795.819
1251.623, 2798.748
1253.551, 2802.239
1255.480, 2806.559
1257.408, 2812.949
1259.337, 2819.742
1261.265, 2823.667
1263.194, 2824.031
1265.122, 2826.025
1267.051, 2831.799
1268.979, 2838.206
1270.907, 2843.808
1272.836, 2848.684
1274.764, 2852.784
1276.693, 2855.115
1278.621, 2858.906
1280.550, 2865.801
1282.478, 2873.615
1284.407, 2880.256
1286.335, 2885.432
1288.264, 2890.429
1290.192, 2895.512
1292.121, 2899.992
1294.049, 2903.363
1295.978, 2906.046
1297.906, 2908.987
1299.834, 2912.406
1301.763, 2914.673
1303.691, 2915.567
1305.620, 2915.202
1307.548, 2912.815
1309.477, 2909.307
1311.405, 2907.377
1313.334, 2907.938
1315.262, 2907.974
1317.191, 2905.766
1319.119, 2903.660
1321.048, 2903.562
1322.976, 2905.579
1324.905, 2906.862
1326.833, 2907.074
1328.761, 2906.651
1330.690, 2905.353
1332.618, 2903.534
1334.547, 2900.822
1336.475, 2896.184
1338.404, 2896.683
1340.332, 2908.531
1342.261, 2918.480
1344.189, 2920.905
1346.118, 2918.708
1348.046, 2916.153
1349.975, 2912.826
1351.903, 2912.239
1353.832, 2916.907
1355.760, 2921.978
1357.688, 2924.134
1359.617, 2924.950
1361.545, 2928.850
1363.474, 2937.529
1365.402, 2943.930
1367.331, 2944.680
1369.259, 2944.669
1371.188, 2946.755
1373.116, 2950.445
1375.045, 2952.725
1376.973, 2952.446
1378.902, 2952.441
1380.830, 2952.859
1382.759, 2953.863
1384.687, 2955.742
1386.615, 2958.513
1388.544, 2961.530
1390.472, 2965.065
1392.401, 2968.417
1394.329, 2971.628
1396.258, 2974.386
1398.186, 2975.573
1400.115, 2975.589
1402.043, 2977.913
1403.972, 2984.231
1405.900, 2989.063
1407.829, 2988.430
1409.757, 2987.187
1411.686, 2990.127
1413.614, 2997.030
1415.542, 3003.235
1417.471, 3008.480
1419.399, 3013.029
1421.328, 3016.153
1423.256, 3018.881
1425.185, 3021.880
1427.113, 3024.812
1429.042, 3028.648
1430.970, 3034.488
1432.899, 3039.630
1434.827, 3045.509
1436.756, 3049.724
1438.684, 3048.860
1440.613, 3042.611
1442.541, 3039.676
1444.469, 3041.085
1446.398, 3044.435
1448.326, 3050.171
1450.255, 3056.566
1452.183, 3061.324
1454.112, 3064.219
1456.040, 3068.413
1457.969, 3075.222
1459.897, 3080.236
1461.826, 3079.453
1463.754, 3078.546
1465.683, 3084.157
1467.611, 3094.920
1469.540, 3102.517
1471.468, 3105.772
1473.396, 3107.978
1475.325, 3109.688
1477.253, 3110.965
1479.182, 3111.062
1481.110, 3110.374
1483.039, 3111.897
1484.967, 3116.490
1486.896, 3121.311
1488.824, 3127.154
1490.753, 3131.731
1492.681, 3132.158
1494.610, 3129.783
1496.538, 3131.962
1498.467, 3141.633
1500.395, 3149.010
1502.323, 3151.050
1504.252, 3152.684
1506.180, 3157.230
1508.109, 3163.336
1510.037, 3166.952
1511.966, 3166.127
1513.894, 3167.333
1515.823, 3171.581
1517.751, 3176.976
1519.680, 3183.161
1521.608, 3189.853
1523.537, 3196.292
1525.465, 3201.976
1527.394, 3209.441
1529.322, 3221.620
1531.250, 3231.542
1533.179, 3235.369
1535.107, 3236.992
1537.036, 3240.721
1538.964, 3246.504
1540.893, 3252.898
1542.821, 3259.913
1544.750, 3267.637
1546.678, 3276.610
1548.607, 3285.800
1550.535, 3293.577
1552.464, 3300.812
1554.392, 3311.692
1556.321, 3328.336
1558.249, 3338.562
1560.177, 3335.247
1562.106, 3330.969
1564.034, 3333.708
1565.963, 3340.298
1567.891, 3345.043
1569.820, 3347.744
1571.748, 3352.490
1573.677, 3360.975
1575.605, 3368.859
1577.534, 3373.774
1579.462, 3376.992
1581.391, 3379.126
1583.319, 3380.296
1585.248, 3383.113
1587.176, 3388.610
1589.104, 3393.917
1591.033, 3400.737
1592.961, 3405.044
1594.890, 3402.625
1596.818, 3395.873
1598.747, 3393.195
1600.675, 3396.512
1602.604, 3396.408
1604.532, 3387.919
1606.461, 3381.667
1608.389, 3382.282
1610.318, 3386.736
1612.246, 3391.669
1614.175, 3397.156
1616.103, 3402.026
1618.031, 3404.000
1619.960, 3407.739
1621.888, 3415.627
1623.817, 3422.259
1625.745, 3422.103
1627.674, 3417.958
1629.602, 3419.314
1631.531, 3431.285
1633.459, 3436.852
1635.388, 3433.116
1637.316, 3428.308
1639.245, 3423.948
1641.173, 3420.693
1643.102, 3419.669
1645.030, 3420.777
1646.958, 3421.037
1648.887, 3419.088
1650.815, 3418.208
1652.744, 3418.748
1654.672, 3419.872
1656.601, 3420.695
1658.529, 3421.917
1660.458, 3425.320
1662.386, 3431.592
1664.315, 3435.635
1666.243, 3435.961
1668.172, 3436.466
1670.100, 3436.668
1672.029, 3438.595
1673.957, 3445.286
1675.885, 3454.894
1677.814, 3461.040
1679.742, 3461.680
1681.671, 3464.192
1683.599, 3469.565
1685.528, 3475.089
1687.456, 3481.352
1689.385, 3486.011
1691.313, 3485.440
1693.242, 3480.629
1695.170, 3479.036
1697.099, 3483.469
1699.027, 3485.066
1700.956, 3481.472
1702.884, 3477.984
1704.813, 3476.539
1706.741, 3476.681
1708.669, 3479.173
1710.598, 3483.810
1712.526, 3483.698
1714.455, 3473.992
1716.383, 3468.794
1718.312, 3471.494
1720.240, 3475.556
1722.169, 3478.994
1724.097, 3481.148
1726.026, 3480.672
1727.954, 3477.311
1729.883, 3474.251
1731.811, 3470.396
1733.740, 3468.444
1735.668, 3472.206
1737.596, 3474.382
1739.525, 3470.948
1741.453, 3465.146
1743.382, 3460.644
1745.310, 3457.655
1747.239, 3458.586
1749.167, 3466.052
1751.096, 3472.659
1753.024, 3475.896
1754.953, 3479.363
1756.881, 3484.968
1758.810, 3490.929
1760.738, 3495.442
1762.667, 3498.551
1764.595, 3499.366
1766.523, 3495.976
1768.452, 3494.531
1770.380, 3497.007
1772.309, 3500.000
1774.237, 3502.590
1776.166, 3504.612
1778.094, 3505.317
1780.023, 3504.789
1781.951, 3505.517
1783.880, 3507.575
1785.808, 3510.453
1787.737, 3515.453
1789.665, 3519.290
1791.594, 3519.387
1793.522, 3519.081
1795.450, 3522.598
1797.379, 3528.602
1799.307, 3530.500
1801.236, 3527.275
1803.164, 3524.335
1805.093, 3522.222
1807.021, 3520.993
1808.950, 3521.000
1810.878, 3522.157
1812.807, 3524.708
1814.735, 3528.373
1816.664, 3532.117
1818.592, 3535.698
1820.521, 3540.341
1822.449, 3545.892
1824.377, 3551.670
1826.306, 3558.291
1828.234, 3563.383
1830.163, 3565.059
1832.091, 3565.054
1834.020, 3565.745
1835.948, 3567.128
1837.877, 3568.114
1839.805, 3568.733
1841.734, 3570.145
1843.662, 3573.359
1845.591, 3575.963
1847.519, 3575.689
1849.448, 3575.278
1851.376, 3577.293
1853.304, 3580.778
1855.233, 3583.999
1857.161, 3587.072
1859.090, 3589.351
1861.018, 3590.185
1862.947, 3593.006
1864.875, 3601.146
1866.804, 3609.007
1868.732, 3611.422
1870.661, 3612.954
1872.589, 3620.733
1874.518, 3632.982
1876.446, 3639.610
1878.375, 3638.611
1880.303, 3636.821
1882.231, 3635.143
1884.160, 3632.095
1886.088, 3626.244
1888.017, 3621.225
1889.945, 3620.937
1891.874, 3623.513
1893.802, 3625.264
1895.731, 3626.427
1897.659, 3627.114
1899.588, 3625.365
1901.516, 3625.969
1903.445, 3629.781
1905.373, 3633.646
1907.302, 3636.741
1909.230, 3639.031
1911.158, 3641.556
1913.087, 3643.308
1915.015, 3640.337
1916.944, 3632.750
1918.872, 3631.434
1920.801, 3638.839
1922.729, 3645.352
1924.658, 3648.663
1926.586, 3650.851
1928.515, 3652.969
1930.443, 3653.878
1932.372, 3651.672
1934.300, 3648.279
1936.229, 3647.714
1938.157, 3649.979
1940.085, 3652.261
1942.014, 3654.436
1943.942, 3656.379
1945.871, 3656.801
1947.799, 3658.655
1949.728, 3665.351
1951.656, 3671.682
1953.585, 3672.554
1955.513, 3670.479
1957.442, 3670.403
1959.370, 3672.479
1961.299, 3675.388
1963.227, 3679.870
1965.156, 3683.859
1967.084, 3686.904
1969.012, 3689.527
1970.941, 3690.695
1972.869, 3691.992
1974.798, 3694.831
1976.726, 3697.911
1978.655, 3699.569
1980.583, 3699.933
1982.512, 3699.292
1984.440, 3697.770
1986.369, 3697.672
1988.297, 3700.787
1990.226, 3702.532
1992.154, 3699.338
1994.083, 3697.559
1996.011, 3701.073
1997.939, 3706.706
1999.868, 3712.110
2001.796, 3716.768
2003.725, 3719.044
2005.653, 3719.102
2007.582, 3721.930
2009.510, 3729.389
2011.439, 3735.732
2013.367, 3738.036
2015.296, 3741.706
2017.224, 3749.925
2019.153, 3757.599
2021.081, 3760.767
2023.010, 3760.978
2024.938, 3760.968
2026.866, 3760.751
2028.795, 3758.516
2030.723, 3753.681
2032.652, 3753.005
2034.580, 3759.517
2036.509, 3764.480
2038.437, 3764.196
2040.366, 3764.627
2042.294, 3767.653
2044.223, 3771.883
2046.151, 3776.679
2048.080, 3781.450
2050.008, 3786.422
2051.937, 3791.116
2053.865, 3791.615
2055.793, 3787.384
2057.722, 3786.175
2059.650, 3790.069
2061.579, 3794.573
2063.507, 3800.979
2065.436, 3804.133
2067.364, 3797.551
2069.293, 3790.636
2071.221, 3793.211
2073.150, 3799.618
2075.078, 3799.029
2077.007, 3792.567
2078.935, 3790.790
2080.864, 3794.788
2082.792, 3797.413
2084.720, 3798.439
2086.649, 3798.340
2088.577, 3796.744
2090.506, 3795.568
2092.434, 3794.833
2094.363, 3795.802
2096.291, 3799.815
2098.220, 3805.039
2100.148, 3808.969
2102.077, 3811.536
2104.005, 3813.783
2105.934, 3815.436
2107.862, 3815.438
2109.791, 3813.274
2111.719, 3810.958
2113.647, 3809.369
2115.576, 3808.160
2117.504, 3809.208
2119.433, 3809.681
2121.361, 3807.969
2123.290, 3805.866
2125.218, 3804.226
2127.147, 3803.243
2129.075, 3803.151
2131.004, 3803.661
2132.932, 3804.529
2134.861, 3805.438
2136.789, 3807.816
2138.718, 3811.925
2140.646, 3816.478
2142.574, 3821.938
2144.503, 3826.996
2146.431, 3830.600
2148.360, 3835.019
2150.288, 3843.850
2152.217, 3852.105
2154.145, 3854.318
2156.074, 3852.555
2158.002, 3849.581
2159.931, 3845.940
2161.859, 3846.199
2163.788, 3850.301
2165.716, 3859.730
2167.645, 3876.194
2169.573, 3890.476
2171.501, 3900.226
2173.430, 3909.524
2175.358, 3923.680
2177.287, 3933.083
2179.215, 3931.313
2181.144, 3924.534
2183.072, 3915.725
2185.001, 3906.384
2186.929, 3899.155
2188.858, 3893.337
2190.786, 3886.413
2192.715, 3878.297
2194.643, 3873.075
2196.572, 3871.837
2198.500, 3867.333
2200.428, 3856.560
2202.357, 3850.901
2204.285, 3856.523
2206.214, 3861.671
2208.142, 3859.366
2210.071, 3857.763
2211.999, 3863.218
2213.928, 3870.165
2215.856, 3872.871
2217.785, 3873.579
2219.713, 3876.685
2221.642, 3881.720
2223.570, 3884.972
2225.499, 3886.414
2227.427, 3888.125
2229.355, 3889.558
2231.284, 3894.359
2233.212, 3904.768
2235.141, 3910.374
2237.069, 3904.143
2238.998, 3900.160
2240.926, 3907.020
2242.855, 3913.440
2244.783, 3912.932
2246.712, 3910.692
2248.640, 3910.752
2250.569, 3912.745
2252.497, 3916.595
2254.426, 3921.631
2256.354, 3925.658
2258.282, 3928.577
2260.211, 3929.685
2262.139, 3928.707
2264.068, 3931.072
2265.996, 3938.175
2267.925, 3943.624
2269.853, 3945.674
2271.782, 3947.121
2273.710, 3950.448
2275.639, 3950.699
2277.567, 3942.531
2279.496, 3935.593
2281.424, 3937.285
2283.353, 3940.466
2285.281, 3938.151
2287.209, 3933.789
2289.138, 3932.302
2291.066, 3932.692
2292.995, 3932.777
2294.923, 3932.812
2296.852, 3933.430
2298.780, 3934.805
2300.709, 3936.818
2302.637, 3940.888
2304.566, 3941.474
2306.494, 3935.054
2308.423, 3932.231
2310.351, 3936.115
2312.280, 3939.583
2314.208, 3941.567
2316.136, 3941.032
2318.065, 3933.722
2319.993, 3928.605
2321.922, 3932.718
2323.850, 3941.110
2325.779, 3949.382
2327.707, 3958.338
2329.636, 3973.329
2331.564, 3988.731
2333.493, 3985.780
2335.421, 3966.913
2337.350, 3950.748
2339.278, 3937.479
2341.207, 3930.094
2343.135, 3929.661
2345.063, 3927.001
2346.992, 3919.842
2348.920, 3916.024
2350.849, 3919.237
2352.777, 3922.134
2354.706, 3923.757
2356.634, 3923.939
2358.563, 3920.089
2360.491, 3917.070
2362.420, 3916.990
2364.348, 3917.972
2366.277, 3918.753
2368.205, 3920.273
2370.134, 3925.301
2372.062, 3930.631
2373.990, 3930.671
2375.919, 3927.817
2377.847, 3927.678
2379.776, 3929.738
2381.704, 3930.275
2383.633, 3929.590
2385.561, 3932.961
2387.490, 3940.484
2389.418, 3946.867
2391.347, 3951.335
2393.275, 3955.690
2395.204, 3959.177
2397.132, 3964.149
2399.061, 3972.413
2400.989, 3979.144
2402.917, 3982.764
2404.846, 3986.097
2406.774, 3990.980
2408.703, 3994.512
2410.631, 3994.591
2412.560, 3994.788
2414.488, 3996.538
2416.417, 4000.335
2418.345, 4007.865
2420.274, 4016.270
2422.202, 4021.821
2424.131, 4026.237
2426.059, 4031.991
2427.988, 4038.879
2429.916, 4047.866
2431.844, 4057.509
2433.773, 4062.350
2435.701, 4063.311
2437.630, 4066.761
2439.558, 4073.167
2441.487, 4076.794
2443.415, 4076.210
2445.344, 4080.040
2447.272, 4090.941
2449.201, 4094.932
2451.129, 4089.126
2453.058, 4084.253
2454.986, 4081.824
2456.915, 4080.906
2458.843, 4081.884
2460.771, 4083.227
2462.700, 4086.853
2464.628, 4087.314
2466.557, 4078.460
2468.485, 4072.188
2470.414, 4076.364
2472.342, 4080.989
2474.271, 4079.909
2476.199, 4078.347
2478.128, 4080.354
2480.056, 4083.539
2481.985, 4085.108
2483.913, 4086.851
2485.842, 4092.239
2487.770, 4098.354
2489.698, 4098.936
2491.627, 4097.472
2493.555, 4104.587
2495.484, 4115.136
2497.412, 4112.601
2499.341, 4101.119
2501.269, 4099.155
2503.198, 4105.955
2505.126, 4112.114
2507.055, 4117.581
2508.983, 4117.968
2510.912, 4112.857
2512.840, 4110.826
2514.769, 4112.423
2516.697, 4115.824
2518.625, 4122.155
2520.554, 4125.205
2522.482, 4122.077
2524.411, 4120.680
2526.339, 4122.439
2528.268, 4122.781
2530.196, 4119.443
2532.125, 4120.207
2534.053, 4128.503
2535.982, 4136.479
2537.910, 4141.436
2539.839, 4145.793
2541.767, 4151.622
2543.696, 4154.520
2545.624, 4149.325
2547.552, 4146.185
2549.481, 4151.721
2551.409, 4156.379
2553.338, 4153.469
2555.266, 4150.693
2557.195, 4151.702
2559.123, 4156.292
2561.052, 4168.034
2562.980, 4178.908
2564.909, 4179.263
2566.837, 4177.985
2568.766, 4183.670
2570.694, 4191.434
2572.623, 4196.822
2574.551, 4200.833
2576.479, 4204.528
2578.408, 4208.296
2580.336, 4212.794
2582.265, 4218.081
2584.193, 4223.631
2586.122, 4230.023
2588.050, 4239.574
2589.979, 4249.839
2591.907, 4254.860
2593.836, 4256.018
2595.764, 4258.698
2597.693, 4261.909
2599.621, 4260.865
2601.550, 4257.026
2603.478, 4257.415
2605.406, 4261.404
2607.335, 4264.705
2609.263, 4267.573
2611.192, 4272.087
2613.120, 4278.222
2615.049, 4282.766
2616.977, 4285.614
2618.906, 4291.878
2620.834, 4301.077
2622.763, 4305.640
2624.691, 4304.905
2626.620, 4306.745
2628.548, 4312.236
2630.477, 4315.083
2632.405, 4314.562
2634.333, 4318.825
2636.262, 4328.751
2638.190, 4331.975
2640.119, 4326.324
2642.047, 4326.063
2643.976, 4334.017
2645.904, 4341.905
2647.833, 4350.814
2649.761, 4355.301
2651.690, 4354.652
2653.618, 4355.173
2655.547, 4357.403
2657.475, 4363.413
2659.404, 4376.443
2661.332, 4382.622
2663.260, 4374.323
2665.189, 4375.502
2667.117, 4390.262
2669.046, 4399.209
2670.974, 4399.025
2672.903, 4397.632
2674.831, 4395.970
2676.760, 4395.565
2678.688, 4397.870
2680.617, 4399.497
2682.545, 4400.077
2684.474, 4401.847
2686.402, 4405.903
2688.331, 4408.114
2690.259, 4405.697
2692.188, 4407.094
2694.116, 4416.718
2696.044, 4423.670
2697.973, 4425.701
2699.901, 4429.141
2701.830, 4433.921
2703.758, 4443.706
2705.687, 4464.170
2707.615, 4476.037
2709.544, 4470.648
2711.472, 4467.734
2713.401, 4469.002
2715.329, 4470.659
2717.258, 4472.259
2719.186, 4474.391
2721.115, 4477.224
2723.043, 4482.025
2724.971, 4492.367
2726.900, 4497.467
2728.828, 4494.576
2730.757, 4495.241
2732.685, 4501.134
2734.614, 4508.544
2736.542, 4517.901
2738.471, 4524.192
2740.399, 4526.219
2742.328, 4527.421
2744.256, 4527.945
2746.185, 4529.474
2748.113, 4532.467
2750.042, 4536.775
2751.970, 4544.021
2753.898, 4547.960
2755.827, 4547.404
2757.755, 4547.734
2759.684, 4549.149
2761.612, 4553.428
2763.541, 4561.403
2765.469, 4566.765
2767.398, 4567.586
2769.326, 4571.513
2771.255, 4578.714
2773.183, 4585.133
2775.112, 4590.453
2777.040, 4595.579
2778.969, 4600.867
2780.897, 4599.608
2782.825, 4590.807
2784.754, 4592.553
2786.682, 4604.165
2788.611, 4609.471
2790.539, 4608.887
2792.468, 4611.150
2794.396, 4615.979
2796.325, 4617.904
2798.253, 4617.209
2800.182, 4614.998
2802.110, 4612.726
2804.039, 4619.401
2805.967, 4631.166
2807.896, 4632.967
2809.824, 4628.211
2811.752, 4627.265
2813.681, 4629.625
2815.609, 4633.954
2817.538, 4639.919
2819.466, 4647.063
2821.395, 4654.521
2823.323, 4660.748
2825.252, 4665.968
2827.180, 4669.774
2829.109, 4673.707
2831.037, 4682.669
2832.966, 4690.219
2834.894, 4685.654
2836.823, 4680.008
2838.751, 4686.745
2840.679, 4695.725
2842.608, 4698.048
2844.536, 4699.473
2846.465, 4703.197
2848.393, 4708.758
2850.322, 4719.825
2852.250, 4726.903
2854.179, 4720.422
2856.107, 4716.800
2858.036, 4725.479
2859.964, 4734.960
2861.893, 4739.866
2863.821, 4745.213
2865.750, 4753.028
2867.678, 4758.574
2869.606, 4759.087
2871.535, 4761.202
2873.463, 4769.166
2875.392, 4773.650
2877.320, 4772.425
2879.249, 4772.540
2881.177, 4774.928
2883.106, 4779.180
2885.034, 4785.452
2886.963, 4791.389
2888.891, 4795.495
2890.820, 4803.930
2892.748, 4816.298
2894.677, 4821.596
2896.605, 4820.268
2898.533, 4821.005
2900.462, 4824.287
2902.390, 4830.929
2904.319, 4840.343
2906.247, 4849.771
2908.176, 4858.326
2910.104, 4862.372
2912.033, 4864.803
2913.961, 4872.858
2915.890, 4881.894
2917.818, 4883.701
2919.747, 4883.514
2921.675, 4885.391
2923.604, 4890.169
2925.532, 4902.485
2927.460, 4912.992
2929.389, 4912.450
2931.317, 4911.288
2933.246, 4914.063
2935.174, 4918.970
2937.103, 4926.411
2939.031, 4933.611
2940.960, 4938.832
2942.888, 4945.565
2944.817, 4955.379
2946.745, 4963.952
2948.674, 4971.361
2950.602, 4974.799
2952.531, 4971.664
2954.459, 4979.679
2956.387, 5000.212
2958.316, 5014.698
2960.244, 5020.892
2962.173, 5029.729
2964.101, 5040.606
2966.030, 5049.353
2967.958, 5056.097
2969.887, 5058.867
2971.815, 5061.372
2973.744, 5072.118
2975.672, 5087.757
2977.601, 5102.586
2979.529, 5116.815
2981.458, 5128.870
2983.386, 5141.507
2985.314, 5159.623
2987.243, 5175.976
2989.171, 5185.628
2991.100, 5193.158
2993.028, 5199.381
2994.957, 5207.186
2996.885, 5216.768
2998.814, 5230.882
3000.742, 5252.610
3002.671, 5268.798
3004.599, 5276.184
3006.528, 5285.487
3008.456, 5298.365
3010.385, 5312.056
3012.313, 5326.433
3014.241, 5346.298
3016.170, 5369.915
3018.098, 5388.173
3020.027, 5400.950
3021.955, 5407.063
3023.884, 5410.385
3025.812, 5419.183
3027.741, 5431.341
3029.669, 5446.925
3031.598, 5461.224
3033.526, 5467.632
3035.455, 5472.926
3037.383, 5480.638
3039.312, 5488.252
3041.240, 5495.953
3043.168, 5500.938
3045.097, 5501.249
3047.025, 5505.001
3048.954, 5515.291
3050.882, 5522.547
3052.811, 5522.917
3054.739, 5528.916
3056.668, 5540.110
3058.596, 5548.873
3060.525, 5554.878
3062.453, 5559.380
3064.382, 5563.185
3066.310, 5568.701
3068.239, 5575.351
3070.167, 5583.766
3072.095, 5590.386
3074.024, 5589.325
3075.952, 5586.517
3077.881, 5584.658
3079.809, 5585.072
3081.738, 5589.939
3083.666, 5594.980
3085.595, 5598.896
3087.523, 5605.247
3089.452, 5615.510
3091.380, 5625.930
3093.309, 5635.815
3095.237, 5645.183
3097.166, 5653.082
3099.094, 5661.968
3101.022, 5670.147
3102.951, 5671.434
3104.879, 5669.718
3106.808, 5674.006
3108.736, 5680.642
3110.665, 5686.727
3112.593, 5690.383
3114.522, 5688.870
3116.450, 5686.486
3118.379, 5681.198
3120.307, 5684.030
3122.236, 5701.302
3124.164, 5713.933
3126.093, 5713.530
3128.021, 5719.104
3129.949, 5732.179
3131.878, 5735.638
3133.806, 5730.319
3135.735, 5732.284
3137.663, 5738.173
3139.592, 5732.569
3141.520, 5724.204
3143.449, 5730.807
3145.377, 5739.827
3147.306, 5738.208
3149.234, 5735.040
3151.163, 5734.274
3153.091, 5736.501
3155.020, 5744.174
3156.948, 5749.245
3158.876, 5748.085
3160.805, 5750.373
3162.733, 5756.847
3164.662, 5759.187
3166.590, 5757.494
3168.519, 5759.311
3170.447, 5763.795
3172.376, 5768.177
3174.304, 5773.343
3176.233, 5781.315
3178.161, 5789.528
3180.090, 5794.500
3182.018, 5799.799
3183.947, 5806.454
3185.875, 5814.232
3187.803, 5825.599
3189.732, 5831.646
3191.660, 5831.286
3193.589, 5831.029
3195.517, 5831.617
3197.446, 5833.001
3199.374, 5834.657
3201.303, 5833.378
3203.231, 5831.421
3205.160, 5833.892
3207.088, 5837.114
3209.017, 5837.224
3210.945, 5837.776
3212.874, 5839.324
3214.802, 5844.757
3216.730, 5857.521
3218.659, 5866.412
3220.587, 5869.095
3222.516, 5869.924
3224.444, 5869.067
3226.373, 5873.833
3228.301, 5882.133
3230.230, 5883.742
3232.158, 5881.616
3234.087, 5878.333
3236.015, 5875.693
3237.944, 5873.544
3239.872, 5874.304
3241.801, 5879.772
3243.729, 5884.225
3245.657, 5886.003
3247.586, 5885.312
3249.514, 5882.339
3251.443, 5885.000
3253.371, 5892.340
3255.300, 5889.522
3257.228, 5882.329
3259.157, 5885.038
3261.085, 5891.228
3263.014, 5896.245
3264.942, 5898.732
3266.871, 5897.835
3268.799, 5893.444
3270.728, 5882.533
3272.656, 5877.133
3274.584, 5880.140
3276.513, 5879.669
3278.441, 5875.939
3280.370, 5873.042
3282.298, 5870.135
3284.227, 5863.303
3286.155, 5856.403
3288.084, 5854.466
3290.012, 5852.683
3291.941, 5845.564
3293.869, 5842.443
3295.798, 5847.151
3297.726, 5846.484
3299.655, 5836.366
3301.583, 5831.355
3303.511, 5830.766
3305.440, 5828.205
3307.368, 5824.167
3309.297, 5819.553
3311.225, 5814.648
3313.154, 5808.896
3315.082, 5805.187
3317.011, 5807.958
3318.939, 5808.077
3320.868, 5802.976
3322.796, 5799.439
3324.725, 5797.749
3326.653, 5798.708
3328.582, 5800.364
3330.510, 5794.472
3332.438, 5786.335
3334.367, 5783.272
3336.295, 5782.550
3338.224, 5783.854
3340.152, 5784.248
3342.081, 5781.346
3344.009, 5782.181
3345.938, 5789.809
3347.866, 5785.813
3349.795, 5773.357
3351.723, 5772.808
3353.652, 5777.318
3355.580, 5771.891
3357.509, 5766.638
3359.437, 5771.868
3361.365, 5775.585
3363.294, 5768.557
3365.222, 5765.419
3367.151, 5767.394
3369.079, 5769.120
3371.008, 5769.606
3372.936, 5761.626
3374.865, 5751.223
3376.793, 5754.201
3378.722, 5758.020
3380.650, 5750.305
3382.579, 5740.422
3384.507, 5730.646
3386.436, 5723.656
3388.364, 5721.405
3390.292, 5716.744
3392.221, 5710.308
3394.149, 5706.675
3396.078, 5704.821
3398.006, 5704.188
3399.935, 5702.032
3401.863, 5694.722
3403.792, 5688.089
3405.720, 5681.560
3407.649, 5684.558
3409.577, 5698.394
3411.506, 5704.016
3413.434, 5702.563
3415.363, 5705.351
3417.291, 5709.448
3419.219, 5709.565
3421.148, 5709.299
3423.076, 5709.478
3425.005, 5713.502
3426.933, 5724.757
3428.862, 5724.262
3430.790, 5708.899
3432.719, 5716.515
3434.647, 5737.720
3436.576, 5746.501
3438.504, 5750.049
3440.433, 5752.049
3442.361, 5759.129
3444.290, 5776.659
3446.218, 5790.891
3448.146, 5797.336
3450.075, 5811.591
3452.003, 5830.822
3453.932, 5838.988
3455.860, 5840.040
3457.789, 5840.224
3459.717, 5839.311
3461.646, 5835.742
3463.574, 5836.815
3465.503, 5846.140
3467.431, 5848.854
3469.360, 5843.280
3471.288, 5842.172
3473.217, 5843.051
3475.145, 5843.171
3477.073, 5838.976
3479.002, 5824.232
3480.930, 5811.083
3482.859, 5803.512
3484.787, 5799.948
3486.716, 5801.134
3488.644, 5791.694
3490.573, 5773.397
3492.501, 5752.112
3494.430, 5726.938
3496.358, 5696.647
3498.287, 5662.632
3500.215, 5625.003
3502.144, 5587.712
3504.072, 5551.426
3506.000, 5519.365
3507.929, 5490.104
3509.857, 5459.013
3511.786, 5426.203
3513.714, 5390.865
3515.643, 5355.243
3517.571, 5318.325
3519.500, 5287.404
3521.428, 5263.536
3523.357, 5234.660
3525.285, 5201.958
3527.214, 5170.450
3529.142, 5139.288
3531.071, 5106.510
3532.999, 5075.538
3534.927, 5049.321
3536.856, 5021.580
3538.784, 4992.172
3540.713, 4970.534
3542.641, 4954.516
3544.570, 4937.412
3546.498, 4919.339
3548.427, 4899.534
3550.355, 4879.558
3552.284, 4859.283
3554.212, 4841.442
3556.141, 4826.640
3558.069, 4814.174
3559.998, 4803.476
3561.926, 4793.091
3563.854, 4783.079
3565.783, 4770.565
3567.711, 4764.202
3569.640, 4766.951
3571.568, 4766.290
3573.497, 4761.500
3575.425, 4760.724
3577.354, 4761.951
3579.282, 4765.594
3581.211, 4765.553
3583.139, 4760.067
3585.068, 4748.694
3586.996, 4730.562
3588.925, 4705.444
3590.853, 4678.326
3592.781, 4668.266
3594.710, 4664.197
3596.638, 4656.397
3598.567, 4645.908
3600.495, 4632.659
3602.424, 4619.394
3604.352, 4606.328
3606.281, 4585.628
3608.209, 4565.234
3610.138, 4564.057
3612.066, 4564.147
3613.995, 4553.914
3615.923, 4544.593
3617.852, 4538.456
3619.780, 4537.589
3621.708, 4539.691
3623.637, 4533.703
3625.565, 4527.170
3627.494, 4526.718
3629.422, 4530.015
3631.351, 4541.167
3633.279, 4541.334
3635.208, 4531.796
3637.136, 4527.005
3639.065, 4525.672
3640.993, 4526.172
3642.922, 4526.606
3644.850, 4525.380
3646.779, 4524.319
3648.707, 4523.505
3650.635, 4524.443
3652.564, 4526.373
3654.492, 4528.545
3656.421, 4529.097
3658.349, 4526.222
3660.278, 4522.411
3662.206, 4517.908
3664.135, 4518.966
3666.063, 4523.702
3667.992, 4522.625
3669.920, 4520.171
3671.849, 4519.783
3673.777, 4520.555
3675.706, 4522.640
3677.634, 4522.959
3679.563, 4522.231
3681.491, 4525.216
3683.419, 4529.575
3685.348, 4531.986
3687.276, 4534.354
3689.205, 4537.449
3691.133, 4538.218
3693.062, 4536.849
3694.990, 4539.451
3696.919, 4543.228
3698.847, 4544.231
3700.776, 4544.183
3702.704, 4542.599
3704.633, 4543.741
3706.561, 4547.486
3708.490, 4550.626
3710.418, 4553.272
3712.346, 4556.409
3714.275, 4558.411
3716.203, 4558.650
3718.132, 4555.849
3720.060, 4550.848
3721.989, 4554.770
3723.917, 4561.691
3725.846, 4560.063
3727.774, 4556.937
3729.703, 4553.844
3731.631, 4554.266
3733.560, 4558.045
3735.488, 4568.125
3737.417, 4577.906
3739.345, 4572.903
3741.273, 4568.993
3743.202, 4579.289
3745.130, 4580.789
3747.059, 4574.095
3748.987, 4577.198
3750.916, 4583.289
3752.844, 4577.187
3754.773, 4574.955
3756.701, 4588.278
3758.630, 4594.234
3760.558, 4592.702
3762.487, 4595.243
3764.415, 4599.249
3766.344, 4602.580
3768.272, 4603.180
3770.200, 4599.521
3772.129, 4596.104
3774.057, 4594.095
3775.986, 4596.325
3777.914, 4600.280
3779.843, 4602.958
3781.771, 4605.415
3783.700, 4606.229
3785.628, 4611.251
3787.557, 4618.413
3789.485, 4621.860
3791.414, 4623.523
3793.342, 4625.172
3795.271, 4626.136
3797.199, 4626.475
3799.127, 4625.848
3801.056, 4625.492
3802.984, 4629.858
3804.913, 4632.180
3806.841, 4627.124
3808.770, 4627.556
3810.698, 4635.158
3812.627, 4643.109
3814.555, 4650.167
3816.484, 4655.376
3818.412, 4656.231
3820.341, 4651.030
3822.269, 4644.733
3824.198, 4638.755
3826.126, 4640.228
3828.054, 4642.845
3829.983, 4639.672
3831.911, 4638.945
3833.840, 4642.844
3835.768, 4645.241
3837.697, 4646.695
3839.625, 4649.464
3841.554, 4651.863
3843.482, 4651.322
3845.411, 4655.800
3847.339, 4665.755
3849.268, 4665.208
3851.196, 4663.166
3853.125, 4674.995
3855.053, 4679.710
3856.981, 4669.482
3858.910, 4670.265
3860.838, 4679.491
3862.767, 4684.575
3864.695, 4686.778
3866.624, 4684.234
3868.552, 4687.068
3870.481, 4695.674
3872.409, 4697.119
3874.338, 4695.905
3876.266, 4699.091
3878.195, 4703.534
3880.123, 4709.060
3882.052, 4711.344
3883.980, 4712.524
3885.908, 4722.079
3887.837, 4730.515
3889.765, 4730.208
3891.694, 4731.202
3893.622, 4735.223
3895.551, 4741.568
3897.479, 4747.017
3899.408, 4743.823
3901.336, 4744.282
3903.265, 4752.897
3905.193, 4760.271
3907.122, 4765.104
3909.050, 4763.960
3910.979, 4762.336
3912.907, 4762.364
3914.835, 4769.302
3916.764, 4782.618
3918.692, 4789.502
3920.621, 4792.601
3922.549, 4794.424
3924.478, 4794.797
3926.406, 4794.146
3928.335, 4796.942
3930.263, 4802.047
3932.192, 4807.133
3934.120, 4811.257
3936.049, 4813.317
3937.977, 4813.365
3939.906, 4813.009
3941.834, 4820.638
3943.762, 4828.811
3945.691, 4832.460
3947.619, 4836.204
3949.548, 4840.664
3951.476, 4845.112
3953.405, 4849.785
3955.333, 4855.386
3957.262, 4860.254
3959.190, 4864.062
3961.119, 4863.414
3963.047, 4864.289
3964.976, 4881.389
3966.904, 4891.704
3968.833, 4885.936
3970.761, 4892.484
3972.689, 4906.545
3974.618, 4909.372
3976.546, 4907.610
3978.475, 4904.197
3980.403, 4898.671
3982.332, 4893.451
3984.260, 4902.620
3986.189, 4913.623
3988.117, 4916.566
3990.046, 4916.231
3991.974, 4913.792
3993.903, 4914.579
3995.831, 4917.630
3997.760, 4922.717
3999.688, 4927.747
4001.616, 4932.420
4003.545, 4934.881
4005.473, 4936.341
4007.402, 4937.342
4009.330, 4940.534
4011.259, 4946.661
4013.187, 4961.052
4015.116, 4975.067
4017.044, 4968.035
4018.973, 4964.100
4020.901, 4971.863
4022.830, 4974.805
4024.758, 4973.615
4026.687, 4970.780
4028.615, 4970.831
4030.543, 4979.219
4032.472, 4981.206
4034.400, 4978.907
4036.329, 4980.795
4038.257, 4981.826
4040.186, 4977.420
4042.114, 4978.284
4044.043, 4984.126
4045.971, 4993.834
4047.900, 5001.118
4049.828, 5001.658
4051.757, 5001.988
4053.685, 5003.024
4055.614, 5005.271
4057.542, 5007.803
4059.470, 5009.465
4061.399, 5012.967
4063.327, 5018.495
4065.256, 5024.179
4067.184, 5032.310
4069.113, 5049.042
4071.041, 5054.313
4072.970, 5049.119
4074.898, 5048.872
4076.827, 5051.525
4078.755, 5055.987
4080.684, 5058.913
4082.612, 5060.396
4084.541, 5063.592
4086.469, 5066.995
4088.397, 5069.419
4090.326, 5072.718
4092.254, 5076.990
4094.183, 5079.936
4096.111, 5084.997
4098.040, 5098.413
4099.968, 5102.993
4101.896, 5099.074
4103.825, 5099.224
4105.754, 5100.728
4107.682, 5100.869
4109.610, 5105.740
4111.539, 5114.530
4113.468, 5122.477
4115.396, 5127.122
4117.324, 5125.892
4119.253, 5128.464
4121.182, 5135.192
4123.110, 5145.680
4125.038, 5151.936
4126.967, 5146.196
4128.896, 5148.995
4130.824, 5159.047
4132.752, 5168.240
4134.681, 5176.640
4136.609, 5183.290
4138.538, 5192.835
4140.466, 5203.509
4142.395, 5211.040
4144.323, 5216.578
4146.251, 5220.388
4148.180, 5224.049
4150.108, 5227.579
4152.037, 5228.968
4153.965, 5236.322
4155.894, 5251.875
4157.822, 5253.600
4159.751, 5250.712
4161.679, 5259.273
4163.607, 5264.177
4165.536, 5262.372
4167.465, 5269.915
4169.393, 5280.759
4171.321, 5290.022
4173.250, 5294.306
4175.179, 5293.987
4177.107, 5300.900
4179.035, 5309.452
4180.964, 5313.599
4182.893, 5322.790
4184.821, 5335.977
4186.749, 5344.975
4188.678, 5351.150
4190.606, 5355.078
4192.535, 5355.274
4194.463, 5353.612
4196.392, 5356.071
4198.320, 5357.701
4200.249, 5356.519
4202.177, 5357.229
4204.105, 5360.261
4206.034, 5366.210
4207.962, 5372.859
4209.891, 5379.414
4211.819, 5380.078
4213.748, 5383.117
4215.676, 5399.830
4217.604, 5410.698
4219.533, 5414.044
4221.462, 5414.729
4223.390, 5416.611
4225.318, 5423.831
4227.247, 5422.378
4229.176, 5417.856
4231.104, 5429.248
4233.032, 5441.429
4234.961, 5448.361
4236.890, 5453.460
4238.818, 5457.781
4240.746, 5459.845
4242.675, 5459.312
##END=



