##NAMES=Bismoclite
##RRUFFID=R100197
##IDEAL CHEMISTRY=BiOCl
##LOCALITY=El Guanaco Mine, Guanaco (Huanaco), Santa Catalina, Antofagasta Province, Antofagasta Region, Chile
##OWNER=RRUFF
##SOURCE=Bob Jenkins
##DESCRIPTION=Unconsolidated colorless fragments and tabular crystals.
##STATUS=The identification of this mineral has been confirmed by single-crystal X-ray diffraction
##URL=https://www.rruff.net/odr/rruff_sample/R100197
##DIFFRACTION SAMPLE DESCRIPTION=Single crystal, powder profile is calculated
##CELL PARAMETERS=a: 3.893 b: 3.893 c: 7.37 alpha: 90 beta: 90 gamma: 90 volume: 111.69 crystal system: tetragonal
##FILETYPE=Raman RAW
##RAMAN WAVELENGTH=780

99.33276, 3041.825
101.2612, 3056.348
103.1897, 3140.035
105.1182, 3289.094
107.0466, 3458.257
108.9751, 3681.658
110.9036, 3876.084
112.8320, 4004.347
114.7605, 4072.082
116.6890, 4088.484
118.6174, 4043.503
120.5459, 4017.950
122.4744, 4007.528
124.4028, 4043.442
126.3313, 4130.658
128.2598, 4280.941
130.1882, 4499.512
132.1167, 4778.067
134.0452, 5172.015
135.9736, 5740.683
137.9021, 6374.885
139.8306, 7276.737
141.7590, 8113.764
143.6875, 8310.002
145.6160, 7842.200
147.5444, 7179.029
149.4729, 6173.857
151.4014, 5257.128
153.3298, 4546.817
155.2583, 4019.282
157.1868, 3640.189
159.1152, 3406.471
161.0437, 3245.019
162.9722, 3184.345
164.9006, 3149.786
166.8291, 3143.377
168.7576, 3146.156
170.6860, 3139.305
172.6145, 3124.736
174.5430, 3115.219
176.4714, 3106.956
178.3999, 3111.825
180.3284, 3128.620
182.2568, 3161.406
184.1853, 3213.017
186.1138, 3281.958
188.0422, 3367.062
189.9707, 3469.865
191.8992, 3587.958
193.8276, 3760.718
195.7561, 3904.491
197.6846, 4004.783
199.6130, 4038.724
201.5415, 3947.766
203.4700, 3694.414
205.3984, 3462.633
207.3269, 3241.894
209.2554, 3056.486
211.1838, 2922.496
213.1123, 2822.058
215.0408, 2742.943
216.9692, 2684.701
218.8977, 2637.383
220.8262, 2601.285
222.7546, 2573.768
224.6831, 2558.542
226.6116, 2547.023
228.5400, 2533.965
230.4685, 2521.156
232.3970, 2512.738
234.3254, 2509.604
236.2539, 2506.902
238.1824, 2505.017
240.1108, 2502.348
242.0393, 2497.089
243.9678, 2491.607
245.8962, 2488.220
247.8247, 2486.570
249.7532, 2483.381
251.6816, 2478.015
253.6101, 2474.927
255.5386, 2477.803
257.4670, 2479.422
259.3955, 2475.686
261.3240, 2469.099
263.2524, 2463.137
265.1809, 2457.871
267.1094, 2454.387
269.0378, 2453.500
270.9663, 2452.438
272.8948, 2450.142
274.8232, 2447.748
276.7517, 2446.297
278.6802, 2445.222
280.6086, 2443.063
282.5371, 2439.842
284.4656, 2436.101
286.3940, 2431.119
288.3225, 2426.929
290.2510, 2424.246
292.1794, 2422.330
294.1079, 2421.135
296.0364, 2420.148
297.9648, 2417.753
299.8933, 2413.637
301.8218, 2410.420
303.7502, 2409.303
305.6787, 2408.285
307.6072, 2407.192
309.5356, 2405.638
311.4641, 2402.298
313.3926, 2398.105
315.3210, 2396.204
317.2495, 2397.624
319.1780, 2397.834
321.1064, 2394.539
323.0349, 2392.277
324.9634, 2394.683
326.8918, 2397.219
328.8203, 2394.824
330.7488, 2388.906
332.6772, 2384.415
334.6057, 2381.723
336.5342, 2380.491
338.4626, 2382.223
340.3911, 2383.374
342.3196, 2380.865
344.2480, 2378.908
346.1765, 2381.766
348.1050, 2388.208
350.0334, 2392.382
351.9619, 2393.562
353.8904, 2393.883
355.8188, 2392.081
357.7473, 2391.550
359.6758, 2394.190
361.6042, 2397.876
363.5327, 2401.031
365.4612, 2403.961
367.3896, 2407.645
369.3181, 2412.435
371.2466, 2415.991
373.1750, 2417.528
375.1035, 2419.196
377.0320, 2420.705
378.9604, 2423.439
380.8889, 2429.523
382.8174, 2436.635
384.7458, 2439.889
386.6743, 2439.077
388.6028, 2442.699
390.5313, 2453.314
392.4597, 2458.203
394.3882, 2453.864
396.3167, 2444.288
398.2451, 2430.440
400.1736, 2413.647
402.1021, 2393.731
404.0305, 2371.802
405.9590, 2353.534
407.8875, 2338.972
409.8159, 2325.567
411.7444, 2312.626
413.6729, 2301.823
415.6013, 2293.942
417.5298, 2287.956
419.4583, 2284.119
421.3867, 2281.325
423.3152, 2277.866
425.2437, 2273.660
427.1721, 2268.062
429.1006, 2260.689
431.0291, 2253.961
432.9575, 2248.312
434.8860, 2243.823
436.8145, 2241.643
438.7429, 2239.741
440.6714, 2236.173
442.5999, 2231.696
444.5283, 2228.014
446.4568, 2225.073
448.3853, 2221.850
450.3137, 2218.066
452.2422, 2214.309
454.1707, 2210.747
456.0991, 2206.906
458.0276, 2201.892
459.9561, 2197.016
461.8845, 2193.515
463.8130, 2191.168
465.7415, 2190.341
467.6699, 2191.125
469.5984, 2188.960
471.5269, 2181.395
473.4553, 2174.916
475.3838, 2170.628
477.3123, 2166.804
479.2407, 2162.956
481.1692, 2159.009
483.0977, 2154.196
485.0261, 2149.487
486.9546, 2147.110
488.8831, 2147.255
490.8115, 2147.239
492.7400, 2148.337
494.6685, 2146.980
496.5969, 2141.488
498.5254, 2136.018
500.4539, 2132.138
502.3823, 2128.551
504.3108, 2124.064
506.2393, 2119.442
508.1677, 2116.404
510.0962, 2111.352
512.0247, 2106.667
513.9531, 2102.819
515.8816, 2096.700
517.8101, 2093.580
519.7385, 2089.301
521.6670, 2081.226
523.5955, 2074.055
525.5239, 2071.256
527.4524, 2069.975
529.3809, 2067.635
531.3093, 2064.559
533.2378, 2061.455
535.1663, 2058.245
537.0947, 2056.439
539.0232, 2056.531
540.9517, 2055.032
542.8801, 2050.827
544.8086, 2046.035
546.7371, 2041.564
548.6655, 2036.740
550.5940, 2030.111
552.5225, 2023.826
554.4509, 2021.154
556.3794, 2021.117
558.3079, 2020.037
560.2363, 2017.940
562.1648, 2015.561
564.0933, 2012.757
566.0217, 2010.564
567.9502, 2009.875
569.8787, 2008.571
571.8071, 2006.762
573.7356, 2003.542
575.6641, 1997.356
577.5925, 1990.389
579.5210, 1984.041
581.4495, 1979.233
583.3779, 1979.508
585.3064, 1983.763
587.2349, 1984.210
589.1633, 1979.698
591.0918, 1974.809
593.0203, 1970.162
594.9487, 1965.547
596.8772, 1960.180
598.8057, 1956.009
600.7341, 1955.475
602.6626, 1955.008
604.5911, 1950.430
606.5195, 1944.517
608.4480, 1941.975
610.3765, 1941.661
612.3049, 1939.390
614.2334, 1934.871
616.1619, 1930.588
618.0903, 1927.299
620.0188, 1922.940
621.9473, 1915.305
623.8757, 1909.801
625.8042, 1909.774
627.7327, 1909.464
629.6611, 1904.901
631.5896, 1899.643
633.5181, 1896.838
635.4465, 1895.362
637.3750, 1893.915
639.3035, 1892.309
641.2319, 1888.891
643.1604, 1883.187
645.0889, 1878.885
647.0173, 1876.803
648.9458, 1874.026
650.8743, 1869.602
652.8027, 1866.330
654.7312, 1865.977
656.6597, 1864.854
658.5881, 1859.675
660.5166, 1854.695
662.4451, 1853.939
664.3735, 1849.062
666.3020, 1850.073
668.2305, 1843.871
670.1589, 1840.958
672.0874, 1841.123
674.0159, 1838.680
675.9443, 1833.449
677.8728, 1828.547
679.8013, 1823.913
681.7297, 1820.656
683.6582, 1819.313
685.5867, 1818.127
687.5151, 1816.747
689.4436, 1814.784
691.3721, 1812.137
693.3005, 1808.855
695.2290, 1804.877
697.1575, 1800.527
699.0859, 1795.427
701.0144, 1790.657
702.9429, 1789.899
704.8713, 1784.313
706.7998, 1787.679
708.7283, 1778.504
710.6567, 1774.342
712.5852, 1776.523
714.5137, 1775.441
716.4421, 1767.947
718.3706, 1762.587
720.2991, 1762.421
722.2275, 1762.879
724.1560, 1763.984
726.0845, 1764.099
728.0129, 1762.017
729.9414, 1759.204
731.8699, 1756.306
733.7983, 1753.570
735.7268, 1751.657
737.6553, 1749.849
739.5837, 1746.847
741.5122, 1743.008
743.4407, 1739.703
745.3691, 1736.783
747.2976, 1731.784
749.2261, 1724.191
751.1545, 1717.703
753.0830, 1712.716
755.0115, 1708.268
756.9399, 1703.473
758.8684, 1700.442
760.7969, 1701.306
762.7253, 1701.041
764.6538, 1698.045
766.5823, 1693.959
768.5107, 1689.808
770.4392, 1684.667
772.3677, 1675.342
774.2961, 1667.288
776.2246, 1667.000
778.1531, 1669.753
780.0815, 1668.723
782.0100, 1665.253
783.9385, 1663.229
785.8669, 1662.208
787.7954, 1658.594
789.7239, 1652.221
791.6523, 1648.808
793.5808, 1649.125
795.5093, 1648.819
797.4377, 1647.672
799.3662, 1646.746
801.2947, 1646.287
803.2231, 1645.448
805.1516, 1644.588
807.0801, 1641.600
809.0085, 1634.232
810.9370, 1628.289
812.8655, 1627.865
814.7939, 1627.029
816.7224, 1621.419
818.6509, 1616.387
820.5793, 1616.601
822.5078, 1617.493
824.4363, 1614.321
826.3647, 1609.783
828.2932, 1607.217
830.2217, 1605.874
832.1501, 1604.935
834.0786, 1603.984
836.0071, 1601.781
837.9355, 1598.492
839.8640, 1594.237
841.7925, 1589.433
843.7209, 1587.223
845.6494, 1587.474
847.5779, 1586.185
849.5063, 1582.958
851.4348, 1580.407
853.3633, 1579.116
855.2917, 1576.239
857.2202, 1570.455
859.1487, 1566.025
861.0771, 1564.779
863.0056, 1562.652
864.9341, 1558.140
866.8625, 1554.094
868.7910, 1551.103
870.7195, 1548.735
872.6479, 1547.970
874.5764, 1546.202
876.5049, 1541.530
878.4333, 1536.446
880.3618, 1531.310
882.2903, 1527.651
884.2188, 1528.115
886.1472, 1528.920
888.0757, 1526.914
890.0042, 1523.246
891.9326, 1518.504
893.8611, 1513.326
895.7896, 1508.282
897.7180, 1503.487
899.6465, 1499.248
901.5750, 1495.382
903.5034, 1491.210
905.4319, 1487.141
907.3604, 1484.648
909.2888, 1483.533
911.2173, 1482.769
913.1458, 1482.272
915.0742, 1480.898
917.0027, 1478.615
918.9312, 1475.952
920.8596, 1472.776
922.7881, 1470.541
924.7166, 1469.525
926.6450, 1467.534
928.5735, 1464.554
930.5020, 1460.757
932.4304, 1455.892
934.3589, 1452.143
936.2874, 1449.682
938.2158, 1448.651
940.1443, 1449.512
942.0728, 1448.782
944.0012, 1445.476
945.9297, 1442.896
947.8582, 1442.169
949.7866, 1440.310
951.7151, 1436.522
953.6436, 1431.917
955.5720, 1425.797
957.5005, 1421.716
959.4290, 1421.824
961.3574, 1421.109
963.2859, 1417.270
965.2144, 1413.946
967.1428, 1413.047
969.0713, 1411.537
970.9998, 1408.191
972.9282, 1404.791
974.8567, 1401.775
976.7852, 1399.066
978.7136, 1395.604
980.6421, 1393.906
982.5706, 1398.217
984.4990, 1399.824
986.4275, 1392.278
988.3560, 1384.282
990.2844, 1379.957
992.2129, 1377.186
994.1414, 1375.694
996.0698, 1374.193
997.9983, 1371.315
999.9268, 1368.905
1001.855, 1369.189
1003.784, 1368.730
1005.712, 1364.981
1007.641, 1359.834
1009.569, 1352.141
1011.498, 1346.733
1013.426, 1349.886
1015.354, 1353.170
1017.283, 1349.834
1019.211, 1345.244
1021.140, 1343.228
1023.068, 1341.708
1024.997, 1339.200
1026.925, 1336.464
1028.854, 1333.916
1030.782, 1331.490
1032.711, 1329.544
1034.639, 1327.104
1036.568, 1322.264
1038.496, 1318.176
1040.425, 1318.436
1042.353, 1318.765
1044.281, 1315.599
1046.210, 1312.002
1048.138, 1310.208
1050.067, 1308.588
1051.995, 1305.272
1053.924, 1302.581
1055.852, 1302.848
1057.781, 1303.205
1059.709, 1301.982
1061.638, 1299.959
1063.566, 1297.328
1065.495, 1294.669
1067.423, 1292.625
1069.352, 1290.463
1071.280, 1286.902
1073.208, 1284.297
1075.137, 1284.738
1077.065, 1285.231
1078.994, 1284.246
1080.922, 1282.673
1082.851, 1280.244
1084.779, 1279.046
1086.708, 1272.819
1088.636, 1266.793
1090.565, 1261.180
1092.493, 1258.372
1094.422, 1261.222
1096.350, 1263.869
1098.279, 1264.810
1100.207, 1264.331
1102.135, 1261.924
1104.064, 1259.002
1105.992, 1255.641
1107.921, 1252.315
1109.849, 1249.265
1111.778, 1246.099
1113.706, 1241.914
1115.635, 1239.158
1117.563, 1238.678
1119.492, 1238.628
1121.420, 1239.246
1123.349, 1239.432
1125.277, 1238.992
1127.206, 1238.520
1129.134, 1238.285
1131.063, 1237.519
1132.991, 1236.447
1134.919, 1233.688
1136.848, 1227.906
1138.776, 1225.241
1140.705, 1226.397
1142.633, 1226.766
1144.562, 1226.292
1146.490, 1225.965
1148.419, 1225.877
1150.347, 1226.079
1152.276, 1226.569
1154.204, 1226.213
1156.133, 1225.151
1158.061, 1224.208
1159.990, 1223.261
1161.918, 1222.536
1163.846, 1221.291
1165.775, 1216.623
1167.703, 1210.803
1169.632, 1209.037
1171.560, 1208.961
1173.489, 1206.795
1175.417, 1204.237
1177.346, 1203.572
1179.274, 1203.440
1181.203, 1202.547
1183.131, 1201.394
1185.060, 1200.215
1186.988, 1198.985
1188.917, 1197.792
1190.845, 1196.252
1192.773, 1194.130
1194.702, 1191.642
1196.630, 1188.299
1198.559, 1185.860
1200.487, 1185.398
1202.416, 1184.363
1204.344, 1181.821
1206.273, 1179.965
1208.201, 1179.151
1210.130, 1179.619
1212.058, 1178.360
1213.987, 1177.524
1215.915, 1177.668
1217.844, 1175.835
1219.772, 1176.010
1221.700, 1176.858
1223.629, 1177.989
1225.557, 1177.928
1227.486, 1176.757
1229.414, 1175.159
1231.343, 1172.943
1233.271, 1168.150
1235.200, 1163.819
1237.128, 1166.455
1239.057, 1170.546
1240.985, 1169.660
1242.914, 1166.944
1244.842, 1164.264
1246.771, 1162.104
1248.699, 1161.090
1250.627, 1160.132
1252.556, 1158.864
1254.484, 1157.248
1256.413, 1154.499
1258.341, 1153.289
1260.270, 1155.630
1262.198, 1156.063
1264.127, 1152.966
1266.055, 1150.795
1267.984, 1149.581
1269.912, 1150.627
1271.841, 1154.097
1273.769, 1155.099
1275.698, 1153.881
1277.626, 1152.399
1279.554, 1150.685
1281.483, 1148.477
1283.411, 1146.472
1285.340, 1146.689
1287.268, 1147.206
1289.197, 1145.438
1291.125, 1143.231
1293.054, 1142.235
1294.982, 1141.134
1296.911, 1138.645
1298.839, 1137.216
1300.768, 1138.127
1302.696, 1138.637
1304.625, 1137.893
1306.553, 1137.654
1308.481, 1138.336
1310.410, 1137.913
1312.338, 1136.259
1314.267, 1133.732
1316.195, 1130.941
1318.124, 1132.370
1320.052, 1135.891
1321.981, 1134.417
1323.909, 1130.555
1325.838, 1128.773
1327.766, 1127.379
1329.695, 1123.844
1331.623, 1120.723
1333.552, 1120.073
1335.480, 1120.202
1337.408, 1121.564
1339.337, 1121.401
1341.265, 1117.810
1343.194, 1115.303
1345.122, 1114.489
1347.051, 1114.005
1348.979, 1113.804
1350.908, 1112.656
1352.836, 1113.733
1354.765, 1112.264
1356.693, 1115.246
1358.622, 1116.464
1360.550, 1116.269
1362.479, 1115.228
1364.407, 1113.055
1366.335, 1108.251
1368.264, 1104.364
1370.192, 1103.352
1372.121, 1103.657
1374.049, 1105.932
1375.978, 1105.990
1377.906, 1105.066
1379.835, 1100.333
1381.763, 1101.388
1383.692, 1099.819
1385.620, 1096.485
1387.549, 1097.742
1389.477, 1101.699
1391.406, 1104.708
1393.334, 1106.428
1395.262, 1106.327
1397.191, 1104.781
1399.119, 1101.082
1401.048, 1097.838
1402.976, 1095.741
1404.905, 1095.253
1406.833, 1096.820
1408.762, 1097.609
1410.690, 1097.323
1412.619, 1096.267
1414.547, 1094.924
1416.476, 1096.697
1418.404, 1095.396
1420.333, 1097.988
1422.261, 1095.396
1424.189, 1096.134
1426.118, 1097.238
1428.046, 1096.621
1429.975, 1095.823
1431.903, 1095.894
1433.832, 1093.945
1435.760, 1093.631
1437.689, 1092.472
1439.617, 1090.849
1441.546, 1089.768
1443.474, 1085.910
1445.403, 1083.363
1447.331, 1081.949
1449.260, 1081.080
1451.188, 1081.451
1453.116, 1086.031
1455.045, 1087.758
1456.973, 1081.051
1458.902, 1075.474
1460.830, 1072.626
1462.759, 1071.738
1464.687, 1068.227
1466.616, 1070.622
1468.544, 1065.818
1470.473, 1066.552
1472.401, 1068.811
1474.330, 1065.865
1476.258, 1062.056
1478.187, 1060.347
1480.115, 1058.858
1482.043, 1056.952
1483.972, 1054.225
1485.900, 1052.390
1487.829, 1050.715
1489.757, 1048.204
1491.686, 1047.698
1493.614, 1046.503
1495.543, 1044.923
1497.471, 1042.783
1499.400, 1039.277
1501.328, 1036.017
1503.257, 1033.426
1505.185, 1032.368
1507.114, 1033.357
1509.042, 1034.097
1510.970, 1034.269
1512.899, 1031.146
1514.827, 1026.629
1516.756, 1030.074
1518.684, 1035.409
1520.613, 1033.432
1522.541, 1028.734
1524.470, 1023.338
1526.398, 1018.313
1528.327, 1013.537
1530.255, 1011.172
1532.184, 1011.428
1534.112, 1010.746
1536.041, 1009.248
1537.969, 1008.092
1539.897, 1007.218
1541.826, 1007.243
1543.754, 1006.321
1545.683, 1001.699
1547.611, 998.3463
1549.540, 997.9965
1551.468, 997.9006
1553.397, 997.8196
1555.325, 995.4774
1557.254, 991.6272
1559.182, 988.9368
1561.111, 986.7468
1563.039, 984.7719
1564.968, 982.1937
1566.896, 980.9515
1568.824, 979.4224
1570.753, 977.1943
1572.681, 976.5338
1574.610, 972.2334
1576.538, 969.0565
1578.467, 966.7218
1580.395, 965.1902
1582.324, 963.4483
1584.252, 960.0307
1586.181, 957.9939
1588.109, 956.1150
1590.038, 954.5322
1591.966, 953.6247
1593.895, 952.1432
1595.823, 950.9703
1597.751, 951.1576
1599.680, 948.5598
1601.608, 948.3414
1603.537, 947.1664
1605.465, 943.0352
1607.394, 939.6382
1609.322, 937.7867
1611.251, 935.4401
1613.179, 932.5535
1615.108, 929.4031
1617.036, 926.5687
1618.965, 925.2866
1620.893, 924.2810
1622.822, 923.1134
1624.750, 921.0767
1626.678, 917.8603
1628.607, 915.2678
1630.535, 913.4283
1632.464, 912.1057
1634.392, 911.7106
1636.321, 914.4798
1638.249, 916.2021
1640.178, 913.8300
1642.106, 910.2040
1644.035, 905.6315
1645.963, 902.2660
1647.892, 900.0392
1649.820, 897.2670
1651.749, 895.2794
1653.677, 897.6237
1655.605, 898.7673
1657.534, 894.2382
1659.462, 889.7632
1661.391, 885.9963
1663.319, 884.5989
1665.248, 881.0391
1667.176, 881.0449
1669.105, 876.7910
1671.033, 875.8850
1672.962, 875.1584
1674.890, 872.7151
1676.819, 871.0439
1678.747, 870.3336
1680.676, 871.0329
1682.604, 872.1096
1684.532, 870.1937
1686.461, 867.5168
1688.389, 866.3062
1690.318, 863.7667
1692.246, 861.2758
1694.175, 855.6447
1696.103, 855.5472
1698.032, 852.4603
1699.960, 848.6669
1701.889, 848.9572
1703.817, 848.6160
1705.746, 844.8627
1707.674, 841.8920
1709.603, 840.4820
1711.531, 839.8489
1713.459, 839.6091
1715.388, 838.8524
1717.316, 838.0108
1719.245, 837.9768
1721.173, 837.1364
1723.102, 835.2066
1725.030, 831.2237
1726.959, 826.0052
1728.887, 825.4257
1730.816, 825.2104
1732.744, 817.1290
1734.673, 811.5515
1736.601, 814.7742
1738.530, 815.1699
1740.458, 812.0091
1742.386, 809.5887
1744.315, 807.5052
1746.243, 804.7957
1748.172, 801.6921
1750.100, 797.5942
1752.029, 794.8801
1753.957, 793.8837
1755.886, 792.5101
1757.814, 790.6596
1759.743, 788.0925
1761.671, 785.3781
1763.600, 782.4948
1765.528, 780.7238
1767.457, 781.1840
1769.385, 777.6276
1771.313, 777.4941
1773.242, 773.3096
1775.170, 774.6660
1777.099, 770.4127
1779.027, 766.7363
1780.956, 765.5491
1782.884, 764.0238
1784.813, 762.1272
1786.741, 759.6134
1788.670, 757.4929
1790.598, 756.9316
1792.527, 755.7627
1794.455, 753.2448
1796.384, 752.7743
1798.312, 753.4587
1800.240, 751.7835
1802.169, 748.8212
1804.097, 744.3495
1806.026, 742.3531
1807.954, 743.8184
1809.883, 744.3154
1811.811, 743.3043
1813.740, 738.7068
1815.668, 734.5413
1817.597, 734.8316
1819.525, 734.4933
1821.454, 732.7457
1823.382, 729.1945
1825.311, 724.9899
1827.239, 723.1106
1829.167, 720.9407
1831.096, 715.7958
1833.024, 712.1065
1834.953, 710.2448
1836.881, 709.7644
1838.810, 709.0558
1840.738, 704.6573
1842.667, 700.8221
1844.595, 700.2001
1846.524, 699.9081
1848.452, 699.5080
1850.381, 695.8888
1852.309, 691.7882
1854.238, 690.9175
1856.166, 689.4601
1858.094, 685.5680
1860.023, 682.3701
1861.951, 679.9465
1863.880, 679.2178
1865.808, 678.3788
1867.737, 676.0032
1869.665, 673.4573
1871.594, 670.9721
1873.522, 669.5023
1875.451, 667.9668
1877.379, 665.7356
1879.308, 659.6674
1881.236, 661.1769
1883.165, 660.1796
1885.093, 656.8449
1887.021, 657.8036
1888.950, 659.1830
1890.878, 657.0810
1892.807, 654.0769
1894.735, 650.6591
1896.664, 646.7964
1898.592, 643.6801
1900.521, 646.2923
1902.449, 646.5638
1904.378, 640.2556
1906.306, 635.1010
1908.235, 632.1718
1910.163, 631.6682
1912.092, 631.6805
1914.020, 629.4684
1915.948, 628.9626
1917.877, 630.8187
1919.805, 630.8767
1921.734, 629.0944
1923.662, 624.8895
1925.591, 621.1107
1927.519, 619.2609
1929.448, 617.2684
1931.376, 615.4098
1933.305, 616.7043
1935.233, 616.7322
1937.162, 609.6185
1939.090, 605.9041
1941.019, 606.7050
1942.947, 605.2346
1944.875, 602.9880
1946.804, 602.4969
1948.732, 601.0612
1950.661, 597.1478
1952.589, 595.4189
1954.518, 594.6624
1956.446, 591.3536
1958.375, 588.4330
1960.303, 586.7804
1962.232, 589.5211
1964.160, 594.7215
1966.089, 592.2910
1968.017, 586.1657
1969.946, 577.6422
1971.874, 573.1473
1973.802, 573.3313
1975.731, 572.0281
1977.659, 569.9769
1979.588, 567.5020
1981.516, 566.5025
1983.445, 567.3309
1985.373, 564.0045
1987.302, 563.9667
1989.230, 560.9818
1991.159, 561.0085
1993.087, 558.0167
1995.016, 554.6467
1996.944, 551.8992
1998.873, 549.3823
2000.801, 547.2950
2002.729, 545.8620
2004.658, 543.7888
2006.586, 544.3793
2008.515, 542.6389
2010.443, 540.1829
2012.372, 537.6791
2014.300, 535.5524
2016.229, 533.6224
2018.157, 531.2084
2020.086, 528.6448
2022.014, 526.0668
2023.943, 523.7521
2025.871, 521.6711
2027.800, 519.4122
2029.728, 517.5411
2031.656, 516.8815
2033.585, 515.6359
2035.513, 513.7020
2037.442, 511.4916
2039.370, 508.7689
2041.299, 506.9367
2043.227, 505.0693
2045.156, 502.7787
2047.084, 501.5129
2049.013, 499.4443
2050.941, 496.8644
2052.870, 494.8944
2054.798, 493.4784
2056.727, 490.0536
2058.655, 487.2866
2060.583, 487.6016
2062.512, 485.8684
2064.440, 481.8374
2066.369, 479.5993
2068.297, 477.6507
2070.226, 474.7191
2072.154, 473.2203
2074.083, 473.1299
2076.011, 472.5199
2077.940, 471.0271
2079.868, 469.4789
2081.797, 466.1198
2083.725, 464.8395
2085.654, 461.5216
2087.582, 458.4488
2089.510, 457.2857
2091.439, 455.0917
2093.367, 452.4660
2095.296, 452.3261
2097.224, 452.1852
2099.153, 450.5830
2101.081, 449.8899
2103.010, 449.3875
2104.938, 446.4009
2106.867, 444.5940
2108.795, 442.8589
2110.724, 439.9997
2112.652, 438.9205
2114.581, 435.5739
2116.509, 433.4830
2118.438, 432.8507
2120.366, 430.2119
2122.294, 427.6169
2124.223, 428.2321
2126.151, 428.1031
2128.080, 426.4357
2130.008, 423.0894
2131.937, 420.2958
2133.865, 420.5709
2135.794, 419.1505
2137.722, 415.9377
2139.651, 414.8734
2141.579, 413.8592
2143.508, 411.5207
2145.436, 409.7448
2147.365, 408.6240
2149.293, 408.1961
2151.221, 407.8722
2153.150, 407.4480
2155.078, 407.3737
2157.007, 406.6964
2158.935, 403.2959
2160.864, 399.2118
2162.792, 395.0465
2164.721, 392.5765
2166.649, 391.7539
2168.578, 393.1506
2170.506, 394.6461
2172.435, 395.4213
2174.363, 392.5698
2176.292, 389.8622
2178.220, 389.3936
2180.148, 389.6201
2182.077, 389.2318
2184.005, 385.3863
2185.934, 381.6440
2187.862, 378.9737
2189.791, 376.2404
2191.719, 374.6331
2193.648, 376.7181
2195.576, 376.7567
2197.505, 374.5131
2199.433, 371.4442
2201.362, 369.0042
2203.290, 368.5706
2205.219, 367.3356
2207.147, 365.6272
2209.075, 363.8867
2211.004, 362.8228
2212.932, 362.6378
2214.861, 362.7654
2216.789, 362.1335
2218.718, 359.5987
2220.646, 358.0445
2222.575, 357.0786
2224.503, 353.7333
2226.432, 351.0812
2228.360, 350.2806
2230.289, 349.7607
2232.217, 348.8864
2234.146, 346.8417
2236.074, 344.8529
2238.002, 343.2512
2239.931, 342.7372
2241.859, 342.0562
2243.788, 340.6628
2245.716, 338.1630
2247.645, 335.7433
2249.573, 335.8387
2251.502, 335.2309
2253.430, 333.4516
2255.359, 333.2185
2257.287, 331.6155
2259.216, 330.6975
2261.144, 329.1394
2263.073, 326.0767
2265.001, 325.3878
2266.929, 323.7982
2268.858, 321.2256
2270.786, 322.9129
2272.715, 323.7794
2274.643, 319.3332
2276.572, 317.3670
2278.500, 316.9482
2280.429, 316.5282
2282.357, 315.3147
2284.286, 313.3320
2286.214, 311.7805
2288.143, 310.9929
2290.071, 311.6418
2292.000, 311.0140
2293.928, 309.2138
2295.856, 306.1176
2297.785, 303.8959
2299.713, 302.7350
2301.642, 301.4092
2303.570, 300.6964
2305.499, 301.0069
2307.427, 300.5605
2309.356, 299.2676
2311.284, 296.9501
2313.213, 294.6947
2315.141, 292.9752
2317.070, 293.3682
2318.998, 293.0803
2320.927, 291.3876
2322.855, 290.4821
2324.783, 289.6796
2326.712, 288.5523
2328.640, 285.7626
2330.569, 282.7755
2332.497, 282.9278
2334.426, 282.5633
2336.354, 281.4965
2338.283, 280.9933
2340.211, 279.4045
2342.140, 279.0280
2344.068, 276.5689
2345.997, 275.3309
2347.925, 275.0748
2349.854, 274.2141
2351.782, 273.4089
2353.710, 275.2373
2355.639, 275.4296
2357.567, 273.3499
2359.496, 271.6125
2361.424, 270.6067
2363.353, 271.0602
2365.281, 270.0829
2367.210, 268.0096
2369.138, 264.7746
2371.067, 262.9319
2372.995, 262.5356
2374.924, 263.6422
2376.852, 264.3250
2378.781, 264.0786
2380.709, 262.3597
2382.637, 260.9425
2384.566, 260.6813
2386.494, 259.0430
2388.423, 257.6181
2390.351, 257.9667
2392.280, 258.6516
2394.208, 258.5349
2396.137, 254.5485
2398.065, 252.5034
2399.994, 252.5117
2401.922, 250.1807
2403.851, 249.2742
2405.779, 250.6233
2407.708, 250.5039
2409.636, 248.9959
2411.564, 246.0520
2413.493, 246.0867
2415.421, 246.6917
2417.350, 244.0828
2419.278, 243.3914
2421.207, 243.5405
2423.135, 241.4423
2425.064, 238.8311
2426.992, 236.4462
2428.921, 236.1386
2430.849, 235.7717
2432.778, 234.6884
2434.706, 234.3216
2436.635, 234.1793
2438.563, 234.2614
2440.491, 232.9316
2442.420, 230.7842
2444.348, 230.6159
2446.277, 227.8857
2448.205, 228.8767
2450.134, 227.0637
2452.062, 225.7858
2453.991, 225.3543
2455.919, 225.5230
2457.848, 225.7110
2459.776, 225.5496
2461.705, 224.5777
2463.633, 221.6449
2465.562, 221.6623
2467.490, 218.9652
2469.418, 216.4588
2471.347, 215.5721
2473.275, 213.5802
2475.204, 212.4653
2477.132, 211.7149
2479.061, 210.8470
2480.989, 211.3653
2482.918, 211.5576
2484.846, 210.5576
2486.775, 209.0916
2488.703, 208.8571
2490.632, 207.4113
2492.560, 205.3002
2494.489, 204.5738
2496.417, 204.1377
2498.345, 203.7424
2500.274, 203.5803
2502.202, 202.7000
2504.131, 201.1275
2506.059, 200.5636
2507.988, 200.4575
2509.916, 200.5974
2511.845, 200.1875
2513.773, 198.7978
2515.702, 195.8591
2517.630, 195.5307
2519.559, 195.4925
2521.487, 194.0033
2523.416, 193.9754
2525.344, 193.8099
2527.272, 192.1096
2529.201, 191.2591
2531.129, 190.4848
2533.058, 188.7138
2534.986, 189.0850
2536.915, 189.7993
2538.843, 188.2442
2540.772, 187.1223
2542.700, 186.2665
2544.629, 184.7661
2546.557, 184.0467
2548.486, 184.3547
2550.414, 183.6203
2552.343, 183.8824
2554.271, 183.6144
2556.199, 184.1027
2558.128, 184.5463
2560.056, 184.2350
2561.985, 182.7146
2563.913, 180.9346
2565.842, 179.1556
2567.770, 177.2040
2569.699, 176.5712
2571.627, 177.0397
2573.556, 177.5858
2575.484, 176.1416
2577.413, 173.4172
2579.341, 174.0672
2581.270, 173.7323
2583.198, 172.0029
2585.126, 172.7633
2587.055, 172.1635
2588.983, 169.6705
2590.912, 167.3306
2592.840, 167.0984
2594.769, 165.7450
2596.697, 165.1165
2598.626, 165.5028
2600.554, 164.2125
2602.483, 165.1998
2604.411, 164.6027
2606.340, 162.2117
2608.268, 163.8679
2610.197, 163.7474
2612.125, 161.0845
2614.053, 161.0653
2615.982, 159.4866
2617.910, 156.4009
2619.839, 158.0148
2621.767, 158.4517
2623.696, 156.6588
2625.624, 154.1645
2627.553, 153.9110
2629.481, 155.1871
2631.410, 152.5391
2633.338, 152.5214
2635.267, 154.4341
2637.195, 151.6533
2639.124, 149.8372
2641.052, 149.5534
2642.980, 149.4636
2644.909, 149.4558
2646.837, 149.1469
2648.766, 147.7047
2650.694, 145.7637
2652.623, 144.3656
2654.551, 145.7218
2656.480, 145.7204
2658.408, 144.5396
2660.337, 142.8203
2662.265, 143.3246
2664.194, 144.2643
2666.122, 143.0216
2668.051, 142.9540
2669.979, 143.0791
2671.907, 142.1995
2673.836, 141.8935
2675.764, 141.1294
2677.693, 140.2993
2679.621, 139.5816
2681.550, 138.2272
2683.478, 137.8327
2685.407, 137.7917
2687.335, 136.6421
2689.264, 134.1186
2691.192, 134.0899
2693.121, 133.5480
2695.049, 131.8748
2696.978, 133.1873
2698.906, 132.7009
2700.834, 130.2702
2702.763, 131.1753
2704.691, 131.0927
2706.620, 130.0758
2708.548, 131.5911
2710.477, 130.4628
2712.405, 127.7945
2714.334, 127.0493
2716.262, 126.3080
2718.191, 125.8174
2720.119, 126.6458
2722.048, 124.9997
2723.976, 123.3435
2725.905, 124.1211
2727.833, 127.0496
2729.761, 128.2017
2731.690, 124.9758
2733.618, 123.8532
2735.547, 122.6303
2737.475, 120.6931
2739.404, 121.1230
2741.332, 120.7843
2743.261, 119.3573
2745.189, 118.5129
2747.118, 118.8521
2749.046, 119.3378
2750.975, 117.7766
2752.903, 116.0181
2754.832, 115.2122
2756.760, 116.5070
2758.688, 114.3524
2760.617, 113.3524
2762.545, 116.3047
2764.474, 115.3321
2766.402, 113.5595
2768.331, 112.6129
2770.259, 113.5277
2772.188, 113.1011
2774.116, 111.7023
2776.045, 113.2843
2777.973, 112.8538
2779.902, 110.9512
2781.830, 109.6961
2783.759, 107.9452
2785.687, 106.6143
2787.615, 106.6474
2789.544, 108.3548
2791.472, 109.2010
2793.401, 107.9968
2795.329, 108.0157
2797.258, 107.2966
2799.186, 106.0429
2801.115, 107.2884
2803.043, 106.1597
2804.972, 104.2605
2806.900, 105.1035
2808.829, 104.2834
2810.757, 103.1382
2812.686, 102.8952
2814.614, 99.85839
2816.542, 98.28696
2818.471, 99.51296
2820.399, 99.67705
2822.328, 99.36938
2824.256, 98.79849
2826.185, 98.02873
2828.113, 97.21133
2830.042, 96.44170
2831.970, 95.80821
2833.899, 95.16326
2835.827, 94.70113
2837.756, 94.00137
2839.684, 93.74720
2841.613, 93.11462
2843.541, 92.28522
2845.469, 91.79246
2847.398, 90.51709
2849.326, 89.61642
2851.255, 91.15202
2853.183, 91.03301
2855.112, 89.89021
2857.040, 88.23524
2858.969, 87.87559
2860.897, 87.67387
2862.826, 87.23342
2864.754, 86.15807
2866.683, 85.79089
2868.611, 86.82032
2870.540, 85.23914
2872.468, 87.02009
2874.396, 83.99033
2876.325, 83.01671
2878.253, 83.92416
2880.182, 84.28748
2882.110, 84.12637
2884.039, 84.21052
2885.967, 84.46880
2887.896, 83.90115
2889.824, 82.08819
2891.753, 80.18891
2893.681, 79.38821
2895.610, 79.61693
2897.538, 79.81973
2899.467, 80.48852
2901.395, 80.80777
2903.323, 79.92967
2905.252, 79.72440
2907.180, 80.38094
2909.109, 79.46613
2911.037, 79.99071
2912.966, 78.60844
2914.894, 77.64251
2916.823, 77.31052
2918.751, 77.22060
2920.680, 76.34436
2922.608, 76.07991
2924.537, 75.65878
2926.465, 75.10197
2928.394, 74.89762
2930.322, 74.46671
2932.250, 74.16319
2934.179, 74.45947
2936.107, 75.37280
2938.036, 74.38311
2939.964, 74.04076
2941.893, 73.63885
2943.821, 71.05901
2945.750, 69.54234
2947.678, 70.12688
2949.607, 72.46822
2951.535, 72.70782
2953.464, 72.48166
2955.392, 72.11032
2957.321, 71.45370
2959.249, 70.64497
2961.177, 69.27458
2963.106, 67.65620
2965.034, 68.92545
2966.963, 68.14982
2968.891, 66.59119
2970.820, 67.84467
2972.748, 67.58936
2974.677, 67.15156
2976.605, 67.02380
2978.534, 66.14214
2980.462, 65.97868
2982.391, 65.84835
2984.319, 65.71967
2986.248, 65.83101
2988.176, 65.78871
2990.104, 66.16296
2992.033, 65.82052
2993.961, 65.99760
2995.890, 62.62592
2997.818, 65.30753
2999.747, 62.51063
3001.675, 61.56106
3003.604, 62.71765
3005.532, 62.95263
3007.461, 62.29231
3009.389, 61.42541
3011.318, 60.69568
3013.246, 59.63410
3015.175, 60.37487
3017.103, 59.40584
3019.031, 61.58810
3020.960, 59.19246
3022.888, 58.85337
3024.817, 60.01207
3026.745, 57.45750
3028.674, 58.26660
3030.602, 58.86583
3032.531, 57.44593
3034.459, 57.96757
3036.388, 59.39613
3038.316, 59.93467
3040.245, 57.35085
3042.173, 57.63152
3044.102, 57.25908
3046.030, 55.85629
3047.958, 55.05097
3049.887, 54.27562
3051.815, 53.69587
3053.744, 53.41029
3055.672, 53.37519
3057.601, 52.61517
3059.529, 52.57049
3061.458, 54.30349
3063.386, 53.41164
3065.315, 53.23999
3067.243, 53.59600
3069.172, 52.77848
3071.100, 53.99549
3073.029, 53.66520
3074.957, 51.68947
3076.885, 52.45215
3078.814, 51.70301
3080.742, 50.83077
3082.671, 50.79852
3084.599, 51.74398
3086.528, 49.73132
3088.456, 48.89118
3090.385, 52.84880
3092.313, 52.78245
3094.242, 51.41797
3096.170, 49.84710
3098.099, 48.25906
3100.027, 48.44214
3101.956, 47.71635
3103.884, 50.17565
3105.813, 47.90667
3107.741, 48.33766
3109.669, 48.73229
3111.598, 47.93523
3113.526, 46.64835
3115.455, 47.07648
3117.383, 48.46191
3119.312, 49.65404
3121.240, 47.98139
3123.169, 45.97917
3125.097, 45.43243
3127.026, 46.68888
3128.954, 46.03578
3130.883, 46.35435
3132.811, 46.70728
3134.740, 45.99887
3136.668, 45.33421
3138.596, 45.36916
3140.525, 46.17201
3142.453, 47.41875
3144.382, 44.69056
3146.310, 43.99939
3148.239, 45.10247
3150.167, 45.77307
3152.096, 43.99951
3154.024, 44.43267
3155.953, 45.89266
3157.881, 44.70588
3159.810, 42.99114
3161.738, 43.66680
3163.667, 42.34030
3165.595, 43.12714
3167.523, 41.81161
3169.452, 42.34370
3171.380, 43.47602
3173.309, 42.70850
3175.237, 41.63475
3177.166, 42.47220
3179.094, 41.45067
3181.023, 44.27454
3182.951, 41.46540
3184.880, 41.62515
3186.808, 43.46697
3188.737, 41.67579
3190.665, 40.95952
3192.594, 40.21306
3194.522, 40.00104
3196.450, 39.51869
3198.379, 39.27700
3200.307, 39.00076
3202.236, 40.76649
3204.164, 40.68807
3206.093, 42.38381
3208.021, 40.49867
3209.950, 37.98738
3211.878, 40.92495
3213.807, 39.50913
3215.735, 39.35236
3217.664, 40.09845
3219.592, 39.72723
3221.521, 39.66749
3223.449, 38.86534
3225.377, 38.07669
3227.306, 38.09785
3229.234, 36.95649
3231.163, 36.85966
3233.091, 36.78550
3235.020, 35.99376
3236.948, 36.70449
3238.877, 37.51491
3240.805, 37.10336
3242.734, 35.55132
3244.662, 35.65902
3246.591, 35.10733
3248.519, 34.32924
3250.448, 33.87962
3252.376, 34.37038
3254.304, 34.45768
3256.233, 34.37922
3258.161, 34.46602
3260.090, 34.23602
3262.018, 34.17008
3263.947, 33.71088
3265.875, 33.35054
3267.804, 32.99545
3269.732, 32.54480
3271.661, 32.79118
3273.589, 32.69792
3275.518, 32.78323
3277.446, 34.63825
3279.375, 32.66106
3281.303, 31.76272
3283.231, 33.60487
3285.160, 33.51156
3287.088, 30.62768
3289.017, 30.83514
3290.945, 34.02655
3292.874, 36.10884
3294.802, 33.44353
3296.731, 32.13289
3298.659, 33.10609
3300.588, 35.06908
3302.516, 35.35480
3304.445, 33.89754
3306.373, 33.70103
3308.302, 34.88023
3310.230, 32.05206
3312.158, 31.49278
3314.087, 31.43210
3316.015, 32.19929
3317.944, 32.06510
3319.872, 33.56784
3321.801, 32.44543
3323.729, 32.21539
3325.658, 31.76347
3327.586, 33.24213
3329.515, 33.52337
3331.443, 32.51349
3333.372, 30.89470
3335.300, 29.61875
3337.229, 30.06417
3339.157, 31.81470
3341.085, 33.04200
3343.014, 32.26015
3344.942, 30.69187
3346.871, 29.56524
3348.799, 29.31722
3350.728, 30.16151
3352.656, 32.22443
3354.585, 31.19938
3356.513, 31.45284
3358.442, 30.95788
3360.370, 30.66041
3362.299, 30.95524
3364.227, 30.86531
3366.156, 31.47310
3368.084, 33.01754
3370.012, 29.50608
3371.941, 27.29380
3373.869, 28.63883
3375.798, 30.11100
3377.726, 28.94125
3379.655, 31.10568
3381.583, 29.75628
3383.512, 29.30553
3385.440, 30.56025
3387.369, 30.93478
3389.297, 29.92426
3391.226, 29.39487
3393.154, 29.68315
3395.083, 30.02185
3397.011, 28.18563
3398.939, 27.33329
3400.868, 26.76662
3402.796, 27.05963
3404.725, 28.47197
3406.653, 26.18166
3408.582, 27.20026
3410.510, 29.41691
3412.439, 30.12176
3414.367, 27.73322
3416.296, 28.50888
3418.224, 28.56474
3420.153, 28.67520
3422.081, 29.26942
3424.010, 28.44520
3425.938, 29.74656
3427.866, 29.47547
3429.795, 28.13473
3431.723, 27.34164
3433.652, 28.63791
3435.580, 27.53024
3437.509, 27.39927
3439.437, 28.02638
3441.366, 27.98357
3443.294, 29.30517
3445.223, 27.76394
3447.151, 27.56796
3449.080, 28.10594
3451.008, 26.17676
3452.937, 25.74368
3454.865, 26.45390
3456.793, 26.81975
3458.722, 26.95481
##END=



