##NAMES=Bismuthinite
##RRUFFID=R061077
##IDEAL CHEMISTRY=Bi_2_S_3_
##LOCALITY=Jersey mine, Salmo, British Columbia, Canada
##OWNER=RRUFF
##SOURCE=Lloyd Twaites
##DESCRIPTION=Metallic grey prismatic single crystals
##STATUS=The identification of this mineral has been confirmed by single-crystal X-ray diffraction
##URL=https://www.rruff.net/odr/rruff_sample/R061077
##DIFFRACTION SAMPLE DESCRIPTION=Single crystal, powder profile is calculated
##CELL PARAMETERS=a: 11.2 b: 3.98 c: 11.1 alpha: 90 beta: 90 gamma: 90 volume: 496 crystal system: orthorhombic
##FILETYPE=Raman RAW
##RAMAN WAVELENGTH=532

118.8318, 388.1101
120.7603, 498.5486
122.6887, 610.5355
124.6172, 723.3958
126.5457, 836.4570
128.4741, 900.6570
130.4026, 873.0836
132.3311, 846.6975
134.2595, 829.8513
136.1880, 824.7866
138.1165, 823.1823
140.0449, 823.4468
141.9734, 825.4960
143.9019, 827.3232
145.8303, 823.7480
147.7588, 819.0609
149.6873, 824.1670
151.6157, 844.8510
153.5442, 868.2783
155.4727, 887.7590
157.4011, 901.8120
159.3296, 918.8642
161.2581, 941.2375
163.1865, 968.8894
165.1150, 997.6155
167.0435, 1032.855
168.9719, 1066.175
170.9004, 1089.508
172.8289, 1093.148
174.7573, 1102.428
176.6858, 1127.751
178.6143, 1178.650
180.5427, 1215.713
182.4712, 1230.293
184.3997, 1231.568
186.3281, 1233.449
188.2566, 1242.035
190.1851, 1246.867
192.1135, 1241.568
194.0420, 1223.130
195.9705, 1207.649
197.8989, 1198.958
199.8274, 1195.996
201.7559, 1196.036
203.6843, 1194.915
205.6128, 1199.144
207.5413, 1213.680
209.4697, 1238.111
211.3982, 1270.792
213.3267, 1308.595
215.2551, 1350.783
217.1836, 1407.043
219.1121, 1483.789
221.0405, 1570.255
222.9690, 1655.795
224.8975, 1741.192
226.8259, 1824.055
228.7544, 1905.972
230.6829, 1989.354
232.6113, 2059.857
234.5398, 2123.409
236.4683, 2171.556
238.3967, 2196.802
240.3252, 2190.442
242.2537, 2166.712
244.1821, 2122.578
246.1106, 2052.098
248.0391, 1989.330
249.9675, 1942.933
251.8960, 1906.823
253.8245, 1870.372
255.7529, 1840.327
257.6814, 1803.904
259.6099, 1752.539
261.5384, 1684.950
263.4668, 1614.276
265.3953, 1540.067
267.3238, 1464.264
269.2522, 1394.105
271.1807, 1329.321
273.1092, 1270.481
275.0376, 1219.484
276.9661, 1177.170
278.8946, 1137.294
280.8230, 1098.679
282.7515, 1061.231
284.6800, 1023.994
286.6084, 982.2366
288.5369, 943.6830
290.4654, 913.2351
292.3938, 893.1607
294.3223, 873.1276
296.2508, 849.0168
298.1792, 821.9713
300.1077, 800.8447
302.0362, 792.2430
303.9646, 784.3610
305.8931, 770.2883
307.8216, 745.7095
309.7500, 724.2640
311.6785, 709.2194
313.6070, 699.9808
315.5354, 690.4806
317.4639, 680.5757
319.3924, 670.6566
321.3208, 660.9538
323.2493, 651.6636
325.1778, 642.3972
327.1062, 631.3382
329.0347, 619.8945
330.9632, 613.0051
332.8916, 614.2620
334.8201, 617.0624
336.7486, 617.8242
338.6770, 616.7070
340.6055, 612.7193
342.5340, 602.4896
344.4624, 589.0940
346.3909, 580.7562
348.3194, 581.7962
350.2478, 584.7656
352.1763, 586.1264
354.1048, 585.0933
356.0332, 583.5146
357.9617, 580.8651
359.8902, 577.6764
361.8186, 574.8757
363.7471, 571.4471
365.6756, 569.4343
367.6040, 570.0800
369.5325, 575.8586
371.4610, 578.9702
373.3894, 577.0743
375.3179, 572.7118
377.2464, 569.7594
379.1748, 570.2695
381.1033, 570.2576
383.0318, 568.6141
384.9602, 565.1108
386.8887, 560.7947
388.8172, 553.9365
390.7456, 547.1407
392.6741, 543.0428
394.6026, 543.8251
396.5310, 544.9028
398.4595, 544.1655
400.3880, 541.3940
402.3164, 542.4630
404.2449, 551.7374
406.1734, 562.2607
408.1018, 568.6828
410.0303, 568.1142
411.9588, 567.2108
413.8872, 567.4904
415.8157, 568.4775
417.7442, 567.6227
419.6726, 563.6753
421.6011, 558.9708
423.5296, 554.4854
425.4580, 548.9955
427.3865, 546.6193
429.3150, 549.8022
431.2434, 556.1918
433.1719, 560.4014
435.1004, 561.6603
437.0288, 561.9299
438.9573, 561.6499
440.8858, 559.9403
442.8142, 560.7238
444.7427, 566.4389
446.6712, 573.4063
448.5996, 577.3152
450.5281, 577.3801
452.4566, 576.0229
454.3850, 573.0648
456.3135, 568.3848
458.2420, 566.0273
460.1705, 568.6009
462.0989, 571.2819
464.0274, 570.2667
465.9559, 564.7993
467.8843, 560.8475
469.8128, 560.1285
471.7413, 561.9348
473.6697, 564.9238
475.5982, 570.3627
477.5267, 575.7041
479.4551, 581.8578
481.3836, 588.6571
483.3121, 589.5505
485.2405, 574.7611
487.1690, 557.6643
489.0975, 549.6750
491.0259, 560.4784
492.9544, 568.6334
494.8829, 571.2838
496.8113, 569.6240
498.7398, 566.6581
500.6683, 560.5709
502.5967, 555.3297
504.5252, 552.9191
506.4537, 555.1232
508.3821, 555.9947
510.3106, 552.9431
512.2391, 549.6187
514.1675, 550.2576
516.0960, 557.9661
518.0245, 563.8123
519.9529, 565.0038
521.8814, 561.7375
523.8099, 558.9688
525.7383, 557.2426
527.6668, 555.6036
529.5953, 552.7375
531.5237, 547.9839
533.4522, 546.3160
535.3807, 551.0696
537.3091, 558.3992
539.2376, 562.8805
541.1661, 564.4192
543.0945, 563.5107
545.0230, 557.5802
546.9515, 548.6145
548.8799, 543.4863
550.8084, 547.9320
552.7369, 552.6627
554.6653, 553.4681
556.5938, 548.0721
558.5223, 544.0433
560.4507, 542.2742
562.3792, 541.6108
564.3077, 540.8083
566.2361, 539.9565
568.1646, 538.6179
570.0931, 536.3344
572.0215, 533.3101
573.9500, 531.1101
575.8785, 530.3534
577.8069, 529.9090
579.7354, 529.5407
581.6639, 529.3317
583.5923, 528.7178
585.5208, 525.9044
587.4493, 523.5118
589.3777, 524.2799
591.3062, 530.8142
593.2347, 535.7403
595.1631, 536.7628
597.0916, 535.3643
599.0201, 534.5569
600.9485, 535.4279
602.8770, 535.5679
604.8055, 533.4903
606.7339, 528.9541
608.6624, 527.2856
610.5909, 532.1341
612.5193, 537.2260
614.4478, 538.4606
616.3763, 535.3777
618.3047, 532.5987
620.2332, 530.6167
622.1617, 529.3645
624.0901, 528.8849
626.0186, 529.3895
627.9471, 530.0095
629.8755, 529.6977
631.8040, 529.3569
633.7325, 531.4603
635.6609, 539.9396
637.5894, 546.1381
639.5179, 546.4651
641.4464, 540.0003
643.3748, 534.1109
645.3033, 528.5861
647.2318, 523.9473
649.1602, 520.0078
651.0887, 516.3557
653.0172, 516.0267
654.9456, 522.5018
656.8741, 531.4243
658.8026, 537.9603
660.7310, 540.7455
662.6595, 542.3615
664.5880, 540.4039
666.5164, 537.4346
668.4449, 539.7226
670.3734, 553.5832
672.3018, 562.7513
674.2303, 558.7488
676.1588, 540.7220
678.0872, 531.7770
680.0157, 539.7977
681.9442, 548.9258
683.8726, 549.2034
685.8011, 540.9765
687.7296, 536.3026
689.6580, 541.6781
691.5865, 548.4161
693.5150, 549.6710
695.4434, 539.0117
697.3719, 533.9388
699.3004, 539.3427
701.2288, 549.2384
703.1573, 555.2952
705.0858, 557.5726
707.0142, 556.6268
708.9427, 548.9992
710.8712, 538.1273
712.7996, 533.8566
714.7281, 544.0153
716.6566, 552.9212
718.5850, 556.0742
720.5135, 554.0557
722.4420, 554.0660
724.3704, 558.5674
726.2989, 562.0060
728.2274, 560.5156
730.1558, 553.5400
732.0843, 550.0776
734.0128, 553.6395
735.9412, 558.4540
737.8697, 561.0027
739.7982, 560.7275
741.7266, 560.9741
743.6551, 562.1250
745.5836, 563.9747
747.5120, 566.7043
749.4405, 571.2021
751.3690, 573.8562
753.2974, 573.4468
755.2259, 571.4238
757.1544, 569.4451
759.0828, 565.8289
761.0113, 565.1874
762.9398, 570.7645
764.8682, 579.2142
766.7967, 585.1911
768.7252, 587.6631
770.6536, 588.9089
772.5821, 590.1803
774.5106, 590.9897
776.4390, 589.0774
778.3675, 580.4594
780.2960, 573.9576
782.2244, 574.9575
784.1529, 580.7040
786.0814, 580.6810
788.0098, 567.2875
789.9383, 557.4110
791.8668, 559.5576
793.7952, 574.8189
795.7237, 584.8001
797.6522, 585.7103
799.5806, 585.0716
801.5091, 585.5944
803.4376, 587.2521
805.3660, 590.7326
807.2945, 600.1421
809.2230, 607.2324
811.1514, 606.9775
813.0799, 597.9138
815.0084, 590.2269
816.9368, 583.4195
818.8653, 579.0084
820.7938, 578.5286
822.7222, 582.5071
824.6507, 587.4088
826.5792, 595.0016
828.5077, 601.7200
830.4362, 605.3068
832.3646, 605.4180
834.2931, 603.6910
836.2216, 597.4129
838.1500, 591.3321
840.0785, 590.1094
842.0070, 597.7195
843.9354, 601.3157
845.8639, 595.3530
847.7924, 588.1925
849.7208, 588.3176
851.6493, 597.3505
853.5778, 604.6063
855.5062, 605.3969
857.4347, 604.4470
859.3632, 606.2696
861.2916, 615.9925
863.2201, 620.5410
865.1486, 615.4609
867.0770, 607.2487
869.0055, 603.0095
870.9340, 602.5786
872.8624, 605.6124
874.7909, 615.5858
876.7194, 627.2672
878.6478, 635.5679
880.5763, 640.7001
882.5048, 641.5160
884.4332, 635.0254
886.3617, 625.8904
888.2902, 619.1133
890.2186, 613.6624
892.1471, 613.2989
894.0756, 625.1871
896.0040, 639.0248
897.9325, 644.3417
899.8610, 638.5797
901.7894, 632.9024
903.7179, 627.4270
905.6464, 624.0762
907.5748, 625.2650
909.5033, 635.9895
911.4318, 642.9549
913.3602, 643.0225
915.2887, 640.8874
917.2172, 640.6916
919.1456, 642.2031
921.0741, 646.4301
923.0026, 658.4642
924.9310, 669.9887
926.8595, 673.9221
928.7880, 666.8765
930.7164, 661.0000
932.6449, 656.2815
934.5734, 653.3569
936.5018, 652.9673
938.4303, 655.2421
940.3588, 658.9170
942.2872, 665.7202
944.2157, 672.1696
946.1442, 675.7585
948.0726, 676.2810
950.0011, 676.7275
951.9296, 677.7770
953.8580, 678.7435
955.7865, 679.7848
957.7150, 681.3806
959.6434, 680.9125
961.5719, 675.4312
963.5004, 671.0665
965.4288, 670.9064
967.3573, 674.5801
969.2858, 680.7680
971.2142, 693.0334
973.1427, 702.1951
975.0712, 702.0292
976.9996, 693.1955
978.9281, 689.8181
980.8566, 698.8282
982.7850, 705.7347
984.7135, 705.8945
986.6420, 700.8303
988.5704, 696.5630
990.4989, 690.8938
992.4274, 689.8925
994.3558, 701.2399
996.2843, 717.1669
998.2128, 723.0212
1000.141, 712.0686
1002.070, 706.4357
1003.998, 717.2626
1005.927, 733.9846
1007.855, 742.0472
1009.784, 733.6206
1011.712, 727.3518
1013.641, 724.9695
1015.569, 724.1627
1017.497, 722.2596
1019.426, 719.0331
1021.354, 717.6860
1023.283, 719.6168
1025.211, 722.8801
1027.140, 725.5297
1029.068, 727.2662
1030.997, 731.8471
1032.925, 745.7630
1034.854, 756.6658
1036.782, 757.6876
1038.711, 748.8843
1040.639, 743.3958
1042.568, 741.5519
1044.496, 742.4900
1046.424, 749.2119
1048.353, 758.4540
1050.281, 760.5764
1052.210, 750.3441
1054.138, 743.7285
1056.067, 748.9174
1057.995, 759.9754
1059.924, 768.3945
1061.852, 774.8300
1063.781, 776.6710
1065.709, 769.3919
1067.638, 760.5391
1069.566, 758.4950
1071.495, 766.5275
1073.423, 770.5382
1075.351, 766.1042
1077.280, 760.9362
1079.208, 760.9385
1081.137, 765.1054
1083.065, 766.0659
1084.994, 759.3783
1086.922, 754.4752
1088.851, 756.2573
1090.779, 763.3347
1092.708, 768.2980
1094.636, 769.2769
1096.565, 770.1931
1098.493, 771.2864
1100.422, 772.6136
1102.350, 774.6207
1104.278, 778.1404
1106.207, 779.6478
1108.135, 776.7897
1110.064, 773.0320
1111.992, 771.1582
1113.921, 771.2740
1115.849, 772.6081
1117.778, 776.3214
1119.706, 780.2062
1121.635, 783.5103
1123.563, 786.2528
1125.492, 787.9460
1127.420, 787.4821
1129.349, 786.9221
1131.277, 786.1472
1133.205, 785.3646
1135.134, 785.2642
1137.062, 786.0141
1138.991, 786.5655
1140.919, 785.6234
1142.848, 785.1931
1144.776, 788.7072
1146.705, 796.3245
1148.633, 798.2408
1150.562, 786.6083
1152.490, 776.9306
1154.419, 777.6877
1156.347, 787.9213
1158.276, 796.3670
1160.204, 801.7791
1162.132, 806.7914
1164.061, 814.2426
1165.989, 820.6299
1167.918, 818.1636
1169.846, 799.8575
1171.775, 791.3456
1173.703, 803.7922
1175.632, 820.2477
1177.560, 829.5206
1179.489, 832.2277
1181.417, 829.2247
1183.346, 814.5974
1185.274, 804.0948
1187.203, 806.9778
1189.131, 818.7967
1191.059, 827.1281
1192.988, 831.5916
1194.916, 833.0685
1196.845, 829.6704
1198.773, 824.6761
1200.702, 820.8038
1202.630, 817.6620
1204.559, 816.9916
1206.487, 818.8466
1208.416, 822.8972
1210.344, 831.5109
1212.273, 842.4733
1214.201, 847.6382
1216.130, 844.0981
1218.058, 841.9941
1219.986, 847.3600
1221.915, 854.0255
1223.843, 854.8381
1225.772, 848.7924
1227.700, 845.0972
1229.629, 846.0487
1231.557, 848.7972
1233.486, 853.1877
1235.414, 858.9091
1237.343, 863.1079
1239.271, 865.4838
1241.200, 866.9549
1243.128, 863.8757
1245.057, 861.8328
1246.985, 869.6797
1248.913, 889.9230
1250.842, 902.9123
1252.770, 903.1748
1254.699, 899.6746
1256.627, 895.3802
1258.556, 890.7648
1260.484, 886.4691
1262.413, 881.3237
1264.341, 880.5106
1266.270, 889.1194
1268.198, 900.6955
1270.127, 910.5024
1272.055, 918.7769
1273.984, 923.1340
1275.912, 919.2292
1277.840, 915.5441
1279.769, 915.9156
1281.697, 918.4224
1283.626, 917.6516
1285.554, 908.9551
1287.483, 903.9938
1289.411, 907.8995
1291.340, 911.9355
1293.268, 905.7571
1295.197, 890.5359
1297.125, 888.5844
1299.054, 909.7077
1300.982, 928.7013
1302.911, 934.0903
1304.839, 933.1661
1306.767, 936.3865
1308.696, 944.7470
1310.624, 948.3032
1312.553, 937.7011
1314.481, 930.8915
1316.410, 940.3054
1318.338, 961.7767
1320.267, 975.1446
1322.195, 978.0724
1324.124, 976.6322
1326.052, 967.5328
1327.981, 958.1868
1329.909, 956.1501
1331.838, 962.8049
1333.766, 964.7318
1335.694, 957.4237
1337.623, 951.7967
1339.551, 950.7238
1341.480, 952.8964
1343.408, 957.0081
1345.337, 963.5632
1347.265, 968.1155
1349.194, 970.1112
1351.122, 970.0300
1353.051, 963.8876
1354.979, 956.6450
1356.908, 961.4200
1358.836, 982.8621
1360.765, 998.8935
1362.693, 1001.064
1364.621, 998.5919
1366.550, 995.7473
1368.478, 992.9833
1370.407, 994.8897
1372.335, 1005.566
1374.264, 1013.066
1376.192, 1012.810
1378.121, 1009.464
1380.049, 1006.685
1381.978, 1004.042
1383.906, 1005.142
1385.835, 1015.426
1387.763, 1022.840
1389.692, 1022.662
1391.620, 1018.578
1393.548, 1015.562
1395.477, 1013.048
1397.405, 1013.348
1399.334, 1018.055
1401.262, 1023.380
1403.191, 1028.881
1405.119, 1033.523
1407.048, 1035.081
1408.976, 1033.329
1410.905, 1030.874
1412.833, 1027.242
1414.762, 1024.489
1416.690, 1026.060
1418.619, 1029.218
1420.547, 1025.106
1422.475, 1009.617
1424.404, 1005.447
1426.332, 1030.026
1428.261, 1053.749
1430.189, 1055.387
1432.118, 1041.099
1434.046, 1036.194
1435.975, 1044.868
1437.903, 1053.032
1439.832, 1057.877
1441.760, 1061.012
1443.689, 1062.486
1445.617, 1062.640
1447.546, 1065.096
1449.474, 1073.003
1451.402, 1077.319
1453.331, 1071.223
1455.259, 1066.059
1457.188, 1074.419
1459.116, 1094.760
1461.045, 1100.612
1462.973, 1075.465
1464.902, 1059.980
1466.830, 1064.130
1468.759, 1074.487
1470.687, 1081.473
1472.616, 1085.248
1474.544, 1087.656
1476.473, 1086.021
1478.401, 1087.457
1480.329, 1095.623
1482.258, 1104.926
1484.186, 1110.910
1486.115, 1113.652
1488.043, 1115.583
1489.972, 1117.299
1491.900, 1116.318
1493.829, 1106.843
1495.757, 1099.047
1497.686, 1103.952
1499.614, 1117.535
1501.543, 1125.488
1503.471, 1127.401
1505.400, 1123.718
1507.328, 1107.671
1509.256, 1093.185
1511.185, 1090.792
1513.113, 1097.301
1515.042, 1103.286
1516.970, 1108.183
1518.899, 1113.047
1520.827, 1118.575
1522.756, 1123.382
1524.684, 1125.434
1526.613, 1126.122
1528.541, 1130.401
1530.470, 1139.522
1532.398, 1147.139
1534.327, 1155.423
1536.255, 1158.164
1538.183, 1147.075
1540.112, 1130.348
1542.040, 1127.097
1543.969, 1141.662
1545.897, 1151.518
1547.826, 1143.713
1549.754, 1129.375
1551.683, 1149.940
1553.611, 1162.233
1555.540, 1166.699
1557.468, 1139.892
1559.397, 1153.467
1561.325, 1150.859
1563.254, 1147.588
1565.182, 1166.845
1567.111, 1144.588
1569.039, 1163.489
1570.968, 1170.718
1572.896, 1176.806
1574.824, 1176.934
1576.753, 1176.211
1578.681, 1171.666
1580.610, 1169.481
1582.538, 1177.800
1584.467, 1193.160
1586.395, 1198.210
1588.324, 1181.269
1590.252, 1172.996
1592.181, 1178.558
1594.109, 1187.362
1596.038, 1197.527
1597.966, 1206.506
1599.895, 1208.284
1601.823, 1200.031
1603.751, 1194.724
1605.680, 1192.720
1607.608, 1193.217
1609.537, 1201.020
1611.465, 1207.968
1613.394, 1201.070
1615.322, 1180.624
1617.251, 1174.719
1619.179, 1194.173
1621.108, 1209.001
1623.036, 1210.641
1624.965, 1210.200
1626.893, 1216.761
1628.822, 1226.990
1630.750, 1228.940
1632.678, 1218.163
1634.607, 1215.000
1636.535, 1228.920
1638.464, 1240.914
1640.392, 1241.713
1642.321, 1237.967
1644.249, 1239.704
1646.178, 1247.355
1648.106, 1247.903
1650.035, 1234.979
1651.963, 1226.888
1653.892, 1230.735
1655.820, 1237.372
1657.749, 1241.292
1659.677, 1242.798
1661.605, 1242.596
1663.534, 1240.007
1665.462, 1238.386
1667.391, 1235.914
1669.319, 1237.101
1671.248, 1247.316
1673.176, 1259.562
1675.105, 1264.220
1677.033, 1261.643
1678.962, 1264.450
1680.890, 1278.763
1682.819, 1285.085
1684.747, 1272.862
1686.676, 1259.487
1688.604, 1254.876
1690.532, 1256.279
1692.461, 1258.652
1694.389, 1262.436
1696.318, 1264.585
1698.246, 1260.345
1700.175, 1261.018
1702.103, 1275.670
1704.032, 1290.460
1705.960, 1288.991
1707.889, 1277.005
1709.817, 1281.730
1711.746, 1312.680
1713.674, 1330.713
1715.603, 1324.946
1717.531, 1316.867
1719.459, 1311.477
1721.388, 1309.316
1723.316, 1313.319
1725.245, 1322.735
1727.173, 1325.342
1729.102, 1315.814
1731.030, 1309.718
1732.959, 1308.787
1734.887, 1310.505
1736.816, 1314.297
1738.744, 1319.749
1740.673, 1327.331
1742.601, 1337.327
1744.530, 1342.797
1746.458, 1339.786
1748.386, 1338.064
1750.315, 1339.779
1752.243, 1341.211
1754.172, 1337.869
1756.100, 1334.230
1758.029, 1340.495
1759.957, 1359.412
1761.886, 1366.446
1763.814, 1352.483
1765.743, 1341.033
1767.671, 1335.141
1769.600, 1331.816
1771.528, 1327.106
1773.457, 1324.556
1775.385, 1332.797
1777.313, 1354.064
1779.242, 1368.218
1781.170, 1372.767
1783.099, 1374.240
1785.027, 1370.434
1786.956, 1367.726
1788.884, 1369.958
1790.813, 1375.431
1792.741, 1382.273
1794.670, 1390.712
1796.598, 1395.031
1798.527, 1394.798
1800.455, 1391.263
1802.384, 1380.585
1804.312, 1372.013
1806.240, 1369.649
1808.169, 1372.416
1810.097, 1381.851
1812.026, 1396.538
1813.954, 1401.207
1815.883, 1391.419
1817.811, 1384.706
1819.740, 1384.957
1821.668, 1389.015
1823.597, 1395.723
1825.525, 1404.907
1827.454, 1420.403
1829.382, 1438.945
1831.311, 1443.156
1833.239, 1429.071
1835.167, 1420.360
1837.096, 1425.244
1839.024, 1430.286
1840.953, 1428.036
1842.881, 1425.544
1844.810, 1432.061
1846.738, 1443.693
1848.667, 1445.106
1850.595, 1433.069
1852.524, 1427.406
1854.452, 1433.680
1856.381, 1439.647
1858.309, 1444.081
1860.238, 1446.049
1862.166, 1441.077
1864.094, 1434.725
1866.023, 1440.172
1867.951, 1459.363
1869.880, 1468.784
1871.808, 1460.493
1873.737, 1456.211
1875.665, 1461.822
1877.594, 1466.552
1879.522, 1467.147
1881.451, 1464.089
1883.379, 1454.040
1885.308, 1439.755
1887.236, 1440.512
1889.165, 1460.500
1891.093, 1469.960
1893.021, 1458.512
1894.950, 1450.886
1896.878, 1459.364
1898.807, 1468.673
1900.735, 1465.403
1902.664, 1458.624
1904.592, 1467.017
1906.521, 1487.694
1908.449, 1492.519
1910.378, 1475.039
1912.306, 1465.010
1914.235, 1469.721
1916.163, 1481.417
1918.092, 1505.893
1920.020, 1527.900
1921.948, 1531.251
1923.877, 1521.800
1925.805, 1514.858
1927.734, 1510.447
1929.662, 1506.936
1931.591, 1498.751
1933.519, 1500.168
1935.448, 1523.824
1937.376, 1543.389
1939.305, 1545.438
1941.233, 1539.659
1943.162, 1531.972
1945.090, 1525.095
1947.019, 1533.473
1948.947, 1562.250
1950.875, 1574.346
1952.804, 1559.419
1954.732, 1547.735
1956.661, 1548.843
1958.589, 1550.748
1960.518, 1541.930
1962.446, 1535.225
1964.375, 1551.354
1966.303, 1579.394
1968.232, 1582.659
1970.160, 1559.362
1972.089, 1550.132
1974.017, 1565.617
1975.946, 1578.707
1977.874, 1581.494
1979.802, 1582.229
1981.731, 1587.136
1983.659, 1590.075
1985.588, 1578.589
1987.516, 1559.840
1989.445, 1560.358
1991.373, 1584.907
1993.302, 1600.749
1995.230, 1604.717
1997.159, 1605.074
1999.087, 1603.235
2001.016, 1597.092
2002.944, 1577.625
2004.873, 1561.487
2006.801, 1565.853
2008.729, 1582.630
2010.658, 1595.102
2012.586, 1603.370
2014.515, 1607.529
2016.443, 1606.630
2018.372, 1608.778
2020.300, 1617.536
2022.229, 1625.741
2024.157, 1631.871
2026.086, 1635.335
2028.014, 1631.647
2029.943, 1627.281
2031.871, 1633.638
2033.800, 1648.009
2035.728, 1655.064
2037.656, 1652.086
2039.585, 1650.496
2041.513, 1652.996
2043.442, 1652.734
2045.370, 1646.843
2047.299, 1641.673
2049.227, 1639.067
2051.156, 1639.191
2053.084, 1645.546
2055.013, 1653.326
2056.941, 1650.353
2058.870, 1638.368
2060.798, 1630.946
2062.727, 1628.910
2064.655, 1630.046
2066.583, 1635.319
2068.512, 1641.521
2070.440, 1646.598
2072.369, 1654.259
2074.297, 1671.413
2076.226, 1687.458
2078.154, 1688.764
2080.083, 1680.220
2082.011, 1674.563
2083.940, 1671.390
2085.868, 1672.267
2087.797, 1679.160
2089.725, 1684.410
2091.654, 1688.374
2093.582, 1690.318
2095.510, 1690.415
2097.439, 1688.939
2099.367, 1679.303
2101.296, 1674.070
2103.224, 1693.025
2105.153, 1721.589
2107.081, 1725.106
2109.010, 1705.724
2110.938, 1701.807
2112.867, 1720.474
2114.795, 1731.172
2116.724, 1723.249
2118.652, 1722.017
2120.581, 1744.370
2122.509, 1756.965
2124.438, 1734.367
2126.366, 1709.303
2128.294, 1710.625
2130.223, 1725.627
2132.151, 1734.201
2134.080, 1737.333
2136.008, 1738.522
2137.937, 1737.720
2139.865, 1738.105
2141.794, 1738.873
2143.722, 1744.599
2145.651, 1765.608
2147.579, 1777.981
2149.508, 1765.825
2151.436, 1754.841
2153.365, 1765.064
2155.293, 1780.328
2157.221, 1782.909
2159.150, 1776.788
2161.078, 1770.511
2163.007, 1764.259
2164.935, 1760.377
2166.864, 1758.795
2168.792, 1759.336
2170.721, 1761.801
2172.649, 1766.099
2174.578, 1774.157
2176.506, 1780.223
2178.435, 1780.198
2180.363, 1779.532
2182.292, 1783.393
2184.220, 1787.305
2186.148, 1783.807
2188.077, 1777.122
2190.005, 1779.354
2191.934, 1790.147
2193.862, 1794.208
2195.791, 1790.917
2197.719, 1786.807
2199.648, 1780.883
2201.576, 1781.365
2203.505, 1795.073
2205.433, 1805.520
2207.362, 1804.639
2209.290, 1801.349
2211.219, 1797.245
2213.147, 1795.822
2215.075, 1804.153
2217.004, 1815.213
2218.932, 1814.166
2220.861, 1803.863
2222.789, 1801.677
2224.718, 1807.985
2226.646, 1816.296
2228.575, 1828.046
2230.503, 1830.289
2232.432, 1815.500
2234.360, 1806.686
2236.289, 1815.033
2238.217, 1822.803
2240.146, 1819.286
2242.074, 1817.112
2244.002, 1828.310
2245.931, 1841.608
2247.859, 1843.969
2249.788, 1840.142
2251.716, 1840.098
2253.645, 1842.856
2255.573, 1841.788
2257.502, 1837.209
2259.430, 1835.118
2261.359, 1836.263
2263.287, 1837.585
2265.216, 1835.526
2267.144, 1840.208
2269.073, 1861.457
2271.001, 1878.003
2272.929, 1883.199
2274.858, 1881.942
2276.786, 1870.258
2278.715, 1859.987
2280.643, 1860.239
2282.572, 1869.318
2284.500, 1892.045
2286.429, 1919.349
2288.357, 1925.514
2290.286, 1912.227
2292.214, 1902.032
2294.143, 1894.076
2296.071, 1894.860
2298.000, 1914.635
2299.928, 1921.616
2301.856, 1905.698
2303.785, 1896.661
2305.713, 1890.130
2307.642, 1909.806
2309.570, 1921.209
2311.499, 1924.786
2313.427, 1897.090
2315.356, 1909.776
2317.284, 1906.278
2319.213, 1902.117
2321.141, 1920.486
2323.070, 1897.339
2324.998, 1915.350
2326.927, 1916.932
2328.855, 1926.034
2330.783, 1918.852
2332.712, 1916.700
2334.640, 1930.836
2336.569, 1935.953
2338.497, 1926.897
2340.426, 1936.476
2342.354, 1912.760
2344.283, 1918.261
2346.211, 1936.368
2348.140, 1928.131
2350.068, 1938.008
2351.997, 1940.987
2353.925, 1927.240
2355.854, 1935.159
2357.782, 1937.827
2359.710, 1941.071
2361.639, 1957.167
2363.567, 1977.032
2365.496, 1979.347
2367.424, 1967.270
2369.353, 1956.180
2371.281, 1945.971
2373.210, 1945.218
2375.138, 1956.034
2377.067, 1958.496
2378.995, 1950.173
2380.924, 1943.711
2382.852, 1941.167
2384.781, 1941.306
2386.709, 1943.501
2388.637, 1949.015
2390.566, 1959.740
2392.494, 1970.839
2394.423, 1980.447
2396.351, 1988.314
2398.280, 1993.597
2400.208, 1996.977
2402.137, 1997.289
2404.065, 1997.891
2405.994, 2008.324
2407.922, 2018.719
2409.851, 2007.118
2411.779, 1982.685
2413.708, 1971.680
2415.636, 1973.534
2417.564, 1984.759
2419.493, 2004.989
2421.421, 2019.271
2423.350, 2026.876
2425.278, 2027.398
2427.207, 2017.535
2429.135, 2016.969
2431.064, 2037.988
2432.992, 2048.807
2434.921, 2041.733
2436.849, 2030.647
2438.778, 2010.059
2440.706, 1999.849
2442.635, 2014.963
2444.563, 2027.131
2446.491, 2016.553
2448.420, 2006.671
2450.348, 2015.357
2452.277, 2027.691
2454.205, 2030.652
2456.134, 2030.767
2458.062, 2034.474
2459.991, 2040.486
2461.919, 2049.526
2463.848, 2057.734
2465.776, 2055.358
2467.705, 2045.622
2469.633, 2039.066
2471.562, 2035.667
2473.490, 2035.240
2475.418, 2037.955
2477.347, 2044.512
2479.275, 2056.179
2481.204, 2053.555
2483.132, 2033.388
2485.061, 2027.777
2486.989, 2044.308
2488.918, 2058.619
2490.846, 2067.769
2492.775, 2072.948
2494.703, 2070.316
2496.632, 2069.937
2498.560, 2074.274
2500.489, 2077.739
2502.417, 2074.310
2504.345, 2077.885
2506.274, 2109.291
2508.202, 2129.393
2510.131, 2106.986
2512.059, 2082.411
2513.988, 2089.686
2515.916, 2095.837
2517.845, 2057.529
2519.773, 2022.880
2521.702, 2047.882
2523.630, 2090.353
2525.559, 2104.035
2527.487, 2101.667
2529.416, 2099.468
2531.344, 2098.600
2533.272, 2101.051
2535.201, 2107.192
2537.129, 2121.281
2539.058, 2138.911
2540.986, 2141.866
2542.915, 2132.550
2544.843, 2128.257
2546.772, 2128.640
2548.700, 2125.911
2550.629, 2118.411
2552.557, 2127.017
2554.486, 2153.447
2556.414, 2157.540
2558.343, 2134.404
2560.271, 2129.970
2562.199, 2158.643
2564.128, 2166.211
2566.056, 2122.599
2567.985, 2110.168
2569.913, 2144.120
2571.842, 2168.541
2573.770, 2174.556
2575.699, 2175.570
2577.627, 2174.451
2579.556, 2170.201
2581.484, 2156.377
2583.413, 2150.194
2585.341, 2160.476
2587.270, 2171.547
2589.198, 2179.550
2591.126, 2186.580
2593.055, 2193.917
2594.983, 2198.684
2596.912, 2197.945
2598.840, 2196.380
2600.769, 2197.489
2602.697, 2197.717
2604.626, 2197.284
2606.554, 2193.069
2608.483, 2175.784
2610.411, 2163.669
2612.340, 2174.739
2614.268, 2190.706
2616.197, 2198.077
2618.125, 2200.383
2620.053, 2198.941
2621.982, 2196.321
2623.910, 2193.611
2625.839, 2193.105
2627.767, 2201.092
2629.696, 2209.337
2631.624, 2202.829
2633.553, 2193.009
2635.481, 2198.619
2637.410, 2211.569
2639.338, 2218.327
2641.267, 2222.953
2643.195, 2233.299
2645.124, 2246.197
2647.052, 2259.402
2648.980, 2268.422
2650.909, 2255.203
2652.837, 2232.032
2654.766, 2240.210
2656.694, 2263.650
2658.623, 2251.804
2660.551, 2221.466
2662.480, 2228.850
2664.408, 2261.962
2666.337, 2274.097
2668.265, 2268.704
2670.194, 2258.216
2672.122, 2246.275
2674.051, 2250.950
2675.979, 2268.144
2677.907, 2276.862
2679.836, 2277.663
2681.764, 2271.382
2683.693, 2259.959
2685.621, 2265.275
2687.550, 2283.136
2689.478, 2283.880
2691.407, 2269.977
2693.335, 2276.428
2695.264, 2300.784
2697.192, 2295.883
2699.121, 2264.317
2701.049, 2260.792
2702.978, 2281.453
2704.906, 2291.654
2706.834, 2290.342
2708.763, 2281.782
2710.691, 2266.357
2712.620, 2278.827
2714.548, 2316.712
2716.477, 2332.813
2718.405, 2327.955
2720.334, 2315.540
2722.262, 2297.195
2724.191, 2299.843
2726.119, 2323.564
2728.048, 2343.703
2729.976, 2359.340
2731.905, 2360.806
2733.833, 2349.321
2735.761, 2345.083
2737.690, 2347.893
2739.618, 2333.207
2741.547, 2302.220
2743.475, 2302.324
2745.404, 2328.060
2747.332, 2332.221
2749.261, 2316.553
2751.189, 2316.310
2753.118, 2329.129
2755.046, 2325.290
2756.975, 2306.939
2758.903, 2300.687
2760.832, 2304.481
2762.760, 2304.588
2764.688, 2302.759
2766.617, 2311.795
2768.545, 2328.762
2770.474, 2335.875
2772.402, 2334.111
2774.331, 2324.419
2776.259, 2311.293
2778.188, 2312.177
2780.116, 2322.638
2782.045, 2326.423
2783.973, 2325.410
2785.902, 2324.133
2787.830, 2323.969
2789.759, 2332.135
2791.687, 2342.599
2793.615, 2340.408
2795.544, 2330.771
2797.472, 2319.426
2799.401, 2314.022
2801.329, 2345.174
2803.258, 2382.013
2805.186, 2368.561
2807.115, 2332.952
2809.043, 2312.947
2810.972, 2306.012
2812.900, 2317.304
2814.829, 2330.560
2816.757, 2321.215
2818.686, 2308.436
2820.614, 2316.379
2822.542, 2329.129
2824.471, 2328.352
2826.399, 2325.632
2828.328, 2333.660
2830.256, 2341.385
2832.185, 2340.978
2834.113, 2336.127
2836.042, 2322.399
2837.970, 2315.715
2839.899, 2332.738
2841.827, 2349.490
2843.756, 2350.143
2845.684, 2351.251
2847.613, 2371.059
2849.541, 2376.867
2851.469, 2334.957
2853.398, 2314.598
2855.326, 2354.539
2857.255, 2384.151
2859.183, 2367.306
2861.112, 2354.602
2863.040, 2356.692
2864.969, 2367.484
2866.897, 2392.697
2868.826, 2402.810
2870.754, 2381.775
2872.683, 2371.847
2874.611, 2385.376
2876.540, 2388.664
2878.468, 2377.939
2880.396, 2373.797
2882.325, 2380.003
2884.253, 2379.866
2886.182, 2370.698
2888.110, 2363.800
2890.039, 2358.964
2891.967, 2367.182
2893.896, 2386.869
2895.824, 2404.497
2897.753, 2417.160
2899.681, 2391.813
2901.610, 2342.111
2903.538, 2344.567
2905.467, 2378.162
2907.395, 2387.651
2909.323, 2381.598
2911.252, 2371.191
2913.180, 2364.643
2915.109, 2385.549
2917.037, 2410.899
2918.966, 2410.844
2920.894, 2403.690
2922.823, 2413.398
2924.751, 2420.536
2926.680, 2395.903
2928.608, 2379.146
2930.537, 2403.259
2932.465, 2429.494
2934.394, 2437.962
2936.322, 2439.729
2938.250, 2436.952
2940.179, 2431.775
2942.107, 2421.055
2944.036, 2418.136
2945.964, 2438.235
2947.893, 2444.452
2949.821, 2427.598
2951.750, 2421.753
2953.678, 2434.499
2955.607, 2429.299
2957.535, 2389.255
2959.464, 2390.245
2961.392, 2434.637
2963.321, 2457.328
2965.249, 2457.845
2967.177, 2439.181
2969.106, 2409.273
2971.034, 2410.646
2972.963, 2433.312
2974.891, 2448.895
2976.820, 2456.599
2978.748, 2449.658
2980.677, 2440.737
2982.605, 2451.945
2984.534, 2467.776
2986.462, 2471.488
2988.391, 2472.294
2990.319, 2476.064
2992.248, 2480.015
2994.176, 2486.259
2996.104, 2484.650
2998.033, 2467.061
2999.961, 2451.781
3001.890, 2446.252
3003.818, 2442.417
3005.747, 2438.378
3007.675, 2436.113
3009.604, 2434.334
3011.532, 2446.777
3013.461, 2480.564
3015.389, 2488.008
3017.318, 2467.077
3019.246, 2456.358
3021.175, 2455.009
3023.103, 2456.639
3025.031, 2460.217
3026.960, 2462.653
3028.888, 2464.293
3030.817, 2461.511
3032.745, 2462.723
3034.674, 2484.146
3036.602, 2507.606
3038.531, 2522.776
3040.459, 2523.110
3042.388, 2494.023
3044.316, 2471.496
3046.245, 2481.682
3048.173, 2487.553
3050.102, 2474.893
3052.030, 2462.924
3053.959, 2451.838
3055.887, 2453.988
3057.816, 2476.571
3059.744, 2493.117
3061.673, 2502.987
3063.601, 2498.501
3065.530, 2482.612
3067.458, 2481.484
3069.386, 2489.197
3071.315, 2480.206
3073.243, 2465.443
3075.172, 2468.074
3077.100, 2478.897
3079.029, 2495.306
3080.957, 2505.114
3082.886, 2485.947
3084.814, 2473.903
3086.743, 2492.311
3088.671, 2511.105
3090.600, 2514.023
3092.528, 2524.533
3094.457, 2557.224
3096.385, 2541.380
3098.313, 2450.803
3100.242, 2427.031
3102.170, 2486.416
3104.099, 2519.156
3106.027, 2528.314
3107.956, 2526.368
3109.884, 2515.319
3111.813, 2486.615
3113.741, 2460.620
3115.670, 2481.954
3117.598, 2513.018
3119.527, 2520.807
3121.455, 2519.085
3123.384, 2510.326
3125.312, 2505.978
3127.240, 2511.702
3129.169, 2517.915
3131.097, 2520.379
3133.026, 2527.250
3134.954, 2540.413
3136.883, 2550.002
3138.811, 2554.988
3140.740, 2541.954
3142.668, 2516.365
3144.597, 2520.678
3146.525, 2538.441
3148.454, 2523.668
3150.382, 2503.544
3152.311, 2522.644
3154.239, 2541.907
3156.167, 2524.799
3158.096, 2505.908
3160.024, 2500.548
3161.953, 2501.241
3163.881, 2503.099
3165.810, 2520.173
3167.738, 2557.613
3169.667, 2575.922
3171.595, 2568.932
3173.524, 2565.248
3175.452, 2563.211
3177.381, 2552.262
3179.309, 2535.980
3181.238, 2514.631
3183.166, 2501.215
3185.094, 2526.050
3187.023, 2549.072
3188.951, 2535.219
3190.880, 2523.046
3192.808, 2529.674
3194.737, 2544.176
3196.665, 2569.188
3198.594, 2578.968
3200.522, 2563.377
3202.451, 2562.780
3204.379, 2574.762
3206.308, 2561.074
3208.236, 2532.885
3210.165, 2522.528
3212.093, 2524.411
3214.021, 2530.569
3215.950, 2543.442
3217.878, 2577.315
3219.807, 2598.766
3221.735, 2579.923
3223.664, 2564.799
3225.592, 2561.825
3227.521, 2562.827
3229.449, 2564.647
3231.378, 2587.180
3233.306, 2624.531
3235.235, 2602.740
3237.163, 2551.358
3239.092, 2558.931
3241.020, 2588.119
3242.948, 2590.124
3244.877, 2580.464
3246.805, 2555.005
3248.734, 2548.089
3250.662, 2588.973
3252.591, 2612.773
3254.519, 2605.543
3256.448, 2592.159
3258.376, 2572.971
3260.305, 2562.924
3262.233, 2563.564
3264.162, 2597.788
3266.090, 2636.068
3268.019, 2609.954
3269.947, 2575.708
3271.875, 2589.900
3273.804, 2609.038
3275.732, 2607.644
3277.661, 2611.000
3279.589, 2626.102
3281.518, 2633.002
3283.446, 2628.094
3285.375, 2610.572
3287.303, 2584.031
3289.232, 2581.544
3291.160, 2593.929
3293.089, 2613.664
3295.017, 2623.752
3296.946, 2588.116
3298.874, 2563.745
3300.802, 2591.903
3302.731, 2612.013
3304.659, 2607.845
3306.588, 2600.001
3308.516, 2589.773
3310.445, 2591.689
3312.373, 2603.956
3314.302, 2622.054
3316.230, 2637.921
3318.159, 2636.570
3320.087, 2629.367
3322.016, 2626.481
3323.944, 2622.455
3325.873, 2615.030
3327.801, 2609.057
3329.729, 2604.316
3331.658, 2610.985
3333.586, 2626.995
3335.515, 2610.606
3337.443, 2577.584
3339.372, 2577.198
3341.300, 2593.394
3343.229, 2613.615
3345.157, 2627.888
3347.086, 2629.557
3349.014, 2622.604
3350.943, 2604.381
3352.871, 2598.092
3354.800, 2609.364
3356.728, 2620.967
3358.656, 2630.962
3360.585, 2623.046
3362.513, 2610.384
3364.442, 2613.024
3366.370, 2621.266
3368.299, 2630.239
3370.227, 2637.129
3372.156, 2639.882
3374.084, 2641.203
3376.013, 2641.136
3377.941, 2642.671
3379.870, 2642.778
3381.798, 2613.786
3383.727, 2579.324
3385.655, 2589.244
3387.583, 2609.457
3389.512, 2614.767
3391.440, 2619.775
3393.369, 2628.521
3395.297, 2641.807
3397.226, 2664.741
3399.154, 2657.371
3401.083, 2628.166
3403.011, 2628.318
3404.940, 2644.846
3406.868, 2667.104
3408.797, 2680.172
3410.725, 2668.527
3412.654, 2657.404
3414.582, 2660.657
3416.510, 2653.799
3418.439, 2635.926
3420.367, 2629.713
3422.296, 2632.280
3424.224, 2630.534
3426.153, 2624.095
3428.081, 2606.207
3430.010, 2593.630
3431.938, 2597.214
3433.867, 2608.773
3435.795, 2627.892
3437.724, 2650.304
3439.652, 2675.256
3441.581, 2679.270
3443.509, 2668.580
3445.438, 2648.880
3447.366, 2635.486
3449.294, 2647.052
3451.223, 2664.431
3453.151, 2685.376
3455.080, 2695.947
3457.008, 2694.421
3458.937, 2679.613
3460.865, 2659.936
3462.794, 2677.357
3464.722, 2699.188
3466.651, 2665.100
3468.579, 2634.722
3470.508, 2647.938
3472.436, 2654.896
3474.365, 2643.885
3476.293, 2657.021
3478.221, 2692.599
3480.150, 2701.953
3482.078, 2694.734
3484.007, 2681.108
3485.935, 2673.468
3487.864, 2691.081
3489.792, 2695.420
3491.721, 2672.154
3493.649, 2670.457
3495.578, 2694.988
3497.506, 2704.059
3499.435, 2701.690
3501.363, 2688.732
3503.292, 2683.106
3505.220, 2715.502
3507.148, 2733.551
3509.077, 2716.250
3511.005, 2699.074
3512.934, 2684.854
3514.862, 2692.926
3516.791, 2708.595
3518.719, 2690.695
3520.648, 2668.097
3522.576, 2663.013
3524.505, 2668.360
3526.433, 2690.451
3528.362, 2701.250
3530.290, 2700.379
3532.219, 2698.258
3534.147, 2696.652
3536.075, 2700.222
3538.004, 2703.090
3539.932, 2697.985
3541.861, 2693.948
3543.789, 2690.645
3545.718, 2707.361
3547.646, 2742.957
3549.575, 2724.396
3551.503, 2681.453
3553.432, 2681.837
3555.360, 2691.083
3557.289, 2680.558
3559.217, 2679.146
3561.146, 2694.887
3563.074, 2702.484
3565.002, 2701.262
3566.931, 2709.072
3568.859, 2715.756
3570.788, 2694.802
3572.716, 2686.515
3574.645, 2724.308
3576.573, 2746.146
3578.502, 2733.340
3580.430, 2725.134
3582.359, 2722.520
3584.287, 2734.968
3586.216, 2745.438
3588.144, 2727.347
3590.073, 2711.059
3592.001, 2703.348
3593.929, 2722.153
3595.858, 2769.224
3597.786, 2768.019
3599.715, 2739.920
3601.643, 2730.105
3603.572, 2727.567
3605.500, 2724.075
3607.429, 2725.631
3609.357, 2740.233
3611.286, 2731.939
3613.214, 2709.154
3615.143, 2719.666
3617.071, 2741.584
3619.000, 2750.546
3620.928, 2747.567
3622.856, 2719.625
3624.785, 2713.544
3626.713, 2731.161
3628.642, 2740.284
3630.570, 2741.775
3632.499, 2737.315
3634.427, 2730.394
3636.356, 2714.518
3638.284, 2719.588
3640.213, 2753.350
3642.141, 2770.094
3644.070, 2770.490
3645.998, 2763.803
3647.927, 2758.124
3649.855, 2759.665
3651.783, 2769.134
3653.712, 2795.561
3655.640, 2783.226
3657.569, 2735.581
3659.497, 2733.937
3661.426, 2755.634
3663.354, 2772.305
3665.283, 2784.012
3667.211, 2798.386
3669.140, 2777.740
3671.068, 2721.856
3672.997, 2728.649
3674.925, 2764.076
3676.854, 2743.796
3678.782, 2722.419
3680.710, 2740.895
3682.639, 2751.524
3684.567, 2747.694
3686.496, 2760.059
3688.424, 2779.819
3690.353, 2778.019
3692.281, 2768.236
3694.210, 2750.296
3696.138, 2753.817
3698.067, 2785.795
3699.995, 2794.824
3701.924, 2783.886
3703.852, 2762.391
3705.781, 2746.011
3707.709, 2754.447
3709.637, 2759.745
3711.566, 2756.156
3713.494, 2755.304
3715.423, 2756.304
3717.351, 2751.091
3719.280, 2741.098
3721.208, 2714.356
3723.137, 2713.542
3725.065, 2750.360
3726.994, 2774.175
3728.922, 2782.050
3730.851, 2766.916
3732.779, 2752.411
3734.708, 2770.009
3736.636, 2772.293
3738.564, 2745.727
3740.493, 2752.505
3742.421, 2783.496
3744.350, 2788.987
3746.278, 2783.945
3748.207, 2775.866
3750.135, 2774.525
3752.064, 2781.694
3753.992, 2792.458
3755.921, 2804.478
3757.849, 2811.158
3759.778, 2816.467
3761.706, 2828.831
3763.635, 2827.503
3765.563, 2809.059
3767.491, 2797.315
3769.420, 2790.274
3771.348, 2773.866
3773.277, 2766.798
3775.205, 2792.724
3777.134, 2804.255
3779.062, 2796.144
3780.991, 2793.033
3782.919, 2794.212
3784.848, 2800.363
3786.776, 2802.968
3788.705, 2793.883
3790.633, 2789.572
3792.562, 2791.010
3794.490, 2797.053
3796.418, 2799.868
3798.347, 2778.325
3800.275, 2768.291
3802.204, 2800.268
3804.132, 2802.962
3806.061, 2782.095
3807.989, 2774.528
3809.918, 2774.188
3811.846, 2775.838
3813.775, 2777.636
3815.703, 2776.755
3817.632, 2790.734
3819.560, 2811.613
3821.489, 2819.334
3823.417, 2818.671
3825.345, 2810.466
3827.274, 2807.367
3829.202, 2811.496
3831.131, 2811.891
3833.059, 2809.396
3834.988, 2803.459
3836.916, 2798.539
3838.845, 2794.896
3840.773, 2805.215
3842.702, 2824.581
3844.630, 2816.443
3846.559, 2796.739
3848.487, 2763.069
3850.416, 2764.524
3852.344, 2818.439
3854.272, 2829.244
3856.201, 2815.445
3858.129, 2818.655
3860.058, 2827.530
3861.986, 2840.258
3863.915, 2836.378
3865.843, 2816.706
3867.772, 2822.748
3869.700, 2832.314
3871.629, 2812.966
3873.557, 2802.085
3875.486, 2815.062
3877.414, 2812.875
3879.343, 2799.962
3881.271, 2816.714
3883.199, 2837.438
3885.128, 2842.558
3887.056, 2828.446
3888.985, 2802.117
3890.913, 2794.789
3892.842, 2794.833
3894.770, 2787.706
3896.699, 2787.758
3898.627, 2798.293
3900.556, 2788.973
3902.484, 2777.423
3904.413, 2804.648
3906.341, 2830.223
3908.270, 2849.618
3910.198, 2853.611
3912.126, 2836.994
3914.055, 2825.992
3915.983, 2820.780
3917.912, 2838.053
3919.840, 2845.374
3921.769, 2826.172
3923.697, 2836.823
3925.626, 2852.451
3927.554, 2830.050
3929.483, 2822.616
3931.411, 2841.236
3933.340, 2837.168
3935.268, 2829.666
3937.197, 2855.312
3939.125, 2870.221
3941.053, 2851.574
3942.982, 2843.603
3944.910, 2848.562
3946.839, 2842.179
3948.767, 2833.843
3950.696, 2841.871
3952.624, 2847.067
3954.553, 2844.051
3956.481, 2825.059
3958.410, 2807.861
3960.338, 2815.892
3962.267, 2829.577
3964.195, 2858.096
3966.124, 2869.472
3968.052, 2864.536
3969.980, 2841.165
3971.909, 2831.274
3973.837, 2852.688
3975.766, 2855.481
3977.694, 2848.323
3979.623, 2866.256
3981.551, 2876.656
3983.480, 2864.928
3985.408, 2837.009
3987.337, 2802.537
3989.265, 2827.697
3991.194, 2855.081
3993.122, 2836.273
3995.051, 2837.769
3996.979, 2858.379
3998.907, 2853.352
4000.836, 2849.622
4002.764, 2873.320
4004.693, 2875.595
4006.621, 2848.967
4008.550, 2830.769
4010.478, 2825.247
4012.407, 2860.329
4014.335, 2877.922
4016.264, 2853.344
4018.192, 2844.760
4020.121, 2846.641
4022.049, 2844.388
4023.978, 2844.342
4025.906, 2849.617
4027.834, 2850.394
4029.763, 2849.782
4031.691, 2849.993
4033.620, 2845.372
4035.548, 2832.094
4037.477, 2840.825
4039.405, 2870.389
4041.334, 2883.062
4043.262, 2879.708
4045.191, 2847.749
4047.119, 2841.052
4049.048, 2864.051
4050.976, 2876.170
4052.905, 2884.272
4054.833, 2875.851
4056.761, 2864.547
4058.690, 2869.262
4060.618, 2868.559
4062.547, 2857.579
4064.475, 2849.959
4066.404, 2853.587
4068.332, 2867.923
4070.261, 2859.739
4072.189, 2845.172
4074.118, 2858.936
4076.046, 2860.265
4077.975, 2849.322
4079.903, 2854.413
4081.832, 2851.279
4083.760, 2843.438
4085.688, 2851.704
4087.617, 2877.088
4089.545, 2888.254
4091.474, 2873.788
4093.402, 2877.292
4095.331, 2885.159
4097.259, 2893.402
4099.188, 2903.293
4101.116, 2886.451
4103.045, 2864.155
4104.973, 2844.259
4106.902, 2849.209
4108.830, 2865.677
4110.759, 2854.889
4112.687, 2855.032
4114.616, 2869.232
4116.544, 2884.182
4118.473, 2895.059
4120.401, 2892.510
4122.330, 2890.535
4124.258, 2875.140
4126.187, 2859.795
4128.115, 2864.517
4130.043, 2881.064
4131.972, 2892.057
4133.900, 2896.528
4135.829, 2893.579
4137.757, 2893.592
4139.686, 2887.147
4141.614, 2878.640
4143.542, 2888.024
4145.471, 2901.337
4147.399, 2886.222
4149.328, 2862.316
4151.256, 2868.188
4153.185, 2890.972
4155.113, 2890.375
4157.042, 2878.239
4158.970, 2890.817
4160.899, 2897.702
4162.827, 2888.966
4164.756, 2873.773
4166.684, 2865.251
4168.613, 2906.023
4170.541, 2935.330
4172.470, 2931.892
4174.398, 2942.141
4176.327, 2950.443
4178.255, 2918.091
4180.184, 2897.167
4182.112, 2898.756
4184.041, 2895.583
4185.969, 2892.244
4187.897, 2888.810
4189.826, 2900.954
4191.754, 2938.212
4193.683, 2936.425
4195.611, 2919.921
4197.540, 2922.709
4199.468, 2916.878
4201.396, 2895.207
4203.325, 2900.517
4205.253, 2916.719
4207.182, 2924.980
4209.110, 2911.752
4211.039, 2868.518
4212.967, 2912.450
4214.896, 2973.550
4216.824, 2945.109
4218.753, 2923.646
4220.681, 2930.564
4222.610, 2948.395
4224.538, 2957.116
4226.467, 2917.397
4228.395, 2904.426
4230.324, 2928.434
4232.252, 2927.027
4234.181, 2915.236
4236.109, 2902.686
4238.038, 2906.593
4239.966, 2924.633
4241.895, 2915.409
4243.823, 2904.319
4245.751, 2911.376
4247.680, 2927.854
4249.608, 2945.600
4251.537, 2929.059
4253.465, 2913.044
4255.394, 2926.429
4257.322, 2918.315
4259.250, 2902.338
4261.179, 2940.098
4263.107, 2964.810
4265.036, 2938.806
4266.964, 2921.695
4268.893, 2916.157
4270.821, 2924.068
4272.750, 2932.256
4274.678, 2936.622
4276.607, 2928.882
4278.535, 2925.156
4280.464, 2960.923
4282.392, 2975.070
4284.321, 2954.662
4286.249, 2946.540
4288.178, 2948.386
4290.106, 2964.187
4292.035, 2966.514
4293.963, 2955.136
4295.892, 2959.127
4297.820, 2958.324
4299.749, 2927.832
4301.677, 2917.720
4303.605, 2930.378
4305.534, 2979.511
4307.462, 3006.664
4309.391, 2964.562
4311.319, 2956.485
4313.248, 2966.682
4315.176, 2972.355
4317.104, 2961.260
4319.033, 2926.792
4320.961, 2940.643
4322.890, 2964.414
4324.818, 2945.640
4326.747, 2944.690
4328.675, 2964.079
4330.604, 2949.903
4332.532, 2943.946
4334.461, 2982.196
4336.389, 2994.748
4338.318, 2987.631
4340.246, 2996.500
4342.175, 2985.711
4344.103, 2939.017
4346.032, 2928.570
4347.960, 2938.382
4349.889, 2955.303
4351.817, 2948.731
4353.746, 2919.427
4355.674, 2927.979
4357.603, 2949.536
4359.531, 2967.262
4361.459, 2989.424
4363.388, 3008.875
4365.316, 3003.177
4367.245, 2984.520
4369.173, 2957.831
4371.102, 2926.616
4373.030, 2907.051
4374.958, 2921.694
4376.887, 2944.939
4378.815, 2969.383
4380.744, 2979.751
4382.672, 2979.363
4384.601, 2967.778
4386.529, 2951.904
4388.458, 2940.756
4390.386, 2960.806
4392.315, 2978.063
4394.243, 2981.561
4396.172, 2971.525
4398.100, 2961.148
4400.029, 2969.134
4401.957, 2962.413
4403.886, 2942.444
4405.814, 2927.778
4407.743, 2926.134
4409.671, 2942.039
4411.600, 2948.821
4413.528, 2947.346
4415.457, 2939.656
4417.385, 2924.511
4419.313, 2908.680
4421.242, 2943.002
4423.170, 2974.022
4425.099, 2969.736
4427.027, 2939.606
4428.956, 2907.659
4430.884, 2924.058
4432.813, 2937.211
4434.741, 2934.540
4436.669, 2927.553
4438.598, 2920.486
4440.526, 2917.987
4442.455, 2902.413
4444.383, 2890.683
4446.312, 2947.972
4448.240, 2974.430
4450.169, 2945.574
4452.097, 2943.211
4454.026, 2947.671
4455.954, 2942.663
4457.883, 2931.345
4459.811, 2921.822
4461.740, 2937.085
4463.668, 2949.135
4465.597, 2949.260
4467.525, 2945.565
4469.454, 2938.981
4471.382, 2927.298
4473.311, 2921.847
4475.239, 2924.463
4477.167, 2946.883
4479.096, 2956.209
4481.024, 2943.053
4482.953, 2901.566
4484.881, 2874.083
4486.810, 2897.059
4488.738, 2918.696
4490.667, 2931.973
4492.595, 2927.791
4494.523, 2934.059
4496.452, 2952.725
4498.380, 2917.433
4500.309, 2883.220
4502.237, 2901.770
4504.166, 2905.290
4506.094, 2906.181
4508.023, 2942.016
4509.951, 2944.790
4511.880, 2909.241
4513.808, 2933.376
4515.737, 2953.597
4517.665, 2937.926
4519.594, 2920.596
4521.522, 2909.010
4523.451, 2912.953
4525.379, 2915.013
4527.308, 2914.294
4529.236, 2911.377
4531.165, 2915.302
4533.093, 2930.784
4535.021, 2923.747
4536.950, 2920.311
4538.878, 2952.529
4540.807, 2924.336
4542.735, 2869.593
4544.664, 2887.851
4546.592, 2896.313
4548.521, 2880.758
4550.449, 2885.105
4552.377, 2891.503
4554.306, 2886.519
4556.234, 2885.399
4558.163, 2890.096
4560.091, 2910.892
4562.020, 2898.515
4563.948, 2866.677
4565.877, 2888.494
4567.805, 2900.979
4569.734, 2887.708
4571.662, 2879.499
4573.591, 2877.396
4575.519, 2888.016
4577.448, 2874.438
4579.376, 2853.783
4581.305, 2852.511
4583.233, 2865.191
4585.162, 2883.552
4587.090, 2873.294
4589.019, 2865.591
4590.947, 2869.644
4592.875, 2872.810
4594.804, 2873.946
4596.732, 2877.677
4598.661, 2850.292
4600.589, 2822.695
4602.518, 2848.244
4604.446, 2874.339
4606.375, 2885.784
4608.303, 2837.719
4610.231, 2817.669
4612.160, 2847.927
4614.088, 2882.781
4616.017, 2898.818
4617.945, 2872.723
4619.874, 2860.794
4621.802, 2866.891
4623.731, 2906.473
4625.659, 2888.916
4627.588, 2842.706
4629.516, 2876.386
4631.445, 2891.006
4633.373, 2865.602
4635.302, 2819.894
4637.230, 2804.886
4639.159, 2850.836
4641.087, 2845.508
4643.016, 2829.097
4644.944, 2834.018
4646.873, 2850.914
4648.801, 2860.547
4650.729, 2823.392
4652.658, 2815.896
4654.586, 2834.141
4656.515, 2827.028
4658.443, 2816.456
4660.372, 2810.841
4662.300, 2835.452
4664.229, 2860.936
4666.157, 2873.451
4668.085, 2846.040
4670.014, 2810.623
4671.942, 2791.806
4673.871, 2806.578
4675.799, 2831.323
4677.728, 2830.375
4679.656, 2833.870
4681.585, 2837.018
4683.513, 2807.405
4685.442, 2789.930
4687.370, 2794.244
4689.299, 2820.497
4691.227, 2826.474
4693.156, 2798.271
4695.084, 2793.720
4697.013, 2799.837
4698.941, 2808.962
4700.870, 2808.046
4702.798, 2802.799
4704.727, 2803.620
4706.655, 2777.134
4708.583, 2746.435
4710.512, 2758.750
4712.440, 2769.348
4714.369, 2774.494
4716.297, 2789.224
4718.226, 2785.017
4720.154, 2763.011
4722.083, 2796.493
4724.011, 2812.805
4725.939, 2792.584
4727.868, 2812.209
4729.796, 2826.043
4731.725, 2797.653
4733.653, 2785.885
4735.582, 2783.076
4737.510, 2784.334
4739.439, 2774.950
4741.367, 2767.124
4743.296, 2782.584
4745.224, 2782.926
4747.153, 2773.487
4749.081, 2769.792
4751.010, 2765.030
4752.938, 2761.963
4754.867, 2778.105
4756.795, 2784.047
4758.724, 2774.604
4760.652, 2744.055
4762.581, 2752.441
4764.509, 2805.526
4766.438, 2751.625
4768.366, 2717.228
4770.294, 2757.593
4772.223, 2777.581
4774.151, 2779.404
4776.080, 2764.212
4778.008, 2754.315
4779.937, 2750.710
4781.865, 2754.625
4783.793, 2756.792
4785.722, 2753.804
4787.650, 2736.472
4789.579, 2753.467
4791.507, 2774.343
4793.436, 2745.804
4795.364, 2727.058
4797.293, 2726.033
4799.221, 2758.061
4801.150, 2762.194
4803.078, 2743.491
4805.007, 2725.207
4806.935, 2736.569
4808.864, 2766.443
4810.792, 2757.310
4812.721, 2751.739
4814.649, 2756.829
4816.578, 2758.474
4818.506, 2754.102
4820.435, 2744.298
4822.363, 2733.338
4824.292, 2731.312
4826.220, 2740.748
4828.148, 2752.105
4830.077, 2758.003
4832.005, 2755.190
4833.934, 2729.553
4835.862, 2710.510
4837.791, 2712.501
4839.719, 2731.524
4841.647, 2737.979
4843.576, 2713.716
4845.504, 2725.989
4847.433, 2726.447
4849.361, 2680.946
4851.290, 2672.760
4853.218, 2690.056
4855.147, 2729.145
4857.075, 2708.338
4859.004, 2689.444
4860.932, 2728.641
4862.861, 2724.952
4864.789, 2700.492
4866.718, 2672.386
4868.646, 2690.527
4870.575, 2715.417
4872.503, 2706.129
4874.432, 2699.140
4876.360, 2701.432
4878.289, 2725.856
4880.217, 2718.027
4882.146, 2696.393
4884.074, 2682.400
4886.002, 2678.050
4887.931, 2678.252
4889.859, 2674.019
4891.788, 2697.205
4893.716, 2712.831
4895.645, 2670.448
4897.573, 2661.841
4899.501, 2668.535
4901.430, 2651.230
4903.358, 2674.209
4905.287, 2698.021
4907.215, 2660.106
4909.144, 2658.486
4911.072, 2672.265
4913.001, 2668.313
4914.929, 2647.096
4916.858, 2638.980
4918.786, 2694.987
4920.715, 2698.384
4922.643, 2681.948
4924.572, 2692.265
4926.500, 2656.740
4928.429, 2617.480
4930.357, 2630.273
4932.286, 2666.889
4934.214, 2689.587
4936.143, 2658.774
4938.071, 2650.213
4940.000, 2661.223
4941.928, 2688.040
4943.856, 2696.685
4945.785, 2689.971
4947.713, 2670.382
4949.642, 2649.791
4951.570, 2624.211
4953.499, 2589.757
4955.427, 2602.473
4957.355, 2622.837
4959.284, 2617.354
4961.212, 2645.803
4963.141, 2649.149
4965.069, 2599.504
4966.998, 2614.720
4968.926, 2637.809
4970.855, 2637.744
4972.783, 2659.732
4974.712, 2663.949
4976.640, 2637.223
4978.569, 2648.761
4980.497, 2644.896
4982.426, 2615.185
4984.354, 2610.700
4986.283, 2632.987
4988.211, 2669.834
4990.140, 2647.679
4992.068, 2630.875
4993.997, 2629.598
4995.925, 2618.751
4997.854, 2626.834
4999.782, 2646.195
5001.710, 2644.973
5003.639, 2625.558
5005.567, 2605.397
5007.496, 2620.279
5009.424, 2621.733
5011.353, 2617.003
5013.281, 2632.742
5015.209, 2614.130
5017.138, 2593.970
5019.066, 2615.311
5020.995, 2624.463
5022.923, 2622.744
5024.852, 2614.352
5026.780, 2618.368
5028.709, 2613.900
5030.637, 2584.009
5032.566, 2569.478
5034.494, 2572.120
5036.423, 2589.550
5038.351, 2597.556
5040.280, 2595.399
5042.208, 2585.600
5044.137, 2584.068
5046.065, 2594.129
5047.994, 2608.737
5049.922, 2598.256
5051.851, 2588.213
5053.779, 2588.594
5055.708, 2621.791
5057.636, 2608.210
5059.564, 2579.511
5061.493, 2597.434
5063.421, 2606.408
5065.350, 2602.658
5067.278, 2585.409
5069.207, 2611.193
5071.135, 2621.868
5073.063, 2572.390
5074.992, 2570.153
5076.920, 2578.102
5078.849, 2579.858
5080.777, 2587.432
5082.706, 2586.210
5084.634, 2575.711
5086.563, 2568.553
5088.491, 2565.947
5090.420, 2570.173
5092.348, 2596.009
5094.277, 2584.916
5096.205, 2559.246
5098.134, 2556.656
5100.062, 2574.338
5101.991, 2590.866
5103.919, 2590.744
5105.848, 2547.539
5107.776, 2526.381
5109.705, 2556.453
5111.633, 2575.478
5113.562, 2573.017
5115.490, 2555.331
5117.418, 2561.276
5119.347, 2565.084
5121.275, 2558.582
5123.204, 2524.368
5125.132, 2537.445
5127.061, 2558.000
5128.989, 2522.856
5130.917, 2552.347
5132.846, 2583.056
5134.774, 2558.974
5136.703, 2554.174
5138.631, 2563.004
5140.560, 2578.167
5142.488, 2564.161
5144.417, 2550.048
5146.345, 2538.898
5148.274, 2507.792
5150.202, 2526.391
5152.131, 2557.503
5154.059, 2527.922
5155.988, 2515.006
5157.916, 2517.326
5159.845, 2529.801
5161.773, 2532.629
5163.702, 2538.730
5165.630, 2550.831
5167.559, 2547.609
5169.487, 2538.090
5171.416, 2531.466
5173.344, 2551.232
5175.272, 2540.591
5177.201, 2532.673
5179.129, 2579.901
5181.058, 2574.151
5182.986, 2538.514
5184.915, 2493.313
5186.843, 2473.932
5188.771, 2488.601
5190.700, 2519.846
5192.628, 2472.685
5194.557, 2452.708
5196.485, 2466.705
5198.414, 2497.809
5200.342, 2517.795
5202.271, 2518.198
5204.199, 2486.604
5206.128, 2500.786
5208.056, 2510.530
5209.985, 2501.588
5211.913, 2519.443
5213.842, 2498.643
5215.770, 2465.550
5217.699, 2507.358
5219.627, 2515.547
5221.556, 2503.662
5223.484, 2489.850
5225.413, 2485.387
5227.341, 2498.075
5229.270, 2522.314
5231.198, 2514.825
5233.126, 2485.885
5235.055, 2459.187
5236.983, 2481.553
5238.912, 2486.889
5240.840, 2484.469
5242.769, 2486.434
5244.697, 2511.260
5246.625, 2511.250
5248.554, 2481.233
5250.482, 2466.798
5252.411, 2511.357
5254.339, 2563.112
5256.268, 2512.088
5258.196, 2502.185
5260.125, 2507.619
5262.053, 2505.510
5263.982, 2500.425
5265.910, 2510.779
5267.839, 2532.875
5269.767, 2551.011
5271.696, 2504.718
5273.624, 2455.733
5275.553, 2495.050
5277.481, 2502.836
5279.410, 2495.803
5281.338, 2486.714
5283.267, 2498.453
5285.195, 2531.193
5287.124, 2553.284
5289.052, 2502.064
5290.980, 2462.320
5292.909, 2466.300
5294.837, 2533.969
5296.766, 2515.885
5298.694, 2467.386
5300.623, 2426.597
5302.551, 2450.141
5304.479, 2460.702
5306.408, 2461.524
5308.336, 2465.302
5310.265, 2487.785
5312.193, 2509.074
5314.122, 2518.235
5316.050, 2503.228
5317.979, 2474.069
5319.907, 2456.385
5321.836, 2478.158
5323.764, 2476.454
5325.693, 2468.813
5327.621, 2465.362
5329.550, 2463.136
5331.478, 2455.289
5333.407, 2448.547
5335.335, 2458.323
5337.264, 2442.095
5339.192, 2443.082
5341.121, 2476.137
5343.049, 2496.258
5344.978, 2457.642
5346.906, 2407.019
5348.834, 2431.055
5350.763, 2454.868
5352.691, 2464.868
5354.620, 2453.882
5356.548, 2372.989
5358.477, 2396.724
5360.405, 2467.769
5362.333, 2440.850
5364.262, 2419.129
5366.190, 2412.401
5368.119, 2418.680
5370.047, 2430.773
5371.976, 2417.669
5373.904, 2398.932
5375.833, 2417.968
5377.761, 2407.609
5379.690, 2404.556
5381.618, 2424.566
5383.547, 2451.120
5385.475, 2466.444
5387.404, 2463.737
5389.332, 2437.465
5391.261, 2416.489
5393.189, 2399.992
5395.118, 2393.755
5397.046, 2444.313
5398.975, 2423.410
5400.903, 2391.541
5402.832, 2422.483
5404.760, 2416.476
5406.688, 2393.470
5408.617, 2374.604
5410.545, 2395.691
5412.474, 2411.214
5414.402, 2408.443
5416.331, 2382.594
5418.259, 2408.842
5420.188, 2401.400
5422.116, 2378.633
5424.044, 2413.176
5425.973, 2386.485
5427.901, 2363.382
5429.830, 2377.249
5431.758, 2407.319
5433.687, 2416.962
5435.615, 2410.168
5437.544, 2392.689
5439.472, 2446.123
5441.401, 2421.588
5443.329, 2341.236
5445.258, 2419.711
5447.186, 2389.436
5449.115, 2334.991
5451.043, 2330.280
5452.972, 2346.180
5454.900, 2361.823
5456.829, 2364.901
5458.757, 2338.823
5460.686, 2390.785
5462.614, 2398.478
5464.542, 2345.250
5466.471, 2352.320
5468.399, 2343.451
5470.328, 2344.437
5472.256, 2374.007
5474.185, 2369.086
5476.113, 2335.341
5478.042, 2306.798
5479.970, 2324.871
5481.898, 2359.541
5483.827, 2364.885
5485.755, 2347.812
5487.684, 2404.156
5489.612, 2361.702
5491.541, 2303.145
5493.469, 2294.704
5495.398, 2327.930
5497.326, 2339.892
5499.255, 2335.551
5501.183, 2335.122
5503.112, 2343.203
5505.040, 2342.489
5506.969, 2336.354
5508.897, 2349.164
5510.826, 2341.336
5512.754, 2329.518
5514.683, 2322.366
5516.611, 2308.378
5518.540, 2322.487
5520.468, 2346.715
5522.396, 2359.373
5524.325, 2320.629
5526.253, 2301.317
5528.182, 2318.062
5530.110, 2371.434
5532.039, 2353.601
5533.967, 2336.016
5535.896, 2333.126
5537.824, 2312.456
5539.752, 2289.321
5541.681, 2304.020
5543.609, 2348.519
5545.538, 2312.547
5547.466, 2292.684
5549.395, 2279.652
5551.323, 2262.821
5553.252, 2285.749
5555.180, 2299.331
5557.109, 2295.103
5559.037, 2275.658
5560.966, 2274.894
5562.894, 2281.469
5564.823, 2282.773
5566.751, 2259.410
5568.680, 2266.280
5570.608, 2262.420
5572.537, 2245.382
5574.465, 2240.085
5576.394, 2251.300
5578.322, 2280.386
5580.250, 2306.343
5582.179, 2266.024
5584.107, 2240.813
5586.036, 2231.757
5587.964, 2235.446
5589.893, 2270.363
5591.821, 2269.906
5593.750, 2257.992
5595.678, 2255.792
5597.606, 2232.370
5599.535, 2252.882
5601.463, 2281.029
5603.392, 2275.035
5605.320, 2259.436
5607.249, 2277.683
5609.177, 2299.172
5611.106, 2284.664
5613.034, 2271.037
5614.963, 2262.518
5616.891, 2257.601
5618.820, 2253.680
5620.748, 2259.027
5622.677, 2261.279
5624.605, 2259.753
5626.534, 2259.029
5628.462, 2263.967
5630.391, 2266.577
5632.319, 2263.274
5634.248, 2251.503
5636.176, 2254.235
5638.104, 2243.768
5640.033, 2241.842
5641.961, 2308.944
5643.890, 2250.590
5645.818, 2224.600
5647.747, 2252.065
5649.675, 2237.018
5651.604, 2225.855
5653.532, 2246.725
5655.460, 2276.352
5657.389, 2219.047
5659.317, 2264.269
5661.246, 2279.393
5663.174, 2241.629
5665.103, 2236.326
5667.031, 2232.367
5668.960, 2235.665
5670.888, 2239.767
5672.817, 2223.093
5674.745, 2224.750
5676.674, 2239.001
5678.602, 2244.502
5680.531, 2207.000
5682.459, 2182.725
5684.388, 2210.881
5686.316, 2258.976
5688.245, 2234.666
5690.173, 2212.214
5692.102, 2214.748
5694.030, 2228.416
5695.958, 2210.391
5697.887, 2208.265
5699.815, 2214.516
5701.744, 2223.031
5703.672, 2228.825
5705.601, 2257.258
5707.529, 2226.727
5709.458, 2177.689
5711.386, 2192.852
5713.314, 2208.514
5715.243, 2208.904
5717.171, 2199.486
5719.100, 2191.305
5721.028, 2213.397
5722.957, 2206.607
5724.885, 2207.426
5726.814, 2252.665
5728.742, 2226.285
5730.671, 2177.889
5732.599, 2153.905
5734.528, 2173.261
5736.456, 2172.006
5738.385, 2158.674
5740.313, 2165.928
5742.242, 2194.647
5744.170, 2153.382
5746.099, 2220.513
5748.027, 2255.547
5749.956, 2214.879
5751.884, 2201.699
5753.813, 2172.619
5755.741, 2158.840
5757.669, 2154.681
5759.598, 2125.154
5761.526, 2141.207
5763.455, 2149.969
5765.383, 2145.438
5767.312, 2144.757
5769.240, 2193.796
5771.168, 2179.911
5773.097, 2137.108
5775.025, 2121.066
5776.954, 2125.904
5778.882, 2139.046
5780.811, 2149.644
5782.739, 2153.406
5784.668, 2156.792
5786.596, 2148.266
5788.525, 2133.099
5790.453, 2114.672
5792.382, 2089.751
5794.310, 2138.247
5796.239, 2149.317
5798.167, 2122.654
5800.096, 2113.233
5802.024, 2156.836
5803.953, 2165.618
5805.881, 2136.567
5807.810, 2097.007
5809.738, 2114.570
5811.667, 2133.971
5813.595, 2143.458
5815.523, 2140.049
5817.452, 2112.414
5819.380, 2137.869
5821.309, 2120.351
5823.237, 2077.675
5825.166, 2109.134
5827.094, 2107.563
5829.022, 2102.090
5830.951, 2096.885
5832.879, 2090.082
5834.808, 2107.233
5836.736, 2139.812
5838.665, 2104.038
5840.593, 2022.397
5842.522, 2096.198
5844.450, 2132.323
5846.379, 2111.774
5848.307, 2071.793
5850.236, 2062.977
5852.164, 2083.068
5854.093, 2099.074
5856.021, 2097.517
5857.950, 2082.952
5859.878, 2095.710
5861.807, 2082.141
5863.735, 2088.845
5865.664, 2106.685
5867.592, 2080.638
5869.521, 2087.710
5871.449, 2073.443
5873.377, 2061.164
5875.306, 2080.056
5877.234, 2109.290
5879.163, 2077.115
5881.091, 2043.461
5883.020, 2041.148
5884.948, 2066.266
5886.876, 2073.942
5888.805, 2082.977
5890.733, 2070.869
5892.662, 2022.321
5894.590, 2063.052
5896.519, 2062.387
5898.447, 2068.410
5900.376, 2084.956
5902.304, 2032.405
5904.233, 2049.623
5906.161, 2077.310
5908.090, 2091.795
5910.018, 2090.080
5911.947, 2085.985
5913.875, 2067.865
5915.804, 2068.464
5917.732, 2073.114
5919.661, 2029.991
5921.589, 2013.833
5923.518, 2045.078
5925.446, 2053.810
5927.375, 2013.211
5929.303, 2052.464
5931.231, 2056.557
5933.160, 2050.491
5935.088, 2042.199
5937.017, 2025.064
5938.945, 2028.140
5940.874, 2040.658
5942.802, 2050.689
5944.730, 2056.842
5946.659, 2069.560
5948.587, 2036.325
5950.516, 2020.744
5952.444, 2011.578
5954.373, 1995.385
5956.301, 2050.314
5958.230, 2029.164
5960.158, 2015.745
5962.087, 2026.052
5964.015, 2024.088
5965.944, 2026.801
5967.872, 2042.051
5969.801, 2026.368
5971.729, 1983.029
5973.658, 1978.233
5975.586, 1988.998
5977.515, 2029.952
5979.443, 2046.266
5981.372, 2016.312
5983.300, 2057.625
5985.229, 2027.537
5987.157, 2005.815
5989.085, 2004.756
5991.014, 2002.121
5992.942, 2004.627
5994.871, 2004.526
5996.799, 2004.859
5998.728, 2006.354
6000.656, 2007.922
6002.584, 1973.445
6004.513, 1981.531
6006.441, 2002.967
6008.370, 2001.586
6010.299, 1940.831
6012.227, 1924.060
6014.156, 1973.329
6016.084, 2008.814
6018.013, 1996.232
6019.941, 1987.406
6021.870, 1973.318
6023.798, 2004.220
6025.727, 2014.792
6027.655, 1974.825
6029.583, 1987.684
6031.512, 1989.661
6033.440, 1969.932
6035.369, 1955.770
6037.297, 1964.755
6039.226, 1959.885
6041.154, 1975.843
6043.083, 2003.050
6045.011, 2012.873
6046.939, 1989.421
6048.868, 1968.930
6050.796, 1975.132
6052.725, 1979.944
6054.653, 1994.634
6056.582, 2032.189
6058.510, 2046.132
6060.439, 2004.826
6062.367, 1994.427
6064.296, 1985.134
6066.224, 1935.166
6068.153, 1979.799
6070.081, 1976.706
6072.010, 1979.082
6073.938, 1973.993
6075.867, 1940.515
6077.795, 1968.230
6079.724, 1998.333
6081.652, 1970.752
6083.581, 1940.365
6085.509, 1963.531
6087.438, 1980.790
6089.366, 1967.373
6091.294, 1967.703
6093.223, 1968.758
6095.151, 1953.677
6097.080, 1947.372
6099.008, 1946.921
6100.937, 1982.896
6102.865, 1991.912
6104.793, 1950.424
6106.722, 1944.552
6108.650, 1962.999
6110.579, 1970.341
6112.507, 1964.588
6114.436, 1955.005
6116.364, 1951.758
6118.293, 1934.506
6120.221, 1938.715
6122.150, 1928.366
6124.078, 1917.239
6126.007, 1968.401
6127.935, 1953.664
6129.864, 1925.150
6131.792, 1925.937
6133.721, 1941.353
6135.649, 1937.682
6137.578, 1961.399
6139.506, 1935.713
6141.435, 1902.633
6143.363, 1918.668
6145.292, 1983.108
6147.220, 1948.950
6149.148, 1940.817
6151.077, 1942.569
6153.005, 1933.337
6154.934, 1918.519
6156.862, 1937.938
6158.791, 1912.107
6160.719, 1913.007
6162.647, 1932.324
6164.576, 1939.149
6166.504, 1911.846
6168.433, 1917.703
6170.361, 1918.371
6172.290, 1933.371
6174.218, 1943.460
6176.147, 1929.436
6178.075, 1903.229
6180.004, 1956.222
6181.932, 1912.196
6183.861, 1891.282
6185.789, 1920.175
6187.718, 1879.955
6189.646, 1910.818
6191.575, 1923.892
6193.503, 1921.511
6195.432, 1914.846
6197.360, 1909.378
6199.289, 1908.659
6201.217, 1899.637
6203.146, 1876.351
6205.074, 1883.899
6207.002, 1918.390
6208.931, 1924.203
6210.859, 1932.165
6212.788, 1935.427
6214.716, 1933.169
6216.645, 1916.220
6218.573, 1896.511
6220.501, 1936.730
6222.430, 1899.938
6224.358, 1914.777
6226.287, 1915.845
6228.215, 1889.952
6230.144, 1897.578
6232.072, 1912.006
6234.001, 1891.593
6235.929, 1901.777
6237.858, 1897.213
6239.786, 1860.657
6241.715, 1878.313
6243.643, 1883.952
6245.572, 1902.504
6247.500, 1923.193
6249.429, 1918.147
6251.357, 1882.577
6253.286, 1893.606
6255.214, 1886.621
6257.143, 1872.737
6259.071, 1896.864
6261.000, 1922.927
6262.928, 1880.741
6264.856, 1870.767
6266.785, 1847.795
6268.713, 1859.876
6270.642, 1873.983
6272.570, 1873.527
6274.499, 1883.238
6276.427, 1887.997
6278.355, 1883.619
6280.284, 1864.157
6282.212, 1861.886
6284.141, 1881.217
6286.069, 1882.714
6287.998, 1910.083
6289.926, 1851.087
6291.855, 1832.093
6293.783, 1870.032
6295.712, 1906.404
6297.640, 1883.092
6299.569, 1881.846
6301.497, 1870.370
6303.426, 1865.532
6305.354, 1858.193
6307.283, 1840.059
6309.211, 1830.477
6311.140, 1874.124
6313.068, 1864.477
6314.997, 1858.689
6316.925, 1854.965
6318.854, 1835.096
6320.782, 1817.776
6322.710, 1827.939
6324.639, 1842.173
6326.567, 1842.163
6328.496, 1852.678
6330.424, 1871.531
6332.353, 1842.314
6334.281, 1829.415
6336.209, 1838.090
6338.138, 1865.125
6340.066, 1863.989
6341.995, 1843.654
6343.923, 1866.930
6345.852, 1855.254
6347.780, 1849.801
6349.709, 1831.549
6351.637, 1819.434
6353.566, 1826.442
6355.494, 1845.281
6357.423, 1869.855
6359.351, 1805.156
6361.280, 1847.020
6363.208, 1854.494
6365.137, 1828.292
6367.065, 1859.998
6368.994, 1844.203
6370.922, 1850.396
6372.851, 1846.139
6374.779, 1843.105
6376.708, 1843.432
6378.636, 1844.788
6380.564, 1852.138
6382.493, 1834.334
6384.421, 1827.474
6386.350, 1842.698
6388.278, 1854.890
6390.207, 1842.799
6392.135, 1815.719
6394.063, 1828.689
6395.992, 1844.022
6397.920, 1798.240
6399.849, 1802.580
6401.777, 1828.239
6403.706, 1810.949
6405.634, 1804.006
6407.563, 1818.617
6409.491, 1829.456
6411.420, 1799.015
6413.348, 1785.917
6415.277, 1811.534
6417.205, 1835.382
6419.134, 1806.881
6421.062, 1800.491
6422.991, 1839.714
6424.919, 1821.657
6426.848, 1792.930
6428.776, 1810.664
6430.705, 1825.875
6432.633, 1805.646
6434.562, 1816.706
6436.490, 1819.146
6438.418, 1811.170
6440.347, 1801.409
6442.275, 1796.752
6444.204, 1806.326
6446.132, 1826.796
6448.061, 1780.900
6449.989, 1762.781
6451.917, 1793.654
6453.846, 1815.475
6455.774, 1785.481
6457.703, 1786.267
6459.631, 1792.790
6461.560, 1772.793
6463.488, 1762.437
6465.417, 1790.670
6467.345, 1803.376
6469.274, 1755.507
6471.202, 1779.599
6473.131, 1800.183
6475.059, 1783.624
6476.988, 1750.056
6478.916, 1751.538
6480.845, 1782.701
6482.773, 1789.596
6484.702, 1729.116
6486.630, 1757.279
6488.559, 1777.793
6490.487, 1776.567
6492.416, 1787.098
6494.344, 1789.839
6496.272, 1761.727
6498.201, 1787.247
6500.129, 1765.706
6502.058, 1751.056
6503.986, 1775.185
6505.915, 1800.490
6507.843, 1792.832
6509.771, 1755.651
6511.700, 1727.319
6513.628, 1727.871
6515.557, 1755.216
6517.485, 1743.169
6519.414, 1752.828
6521.342, 1761.690
##END=



