##NAMES=Bjarebyite
##RRUFFID=R130106
##IDEAL CHEMISTRY=BaMn^2+^_2_Al_2_(PO_4_)_3_(OH)_3_
##LOCALITY=Palermo #1 mine, North Groton, New Hampshire
##OWNER=RRUFF
##SOURCE=Donald Doell (small piece), Rock Currier (large Piece)
##DESCRIPTION=Dark green, heavily striated crystals
##STATUS=The identification of this mineral has been confirmed by single-crystal X-ray diffraction
##URL=https://www.rruff.net/odr/rruff_sample/R130106
##DIFFRACTION SAMPLE DESCRIPTION=Single crystal, powder profile is calculated
##CELL PARAMETERS=a: 9.052 b: 12.091 c: 4.9371 alpha: 90 beta: 100.413 gamma: 90 volume: 531.41 crystal system: monoclinic
##FILETYPE=Raman RAW
##RAMAN WAVELENGTH=532

196.2519, 60.64413
198.1804, 65.04523
200.1089, 69.73172
202.0373, 74.93594
203.9658, 80.88904
205.8943, 87.15126
207.8227, 94.13623
209.7512, 103.5591
211.6797, 109.5086
213.6081, 110.3920
215.5366, 107.6892
217.4651, 103.8034
219.3935, 97.16790
221.3220, 90.68333
223.2505, 85.75723
225.1789, 82.30318
227.1074, 79.67632
229.0359, 77.99055
230.9643, 77.04020
232.8928, 76.10117
234.8213, 75.29953
236.7497, 74.39217
238.6782, 73.15098
240.6067, 71.44329
242.5351, 69.91283
244.4636, 68.57134
246.3921, 67.45191
248.3205, 66.74619
250.2490, 66.37810
252.1775, 66.44638
254.1059, 66.96605
256.0344, 68.08331
257.9629, 69.35487
259.8913, 70.53600
261.8198, 71.78043
263.7483, 73.61569
265.6767, 76.39975
267.6052, 79.49216
269.5337, 82.59145
271.4621, 86.50912
273.3906, 89.21266
275.3191, 90.83736
277.2475, 91.07879
279.1760, 89.52901
281.1045, 84.70169
283.0329, 79.15118
284.9614, 74.02293
286.8899, 68.99779
288.8183, 65.03423
290.7468, 62.56729
292.6753, 61.26642
294.6037, 60.48533
296.5322, 60.38072
298.4607, 60.68316
300.3891, 61.29763
302.3176, 62.15119
304.2461, 63.58657
306.1745, 66.10744
308.1030, 69.26147
310.0315, 72.18849
311.9599, 75.44231
313.8884, 78.01619
315.8169, 79.57423
317.7453, 80.23528
319.6738, 79.59573
321.6023, 76.45085
323.5307, 72.16774
325.4592, 68.71293
327.3877, 66.13649
329.3161, 64.24073
331.2446, 63.23139
333.1731, 62.99858
335.1015, 62.96782
337.0300, 63.28704
338.9585, 63.67116
340.8869, 63.80719
342.8154, 63.70680
344.7439, 63.42456
346.6723, 62.83772
348.6008, 62.00373
350.5292, 61.39346
352.4577, 61.19936
354.3862, 61.12708
356.3146, 61.00753
358.2431, 60.91172
360.1716, 60.56355
362.1000, 59.70270
364.0285, 58.45261
365.9570, 57.41983
367.8854, 56.60158
369.8139, 55.96796
371.7424, 55.56298
373.6708, 55.37693
375.5993, 55.26815
377.5278, 55.07741
379.4562, 54.95563
381.3847, 55.23299
383.3132, 56.17765
385.2416, 57.22474
387.1701, 58.21266
389.0986, 59.15915
391.0270, 60.24795
392.9555, 61.67797
394.8840, 63.18322
396.8124, 64.47539
398.7409, 65.31547
400.6694, 66.37504
402.5978, 67.84379
404.5263, 69.64124
406.4548, 71.66152
408.3832, 73.86655
410.3117, 76.30835
412.2402, 79.14056
414.1686, 82.44444
416.0971, 85.64664
418.0256, 88.40845
419.9540, 91.05629
421.8825, 94.11401
423.8110, 97.56839
425.7394, 101.4758
427.6679, 106.1481
429.5964, 111.4950
431.5248, 116.5691
433.4533, 121.4387
435.3818, 125.8569
437.3102, 129.6383
439.2387, 131.7977
441.1672, 134.4429
443.0956, 137.4734
445.0241, 141.0747
446.9526, 145.5855
448.8810, 151.9815
450.8095, 158.1599
452.7380, 163.9198
454.6664, 169.8318
456.5949, 172.1945
458.5234, 170.1111
460.4518, 164.7162
462.3803, 157.2390
464.3088, 146.4612
466.2372, 135.9735
468.1657, 126.0646
470.0942, 116.9556
472.0226, 109.4403
473.9511, 103.9231
475.8796, 99.50098
477.8080, 95.82645
479.7365, 92.95775
481.6650, 90.42448
483.5934, 88.37554
485.5219, 86.51392
487.4504, 84.44514
489.3788, 82.00293
491.3073, 79.79939
493.2358, 77.96313
495.1642, 76.46870
497.0927, 75.36532
499.0212, 74.56658
500.9496, 74.19904
502.8781, 74.39058
504.8066, 75.12063
506.7350, 76.23055
508.6635, 77.98502
510.5920, 79.98203
512.5204, 81.89454
514.4489, 83.58334
516.3774, 85.34105
518.3058, 87.33347
520.2343, 89.39010
522.1628, 91.18180
524.0912, 92.67188
526.0197, 93.89367
527.9482, 94.78261
529.8766, 95.22928
531.8051, 95.98200
533.7336, 97.01083
535.6620, 98.36477
537.5905, 99.92635
539.5190, 101.5060
541.4474, 104.0066
543.3759, 107.7600
545.3044, 112.4393
547.2328, 117.5267
549.1613, 123.1962
551.0898, 128.9644
553.0182, 134.8106
554.9467, 140.6814
556.8752, 146.3853
558.8036, 154.5345
560.7321, 160.2680
562.6606, 161.7348
564.5891, 158.5786
566.5175, 151.0289
568.4460, 134.7280
570.3745, 116.1704
572.3029, 100.5860
574.2314, 87.82870
576.1599, 78.82507
578.0883, 74.85558
580.0168, 74.54756
581.9453, 74.29559
583.8737, 74.82215
585.8022, 74.30637
587.7307, 71.50053
589.6591, 66.69785
591.5876, 62.66672
593.5161, 59.52480
595.4445, 57.19483
597.3729, 55.71368
599.3014, 55.09087
601.2299, 55.26789
603.1583, 56.47151
605.0868, 58.40565
607.0153, 60.83942
608.9437, 64.10599
610.8722, 67.32514
612.8007, 70.58544
614.7291, 73.70736
616.6576, 76.46587
618.5861, 79.25699
620.5145, 80.93456
622.4430, 81.10225
624.3715, 79.86221
626.2999, 77.50857
628.2284, 73.10052
630.1569, 68.47815
632.0853, 64.14110
634.0138, 60.11115
635.9423, 56.60802
637.8707, 53.72528
639.7992, 51.38848
641.7277, 49.55401
643.6561, 48.42460
645.5846, 47.43457
647.5131, 46.60516
649.4415, 45.89311
651.3700, 45.25921
653.2985, 44.71552
655.2269, 44.20763
657.1554, 43.73373
659.0839, 43.28191
661.0123, 42.83397
662.9408, 42.52383
664.8693, 42.05291
666.7977, 41.23626
668.7262, 40.18613
670.6547, 39.28844
672.5831, 38.60636
674.5116, 38.01356
676.4401, 37.42708
678.3685, 36.83457
680.2970, 36.41758
682.2255, 36.32117
684.1539, 36.24886
686.0824, 35.97712
688.0109, 35.51633
689.9393, 35.23494
691.8678, 35.35478
693.7963, 35.56324
695.7247, 35.65851
697.6532, 35.55778
699.5817, 35.49685
701.5101, 35.52535
703.4386, 35.57179
705.3671, 35.54480
707.2955, 35.41712
709.2240, 35.34031
711.1525, 35.40284
713.0809, 35.52312
715.0094, 35.58715
716.9379, 35.56590
718.8663, 35.51770
720.7948, 35.39139
722.7233, 35.24878
724.6517, 35.23144
726.5802, 35.43767
728.5087, 35.57041
730.4371, 35.43427
732.3656, 35.10793
734.2941, 35.01969
736.2225, 35.46488
738.1510, 35.82131
740.0795, 35.84576
742.0079, 35.61170
743.9364, 35.45284
745.8649, 35.42095
747.7933, 35.43515
749.7218, 35.46907
751.6503, 35.52641
753.5787, 35.56744
755.5072, 35.50085
757.4357, 35.49659
759.3641, 35.73977
761.2926, 36.19719
763.2211, 36.38969
765.1495, 35.96828
767.0780, 35.54939
769.0065, 35.50891
770.9349, 36.00275
772.8634, 36.33186
774.7919, 36.43855
776.7203, 36.44779
778.6488, 36.39722
780.5773, 36.27953
782.5057, 36.28505
784.4342, 36.59564
786.3627, 36.91662
788.2911, 37.00984
790.2196, 36.72858
792.1481, 36.60336
794.0765, 36.73340
796.0050, 36.96112
797.9335, 37.17056
799.8619, 37.37426
801.7904, 37.51884
803.7189, 37.63836
805.6473, 37.67052
807.5758, 37.52248
809.5043, 37.04473
811.4327, 36.80052
813.3612, 36.99788
815.2897, 37.33436
817.2181, 37.48742
819.1466, 37.42228
821.0751, 37.35263
823.0035, 37.24662
824.9320, 37.20002
826.8605, 37.32415
828.7889, 37.71521
830.7174, 38.01295
832.6459, 38.12119
834.5743, 38.15822
836.5028, 38.25397
838.4313, 38.43459
840.3597, 38.57386
842.2882, 38.57959
844.2167, 38.57086
846.1451, 38.68040
848.0736, 38.97185
850.0021, 39.12699
851.9305, 38.93268
853.8590, 38.68403
855.7875, 38.67927
857.7159, 39.03389
859.6444, 39.35874
861.5729, 39.62405
863.5013, 39.85924
865.4298, 40.10722
867.3583, 40.38465
869.2867, 40.57473
871.2152, 40.56236
873.1437, 40.51677
875.0721, 40.56353
877.0006, 40.74337
878.9291, 40.92761
880.8575, 41.08897
882.7860, 41.27344
884.7145, 41.49371
886.6429, 41.74146
888.5714, 42.12038
890.4999, 42.80951
892.4283, 43.49776
894.3568, 43.98068
896.2853, 44.17260
898.2137, 44.45103
900.1422, 44.86887
902.0707, 45.31408
903.9991, 45.70791
905.9276, 46.05836
907.8561, 46.46365
909.7845, 46.92556
911.7130, 47.46802
913.6415, 48.15471
915.5699, 48.99773
917.4984, 49.66621
919.4269, 49.95171
921.3553, 50.26965
923.2838, 50.71198
925.2123, 51.29649
927.1407, 52.10221
929.0692, 53.23561
930.9976, 54.42077
932.9261, 55.40538
934.8546, 56.34803
936.7830, 57.70652
938.7115, 59.48511
940.6400, 61.76379
942.5684, 64.53383
944.4969, 67.79139
946.4254, 71.60256
948.3538, 75.98741
950.2823, 80.77794
952.2108, 85.75341
954.1392, 91.23786
956.0677, 97.78394
957.9962, 105.7884
959.9246, 113.3582
961.8531, 121.1432
963.7816, 127.6654
965.7100, 131.3715
967.6385, 131.4269
969.5670, 129.9836
971.4954, 126.1731
973.4239, 121.5297
975.3524, 116.6554
977.2808, 111.5535
979.2093, 108.2665
981.1378, 107.0546
983.0662, 107.9675
984.9947, 110.7586
986.9232, 115.4244
988.8516, 122.4539
990.7801, 131.6801
992.7086, 143.5085
994.6370, 157.8584
996.5655, 175.0657
998.4940, 195.6376
1000.422, 219.3582
1002.351, 246.5376
1004.279, 277.6120
1006.208, 312.1443
1008.136, 350.3891
1010.065, 395.2682
1011.993, 436.1504
1013.922, 477.5400
1015.850, 510.8157
1017.779, 526.8720
1019.707, 525.4201
1021.636, 504.6987
1023.564, 452.6697
1025.493, 390.4832
1027.421, 328.6288
1029.349, 267.5483
1031.278, 217.6801
1033.206, 182.6264
1035.135, 156.9449
1037.063, 139.1410
1038.992, 128.7568
1040.920, 120.6043
1042.849, 116.1578
1044.777, 112.2628
1046.706, 108.4077
1048.634, 104.6876
1050.563, 101.4291
1052.491, 99.04612
1054.420, 95.93638
1056.348, 91.11749
1058.276, 85.74044
1060.205, 80.74409
1062.133, 76.09989
1064.062, 72.10151
1065.990, 68.70566
1067.919, 66.05651
1069.847, 64.39336
1071.776, 63.77383
1073.704, 63.30411
1075.633, 62.97937
1077.561, 62.77464
1079.490, 62.71338
1081.418, 62.75973
1083.347, 62.82996
1085.275, 62.93365
1087.203, 63.03423
1089.132, 62.95203
1091.060, 62.97157
1092.989, 63.43711
1094.917, 64.49515
1096.846, 65.59909
1098.774, 66.64925
1100.703, 67.78321
1102.631, 69.19932
1104.560, 70.89756
1106.488, 72.17991
1108.417, 73.14464
1110.345, 73.54629
1112.273, 73.09298
1114.202, 72.03479
1116.130, 70.81046
1118.059, 69.39595
1119.987, 67.97827
1121.916, 66.31980
1123.844, 64.88964
1125.773, 64.12025
1127.701, 64.10387
1129.630, 64.54725
1131.558, 65.59879
1133.487, 66.90736
1135.415, 68.51080
1137.344, 70.29323
1139.272, 71.62875
1141.200, 72.59470
1143.129, 72.94349
1145.057, 72.38805
1146.986, 71.21711
1148.914, 69.83596
1150.843, 68.31823
1152.771, 66.25455
1154.700, 63.01702
1156.628, 59.71593
1158.557, 56.97400
1160.485, 54.81884
1162.414, 52.83376
1164.342, 50.98178
1166.271, 49.33251
1168.199, 47.91328
1170.127, 46.71875
1172.056, 45.74009
1173.984, 44.98310
1175.913, 44.39109
1177.841, 44.11905
1179.770, 43.86045
1181.698, 43.35954
1183.627, 42.62373
1185.555, 42.00438
1187.484, 41.55515
1189.412, 41.19350
1191.341, 40.86699
1193.269, 40.61052
1195.198, 40.51894
1197.126, 40.78723
1199.054, 40.89737
1200.983, 40.64836
1202.911, 40.38290
1204.840, 40.42375
1206.768, 40.73214
1208.697, 40.92789
1210.625, 40.94248
1212.554, 40.91540
1214.482, 40.86396
1216.411, 40.81887
1218.339, 40.85405
1220.268, 41.01566
1222.196, 41.09370
1224.125, 41.00543
1226.053, 40.87367
1227.981, 40.73664
1229.910, 40.59655
1231.838, 40.58434
1233.767, 40.88430
1235.695, 41.06701
1237.624, 40.90424
1239.552, 40.63236
1241.481, 40.61460
1243.409, 40.86665
1245.338, 41.10539
1247.266, 41.37566
1249.195, 41.51407
1251.123, 41.30061
1253.052, 40.88245
1254.980, 40.76851
1256.908, 41.18085
1258.837, 41.42207
1260.765, 41.18666
1262.694, 40.82538
1264.622, 40.63887
1266.551, 40.65379
1268.479, 40.68427
1270.408, 40.72775
1272.336, 40.79171
1274.265, 40.86134
1276.193, 40.96405
1278.122, 41.19400
1280.050, 41.61583
1281.979, 41.86337
1283.907, 41.73578
1285.835, 41.55297
1287.764, 41.49679
1289.692, 41.53327
1291.621, 41.58076
1293.549, 41.65123
1295.478, 41.67725
1297.406, 41.61403
1299.335, 41.51714
1301.263, 41.41771
1303.192, 41.30772
1305.120, 41.27380
1307.049, 41.33667
1308.977, 41.45890
1310.906, 41.75059
1312.834, 42.05505
1314.762, 42.07963
1316.691, 41.69282
1318.619, 41.44586
1320.548, 41.42474
1322.476, 41.47223
1324.405, 41.57538
1326.333, 41.68109
1328.262, 41.63969
1330.190, 41.39631
1332.119, 41.23421
1334.047, 41.26672
1335.976, 41.36410
1337.904, 41.47287
1339.833, 41.58115
1341.761, 41.60028
1343.689, 41.44154
1345.618, 41.36803
1347.546, 41.52817
1349.475, 41.72468
1351.403, 41.78755
1353.332, 41.70690
1355.260, 41.60376
1357.189, 41.49204
1359.117, 41.35023
1361.046, 41.09862
1362.974, 40.85469
1364.903, 40.75994
1366.831, 40.81886
1368.760, 40.98159
1370.688, 41.40937
1372.616, 41.72023
1374.545, 41.70371
1376.473, 41.51638
1378.402, 41.40020
1380.330, 41.36586
1382.259, 41.33022
1384.187, 41.28357
1386.116, 41.24246
1388.044, 41.21310
1389.973, 41.19396
1391.901, 41.19956
1393.830, 41.25220
1395.758, 41.20194
1397.687, 40.95646
1399.615, 40.66594
1401.543, 40.34509
1403.472, 40.02869
1405.400, 39.81966
1407.329, 39.74927
1409.257, 39.73350
1411.186, 39.84547
1413.114, 39.93385
1415.043, 39.86754
1416.971, 39.71507
1418.900, 39.72414
1420.828, 40.00595
1422.757, 40.15557
1424.685, 39.96740
1426.614, 39.80053
1428.542, 39.92223
1430.470, 40.22199
1432.399, 40.36681
1434.327, 40.32623
1436.256, 40.28139
1438.184, 40.27535
1440.113, 40.27106
1442.041, 40.19532
1443.970, 40.10702
1445.898, 40.18914
1447.827, 40.50343
1449.755, 40.67936
1451.684, 40.50551
1453.612, 40.32640
1455.541, 40.35516
1457.469, 40.51904
1459.397, 40.60688
1461.326, 40.63402
1463.254, 40.56145
1465.183, 40.28921
1467.111, 40.02883
1469.040, 39.84319
1470.968, 39.73656
1472.897, 39.72721
1474.825, 39.86657
1476.754, 39.98907
1478.682, 40.15286
1480.611, 40.23260
1482.539, 40.10344
1484.468, 39.88069
1486.396, 39.78441
1488.324, 39.84921
1490.253, 39.90484
1492.181, 39.96813
1494.110, 39.98439
1496.038, 39.88204
1497.967, 39.74261
1499.895, 39.67607
1501.824, 39.68178
1503.752, 39.77889
1505.681, 40.11781
1507.609, 40.29487
1509.538, 40.00605
1511.466, 39.61416
1513.395, 39.49962
1515.323, 39.62043
1517.251, 39.68672
1519.180, 39.62660
1521.108, 39.63110
1523.037, 39.83340
1524.965, 40.03712
1526.894, 40.05692
1528.822, 39.94563
1530.751, 39.96717
1532.679, 40.20523
1534.608, 40.32686
1536.536, 40.17671
1538.465, 40.00818
1540.393, 39.95146
1542.322, 39.98605
1544.250, 40.02483
1546.178, 40.02252
1548.107, 40.20665
1550.035, 40.82587
1551.964, 41.33476
1553.892, 41.43094
1555.821, 41.35850
1557.749, 41.50774
1559.678, 41.96508
1561.606, 42.13871
1563.535, 41.70734
1565.463, 41.44291
1567.392, 41.59371
1569.320, 41.86744
1571.249, 42.03812
1573.177, 42.10888
1575.105, 42.12395
1577.034, 42.00193
1578.962, 41.94073
1580.891, 42.01252
1582.819, 42.07956
1584.748, 42.02847
1586.676, 41.94204
1588.605, 42.00823
1590.533, 42.28778
1592.462, 42.52362
1594.390, 42.79200
1596.319, 42.90975
1598.247, 42.57986
1600.176, 42.23116
1602.104, 42.43931
1604.032, 43.14851
1605.961, 43.47735
1607.889, 43.31825
1609.818, 43.03442
1611.746, 42.57547
1613.675, 42.14063
1615.603, 41.85377
1617.532, 41.68117
1619.460, 41.52447
1621.389, 41.37261
1623.317, 41.38642
1625.246, 41.75821
1627.174, 42.00440
1629.103, 41.90774
1631.031, 41.63137
1632.959, 41.27546
1634.888, 40.86654
1636.816, 40.53395
1638.745, 40.27641
1640.673, 40.12162
1642.602, 40.13169
1644.530, 40.18422
1646.459, 40.25050
1648.387, 40.30436
1650.316, 40.31649
1652.244, 40.28548
1654.173, 40.17381
1656.101, 39.96056
1658.030, 39.69518
1659.958, 39.19431
1661.886, 38.82934
1663.815, 39.07018
1665.743, 39.61653
1667.672, 39.71270
1669.600, 39.29115
1671.529, 39.02879
1673.457, 39.10109
1675.386, 39.22950
1677.314, 39.33200
1679.243, 39.40656
1681.171, 39.43958
1683.100, 39.43734
1685.028, 39.43593
1686.957, 39.43276
1688.885, 39.42729
1690.813, 39.39587
1692.742, 39.39498
1694.670, 39.48618
1696.599, 39.60482
1698.527, 39.69818
1700.456, 39.75938
1702.384, 39.72560
1704.313, 39.58276
1706.241, 39.38408
1708.170, 39.04750
1710.098, 38.79029
1712.027, 38.77127
1713.955, 38.89700
1715.884, 39.06925
1717.812, 39.28128
1719.740, 39.43288
1721.669, 39.47835
1723.597, 39.57721
1725.526, 39.93905
1727.454, 40.15656
1729.383, 39.72499
1731.311, 39.10407
1733.240, 39.13138
1735.168, 39.76208
1737.097, 39.99100
1739.025, 39.57113
1740.954, 39.23743
1742.882, 39.25896
1744.811, 39.36953
1746.739, 39.40892
1748.667, 39.42843
1750.596, 39.52721
1752.524, 39.69682
1754.453, 39.79304
1756.381, 39.77491
1758.310, 39.77417
1760.238, 39.91915
1762.167, 39.98172
1764.095, 39.69510
1766.024, 39.30266
1767.952, 39.23138
1769.880, 39.44088
1771.809, 39.45985
1773.737, 39.16069
1775.666, 38.98127
1777.594, 39.13337
1779.523, 39.30747
1781.451, 39.42126
1783.380, 39.43128
1785.308, 39.18582
1787.237, 38.73817
1789.165, 38.55609
1791.094, 38.74697
1793.022, 38.86634
1794.951, 38.73207
1796.879, 38.65211
1798.807, 38.92462
1800.736, 39.17526
1802.664, 38.85275
1804.593, 38.11979
1806.521, 37.86987
1808.450, 38.26099
1810.378, 38.51832
1812.307, 38.53880
1814.235, 38.49168
1816.164, 38.31163
1818.092, 38.18010
1820.021, 38.33724
1821.949, 38.63302
1823.878, 38.64822
1825.806, 38.30719
1827.734, 38.11943
1829.663, 38.24507
1831.591, 38.28248
1833.520, 38.05663
1835.448, 37.88601
1837.377, 37.96694
1839.305, 38.17997
1841.234, 38.41988
1843.162, 38.67303
1845.091, 38.64153
1847.019, 38.12445
1848.948, 37.81602
1850.876, 37.93508
1852.805, 38.05162
1854.733, 38.02404
1856.661, 37.98223
1858.590, 38.08399
1860.518, 38.24373
1862.447, 38.21272
1864.375, 37.98043
1866.304, 37.66405
1868.232, 37.11741
1870.161, 36.91139
1872.089, 37.38226
1874.018, 37.95065
1875.946, 38.49910
1877.875, 38.86370
1879.803, 38.72761
1881.732, 38.24770
1883.660, 38.03095
1885.589, 38.11667
1887.517, 38.22324
1889.445, 38.34624
1891.374, 38.39964
1893.302, 38.31870
1895.231, 38.20107
1897.159, 38.08115
1899.088, 37.98112
1901.016, 37.90738
1902.945, 37.87409
1904.873, 38.02483
1906.802, 38.45748
1908.730, 38.68583
1910.659, 38.48213
1912.587, 38.30518
1914.516, 38.27341
1916.444, 38.31563
1918.372, 38.45603
1920.301, 38.60281
1922.229, 38.50431
1924.158, 38.16191
1926.086, 38.18845
1928.015, 38.97173
1929.943, 39.34858
1931.872, 38.94043
1933.800, 38.62616
1935.729, 38.76470
1937.657, 38.92368
1939.586, 38.70356
1941.514, 38.36346
1943.443, 38.42928
1945.371, 38.86835
1947.299, 39.03990
1949.228, 38.86036
1951.156, 38.78807
1953.085, 38.94087
1955.013, 39.08642
1956.942, 39.09512
1958.870, 39.13076
1960.799, 39.39638
1962.727, 39.69272
1964.656, 39.73093
1966.584, 39.56392
1968.513, 39.42257
1970.441, 39.31221
1972.370, 39.21209
1974.298, 39.07263
1976.226, 39.03175
1978.155, 39.25856
1980.083, 39.43165
1982.012, 39.29798
1983.940, 39.09937
1985.869, 39.11644
1987.797, 39.29939
1989.726, 39.48489
1991.654, 39.68679
1993.583, 39.79316
1995.511, 39.70033
1997.440, 39.70413
1999.368, 40.02549
2001.297, 40.18196
2003.225, 39.84879
2005.153, 39.48822
2007.082, 39.43788
2009.010, 39.58760
2010.939, 39.81421
2012.867, 40.08411
2014.796, 40.14073
2016.724, 39.94556
2018.653, 39.87635
2020.581, 40.03613
2022.510, 40.17415
2024.438, 40.18578
2026.367, 40.19098
2028.295, 40.22254
2030.224, 40.29802
2032.152, 40.46991
2034.080, 40.69040
2036.009, 40.88891
2037.937, 41.07302
2039.866, 40.97532
2041.794, 40.20971
2043.723, 39.93409
2045.651, 40.58840
2047.580, 41.06457
2049.508, 41.07640
2051.437, 40.95684
2053.365, 40.86964
2055.294, 40.73363
2057.222, 40.35065
2059.151, 39.88250
2061.079, 39.82943
2063.008, 40.14546
2064.936, 40.24462
2066.865, 40.04086
2068.793, 40.01663
2070.721, 40.33117
2072.650, 40.64695
2074.578, 40.95840
2076.507, 41.11259
2078.435, 40.92094
2080.364, 40.62548
2082.292, 40.36925
2084.220, 40.22134
2086.149, 40.41335
2088.077, 40.93378
2090.006, 41.23529
2091.934, 41.24348
2093.863, 41.31219
2095.791, 41.55787
2097.720, 41.63767
2099.648, 41.40462
2101.577, 41.11552
2103.505, 40.79276
2105.434, 40.53844
2107.362, 40.48465
2109.291, 40.51250
2111.219, 40.43075
2113.147, 40.30098
2115.076, 40.33612
2117.004, 40.54351
2118.933, 40.76782
2120.861, 41.01786
2122.790, 41.21013
2124.718, 41.30584
2126.647, 41.36657
2128.575, 41.36632
2130.504, 41.38457
2132.432, 41.51820
2134.361, 41.65015
2136.289, 41.64364
2138.218, 41.58786
2140.146, 41.72374
2142.074, 41.96365
2144.003, 41.75240
2145.931, 41.07050
2147.860, 40.92014
2149.788, 41.55566
2151.717, 41.99391
2153.645, 42.01773
2155.574, 41.87339
2157.502, 41.45326
2159.431, 41.11964
2161.359, 41.18964
2163.288, 41.30440
2165.216, 41.04969
2167.145, 40.66039
2169.073, 40.55504
2171.001, 40.69242
2172.930, 40.86968
2174.858, 41.08532
2176.787, 41.18691
2178.715, 41.15459
2180.644, 41.05153
2182.572, 40.83539
2184.501, 40.69777
2186.429, 40.76678
2188.358, 40.82787
2190.286, 40.79406
2192.215, 40.72214
2194.143, 40.61536
2196.072, 40.52378
2198.000, 40.54366
2199.928, 40.61644
2201.857, 40.54202
2203.785, 40.33583
2205.714, 40.42330
2207.642, 40.84481
2209.571, 41.02937
2211.499, 40.88224
2213.428, 40.75793
2215.356, 40.73427
2217.285, 40.71114
2219.213, 40.59935
2221.142, 40.54952
2223.070, 40.73088
2224.999, 40.88025
2226.927, 40.68700
2228.855, 40.43705
2230.784, 40.56361
2232.712, 40.89806
2234.641, 40.99676
2236.569, 40.88822
2238.498, 40.87816
2240.426, 40.97203
2242.355, 40.81574
2244.283, 40.29917
2246.212, 40.08709
2248.140, 40.50536
2250.069, 40.66681
2251.997, 40.02579
2253.926, 39.54762
2255.854, 39.66200
2257.782, 39.92363
2259.711, 40.21400
2261.639, 40.38469
2263.568, 40.17275
2265.496, 39.82855
2267.425, 39.75366
2269.353, 39.87581
2271.282, 39.98979
2273.210, 40.10402
2275.139, 40.31025
2277.067, 40.62925
2278.996, 40.72004
2280.924, 40.43263
2282.853, 40.28840
2284.781, 40.49369
2286.709, 40.58026
2288.638, 40.42341
2290.566, 40.21877
2292.495, 39.88972
2294.423, 39.70343
2296.352, 39.91117
2298.280, 40.18691
2300.209, 40.31053
2302.137, 40.34113
2304.066, 40.27807
2305.994, 40.20528
2307.923, 40.37666
2309.851, 40.70931
2311.780, 40.69786
2313.708, 40.30238
2315.636, 40.26894
2317.565, 40.69952
2319.493, 40.96336
2321.422, 40.98806
2323.350, 41.06212
2325.279, 41.31842
2327.207, 41.36797
2329.136, 40.96127
2331.064, 40.59158
2332.993, 40.40745
2334.921, 40.35482
2336.850, 40.48001
2338.778, 40.63339
2340.707, 40.75040
2342.635, 40.78593
2344.563, 40.59670
2346.492, 40.35236
2348.420, 40.40401
2350.349, 40.62761
2352.277, 40.69415
2354.206, 40.62172
2356.134, 40.48310
2358.063, 40.25457
2359.991, 40.35464
2361.920, 41.03379
2363.848, 41.22491
2365.777, 40.63753
2367.705, 40.31716
2369.634, 40.45753
2371.562, 40.61123
2373.490, 40.75663
2375.419, 40.74646
2377.347, 40.38670
2379.276, 40.07661
2381.204, 40.01313
2383.133, 40.04388
2385.061, 40.02527
2386.990, 40.10717
2388.918, 40.56680
2390.847, 41.08374
2392.775, 41.29089
2394.704, 41.25268
2396.632, 40.89558
2398.561, 40.44531
2400.489, 40.60938
2402.417, 41.25537
2404.346, 41.57613
2406.274, 41.56623
2408.203, 41.55481
2410.131, 41.57325
2412.060, 41.45702
2413.988, 41.14337
2415.917, 40.99035
2417.845, 41.04892
2419.774, 41.16816
2421.702, 41.35413
2423.631, 41.48205
2425.559, 41.44427
2427.488, 41.46125
2429.416, 41.68847
2431.344, 41.85380
2433.273, 41.83146
2435.201, 41.74189
2437.130, 41.50678
2439.058, 41.39181
2440.987, 41.72677
2442.915, 42.09539
2444.844, 42.17206
2446.772, 42.02873
2448.701, 41.54545
2450.629, 41.04665
2452.558, 41.23948
2454.486, 41.82952
2456.415, 42.03635
2458.343, 41.91576
2460.271, 41.62609
2462.200, 41.24055
2464.128, 41.26590
2466.057, 41.69298
2467.985, 41.96574
2469.914, 42.05068
2471.842, 42.03392
2473.771, 41.83808
2475.699, 41.81882
2477.628, 42.07056
2479.556, 42.14124
2481.485, 41.91704
2483.413, 41.76677
2485.342, 41.76183
2487.270, 41.83437
2489.198, 42.03346
2491.127, 42.19616
2493.055, 42.31281
2494.984, 42.34871
2496.912, 42.22754
2498.841, 42.12153
2500.769, 42.07582
2502.698, 42.08838
2504.626, 42.21222
2506.555, 42.31643
2508.483, 42.32759
2510.412, 42.25937
2512.340, 42.00978
2514.269, 41.81046
2516.197, 42.02767
2518.125, 42.33528
2520.054, 42.21825
2521.982, 41.99209
2523.911, 42.14703
2525.839, 42.49725
2527.768, 42.77634
2529.696, 42.94532
2531.625, 42.88657
2533.553, 42.63775
2535.482, 42.22384
2537.410, 41.74070
2539.339, 41.79972
2541.267, 42.30455
2543.196, 42.64055
2545.124, 42.78255
2547.052, 42.79890
2548.981, 42.64863
2550.909, 42.78407
2552.838, 43.31350
2554.766, 43.32476
2556.695, 42.73145
2558.623, 42.49542
2560.552, 42.77116
2562.480, 42.85568
2564.409, 42.51241
2566.337, 42.46812
2568.266, 43.05708
2570.194, 43.40000
2572.123, 43.34533
2574.051, 43.39911
2575.979, 43.74709
2577.908, 43.80190
2579.836, 43.16888
2581.765, 42.83242
2583.693, 43.33995
2585.622, 43.70163
2587.550, 43.52048
2589.479, 43.44057
2591.407, 43.70141
2593.336, 43.89974
2595.264, 43.87743
2597.193, 43.79558
2599.121, 43.65558
2601.050, 43.57793
2602.978, 43.74392
2604.906, 43.81186
2606.835, 43.45771
2608.763, 43.19185
2610.692, 43.34568
2612.620, 43.52905
2614.549, 43.39618
2616.477, 43.35122
2618.406, 43.89305
2620.334, 44.33006
2622.263, 44.00280
2624.191, 43.55200
2626.120, 43.39555
2628.048, 43.42222
2629.977, 43.72938
2631.905, 43.97445
2633.833, 43.67595
2635.762, 43.34875
2637.690, 43.64687
2639.619, 44.02601
2641.547, 43.75425
2643.476, 43.41799
2645.404, 43.68994
2647.333, 44.18770
2649.261, 44.63726
2651.190, 44.93060
2653.118, 44.83194
2655.047, 44.57133
2656.975, 44.40205
2658.904, 44.30980
2660.832, 44.20958
2662.760, 44.23288
2664.689, 44.80501
2666.617, 45.41370
2668.546, 45.11152
2670.474, 44.46252
2672.403, 44.36699
2674.331, 44.57501
2676.260, 44.74962
2678.188, 44.88044
2680.117, 44.91583
2682.045, 44.92213
2683.974, 45.01456
2685.902, 45.15350
2687.831, 45.31014
2689.759, 45.42930
2691.688, 45.39576
2693.616, 45.26223
2695.544, 45.06443
2697.473, 44.87721
2699.401, 44.88734
2701.330, 44.97240
2703.258, 44.82012
2705.187, 44.62517
2707.115, 44.87600
2709.044, 45.25201
2710.972, 45.13601
2712.901, 44.84087
2714.829, 44.94548
2716.758, 45.24047
2718.686, 45.31438
2720.615, 45.33511
2722.543, 45.71555
2724.471, 46.14460
2726.400, 46.02665
2728.328, 45.73817
2730.257, 45.98147
2732.185, 46.37629
2734.114, 46.24715
2736.042, 45.92328
2737.971, 45.89067
2739.899, 45.98365
2741.828, 46.06591
2743.756, 46.07604
2745.685, 45.78386
2747.613, 45.50245
2749.542, 45.67601
2751.470, 46.06159
2753.398, 46.52149
2755.327, 46.88507
2757.255, 46.97120
2759.184, 46.86416
2761.112, 46.50523
2763.041, 46.17043
2764.969, 46.19599
2766.898, 46.31968
2768.826, 46.31617
2770.755, 46.30583
2772.683, 46.41193
2774.612, 46.52368
2776.540, 46.47840
2778.469, 46.48698
2780.397, 46.77757
2782.325, 47.04918
2784.254, 47.09094
2786.182, 47.06200
2788.111, 47.05117
2790.039, 47.02727
2791.968, 46.93074
2793.896, 46.89375
2795.825, 47.01537
2797.753, 47.15162
2799.682, 47.30428
2801.610, 47.34282
2803.539, 47.06335
2805.467, 46.89211
2807.396, 46.94522
2809.324, 47.13082
2811.252, 47.58327
2813.181, 47.80850
2815.109, 47.42530
2817.038, 47.22443
2818.966, 47.49461
2820.895, 47.53947
2822.823, 47.08873
2824.752, 46.99793
2826.680, 47.75422
2828.609, 48.09882
2830.537, 47.59673
2832.466, 47.49118
2834.394, 47.92029
2836.323, 48.26522
2838.251, 48.44321
2840.179, 48.63575
2842.108, 48.89546
2844.036, 48.94840
2845.965, 48.75143
2847.893, 49.18047
2849.822, 50.19709
2851.750, 50.41227
2853.679, 49.81556
2855.607, 49.90155
2857.536, 50.56784
2859.464, 50.57808
2861.393, 50.12005
2863.321, 49.91170
2865.250, 49.96917
2867.178, 50.49335
2869.106, 51.16413
2871.035, 50.97197
2872.963, 50.41615
2874.892, 50.52443
2876.820, 50.91584
2878.749, 51.07051
2880.677, 51.17636
2882.606, 51.62571
2884.534, 51.98640
2886.463, 51.57495
2888.391, 51.17332
2890.320, 51.40852
2892.248, 51.82689
2894.177, 52.28182
2896.105, 52.57834
2898.033, 52.39624
2899.962, 52.39922
2901.890, 52.97342
2903.819, 53.53240
2905.747, 53.98374
2907.676, 54.12011
2909.604, 53.64736
2911.533, 53.50744
2913.461, 53.95453
2915.390, 54.32845
2917.318, 54.43444
2919.247, 54.70030
2921.175, 55.25695
2923.104, 55.46260
2925.032, 55.28431
2926.960, 55.15900
2928.889, 55.11727
2930.817, 55.15833
2932.746, 55.27249
2934.674, 55.28522
2936.603, 55.22872
2938.531, 55.24299
2940.460, 55.30211
2942.388, 55.32215
2944.317, 55.33571
2946.245, 55.43324
2948.174, 55.54393
2950.102, 55.54621
2952.031, 55.52979
2953.959, 55.60680
2955.887, 55.67628
2957.816, 55.52709
2959.744, 55.52618
2961.673, 56.02156
2963.601, 56.43467
2965.530, 56.41797
2967.458, 56.37152
2969.387, 56.42890
2971.315, 56.47295
2973.244, 56.46646
2975.172, 56.53652
2977.101, 56.73608
2979.029, 56.93500
2980.958, 57.13384
2982.886, 57.27835
2984.814, 57.36074
2986.743, 57.18290
2988.671, 56.78662
2990.600, 57.14734
2992.528, 58.01605
2994.457, 57.75751
2996.385, 56.96458
2998.314, 57.20625
3000.242, 57.92200
3002.171, 58.31630
3004.099, 58.51535
3006.028, 58.60445
3007.956, 58.65310
3009.885, 58.57447
3011.813, 58.67880
3013.741, 59.40989
3015.670, 59.95081
3017.598, 59.81076
3019.527, 59.83710
3021.455, 60.33483
3023.384, 60.84003
3025.312, 61.31367
3027.241, 61.66211
3029.169, 61.90784
3031.098, 61.67574
3033.026, 60.94104
3034.955, 61.18602
3036.883, 62.33138
3038.812, 63.05869
3040.740, 63.38645
3042.668, 63.05596
3044.597, 62.62097
3046.525, 63.29269
3048.454, 64.33548
3050.382, 64.85881
3052.311, 65.11377
3054.239, 64.98448
3056.168, 65.17266
3058.096, 66.48672
3060.025, 67.59486
3061.953, 67.98326
3063.882, 68.19826
3065.810, 68.22862
3067.739, 68.58128
3069.667, 69.50259
3071.595, 70.34021
3073.524, 71.09013
3075.452, 71.50874
3077.381, 71.65730
3079.309, 72.46297
3081.238, 73.71116
3083.166, 74.40344
3085.095, 74.90589
3087.023, 76.05640
3088.952, 77.29054
3090.880, 77.78242
3092.809, 78.24613
3094.737, 79.23743
3096.666, 80.42483
3098.594, 81.82960
3100.522, 83.08884
3102.451, 84.01041
3104.379, 84.85530
3106.308, 85.55810
3108.236, 86.75278
3110.165, 88.63557
3112.093, 90.27531
3114.022, 91.66917
3115.950, 93.02274
3117.879, 94.43853
3119.807, 96.27985
3121.736, 98.37222
3123.664, 100.5193
3125.593, 102.5778
3127.521, 104.2831
3129.449, 105.9886
3131.378, 107.9120
3133.306, 109.9405
3135.235, 112.0239
3137.163, 114.1518
3139.092, 116.1912
3141.020, 118.7961
3142.949, 122.5597
3144.877, 125.1252
3146.806, 126.5508
3148.734, 128.0791
3150.663, 129.9008
3152.591, 132.8665
3154.520, 136.3131
3156.448, 138.4543
3158.376, 140.5832
3160.305, 144.0622
3162.233, 148.1783
3164.162, 152.8394
3166.090, 157.2005
3168.019, 160.7076
3169.947, 164.5770
3171.876, 169.3334
3173.804, 173.9190
3175.733, 178.1788
3177.661, 183.3114
3179.590, 189.2705
3181.518, 194.7569
3183.447, 200.1052
3185.375, 206.2874
3187.303, 213.1736
3189.232, 220.5094
3191.160, 228.3716
3193.089, 237.0755
3195.017, 245.9130
3196.946, 254.6549
3198.874, 263.1674
3200.803, 271.3300
3202.731, 279.6494
3204.660, 288.3833
3206.588, 296.1358
3208.517, 302.7732
3210.445, 307.6034
3212.374, 310.9530
3214.302, 314.0250
3216.230, 316.1516
3218.159, 316.2237
3220.087, 315.1514
3222.016, 313.6280
3223.944, 311.2383
3225.873, 307.7251
3227.801, 303.7690
3229.730, 299.7523
3231.658, 294.6608
3233.587, 288.3969
3235.515, 281.5423
3237.444, 274.3061
3239.372, 268.0298
3241.301, 262.1200
3243.229, 254.8586
3245.157, 247.3601
3247.086, 240.9242
3249.014, 234.6521
3250.943, 228.0741
3252.871, 221.2919
3254.800, 214.3643
3256.728, 207.2350
3258.657, 199.8232
3260.585, 192.5516
3262.514, 185.4559
3264.442, 179.0840
3266.371, 173.3102
3268.299, 167.8126
3270.228, 162.4994
3272.156, 157.2371
3274.084, 152.1607
3276.013, 147.4344
3277.941, 142.7693
3279.870, 137.8941
3281.798, 133.5331
3283.727, 129.7959
3285.655, 126.5235
3287.584, 123.6752
3289.512, 120.8675
3291.441, 118.1146
3293.369, 115.3951
3295.298, 112.8588
3297.226, 110.7408
3299.155, 108.8516
3301.083, 107.0236
3303.011, 105.4934
3304.940, 104.3996
3306.868, 103.6462
3308.797, 103.2837
3310.725, 102.1637
3312.654, 100.4444
3314.582, 99.85899
3316.511, 99.87046
3318.439, 99.25862
3320.368, 98.56707
3322.296, 98.38457
3324.225, 98.15793
3326.153, 97.64077
3328.082, 96.97553
3330.010, 96.10225
3331.938, 95.61250
3333.867, 95.56625
3335.795, 95.23953
3337.724, 94.65884
3339.652, 93.78231
3341.581, 92.92613
3343.509, 92.65089
3345.438, 92.40105
3347.366, 91.85760
3349.295, 91.27584
3351.223, 90.82542
3353.152, 90.04820
3355.080, 88.92087
3357.009, 88.05773
3358.937, 87.46819
3360.865, 87.20100
3362.794, 87.09695
3364.722, 87.12598
3366.651, 86.88215
3368.579, 85.69420
3370.508, 84.85545
3372.436, 84.80478
3374.365, 84.66370
3376.293, 84.32624
3378.222, 83.51526
3380.150, 82.47848
3382.079, 82.42410
3384.007, 82.63687
3385.936, 81.95084
3387.864, 81.16115
3389.792, 80.72903
3391.721, 80.41436
3393.649, 80.27824
3395.578, 79.84639
3397.506, 79.10719
3399.435, 78.52691
3401.363, 78.12700
3403.292, 78.05691
3405.220, 78.01295
3407.148, 77.61677
3409.077, 77.09885
3411.005, 76.45481
3412.934, 76.02354
3414.862, 75.91933
3416.791, 75.58213
3418.719, 74.97803
3420.648, 74.69682
3422.576, 74.59361
3424.505, 74.41991
3426.433, 74.09697
3428.362, 73.30212
3430.290, 72.76553
3432.219, 72.85780
3434.147, 72.90917
3436.075, 72.84433
3438.004, 72.35508
3439.932, 71.57821
3441.861, 71.23976
3443.789, 70.99769
3445.718, 70.12685
3447.646, 69.41817
3449.575, 69.53696
3451.503, 69.57839
3453.432, 69.35696
3455.360, 68.96924
3457.289, 68.46167
3459.217, 68.40674
3461.146, 68.57114
3463.074, 68.38648
3465.002, 68.14896
3466.931, 68.14625
3468.859, 68.06483
3470.788, 67.75693
3472.716, 67.65546
3474.645, 67.83008
3476.573, 68.17439
3478.502, 68.64289
3480.430, 69.13342
3482.359, 69.61780
3484.287, 70.02338
3486.216, 70.46286
3488.144, 70.74216
3490.073, 71.93608
3492.001, 74.15109
3493.929, 77.74035
3495.858, 82.72786
3497.786, 88.85606
3499.715, 96.39072
3501.643, 105.6222
3503.572, 116.7038
3505.500, 129.9776
3507.429, 144.9385
3509.357, 161.7592
3511.286, 177.1425
3513.214, 190.3267
3515.143, 198.5459
3517.071, 204.6226
3519.000, 207.6353
3520.928, 218.0039
3522.856, 234.7534
3524.785, 276.3862
3526.713, 344.3010
3528.642, 433.5907
3530.570, 532.0414
3532.499, 614.1765
3534.427, 660.7617
3536.356, 655.0498
3538.284, 609.1216
3540.213, 516.8665
3542.141, 418.0861
3544.070, 317.3676
3545.998, 236.6582
3547.927, 175.1512
3549.855, 133.6218
3551.783, 105.7386
3553.712, 90.05790
3555.640, 80.18864
3557.569, 74.57079
3559.497, 71.20573
3561.426, 69.79659
3563.354, 69.17643
3565.283, 68.82586
3567.211, 67.66154
3569.140, 66.47553
3571.068, 66.09653
3572.997, 65.17020
3574.925, 63.16784
3576.854, 62.10364
3578.782, 61.85301
3580.710, 60.95476
3582.639, 59.91871
3584.567, 59.36134
3586.496, 58.98488
3588.424, 58.62998
3590.353, 58.51319
3592.281, 58.69666
3594.210, 58.86921
3596.138, 58.97201
3598.067, 58.76428
3599.995, 58.60643
3601.924, 58.99051
3603.852, 59.04225
3605.781, 58.17527
3607.709, 57.94176
3609.637, 58.23347
3611.566, 58.19964
3613.494, 58.01714
3615.423, 57.85191
3617.351, 57.83239
3619.280, 58.14611
3621.208, 58.19711
3623.137, 57.92212
3625.065, 58.05993
3626.994, 58.34337
3628.922, 57.94654
3630.851, 57.60688
3632.779, 57.94036
3634.708, 58.16225
3636.636, 58.03795
3638.564, 57.93656
3640.493, 57.87645
3642.421, 57.90831
3644.350, 57.95503
3646.278, 57.97333
3648.207, 57.89346
3650.135, 57.49789
3652.064, 57.61547
3653.992, 58.12935
3655.921, 57.83805
3657.849, 57.31432
3659.778, 57.66051
3661.706, 57.90358
3663.635, 57.46298
3665.563, 57.04610
3667.491, 56.71807
3669.420, 56.70431
3671.348, 56.86583
3673.277, 57.02716
3675.205, 57.08701
3677.134, 56.89766
3679.062, 56.79139
3680.991, 56.80945
3682.919, 57.14384
3684.848, 57.50062
3686.776, 56.80964
3688.705, 56.20927
3690.633, 56.70283
3692.562, 57.03861
3694.490, 56.97968
3696.418, 56.85608
3698.347, 56.70880
3700.275, 56.66151
3702.204, 56.56321
3704.132, 56.18885
3706.061, 56.05415
3707.989, 56.35739
3709.918, 56.12071
3711.846, 55.59401
3713.775, 55.90059
3715.703, 56.21020
3717.632, 55.66412
3719.560, 55.40557
3721.489, 55.81487
3723.417, 56.04232
3725.345, 56.04506
3727.274, 55.61668
3729.202, 55.29894
3731.131, 55.64291
3733.059, 55.88478
3734.988, 55.74274
3736.916, 56.12502
3738.845, 56.71058
3740.773, 56.38056
3742.702, 55.82907
3744.630, 55.55697
3746.559, 55.37047
3748.487, 55.22872
3750.416, 55.09901
3752.344, 55.06714
3754.272, 55.41965
3756.201, 55.83503
3758.129, 56.18039
3760.058, 56.21600
3761.986, 55.84582
3763.915, 55.75853
3765.843, 55.75378
3767.772, 55.21315
3769.700, 54.91682
3771.629, 55.44520
3773.557, 55.49189
3775.486, 54.83921
3777.414, 54.66142
3779.343, 54.78851
3781.271, 55.00360
3783.199, 55.32203
3785.128, 55.85564
3787.056, 55.85057
3788.985, 55.32397
3790.913, 55.05635
3792.842, 55.06306
3794.770, 55.60919
3796.699, 55.93391
3798.627, 55.79424
3800.556, 55.58741
3802.484, 55.38470
3804.413, 55.34672
3806.341, 55.43235
3808.270, 55.68531
3810.198, 55.93954
3812.126, 56.16966
3814.055, 56.05544
3815.983, 55.76635
3817.912, 55.64473
3819.840, 55.66619
3821.769, 55.97522
3823.697, 55.88517
3825.626, 55.37906
3827.554, 55.32672
3829.483, 55.51064
3831.411, 55.78829
3833.340, 55.82488
3835.268, 55.45929
3837.197, 55.24034
3839.125, 55.23801
3841.053, 55.70892
3842.982, 56.19068
3844.910, 56.34103
3846.839, 56.38188
3848.767, 56.34845
3850.696, 56.10698
3852.624, 55.93315
3854.553, 56.58618
3856.481, 57.03772
3858.410, 56.72651
3860.338, 56.46164
3862.267, 56.26992
3864.195, 56.01172
3866.124, 55.90299
3868.052, 56.24152
3869.980, 56.39121
3871.909, 56.14722
3873.837, 56.30754
3875.766, 56.56930
3877.694, 56.31293
3879.623, 56.11443
3881.551, 56.19617
3883.480, 56.52159
3885.408, 56.94828
3887.337, 56.51939
3889.265, 56.06507
3891.194, 56.40348
3893.122, 56.69478
3895.051, 56.80481
3896.979, 56.72364
3898.907, 56.55542
3900.836, 56.35283
3902.764, 56.41831
3904.693, 56.96732
3906.621, 56.95030
3908.550, 56.55298
3910.478, 56.71547
3912.407, 56.88010
3914.335, 56.56544
3916.264, 56.36977
3918.192, 56.37446
3920.121, 56.96714
3922.049, 57.51528
3923.978, 57.10203
3925.906, 56.82692
3927.834, 57.02214
3929.763, 57.43000
3931.691, 57.78481
3933.620, 57.40405
3935.548, 57.13700
3937.477, 57.39630
3939.405, 57.29509
3941.334, 56.88714
3943.262, 56.61327
3945.191, 56.53104
3947.119, 56.80930
3949.048, 56.96272
3950.976, 56.95534
3952.905, 57.11707
3954.833, 57.33492
3956.761, 57.60974
3958.690, 57.49950
3960.618, 56.94423
3962.547, 57.22161
3964.475, 57.85540
3966.404, 58.01945
3968.332, 58.09238
3970.261, 58.18639
3972.189, 58.34868
3974.118, 58.52703
3976.046, 58.61192
3977.975, 58.59813
3979.903, 58.47194
3981.832, 58.27314
3983.760, 58.08957
3985.688, 58.45634
3987.617, 58.79913
3989.545, 58.59717
3991.474, 58.80788
3993.402, 59.43513
3995.331, 58.92008
3997.259, 58.39519
3999.188, 59.27128
4001.116, 59.64164
4003.045, 59.27356
4004.973, 58.87273
4006.902, 58.67949
4008.830, 59.18853
4010.759, 59.26120
4012.687, 58.59010
4014.615, 58.73114
4016.544, 59.08027
4018.472, 58.25945
4020.401, 58.05222
4022.329, 59.27825
4024.258, 59.90942
4026.186, 60.00307
4028.115, 59.45426
4030.043, 59.22808
4031.972, 59.67539
4033.900, 59.85314
4035.829, 59.80606
4037.757, 59.60667
4039.686, 59.73132
4041.614, 60.55315
4043.542, 60.62529
4045.471, 60.18490
4047.399, 60.01677
4049.328, 60.03946
4051.256, 60.35682
4053.185, 60.31744
4055.113, 60.15026
4057.042, 60.78469
4058.970, 61.17379
4060.899, 60.74558
4062.827, 60.37024
4064.756, 60.19793
4066.684, 60.71000
4068.613, 61.05405
4070.541, 60.59441
4072.469, 61.08805
4074.398, 62.19153
4076.326, 61.93703
4078.255, 61.45513
4080.183, 61.41520
4082.112, 61.32583
4084.040, 61.18833
4085.969, 60.97540
4087.897, 60.99572
4089.826, 61.46465
4091.754, 61.88068
4093.683, 62.20680
4095.611, 62.61339
4097.540, 62.63528
4099.468, 61.92406
4101.396, 62.02494
4103.325, 62.66078
4105.253, 62.59273
4107.182, 62.45423
4109.110, 62.53570
4111.039, 62.61254
4112.967, 62.67887
4114.896, 62.69888
4116.824, 62.86267
4118.752, 63.41299
4120.681, 63.39389
4122.609, 63.21120
4124.538, 63.97583
4126.466, 64.33260
4128.395, 63.77262
4130.323, 63.71965
4132.252, 64.03078
4134.180, 64.48392
4136.109, 64.71427
4138.037, 64.64494
4139.966, 64.66428
4141.894, 64.85017
4143.823, 65.40881
4145.751, 65.76171
4147.680, 65.76757
4149.608, 66.36000
4151.537, 66.86407
4153.465, 66.15928
4155.394, 66.18242
4157.322, 67.18062
4159.250, 68.15569
4161.179, 68.77592
4163.107, 68.66920
4165.036, 68.10005
4166.964, 67.36723
4168.893, 67.96468
4170.821, 68.71573
4172.750, 68.74688
4174.678, 69.28812
4176.606, 70.09776
4178.535, 70.34199
4180.463, 70.35909
4182.392, 70.25491
4184.320, 70.47755
4186.249, 71.01363
4188.177, 72.16225
4190.106, 72.52872
4192.034, 71.84618
4193.963, 72.36340
4195.891, 73.15052
4197.820, 72.93484
4199.748, 72.81676
4201.677, 73.00501
4203.605, 73.72194
4205.534, 74.47978
4207.462, 74.95796
4209.391, 74.95516
4211.319, 74.70623
4213.248, 75.45911
4215.176, 76.29613
4217.104, 76.85554
4219.033, 76.71346
4220.961, 76.32978
4222.890, 76.85281
4224.818, 77.17774
4226.747, 76.89719
4228.675, 77.35992
4230.604, 78.06094
4232.532, 78.34377
4234.460, 78.81198
4236.389, 79.49962
4238.317, 79.88145
4240.246, 80.26405
4242.174, 81.09316
4244.103, 81.21501
##END=



