##NAMES=Bjarebyite
##RRUFFID=R130107
##IDEAL CHEMISTRY=BaMn^2+^_2_Al_2_(PO_4_)_3_(OH)_3_
##LOCALITY=Buranga mine, Gatumba District, Western Province, Rwanda
##OWNER=RRUFF
##SOURCE=Rock Currier
##DESCRIPTION=Prismatic or granular light-yellow green crystals.
##STATUS=The identification of this mineral has been confirmed only by single crystal X-ray diffraction
##URL=https://www.rruff.net/odr/rruff_sample/R130107
##DIFFRACTION SAMPLE DESCRIPTION=Single crystal, powder profile is calculated
##CELL PARAMETERS=a: 9.067 b: 12.152 c: 4.937 alpha: 90 beta: 100.48 gamma: 90 volume: 534.83 crystal system: monoclinic
##FILETYPE=Raman RAW
##RAMAN WAVELENGTH=532

188.5381, 24.93249
190.4665, 27.17978
192.3950, 29.41498
194.3235, 31.00937
196.2519, 32.08617
198.1804, 33.70732
200.1089, 35.74347
202.0373, 37.80711
203.9658, 40.15618
205.8943, 42.27557
207.8227, 44.08281
209.7512, 45.87074
211.6797, 46.70538
213.6081, 46.07157
215.5366, 44.47319
217.4651, 42.82959
219.3935, 40.82354
221.3220, 39.02569
223.2505, 37.71921
225.1789, 36.82833
227.1074, 36.37806
229.0359, 36.69789
230.9643, 37.56981
232.8928, 37.91703
234.8213, 37.58220
236.7497, 36.93703
238.6782, 36.09925
240.6067, 34.97855
242.5351, 34.01035
244.4636, 33.26036
246.3921, 32.72068
248.3205, 32.32013
250.2490, 32.04623
252.1775, 31.90624
254.1059, 31.86111
256.0344, 31.85116
257.9629, 32.09727
259.8913, 32.77522
261.8198, 33.78535
263.7483, 34.58929
265.6767, 34.98830
267.6052, 35.37056
269.5337, 35.95139
271.4621, 36.91098
273.3906, 37.84129
275.3191, 39.02962
277.2475, 40.17769
279.1760, 40.58716
281.1045, 39.68755
283.0329, 38.41843
284.9614, 37.18068
286.8899, 35.72082
288.8183, 34.75057
290.7468, 34.69129
292.6753, 35.17125
294.6037, 35.43478
296.5322, 34.98751
298.4607, 34.65150
300.3891, 34.76988
302.3176, 35.38887
304.2461, 36.24800
306.1745, 37.51237
308.1030, 38.99900
310.0315, 40.34650
311.9599, 41.88223
313.8884, 43.00980
315.8169, 43.48444
317.7453, 43.36144
319.6738, 42.61684
321.6023, 40.60344
323.5307, 38.08133
325.4592, 36.18256
327.3877, 35.09302
329.3161, 34.37955
331.2446, 33.98962
333.1731, 33.87974
335.1015, 34.09864
337.0300, 35.12274
338.9585, 36.28554
340.8869, 36.81837
342.8154, 36.50481
344.7439, 36.03068
346.6723, 35.49427
348.6008, 34.90990
350.5292, 34.42690
352.4577, 34.19693
354.3862, 33.97941
356.3146, 33.56609
358.2431, 32.91781
360.1716, 32.23701
362.1000, 31.48120
364.0285, 30.68886
365.9570, 30.13515
367.8854, 29.99106
369.8139, 29.92320
371.7424, 29.73248
373.6708, 29.39312
375.5993, 29.20059
377.5278, 29.31861
379.4562, 29.60745
381.3847, 29.82914
383.3132, 29.91653
385.2416, 30.02021
387.1701, 30.16498
389.0986, 30.34956
391.0270, 30.64821
392.9555, 31.23400
394.8840, 31.86013
396.8124, 32.27914
398.7409, 32.39305
400.6694, 32.49627
402.5978, 32.61939
404.5263, 32.76704
406.4548, 32.99427
408.3832, 33.19331
410.3117, 33.55558
412.2402, 34.27036
414.1686, 35.40981
416.0971, 36.47123
418.0256, 37.29576
419.9540, 38.00185
421.8825, 38.76335
423.8110, 39.41125
425.7394, 40.28923
427.6679, 41.55497
429.5964, 43.18307
431.5248, 44.89232
433.4533, 46.85493
435.3818, 48.75709
437.3102, 50.38195
439.2387, 51.56151
441.1672, 52.63081
443.0956, 53.39987
445.0241, 54.07128
446.9526, 55.05614
448.8810, 56.56073
450.8095, 58.17902
452.7380, 59.93913
454.6664, 62.07673
456.5949, 63.26075
458.5234, 63.61572
460.4518, 62.85364
462.3803, 60.80962
464.3088, 56.73106
466.2372, 52.83844
468.1657, 49.46746
470.0942, 46.64692
472.0226, 44.36045
473.9511, 42.73502
475.8796, 41.48664
477.8080, 40.49767
479.7365, 39.77987
481.6650, 39.22652
483.5934, 38.87499
485.5219, 38.64037
487.4504, 38.47133
489.3788, 38.46345
491.3073, 38.27710
493.2358, 37.69566
495.1642, 36.81179
497.0927, 36.04744
499.0212, 35.26014
500.9496, 34.70240
502.8781, 34.57155
504.8066, 34.85705
506.7350, 35.19718
508.6635, 35.52473
510.5920, 35.89453
512.5204, 36.35469
514.4489, 37.01899
516.3774, 37.64923
518.3058, 38.17286
520.2343, 38.65650
522.1628, 39.28661
524.0912, 40.36752
526.0197, 41.17730
527.9482, 41.31671
529.8766, 40.57313
531.8051, 40.31578
533.7336, 40.61053
535.6620, 41.32928
537.5905, 42.52253
539.5190, 44.39978
541.4474, 45.81219
543.3759, 46.23737
545.3044, 46.10888
547.2328, 46.25597
549.1613, 46.77111
551.0898, 47.39134
553.0182, 47.86708
554.9467, 48.32901
556.8752, 49.40523
558.8036, 52.46458
560.7321, 55.10289
562.6606, 56.45198
564.5891, 56.41392
566.5175, 54.99788
568.4460, 50.76030
570.3745, 45.86301
572.3029, 42.06274
574.2314, 39.44205
576.1599, 37.89844
578.0883, 37.84692
580.0168, 38.79655
581.9453, 39.46575
583.8737, 40.09394
585.8022, 40.11541
587.7307, 39.01587
589.6591, 36.93908
591.5876, 35.24165
593.5161, 34.01383
595.4445, 33.15881
597.3729, 32.67339
599.3014, 32.56522
601.2299, 32.77699
603.1583, 33.40238
605.0868, 34.31437
607.0153, 35.42501
608.9437, 36.93670
610.8722, 38.29285
612.8007, 39.49623
614.7291, 40.49572
616.6576, 41.24038
618.5861, 41.82882
620.5145, 41.98916
622.4430, 41.52810
624.3715, 40.51351
626.2999, 39.41661
628.2284, 38.17316
630.1569, 36.89838
632.0853, 35.52395
634.0138, 34.07024
635.9423, 32.92934
637.8707, 32.29574
639.7992, 31.88602
641.7277, 31.49535
643.6561, 31.00063
645.5846, 30.84179
647.5131, 31.46424
649.4415, 32.20541
651.3700, 32.22252
653.2985, 31.30570
655.2269, 30.57371
657.1554, 30.43925
659.0839, 30.67148
661.0123, 30.86400
662.9408, 31.07916
664.8693, 31.17723
666.7977, 31.06543
668.7262, 30.79491
670.6547, 30.56285
672.5831, 30.42208
674.5116, 30.24697
676.4401, 29.95350
678.3685, 29.52080
680.2970, 29.22424
682.2255, 29.13354
684.1539, 29.09640
686.0824, 29.02755
688.0109, 28.92809
689.9393, 28.87508
691.8678, 28.94005
693.7963, 29.01369
695.7247, 29.02079
697.6532, 28.89658
699.5817, 28.83011
701.5101, 28.88596
703.4386, 28.96833
705.3671, 28.95969
707.2955, 28.82996
709.2240, 28.74821
711.1525, 28.78858
713.0809, 28.89224
715.0094, 28.97989
716.9379, 29.02867
718.8663, 29.08722
720.7948, 29.18318
722.7233, 29.28745
724.6517, 29.34008
726.5802, 29.32036
728.5087, 29.28602
730.4371, 29.20621
732.3656, 29.10883
734.2941, 29.15741
736.2225, 29.59561
738.1510, 29.91379
740.0795, 29.81997
742.0079, 29.44132
743.9364, 29.35401
745.8649, 29.84547
747.7933, 30.30588
749.7218, 30.43848
751.6503, 30.20062
753.5787, 30.11619
755.5072, 30.33097
757.4357, 30.54523
759.3641, 30.55927
761.2926, 30.39081
763.2211, 30.34533
765.1495, 30.61162
767.0780, 30.85428
769.0065, 30.85281
770.9349, 30.48554
772.8634, 30.32288
774.7919, 30.53483
776.7203, 30.81253
778.6488, 30.95385
780.5773, 30.96460
782.5057, 30.90432
784.4342, 30.64108
786.3627, 30.41740
788.2911, 30.41755
790.2196, 30.73899
792.1481, 31.00442
794.0765, 31.23600
796.0050, 31.37937
797.9335, 31.33889
799.8619, 31.09040
801.7904, 30.90382
803.7189, 30.86329
805.6473, 30.89577
807.5758, 30.94494
809.5043, 31.02262
811.4327, 31.08964
813.3612, 31.10005
815.2897, 31.11768
817.2181, 31.20681
819.1466, 31.36066
821.0751, 31.58137
823.0035, 31.99801
824.9320, 32.40472
826.8605, 32.59833
828.7889, 32.48809
830.7174, 32.43886
832.6459, 32.54521
834.5743, 32.70442
836.5028, 32.80085
838.4313, 32.81176
840.3597, 32.82966
842.2882, 32.86414
844.2167, 32.90553
846.1451, 32.95038
848.0736, 33.00513
850.0021, 33.02672
851.9305, 32.95234
853.8590, 32.87744
855.7875, 32.91967
857.7159, 33.18959
859.6444, 33.30331
861.5729, 33.09982
863.5013, 32.81972
865.4298, 32.63134
867.3583, 32.51854
869.2867, 32.59520
871.2152, 33.08757
873.1437, 33.63878
875.0721, 33.97144
877.0006, 33.95912
878.9291, 34.00851
880.8575, 34.15106
882.7860, 34.33193
884.7145, 34.47522
886.6429, 34.57245
888.5714, 34.82019
890.4999, 35.36024
892.4283, 35.97669
894.3568, 36.55446
896.2853, 37.09315
898.2137, 37.58248
900.1422, 37.97246
902.0707, 38.35695
903.9991, 38.89570
905.9276, 39.56042
907.8561, 39.85821
909.7845, 39.48901
911.7130, 39.03921
913.6415, 38.78273
915.5699, 38.72655
917.4984, 38.71273
919.4269, 38.82822
921.3553, 38.88913
923.2838, 38.75764
925.2123, 38.47133
927.1407, 38.34432
929.0692, 38.31411
930.9976, 38.52765
932.9261, 39.14342
934.8546, 40.05116
936.7830, 40.95462
938.7115, 41.65281
940.6400, 42.66186
942.5684, 44.05581
944.4969, 45.83493
946.4254, 48.06499
948.3538, 50.87020
950.2823, 53.82949
952.2108, 56.73765
954.1392, 59.82410
956.0677, 63.56173
957.9962, 68.33809
959.9246, 72.31547
961.8531, 75.79646
963.7816, 77.86951
965.7100, 77.45862
967.6385, 73.29836
969.5670, 68.93221
971.4954, 63.74702
973.4239, 58.80468
975.3524, 54.91374
977.2808, 52.00771
979.2093, 50.03589
981.1378, 49.23216
983.0662, 49.18086
984.9947, 49.61066
986.9232, 50.52129
988.8516, 52.06569
990.7801, 53.98580
992.7086, 56.83596
994.6370, 60.76165
996.5655, 65.82646
998.4940, 71.87706
1000.422, 78.27680
1002.351, 86.68204
1004.279, 97.67937
1006.208, 111.0821
1008.136, 127.2233
1010.065, 147.9541
1011.993, 166.6210
1013.922, 185.9531
1015.850, 200.6349
1017.779, 204.5239
1019.707, 194.2155
1021.636, 179.1250
1023.564, 154.3295
1025.493, 128.4704
1027.421, 107.0576
1029.349, 89.81100
1031.278, 76.64230
1033.206, 69.06626
1035.135, 63.84690
1037.063, 59.69672
1038.992, 56.56978
1040.920, 54.09761
1042.849, 52.55541
1044.777, 51.36429
1046.706, 50.44849
1048.634, 49.81657
1050.563, 49.56161
1052.491, 49.90768
1054.420, 49.95264
1056.348, 49.47159
1058.276, 48.57183
1060.205, 47.28143
1062.133, 45.51856
1064.062, 43.92062
1065.990, 42.52075
1067.919, 41.37453
1069.847, 40.48973
1071.776, 39.86132
1073.704, 39.64662
1075.633, 40.22073
1077.561, 40.73520
1079.490, 40.83604
1081.418, 40.66452
1083.347, 40.55018
1085.275, 40.42492
1087.203, 40.55943
1089.132, 41.39904
1091.060, 42.36256
1092.989, 42.77563
1094.917, 42.36835
1096.846, 42.25255
1098.774, 42.66095
1100.703, 43.21546
1102.631, 43.70161
1104.560, 44.11095
1106.488, 44.53881
1108.417, 45.21195
1110.345, 45.58931
1112.273, 45.36681
1114.202, 44.71704
1116.130, 43.91826
1118.059, 42.89277
1119.987, 42.01038
1121.916, 41.26728
1123.844, 40.78566
1125.773, 40.73577
1127.701, 41.31326
1129.630, 41.77507
1131.558, 41.92756
1133.487, 42.16410
1135.415, 42.74952
1137.344, 43.62089
1139.272, 44.34684
1141.200, 44.87010
1143.129, 45.34816
1145.057, 46.07844
1146.986, 46.66842
1148.914, 46.58453
1150.843, 45.72480
1152.771, 44.61446
1154.700, 43.06975
1156.628, 41.55386
1158.557, 40.27969
1160.485, 39.24738
1162.414, 38.57891
1164.342, 38.54237
1166.271, 38.50800
1168.199, 38.31771
1170.127, 38.01974
1172.056, 37.70591
1173.984, 37.37635
1175.913, 37.03547
1177.841, 36.52376
1179.770, 36.15412
1181.698, 36.24281
1183.627, 36.77193
1185.555, 37.03654
1187.484, 36.77304
1189.412, 36.48479
1191.341, 36.28325
1193.269, 36.16454
1195.198, 36.12655
1197.126, 36.20623
1199.054, 36.30908
1200.983, 36.52988
1202.911, 36.70144
1204.840, 36.63195
1206.768, 36.35787
1208.697, 36.21321
1210.625, 36.28780
1212.554, 36.38049
1214.482, 36.39679
1216.411, 36.37764
1218.339, 36.39621
1220.268, 36.46963
1222.196, 36.51808
1224.125, 36.48150
1226.053, 36.46153
1227.981, 36.51948
1229.910, 36.65685
1231.838, 36.83197
1233.767, 37.25039
1235.695, 37.44526
1237.624, 37.02375
1239.552, 36.45098
1241.481, 36.51168
1243.409, 37.27809
1245.338, 37.73752
1247.266, 37.56995
1249.195, 37.25127
1251.123, 36.95719
1253.052, 36.72206
1254.980, 36.69363
1256.908, 36.99765
1258.837, 37.22884
1260.765, 37.25545
1262.694, 37.19986
1264.622, 37.15460
1266.551, 37.11353
1268.479, 37.10967
1270.408, 37.13923
1272.336, 37.20950
1274.265, 37.36862
1276.193, 37.56462
1278.122, 37.68348
1280.050, 37.71228
1281.979, 37.75322
1283.907, 37.79383
1285.835, 37.87439
1287.764, 38.11642
1289.692, 38.41863
1291.621, 38.40882
1293.549, 37.90091
1295.478, 37.50433
1297.406, 37.48071
1299.335, 37.58295
1301.263, 37.60985
1303.192, 37.54534
1305.120, 37.53910
1307.049, 37.52485
1308.977, 37.65957
1310.906, 38.17730
1312.834, 38.79903
1314.762, 39.05377
1316.691, 38.84333
1318.619, 38.56390
1320.548, 38.02250
1322.476, 37.62436
1324.405, 37.66850
1326.333, 37.99086
1328.262, 38.16871
1330.190, 38.16469
1332.119, 38.15947
1334.047, 38.22033
1335.976, 38.27288
1337.904, 38.27630
1339.833, 38.23312
1341.761, 38.14610
1343.689, 37.96655
1345.618, 37.84064
1347.546, 37.78880
1349.475, 37.80798
1351.403, 37.91666
1353.332, 38.12831
1355.260, 38.31178
1357.189, 38.44574
1359.117, 38.58870
1361.046, 38.85142
1362.974, 39.07782
1364.903, 39.00855
1366.831, 38.56779
1368.760, 38.30960
1370.688, 38.34243
1372.616, 38.42869
1374.545, 38.55290
1376.473, 38.64826
1378.402, 38.58839
1380.330, 38.36359
1382.259, 38.23516
1384.187, 38.27610
1386.116, 38.38985
1388.044, 38.62403
1389.973, 38.86921
1391.901, 38.85838
1393.830, 38.49690
1395.758, 38.29775
1397.687, 38.53194
1399.615, 38.73330
1401.543, 38.67543
1403.472, 38.43941
1405.400, 38.25072
1407.329, 38.08039
1409.257, 38.02660
1411.186, 38.26664
1413.114, 38.44060
1415.043, 38.22277
1416.971, 37.78774
1418.900, 37.75234
1420.828, 38.31388
1422.757, 38.75099
1424.685, 38.94124
1426.614, 39.04166
1428.542, 39.11851
1430.470, 39.17519
1432.399, 39.24062
1434.327, 39.34231
1436.256, 39.32990
1438.184, 38.96579
1440.113, 38.71252
1442.041, 38.99689
1443.970, 39.57037
1445.898, 39.85619
1447.827, 39.78585
1449.755, 39.64433
1451.684, 39.38775
1453.612, 39.19868
1455.541, 39.19749
1457.469, 39.33766
1459.397, 39.51916
1461.326, 39.85698
1463.254, 39.89028
1465.183, 39.21166
1467.111, 38.61284
1469.040, 38.51257
1470.968, 38.72432
1472.897, 38.78083
1474.825, 38.48334
1476.754, 38.45083
1478.682, 39.00885
1480.611, 39.43886
1482.539, 39.30549
1484.468, 38.89676
1486.396, 38.77387
1488.324, 39.04551
1490.253, 39.18511
1492.181, 39.04343
1494.110, 38.92445
1496.038, 38.95021
1497.967, 39.04325
1499.895, 39.12159
1501.824, 39.18974
1503.752, 39.15100
1505.681, 38.90741
1507.609, 38.74265
1509.538, 38.84538
1511.466, 39.02409
1513.395, 39.06055
1515.323, 38.98598
1517.251, 39.02156
1519.180, 39.23230
1521.108, 39.40459
1523.037, 39.49858
1524.965, 39.48311
1526.894, 39.22078
1528.822, 38.81306
1530.751, 38.74984
1532.679, 39.18321
1534.608, 39.49758
1536.536, 39.51933
1538.465, 39.45182
1540.393, 39.38448
1542.322, 39.32172
1544.250, 39.24315
1546.178, 39.11057
1548.107, 39.11348
1550.035, 39.40545
1551.964, 39.64837
1553.892, 39.64238
1555.821, 39.55280
1557.749, 39.64060
1559.678, 39.95825
1561.606, 40.14881
1563.535, 40.13209
1565.463, 40.11071
1567.392, 40.19702
1569.320, 40.23362
1571.249, 40.00356
1573.177, 39.55245
1575.105, 39.33067
1577.034, 39.45890
1578.962, 39.63044
1580.891, 39.89397
1582.819, 40.14437
1584.748, 40.38848
1586.676, 40.57417
1588.605, 40.55122
1590.533, 40.23364
1592.462, 40.04813
1594.390, 40.02686
1596.319, 40.09240
1598.247, 40.28838
1600.176, 40.50104
1602.104, 40.57977
1604.032, 40.53233
1605.961, 40.58109
1607.889, 40.78142
1609.818, 40.94090
1611.746, 40.99678
1613.675, 41.03883
1615.603, 41.18900
1617.532, 41.35164
1619.460, 41.27817
1621.389, 40.94609
1623.317, 40.68214
1625.246, 40.52127
1627.174, 40.42958
1629.103, 40.37189
1631.031, 40.38886
1632.959, 40.57238
1634.888, 40.87479
1636.816, 41.09374
1638.745, 41.22820
1640.673, 41.25032
1642.602, 41.05279
1644.530, 40.87340
1646.459, 40.82344
1648.387, 40.88865
1650.316, 41.08197
1652.244, 41.39574
1654.173, 41.61252
1656.101, 41.70540
1658.030, 41.69774
1659.958, 41.46278
1661.886, 41.24960
1663.815, 41.31591
1665.743, 41.52989
1667.672, 41.57713
1669.600, 41.43957
1671.529, 41.31105
1673.457, 41.27228
1675.386, 41.16501
1677.314, 40.67726
1679.243, 40.28508
1681.171, 40.51405
1683.100, 41.21382
1685.028, 41.80827
1686.957, 42.29179
1688.885, 42.52050
1690.813, 42.32765
1692.742, 42.07561
1694.670, 41.91412
1696.599, 41.81914
1698.527, 41.78080
1700.456, 41.79136
1702.384, 41.78000
1704.313, 41.72962
1706.241, 41.71498
1708.170, 41.82672
1710.098, 41.89003
1712.027, 41.70876
1713.955, 41.47581
1715.884, 41.49496
1717.812, 41.74427
1719.740, 41.90676
1721.669, 41.91835
1723.597, 41.95067
1725.526, 42.09462
1727.454, 42.20925
1729.383, 42.14068
1731.311, 42.01324
1733.240, 42.05346
1735.168, 42.25127
1737.097, 42.35589
1739.025, 42.32379
1740.954, 42.27826
1742.882, 42.25768
1744.811, 42.23745
1746.739, 42.19070
1748.667, 42.14039
1750.596, 42.13089
1752.524, 42.15778
1754.453, 42.15231
1756.381, 42.10004
1758.310, 42.04147
1760.238, 41.93826
1762.167, 41.88867
1764.095, 41.99110
1766.024, 42.15719
1767.952, 42.23488
1769.880, 42.23341
1771.809, 42.30975
1773.737, 42.51024
1775.666, 42.66805
1777.594, 42.78291
1779.523, 42.80644
1781.451, 42.62399
1783.380, 42.39884
1785.308, 42.34039
1787.237, 42.43951
1789.165, 42.64976
1791.094, 43.05190
1793.022, 43.28191
1794.951, 43.25738
1796.879, 43.07880
1798.807, 42.59874
1800.736, 42.12854
1802.664, 42.05219
1804.593, 42.29412
1806.521, 42.47676
1808.450, 42.63645
1810.378, 42.60285
1812.307, 42.07114
1814.235, 41.74586
1816.164, 41.96058
1818.092, 42.30064
1820.021, 42.42847
1821.949, 42.43485
1823.878, 42.59338
1825.806, 42.98693
1827.734, 43.10431
1829.663, 42.75592
1831.591, 42.44695
1833.520, 42.20624
1835.448, 42.05196
1837.377, 42.00451
1839.305, 42.03852
1841.234, 42.16480
1843.162, 42.37058
1845.091, 42.39079
1847.019, 42.08041
1848.948, 41.93881
1850.876, 42.10864
1852.805, 42.31829
1854.733, 42.56112
1856.661, 42.76204
1858.590, 42.84747
1860.518, 42.84716
1862.447, 42.82873
1864.375, 42.78774
1866.304, 42.77897
1868.232, 42.80909
1870.161, 42.85852
1872.089, 42.98074
1874.018, 43.03975
1875.946, 42.82918
1877.875, 42.62571
1879.803, 42.85675
1881.732, 43.35819
1883.660, 43.46672
1885.589, 43.12252
1887.517, 42.83936
1889.445, 42.66342
1891.374, 42.61848
1893.302, 42.90106
1895.231, 43.10621
1897.159, 42.82349
1899.088, 42.39564
1901.016, 42.40203
1902.945, 42.76520
1904.873, 42.88625
1906.802, 42.65333
1908.730, 42.58480
1910.659, 42.88831
1912.587, 43.15506
1914.516, 43.30231
1916.444, 43.34621
1918.372, 43.22778
1920.301, 43.04831
1922.229, 43.00358
1924.158, 43.09308
1926.086, 43.14899
1928.015, 43.11832
1929.943, 43.15078
1931.872, 43.33606
1933.800, 43.45130
1935.729, 43.29270
1937.657, 43.20046
1939.586, 43.60594
1941.514, 44.14099
1943.443, 44.05247
1945.371, 43.39393
1947.299, 43.06272
1949.228, 43.13678
1951.156, 43.23241
1953.085, 43.33314
1955.013, 43.35954
1956.942, 43.18378
1958.870, 43.04517
1960.799, 43.16227
1962.727, 43.37305
1964.656, 43.43536
1966.584, 43.39746
1968.513, 43.51048
1970.441, 43.81264
1972.370, 43.94970
1974.298, 43.76165
1976.226, 43.63991
1978.155, 43.77999
1980.083, 43.89517
1982.012, 43.83607
1983.940, 43.68282
1985.869, 43.44404
1987.797, 43.19202
1989.726, 43.20735
1991.654, 43.54989
1993.583, 43.80400
1995.511, 43.99186
1997.440, 44.03403
1999.368, 43.69960
2001.297, 43.51928
2003.225, 43.82610
2005.153, 44.17030
2007.082, 44.25297
2009.010, 44.14607
2010.939, 43.87341
2012.867, 43.50061
2014.796, 43.45573
2016.724, 43.79074
2018.653, 44.04129
2020.581, 44.15388
2022.510, 44.13490
2024.438, 43.80656
2026.367, 43.57978
2028.295, 43.77620
2030.224, 44.06570
2032.152, 44.07240
2034.080, 43.93999
2036.009, 44.06698
2037.937, 44.46800
2039.866, 44.62195
2041.794, 44.39986
2043.723, 44.18952
2045.651, 43.86770
2047.580, 43.74306
2049.508, 44.04949
2051.437, 44.35097
2053.365, 44.35570
2055.294, 44.30901
2057.222, 44.54171
2059.151, 44.90133
2061.079, 44.96322
2063.008, 44.75182
2064.936, 44.52852
2066.865, 44.29362
2068.793, 44.18639
2070.721, 44.29118
2072.650, 44.38435
2074.578, 44.36258
2076.507, 44.34718
2078.435, 44.38958
2080.364, 44.46717
2082.292, 44.63676
2084.220, 44.79428
2086.149, 44.63372
2088.077, 44.17256
2090.006, 44.01317
2091.934, 44.23709
2093.863, 44.52427
2095.791, 45.00768
2097.720, 45.23847
2099.648, 44.92107
2101.577, 44.65928
2103.505, 44.82423
2105.434, 44.99378
2107.362, 44.70860
2109.291, 44.35304
2111.219, 44.59063
2113.147, 45.19347
2115.076, 45.28933
2117.004, 44.83706
2118.933, 44.69912
2120.861, 45.09727
2122.790, 45.29761
2124.718, 45.04518
2126.647, 44.84872
2128.575, 44.80619
2130.504, 44.86164
2132.432, 45.15150
2134.361, 45.38861
2136.289, 45.16450
2138.218, 44.79255
2140.146, 44.99550
2142.074, 45.59064
2144.003, 45.60820
2145.931, 45.01662
2147.860, 44.65705
2149.788, 44.63141
2151.717, 44.71725
2153.645, 44.93085
2155.574, 45.14133
2157.502, 45.40785
2159.431, 45.54510
2161.359, 45.40061
2163.288, 45.14539
2165.216, 44.84077
2167.145, 44.58577
2169.073, 44.58718
2171.001, 44.80195
2172.930, 45.01241
2174.858, 45.21610
2176.787, 45.28337
2178.715, 45.16804
2180.644, 45.16577
2182.572, 45.41022
2184.501, 45.52743
2186.429, 45.28927
2188.358, 45.08429
2190.286, 45.16425
2192.215, 45.24630
2194.143, 45.06432
2196.072, 44.82107
2198.000, 44.82055
2199.928, 44.94402
2201.857, 44.81140
2203.785, 44.44730
2205.714, 44.48647
2207.642, 44.97430
2209.571, 45.28720
2211.499, 45.34771
2213.428, 45.39082
2215.356, 45.45575
2217.285, 45.51973
2219.213, 45.60381
2221.142, 45.63886
2223.070, 45.52120
2224.999, 45.41678
2226.927, 45.48339
2228.855, 45.61063
2230.784, 45.69064
2232.712, 45.71440
2234.641, 45.64090
2236.569, 45.48193
2238.498, 45.29645
2240.426, 45.08159
2242.355, 45.10298
2244.283, 45.42761
2246.212, 45.67602
2248.140, 45.80725
2250.069, 45.80073
2251.997, 45.47935
2253.926, 45.27374
2255.854, 45.46815
2257.782, 45.65845
2259.711, 45.56276
2261.639, 45.39215
2263.568, 45.32378
2265.496, 45.32085
2267.425, 45.35702
2269.353, 45.40612
2271.282, 45.36512
2273.210, 45.26039
2275.139, 45.24876
2277.067, 45.34100
2278.996, 45.51773
2280.924, 45.86690
2282.853, 46.02210
2284.781, 45.78661
2286.709, 45.60575
2288.638, 45.56582
2290.566, 45.54636
2292.495, 45.53638
2294.423, 45.51014
2296.352, 45.44469
2298.280, 45.37606
2300.209, 45.27360
2302.137, 45.23170
2304.066, 45.39771
2305.994, 45.69142
2307.923, 46.00230
2309.851, 46.29185
2311.780, 46.32142
2313.708, 46.06771
2315.636, 45.92875
2317.565, 45.92677
2319.493, 45.91964
2321.422, 45.86715
2323.350, 46.00517
2325.279, 46.51955
2327.207, 46.78489
2329.136, 46.46141
2331.064, 46.16854
2332.993, 46.16452
2334.921, 46.21619
2336.850, 46.27520
2338.778, 46.25102
2340.707, 46.03764
2342.635, 45.73357
2344.563, 45.30647
2346.492, 44.96061
2348.420, 45.17508
2350.349, 45.72762
2352.277, 46.04711
2354.206, 46.15398
2356.134, 46.18150
2358.063, 46.11819
2359.991, 46.14093
2361.920, 46.30054
2363.848, 46.36141
2365.777, 46.24706
2367.705, 46.24035
2369.634, 46.45361
2371.562, 46.54910
2373.490, 46.38735
2375.419, 46.26511
2377.347, 46.32996
2379.276, 46.39848
2381.204, 46.40405
2383.133, 46.35689
2385.061, 46.18822
2386.990, 46.04980
2388.918, 46.06539
2390.847, 46.20117
2392.775, 46.57369
2394.704, 46.94175
2396.632, 46.70218
2398.561, 46.14087
2400.489, 46.02144
2402.417, 46.28206
2404.346, 46.54482
2406.274, 46.81439
2408.203, 47.00508
2410.131, 47.15452
2412.060, 47.03927
2413.988, 46.52983
2415.917, 46.38335
2417.845, 46.76997
2419.774, 47.04097
2421.702, 47.03629
2423.631, 47.00444
2425.559, 46.98151
2427.488, 46.99316
2429.416, 47.09665
2431.344, 47.16986
2433.273, 47.08216
2435.201, 47.05956
2437.130, 47.33763
2439.058, 47.58075
2440.987, 47.51489
2442.915, 47.36909
2444.844, 47.38525
2446.772, 47.41860
2448.701, 47.24167
2450.629, 46.99302
2452.558, 46.89885
2454.486, 46.93348
2456.415, 47.05035
2458.343, 47.22623
2460.271, 47.34699
2462.200, 47.42384
2464.128, 47.55794
2466.057, 47.74553
2467.985, 47.93855
2469.914, 48.17899
2471.842, 48.14195
2473.771, 47.67687
2475.699, 47.41572
2477.628, 47.40522
2479.556, 47.48428
2481.485, 47.70208
2483.413, 47.70913
2485.342, 47.27256
2487.270, 47.04742
2489.198, 47.43128
2491.127, 47.68584
2493.055, 47.47191
2494.984, 47.34430
2496.912, 47.57667
2498.841, 47.80572
2500.769, 47.91509
2502.698, 47.94560
2504.626, 47.91941
2506.555, 47.81242
2508.483, 47.50001
2510.412, 47.22046
2512.340, 47.14365
2514.269, 47.24910
2516.197, 47.68227
2518.125, 48.14449
2520.054, 48.18751
2521.982, 48.05541
2523.911, 48.09679
2525.839, 48.21835
2527.768, 48.28739
2529.696, 48.28401
2531.625, 48.08884
2533.553, 47.79150
2535.482, 47.80843
2537.410, 48.06230
2539.339, 48.05693
2541.267, 47.84361
2543.196, 47.79596
2545.124, 47.91298
2547.052, 47.89360
2548.981, 47.69053
2550.909, 47.74365
2552.838, 48.11793
2554.766, 48.32710
2556.695, 48.36520
2558.623, 48.14724
2560.552, 47.57726
2562.480, 47.60456
2564.409, 48.72374
2566.337, 49.25329
2568.266, 48.61372
2570.194, 48.22682
2572.123, 48.19279
2574.051, 48.31958
2575.979, 48.71979
2577.908, 48.76962
2579.836, 48.04632
2581.765, 47.60674
2583.693, 47.95941
2585.622, 48.25138
2587.550, 48.19827
2589.479, 48.20301
2591.407, 48.41951
2593.336, 48.57946
2595.264, 48.55843
2597.193, 48.51756
2599.121, 48.60400
2601.050, 48.57679
2602.978, 48.10018
2604.906, 47.81748
2606.835, 48.27807
2608.763, 48.69529
2610.692, 48.63424
2612.620, 48.51047
2614.549, 48.53937
2616.477, 48.63233
2618.406, 48.82142
2620.334, 48.93457
2622.263, 48.76027
2624.191, 48.56409
2626.120, 48.54351
2628.048, 48.60474
2629.977, 48.72668
2631.905, 48.84069
2633.833, 48.87766
2635.762, 48.87453
2637.690, 48.77763
2639.619, 48.74577
2641.547, 49.10125
2643.476, 49.46142
2645.404, 49.36197
2647.333, 49.12511
2649.261, 49.03662
2651.190, 49.09012
2653.118, 49.34733
2655.047, 49.67188
2656.975, 49.96229
2658.904, 50.12275
2660.832, 49.90780
2662.760, 49.57123
2664.689, 49.47239
2666.617, 49.45710
2668.546, 49.23436
2670.474, 48.98633
2672.403, 49.02277
2674.331, 49.23000
2676.260, 49.53698
2678.188, 49.79139
2680.117, 49.68241
2682.045, 49.41850
2683.974, 49.30302
2685.902, 49.32190
2687.831, 49.48761
2689.759, 49.74262
2691.688, 50.08612
2693.616, 50.36726
2695.544, 50.31561
2697.473, 50.05962
2699.401, 49.72240
2701.330, 49.42674
2703.258, 49.45472
2705.187, 49.66146
2707.115, 49.83451
2709.044, 49.94321
2710.972, 49.86451
2712.901, 49.74200
2714.829, 49.87675
2716.758, 50.11345
2718.686, 50.18380
2720.615, 50.15030
2722.543, 50.00945
2724.471, 49.92728
2726.400, 50.29080
2728.328, 50.76196
2730.257, 50.76517
2732.185, 50.53729
2734.114, 50.36469
2736.042, 50.29718
2737.971, 50.53990
2739.899, 50.82802
2741.828, 50.77962
2743.756, 50.60348
2745.685, 50.51348
2747.613, 50.52674
2749.542, 50.73539
2751.470, 50.98481
2753.398, 51.20900
2755.327, 51.26190
2757.255, 50.79454
2759.184, 50.28159
2761.112, 50.34121
2763.041, 50.52078
2764.969, 50.25183
2766.898, 50.01659
2768.826, 50.34068
2770.755, 50.74001
2772.683, 50.71177
2774.612, 50.67365
2776.540, 51.11489
2778.469, 51.48722
2780.397, 51.29422
2782.325, 51.05338
2784.254, 51.12670
2786.182, 51.24537
2788.111, 51.31001
2790.039, 51.27815
2791.968, 51.08545
2793.896, 50.85583
2795.825, 50.50821
2797.753, 50.38238
2799.682, 50.80952
2801.610, 51.23737
2803.539, 51.48188
2805.467, 51.58901
2807.396, 51.43625
2809.324, 51.45441
2811.252, 51.97648
2813.181, 52.29013
2815.109, 51.96549
2817.038, 51.80245
2818.966, 52.09760
2820.895, 52.12584
2822.823, 51.57908
2824.752, 51.47466
2826.680, 52.35773
2828.609, 52.86774
2830.537, 52.67143
2832.466, 52.56502
2834.394, 52.58986
2836.323, 52.67669
2838.251, 52.80445
2840.179, 53.10229
2842.108, 53.62823
2844.036, 54.14475
2845.965, 54.65865
2847.893, 55.09414
2849.822, 55.44475
2851.750, 55.66100
2853.679, 55.73680
2855.607, 55.70284
2857.536, 55.56002
2859.464, 55.21928
2861.393, 54.80626
2863.321, 54.97003
2865.250, 55.48966
2867.178, 55.67860
2869.106, 55.63457
2871.035, 55.52208
2872.963, 55.40859
2874.892, 55.37112
2876.820, 55.47729
2878.749, 55.97583
2880.677, 56.52007
2882.606, 56.72160
2884.534, 56.69255
2886.463, 56.43279
2888.391, 56.14034
2890.320, 55.82056
2892.248, 55.72023
2894.177, 56.16210
2896.105, 56.65310
2898.033, 56.99862
2899.962, 57.20007
2901.890, 57.16615
2903.819, 57.16893
2905.747, 57.45213
2907.676, 57.52130
2909.604, 57.09217
2911.533, 56.89535
2913.461, 57.10779
2915.390, 57.33529
2917.318, 57.54765
2919.247, 57.63104
2921.175, 57.55416
2923.104, 57.46980
2925.032, 57.38061
2926.960, 57.39240
2928.889, 57.51031
2930.817, 57.34114
2932.746, 56.91848
2934.674, 56.94505
2936.603, 57.26315
2938.531, 57.15016
2940.460, 56.76748
2942.388, 56.47523
2944.317, 56.30803
2946.245, 56.44075
2948.174, 56.64445
2950.102, 56.58411
2952.031, 56.42424
2953.959, 56.15645
2955.887, 56.08306
2957.816, 56.80373
2959.744, 57.29981
2961.673, 56.79817
2963.601, 56.32628
2965.530, 56.42977
2967.458, 56.59864
2969.387, 56.86665
2971.315, 56.74847
2973.244, 55.98710
2975.172, 55.53417
2977.101, 55.68354
2979.029, 55.85479
2980.958, 56.05550
2982.886, 55.93432
2984.814, 55.48756
2986.743, 55.45924
2988.671, 55.83998
2990.600, 55.78554
2992.528, 55.39080
2994.457, 55.05077
2996.385, 54.88230
2998.314, 55.37885
3000.242, 56.06786
3002.171, 56.15020
3004.099, 55.99238
3006.028, 56.01645
3007.956, 56.04675
3009.885, 55.85181
3011.813, 55.74389
3013.741, 56.08438
3015.670, 56.27987
3017.598, 56.00315
3019.527, 55.76814
3021.455, 55.72743
3023.384, 55.71751
3025.312, 55.62596
3027.241, 55.78119
3029.169, 56.24922
3031.098, 56.38272
3033.026, 56.13448
3034.955, 56.39001
3036.883, 57.09040
3038.812, 57.04089
3040.740, 56.53452
3042.668, 56.70066
3044.597, 57.16560
3046.525, 57.20151
3048.454, 57.10833
3050.382, 57.33934
3052.311, 57.58794
3054.239, 57.57686
3056.168, 57.53514
3058.096, 57.55365
3060.025, 57.66832
3061.953, 57.95760
3063.882, 58.15950
3065.810, 58.13829
3067.739, 58.25922
3069.667, 58.74741
3071.595, 58.88400
3073.524, 58.64843
3075.452, 58.51921
3077.381, 58.52269
3079.309, 58.60723
3081.238, 58.75449
3083.166, 58.92827
3085.095, 59.08652
3087.023, 59.15603
3088.952, 59.16479
3090.880, 59.13322
3092.809, 59.08385
3094.737, 58.97115
3096.666, 58.97056
3098.594, 59.18706
3100.522, 59.51065
3102.451, 59.92812
3104.379, 60.43361
3106.308, 61.08451
3108.236, 61.44143
3110.165, 61.41693
3112.093, 61.07114
3114.022, 60.42387
3115.950, 60.73830
3117.879, 61.62065
3119.807, 61.72578
3121.736, 61.41047
3123.664, 61.12120
3125.593, 61.09859
3127.521, 61.89589
3129.449, 62.63417
3131.378, 62.51374
3133.306, 62.46872
3135.235, 63.05548
3137.163, 63.34519
3139.092, 62.94835
3141.020, 62.95778
3142.949, 63.81484
3144.877, 64.14866
3146.806, 63.99884
3148.734, 64.42117
3150.663, 65.23658
3152.591, 65.37569
3154.520, 65.22938
3156.448, 65.75227
3158.376, 66.39375
3160.305, 66.43730
3162.233, 66.50602
3164.162, 67.04869
3166.090, 67.76256
3168.019, 68.62454
3169.947, 69.34949
3171.876, 69.73481
3173.804, 70.26540
3175.733, 70.98261
3177.661, 71.53679
3179.590, 71.99733
3181.518, 73.22356
3183.447, 74.85247
3185.375, 75.51175
3187.303, 75.83716
3189.232, 76.68657
3191.160, 77.78603
3193.089, 78.88006
3195.017, 80.16263
3196.946, 81.66332
3198.874, 83.48389
3200.803, 85.84473
3202.731, 88.01344
3204.660, 89.80514
3206.588, 92.43888
3208.517, 95.81717
3210.445, 98.29910
3212.374, 100.1517
3214.302, 102.2712
3216.230, 104.5963
3218.159, 107.2700
3220.087, 109.7477
3222.016, 111.2753
3223.944, 112.9362
3225.873, 115.1670
3227.801, 117.6002
3229.730, 119.9490
3231.658, 123.1527
3233.587, 127.3318
3235.515, 131.9554
3237.444, 136.7786
3239.372, 140.4333
3241.301, 143.1547
3243.229, 145.7705
3245.157, 147.4079
3247.086, 147.4726
3249.014, 145.8079
3250.943, 141.8210
3252.871, 136.7984
3254.800, 130.9350
3256.728, 124.8618
3258.657, 118.5441
3260.585, 112.7733
3262.514, 107.5511
3264.442, 102.6848
3266.371, 98.26318
3268.299, 94.56448
3270.228, 91.35223
3272.156, 88.35967
3274.084, 85.65501
3276.013, 83.19945
3277.941, 81.20297
3279.870, 80.01591
3281.798, 78.62370
3283.727, 76.87838
3285.655, 75.26378
3287.584, 73.82254
3289.512, 73.04472
3291.441, 72.64816
3293.369, 71.74158
3295.298, 70.78880
3297.226, 70.38790
3299.155, 70.19279
3301.083, 70.21278
3303.011, 69.86036
3304.940, 68.57581
3306.868, 67.65022
3308.797, 67.18291
3310.725, 66.83955
3312.654, 66.62312
3314.582, 66.70336
3316.511, 66.93793
3318.439, 66.97849
3320.368, 67.02129
3322.296, 67.35595
3324.225, 67.56792
3326.153, 67.38530
3328.082, 67.26729
3330.010, 67.35980
3331.938, 67.21262
3333.867, 66.76182
3335.795, 67.06521
3337.724, 67.73406
3339.652, 67.52362
3341.581, 67.06208
3343.509, 67.30364
3345.438, 67.52000
3347.366, 67.14741
3349.295, 66.94842
3351.223, 67.30991
3353.152, 67.37879
3355.080, 67.10590
3357.009, 66.97282
3358.937, 66.98817
3360.865, 67.30954
3362.794, 67.53387
3364.722, 66.83659
3366.651, 66.18981
3368.579, 66.45626
3370.508, 66.69651
3372.436, 66.68456
3374.365, 66.50117
3376.293, 66.09674
3378.222, 66.08813
3380.150, 66.31186
3382.079, 66.00995
3384.007, 65.54897
3385.936, 65.23250
3387.864, 65.42801
3389.792, 66.87217
3391.721, 67.67570
3393.649, 66.82330
3395.578, 66.04384
3397.506, 65.41582
3399.435, 65.19669
3401.363, 65.27629
3403.292, 65.35369
3405.220, 65.38251
3407.148, 65.28632
3409.077, 65.15251
3411.005, 65.02453
3412.934, 64.87699
3414.862, 64.70995
3416.791, 64.44593
3418.719, 64.08873
3420.648, 63.91261
3422.576, 63.91746
3424.505, 64.26755
3426.433, 64.52345
3428.362, 63.98621
3430.290, 63.65997
3432.219, 64.01846
3434.147, 64.28261
3436.075, 64.30879
3438.004, 64.33839
3439.932, 64.31243
3441.861, 63.85353
3443.789, 63.33779
3445.718, 63.44909
3447.646, 63.64896
3449.575, 63.67787
3451.503, 63.58133
3453.432, 63.29440
3455.360, 63.40925
3457.289, 63.89975
3459.217, 63.84323
3461.146, 63.45382
3463.074, 63.05283
3465.002, 62.89881
3466.931, 63.51550
3468.859, 63.88563
3470.788, 63.71897
3472.716, 63.25765
3474.645, 62.48302
3476.573, 62.44460
3478.502, 62.90637
3480.430, 63.22521
3482.359, 63.39494
3484.287, 63.19007
3486.216, 63.26951
3488.144, 64.06873
3490.073, 64.39975
3492.001, 63.98991
3493.929, 63.33812
3495.858, 62.62231
3497.786, 62.39076
3499.715, 62.54872
3501.643, 63.16542
3503.572, 63.85424
3505.500, 64.25341
3507.429, 65.22452
3509.357, 66.83154
3511.286, 69.17892
3513.214, 72.22780
3515.143, 76.07547
3517.071, 80.01191
3519.000, 83.33553
3520.928, 86.08733
3522.856, 86.84536
3524.785, 89.68108
3526.713, 94.84520
3528.642, 106.2886
3530.570, 125.2181
3532.499, 160.7315
3534.427, 201.2160
3536.356, 246.0270
3538.284, 269.5520
3540.213, 258.8884
3542.141, 229.4511
3544.070, 182.4312
3545.998, 141.0467
3547.927, 107.3105
3549.855, 87.77287
3551.783, 76.39777
3553.712, 70.50835
3555.640, 67.13085
3557.569, 65.58926
3559.497, 64.62344
3561.426, 64.07178
3563.354, 63.85641
3565.283, 63.77144
3567.211, 63.42918
3569.140, 63.02702
3571.068, 62.70606
3572.997, 62.36029
3574.925, 61.93105
3576.854, 61.73730
3578.782, 61.75911
3580.710, 61.82484
3582.639, 61.90773
3584.567, 62.04965
3586.496, 62.03380
3588.424, 61.68536
3590.353, 61.51682
3592.281, 61.64682
3594.210, 61.56879
3596.138, 61.39298
3598.067, 61.32804
3599.995, 61.42963
3601.924, 61.87970
3603.852, 62.16992
3605.781, 62.08138
3607.709, 61.92711
3609.637, 61.74085
3611.566, 61.68581
3613.494, 61.70887
3615.423, 61.79173
3617.351, 61.81813
3619.280, 61.68948
3621.208, 61.59399
3623.137, 61.54750
3625.065, 61.82775
3626.994, 62.22077
3628.922, 62.24087
3630.851, 62.05603
3632.779, 61.66605
3634.708, 61.45885
3636.636, 61.53931
3638.564, 61.82098
3640.493, 62.21056
3642.421, 62.37006
3644.350, 62.36965
3646.278, 62.14019
3648.207, 62.11396
3650.135, 62.84637
3652.064, 62.65956
3653.992, 61.72070
3655.921, 61.77753
3657.849, 62.21387
3659.778, 61.96097
3661.706, 61.74207
3663.635, 62.01426
3665.563, 62.11483
3667.491, 62.00446
3669.420, 62.06632
3671.348, 62.15058
3673.277, 61.80257
3675.205, 61.53193
3677.134, 61.74971
3679.062, 61.90799
3680.991, 61.94203
3682.919, 61.94407
3684.848, 61.93046
3686.776, 61.91504
3688.705, 61.90472
3690.633, 61.85949
3692.562, 61.93992
3694.490, 62.19448
3696.418, 62.13729
3698.347, 61.92273
3700.275, 62.23950
3702.204, 62.45427
3704.132, 61.89476
3706.061, 61.61221
3707.989, 61.92400
3709.918, 61.87652
3711.846, 61.55733
3713.775, 61.25946
3715.703, 61.17990
3717.632, 61.65340
3719.560, 61.85426
3721.489, 61.45243
3723.417, 61.67075
3725.345, 62.23694
3727.274, 61.92702
3729.202, 61.61633
3731.131, 62.22518
3733.059, 62.45757
3734.988, 61.83234
3736.916, 61.72837
3738.845, 61.94246
3740.773, 61.57321
3742.702, 61.37677
3744.630, 62.15104
3746.559, 62.56760
3748.487, 62.21731
3750.416, 62.12880
3752.344, 62.24392
3754.272, 62.40944
3756.201, 62.55167
3758.129, 62.64668
3760.058, 62.60767
3761.986, 62.39650
3763.915, 62.28283
3765.843, 62.26867
3767.772, 62.43069
3769.700, 62.50962
3771.629, 62.30745
3773.557, 62.26826
3775.486, 62.46149
3777.414, 62.67500
3779.343, 62.78183
3781.271, 62.47816
3783.199, 62.18610
3785.128, 62.09673
3787.056, 61.92476
3788.985, 61.67394
3790.913, 61.86370
3792.842, 62.14958
3794.770, 62.04902
3796.699, 62.05246
3798.627, 62.32138
3800.556, 62.52456
3802.484, 62.63287
3804.413, 62.54933
3806.341, 62.42930
3808.270, 62.38656
3810.198, 62.40115
3812.126, 62.47374
3814.055, 62.35875
3815.983, 62.19420
3817.912, 62.26584
3819.840, 62.54591
3821.769, 63.33077
3823.697, 63.23598
3825.626, 62.22567
3827.554, 62.16434
3829.483, 62.45344
3831.411, 62.26868
3833.340, 62.21840
3835.268, 62.54723
3837.197, 62.63942
3839.125, 62.50088
3841.053, 62.11283
3842.982, 61.89229
3844.910, 62.28894
3846.839, 62.62151
3848.767, 62.79271
3850.696, 62.47050
3852.624, 62.12130
3854.553, 62.83651
3856.481, 63.38615
3858.410, 63.14830
3860.338, 62.90121
3862.267, 62.67361
3864.195, 62.34563
3866.124, 62.10594
3868.052, 62.07981
3869.980, 62.30836
3871.909, 62.86089
3873.837, 62.93599
3875.766, 62.83403
3877.694, 63.19279
3879.623, 63.41936
3881.551, 63.25856
3883.480, 63.18418
3885.408, 63.22789
3887.337, 63.42010
3889.265, 63.52340
3891.194, 63.03380
3893.122, 63.18239
3895.051, 64.13871
3896.979, 64.39927
3898.907, 64.19991
3900.836, 63.77180
3902.764, 63.58821
3904.693, 63.90327
3906.621, 63.82229
3908.550, 63.48364
3910.478, 63.69232
3912.407, 63.80925
3914.335, 63.22530
3916.264, 62.88579
3918.192, 62.85724
3920.121, 62.87304
3922.049, 63.00284
3923.978, 63.46464
3925.906, 63.72486
3927.834, 63.52018
3929.763, 63.80608
3931.691, 64.27384
3933.620, 64.32965
3935.548, 64.24144
3937.477, 64.09171
3939.405, 64.08297
3941.334, 64.18109
3943.262, 64.21287
3945.191, 64.18800
3947.119, 63.98916
3949.048, 64.17497
3950.976, 64.76302
3952.905, 64.89568
3954.833, 64.79279
3956.761, 64.58996
3958.690, 64.52927
3960.618, 64.64507
3962.547, 64.73196
3964.475, 64.77828
3966.404, 64.65811
3968.332, 64.78835
3970.261, 65.64410
3972.189, 65.33466
3974.118, 64.39554
3976.046, 64.21237
3977.975, 64.28974
3979.903, 64.35851
3981.832, 64.84139
3983.760, 65.52687
3985.688, 65.07870
3987.617, 64.52763
3989.545, 64.64058
3991.474, 64.67024
3993.402, 64.54004
3995.331, 64.38589
3997.259, 64.43998
3999.188, 65.19564
4001.116, 65.43269
4003.045, 65.07043
4004.973, 65.61559
4006.902, 66.33814
4008.830, 66.27744
4010.759, 66.12154
4012.687, 66.03915
4014.615, 65.80389
4016.544, 65.52966
4018.472, 65.32494
4020.401, 65.37510
4022.329, 65.88515
4024.258, 65.62064
4026.186, 65.17136
4028.115, 65.81535
4030.043, 66.32695
4031.972, 66.28245
4033.900, 66.17867
4035.829, 66.10116
4037.757, 66.23866
4039.686, 66.28436
4041.614, 66.07829
4043.542, 65.88793
4045.471, 65.75625
4047.399, 65.70847
4049.328, 65.85511
4051.256, 66.42705
4053.185, 66.68378
4055.113, 66.68697
4057.042, 66.71276
4058.970, 66.61727
4060.899, 66.27335
4062.827, 66.14943
4064.756, 66.30966
4066.684, 67.17393
4068.613, 67.76230
4070.541, 67.41328
4072.469, 67.50107
4074.398, 67.92951
4076.326, 67.83265
4078.255, 67.66911
4080.183, 67.75041
4082.112, 67.68217
4084.040, 67.54079
4085.969, 67.76405
4087.897, 67.80410
4089.826, 67.13937
4091.754, 67.70737
4093.683, 68.93954
4095.611, 68.41477
4097.540, 67.79522
4099.468, 67.94395
4101.396, 67.80970
4103.325, 67.49884
4105.253, 67.60292
4107.182, 67.88270
4109.110, 68.26152
4111.039, 68.74062
4112.967, 69.09559
4114.896, 68.34834
4116.824, 68.04282
4118.752, 69.18542
4120.681, 69.95301
4122.609, 70.30035
4124.538, 70.17888
4126.466, 69.71941
4128.395, 68.90390
4130.323, 69.26272
4132.252, 70.16232
4134.180, 70.44308
4136.109, 70.65339
4138.037, 70.94345
4139.966, 70.72503
4141.894, 70.36567
4143.823, 70.28249
4145.751, 70.62404
4147.680, 71.42587
4149.608, 71.69512
4151.537, 71.70464
4153.465, 71.60857
4155.394, 71.78452
4157.322, 72.26681
4159.250, 72.52944
4161.179, 72.79420
4163.107, 73.46531
4165.036, 73.44657
4166.964, 72.92906
4168.893, 73.61320
4170.821, 74.23952
4172.750, 73.80656
4174.678, 73.91460
4176.606, 74.37460
4178.535, 74.20741
4180.463, 74.44601
4182.392, 75.55776
4184.320, 76.18962
4186.249, 76.40903
4188.177, 76.31983
4190.106, 76.47775
4192.034, 77.00220
4193.963, 77.34770
4195.891, 77.58049
4197.820, 77.74854
4199.748, 78.06474
4201.677, 78.53926
4203.605, 78.79617
4205.534, 79.04446
4207.462, 79.47201
4209.391, 79.73580
4211.319, 79.86491
4213.248, 80.10081
4215.176, 80.54443
4217.104, 81.37547
4219.033, 81.67336
4220.961, 81.60691
4222.890, 81.54407
4224.818, 81.40780
4226.747, 81.10876
4228.675, 81.65104
4230.604, 82.48427
4232.532, 82.95512
4234.460, 83.50163
4236.389, 84.12724
4238.317, 84.20497
4240.246, 84.33159
4242.174, 85.17979
4244.103, 85.39314
##END=



