##NAMES=Bobdownsite
##RRUFFID=R070653
##IDEAL CHEMISTRY=Ca_9_Mg(PO_3_F)(PO_4_)_6_
##LOCALITY=Tip Top mine, Custer County, South Dakota, USA
##OWNER=RRUFF
##SOURCE=Rock Currier
##DESCRIPTION=Colorless rhombohedral crystals embedded in a fine-grained matrix
##STATUS=The identification of this mineral is confirmed by single-crystal X-ray diffraction and chemical analysis
##URL=https://www.rruff.net/odr/rruff_sample/R070653
##MEASURED CHEMISTRY=(Ca_8.97_Na_0.03_)(Mg_0.97_Al_0.03_)(P_1.00_O_3_(F_0.83_(OH)_0.17_))(P_1.00_O_4_)_6_ ; OH estimated by difference
##DIFFRACTION SAMPLE DESCRIPTION=Single crystal, powder profile is calculated
##CELL PARAMETERS=a: 10.336 b: 10.336 c: 37.054 alpha: 90 beta: 90 gamma: 120 volume: 3428 crystal system: hexagonal
##FILETYPE=Raman RAW
##RAMAN WAVELENGTH=780

166.8291, 534076.7
168.7576, 534485.8
170.6860, 534350.3
172.6145, 533789.8
174.5430, 533511.8
176.4714, 533756.2
178.3999, 534083.5
180.3284, 534552.5
182.2568, 535007.0
184.1853, 535320.1
186.1138, 535515.5
188.0422, 535668.3
189.9707, 535672.3
191.8992, 535776.4
193.8276, 536007.3
195.7561, 536272.9
197.6846, 536559.9
199.6130, 536838.7
201.5415, 537065.1
203.4700, 537236.3
205.3984, 537390.7
207.3269, 537548.9
209.2554, 537670.4
211.1838, 537687.4
213.1123, 537694.6
215.0408, 537798.3
216.9692, 537977.7
218.8977, 538011.1
220.8262, 537896.4
222.7546, 537659.8
224.6831, 537203.1
226.6116, 536800.6
228.5400, 536673.7
230.4685, 536706.1
232.3970, 536638.6
234.3254, 536465.2
236.2539, 536235.9
238.1824, 535895.8
240.1108, 535593.1
242.0393, 535413.9
243.9678, 535248.8
245.8962, 534947.4
247.8247, 534857.8
249.7532, 534401.7
251.6816, 534566.1
253.6101, 534626.4
255.5386, 534409.0
257.4670, 534170.4
259.3955, 534104.6
261.3240, 534056.3
263.2524, 533734.6
265.1809, 533160.6
267.1094, 532618.9
269.0378, 532116.8
270.9663, 531726.9
272.8948, 531627.6
274.8232, 531510.6
276.7517, 531139.9
278.6802, 530620.7
280.6086, 530255.1
282.5371, 530040.3
284.4656, 529610.4
286.3940, 528692.9
288.3225, 527894.1
290.2510, 527460.1
292.1794, 527122.9
294.1079, 526735.6
296.0364, 526250.4
297.9648, 525479.2
299.8933, 524351.3
301.8218, 523488.7
303.7502, 523240.5
305.6787, 522982.1
307.6072, 522517.2
309.5356, 521977.2
311.4641, 521480.7
313.3926, 520996.3
315.3210, 520447.9
317.2495, 519926.9
319.1780, 519433.7
321.1064, 518804.0
323.0349, 518354.5
324.9634, 517731.1
326.8918, 516999.0
328.8203, 516225.5
330.7488, 515426.2
332.6772, 514612.8
334.6057, 513799.5
336.5342, 513005.5
338.4626, 512213.2
340.3911, 511491.8
342.3196, 510876.7
344.2480, 510331.3
346.1765, 509845.3
348.1050, 509389.8
350.0334, 508854.4
351.9619, 508225.7
353.8904, 507522.6
355.8188, 506729.2
357.7473, 505907.2
359.6758, 505022.9
361.6042, 504208.4
363.5327, 503576.2
365.4612, 503092.1
367.3896, 502659.2
369.3181, 502310.7
371.2466, 501773.6
373.1750, 500896.2
375.1035, 500102.0
377.0320, 499631.8
378.9604, 499064.0
380.8889, 498055.3
382.8174, 496833.4
384.7458, 495819.2
386.6743, 495038.5
388.6028, 494290.6
390.5313, 493637.9
392.4597, 492837.0
394.3882, 491697.2
396.3167, 490642.3
398.2451, 489920.1
400.1736, 489328.8
402.1021, 488670.4
404.0305, 487962.4
405.9590, 487306.6
407.8875, 486721.7
409.8159, 485971.5
411.7444, 484871.9
413.6729, 483992.0
415.6013, 483658.2
417.5298, 483432.9
419.4583, 483057.6
421.3867, 482594.7
423.3152, 482240.3
425.2437, 481932.5
427.1721, 481236.7
429.1006, 480045.0
431.0291, 478967.5
432.9575, 478256.4
434.8860, 477561.0
436.8145, 476850.4
438.7429, 476076.9
440.6714, 475170.8
442.5999, 474193.3
444.5283, 473267.8
446.4568, 472395.0
448.3853, 471492.0
450.3137, 470715.7
452.2422, 469622.9
454.1707, 469201.0
456.0991, 468710.5
458.0276, 467976.8
459.9561, 467062.5
461.8845, 465890.3
463.8130, 464634.1
465.7415, 463723.7
467.6699, 463184.5
469.5984, 462377.3
471.5269, 461107.0
473.4553, 459854.2
475.3838, 458666.9
477.3123, 457493.3
479.2407, 456296.4
481.1692, 455095.9
483.0977, 453871.9
485.0261, 452667.2
486.9546, 451579.4
488.8831, 450614.6
490.8115, 449694.3
492.7400, 448961.6
494.6685, 448036.1
496.5969, 446777.9
498.5254, 445540.0
500.4539, 444474.2
502.3823, 443433.8
504.3108, 442283.7
506.2393, 441113.6
508.1677, 440063.0
510.0962, 439126.8
512.0247, 438254.3
513.9531, 437519.1
515.8816, 436581.7
517.8101, 435350.7
519.7385, 434112.9
521.6670, 432867.2
523.5955, 431770.3
525.5239, 431073.0
527.4524, 430441.3
529.3809, 429535.9
531.3093, 428434.6
533.2378, 427358.7
535.1663, 426303.7
537.0947, 425172.3
539.0232, 423891.6
540.9517, 422870.8
542.8801, 422310.6
544.8086, 421698.9
546.7371, 420843.7
548.6655, 419867.9
550.5940, 418738.8
552.5225, 417614.4
554.4509, 416740.8
556.3794, 416035.2
558.3079, 415140.9
560.2363, 414065.6
562.1648, 413106.6
564.0933, 412307.4
566.0217, 411407.9
567.9502, 410285.4
569.8787, 409196.8
571.8071, 408297.5
573.7356, 407406.8
575.6641, 406490.3
577.5925, 405491.4
579.5210, 404144.3
581.4495, 403369.7
583.3779, 401868.9
585.3064, 401549.7
587.2349, 400986.2
589.1633, 400071.8
591.0918, 399189.3
593.0203, 398550.5
594.9487, 397694.2
596.8772, 396373.1
598.8057, 395080.4
600.7341, 393978.1
602.6626, 393064.4
604.5911, 392561.8
606.5195, 392102.5
608.4480, 391025.8
610.3765, 389533.3
612.3049, 388379.6
614.2334, 387620.4
616.1619, 386810.3
618.0903, 385892.9
620.0188, 384987.6
621.9473, 384171.3
623.8757, 383250.4
625.8042, 382096.2
627.7327, 380921.9
629.6611, 379788.8
631.5896, 378727.6
633.5181, 377805.1
635.4465, 376947.1
637.3750, 376043.3
639.3035, 375103.7
641.2319, 374171.0
643.1604, 373271.1
645.0889, 372243.3
647.0173, 370980.9
648.9458, 369882.4
650.8743, 369012.1
652.8027, 368194.7
654.7312, 367423.8
656.6597, 366595.5
658.5881, 365595.3
660.5166, 364561.4
662.4451, 363621.1
664.3735, 362665.7
666.3020, 361447.4
668.2305, 360148.8
670.1589, 359392.8
672.0874, 359145.6
674.0159, 358460.6
675.9443, 357315.4
677.8728, 356160.4
679.8013, 354991.0
681.7297, 353913.0
683.6582, 352900.6
685.5867, 352053.8
687.5151, 351545.9
689.4436, 350944.4
691.3721, 350104.3
693.3005, 349077.3
695.2290, 347821.2
697.1575, 346495.8
699.0859, 345223.8
701.0144, 344070.3
702.9429, 343252.5
704.8713, 342260.9
706.7998, 341445.8
708.7283, 340762.1
710.6567, 339939.4
712.5852, 339436.3
714.5137, 338764.8
716.4421, 337824.2
718.3706, 336782.3
720.2991, 335596.3
722.2275, 334465.8
724.1560, 333414.7
726.0845, 332492.9
728.0129, 331815.1
729.9414, 331175.0
731.8699, 330380.3
733.7983, 329705.8
735.7268, 328865.8
737.6553, 328221.5
739.5837, 327490.9
741.5122, 326667.8
743.4407, 325693.2
745.3691, 324596.3
747.2976, 323633.2
749.2261, 322842.6
751.1545, 321964.9
753.0830, 320845.6
755.0115, 319953.7
756.9399, 319513.7
758.8684, 318924.4
760.7969, 318006.2
762.7253, 317095.7
764.6538, 316367.4
766.5823, 315586.9
768.5107, 314609.6
770.4392, 313606.0
772.3677, 312658.3
774.2961, 311771.8
776.2246, 310965.1
778.1531, 310189.2
780.0815, 309345.8
782.0100, 308484.0
783.9385, 307779.7
785.8669, 307200.5
787.7954, 306512.0
789.7239, 305714.5
791.6523, 304970.1
793.5808, 304283.2
795.5093, 303653.1
797.4377, 303087.7
799.3662, 302513.7
801.2947, 301929.4
803.2231, 301293.1
805.1516, 300616.9
807.0801, 299825.2
809.0085, 298825.3
810.9370, 297887.4
812.8655, 297161.0
814.7939, 296495.9
816.7224, 295854.7
818.6509, 295208.5
820.5793, 294575.1
822.5078, 293875.2
824.4363, 292955.2
826.3647, 291984.0
828.2932, 291186.9
830.2217, 290490.1
832.1501, 289749.3
834.0786, 289010.8
836.0071, 288479.7
837.9355, 287657.6
839.8640, 287287.8
841.7925, 286222.9
843.7209, 285409.1
845.6494, 284848.4
847.5779, 284286.7
849.5063, 283702.0
851.4348, 283031.8
853.3633, 282235.3
855.2917, 281556.7
857.2202, 281111.3
859.1487, 280512.1
861.0771, 279623.8
863.0056, 278718.2
864.9341, 277882.8
866.8625, 276966.6
868.7910, 275728.7
870.7195, 274730.3
872.6479, 274393.4
874.5764, 274005.0
876.5049, 273199.5
878.4333, 272298.5
880.3618, 271430.9
882.2903, 270610.5
884.2188, 269856.6
886.1472, 269144.7
888.0757, 268495.7
890.0042, 267836.0
891.9326, 267079.3
893.8611, 266265.4
895.7896, 265372.0
897.7180, 264502.0
899.6465, 263932.4
901.5750, 263480.3
903.5034, 262680.7
905.4319, 261645.5
907.3604, 260666.2
909.2888, 259791.7
911.2173, 259356.9
913.1458, 259308.6
915.0742, 258935.8
917.0027, 258232.5
918.9312, 257729.5
920.8596, 257445.2
922.7881, 257032.2
924.7166, 256484.6
926.6450, 255822.7
928.5735, 255034.8
930.5020, 254247.2
932.4304, 253449.9
934.3589, 252798.3
936.2874, 252318.7
938.2158, 251881.0
940.1443, 251450.3
942.0728, 251158.2
944.0012, 251058.0
945.9297, 250933.4
947.8582, 250740.8
949.7866, 250581.9
951.7151, 250326.6
953.6436, 250002.4
955.5720, 249784.2
957.5005, 249315.8
959.4290, 249037.2
961.3574, 248813.5
963.2859, 248722.3
965.2144, 248435.0
967.1428, 247818.7
969.0713, 247059.6
970.9998, 246221.9
972.9282, 245259.6
974.8567, 244053.3
976.7852, 242882.4
978.7136, 241880.7
980.6421, 240880.3
982.5706, 239649.4
984.4990, 238624.0
986.4275, 238149.9
988.3560, 237746.2
990.2844, 237226.6
992.2129, 236639.9
994.1414, 235971.3
996.0698, 235313.3
997.9983, 234681.8
999.9268, 234119.3
1001.855, 233668.3
1003.784, 233239.2
1005.712, 232803.6
1007.641, 232299.7
1009.569, 231682.2
1011.498, 230987.3
1013.426, 230180.0
1015.354, 229411.6
1017.283, 228814.2
1019.211, 228301.3
1021.140, 227824.3
1023.068, 227403.2
1024.997, 227058.3
1026.925, 226763.8
1028.854, 226618.3
1030.782, 226343.8
1032.711, 225587.5
1034.639, 224798.3
1036.568, 224336.6
1038.496, 223943.7
1040.425, 223453.1
1042.353, 222935.4
1044.281, 222409.0
1046.210, 221922.1
1048.138, 221519.1
1050.067, 221148.0
1051.995, 220767.1
1053.924, 220392.5
1055.852, 220063.9
1057.781, 219693.5
1059.709, 219259.8
1061.638, 218723.5
1063.566, 217960.3
1065.495, 217254.2
1067.423, 216797.7
1069.352, 216461.9
1071.280, 216252.8
1073.208, 216028.3
1075.137, 215637.0
1077.065, 215283.8
1078.994, 215140.4
1080.922, 214940.8
1082.851, 214529.4
1084.779, 214064.0
1086.708, 213620.1
1088.636, 213150.6
1090.565, 212533.6
1092.493, 212064.4
1094.422, 211985.8
1096.350, 211855.3
1098.279, 211469.0
1100.207, 211074.0
1102.135, 210760.4
1104.064, 210402.1
1105.992, 209955.2
1107.921, 209485.0
1109.849, 208950.8
1111.778, 208505.7
1113.706, 208235.8
1115.635, 207951.5
1117.563, 207615.8
1119.492, 207280.2
1121.420, 206922.9
1123.349, 206626.9
1125.277, 206305.1
1127.206, 205989.0
1129.134, 205746.8
1131.063, 205387.2
1132.991, 205199.5
1134.919, 204937.4
1136.848, 204541.1
1138.776, 204216.0
1140.705, 203955.5
1142.633, 203767.5
1144.562, 203667.3
1146.490, 203567.2
1148.419, 203483.6
1150.347, 203269.7
1152.276, 202946.7
1154.204, 202632.6
1156.133, 202333.8
1158.061, 202103.3
1159.990, 201906.3
1161.918, 201655.7
1163.846, 201341.8
1165.775, 200926.8
1167.703, 200479.3
1169.632, 200130.0
1171.560, 199881.3
1173.489, 199840.7
1175.417, 199815.2
1177.346, 199530.8
1179.274, 199176.1
1181.203, 198875.4
1183.131, 198651.3
1185.060, 198550.6
1186.988, 198467.0
1188.917, 198356.4
1190.845, 198188.1
1192.773, 197935.3
1194.702, 197634.8
1196.630, 197274.3
1198.559, 196932.1
1200.487, 196649.3
1202.416, 196335.3
1204.344, 196095.4
1206.273, 195928.6
1208.201, 195692.2
1210.130, 195680.5
1212.058, 195602.3
1213.987, 195512.8
1215.915, 195423.3
1217.844, 195279.3
1219.772, 195086.3
1221.700, 194992.3
1223.629, 194965.3
1225.557, 194819.7
1227.486, 194573.8
1229.414, 194325.5
1231.343, 194077.2
1233.271, 193845.2
1235.200, 193620.1
1237.128, 193392.1
1239.057, 193165.5
1240.985, 192915.6
1242.914, 192696.9
1244.842, 192566.7
1246.771, 192454.9
1248.699, 192323.9
1250.627, 192167.3
1252.556, 191970.1
1254.484, 191774.2
1256.413, 191607.9
1258.341, 191444.9
1260.270, 191279.1
1262.198, 191150.5
1264.127, 191092.2
1266.055, 190986.6
1267.984, 190797.5
1269.912, 190708.3
1271.841, 190721.2
1273.769, 190702.0
1275.698, 190663.5
1277.626, 190783.8
1279.554, 190721.8
1281.483, 190688.0
1283.411, 190676.5
1285.340, 190558.4
1287.268, 190484.1
1289.197, 190431.6
1291.125, 190351.8
1293.054, 190187.8
1294.982, 190017.0
1296.911, 189820.5
1298.839, 189751.6
1300.768, 189946.7
1302.696, 189984.0
1304.625, 189713.7
1306.553, 189500.2
1308.481, 189412.1
1310.410, 189304.3
1312.338, 189169.3
1314.267, 189002.8
1316.195, 188820.8
1318.124, 188669.0
1320.052, 188560.4
1321.981, 188548.7
1323.909, 188570.8
1325.838, 188544.3
1327.766, 188450.4
1329.695, 188196.7
1331.623, 187967.1
1333.552, 187919.0
1335.480, 187909.5
1337.408, 187956.7
1339.337, 187894.7
1341.265, 187608.0
1343.194, 187382.0
1345.122, 187241.9
1347.051, 187179.4
1348.979, 187194.8
1350.908, 187222.9
1352.836, 187251.8
1354.765, 187255.7
1356.693, 187228.7
1358.622, 187136.3
1360.550, 187038.0
1362.479, 187046.5
1364.407, 187054.8
1366.335, 186939.5
1368.264, 186854.8
1370.192, 186920.0
1372.121, 186944.2
1374.049, 186832.3
1375.978, 186747.0
1377.906, 186677.0
1379.835, 186839.3
1381.763, 187282.5
1383.692, 187533.3
1385.620, 187619.4
1387.549, 187629.4
1389.477, 187657.7
1391.406, 188000.4
1393.334, 188412.9
1395.262, 188543.6
1397.191, 188667.7
1399.119, 189036.6
1401.048, 189276.3
1402.976, 189154.4
1404.905, 189223.4
1406.833, 189652.6
1408.762, 189984.0
1410.690, 190170.7
1412.619, 190312.1
1414.547, 190443.3
1416.476, 190749.4
1418.404, 190831.7
1420.333, 191163.7
1422.261, 191142.8
1424.189, 191232.1
1426.118, 191461.0
1428.046, 192023.6
1429.975, 192391.5
1431.903, 192331.8
1433.832, 192254.5
1435.760, 192226.7
1437.689, 192205.3
1439.617, 192198.0
1441.546, 192172.5
1443.474, 192144.0
1445.403, 192160.3
1447.331, 192175.4
1449.260, 192096.6
1451.188, 191996.5
1453.116, 191941.1
1455.045, 191839.2
1456.973, 191602.7
1458.902, 191377.1
1460.830, 191192.1
1462.759, 191015.0
1464.687, 190858.3
1466.616, 190655.3
1468.544, 190409.0
1470.473, 190090.8
1472.401, 189709.6
1474.330, 189190.2
1476.258, 188728.5
1478.187, 188483.0
1480.115, 188271.5
1482.043, 187994.1
1483.972, 187755.3
1485.900, 187587.0
1487.829, 187330.9
1489.757, 186985.2
1491.686, 186658.6
1493.614, 186314.3
1495.543, 185790.3
1497.471, 185225.7
1499.400, 184757.5
1501.328, 184371.8
1503.257, 184093.0
1505.185, 183782.4
1507.114, 183394.8
1509.042, 182968.8
1510.970, 182509.0
1512.899, 182193.8
1514.827, 181958.7
1516.756, 181456.5
1518.684, 181252.5
1520.613, 180766.2
1522.541, 180662.1
1524.470, 180432.0
1526.398, 180041.2
1528.327, 179410.2
1530.255, 178948.8
1532.184, 178704.5
1534.112, 178344.5
1536.041, 177902.6
1537.969, 177593.2
1539.897, 177318.4
1541.826, 176881.5
1543.754, 176471.4
1545.683, 176284.5
1547.611, 176021.8
1549.540, 175521.1
1551.468, 175121.0
1553.397, 174834.4
1555.325, 174584.5
1557.254, 174321.0
1559.182, 173846.4
1561.111, 173337.3
1563.039, 173041.4
1564.968, 172754.2
1566.896, 172345.5
1568.824, 171948.6
1570.753, 171564.0
1572.681, 171250.8
1574.610, 170992.4
1576.538, 170576.7
1578.467, 170094.4
1580.395, 169825.7
1582.324, 169551.4
1584.252, 169040.1
1586.181, 168640.5
1588.109, 168572.8
1590.038, 168337.8
1591.966, 167830.0
1593.895, 167418.8
1595.823, 167056.5
1597.751, 166480.5
1599.680, 166215.1
1601.608, 165735.9
1603.537, 165571.4
1605.465, 165270.7
1607.394, 164924.4
1609.322, 164542.4
1611.251, 164143.1
1613.179, 163746.1
1615.108, 163505.7
1617.036, 163287.6
1618.965, 162867.9
1620.893, 162401.5
1622.822, 161965.9
1624.750, 161536.0
1626.678, 161091.0
1628.607, 160757.2
1630.535, 160500.5
1632.464, 160050.4
1634.392, 159608.1
1636.321, 159684.9
1638.249, 159657.5
1640.178, 158983.0
1642.106, 158417.2
1644.035, 158125.5
1645.963, 157743.1
1647.892, 157292.4
1649.820, 157018.8
1651.749, 156829.7
1653.677, 156632.1
1655.605, 156361.1
1657.534, 156047.7
1659.462, 155506.4
1661.391, 155283.8
1663.319, 154904.6
1665.248, 154417.8
1667.176, 154096.0
1669.105, 153788.3
1671.033, 153268.8
1672.962, 152792.6
1674.890, 152459.3
1676.819, 152229.0
1678.747, 152094.3
1680.676, 151920.4
1682.604, 151689.5
1684.532, 151372.3
1686.461, 150983.1
1688.389, 150508.6
1690.318, 150074.6
1692.246, 149732.7
1694.175, 149441.8
1696.103, 149190.6
1698.032, 148837.6
1699.960, 148486.2
1701.889, 148401.5
1703.817, 148227.3
1705.746, 147730.7
1707.674, 147360.6
1709.603, 147202.5
1711.531, 146885.8
1713.459, 146441.6
1715.388, 145969.3
1717.316, 145512.2
1719.245, 145108.3
1721.173, 144783.2
1723.102, 144340.6
1725.030, 143908.3
1726.959, 143518.5
1728.887, 142987.3
1730.816, 142520.0
1732.744, 142069.7
1734.673, 141658.5
1736.601, 141255.3
1738.530, 140942.5
1740.458, 140539.5
1742.386, 140266.3
1744.315, 139999.5
1746.243, 139473.1
1748.172, 138900.3
1750.100, 138356.9
1752.029, 137937.6
1753.957, 137657.6
1755.886, 137294.5
1757.814, 136851.1
1759.743, 136312.5
1761.671, 135788.2
1763.600, 135358.4
1765.528, 134983.6
1767.457, 134498.3
1769.385, 134232.9
1771.313, 133675.3
1773.242, 133319.4
1775.170, 133039.0
1777.099, 132752.0
1779.027, 132463.9
1780.956, 132189.2
1782.884, 131793.3
1784.813, 131298.5
1786.741, 130763.9
1788.670, 130257.2
1790.598, 129833.7
1792.527, 129464.7
1794.455, 129150.7
1796.384, 128892.7
1798.312, 128645.3
1800.240, 128211.6
1802.169, 127741.8
1804.097, 127343.0
1806.026, 126991.3
1807.954, 126681.3
1809.883, 126380.4
1811.811, 126067.3
1813.740, 125676.5
1815.668, 125278.0
1817.597, 124942.6
1819.525, 124583.0
1821.454, 124187.6
1823.382, 123786.6
1825.311, 123400.3
1827.239, 123106.6
1829.167, 122768.2
1831.096, 122284.9
1833.024, 121697.5
1834.953, 121028.9
1836.881, 120581.8
1838.810, 120281.5
1840.738, 120074.1
1842.667, 119790.2
1844.595, 119301.6
1846.524, 118804.0
1848.452, 118312.0
1850.381, 117944.6
1852.309, 117566.3
1854.238, 116945.5
1856.166, 116420.1
1858.094, 116150.6
1860.023, 115883.5
1861.951, 115602.9
1863.880, 115252.0
1865.808, 114831.9
1867.737, 114465.3
1869.665, 114050.5
1871.594, 113588.7
1873.522, 113158.0
1875.451, 112630.0
1877.379, 112050.4
1879.308, 111665.9
1881.236, 111289.9
1883.165, 110993.8
1885.093, 110757.0
1887.021, 110523.4
1888.950, 110385.6
1890.878, 110077.8
1892.807, 109715.7
1894.735, 109311.6
1896.664, 108980.7
1898.592, 108691.0
1900.521, 108402.8
1902.449, 108079.6
1904.378, 107715.3
1906.306, 107330.3
1908.235, 106928.2
1910.163, 106417.4
1912.092, 105950.9
1914.020, 105709.7
1915.948, 105547.5
1917.877, 105429.8
1919.805, 105099.9
1921.734, 104658.0
1923.662, 104282.2
1925.591, 103971.5
1927.519, 103589.5
1929.448, 103257.5
1931.376, 102946.3
1933.305, 102620.0
1935.233, 102363.6
1937.162, 102139.6
1939.090, 101940.3
1941.019, 101757.1
1942.947, 101309.2
1944.875, 100781.1
1946.804, 100391.5
1948.732, 100076.0
1950.661, 99883.53
1952.589, 99396.91
1954.518, 99117.83
1956.446, 98590.76
1958.375, 98377.82
1960.303, 97951.71
1962.232, 97523.89
1964.160, 97113.44
1966.089, 96746.59
1968.017, 96412.75
1969.946, 96113.38
1971.874, 95799.23
1973.802, 95459.24
1975.731, 95032.38
1977.659, 94600.12
1979.588, 94270.75
1981.516, 93894.23
1983.445, 93443.71
1985.373, 93159.99
1987.302, 92894.67
1989.230, 92329.93
1991.159, 91835.02
1993.087, 91506.27
1995.016, 91121.86
1996.944, 90670.73
1998.873, 90334.19
2000.801, 89628.45
2002.729, 89515.24
2004.658, 89159.45
2006.586, 88598.28
2008.515, 87981.00
2010.443, 87459.14
2012.372, 87134.85
2014.300, 86813.28
2016.229, 86477.37
2018.157, 86157.06
2020.086, 85767.06
2022.014, 85208.18
2023.943, 84629.77
2025.871, 84099.19
2027.800, 84000.98
2029.728, 83898.09
2031.656, 83447.66
2033.585, 82931.77
2035.513, 82391.29
2037.442, 81919.51
2039.370, 81531.98
2041.299, 81316.02
2043.227, 80928.16
2045.156, 80369.96
2047.084, 79924.56
2049.013, 79520.25
2050.941, 79115.34
2052.870, 78696.31
2054.798, 78274.05
2056.727, 77881.87
2058.655, 77474.17
2060.583, 77114.42
2062.512, 76690.17
2064.440, 76350.60
2066.369, 75979.31
2068.297, 75585.80
2070.226, 75170.00
2072.154, 74826.36
2074.083, 74553.83
2076.011, 74258.56
2077.940, 73928.83
2079.868, 73539.38
2081.797, 73162.85
2083.725, 72808.06
2085.654, 72510.96
2087.582, 72197.66
2089.510, 71825.82
2091.439, 71469.23
2093.367, 71144.51
2095.296, 70884.08
2097.224, 70600.54
2099.153, 70251.21
2101.081, 69788.04
2103.010, 69289.00
2104.938, 68948.13
2106.867, 68646.39
2108.795, 68346.92
2110.724, 67966.45
2112.652, 67678.42
2114.581, 67304.93
2116.509, 67041.02
2118.438, 66749.61
2120.366, 66420.47
2122.294, 66043.34
2124.223, 65565.22
2126.151, 65169.48
2128.080, 64893.08
2130.008, 64667.77
2131.937, 64447.89
2133.865, 64209.08
2135.794, 63886.06
2137.722, 63493.59
2139.651, 63161.42
2141.579, 62875.98
2143.508, 62636.46
2145.436, 62384.75
2147.365, 62095.21
2149.293, 61631.77
2151.221, 61271.05
2153.150, 61122.13
2155.078, 60953.79
2157.007, 60714.31
2158.935, 60501.77
2160.864, 60181.02
2162.792, 59904.24
2164.721, 59487.91
2166.649, 58970.19
2168.578, 58601.39
2170.506, 58401.36
2172.435, 58320.73
2174.363, 58144.87
2176.292, 57879.89
2178.220, 57508.82
2180.148, 57167.63
2182.077, 56870.27
2184.005, 56659.04
2185.934, 56410.16
2187.862, 56098.27
2189.791, 55834.42
2191.719, 55568.62
2193.648, 55225.30
2195.576, 54881.56
2197.505, 54574.18
2199.433, 54541.33
2201.362, 54458.32
2203.290, 54075.60
2205.219, 53748.32
2207.147, 53473.13
2209.075, 53234.05
2211.004, 53034.52
2212.932, 52877.01
2214.861, 52681.62
2216.789, 52393.97
2218.718, 51936.02
2220.646, 51567.23
2222.575, 51316.93
2224.503, 51269.46
2226.432, 51209.94
2228.360, 51057.61
2230.289, 50814.38
2232.217, 50511.87
2234.146, 50167.14
2236.074, 49883.56
2238.002, 49665.03
2239.931, 49431.06
2241.859, 49158.38
2243.788, 48828.95
2245.716, 48681.26
2247.645, 48583.61
2249.573, 48255.08
2251.502, 48072.22
2253.430, 48026.30
2255.359, 47659.85
2257.287, 47277.14
2259.216, 47063.43
2261.144, 46945.30
2263.073, 46816.51
2265.001, 46452.86
2266.929, 46175.97
2268.858, 46012.54
2270.786, 45677.35
2272.715, 45394.70
2274.643, 45388.68
2276.572, 45156.06
2278.500, 44845.27
2280.429, 44749.32
2282.357, 44599.19
2284.286, 44353.72
2286.214, 44079.30
2288.143, 43830.17
2290.071, 43654.70
2292.000, 43419.18
2293.928, 43175.29
2295.856, 43013.25
2297.785, 42825.80
2299.713, 42597.41
2301.642, 42333.54
2303.570, 42063.77
2305.499, 41797.28
2307.427, 41578.05
2309.356, 41387.45
2311.284, 41202.80
2313.213, 41071.91
2315.141, 40954.38
2317.070, 40671.78
2318.998, 40402.80
2320.927, 40199.27
2322.855, 40027.48
2324.783, 39840.36
2326.712, 39639.05
2328.640, 39407.76
2330.569, 39243.84
2332.497, 39031.15
2334.426, 38843.18
2336.354, 38692.56
2338.283, 38490.56
2340.211, 38456.73
2342.140, 38146.96
2344.068, 38006.56
2345.997, 37880.63
2347.925, 37554.12
2349.854, 37251.80
2351.782, 37029.05
2353.710, 37015.11
2355.639, 36946.27
2357.567, 36771.55
2359.496, 36505.75
2361.424, 36281.45
2363.353, 36196.03
2365.281, 36080.48
2367.210, 35937.62
2369.138, 35775.60
2371.067, 35577.85
2372.995, 35373.69
2374.924, 35250.57
2376.852, 35089.22
2378.781, 34874.35
2380.709, 34752.16
2382.637, 34657.88
2384.566, 34561.30
2386.494, 34280.81
2388.423, 34009.70
2390.351, 33937.43
2392.280, 33794.52
2394.208, 33600.85
2396.137, 33452.77
2398.065, 33253.64
2399.994, 33009.70
2401.922, 32803.00
2403.851, 32672.86
2405.779, 32615.79
2407.708, 32503.09
2409.636, 32349.21
2411.564, 32169.09
2413.493, 31930.88
2415.421, 31705.43
2417.350, 31597.28
2419.278, 31471.77
2421.207, 31318.65
2423.135, 31108.36
2425.064, 31002.69
2426.992, 30817.98
2428.921, 30740.73
2430.849, 30494.28
2432.778, 30284.35
2434.706, 30118.22
2436.635, 29984.48
2438.563, 29793.77
2440.491, 29708.00
2442.420, 29484.93
2444.348, 29316.61
2446.277, 29216.94
2448.205, 29112.69
2450.134, 28881.80
2452.062, 28711.21
2453.991, 28592.35
2455.919, 28426.64
2457.848, 28292.74
2459.776, 28197.81
2461.705, 28076.79
2463.633, 27964.51
2465.562, 27866.22
2467.490, 27692.79
2469.418, 27513.78
2471.347, 27364.98
2473.275, 27241.96
2475.204, 27092.21
2477.132, 26950.61
2479.061, 26772.28
2480.989, 26668.02
2482.918, 26503.80
2484.846, 26377.78
2486.775, 26213.55
2488.703, 26062.50
2490.632, 25866.51
2492.560, 25685.60
2494.489, 25661.83
2496.417, 25558.42
2498.345, 25370.20
2500.274, 25250.23
2502.202, 25084.72
2504.131, 24871.51
2506.059, 24843.81
2507.988, 24786.74
2509.916, 24622.20
2511.845, 24364.34
2513.773, 24184.21
2515.702, 24194.29
2517.630, 24087.09
2519.559, 23965.26
2521.487, 23906.78
2523.416, 23727.42
2525.344, 23560.35
2527.272, 23529.35
2529.201, 23355.43
2531.129, 23177.07
2533.058, 23148.09
2534.986, 23096.77
2536.915, 23008.63
2538.843, 22882.62
2540.772, 22725.94
2542.700, 22593.02
2544.629, 22598.09
2546.557, 22492.74
2548.486, 22324.14
2550.414, 22265.98
2552.343, 22123.56
2554.271, 21949.30
2556.199, 21967.51
2558.128, 21860.54
2560.056, 21645.08
2561.985, 21495.72
2563.913, 21381.98
2565.842, 21272.40
2567.770, 21084.22
2569.699, 20936.69
2571.627, 20846.62
2573.556, 20702.80
2575.484, 20608.69
2577.413, 20490.15
2579.341, 20406.32
2581.270, 20311.53
2583.198, 20185.37
2585.126, 20096.50
2587.055, 20034.23
2588.983, 19978.21
2590.912, 19877.68
2592.840, 19791.14
2594.769, 19667.26
2596.697, 19558.59
2598.626, 19404.96
2600.554, 19305.18
2602.483, 19153.87
2604.411, 19077.05
2606.340, 18980.23
2608.268, 18850.83
2610.197, 18702.04
2612.125, 18548.89
2614.053, 18453.32
2615.982, 18371.68
2617.910, 18292.44
2619.839, 18232.31
2621.767, 18149.52
2623.696, 18034.01
2625.624, 17886.83
2627.553, 17745.65
2629.481, 17619.64
2631.410, 17494.85
2633.338, 17409.86
2635.267, 17349.88
2637.195, 17243.94
2639.124, 17158.38
2641.052, 17087.59
2642.980, 16976.99
2644.909, 16916.13
2646.837, 16870.90
2648.766, 16724.34
2650.694, 16595.95
2652.623, 16510.64
2654.551, 16506.09
2656.480, 16422.92
2658.408, 16269.98
2660.337, 16063.85
2662.265, 15995.26
2664.194, 15969.94
2666.122, 15845.84
2668.051, 15773.91
2669.979, 15713.00
2671.907, 15607.20
2673.836, 15524.86
2675.764, 15454.84
2677.693, 15382.65
2679.621, 15341.21
2681.550, 15273.43
2683.478, 15150.09
2685.407, 15114.56
2687.335, 15012.55
2689.264, 14792.65
2691.192, 14682.07
2693.121, 14600.06
2695.049, 14508.00
2696.978, 14431.80
2698.906, 14354.52
2700.834, 14287.87
2702.763, 14210.59
2704.691, 14128.08
2706.620, 14059.21
2708.548, 14056.85
2710.477, 13885.30
2712.405, 13831.66
2714.334, 13640.78
2716.262, 13627.54
2718.191, 13581.00
2720.119, 13477.09
2722.048, 13367.00
2723.976, 13281.42
2725.905, 13249.95
2727.833, 13236.11
2729.761, 13166.63
2731.690, 13110.11
2733.618, 12980.87
2735.547, 12944.77
2737.475, 12818.01
2739.404, 12705.26
2741.332, 12625.64
2743.261, 12569.88
2745.189, 12485.11
2747.118, 12417.95
2749.046, 12360.90
2750.975, 12284.48
2752.903, 12231.40
2754.832, 12156.04
2756.760, 12001.39
2758.688, 11863.20
2760.617, 11777.81
2762.545, 11755.72
2764.474, 11677.54
2766.402, 11552.68
2768.331, 11416.24
2770.259, 11429.25
2772.188, 11419.74
2774.116, 11342.61
2776.045, 11172.43
2777.973, 11147.06
2779.902, 11173.80
2781.830, 11015.73
2783.759, 10992.95
2785.687, 10998.58
2787.615, 10903.64
2789.544, 10802.48
2791.472, 10723.19
2793.401, 10676.24
2795.329, 10527.40
2797.258, 10477.23
2799.186, 10515.92
2801.115, 10411.64
2803.043, 10316.47
2804.972, 10247.93
2806.900, 10168.85
2808.829, 10121.11
2810.757, 10046.61
2812.686, 9993.940
2814.614, 9946.785
2816.542, 9900.135
2818.471, 9844.072
2820.399, 9779.117
2822.328, 9709.416
2824.256, 9625.045
2826.185, 9549.811
2828.113, 9471.392
2830.042, 9354.299
2831.970, 9321.446
2833.899, 9252.515
2835.827, 9196.375
2837.756, 9164.966
2839.684, 9033.854
2841.613, 8951.537
2843.541, 8918.270
2845.469, 8823.617
2847.398, 8814.642
2849.326, 8804.871
2851.255, 8639.277
2853.183, 8604.307
2855.112, 8579.978
2857.040, 8502.855
2858.969, 8371.310
2860.897, 8286.749
2862.826, 8260.626
2864.754, 8275.627
2866.683, 8219.082
2868.611, 8154.335
2870.540, 8150.069
2872.468, 8053.645
2874.396, 7948.407
2876.325, 7880.795
2878.253, 7808.772
2880.182, 7817.838
2882.110, 7702.715
2884.039, 7725.667
2885.967, 7695.645
2887.896, 7626.554
2889.824, 7544.352
2891.753, 7485.836
2893.681, 7418.515
2895.610, 7344.704
2897.538, 7302.404
2899.467, 7240.825
2901.395, 7183.472
2903.323, 7159.958
2905.252, 7125.051
2907.180, 7068.360
2909.109, 6993.576
2911.037, 6913.298
2912.966, 6869.474
2914.894, 6854.802
2916.823, 6777.927
2918.751, 6771.580
2920.680, 6682.704
2922.608, 6669.688
2924.537, 6670.858
2926.465, 6618.043
2928.394, 6540.973
2930.322, 6498.130
2932.250, 6495.487
2934.179, 6464.965
2936.107, 6383.237
2938.036, 6436.540
2939.964, 6351.683
2941.893, 6211.894
2943.821, 6247.165
2945.750, 6222.706
2947.678, 6129.476
2949.607, 6121.839
2951.535, 6037.642
2953.464, 6018.695
2955.392, 5944.596
2957.321, 5888.031
2959.249, 5827.664
2961.177, 5792.892
2963.106, 5792.031
2965.034, 5801.686
2966.963, 5766.577
2968.891, 5700.741
2970.820, 5633.494
2972.748, 5603.645
2974.677, 5578.059
2976.605, 5535.778
2978.534, 5438.586
2980.462, 5409.158
2982.391, 5382.779
2984.319, 5248.995
2986.248, 5254.547
2988.176, 5248.877
2990.104, 5187.738
2992.033, 5100.751
2993.961, 5079.962
2995.890, 5097.355
2997.818, 5116.545
2999.747, 5038.610
3001.675, 4982.406
3003.604, 4942.345
3005.532, 4848.775
3007.461, 4874.857
3009.389, 4846.990
3011.318, 4717.766
3013.246, 4735.051
3015.175, 4708.607
3017.103, 4656.840
3019.031, 4630.112
3020.960, 4561.034
3022.888, 4535.963
3024.817, 4542.119
3026.745, 4473.785
3028.674, 4458.106
3030.602, 4438.849
3032.531, 4386.753
3034.459, 4369.803
3036.388, 4342.676
3038.316, 4296.226
3040.245, 4219.571
3042.173, 4263.149
3044.102, 4213.490
3046.030, 4098.801
3047.958, 4133.110
3049.887, 4104.487
3051.815, 4065.449
3053.744, 4048.437
3055.672, 4008.016
3057.601, 3926.444
3059.529, 3848.222
3061.458, 3812.781
3063.386, 3836.783
3065.315, 3839.058
3067.243, 3813.092
3069.172, 3782.907
3071.100, 3768.149
3073.029, 3742.232
3074.957, 3702.526
3076.885, 3669.791
3078.814, 3663.439
3080.742, 3653.264
3082.671, 3624.059
3084.599, 3578.205
3086.528, 3597.375
3088.456, 3619.108
3090.385, 3578.170
3092.313, 3496.943
3094.242, 3448.420
3096.170, 3435.076
3098.099, 3388.715
3100.027, 3387.310
3101.956, 3353.423
3103.884, 3356.534
3105.813, 3360.380
3107.741, 3293.011
3109.669, 3250.883
3111.598, 3253.182
3113.526, 3223.594
3115.455, 3206.027
3117.383, 3194.607
3119.312, 3171.091
3121.240, 3152.029
3123.169, 3132.691
3125.097, 3085.409
3127.026, 3003.344
3128.954, 3006.786
3130.883, 2974.372
3132.811, 2944.079
3134.740, 2960.089
3136.668, 2973.790
3138.596, 2969.145
3140.525, 2959.271
3142.453, 2957.641
3144.382, 2889.502
3146.310, 2887.463
3148.239, 2893.259
3150.167, 2788.939
3152.096, 2813.194
3154.024, 2812.823
3155.953, 2767.552
3157.881, 2785.695
3159.810, 2770.362
3161.738, 2773.615
3163.667, 2757.338
3165.595, 2734.788
3167.523, 2701.813
3169.452, 2675.555
3171.380, 2646.646
3173.309, 2572.806
3175.237, 2579.481
3177.166, 2548.965
3179.094, 2497.299
3181.023, 2501.069
3182.951, 2519.543
3184.880, 2503.110
3186.808, 2499.670
3188.737, 2491.071
3190.665, 2464.190
3192.594, 2451.468
3194.522, 2418.813
3196.450, 2374.494
3198.379, 2321.287
3200.307, 2318.322
3202.236, 2279.405
3204.164, 2280.874
3206.093, 2244.898
3208.021, 2236.533
3209.950, 2238.482
3211.878, 2224.457
3213.807, 2241.773
3215.735, 2229.419
3217.664, 2208.258
3219.592, 2219.755
3221.521, 2208.025
3223.449, 2157.823
3225.377, 2214.566
3227.306, 2144.643
3229.234, 2162.076
3231.163, 2149.756
3233.091, 2140.452
3235.020, 2153.409
3236.948, 2032.423
3238.877, 1978.180
3240.805, 1976.593
3242.734, 1988.714
3244.662, 1963.972
3246.591, 1982.897
3248.519, 1973.158
3250.448, 1919.432
3252.376, 1872.562
3254.304, 1894.058
3256.233, 1869.000
3258.161, 1823.420
3260.090, 1876.403
3262.018, 1871.773
3263.947, 1858.672
3265.875, 1842.818
3267.804, 1833.266
3269.732, 1804.872
3271.661, 1802.014
3273.589, 1788.976
3275.518, 1761.865
3277.446, 1762.478
3279.375, 1772.646
3281.303, 1793.590
3283.231, 1813.013
3285.160, 1788.852
3287.088, 1774.119
3289.017, 1776.264
3290.945, 1791.068
3292.874, 1808.928
3294.802, 1774.544
3296.731, 1808.329
3298.659, 1852.229
3300.588, 1829.818
3302.516, 1805.718
3304.445, 1826.926
3306.373, 1810.146
3308.302, 1813.349
3310.230, 1814.108
3312.158, 1817.835
3314.087, 1827.083
3316.015, 1831.107
3317.944, 1861.128
3319.872, 1834.449
3321.801, 1860.937
3323.729, 1872.091
3325.658, 1804.891
3327.586, 1764.893
3329.515, 1816.480
3331.443, 1825.066
3333.372, 1776.418
3335.300, 1792.402
3337.229, 1760.249
3339.157, 1743.635
3341.085, 1758.779
3343.014, 1795.265
3344.942, 1804.970
3346.871, 1783.825
3348.799, 1753.910
3350.728, 1735.551
3352.656, 1744.771
3354.585, 1729.918
3356.513, 1748.795
3358.442, 1766.842
3360.370, 1741.652
3362.299, 1755.494
3364.227, 1759.553
3366.156, 1745.714
3368.084, 1717.858
3370.012, 1679.340
3371.941, 1689.057
3373.869, 1685.855
3375.798, 1676.736
3377.726, 1674.641
3379.655, 1673.633
3381.583, 1608.072
3383.512, 1657.349
3385.440, 1687.630
3387.369, 1644.349
3389.297, 1604.342
3391.226, 1591.382
3393.154, 1582.952
3395.083, 1564.252
3397.011, 1547.974
3398.939, 1541.681
3400.868, 1507.547
3402.796, 1493.641
3404.725, 1485.398
3406.653, 1471.346
3408.582, 1465.941
3410.510, 1468.031
3412.439, 1446.338
3414.367, 1448.919
3416.296, 1422.352
3418.224, 1436.621
3420.153, 1441.559
3422.081, 1425.475
3424.010, 1421.830
3425.938, 1343.974
3427.866, 1375.985
3429.795, 1377.573
3431.723, 1324.826
3433.652, 1354.179
3435.580, 1361.126
3437.509, 1322.553
3439.437, 1287.146
3441.366, 1298.932
3443.294, 1270.484
3445.223, 1265.264
3447.151, 1250.059
3449.080, 1236.073
3451.008, 1255.644
3452.937, 1242.120
3454.865, 1220.188
3456.793, 1208.983
3458.722, 1194.060
##END=



