##NAMES=Bohmite
##RRUFFID=R120133
##IDEAL CHEMISTRY=AlO(OH)
##LOCALITY=Maglio-Pornaro, Tretto di Schio, Vicenza, Italy
##OWNER=RRUFF
##SOURCE=Ivano Rocchetti
##DESCRIPTION=
##STATUS=The identification of this mineral is not yet confirmed
##URL=https://www.rruff.net/odr/rruff_sample/R120133
##FILETYPE=Raman Processed
##RAMAN WAVELENGTH=780

126.4802, 88.34109
128.4087, 86.87983
130.3372, 84.63657
132.2656, 82.98949
134.1941, 82.57555
136.1226, 82.10992
138.0510, 81.53509
139.9795, 80.61104
141.9080, 78.94611
143.8364, 76.58578
145.7649, 74.70364
147.6934, 73.43089
149.6218, 72.57701
151.5503, 72.42207
153.4788, 72.43917
155.4072, 72.23422
157.3357, 71.82624
159.2642, 71.36466
161.1926, 70.86879
163.1211, 70.29293
165.0496, 69.45095
166.9780, 68.71098
168.9065, 68.28088
170.8350, 68.12453
172.7634, 68.16566
174.6919, 68.74239
176.6204, 68.86829
178.5488, 68.30489
180.4773, 67.57567
182.4058, 66.86131
184.3342, 66.19021
186.2627, 65.58836
188.1912, 64.99803
190.1196, 64.78479
192.0481, 65.21828
193.9766, 65.54127
195.9050, 65.34348
197.8335, 64.95234
199.7620, 64.69357
201.6904, 64.57181
203.6189, 64.16105
205.5474, 63.30261
207.4758, 62.64754
209.4043, 62.35422
211.3328, 62.36481
213.2612, 62.67519
215.1897, 63.25292
217.1182, 63.99539
219.0466, 64.90329
220.9751, 65.98493
222.9036, 67.72533
224.8320, 68.77007
226.7605, 68.26462
228.6890, 66.98318
230.6174, 65.92533
232.5459, 65.09340
234.4744, 64.11254
236.4028, 62.75843
238.3313, 61.94768
240.2598, 62.02285
242.1882, 62.71788
244.1167, 63.97607
246.0452, 65.75385
247.9736, 67.78918
249.9021, 70.02920
251.8306, 73.17992
253.7590, 78.94456
255.6875, 83.07001
257.6160, 83.72368
259.5444, 82.30842
261.4729, 79.91992
263.4014, 76.78249
265.3298, 73.93586
267.2583, 71.43787
269.1868, 69.23637
271.1152, 67.26794
273.0437, 65.63614
274.9722, 64.51650
276.9006, 63.72859
278.8291, 62.90660
280.7576, 62.07125
282.6860, 61.59017
284.6145, 61.64416
286.5430, 61.81777
288.4714, 62.29126
290.3999, 62.58806
292.3284, 62.13504
294.2568, 61.34004
296.1853, 60.99818
298.1138, 61.16020
300.0422, 61.37822
301.9707, 61.61921
303.8992, 61.87695
305.8276, 62.02733
307.7561, 62.30074
309.6846, 62.96668
311.6130, 63.88924
313.5415, 64.77905
315.4700, 65.57722
317.3984, 66.54530
319.3269, 67.26472
321.2554, 68.73030
323.1838, 70.42711
325.1123, 73.71134
327.0408, 79.25620
328.9692, 87.16859
330.8977, 98.29758
332.8262, 114.0431
334.7546, 129.3949
336.6831, 147.4697
338.6116, 160.7649
340.5400, 159.2473
342.4685, 159.9683
344.3970, 162.9680
346.3254, 178.3302
348.2539, 233.2276
350.1824, 308.1439
352.1108, 496.9940
354.0393, 787.6136
355.9678, 1212.823
357.8962, 1998.317
359.8247, 2675.473
361.7532, 2982.931
363.6816, 2948.821
365.6101, 2573.639
367.5386, 1768.762
369.4670, 1131.215
371.3955, 666.6100
373.3240, 344.4175
375.2524, 210.1006
377.1809, 149.6220
379.1094, 115.2738
381.0378, 97.99809
382.9663, 85.45904
384.8948, 77.76717
386.8232, 72.16197
388.7517, 68.86296
390.6802, 66.36471
392.6086, 64.58477
394.5371, 63.18529
396.4656, 62.18705
398.3940, 61.31126
400.3225, 60.15428
402.2510, 58.86950
404.1794, 58.32389
406.1079, 58.55327
408.0364, 58.08720
409.9648, 56.32160
411.8933, 54.91843
413.8218, 54.60759
415.7502, 54.63031
417.6787, 54.82262
419.6072, 54.94469
421.5356, 54.33561
423.4641, 53.18977
425.3926, 52.76184
427.3210, 53.24665
429.2495, 53.65414
431.1780, 53.46271
433.1064, 53.60762
435.0349, 54.24717
436.9634, 55.44767
438.8918, 57.28435
440.8203, 59.74730
442.7488, 62.99498
444.6772, 66.93187
446.6057, 70.41386
448.5342, 73.63073
450.4626, 75.45329
452.3911, 75.57699
454.3196, 74.53255
456.2480, 71.43333
458.1765, 68.16110
460.1050, 66.26524
462.0334, 65.73989
463.9619, 66.79879
465.8904, 69.46571
467.8188, 72.61916
469.7473, 75.65117
471.6758, 80.21774
473.6042, 85.04529
475.5327, 93.25211
477.4612, 102.6992
479.3896, 119.2090
481.3181, 142.0020
483.2466, 177.7490
485.1750, 240.8403
487.1035, 331.5435
489.0320, 449.7689
490.9604, 649.6207
492.8889, 787.3515
494.8174, 870.2976
496.7458, 875.5172
498.6743, 753.0595
500.6028, 591.3051
502.5313, 434.2013
504.4597, 294.9100
506.3882, 200.5988
508.3167, 151.2228
510.2451, 116.5279
512.1736, 101.6596
514.1021, 89.87379
516.0305, 81.83967
517.9590, 75.24209
519.8875, 69.68482
521.8159, 65.03967
523.7444, 61.30056
525.6729, 58.33254
527.6013, 56.17434
529.5298, 54.69251
531.4583, 53.35544
533.3867, 52.16445
535.3152, 51.22391
537.2437, 50.59798
539.1721, 49.97265
541.1006, 49.30492
543.0291, 48.59017
544.9575, 47.80444
546.8860, 46.98596
548.8145, 45.93813
550.7429, 45.01131
552.6714, 44.91570
554.5999, 45.45869
556.5283, 45.46232
558.4568, 44.93104
560.3853, 44.65368
562.3137, 44.79747
564.2422, 44.69146
566.1707, 43.98925
568.0991, 43.33648
570.0276, 42.88808
571.9561, 42.65062
573.8845, 42.70451
575.8130, 42.92078
577.7415, 43.18096
579.6699, 43.44035
581.5984, 43.48089
583.5269, 43.32842
585.4553, 43.43691
587.3838, 43.93631
589.3123, 44.24023
591.2407, 44.22471
593.1692, 43.99480
595.0977, 43.41296
597.0261, 42.84250
598.9546, 42.41642
600.8831, 42.15514
602.8115, 42.22364
604.7400, 42.41096
606.6685, 42.21750
608.5969, 41.75010
610.5254, 41.58039
612.4539, 41.77079
614.3823, 41.95322
616.3108, 41.90542
618.2393, 42.23069
620.1677, 43.19426
622.0962, 44.24292
624.0247, 45.07591
625.9531, 46.08836
627.8816, 47.73399
629.8101, 49.53617
631.7385, 51.18657
633.6670, 52.51290
635.5955, 53.10176
637.5239, 52.98023
639.4524, 52.49868
641.3809, 51.45250
643.3093, 50.83909
645.2378, 50.45634
647.1663, 50.89151
649.0947, 52.11477
651.0232, 54.25800
652.9517, 56.91844
654.8801, 61.07603
656.8086, 66.49279
658.7371, 74.57118
660.6655, 85.61067
662.5940, 100.4642
664.5225, 120.8596
666.4509, 146.4214
668.3794, 176.8472
670.3079, 213.4705
672.2363, 242.5197
674.1648, 266.3977
676.0933, 273.6285
678.0217, 260.7641
679.9502, 238.7842
681.8787, 205.7597
683.8071, 173.3044
685.7356, 144.3073
687.6641, 120.3000
689.5925, 102.8288
691.5210, 89.62817
693.4495, 79.38110
695.3779, 71.55676
697.3064, 65.65627
699.2349, 61.39754
701.1633, 57.74911
703.0918, 54.73374
705.0203, 52.44836
706.9487, 50.91473
708.8772, 49.77879
710.8057, 49.06845
712.7341, 48.37533
714.6626, 47.41109
716.5911, 46.98259
718.5195, 47.55003
720.4480, 48.42533
722.3765, 49.27110
724.3049, 50.43612
726.2334, 52.77958
728.1619, 54.95196
730.0903, 55.67819
732.0188, 55.18707
733.9473, 53.63050
735.8757, 51.21733
737.8042, 48.33095
739.7327, 45.17299
741.6611, 42.83447
743.5896, 41.36486
745.5181, 40.40416
747.4465, 39.97886
749.3750, 39.74565
751.3035, 39.75059
753.2319, 39.73313
755.1604, 39.59220
757.0889, 39.51603
759.0173, 39.59865
760.9458, 39.68931
762.8743, 39.75280
764.8027, 39.76344
766.7312, 39.67206
768.6597, 39.55030
770.5881, 39.49702
772.5166, 39.43689
774.4451, 39.20281
776.3735, 38.91355
778.3020, 38.91058
780.2305, 39.10300
782.1589, 38.95930
784.0874, 38.45510
786.0159, 38.10802
787.9443, 38.02016
789.8728, 37.73773
791.8013, 37.09310
793.7297, 36.58963
795.6582, 36.26073
797.5867, 36.01591
799.5151, 35.90746
801.4436, 35.75757
803.3721, 35.51213
805.3005, 35.21694
807.2290, 34.74409
809.1575, 34.44832
811.0859, 34.67756
813.0144, 34.98625
814.9429, 35.19285
816.8713, 35.19080
818.7998, 34.69175
820.7283, 34.06675
822.6567, 33.75737
824.5852, 33.77432
826.5137, 34.39163
828.4421, 35.33287
830.3706, 35.33818
832.2991, 34.53965
834.2275, 34.41516
836.1560, 34.99303
838.0845, 34.95533
840.0129, 34.25106
841.9414, 34.03489
843.8699, 34.45406
845.7983, 34.56918
847.7268, 34.20842
849.6553, 33.83912
851.5837, 33.48406
853.5122, 33.38699
855.4407, 33.77942
857.3691, 34.00772
859.2976, 33.74685
861.2261, 33.50626
863.1545, 33.47945
865.0830, 33.46983
867.0115, 33.41853
868.9399, 33.33295
870.8684, 33.13023
872.7969, 33.00023
874.7253, 33.08202
876.6538, 33.30539
878.5823, 33.81928
880.5107, 34.23876
882.4392, 33.93583
884.3677, 33.37679
886.2961, 33.20236
888.2246, 33.29761
890.1531, 33.52896
892.0815, 33.82669
894.0100, 34.14260
895.9385, 34.36649
897.8669, 33.99174
899.7954, 33.23135
901.7239, 33.17958
903.6523, 33.75654
905.5808, 33.91047
907.5093, 33.60934
909.4377, 33.62093
911.3662, 34.02915
913.2947, 34.18279
915.2231, 33.93712
917.1516, 34.00696
919.0801, 34.71415
921.0085, 34.90437
922.9370, 34.09441
924.8655, 33.68496
926.7939, 33.97857
928.7224, 34.06721
930.6509, 33.66747
932.5793, 33.56316
934.5078, 34.02733
936.4363, 34.39408
938.3647, 34.43425
940.2932, 34.61596
942.2217, 35.20943
944.1501, 35.61569
946.0786, 35.69154
948.0071, 35.41740
949.9355, 34.42961
951.8640, 33.86185
953.7925, 34.46438
955.7209, 35.06446
957.6494, 35.15702
959.5779, 35.03649
961.5063, 34.59596
963.4348, 34.38256
965.3633, 34.99723
967.2917, 35.50874
969.2202, 35.36414
971.1487, 35.01381
973.0771, 34.56974
975.0056, 34.21985
976.9341, 34.08186
978.8625, 34.10295
980.7910, 34.40672
982.7195, 34.65723
984.6479, 34.46543
986.5764, 34.21294
988.5049, 34.38673
990.4333, 34.51659
992.3618, 33.94813
994.2903, 33.30137
996.2188, 33.24508
998.1472, 33.44973
1000.076, 33.64330
1002.004, 33.79918
1003.933, 33.88318
1005.861, 33.91487
1007.790, 33.86924
1009.718, 33.83038
1011.646, 34.03456
1013.575, 34.18658
1015.503, 33.78130
1017.432, 33.19816
1019.360, 32.84023
1021.289, 32.70785
1023.217, 32.90223
1025.146, 33.23581
1027.074, 33.60964
1029.003, 33.83109
1030.931, 33.46236
1032.860, 32.93720
1034.788, 32.75535
1036.717, 32.84591
1038.645, 33.37463
1040.573, 33.88520
1042.502, 33.65965
1044.430, 33.16527
1046.359, 32.88696
1048.287, 32.78935
1050.216, 32.98935
1052.144, 33.19592
1054.073, 32.89300
1056.001, 32.54083
1057.930, 32.79540
1059.858, 33.22332
1061.787, 33.25798
1063.715, 33.23679
1065.644, 33.69882
1067.572, 34.14541
1069.500, 33.81682
1071.429, 33.41510
1073.357, 33.90410
1075.286, 34.42733
1077.214, 33.91767
1079.143, 33.30671
1081.071, 33.66914
1083.000, 34.06833
1084.928, 33.53672
1086.857, 32.89360
1088.785, 32.72794
1090.714, 32.79276
1092.642, 33.14422
1094.571, 33.34350
1096.499, 32.86484
1098.427, 32.43880
1100.356, 32.63168
1102.284, 32.85077
1104.213, 32.82985
1106.141, 32.65110
1108.070, 31.95302
1109.998, 31.70876
1111.927, 32.90381
1113.855, 33.77111
1115.784, 33.45494
1117.712, 33.00855
1119.641, 32.74516
1121.569, 32.43438
1123.498, 31.97114
1125.426, 31.52481
1127.354, 31.00533
1129.283, 30.81085
1131.211, 31.25488
1133.140, 31.44247
1135.068, 31.07474
1136.997, 30.83660
1138.925, 30.82306
1140.854, 31.00232
1142.782, 31.49945
1144.711, 31.58162
1146.639, 31.03199
1148.568, 30.95947
1150.496, 31.54605
1152.425, 31.74104
1154.353, 31.44500
1156.281, 31.40995
1158.210, 31.66729
1160.138, 32.09289
1162.067, 32.64509
1163.995, 32.71535
1165.924, 32.39684
1167.852, 32.45316
1169.781, 32.80250
1171.709, 33.04510
1173.638, 33.23576
1175.566, 33.53474
1177.495, 33.92524
1179.423, 34.64703
1181.352, 35.19844
1183.280, 34.42737
1185.208, 33.33266
1187.137, 33.21521
1189.065, 33.34435
1190.994, 32.99176
1192.922, 32.61439
1194.851, 32.58973
1196.779, 32.58876
1198.708, 32.37071
1200.636, 32.19801
1202.565, 32.14241
1204.493, 32.30407
1206.422, 32.82244
1208.350, 33.30696
1210.279, 33.69981
1212.207, 33.74877
1214.135, 33.24959
1216.064, 33.13577
1217.992, 33.65681
1219.921, 33.92777
1221.849, 33.82420
1223.778, 33.71946
1225.706, 33.64540
1227.635, 33.38769
1229.563, 32.97786
1231.492, 32.88503
1233.420, 33.08205
1235.349, 33.50333
1237.277, 33.98046
1239.206, 33.90585
1241.134, 33.59833
1243.063, 33.71546
1244.991, 33.97729
1246.919, 34.07068
1248.848, 34.00562
1250.776, 33.65895
1252.705, 33.34331
1254.633, 33.21455
1256.562, 33.31245
1258.490, 33.98789
1260.419, 34.33963
1262.347, 33.81407
1264.276, 33.34056
1266.204, 33.05421
1268.133, 32.96724
1270.061, 33.16550
1271.990, 33.26995
1273.918, 33.24409
1275.846, 33.20926
1277.775, 33.17036
1279.703, 33.14738
1281.632, 33.14473
1283.560, 33.17946
1285.489, 33.26004
1287.417, 33.51174
1289.346, 33.74367
1291.274, 33.47457
1293.203, 33.14886
1295.131, 33.17893
1297.060, 33.45056
1298.988, 34.07812
1300.917, 34.56612
1302.845, 34.60474
1304.773, 34.53836
1306.702, 34.45431
1308.630, 34.39178
1310.559, 34.34946
1312.487, 34.38639
1314.416, 34.53405
1316.344, 34.62822
1318.273, 34.65705
1320.201, 34.66720
1322.130, 34.68704
1324.058, 35.04813
1325.987, 35.56166
1327.915, 35.57140
1329.844, 35.44828
1331.772, 35.85688
1333.700, 36.38536
1335.629, 36.73863
1337.557, 36.88124
1339.486, 36.62300
1341.414, 36.44000
1343.343, 36.46834
1345.271, 36.68432
1347.200, 37.17712
1349.128, 37.23692
1351.057, 36.73323
1352.985, 36.81401
1354.914, 37.48286
1356.842, 37.77317
1358.771, 37.75227
1360.699, 37.87061
1362.627, 37.99760
1364.556, 37.71435
1366.484, 37.47344
1368.413, 37.93806
1370.341, 38.48650
1372.270, 38.72926
1374.198, 38.81142
1376.127, 38.59459
1378.055, 38.62008
1379.984, 39.12050
1381.912, 39.49306
1383.841, 39.70483
1385.769, 39.67019
1387.698, 39.41143
1389.626, 39.19330
1391.554, 39.03708
1393.483, 39.00818
1395.411, 39.05316
1397.340, 39.15556
1399.268, 39.20170
1401.197, 38.88424
1403.125, 38.83978
1405.054, 39.79229
1406.982, 40.23394
1408.911, 39.43087
1410.839, 38.90026
1412.768, 38.87107
1414.696, 39.01640
1416.625, 39.32378
1418.553, 39.03494
1420.481, 38.39593
1422.410, 38.21355
1424.338, 38.31253
1426.267, 38.54893
1428.195, 38.77362
1430.124, 38.92443
1432.052, 38.92369
1433.981, 38.61755
1435.909, 38.62260
1437.838, 39.17270
1439.766, 39.41332
1441.695, 39.24034
1443.623, 38.93821
1445.552, 38.57452
1447.480, 38.44362
1449.408, 38.45076
1451.337, 38.44661
1453.265, 38.42936
1455.194, 38.40646
1457.122, 38.34846
1459.051, 38.13652
1460.979, 38.17193
1462.908, 38.64903
1464.836, 38.66665
1466.765, 38.14952
1468.693, 38.04469
1470.622, 38.22979
1472.550, 37.83819
1474.479, 37.25618
1476.407, 37.18794
1478.335, 37.24272
1480.264, 37.00027
1482.192, 36.85857
1484.121, 37.17749
1486.049, 37.26924
1487.978, 36.98386
1489.906, 36.67577
1491.835, 36.36488
1493.763, 35.98843
1495.692, 35.66277
1497.620, 35.84497
1499.549, 36.18738
1501.477, 36.46911
1503.406, 36.41342
1505.334, 35.51530
1507.262, 34.86072
1509.191, 34.88577
1511.119, 34.93972
1513.048, 34.95872
1514.976, 35.25827
1516.905, 35.71565
1518.833, 35.48542
1520.762, 35.03589
1522.690, 35.25695
1524.619, 35.43428
1526.547, 34.92430
1528.476, 34.69757
1530.404, 35.21948
1532.333, 35.52526
1534.261, 35.44756
1536.189, 35.30228
1538.118, 35.13760
1540.046, 35.29464
1541.975, 35.44285
1543.903, 34.83104
1545.832, 34.25207
1547.760, 34.24858
1549.689, 34.42152
1551.617, 34.70467
1553.546, 34.89811
1555.474, 34.97286
1557.403, 34.93321
1559.331, 34.78408
1561.260, 34.49127
1563.188, 34.15179
1565.116, 33.72909
1567.045, 33.57948
1568.973, 34.14796
1570.902, 34.58321
1572.830, 34.78064
1574.759, 34.42116
1576.687, 33.60606
1578.616, 33.25370
1580.544, 33.22137
1582.473, 33.15373
1584.401, 33.22108
1586.330, 33.86908
1588.258, 34.16811
1590.187, 33.39093
1592.115, 33.17254
1594.043, 33.65032
1595.972, 33.53094
1597.900, 33.01683
1599.829, 32.86362
1601.757, 32.90336
1603.686, 33.06061
1605.614, 33.13809
1607.543, 32.95668
1609.471, 32.84949
1611.400, 32.88746
1613.328, 32.93208
1615.257, 32.96609
1617.185, 32.83288
1619.114, 32.65855
1621.042, 32.60369
1622.970, 32.60313
1624.899, 32.67074
1626.827, 32.62367
1628.756, 32.38887
1630.684, 32.14763
1632.613, 31.97701
1634.541, 32.59031
1636.470, 33.31723
1638.398, 33.01464
1640.327, 32.58650
1642.255, 32.44580
1644.184, 32.36084
1646.112, 32.28112
1648.041, 32.34635
1649.969, 32.47847
1651.897, 32.17254
1653.826, 31.79492
1655.754, 31.94901
1657.683, 32.04366
1659.611, 31.74594
1661.540, 31.68822
1663.468, 31.96054
1665.397, 31.67298
1667.325, 31.06584
1669.254, 31.00750
1671.182, 31.24669
1673.111, 31.77419
1675.039, 31.98944
1676.968, 31.54856
1678.896, 31.27023
1680.824, 31.22352
1682.753, 31.45094
1684.681, 31.74811
1686.610, 31.72725
1688.538, 31.57858
1690.467, 31.27878
1692.395, 31.27816
1694.324, 31.81525
1696.252, 31.84914
1698.181, 31.49686
1700.109, 31.71879
1702.038, 31.93579
1703.966, 31.14097
1705.895, 30.65890
1707.823, 31.50970
1709.751, 31.75103
1711.680, 31.20308
1713.608, 30.80740
1715.537, 30.62458
1717.465, 31.08864
1719.394, 31.34811
1721.322, 30.66166
1723.251, 30.25651
1725.179, 30.48859
1727.108, 30.79963
1729.036, 31.07780
1730.965, 30.77134
1732.893, 30.40425
1734.822, 30.46836
1736.750, 30.75577
1738.678, 31.28340
1740.607, 31.32566
1742.535, 30.94219
1744.464, 31.29003
1746.392, 31.70684
1748.321, 31.04327
1750.249, 30.42709
1752.178, 30.26152
1754.106, 30.31508
1756.035, 30.54306
1757.963, 30.90912
1759.892, 31.23908
1761.820, 31.26874
1763.749, 31.07648
1765.677, 30.59060
1767.605, 30.22755
1769.534, 30.05309
1771.462, 30.49613
1773.391, 31.12156
1775.319, 31.03360
1777.248, 30.86601
1779.176, 31.17923
1781.105, 31.04956
1783.033, 30.39886
1784.962, 30.40998
1786.890, 30.70206
1788.819, 30.41198
1790.747, 30.08934
1792.676, 30.11487
1794.604, 30.10752
1796.532, 30.01366
1798.461, 30.17219
1800.389, 30.34735
1802.318, 29.97879
1804.246, 29.56418
1806.175, 29.20828
1808.103, 29.47295
1810.032, 30.43655
1811.960, 30.77024
1813.889, 30.58821
1815.817, 29.75583
1817.746, 29.18412
1819.674, 29.41288
1821.603, 29.31754
1823.531, 28.81779
1825.459, 28.89719
1827.388, 29.18564
1829.316, 29.15442
1831.245, 29.11047
1833.173, 29.18373
1835.102, 28.94470
1837.030, 28.47086
1838.959, 28.36829
1840.887, 28.47048
1842.816, 28.76020
1844.744, 28.78801
1846.673, 28.43169
1848.601, 28.41510
1850.530, 28.61951
1852.458, 28.54313
1854.386, 28.44449
1856.315, 28.57358
1858.243, 28.58520
1860.172, 28.44593
1862.100, 28.34944
1864.029, 28.24953
1865.957, 27.97592
1867.886, 27.80981
1869.814, 27.90678
1871.743, 28.06521
1873.671, 28.24728
1875.600, 28.36421
1877.528, 28.37208
1879.457, 28.09607
1881.385, 28.01636
1883.313, 28.33041
1885.242, 27.96325
1887.170, 27.31356
1889.099, 27.37824
1891.027, 27.60989
1892.956, 27.84703
1894.884, 27.65807
1896.813, 27.09482
1898.741, 27.39423
1900.670, 27.82205
1902.598, 27.56069
1904.527, 27.32921
1906.455, 27.32922
1908.384, 27.62119
1910.312, 28.06471
1912.240, 28.41529
1914.169, 28.49827
1916.097, 28.14790
1918.026, 27.96779
1919.954, 28.01563
1921.883, 28.26423
1923.811, 28.41247
1925.740, 28.00794
1927.668, 27.96649
1929.597, 28.46483
1931.525, 28.30878
1933.454, 28.03599
1935.382, 28.98879
1937.311, 29.56879
1939.239, 29.12754
1941.167, 29.58371
1943.096, 30.63301
1945.024, 30.54967
1946.953, 30.48863
1948.881, 31.50942
1950.810, 31.92967
1952.738, 31.69141
1954.667, 31.53070
1956.595, 31.38888
1958.524, 31.24271
1960.452, 30.88971
1962.381, 30.29888
1964.309, 30.15330
1966.238, 30.28259
1968.166, 30.47038
1970.094, 30.62198
1972.023, 30.79422
1973.951, 30.27487
1975.880, 29.49083
1977.808, 29.69137
1979.737, 29.82725
1981.665, 29.18325
1983.594, 28.97132
1985.522, 29.07395
1987.451, 28.51663
1989.379, 28.23600
1991.308, 29.13523
1993.236, 29.03065
1995.165, 27.92891
1997.093, 27.75183
1999.021, 27.92882
2000.950, 28.17022
2002.878, 27.77535
2004.807, 26.69436
2006.735, 26.54525
2008.664, 26.63575
2010.592, 26.14387
2012.521, 25.95065
2014.449, 26.19095
2016.378, 25.63292
2018.306, 24.97258
2020.235, 25.23798
2022.163, 25.75279
2024.092, 26.35934
2026.020, 26.34346
2027.948, 26.02907
2029.877, 25.81325
2031.805, 25.71320
2033.734, 25.72733
2035.662, 25.70931
2037.591, 25.60934
2039.519, 25.21580
2041.448, 25.09849
2043.376, 25.41122
2045.305, 25.31977
2047.233, 24.98771
2049.162, 24.62844
2051.090, 24.44027
2053.019, 24.50319
2054.947, 24.31279
2056.875, 24.13759
2058.804, 24.57404
2060.732, 24.75810
2062.661, 24.32117
2064.589, 24.38437
2066.518, 24.62191
2068.446, 24.56680
2070.375, 24.41742
2072.303, 24.22150
2074.232, 23.89149
2076.160, 23.77445
2078.089, 24.62070
2080.017, 24.83534
2081.946, 23.93614
2083.874, 23.63385
2085.802, 23.70839
2087.731, 24.05332
2089.659, 24.02063
2091.588, 23.49566
2093.516, 23.45032
2095.445, 23.64178
2097.373, 23.97816
2099.302, 23.76205
2101.230, 23.03698
2103.159, 23.15333
2105.087, 23.47067
2107.016, 23.54158
2108.944, 23.31347
2110.873, 22.92685
2112.801, 23.12396
2114.729, 23.21088
2116.658, 22.69991
2118.586, 22.52256
2120.515, 22.60501
2122.443, 22.55209
2124.372, 22.44212
2126.300, 22.29430
2128.229, 22.26558
2130.157, 22.27614
2132.086, 22.19792
2134.014, 22.02882
2135.943, 21.76737
2137.871, 21.57257
2139.800, 21.43738
2141.728, 21.37057
2143.656, 21.28642
2145.585, 21.17819
2147.513, 21.22469
2149.442, 21.21690
2151.370, 20.97750
2153.299, 20.66562
2155.227, 20.35513
2157.156, 20.21365
2159.084, 20.37162
2161.013, 21.02147
2162.941, 20.82678
2164.870, 20.30448
2166.798, 20.64969
2168.727, 20.75442
2170.655, 20.32373
2172.583, 20.13496
2174.512, 20.16764
2176.440, 20.45844
2178.369, 20.63943
2180.297, 20.63214
2182.226, 20.30220
2184.154, 19.94712
2186.083, 19.69321
2188.011, 19.85683
2189.940, 20.10156
2191.868, 19.47045
2193.797, 19.37952
2195.725, 20.06083
2197.654, 19.60032
2199.582, 18.86841
2201.510, 18.75303
2203.439, 18.92414
2205.367, 19.21246
2207.296, 19.07751
2209.224, 18.97634
2211.153, 19.19118
2213.081, 18.89031
2215.010, 18.51585
2216.938, 19.01276
2218.867, 18.94599
2220.795, 18.18086
2222.724, 17.98873
2224.652, 18.17233
2226.581, 18.86192
2228.509, 18.85783
2230.438, 18.43333
2232.366, 18.32502
2234.294, 18.17191
2236.223, 17.85555
2238.151, 18.02542
2240.080, 18.43201
2242.008, 19.02553
2243.937, 18.62431
2245.865, 17.65853
2247.794, 17.85465
2249.722, 18.04553
2251.651, 17.86152
2253.579, 18.02924
2255.508, 18.21697
2257.436, 18.07150
2259.365, 17.80025
2261.293, 17.55411
2263.221, 17.89259
2265.150, 17.93119
2267.078, 17.41444
2269.007, 17.78885
2270.935, 18.28794
2272.864, 18.00109
2274.792, 17.50297
2276.721, 17.04833
2278.649, 17.25669
2280.578, 17.52805
2282.506, 17.66458
2284.435, 17.74765
2286.363, 17.71665
2288.292, 17.30770
2290.220, 17.58558
2292.148, 18.10924
2294.077, 17.53893
2296.005, 16.83813
2297.934, 16.28825
2299.862, 16.93534
2301.791, 17.47504
2303.719, 16.61254
2305.648, 16.58949
2307.576, 16.98632
2309.505, 16.76407
2311.433, 16.75732
2313.362, 17.08335
2315.290, 17.20815
2317.219, 17.09932
2319.147, 16.72387
2321.075, 16.07416
2323.004, 15.65849
2324.932, 16.16690
2326.861, 16.57596
2328.789, 16.69168
2330.718, 16.25716
2332.646, 15.87896
2334.575, 15.73583
2336.503, 15.69923
2338.432, 15.54989
2340.360, 15.08828
2342.289, 15.20854
2344.217, 15.52778
2346.146, 15.22898
2348.074, 14.96438
2350.002, 14.86610
2351.931, 15.11974
2353.859, 15.23214
2355.788, 15.04248
2357.716, 14.55414
2359.645, 14.21127
2361.573, 14.56504
2363.502, 14.48466
2365.430, 14.29940
2367.359, 14.79722
2369.287, 14.98681
2371.216, 14.73468
2373.144, 13.78681
2375.073, 13.40536
2377.001, 14.11997
2378.929, 14.61081
2380.858, 14.77171
2382.786, 14.37361
2384.715, 14.65574
2386.643, 14.96410
2388.572, 14.20379
2390.500, 14.02374
2392.429, 14.32157
2394.357, 14.02808
2396.286, 13.70953
2398.214, 13.52360
2400.143, 13.60150
2402.071, 13.65386
2404.000, 13.54567
2405.928, 13.38749
2407.856, 13.22389
2409.785, 13.09390
2411.713, 12.81502
2413.642, 12.61110
2415.570, 13.04031
2417.499, 13.34146
2419.427, 13.36551
2421.356, 12.85334
2423.284, 12.59443
2425.213, 12.75925
2427.141, 13.33035
2429.070, 13.48036
2430.998, 12.84206
2432.927, 13.18204
2434.855, 13.65931
2436.783, 13.51238
2438.712, 13.30396
2440.640, 13.10147
2442.569, 13.05568
2444.497, 12.55874
2446.426, 12.00155
2448.354, 12.47423
2450.283, 12.73134
2452.211, 12.63065
2454.140, 12.51151
2456.068, 12.30374
2457.997, 12.02266
2459.925, 12.36513
2461.854, 12.63386
2463.782, 12.48435
2465.710, 12.42900
2467.639, 12.26343
2469.567, 11.82787
2471.496, 11.88912
2473.424, 12.10391
2475.353, 12.10361
2477.281, 12.03404
2479.210, 11.95335
2481.138, 11.90897
2483.067, 11.97903
2484.995, 12.02990
2486.924, 11.52834
2488.852, 11.64128
2490.781, 12.19098
2492.709, 11.70453
2494.637, 11.59525
2496.566, 12.01234
2498.494, 11.93558
2500.423, 11.77270
2502.351, 11.67724
2504.280, 11.66925
2506.208, 11.68887
2508.137, 11.70801
2510.065, 11.75781
2511.994, 11.79280
2513.922, 11.78942
2515.851, 11.64870
2517.779, 11.55612
2519.708, 11.74536
2521.636, 11.69558
2523.564, 11.50914
2525.493, 11.28194
2527.421, 11.02873
2529.350, 10.98855
2531.278, 11.53064
2533.207, 11.56785
2535.135, 11.32095
2537.064, 11.27386
2538.992, 11.18320
2540.921, 11.04359
2542.849, 10.81554
2544.778, 11.09171
2546.706, 11.62506
2548.635, 11.58786
2550.563, 11.45971
2552.491, 11.38695
2554.420, 11.61014
2556.348, 11.82929
2558.277, 11.92462
2560.205, 11.73393
2562.134, 11.31458
2564.062, 10.85888
2565.991, 10.94109
2567.919, 11.20580
2569.848, 11.47527
2571.776, 11.47337
2573.705, 11.35667
2575.633, 11.18317
2577.562, 11.01422
2579.490, 10.65506
2581.418, 10.19374
2583.347, 10.50003
2585.275, 10.78471
2587.204, 10.84218
2589.132, 10.93550
2591.061, 10.84659
2592.989, 10.54628
2594.918, 10.28728
2596.846, 10.10508
2598.775, 10.02819
2600.703, 10.27771
2602.632, 10.37205
2604.560, 10.26477
2606.489, 10.81796
2608.417, 11.05378
2610.345, 10.76672
2612.274, 10.56231
2614.202, 10.25055
2616.131, 9.869410
2618.059, 9.897747
2619.988, 10.05681
2621.916, 10.17825
2623.845, 9.762603
2625.773, 9.792399
2627.702, 10.26595
2629.630, 10.30163
2631.559, 10.22229
2633.487, 10.16080
2635.416, 10.32197
2637.344, 10.30070
2639.272, 10.13813
2641.201, 10.13418
2643.129, 10.25632
2645.058, 10.29719
2646.986, 9.660007
2648.915, 9.578586
2650.843, 9.845082
2652.772, 9.771595
2654.700, 9.592505
2656.629, 9.457005
2658.557, 9.547099
2660.486, 9.666968
2662.414, 9.697999
2664.343, 9.501452
2666.271, 9.561692
2668.199, 9.573400
2670.128, 9.181776
2672.056, 9.434983
2673.985, 9.664083
2675.913, 9.329273
2677.842, 9.604491
2679.770, 9.846235
2681.699, 9.665449
2683.627, 9.391733
2685.556, 9.546707
2687.484, 10.18080
2689.413, 9.778216
2691.341, 9.647052
2693.270, 10.01831
2695.198, 9.373393
2697.126, 9.161800
2699.055, 9.453816
2700.983, 8.958447
2702.912, 8.939667
2704.840, 9.290314
2706.769, 9.119382
2708.697, 9.044026
2710.626, 9.093600
2712.554, 9.159202
2714.483, 9.328497
2716.411, 9.480188
2718.340, 9.531256
2720.268, 9.014188
2722.197, 8.594479
2724.125, 8.873713
2726.053, 8.993742
2727.982, 8.978479
2729.910, 8.847964
2731.839, 8.642419
2733.767, 8.807261
2735.696, 9.303450
2737.624, 8.744665
2739.553, 8.735432
2741.481, 9.283387
2743.410, 9.455432
2745.338, 9.250926
2747.267, 8.898478
2749.195, 8.727715
2751.124, 8.629642
2753.052, 8.640141
2754.980, 8.815978
2756.909, 8.474678
2758.837, 8.176275
2760.766, 8.233378
2762.694, 8.506674
2764.623, 8.874240
2766.551, 9.178850
2768.480, 8.870739
2770.408, 8.620616
2772.337, 8.575024
2774.265, 8.743978
2776.194, 8.942617
2778.122, 9.004729
2780.051, 8.647449
2781.979, 8.750585
2783.907, 8.861587
2785.836, 8.591451
2787.764, 8.560034
2789.693, 8.631102
2791.621, 8.705866
2793.550, 8.467302
2795.478, 8.064076
2797.407, 7.886521
2799.335, 8.922787
2801.264, 9.143098
2803.192, 8.943643
2805.121, 9.011590
2807.049, 8.586706
2808.978, 8.364231
2810.906, 8.652696
2812.834, 8.448823
2814.763, 8.348361
2816.691, 8.458966
2818.620, 8.424717
2820.548, 8.236115
2822.477, 8.059844
2824.405, 8.172223
2826.334, 8.426888
2828.262, 8.640554
2830.191, 8.685688
2832.119, 8.516789
2834.048, 8.112255
2835.976, 7.697009
2837.905, 8.461628
2839.833, 8.838467
2841.761, 8.905697
2843.690, 9.387737
2845.618, 9.128919
2847.547, 8.727398
2849.475, 8.750733
2851.404, 8.492397
2853.332, 8.272688
2855.261, 8.296367
2857.189, 9.157898
2859.118, 9.048977
2861.046, 8.496749
2862.975, 8.648882
2864.903, 8.692107
2866.832, 8.545567
2868.760, 8.261982
2870.688, 8.161490
2872.617, 8.375669
2874.545, 8.755433
2876.474, 8.790469
2878.402, 8.762888
2880.331, 8.788377
2882.259, 8.955000
2884.188, 8.881778
2886.116, 8.897408
2888.045, 9.098460
2889.973, 9.372161
2891.902, 9.095962
2893.830, 8.723889
2895.759, 9.222736
2897.687, 9.562943
2899.615, 9.751109
2901.544, 9.821987
2903.472, 9.478459
2905.401, 9.284589
2907.329, 9.460445
2909.258, 10.30685
2911.186, 10.22293
2913.115, 9.597334
2915.043, 8.895120
2916.972, 9.275702
2918.900, 9.602500
2920.829, 9.636859
2922.757, 9.765415
2924.686, 10.11518
2926.614, 10.26325
2928.542, 9.911764
2930.471, 9.883030
2932.399, 10.42224
2934.328, 11.23992
2936.256, 11.26467
2938.185, 11.30811
2940.113, 11.32252
2942.042, 11.18100
2943.970, 11.24862
2945.899, 11.39007
2947.827, 11.51244
2949.756, 11.37247
2951.684, 12.06513
2953.613, 12.74369
2955.541, 12.48925
2957.469, 12.90307
2959.398, 13.17004
2961.326, 13.16262
2963.255, 13.15952
2965.183, 13.42844
2967.112, 13.82213
2969.040, 14.20723
2970.969, 14.59222
2972.897, 14.76049
2974.826, 14.77526
2976.754, 14.83203
2978.683, 15.33555
2980.611, 15.78707
2982.540, 15.96002
2984.468, 16.59997
2986.396, 16.68536
2988.325, 16.51571
2990.253, 16.74482
2992.182, 17.03584
2994.110, 16.99969
2996.039, 16.72098
2997.967, 16.92307
2999.896, 17.16752
3001.824, 17.57634
3003.753, 18.25942
3005.681, 18.14693
3007.610, 18.22883
3009.538, 18.53534
3011.467, 18.65460
3013.395, 18.21055
3015.323, 18.15828
3017.252, 18.78588
3019.180, 18.48248
3021.109, 18.31214
3023.037, 18.57351
3024.966, 19.38280
3026.894, 19.65836
3028.823, 19.64967
3030.751, 19.75736
3032.680, 20.62010
3034.608, 20.82305
3036.537, 21.23797
3038.465, 22.20265
3040.394, 22.36830
3042.322, 23.56689
3044.250, 25.05819
3046.179, 25.98070
3048.107, 26.76641
3050.036, 28.03386
3051.964, 29.65730
3053.893, 31.11604
3055.821, 33.27301
3057.750, 35.40337
3059.678, 37.25861
3061.607, 38.86926
3063.535, 41.31144
3065.464, 44.25803
3067.392, 47.28319
3069.321, 49.38586
3071.249, 52.29535
3073.177, 54.44888
3075.106, 53.66563
3077.034, 53.52077
3078.963, 53.00604
3080.891, 51.73095
3082.820, 49.52363
3084.748, 47.61199
3086.677, 45.33548
3088.605, 42.72446
3090.534, 40.70302
3092.462, 38.67021
3094.391, 36.39906
3096.319, 33.86680
3098.248, 31.15854
3100.176, 29.35917
3102.104, 27.76847
3104.033, 25.85133
3105.961, 23.95352
3107.890, 22.72304
3109.818, 21.85626
3111.747, 20.91287
3113.675, 19.64957
3115.604, 18.78400
3117.532, 18.27767
3119.461, 17.84859
3121.389, 17.64753
3123.318, 16.70757
3125.246, 15.42519
3127.175, 14.94102
3129.103, 14.33503
3131.031, 13.69749
3132.960, 13.09509
3134.888, 12.52707
3136.817, 12.77265
3138.745, 12.48937
3140.674, 11.62801
3142.602, 11.70785
3144.531, 11.36863
3146.459, 11.21232
3148.388, 11.32502
3150.316, 10.80122
3152.245, 10.27729
3154.173, 10.15827
3156.102, 10.45129
3158.030, 10.67065
3159.958, 10.67149
3161.887, 10.49286
3163.815, 10.22524
3165.744, 10.03670
3167.672, 10.03384
3169.601, 9.851710
3171.529, 9.353562
3173.458, 8.709475
3175.386, 8.709405
3177.315, 8.802395
3179.243, 8.715658
3181.172, 8.983922
3183.100, 9.391333
3185.029, 9.470959
3186.957, 9.079336
3188.885, 8.601968
3190.814, 8.403064
3192.742, 8.421121
3194.671, 8.438902
3196.599, 7.927477
3198.528, 7.718275
3200.456, 7.678664
3202.385, 7.754149
3204.313, 8.168921
3206.242, 8.183246
3208.170, 7.919626
3210.099, 7.667773
3212.027, 7.925265
3213.956, 7.658193
3215.884, 7.398246
3217.813, 7.307320
3219.741, 7.243604
3221.669, 7.417665
3223.598, 7.090741
3225.526, 6.549974
3227.455, 6.564727
3229.383, 6.808571
3231.312, 6.319797
3233.240, 5.521694
3235.169, 5.152905
3237.097, 5.351698
3239.026, 5.282431
3240.954, 4.891963
3242.883, 4.381405
3244.811, 4.820991
3246.740, 4.569827
3248.668, 4.108008
3250.596, 3.786229
3252.525, 2.827181
3254.453, 3.327582
3256.382, 3.715003
3258.310, 3.427850
3260.239, 3.296371
3262.167, 3.232202
3264.096, 3.419842
3266.024, 3.525992
3267.953, 2.957395
3269.881, 2.969494
3271.810, 2.897163
3273.738, 2.900482
3275.667, 3.259968
3277.595, 3.005722
3279.523, 2.666263
3281.452, 2.675298
3283.380, 3.057915
3285.309, 2.919394
3287.237, 2.769081
3289.166, 3.040900
3291.094, 3.365416
3293.023, 2.703853
3294.951, 2.846785
3296.880, 2.660342
3298.808, 2.289119
3300.737, 2.316956
3302.665, 2.843942
3304.594, 2.616312
3306.522, 2.631958
3308.450, 3.190818
3310.379, 2.338688
3312.307, 2.141343
3314.236, 2.348571
3316.164, 2.529913
3318.093, 2.304665
3320.021, 2.114246
3321.950, 2.055869
3323.878, 2.182938
3325.807, 2.435153
3327.735, 2.229776
3329.664, 2.277324
3331.592, 2.470167
3333.521, 2.610271
3335.449, 2.502832
3337.377, 2.401876
3339.306, 2.395720
3341.234, 2.103321
3343.163, 1.315399
3345.091, 1.650339
3347.020, 2.032765
3348.948, 2.258924
3350.877, 2.177430
3352.805, 1.559625
3354.734, 1.769068
3356.662, 2.726917
3358.591, 2.951526
3360.519, 1.739643
3362.448, 2.251312
3364.376, 2.485082
3366.304, 2.350273
3368.233, 2.180197
3370.161, 2.403115
3372.090, 2.253043
3374.018, 2.324334
3375.947, 2.254715
3377.875, 1.832565
3379.804, 1.916710
3381.732, 2.193537
3383.661, 2.144616
3385.589, 1.999899
3387.518, 2.279251
3389.446, 2.355987
3391.375, 2.531444
3393.303, 2.302395
3395.231, 1.763853
3397.160, 1.808230
3399.088, 2.032430
3401.017, 1.948268
3402.945, 1.862119
3404.874, 1.953879
3406.802, 1.488914
3408.731, 1.442925
3410.659, 1.598720
3412.588, 1.708519
3414.516, 1.642594
3416.445, 1.494415
3418.373, 1.659588
3420.302, 1.874770
3422.230, 1.745171
3424.158, 0.8411635
3426.087, 1.402385
3428.015, 1.692350
3429.944, 1.519622
3431.872, 1.301590
3433.801, 1.769521
3435.729, 1.689086
3437.658, 1.916338
3439.586, 1.874536
3441.515, 1.412691
3443.443, 1.798341
3445.372, 1.080118
3447.300, 1.482225
3449.229, 2.084421
3451.157, 1.741733
3453.085, 1.471676
3455.014, 1.345689
3456.942, 1.419420
##END=



