##NAMES=Bonattite
##RRUFFID=R070424
##IDEAL CHEMISTRY=Cu(SO_4_)·3H_2_O
##LOCALITY=Grand Reef mine, Klondyke, Aravaipa District, Graham County, Arizona, USA
##OWNER=RRUFF
##SOURCE=Bob Downs
##DESCRIPTION=Pale blue effluorescence associated with cerussite and malachite
##STATUS=The identification of this mineral is not yet confirmed
##URL=https://www.rruff.net/odr/rruff_sample/R070424
##FILETYPE=Raman RAW
##RAMAN WAVELENGTH=532

179.3117, 12875.61
181.2402, 13165.25
183.1686, 13439.28
185.0971, 13692.84
187.0256, 13914.27
188.9540, 14122.96
190.8825, 14345.72
192.8110, 14601.26
194.7394, 14837.56
196.6679, 15036.47
198.5964, 15182.01
200.5248, 15333.00
202.4533, 15504.38
204.3818, 15675.67
206.3102, 15826.30
208.2387, 15942.38
210.1672, 16049.36
212.0956, 16151.87
214.0241, 16250.59
215.9526, 16347.17
217.8810, 16441.75
219.8095, 16534.02
221.7380, 16622.11
223.6664, 16695.87
225.5949, 16776.98
227.5234, 16873.54
229.4518, 16982.87
231.3803, 17094.96
233.3088, 17223.17
235.2372, 17348.10
237.1657, 17441.92
239.0942, 17482.35
241.0226, 17535.65
242.9511, 17635.78
244.8796, 17783.49
246.8080, 17894.28
248.7365, 17946.35
250.6650, 17973.76
252.5934, 18008.22
254.5219, 18054.06
256.4503, 18094.31
258.3788, 18118.66
260.3073, 18127.39
262.2357, 18151.99
264.1642, 18205.38
266.0927, 18264.17
268.0211, 18312.69
269.9496, 18345.20
271.8781, 18380.67
273.8065, 18431.46
275.7350, 18491.57
277.6635, 18528.36
279.5919, 18521.51
281.5204, 18511.12
283.4489, 18519.72
285.3773, 18565.31
287.3058, 18598.85
289.2343, 18607.72
291.1628, 18603.15
293.0912, 18609.99
295.0197, 18639.04
296.9482, 18667.61
298.8766, 18685.45
300.8051, 18685.76
302.7336, 18692.76
304.6620, 18702.24
306.5905, 18720.67
308.5190, 18755.03
310.4474, 18822.75
312.3759, 18887.56
314.3044, 18934.14
316.2328, 18963.70
318.1613, 19010.03
320.0898, 19091.26
322.0182, 19180.89
323.9467, 19258.28
325.8752, 19318.59
327.8036, 19370.93
329.7321, 19404.49
331.6606, 19427.97
333.5890, 19468.44
335.5175, 19556.85
337.4460, 19639.43
339.3744, 19684.92
341.3029, 19672.02
343.2314, 19668.54
345.1598, 19684.05
347.0883, 19707.41
349.0168, 19730.73
350.9452, 19762.95
352.8737, 19787.29
354.8022, 19796.12
356.7306, 19790.12
358.6591, 19781.79
360.5876, 19767.74
362.5160, 19754.98
364.4445, 19746.30
366.3730, 19738.05
368.3014, 19735.42
370.2299, 19753.81
372.1584, 19786.63
374.0868, 19802.56
376.0153, 19766.24
377.9438, 19746.68
379.8722, 19777.25
381.8007, 19889.85
383.7292, 19966.95
385.6576, 19982.23
387.5861, 19973.95
389.5146, 19984.74
391.4430, 20032.68
393.3715, 20078.84
395.3000, 20102.66
397.2284, 20109.22
399.1569, 20147.80
401.0854, 20243.42
403.0138, 20346.23
404.9423, 20434.77
406.8708, 20500.76
408.7992, 20572.18
410.7277, 20642.09
412.6562, 20712.60
414.5846, 20793.54
416.5131, 20901.25
418.4416, 20996.07
420.3700, 21050.66
422.2985, 21056.43
424.2270, 21085.71
426.1554, 21160.30
428.0839, 21252.29
430.0124, 21336.27
431.9408, 21408.86
433.8693, 21474.25
435.7978, 21541.65
437.7262, 21612.86
439.6547, 21676.35
441.5832, 21731.34
443.5116, 21762.47
445.4401, 21771.17
447.3686, 21758.68
449.2970, 21775.76
451.2255, 21840.62
453.1540, 21913.15
455.0824, 21966.94
457.0109, 22001.02
458.9394, 22031.15
460.8678, 22061.62
462.7963, 22103.42
464.7248, 22157.10
466.6532, 22236.48
468.5817, 22292.29
470.5102, 22313.29
472.4386, 22307.30
474.3671, 22295.21
476.2956, 22281.89
478.2240, 22259.18
480.1525, 22224.02
482.0810, 22173.46
484.0094, 22126.54
485.9379, 22083.63
487.8664, 22030.65
489.7948, 21972.78
491.7233, 21929.01
493.6518, 21902.17
495.5802, 21851.49
497.5087, 21776.99
499.4372, 21709.73
501.3656, 21660.46
503.2941, 21631.14
505.2226, 21627.84
507.1510, 21657.72
509.0795, 21692.64
511.0080, 21705.15
512.9364, 21701.58
514.8649, 21691.36
516.7933, 21680.16
518.7218, 21675.81
520.6503, 21688.94
522.5787, 21706.52
524.5072, 21710.99
526.4357, 21686.05
528.3641, 21675.44
530.2926, 21697.82
532.2211, 21742.30
534.1495, 21778.43
536.0780, 21774.13
538.0065, 21761.66
539.9349, 21760.45
541.8634, 21781.69
543.7919, 21799.85
545.7203, 21807.17
547.6488, 21803.94
549.5773, 21793.88
551.5057, 21783.22
553.4342, 21784.63
555.3627, 21795.35
557.2911, 21804.00
559.2196, 21792.92
561.1481, 21756.47
563.0765, 21750.70
565.0050, 21807.58
566.9335, 21893.08
568.8619, 21925.06
570.7904, 21893.74
572.7189, 21878.44
574.6473, 21891.09
576.5758, 21904.28
578.5043, 21905.55
580.4327, 21915.61
582.3612, 21935.75
584.2897, 21964.32
586.2181, 22000.23
588.1466, 22027.45
590.0751, 22037.54
592.0035, 22040.52
593.9320, 22043.47
595.8605, 22061.94
597.7889, 22087.41
599.7174, 22100.97
601.6459, 22105.06
603.5743, 22116.61
605.5028, 22159.97
607.4313, 22194.88
609.3597, 22204.40
611.2882, 22199.66
613.2167, 22204.90
615.1451, 22236.07
617.0736, 22268.91
619.0021, 22297.61
620.9305, 22320.87
622.8590, 22339.42
624.7875, 22341.57
626.7159, 22345.09
628.6444, 22359.29
630.5729, 22385.91
632.5013, 22414.91
634.4298, 22442.55
636.3583, 22467.00
638.2867, 22487.40
640.2152, 22517.48
642.1437, 22544.32
644.0721, 22557.14
646.0006, 22560.41
647.9291, 22568.81
649.8575, 22577.99
651.7860, 22578.56
653.7145, 22568.12
655.6429, 22575.96
657.5714, 22628.65
659.4999, 22710.90
661.4283, 22759.65
663.3568, 22731.33
665.2853, 22689.40
667.2137, 22681.54
669.1422, 22708.27
671.0707, 22736.99
672.9991, 22762.52
674.9276, 22789.77
676.8561, 22830.81
678.7845, 22895.09
680.7130, 22942.01
682.6415, 22943.10
684.5699, 22927.75
686.4984, 22939.23
688.4269, 22987.85
690.3553, 23036.20
692.2838, 23080.43
694.2123, 23115.96
696.1407, 23132.40
698.0692, 23109.56
699.9977, 23091.14
701.9261, 23088.53
703.8546, 23113.59
705.7831, 23160.02
707.7115, 23241.44
709.6400, 23317.81
711.5685, 23372.80
713.4969, 23410.11
715.4254, 23437.60
717.3539, 23450.29
719.2823, 23458.68
721.2108, 23460.14
723.1393, 23453.22
725.0677, 23465.07
726.9962, 23510.31
728.9247, 23557.17
730.8531, 23584.88
732.7816, 23595.36
734.7101, 23617.38
736.6385, 23666.78
738.5670, 23716.30
740.4955, 23750.02
742.4240, 23761.60
744.3524, 23790.82
746.2809, 23863.80
748.2094, 23933.55
750.1378, 23966.09
752.0663, 23955.46
753.9948, 23953.15
755.9232, 23977.24
757.8517, 24002.45
759.7802, 24010.25
761.7086, 23995.90
763.6371, 23976.87
765.5656, 23943.71
767.4940, 23913.60
769.4225, 23902.38
771.3510, 23917.32
773.2794, 23923.10
775.2079, 23903.53
777.1364, 23879.62
779.0648, 23872.53
780.9933, 23888.91
782.9218, 23907.75
784.8502, 23930.97
786.7787, 23951.00
788.7072, 23966.33
790.6356, 23978.56
792.5641, 23982.34
794.4926, 23968.24
796.4210, 23953.18
798.3495, 23948.03
800.2780, 23944.20
802.2064, 23948.76
804.1349, 23984.78
806.0634, 24017.95
807.9918, 24007.97
809.9203, 23935.91
811.8488, 23887.71
813.7772, 23895.79
815.7057, 23920.54
817.6342, 23924.10
819.5626, 23902.79
821.4911, 23890.10
823.4196, 23900.76
825.3480, 23911.75
827.2765, 23900.40
829.2050, 23856.04
831.1334, 23829.88
833.0619, 23838.12
834.9904, 23869.01
836.9188, 23908.19
838.8473, 23955.65
840.7758, 23979.38
842.7042, 23956.05
844.6327, 23932.86
846.5612, 23941.82
848.4896, 23979.42
850.4181, 24003.24
852.3466, 23986.94
854.2750, 23986.64
856.2035, 24022.20
858.1320, 24092.14
860.0604, 24141.17
861.9889, 24161.31
863.9174, 24174.18
865.8458, 24184.70
867.7743, 24197.59
869.7028, 24208.16
871.6312, 24212.54
873.5597, 24200.00
875.4882, 24187.46
877.4166, 24198.48
879.3451, 24230.44
881.2736, 24278.63
883.2020, 24312.22
885.1305, 24343.18
887.0590, 24376.36
888.9874, 24409.19
890.9159, 24439.92
892.8444, 24474.99
894.7728, 24508.69
896.7013, 24539.76
898.6298, 24567.99
900.5582, 24587.01
902.4867, 24602.75
904.4152, 24643.32
906.3436, 24719.62
908.2721, 24779.48
910.2006, 24806.04
912.1290, 24819.01
914.0575, 24851.47
915.9860, 24903.98
917.9144, 24937.90
919.8429, 24928.60
921.7714, 24892.27
923.6998, 24853.15
925.6283, 24865.06
927.5568, 24894.79
929.4852, 24914.42
931.4137, 24907.53
933.3422, 24915.45
935.2706, 24922.40
937.1991, 24885.61
939.1276, 24808.86
941.0560, 24764.92
942.9845, 24779.50
944.9130, 24799.14
946.8414, 24813.68
948.7699, 24814.08
950.6984, 24805.05
952.6268, 24794.48
954.5553, 24821.26
956.4838, 24862.39
958.4122, 24889.67
960.3407, 24897.96
962.2692, 24899.99
964.1976, 24931.38
966.1261, 24939.66
968.0546, 24886.55
969.9830, 24837.28
971.9115, 24846.72
973.8400, 24916.83
975.7684, 24965.31
977.6969, 24955.41
979.6254, 24935.54
981.5538, 24931.27
983.4823, 24939.25
985.4108, 24939.47
987.3392, 24962.91
989.2677, 24997.06
991.1962, 25027.97
993.1246, 25047.46
995.0531, 25062.42
996.9816, 25059.10
998.9100, 25064.64
1000.839, 25081.06
1002.767, 25086.79
1004.695, 25044.48
1006.624, 25020.24
1008.552, 25058.11
1010.481, 25125.07
1012.409, 25192.09
1014.338, 25242.73
1016.266, 25270.49
1018.195, 25251.43
1020.123, 25202.43
1022.052, 25163.34
1023.980, 25158.04
1025.909, 25177.92
1027.837, 25199.94
1029.766, 25228.78
1031.694, 25260.11
1033.622, 25289.42
1035.551, 25317.43
1037.479, 25336.43
1039.408, 25344.57
1041.336, 25349.90
1043.265, 25345.20
1045.193, 25327.19
1047.122, 25319.25
1049.050, 25328.30
1050.979, 25332.28
1052.907, 25347.47
1054.836, 25387.08
1056.764, 25439.05
1058.693, 25473.04
1060.621, 25470.71
1062.549, 25459.61
1064.478, 25450.15
1066.406, 25453.59
1068.335, 25475.11
1070.263, 25494.12
1072.192, 25514.10
1074.120, 25541.23
1076.049, 25567.73
1077.977, 25590.96
1079.906, 25616.28
1081.834, 25635.35
1083.763, 25629.87
1085.691, 25631.90
1087.620, 25656.30
1089.548, 25693.21
1091.476, 25724.57
1093.405, 25723.26
1095.333, 25710.45
1097.262, 25711.64
1099.190, 25733.48
1101.119, 25766.01
1103.047, 25782.81
1104.976, 25802.32
1106.904, 25824.41
1108.833, 25838.88
1110.761, 25842.59
1112.690, 25857.32
1114.618, 25895.96
1116.547, 25933.86
1118.475, 25957.37
1120.403, 25970.29
1122.332, 25979.08
1124.260, 25973.69
1126.189, 25951.90
1128.117, 25934.55
1130.046, 25931.88
1131.974, 25936.76
1133.903, 25937.65
1135.831, 25944.25
1137.760, 25975.04
1139.688, 26027.21
1141.617, 26051.25
1143.545, 26026.15
1145.474, 25994.64
1147.402, 25993.09
1149.330, 26028.58
1151.259, 26038.03
1153.187, 26000.09
1155.116, 25977.13
1157.044, 26008.07
1158.973, 26049.38
1160.901, 26079.07
1162.830, 26106.03
1164.758, 26132.65
1166.687, 26153.35
1168.615, 26173.86
1170.544, 26210.12
1172.472, 26242.60
1174.401, 26255.23
1176.329, 26260.87
1178.257, 26261.52
1180.186, 26239.46
1182.114, 26214.28
1184.043, 26229.46
1185.971, 26281.53
1187.900, 26304.63
1189.828, 26261.46
1191.757, 26235.35
1193.685, 26268.33
1195.614, 26329.77
1197.542, 26365.40
1199.471, 26355.69
1201.399, 26357.43
1203.328, 26382.11
1205.256, 26410.94
1207.184, 26433.92
1209.113, 26457.13
1211.041, 26468.51
1212.970, 26455.58
1214.898, 26445.46
1216.827, 26450.88
1218.755, 26467.14
1220.684, 26489.15
1222.612, 26519.40
1224.541, 26541.64
1226.469, 26538.27
1228.398, 26539.51
1230.326, 26568.21
1232.255, 26620.76
1234.183, 26652.30
1236.111, 26634.51
1238.040, 26629.95
1239.968, 26652.26
1241.897, 26692.42
1243.825, 26743.05
1245.754, 26814.75
1247.682, 26852.73
1249.611, 26815.76
1251.539, 26777.19
1253.468, 26791.20
1255.396, 26837.78
1257.325, 26848.83
1259.253, 26801.88
1261.182, 26777.04
1263.110, 26820.10
1265.038, 26879.35
1266.967, 26912.44
1268.895, 26919.21
1270.824, 26934.91
1272.752, 26978.10
1274.681, 27007.65
1276.609, 27007.98
1278.538, 26997.54
1280.466, 26998.46
1282.395, 27007.72
1284.323, 27003.51
1286.252, 26957.45
1288.180, 26928.71
1290.109, 26973.71
1292.037, 27076.95
1293.965, 27128.77
1295.894, 27098.53
1297.822, 27082.72
1299.751, 27136.42
1301.679, 27198.69
1303.608, 27206.70
1305.536, 27160.03
1307.465, 27133.02
1309.393, 27137.93
1311.322, 27165.85
1313.250, 27227.33
1315.179, 27307.23
1317.107, 27352.04
1319.036, 27346.29
1320.964, 27338.07
1322.892, 27323.94
1324.821, 27316.45
1326.749, 27334.38
1328.678, 27381.91
1330.606, 27406.77
1332.535, 27400.11
1334.463, 27411.16
1336.392, 27467.10
1338.320, 27520.05
1340.249, 27513.95
1342.177, 27448.18
1344.106, 27433.34
1346.034, 27529.65
1347.963, 27622.49
1349.891, 27652.14
1351.819, 27636.31
1353.748, 27619.46
1355.676, 27595.58
1357.605, 27575.44
1359.533, 27568.35
1361.462, 27585.82
1363.390, 27634.63
1365.319, 27685.98
1367.247, 27719.64
1369.176, 27746.66
1371.104, 27762.56
1373.033, 27748.70
1374.961, 27736.48
1376.890, 27758.39
1378.818, 27813.43
1380.746, 27843.30
1382.675, 27842.72
1384.603, 27844.98
1386.532, 27853.48
1388.460, 27862.05
1390.389, 27866.84
1392.317, 27861.55
1394.246, 27875.72
1396.174, 27937.58
1398.103, 27985.18
1400.031, 27993.92
1401.960, 27986.44
1403.888, 27986.57
1405.817, 27983.34
1407.745, 27992.70
1409.673, 28026.45
1411.602, 28053.15
1413.530, 28056.69
1415.459, 28051.27
1417.387, 28049.42
1419.316, 28046.68
1421.244, 28051.96
1423.173, 28091.45
1425.101, 28133.27
1427.030, 28138.49
1428.958, 28117.64
1430.887, 28136.73
1432.815, 28228.96
1434.744, 28290.62
1436.672, 28266.17
1438.600, 28231.16
1440.529, 28225.61
1442.457, 28247.02
1444.386, 28265.68
1446.314, 28274.20
1448.243, 28303.75
1450.171, 28359.08
1452.100, 28406.08
1454.028, 28435.46
1455.957, 28449.84
1457.885, 28442.63
1459.814, 28401.13
1461.742, 28371.92
1463.671, 28335.62
1465.599, 28320.03
1467.527, 28361.73
1469.456, 28442.76
1471.384, 28494.26
1473.313, 28514.77
1475.241, 28522.48
1477.170, 28495.74
1479.098, 28477.74
1481.027, 28498.94
1482.955, 28538.27
1484.884, 28550.57
1486.812, 28536.34
1488.741, 28553.43
1490.669, 28625.33
1492.598, 28694.55
1494.526, 28737.14
1496.454, 28759.68
1498.383, 28766.33
1500.311, 28755.22
1502.240, 28753.65
1504.168, 28752.92
1506.097, 28753.79
1508.025, 28782.77
1509.954, 28827.65
1511.882, 28847.45
1513.811, 28831.45
1515.739, 28825.08
1517.668, 28850.99
1519.596, 28879.67
1521.525, 28896.96
1523.453, 28912.05
1525.381, 28928.25
1527.310, 28939.04
1529.238, 28956.90
1531.167, 29012.57
1533.095, 29056.57
1535.024, 29051.46
1536.952, 29029.71
1538.881, 29028.83
1540.809, 29048.54
1542.738, 29062.56
1544.666, 29076.94
1546.595, 29100.50
1548.523, 29129.36
1550.452, 29140.83
1552.380, 29108.19
1554.308, 29043.46
1556.237, 29047.46
1558.165, 29194.35
1560.094, 29294.69
1562.022, 29322.26
1563.951, 29324.93
1565.879, 29327.71
1567.808, 29333.13
1569.736, 29330.47
1571.665, 29307.22
1573.593, 29290.87
1575.522, 29278.86
1577.450, 29289.68
1579.379, 29353.03
1581.307, 29429.96
1583.235, 29450.96
1585.164, 29401.66
1587.092, 29386.29
1589.021, 29438.81
1590.949, 29479.98
1592.878, 29471.70
1594.806, 29456.94
1596.735, 29494.33
1598.663, 29574.49
1600.592, 29596.84
1602.520, 29521.41
1604.449, 29487.15
1606.377, 29568.75
1608.306, 29642.25
1610.234, 29615.68
1612.162, 29534.54
1614.091, 29510.37
1616.019, 29550.51
1617.948, 29592.45
1619.876, 29641.62
1621.805, 29674.03
1623.733, 29662.09
1625.662, 29640.69
1627.590, 29658.97
1629.519, 29711.51
1631.447, 29743.24
1633.376, 29745.26
1635.304, 29742.06
1637.233, 29740.98
1639.161, 29735.69
1641.089, 29704.57
1643.018, 29669.62
1644.946, 29694.59
1646.875, 29798.22
1648.803, 29865.68
1650.732, 29862.71
1652.660, 29848.40
1654.589, 29843.63
1656.517, 29841.61
1658.446, 29826.72
1660.374, 29804.77
1662.303, 29819.28
1664.231, 29890.45
1666.160, 29939.56
1668.088, 29912.97
1670.016, 29896.68
1671.945, 29962.54
1673.873, 30063.89
1675.802, 30112.13
1677.730, 30105.95
1679.659, 30099.27
1681.587, 30084.79
1683.516, 30096.26
1685.444, 30177.20
1687.373, 30261.04
1689.301, 30286.70
1691.230, 30270.20
1693.158, 30266.81
1695.087, 30284.02
1697.015, 30273.21
1698.943, 30184.85
1700.872, 30127.82
1702.800, 30172.20
1704.729, 30255.22
1706.657, 30304.99
1708.586, 30327.43
1710.514, 30362.99
1712.443, 30419.53
1714.371, 30468.22
1716.300, 30514.19
1718.228, 30538.35
1720.157, 30504.26
1722.085, 30456.09
1724.014, 30470.92
1725.942, 30546.18
1727.870, 30595.73
1729.799, 30591.81
1731.727, 30617.19
1733.656, 30747.58
1735.584, 30850.48
1737.513, 30805.11
1739.441, 30693.92
1741.370, 30690.16
1743.298, 30807.46
1745.227, 30866.95
1747.155, 30829.12
1749.084, 30792.61
1751.012, 30756.56
1752.941, 30748.21
1754.869, 30810.71
1756.797, 30906.71
1758.726, 30952.55
1760.654, 30939.52
1762.583, 30921.55
1764.511, 30880.30
1766.440, 30861.12
1768.368, 30868.92
1770.297, 30903.49
1772.225, 30988.46
1774.154, 31093.57
1776.082, 31144.94
1778.011, 31127.68
1779.939, 31132.46
1781.868, 31184.41
1783.796, 31220.85
1785.724, 31233.20
1787.653, 31227.64
1789.581, 31193.53
1791.510, 31149.38
1793.438, 31133.65
1795.367, 31151.28
1797.295, 31163.54
1799.224, 31144.67
1801.152, 31167.64
1803.081, 31295.26
1805.009, 31405.49
1806.938, 31415.95
1808.866, 31382.55
1810.795, 31401.15
1812.723, 31471.84
1814.651, 31488.05
1816.580, 31418.21
1818.508, 31382.27
1820.437, 31425.50
1822.365, 31475.16
1824.294, 31504.13
1826.222, 31519.65
1828.151, 31525.42
1830.079, 31524.04
1832.008, 31526.57
1833.936, 31532.07
1835.865, 31551.29
1837.793, 31589.38
1839.722, 31635.22
1841.650, 31701.52
1843.578, 31758.09
1845.507, 31765.14
1847.435, 31747.05
1849.364, 31768.36
1851.292, 31832.13
1853.221, 31857.49
1855.149, 31815.37
1857.078, 31783.12
1859.006, 31795.96
1860.935, 31809.95
1862.863, 31786.78
1864.792, 31755.37
1866.720, 31763.59
1868.649, 31810.37
1870.577, 31853.29
1872.505, 31892.38
1874.434, 31927.86
1876.362, 31970.62
1878.291, 31995.48
1880.219, 31973.21
1882.148, 31947.58
1884.076, 31959.23
1886.005, 32000.06
1887.933, 32051.79
1889.862, 32131.29
1891.790, 32148.12
1893.719, 32045.25
1895.647, 31981.04
1897.576, 31998.02
1899.504, 32037.61
1901.432, 32091.95
1903.361, 32139.85
1905.289, 32145.48
1907.218, 32117.93
1909.146, 32112.21
1911.075, 32130.92
1913.003, 32160.76
1914.932, 32204.83
1916.860, 32248.93
1918.789, 32300.22
1920.717, 32335.86
1922.646, 32319.04
1924.574, 32288.75
1926.503, 32311.31
1928.431, 32378.01
1930.359, 32424.16
1932.288, 32445.17
1934.216, 32454.77
1936.145, 32439.64
1938.073, 32435.46
1940.002, 32463.11
1941.930, 32494.94
1943.859, 32510.68
1945.787, 32516.26
1947.716, 32525.48
1949.644, 32538.66
1951.573, 32533.03
1953.501, 32491.91
1955.429, 32467.07
1957.358, 32458.22
1959.286, 32469.58
1961.215, 32529.95
1963.143, 32582.02
1965.072, 32575.89
1967.000, 32539.87
1968.929, 32526.95
1970.857, 32533.69
1972.786, 32523.37
1974.714, 32487.58
1976.643, 32482.51
1978.571, 32534.71
1980.500, 32580.28
1982.428, 32578.48
1984.356, 32581.42
1986.285, 32634.18
1988.213, 32705.31
1990.142, 32745.98
1992.070, 32762.22
1993.999, 32800.63
1995.927, 32878.67
1997.856, 32910.80
1999.784, 32855.60
2001.713, 32813.26
2003.641, 32799.21
2005.570, 32802.01
2007.498, 32818.06
2009.427, 32846.48
2011.355, 32903.55
2013.283, 32970.96
2015.212, 32971.30
2017.140, 32898.98
2019.069, 32876.28
2020.997, 32921.35
2022.926, 32973.34
2024.854, 33035.11
2026.783, 33074.17
2028.711, 33065.24
2030.640, 33041.20
2032.568, 33019.88
2034.497, 33002.59
2036.425, 32986.66
2038.354, 32975.04
2040.282, 32996.70
2042.210, 33071.63
2044.139, 33095.04
2046.067, 32996.62
2047.996, 32949.93
2049.924, 33031.38
2051.853, 33101.33
2053.781, 33070.32
2055.710, 33028.30
2057.638, 33079.99
2059.567, 33173.96
2061.495, 33178.84
2063.424, 33104.47
2065.352, 33085.09
2067.281, 33133.48
2069.209, 33174.00
2071.137, 33195.49
2073.066, 33209.09
2074.994, 33210.58
2076.923, 33215.45
2078.851, 33249.25
2080.780, 33274.24
2082.708, 33231.22
2084.637, 33160.00
2086.565, 33158.70
2088.494, 33226.12
2090.422, 33265.85
2092.351, 33261.82
2094.279, 33271.91
2096.208, 33319.82
2098.136, 33339.93
2100.064, 33304.39
2101.993, 33260.21
2103.921, 33204.70
2105.850, 33170.30
2107.778, 33195.36
2109.707, 33251.70
2111.635, 33290.19
2113.564, 33317.80
2115.492, 33386.46
2117.421, 33511.16
2119.349, 33535.57
2121.278, 33369.11
2123.206, 33268.42
2125.135, 33324.50
2127.063, 33370.46
2128.991, 33339.09
2130.920, 33297.13
2132.848, 33279.11
2134.777, 33281.37
2136.705, 33310.84
2138.634, 33355.22
2140.562, 33366.96
2142.491, 33350.44
2144.419, 33366.83
2146.348, 33427.04
2148.276, 33457.01
2150.205, 33431.43
2152.133, 33410.46
2154.062, 33417.84
2155.990, 33422.61
2157.918, 33399.39
2159.847, 33382.05
2161.775, 33403.27
2163.704, 33442.57
2165.632, 33468.93
2167.561, 33487.22
2169.489, 33528.39
2171.418, 33592.11
2173.346, 33589.57
2175.275, 33502.71
2177.203, 33453.53
2179.132, 33469.59
2181.060, 33495.67
2182.989, 33518.98
2184.917, 33544.69
2186.845, 33597.55
2188.774, 33628.46
2190.702, 33580.43
2192.631, 33505.86
2194.559, 33460.74
2196.488, 33447.94
2198.416, 33492.19
2200.345, 33591.95
2202.273, 33629.86
2204.202, 33597.10
2206.130, 33577.70
2208.059, 33577.77
2209.987, 33603.33
2211.916, 33687.71
2213.844, 33733.61
2215.772, 33665.56
2217.701, 33599.68
2219.629, 33609.92
2221.558, 33639.77
2223.486, 33631.85
2225.415, 33611.12
2227.343, 33618.67
2229.272, 33650.88
2231.200, 33705.01
2233.129, 33778.48
2235.057, 33780.05
2236.986, 33693.82
2238.914, 33664.46
2240.843, 33741.88
2242.771, 33773.47
2244.699, 33684.97
2246.628, 33604.55
2248.556, 33570.07
2250.485, 33556.29
2252.413, 33551.20
2254.342, 33559.65
2256.270, 33598.51
2258.199, 33645.16
2260.127, 33674.46
2262.056, 33681.26
2263.984, 33629.49
2265.913, 33534.07
2267.841, 33508.45
2269.770, 33563.96
2271.698, 33595.77
2273.626, 33587.27
2275.555, 33575.66
2277.483, 33560.44
2279.412, 33549.70
2281.340, 33528.82
2283.269, 33535.18
2285.197, 33627.52
2287.126, 33697.19
2289.054, 33631.59
2290.983, 33559.97
2292.911, 33649.11
2294.840, 33775.80
2296.768, 33713.83
2298.697, 33537.80
2300.625, 33497.17
2302.553, 33587.20
2304.482, 33653.27
2306.410, 33699.43
2308.339, 33699.09
2310.267, 33632.07
2312.196, 33591.20
2314.124, 33587.59
2316.053, 33613.02
2317.981, 33710.35
2319.910, 33745.45
2321.838, 33586.99
2323.767, 33454.50
2325.695, 33488.03
2327.624, 33566.18
2329.552, 33604.77
2331.480, 33621.29
2333.409, 33633.69
2335.337, 33641.96
2337.266, 33642.80
2339.194, 33639.84
2341.123, 33656.07
2343.051, 33685.41
2344.980, 33664.12
2346.908, 33581.66
2348.837, 33528.79
2350.765, 33515.15
2352.694, 33522.09
2354.622, 33591.35
2356.551, 33601.63
2358.479, 33486.14
2360.407, 33412.39
2362.336, 33451.14
2364.264, 33497.39
2366.193, 33508.85
2368.121, 33502.47
2370.050, 33466.63
2371.978, 33441.03
2373.907, 33477.34
2375.835, 33535.15
2377.764, 33562.44
2379.692, 33566.30
2381.621, 33551.39
2383.549, 33527.65
2385.478, 33553.63
2387.406, 33616.31
2389.334, 33604.82
2391.263, 33510.76
2393.191, 33446.08
2395.120, 33416.19
2397.048, 33421.33
2398.977, 33497.98
2400.905, 33534.62
2402.834, 33502.88
2404.762, 33478.50
2406.691, 33478.82
2408.619, 33484.44
2410.548, 33497.28
2412.476, 33499.53
2414.405, 33460.48
2416.333, 33435.29
2418.261, 33474.54
2420.190, 33527.27
2422.118, 33562.11
2424.047, 33572.68
2425.975, 33531.65
2427.904, 33473.41
2429.832, 33457.27
2431.761, 33471.11
2433.689, 33503.43
2435.618, 33540.52
2437.546, 33498.13
2439.475, 33378.57
2441.403, 33349.83
2443.332, 33433.45
2445.260, 33443.15
2447.188, 33362.61
2449.117, 33338.73
2451.045, 33398.95
2452.974, 33434.48
2454.902, 33421.10
2456.831, 33398.55
2458.759, 33376.38
2460.688, 33342.79
2462.616, 33275.46
2464.545, 33227.16
2466.473, 33206.41
2468.402, 33216.48
2470.330, 33293.46
2472.259, 33351.16
2474.187, 33331.84
2476.115, 33281.63
2478.044, 33211.92
2479.972, 33152.06
2481.901, 33130.28
2483.829, 33135.37
2485.758, 33178.38
2487.686, 33221.52
2489.615, 33181.14
2491.543, 33104.67
2493.472, 33094.95
2495.400, 33130.98
2497.329, 33145.12
2499.257, 33141.15
2501.186, 33147.75
2503.114, 33164.87
2505.042, 33175.05
2506.971, 33177.66
2508.899, 33142.72
2510.828, 33066.20
2512.756, 33010.87
2514.685, 32982.29
2516.613, 32975.01
2518.542, 32995.39
2520.470, 33022.74
2522.399, 33060.03
2524.327, 33097.46
2526.256, 33146.70
2528.184, 33150.46
2530.113, 33063.06
2532.041, 32999.85
2533.969, 33001.48
2535.898, 33021.89
2537.826, 33081.05
2539.755, 33106.28
2541.683, 33042.05
2543.612, 32985.31
2545.540, 32986.08
2547.469, 32995.81
2549.397, 32999.11
2551.326, 32984.55
2553.254, 32919.83
2555.183, 32862.10
2557.111, 32869.57
2559.040, 32895.11
2560.968, 32890.16
2562.896, 32882.75
2564.825, 32914.31
2566.753, 32949.82
2568.682, 32924.31
2570.610, 32886.13
2572.539, 32935.57
2574.467, 33019.22
2576.396, 33027.34
2578.324, 32981.97
2580.253, 32928.21
2582.181, 32869.95
2584.110, 32809.06
2586.038, 32753.66
2587.967, 32732.60
2589.895, 32745.89
2591.823, 32813.38
2593.752, 32923.27
2595.680, 32940.21
2597.609, 32876.23
2599.537, 32848.71
2601.466, 32861.41
2603.394, 32826.09
2605.323, 32732.27
2607.251, 32681.90
2609.180, 32678.77
2611.108, 32693.43
2613.037, 32727.45
2614.965, 32711.99
2616.894, 32628.86
2618.822, 32610.81
2620.750, 32714.86
2622.679, 32754.16
2624.607, 32710.46
2626.536, 32652.04
2628.464, 32571.83
2630.393, 32541.03
2632.321, 32579.83
2634.250, 32622.99
2636.178, 32671.10
2638.107, 32696.61
2640.035, 32692.73
2641.964, 32675.20
2643.892, 32641.93
2645.821, 32603.22
2647.749, 32546.98
2649.677, 32529.39
2651.606, 32592.39
2653.534, 32646.15
2655.463, 32701.98
2657.391, 32694.40
2659.320, 32571.31
2661.248, 32491.53
2663.177, 32508.80
2665.105, 32539.90
2667.034, 32599.85
2668.962, 32600.45
2670.891, 32441.81
2672.819, 32351.03
2674.748, 32403.80
2676.676, 32476.77
2678.604, 32558.23
2680.533, 32599.00
2682.461, 32548.09
2684.390, 32505.66
2686.318, 32530.70
2688.247, 32525.05
2690.175, 32439.59
2692.104, 32363.29
2694.032, 32329.79
2695.961, 32306.80
2697.889, 32271.92
2699.818, 32259.78
2701.746, 32301.98
2703.675, 32340.06
2705.603, 32362.17
2707.531, 32364.27
2709.460, 32324.94
2711.388, 32301.23
2713.317, 32334.49
2715.245, 32360.57
2717.174, 32345.86
2719.102, 32335.20
2721.031, 32351.78
2722.959, 32356.41
2724.888, 32323.24
2726.816, 32292.38
2728.745, 32291.67
2730.673, 32277.34
2732.602, 32201.94
2734.530, 32164.07
2736.458, 32215.08
2738.387, 32258.59
2740.315, 32244.64
2742.244, 32235.94
2744.172, 32278.91
2746.101, 32286.00
2748.029, 32188.44
2749.958, 32147.53
2751.886, 32262.27
2753.815, 32315.23
2755.743, 32152.15
2757.672, 32045.62
2759.600, 32122.94
2761.529, 32165.55
2763.457, 32114.43
2765.385, 32071.69
2767.314, 32064.65
2769.242, 32067.60
2771.171, 32077.00
2773.099, 32090.35
2775.028, 32123.36
2776.956, 32117.51
2778.885, 32043.60
2780.813, 32004.95
2782.742, 32046.22
2784.670, 32066.80
2786.599, 32013.01
2788.527, 32016.37
2790.456, 32114.44
2792.384, 32141.48
2794.313, 32058.40
2796.241, 31993.52
2798.169, 31969.19
2800.098, 31962.39
2802.026, 31985.65
2803.955, 31962.18
2805.883, 31879.76
2807.812, 31849.74
2809.740, 31893.21
2811.669, 31901.08
2813.597, 31854.21
2815.526, 31850.40
2817.454, 31892.54
2819.383, 31877.22
2821.311, 31805.59
2823.240, 31810.86
2825.168, 31897.24
2827.096, 31954.68
2829.025, 31982.58
2830.953, 31945.43
2832.882, 31861.47
2834.810, 31834.75
2836.739, 31852.17
2838.667, 31841.81
2840.596, 31812.71
2842.524, 31796.31
2844.453, 31792.31
2846.381, 31804.54
2848.310, 31825.61
2850.238, 31852.87
2852.167, 31868.42
2854.095, 31823.48
2856.023, 31756.37
2857.952, 31708.35
2859.880, 31696.11
2861.809, 31785.98
2863.737, 31869.40
2865.666, 31804.25
2867.594, 31700.31
2869.523, 31646.89
2871.451, 31617.95
2873.380, 31586.98
2875.308, 31583.80
2877.237, 31675.54
2879.165, 31733.34
2881.094, 31643.65
2883.022, 31565.14
2884.950, 31558.82
2886.879, 31575.97
2888.807, 31611.05
2890.736, 31641.33
2892.664, 31655.09
2894.593, 31676.56
2896.521, 31720.91
2898.450, 31733.25
2900.378, 31684.84
2902.307, 31647.18
2904.235, 31621.02
2906.164, 31638.92
2908.092, 31713.11
2910.021, 31716.00
2911.949, 31625.90
2913.877, 31582.10
2915.806, 31595.10
2917.734, 31587.47
2919.663, 31561.13
2921.591, 31535.00
2923.520, 31510.71
2925.448, 31485.21
2927.377, 31467.37
2929.305, 31522.45
2931.234, 31596.23
2933.162, 31511.16
2935.091, 31375.31
2937.019, 31359.16
2938.948, 31404.25
2940.876, 31465.98
2942.804, 31506.55
2944.733, 31467.60
2946.661, 31416.59
2948.590, 31397.14
2950.518, 31393.93
2952.447, 31413.63
2954.375, 31420.45
2956.304, 31389.33
2958.232, 31366.58
2960.161, 31372.05
2962.089, 31386.22
2964.018, 31440.03
2965.946, 31418.56
2967.875, 31285.11
2969.803, 31201.07
2971.731, 31210.95
2973.660, 31170.47
2975.588, 31046.45
2977.517, 31011.09
2979.445, 31060.87
2981.374, 31125.03
2983.302, 31193.07
2985.231, 31210.37
2987.159, 31186.41
2989.088, 31151.74
2991.016, 31113.13
2992.945, 31078.52
2994.873, 31057.76
2996.802, 31091.77
2998.730, 31120.30
3000.658, 31063.48
3002.587, 30981.43
3004.515, 30880.10
3006.444, 30827.94
3008.372, 30907.57
3010.301, 30980.40
3012.229, 31000.33
3014.158, 30987.91
3016.086, 30922.03
3018.015, 30896.56
3019.943, 30984.06
3021.872, 30996.39
3023.800, 30914.05
3025.729, 30867.20
3027.657, 30868.34
3029.585, 30894.92
3031.514, 30943.71
3033.442, 30958.94
3035.371, 30944.55
3037.299, 30904.69
3039.228, 30856.45
3041.156, 30853.39
3043.085, 30851.68
3045.013, 30752.30
3046.942, 30652.40
3048.870, 30652.22
3050.799, 30676.45
3052.727, 30680.44
3054.656, 30676.56
3056.584, 30653.59
3058.512, 30664.12
3060.441, 30763.18
3062.369, 30807.35
3064.298, 30730.46
3066.226, 30699.10
3068.155, 30728.21
3070.083, 30729.12
3072.012, 30691.77
3073.940, 30681.29
3075.869, 30691.30
3077.797, 30633.45
3079.726, 30547.70
3081.654, 30549.34
3083.583, 30592.84
3085.511, 30622.54
3087.439, 30624.31
3089.368, 30537.72
3091.296, 30481.88
3093.225, 30597.65
3095.153, 30677.82
3097.082, 30583.73
3099.010, 30501.07
3100.939, 30460.58
3102.867, 30471.79
3104.796, 30593.35
3106.724, 30615.50
3108.653, 30527.79
3110.581, 30453.51
3112.510, 30403.15
3114.438, 30429.11
3116.366, 30498.96
3118.295, 30473.86
3120.223, 30408.60
3122.152, 30403.97
3124.080, 30420.48
3126.009, 30421.66
3127.937, 30415.74
3129.866, 30408.08
3131.794, 30395.97
3133.723, 30376.06
3135.651, 30354.83
3137.580, 30328.84
3139.508, 30314.68
3141.437, 30313.98
3143.365, 30327.11
3145.293, 30355.76
3147.222, 30355.53
3149.150, 30334.10
3151.079, 30353.85
3153.007, 30388.78
3154.936, 30381.10
3156.864, 30355.18
3158.793, 30352.58
3160.721, 30334.30
3162.650, 30234.18
3164.578, 30172.48
3166.507, 30257.19
3168.435, 30292.86
3170.364, 30223.21
3172.292, 30186.45
3174.220, 30221.65
3176.149, 30196.70
3178.077, 30106.27
3180.006, 30084.38
3181.934, 30113.93
3183.863, 30137.42
3185.791, 30147.54
3187.720, 30122.10
3189.648, 30086.45
3191.577, 30053.45
3193.505, 30039.59
3195.434, 30071.61
3197.362, 30099.19
3199.291, 30121.92
3201.219, 30084.69
3203.147, 29941.35
3205.076, 29890.18
3207.004, 29945.60
3208.933, 30021.75
3210.861, 30097.73
3212.790, 30076.61
3214.718, 30003.03
3216.647, 29964.04
3218.575, 29937.53
3220.504, 29888.79
3222.432, 29859.23
3224.361, 29889.10
3226.289, 29922.59
3228.218, 29952.40
3230.146, 29953.44
3232.074, 29915.43
3234.003, 29859.70
3235.931, 29787.09
3237.860, 29770.78
3239.788, 29788.01
3241.717, 29730.21
3243.645, 29664.35
3245.574, 29739.66
3247.502, 29826.31
3249.431, 29800.95
3251.359, 29774.34
3253.288, 29835.69
3255.216, 29833.51
3257.145, 29721.53
3259.073, 29650.71
3261.001, 29647.26
3262.930, 29673.51
3264.858, 29719.37
3266.787, 29711.54
3268.715, 29675.59
3270.644, 29676.90
3272.572, 29662.61
3274.501, 29518.19
3276.429, 29433.01
3278.358, 29593.65
3280.286, 29677.48
3282.215, 29578.28
3284.143, 29526.17
3286.072, 29551.45
3288.000, 29552.80
3289.928, 29529.26
3291.857, 29497.05
3293.785, 29472.00
3295.714, 29512.16
3297.642, 29538.81
3299.571, 29439.87
3301.499, 29340.12
3303.428, 29277.29
3305.356, 29278.31
3307.285, 29419.68
3309.213, 29438.75
3311.142, 29327.26
3313.070, 29209.36
3314.999, 29113.17
3316.927, 29178.77
3318.855, 29297.95
3320.784, 29269.70
3322.712, 29228.40
3324.641, 29326.88
3326.569, 29360.85
3328.498, 29237.03
3330.426, 29133.22
3332.355, 29079.00
3334.283, 29116.85
3336.212, 29232.35
3338.140, 29218.34
3340.069, 29129.66
3341.997, 29087.44
3343.926, 29075.65
3345.854, 29074.97
3347.782, 29099.23
3349.711, 29219.91
3351.639, 29225.68
3353.568, 29047.45
3355.496, 28961.37
3357.425, 28997.91
3359.353, 29037.97
3361.282, 29071.32
3363.210, 29056.08
3365.139, 29020.96
3367.067, 29001.21
3368.996, 28974.58
3370.924, 28915.36
3372.853, 28877.63
3374.781, 28886.38
3376.709, 28886.06
3378.638, 28872.52
3380.566, 28881.23
3382.495, 28897.38
3384.423, 28851.17
3386.352, 28800.61
3388.280, 28849.19
3390.209, 28892.35
3392.137, 28852.90
3394.066, 28829.50
3395.994, 28852.90
3397.923, 28828.11
3399.851, 28745.39
3401.780, 28713.94
3403.708, 28722.11
3405.636, 28744.28
3407.565, 28761.88
3409.493, 28772.53
3411.422, 28733.70
3413.350, 28582.94
3415.279, 28518.32
3417.207, 28630.29
3419.136, 28676.18
3421.064, 28655.79
3422.993, 28623.52
3424.921, 28590.89
3426.850, 28590.90
3428.778, 28583.53
3430.707, 28520.58
3432.635, 28470.81
3434.563, 28449.24
3436.492, 28498.42
3438.420, 28624.07
3440.349, 28640.22
3442.277, 28565.40
3444.206, 28489.17
3446.134, 28429.12
3448.063, 28413.50
3449.991, 28410.87
3451.920, 28424.15
3453.848, 28396.12
3455.777, 28310.16
3457.705, 28222.44
3459.634, 28142.82
3461.562, 28206.09
3463.490, 28317.46
3465.419, 28295.29
3467.347, 28241.05
3469.276, 28230.21
3471.204, 28232.57
3473.133, 28252.96
3475.061, 28231.55
3476.990, 28163.90
3478.918, 28137.71
3480.847, 28142.28
3482.775, 28163.76
3484.704, 28167.81
3486.632, 28080.90
3488.561, 28047.34
3490.489, 28199.34
3492.417, 28251.82
3494.346, 28184.88
3496.274, 28119.24
3498.203, 28069.61
3500.131, 28077.34
3502.060, 28100.62
3503.988, 28094.01
3505.917, 28088.39
3507.845, 28108.04
3509.774, 28097.08
3511.702, 28046.87
3513.631, 28053.67
3515.559, 28099.54
3517.488, 28108.30
3519.416, 28092.24
3521.344, 28029.39
3523.273, 28016.00
3525.201, 28112.25
3527.130, 28155.34
3529.058, 28097.10
3530.987, 28170.38
3532.915, 28322.53
3534.844, 28387.58
3536.772, 28405.38
3538.701, 28390.68
3540.629, 28388.64
3542.558, 28405.38
3544.486, 28487.00
3546.415, 28643.95
3548.343, 28681.96
3550.271, 28654.79
3552.200, 28714.38
3554.128, 28774.88
3556.057, 28760.97
3557.985, 28725.92
3559.914, 28700.03
3561.842, 28610.40
3563.771, 28466.25
3565.699, 28387.87
3567.628, 28345.06
3569.556, 28287.50
3571.485, 28217.54
3573.413, 28111.42
3575.342, 28053.36
3577.270, 28066.64
3579.198, 28037.21
3581.127, 27973.72
3583.055, 27934.91
3584.984, 27949.81
3586.912, 28091.67
3588.841, 28228.34
3590.769, 28273.74
3592.698, 28352.42
3594.626, 28474.31
3596.555, 28558.54
3598.483, 28656.38
3600.412, 28944.39
3602.340, 29295.51
3604.269, 29623.20
3606.197, 29954.51
3608.125, 30287.29
3610.054, 30682.65
3611.982, 31145.20
3613.911, 31705.32
3615.839, 32310.27
3617.768, 32956.24
3619.696, 33498.59
3621.625, 33877.94
3623.553, 34131.38
3625.482, 34254.29
3627.410, 34328.44
3629.339, 34317.32
3631.267, 34146.66
3633.196, 33844.90
3635.124, 33392.27
3637.052, 32859.91
3638.981, 32237.86
3640.909, 31757.31
3642.838, 31396.58
3644.766, 31007.57
3646.695, 30640.12
3648.623, 30321.83
3650.552, 30100.55
3652.480, 30003.27
3654.409, 29908.95
3656.337, 29810.07
3658.266, 29777.26
3660.194, 29801.71
3662.123, 29899.01
3664.051, 29992.25
3665.979, 30037.60
3667.908, 30129.48
3669.836, 30282.59
3671.765, 30414.84
3673.693, 30565.11
3675.622, 30811.59
3677.550, 31084.24
3679.479, 31333.46
3681.407, 31634.87
3683.336, 32012.62
3685.264, 32350.60
3687.193, 32683.63
3689.121, 33144.34
3691.050, 33553.54
3692.978, 33808.84
3694.906, 33911.33
3696.835, 33825.20
3698.763, 33794.62
3700.692, 33720.92
3702.620, 33323.07
3704.549, 32779.34
3706.477, 32200.06
3708.406, 31589.73
3710.334, 30932.82
3712.263, 30364.51
3714.191, 29843.47
3716.120, 29212.98
3718.048, 28583.95
3719.977, 28028.78
3721.905, 27562.62
3723.833, 27205.16
3725.762, 26855.55
3727.690, 26533.77
3729.619, 26332.18
3731.547, 26159.53
3733.476, 25909.69
3735.404, 25750.67
3737.333, 25741.61
3739.261, 25699.67
3741.190, 25619.99
3743.118, 25470.16
3745.047, 25336.45
3746.975, 25305.20
3748.904, 25258.74
3750.832, 25168.26
3752.760, 25135.91
3754.689, 25125.67
3756.617, 25014.42
3758.546, 24928.85
3760.474, 24976.95
3762.403, 25004.54
3764.331, 24983.31
3766.260, 24964.50
3768.188, 24949.83
3770.117, 24952.71
3772.045, 24940.25
3773.974, 24886.25
3775.902, 24854.33
3777.831, 24850.03
3779.759, 24769.25
3781.688, 24676.84
3783.616, 24672.50
3785.544, 24676.06
3787.473, 24656.25
3789.401, 24645.34
3791.330, 24639.39
3793.258, 24569.91
3795.187, 24500.95
3797.115, 24516.50
3799.044, 24515.25
3800.972, 24469.60
3802.901, 24463.66
3804.829, 24475.01
3806.758, 24391.01
3808.686, 24299.05
3810.615, 24246.84
3812.543, 24269.63
3814.471, 24364.99
3816.400, 24289.55
3818.328, 24141.02
3820.257, 24123.66
3822.185, 24130.20
3824.114, 24118.15
3826.042, 24086.01
3827.971, 24044.33
3829.899, 24084.25
3831.828, 24115.53
3833.756, 24004.63
3835.685, 23929.04
3837.613, 23963.51
3839.542, 23939.39
3841.470, 23894.03
3843.398, 23976.10
3845.327, 24027.21
3847.255, 23935.98
3849.184, 23854.52
3851.112, 23805.79
3853.041, 23774.51
3854.969, 23755.31
3856.898, 23711.39
3858.826, 23665.12
3860.755, 23624.09
3862.683, 23576.76
3864.612, 23526.25
3866.540, 23498.48
3868.469, 23451.48
3870.397, 23327.34
3872.325, 23256.39
3874.254, 23261.38
3876.182, 23226.89
3878.111, 23172.82
3880.039, 23111.33
3881.968, 23093.48
3883.896, 23143.25
3885.825, 23104.47
3887.753, 22998.54
3889.682, 22927.69
3891.610, 22862.75
3893.539, 22770.50
3895.467, 22747.32
3897.396, 22779.28
3899.324, 22725.45
3901.252, 22650.58
3903.181, 22656.13
3905.109, 22637.23
3907.038, 22556.56
3908.966, 22508.90
3910.895, 22471.45
3912.823, 22437.25
3914.752, 22390.32
3916.680, 22298.71
3918.609, 22257.47
3920.537, 22262.52
3922.466, 22248.55
3924.394, 22214.29
3926.323, 22114.41
3928.251, 22039.99
3930.179, 22022.89
3932.108, 22017.06
3934.036, 22021.55
3935.965, 22002.95
3937.893, 21928.03
3939.822, 21777.36
3941.750, 21749.17
3943.679, 21795.42
3945.607, 21762.31
3947.536, 21702.49
3949.464, 21616.28
3951.393, 21538.45
3953.321, 21484.00
3955.250, 21533.72
3957.178, 21594.02
3959.106, 21483.39
3961.035, 21345.55
3962.963, 21272.78
3964.892, 21273.76
3966.820, 21283.26
3968.749, 21267.43
3970.677, 21216.37
3972.606, 21107.69
3974.534, 21058.36
3976.463, 21048.12
3978.391, 21027.07
3980.320, 20962.42
3982.248, 20854.43
3984.177, 20854.81
3986.105, 20904.38
3988.033, 20852.29
3989.962, 20777.44
3991.890, 20691.90
3993.819, 20677.07
3995.747, 20716.00
3997.676, 20644.13
3999.604, 20577.82
4001.533, 20566.11
4003.461, 20511.82
4005.390, 20432.30
4007.318, 20386.72
4009.247, 20390.23
4011.175, 20386.52
4013.104, 20337.79
4015.032, 20295.79
4016.960, 20246.00
4018.889, 20174.64
4020.817, 20127.21
4022.746, 20102.17
4024.674, 20088.43
4026.603, 20073.57
4028.531, 20050.13
4030.460, 20048.02
4032.388, 20021.20
4034.317, 19949.10
4036.245, 19916.69
4038.174, 19886.80
4040.102, 19803.32
4042.031, 19780.49
4043.959, 19781.99
4045.887, 19722.68
4047.816, 19668.21
4049.744, 19587.59
4051.673, 19566.90
4053.601, 19610.30
4055.530, 19559.91
4057.458, 19508.33
4059.387, 19500.96
4061.315, 19446.35
4063.244, 19378.76
4065.172, 19325.56
4067.101, 19258.00
4069.029, 19214.55
4070.958, 19223.51
4072.886, 19236.06
4074.814, 19198.05
4076.743, 19153.11
4078.671, 19082.76
4080.600, 19038.03
4082.528, 19034.00
4084.457, 18965.27
4086.385, 18896.27
4088.314, 18909.43
4090.242, 18903.56
4092.171, 18864.10
4094.099, 18826.34
4096.027, 18789.43
4097.956, 18737.39
4099.884, 18713.09
4101.813, 18723.95
4103.741, 18670.72
4105.670, 18608.65
4107.598, 18630.23
4109.527, 18616.33
4111.455, 18539.19
4113.384, 18478.08
4115.312, 18429.48
4117.241, 18385.57
4119.169, 18350.77
4121.098, 18327.82
4123.026, 18309.99
4124.955, 18285.82
4126.883, 18222.36
4128.812, 18190.66
4130.740, 18218.53
4132.668, 18219.49
4134.597, 18186.43
4136.525, 18096.53
4138.454, 18028.41
4140.382, 18002.26
4142.311, 18013.11
4144.239, 18025.19
4146.167, 17992.57
4148.096, 17945.64
4150.024, 17887.77
4151.953, 17835.18
4153.881, 17779.72
4155.810, 17751.82
4157.738, 17728.24
4159.667, 17684.98
4161.595, 17638.54
4163.524, 17591.88
4165.452, 17563.65
4167.381, 17550.82
4169.309, 17509.53
4171.238, 17520.49
4173.166, 17558.30
4175.095, 17536.73
4177.023, 17483.58
4178.952, 17359.99
4180.880, 17313.42
4182.809, 17333.43
4184.737, 17317.96
4186.666, 17289.71
4188.594, 17268.71
4190.522, 17215.84
4192.451, 17162.27
4194.379, 17146.42
4196.308, 17133.16
4198.236, 17096.53
4200.165, 17093.10
4202.093, 17102.47
4204.021, 17084.88
4205.950, 17045.82
4207.878, 16944.77
4209.807, 16912.60
4211.735, 16919.92
4213.664, 16900.60
4215.592, 16860.61
4217.521, 16800.79
4219.449, 16759.64
4221.378, 16738.88
4223.306, 16771.36
4225.235, 16782.98
4227.163, 16750.27
4229.092, 16684.84
4231.020, 16618.83
4232.949, 16624.08
4234.877, 16568.13
4236.806, 16431.38
4238.734, 16432.29
4240.663, 16483.80
4242.591, 16508.57
4244.520, 16509.46
4246.448, 16495.41
4248.376, 16452.05
4250.305, 16409.78
4252.233, 16398.03
4254.162, 16401.11
4256.090, 16406.81
4258.019, 16357.62
4259.947, 16328.57
4261.875, 16376.32
4263.804, 16390.46
4265.732, 16383.11
4267.661, 16420.62
4269.589, 16411.54
4271.518, 16306.43
4273.446, 16271.14
4275.375, 16275.90
4277.303, 16264.99
4279.232, 16256.89
4281.160, 16255.98
4283.089, 16198.29
4285.017, 16146.49
4286.946, 16189.40
4288.874, 16220.34
4290.803, 16220.65
4292.731, 16161.59
4294.660, 16124.33
4296.588, 16208.90
4298.517, 16223.11
4300.445, 16169.80
4302.374, 16074.97
4304.302, 16029.89
4306.230, 16121.57
4308.159, 16139.29
4310.087, 16111.73
4312.016, 16088.66
4313.944, 16067.71
4315.873, 16048.32
4317.801, 16018.34
4319.729, 16006.92
4321.658, 16075.95
4323.586, 16101.66
4325.515, 16072.60
4327.443, 16006.06
4329.372, 15951.17
4331.300, 15946.69
4333.229, 15919.61
4335.157, 15885.82
4337.086, 15906.85
4339.014, 15929.96
4340.943, 15937.73
4342.871, 15960.51
4344.800, 15971.38
4346.728, 15930.05
4348.657, 15878.82
4350.585, 15832.01
4352.514, 15864.07
4354.442, 15892.46
4356.371, 15862.75
4358.299, 15846.79
4360.228, 15843.07
4362.156, 15830.63
4364.084, 15819.23
4366.013, 15812.10
4367.941, 15835.90
4369.870, 15853.60
4371.798, 15804.30
4373.727, 15810.60
4375.655, 15856.80
4377.583, 15761.70
4379.512, 15683.13
4381.440, 15732.01
4383.369, 15756.45
4385.297, 15750.32
4387.226, 15692.80
4389.154, 15657.70
4391.083, 15662.91
4393.011, 15652.08
4394.940, 15654.96
4396.868, 15711.54
4398.797, 15728.95
4400.725, 15711.01
4402.654, 15694.38
4404.582, 15655.21
4406.511, 15584.52
4408.439, 15528.19
4410.368, 15518.93
4412.296, 15620.93
4414.225, 15651.33
4416.153, 15611.05
4418.082, 15605.54
4420.010, 15585.91
4421.938, 15527.35
4423.867, 15508.91
4425.795, 15517.58
4427.724, 15547.08
4429.652, 15534.65
4431.581, 15481.48
4433.509, 15468.76
4435.438, 15463.51
4437.366, 15439.56
4439.294, 15472.29
4441.223, 15504.40
4443.151, 15401.26
4445.080, 15389.30
4447.008, 15493.55
4448.937, 15526.03
4450.865, 15506.70
4452.794, 15441.02
4454.722, 15393.27
4456.651, 15367.33
4458.579, 15379.08
4460.508, 15349.61
4462.436, 15281.45
4464.365, 15300.86
4466.293, 15313.85
4468.222, 15245.91
4470.150, 15184.51
4472.079, 15155.26
4474.007, 15235.04
4475.936, 15257.95
4477.864, 15210.54
4479.792, 15211.37
4481.721, 15211.20
4483.649, 15185.54
4485.578, 15181.43
4487.506, 15187.41
4489.435, 15188.93
4491.363, 15178.68
4493.292, 15160.81
4495.220, 15168.86
4497.148, 15142.84
4499.077, 15033.66
4501.005, 15070.80
4502.934, 15154.13
4504.862, 15183.70
4506.791, 15176.66
4508.719, 15154.90
4510.648, 15194.97
4512.576, 15202.37
4514.505, 15156.29
4516.433, 15124.51
4518.362, 15120.89
4520.290, 15168.63
4522.219, 15132.77
4524.147, 15072.67
4526.076, 15138.40
4528.004, 15159.40
4529.933, 15111.36
4531.861, 15078.52
4533.790, 15037.39
4535.718, 14972.82
4537.646, 14978.82
4539.575, 14995.58
4541.503, 14935.84
4543.432, 14973.89
4545.360, 15055.50
4547.289, 14958.13
4549.217, 14878.40
4551.146, 14875.62
4553.074, 14888.28
4555.002, 14919.57
4556.931, 14988.30
4558.859, 14942.15
4560.788, 14854.77
4562.716, 14822.62
4564.645, 14880.21
4566.573, 14971.96
4568.502, 14865.07
4570.430, 14799.60
4572.359, 14862.48
4574.287, 14825.76
4576.216, 14778.12
4578.144, 14793.56
4580.073, 14781.08
4582.001, 14773.88
4583.930, 14860.46
4585.858, 14847.65
4587.787, 14746.28
4589.715, 14675.68
4591.644, 14642.96
4593.572, 14650.82
4595.500, 14672.28
4597.429, 14690.15
4599.357, 14690.20
4601.286, 14704.70
4603.214, 14707.13
4605.143, 14653.08
4607.071, 14587.40
4609.000, 14543.22
4610.928, 14622.23
4612.856, 14659.24
4614.785, 14610.89
4616.713, 14547.14
4618.642, 14504.77
4620.570, 14503.68
4622.499, 14553.03
4624.427, 14589.80
4626.356, 14546.20
4628.284, 14500.95
4630.213, 14484.48
4632.141, 14583.67
4634.070, 14550.50
4635.998, 14392.48
4637.927, 14392.20
4639.855, 14425.96
4641.784, 14452.90
4643.712, 14478.11
4645.641, 14481.59
4647.569, 14445.97
4649.498, 14448.72
4651.426, 14464.83
4653.354, 14466.54
4655.283, 14440.32
4657.211, 14398.42
4659.140, 14364.00
4661.068, 14340.83
4662.997, 14326.86
4664.925, 14312.12
4666.854, 14303.49
4668.782, 14303.57
4670.710, 14319.92
4672.639, 14321.99
4674.567, 14291.95
4676.496, 14263.30
4678.424, 14237.47
4680.353, 14211.77
4682.281, 14194.64
4684.210, 14195.13
4686.138, 14238.93
4688.067, 14276.02
4689.995, 14288.98
4691.924, 14223.18
4693.852, 14183.98
4695.781, 14188.68
4697.709, 14227.08
4699.638, 14220.84
4701.566, 14136.40
4703.495, 14091.70
4705.423, 14097.63
4707.352, 14164.06
4709.280, 14096.84
4711.208, 14032.97
4713.137, 14151.26
4715.065, 14128.13
4716.994, 14043.39
4718.922, 14035.62
4720.851, 13996.81
4722.779, 13951.35
4724.708, 14001.52
4726.636, 14011.94
4728.564, 13980.15
4730.493, 13991.55
4732.421, 14019.87
4734.350, 14050.25
4736.278, 13981.06
4738.207, 13937.35
4740.135, 13957.80
4742.064, 13907.17
4743.992, 13852.73
4745.921, 13839.35
4747.849, 13827.54
4749.778, 13833.28
4751.706, 13877.70
4753.635, 13802.51
4755.563, 13720.37
4757.492, 13800.08
4759.420, 13834.70
4761.349, 13836.90
4763.277, 13853.41
4765.206, 13827.58
4767.134, 13780.66
4769.063, 13770.10
4770.991, 13781.07
4772.919, 13793.31
4774.848, 13731.96
4776.776, 13702.08
4778.705, 13714.65
4780.633, 13725.79
4782.562, 13697.44
4784.490, 13626.33
4786.418, 13626.78
4788.347, 13616.59
4790.275, 13572.41
4792.204, 13621.02
4794.132, 13659.54
4796.061, 13624.42
4797.989, 13645.20
4799.918, 13628.97
4801.846, 13514.27
4803.775, 13573.51
4805.703, 13639.46
4807.632, 13544.35
4809.560, 13536.50
4811.489, 13510.34
4813.417, 13332.38
4815.346, 13405.66
4817.274, 13540.54
4819.203, 13476.46
4821.131, 13396.75
4823.060, 13334.80
4824.988, 13323.61
4826.917, 13288.94
4828.845, 13261.89
4830.773, 13329.24
4832.702, 13332.24
4834.630, 13293.35
4836.559, 13298.42
4838.487, 13260.40
4840.416, 13212.05
4842.344, 13269.10
4844.272, 13306.30
4846.201, 13288.40
4848.129, 13130.45
4850.058, 13110.55
4851.986, 13210.56
4853.915, 13277.59
4855.843, 13251.90
4857.772, 13152.23
4859.700, 13057.03
4861.629, 13055.51
4863.557, 13120.40
4865.486, 13103.71
4867.414, 13065.92
4869.343, 13034.74
4871.271, 13090.08
4873.200, 13082.83
4875.128, 13008.98
4877.057, 13000.16
4878.985, 13006.65
4880.914, 13011.86
4882.842, 13001.99
4884.771, 12993.09
4886.699, 12983.40
4888.627, 12931.40
4890.556, 12901.01
4892.484, 12906.93
4894.413, 12955.21
4896.341, 12942.31
4898.270, 12864.44
4900.198, 12862.00
4902.126, 12859.88
4904.055, 12836.36
4905.983, 12757.83
4907.912, 12753.23
4909.840, 12831.41
4911.769, 12885.12
4913.697, 12842.58
4915.626, 12736.74
4917.554, 12751.05
4919.483, 12762.26
4921.411, 12747.88
4923.340, 12758.12
4925.268, 12727.64
4927.197, 12675.12
4929.125, 12732.97
4931.054, 12721.34
4932.982, 12648.84
4934.911, 12674.24
4936.839, 12660.59
4938.768, 12605.02
4940.696, 12545.78
4942.625, 12618.63
4944.553, 12731.97
4946.481, 12607.51
4948.410, 12506.38
4950.338, 12480.05
4952.267, 12584.04
4954.195, 12552.97
4956.124, 12449.03
4958.052, 12429.71
4959.980, 12451.60
4961.909, 12469.19
4963.837, 12416.61
4965.766, 12386.20
4967.694, 12379.85
4969.623, 12397.02
4971.551, 12354.63
4973.480, 12306.35
4975.408, 12315.48
4977.337, 12338.32
4979.265, 12320.96
4981.194, 12219.94
4983.122, 12264.41
4985.051, 12310.47
4986.979, 12240.34
4988.908, 12288.34
4990.836, 12293.51
4992.765, 12181.90
4994.693, 12181.47
4996.622, 12199.13
4998.550, 12190.33
5000.479, 12118.37
5002.407, 12090.01
5004.335, 12130.49
5006.264, 12180.05
5008.192, 12161.25
5010.121, 12091.41
5012.049, 12100.99
5013.978, 12071.70
5015.906, 12007.85
5017.834, 11968.15
5019.763, 11987.55
5021.691, 12019.05
5023.620, 11966.67
5025.548, 11948.63
5027.477, 11947.63
5029.405, 11919.20
5031.334, 11915.99
5033.262, 11912.39
5035.191, 11883.50
5037.119, 11857.35
5039.048, 11832.70
5040.976, 11808.69
5042.905, 11832.45
5044.833, 11843.44
5046.762, 11813.10
5048.690, 11737.37
5050.619, 11745.21
5052.547, 11832.01
5054.476, 11793.21
5056.404, 11766.08
5058.333, 11762.99
5060.261, 11729.70
5062.189, 11659.42
5064.118, 11604.26
5066.046, 11667.67
5067.975, 11648.97
5069.903, 11605.81
5071.832, 11640.95
5073.760, 11571.56
5075.688, 11508.36
5077.617, 11544.97
5079.545, 11472.64
5081.474, 11425.80
5083.402, 11455.07
5085.331, 11443.33
5087.259, 11436.87
5089.188, 11446.48
5091.116, 11459.15
5093.045, 11414.31
5094.973, 11337.78
5096.902, 11306.07
5098.830, 11326.38
5100.759, 11371.57
5102.687, 11415.41
5104.616, 11421.68
5106.544, 11393.11
5108.473, 11327.16
5110.401, 11338.64
5112.330, 11330.98
5114.258, 11270.02
5116.187, 11250.28
5118.115, 11266.76
5120.043, 11286.01
5121.972, 11162.36
5123.900, 11110.29
5125.829, 11114.49
5127.757, 11072.92
5129.686, 11075.23
5131.614, 11085.09
5133.542, 11049.56
5135.471, 11091.67
5137.399, 11115.21
5139.328, 11062.26
5141.256, 11014.04
5143.185, 10991.38
5145.113, 10992.80
5147.042, 10998.94
5148.970, 10963.56
5150.899, 10911.51
5152.827, 10901.58
5154.756, 10935.93
5156.684, 10956.16
5158.613, 10904.91
5160.541, 10870.58
5162.470, 10868.53
5164.398, 10894.61
5166.327, 10838.82
5168.255, 10863.98
5170.184, 10951.28
5172.112, 10832.02
5174.041, 10717.02
5175.969, 10678.04
5177.897, 10778.53
5179.826, 10813.14
5181.754, 10805.91
5183.683, 10789.68
5185.611, 10773.70
5187.540, 10715.43
5189.468, 10626.66
5191.396, 10702.57
5193.325, 10678.42
5195.253, 10581.74
5197.182, 10564.82
5199.110, 10586.69
5201.039, 10614.33
5202.967, 10622.17
5204.896, 10611.45
5206.824, 10616.80
5208.753, 10642.76
5210.681, 10602.10
5212.610, 10608.57
5214.538, 10635.93
5216.467, 10562.71
5218.395, 10531.42
5220.324, 10523.80
5222.252, 10511.82
5224.181, 10499.04
5226.109, 10448.87
5228.038, 10365.34
5229.966, 10350.86
5231.895, 10381.53
5233.823, 10417.59
5235.751, 10387.09
5237.680, 10381.60
5239.608, 10361.75
5241.537, 10288.38
5243.465, 10199.51
5245.394, 10223.44
5247.322, 10343.76
5249.250, 10308.68
5251.179, 10215.47
5253.107, 10155.49
5255.036, 10272.51
5256.964, 10301.97
5258.893, 10250.01
5260.821, 10140.96
5262.750, 10136.29
5264.678, 10161.61
5266.607, 10180.42
5268.535, 10154.47
5270.464, 10149.81
5272.392, 10138.82
5274.321, 10076.27
5276.249, 10061.10
5278.178, 10030.28
5280.106, 9976.988
5282.035, 10026.33
5283.963, 10003.59
5285.892, 9942.676
5287.820, 9939.540
5289.749, 9942.659
5291.677, 9950.070
5293.605, 9958.653
5295.534, 9862.925
5297.462, 9860.467
5299.391, 9913.408
5301.319, 9823.599
5303.248, 9866.995
5305.176, 9905.488
5307.104, 9812.521
5309.033, 9787.894
5310.961, 9778.454
5312.890, 9767.439
5314.818, 9775.152
5316.747, 9726.480
5318.675, 9668.820
5320.604, 9654.566
5322.532, 9691.093
5324.461, 9705.284
5326.389, 9681.679
5328.318, 9673.615
5330.246, 9620.272
5332.175, 9570.343
5334.103, 9584.393
5336.032, 9635.388
5337.960, 9611.475
5339.889, 9518.493
5341.817, 9555.387
5343.746, 9539.140
5345.674, 9484.468
5347.603, 9429.644
5349.531, 9429.010
5351.459, 9427.668
5353.388, 9418.623
5355.316, 9487.576
5357.245, 9485.144
5359.173, 9431.224
5361.102, 9372.782
5363.030, 9370.360
5364.958, 9370.563
5366.887, 9355.979
5368.815, 9347.782
5370.744, 9341.807
5372.672, 9333.064
5374.601, 9317.734
5376.529, 9292.095
5378.458, 9227.021
5380.386, 9158.766
5382.315, 9218.198
5384.243, 9212.240
5386.172, 9198.462
5388.100, 9236.395
5390.029, 9146.093
5391.957, 9110.321
5393.886, 9126.427
5395.814, 9068.499
5397.743, 9080.739
5399.671, 9069.607
5401.600, 8997.270
5403.528, 9077.934
5405.457, 9056.115
5407.385, 8975.783
5409.313, 8974.147
5411.242, 8986.873
5413.170, 8990.197
5415.099, 8973.074
5417.027, 8915.028
5418.956, 8905.034
5420.884, 8926.922
5422.813, 8951.129
5424.741, 8971.303
5426.669, 8957.248
5428.598, 8910.068
5430.526, 8839.192
5432.455, 8834.805
5434.383, 8789.782
5436.312, 8658.698
5438.240, 8698.233
5440.169, 8774.233
5442.097, 8810.688
5444.026, 8752.974
5445.954, 8725.649
5447.883, 8700.779
5449.811, 8669.877
5451.740, 8654.457
5453.668, 8618.678
5455.597, 8577.864
5457.525, 8547.117
5459.454, 8572.402
5461.382, 8603.898
5463.311, 8615.971
5465.239, 8590.503
5467.167, 8561.320
5469.096, 8549.838
5471.024, 8546.630
5472.953, 8496.110
5474.881, 8499.820
5476.810, 8475.254
5478.738, 8373.287
5480.667, 8409.531
5482.595, 8410.666
5484.523, 8375.067
5486.452, 8347.506
5488.380, 8338.996
5490.309, 8316.509
5492.237, 8281.274
5494.166, 8261.365
5496.094, 8229.205
5498.023, 8216.247
5499.951, 8231.512
5501.880, 8224.617
5503.808, 8192.282
5505.737, 8192.509
5507.665, 8280.705
5509.594, 8235.095
5511.522, 8153.458
5513.451, 8093.104
5515.379, 8096.534
5517.308, 8157.802
5519.236, 8158.190
5521.165, 8093.844
5523.093, 8069.779
5525.021, 8046.642
5526.950, 8032.509
5528.878, 8029.433
5530.807, 8007.769
5532.735, 7973.276
5534.664, 7954.841
5536.592, 7972.918
5538.521, 7894.562
5540.449, 7883.489
5542.377, 7920.502
5544.306, 7934.619
5546.234, 7930.725
5548.163, 7903.250
5550.091, 7866.891
5552.020, 7851.015
5553.948, 7840.224
5555.877, 7824.816
5557.805, 7804.821
5559.734, 7781.795
5561.662, 7842.055
5563.591, 7848.587
5565.519, 7758.424
5567.448, 7769.631
5569.376, 7754.980
5571.305, 7726.169
5573.233, 7706.733
5575.162, 7689.685
5577.090, 7646.183
5579.019, 7637.891
5580.947, 7719.335
5582.875, 7637.594
5584.804, 7619.421
5586.732, 7638.570
5588.661, 7569.209
5590.589, 7628.821
5592.518, 7609.676
5594.446, 7526.731
5596.375, 7502.819
5598.303, 7542.634
5600.231, 7551.875
5602.160, 7515.299
5604.088, 7466.531
5606.017, 7432.175
5607.945, 7409.429
5609.874, 7395.093
5611.802, 7379.109
5613.731, 7439.610
5615.659, 7431.678
5617.588, 7347.625
5619.516, 7417.053
5621.445, 7364.836
5623.373, 7300.967
5625.302, 7286.253
5627.230, 7279.067
5629.159, 7303.099
5631.087, 7292.201
5633.016, 7239.576
5634.944, 7287.525
5636.873, 7236.324
5638.801, 7178.407
5640.729, 7173.968
5642.658, 7170.005
5644.586, 7127.750
5646.515, 7066.516
5648.443, 7017.589
5650.372, 7093.788
5652.300, 7114.267
5654.229, 7064.759
5656.157, 6987.507
5658.085, 7067.229
5660.014, 7070.659
5661.942, 7042.490
5663.871, 7032.935
5665.799, 7030.837
5667.728, 6961.269
5669.656, 6904.570
5671.585, 6910.583
5673.513, 6954.597
5675.442, 6939.384
5677.370, 6924.274
5679.299, 6939.251
5681.227, 6920.873
5683.156, 6884.775
5685.084, 6866.203
5687.013, 6865.285
5688.941, 6811.549
5690.870, 6734.070
5692.798, 6722.559
5694.727, 6782.380
5696.655, 6806.216
5698.583, 6771.090
5700.512, 6736.346
5702.440, 6723.359
5704.369, 6710.407
5706.297, 6704.403
5708.226, 6720.406
5710.154, 6715.854
5712.083, 6563.773
5714.011, 6608.684
5715.939, 6630.641
5717.868, 6589.158
5719.796, 6558.005
5721.725, 6607.019
5723.653, 6596.409
5725.582, 6531.773
5727.510, 6477.684
5729.439, 6498.772
5731.367, 6512.807
5733.296, 6524.662
5735.224, 6550.201
5737.153, 6463.761
5739.081, 6439.920
5741.010, 6439.018
5742.938, 6415.639
5744.867, 6457.304
5746.795, 6485.347
5748.724, 6467.211
5750.652, 6402.659
5752.581, 6323.158
5754.509, 6323.122
5756.438, 6328.572
5758.366, 6317.208
5760.294, 6338.740
5762.223, 6363.136
5764.151, 6302.404
5766.080, 6222.311
5768.008, 6281.381
5769.937, 6270.997
5771.865, 6229.682
5773.793, 6189.278
5775.722, 6170.250
5777.650, 6176.394
5779.579, 6173.759
5781.507, 6169.902
5783.436, 6169.648
5785.364, 6146.653
5787.293, 6127.452
5789.221, 6114.586
5791.150, 6100.049
5793.078, 6063.158
5795.007, 6049.414
5796.935, 6048.962
5798.864, 6053.880
5800.792, 6061.325
5802.721, 6034.863
5804.649, 6014.951
5806.578, 6003.659
5808.506, 5992.336
5810.435, 5973.459
5812.363, 5935.566
5814.292, 5941.771
5816.220, 5978.107
5818.148, 5881.236
5820.077, 5875.206
5822.005, 5896.976
5823.934, 5916.354
5825.862, 5936.332
5827.791, 5935.190
5829.719, 5872.589
5831.647, 5828.687
5833.576, 5858.026
5835.504, 5824.451
5837.433, 5846.510
5839.361, 5841.213
5841.290, 5774.818
5843.218, 5690.199
5845.147, 5733.797
5847.075, 5744.884
5849.004, 5697.147
5850.932, 5633.777
5852.861, 5612.701
5854.789, 5624.146
5856.718, 5664.454
5858.646, 5714.308
5860.575, 5701.972
5862.503, 5663.569
5864.432, 5614.251
5866.360, 5591.840
5868.289, 5655.078
5870.217, 5648.825
5872.146, 5613.470
5874.074, 5565.128
5876.002, 5525.207
5877.931, 5575.702
5879.859, 5560.029
5881.788, 5530.661
5883.716, 5515.687
5885.645, 5510.678
5887.573, 5476.176
5889.501, 5453.015
5891.430, 5446.643
5893.358, 5445.419
5895.287, 5418.769
5897.215, 5395.391
5899.144, 5382.330
5901.072, 5375.980
5903.001, 5369.152
5904.929, 5371.315
5906.858, 5299.960
5908.786, 5273.432
5910.715, 5327.908
5912.643, 5271.224
5914.572, 5289.078
5916.500, 5303.441
5918.429, 5295.879
5920.357, 5284.004
5922.286, 5223.731
5924.214, 5255.216
5926.143, 5254.281
5928.071, 5190.495
5930.000, 5193.423
5931.928, 5210.042
5933.856, 5193.055
5935.785, 5174.452
5937.713, 5184.317
5939.642, 5166.969
5941.570, 5152.758
5943.499, 5088.339
5945.427, 5031.912
5947.355, 5110.225
5949.284, 5152.664
5951.212, 5125.033
5953.141, 5081.959
5955.069, 5052.784
5956.998, 5017.969
5958.926, 4970.395
5960.855, 4973.501
5962.783, 4992.805
5964.712, 4986.573
5966.640, 4975.667
5968.569, 5023.283
5970.497, 4991.677
5972.426, 4917.095
5974.354, 4905.476
5976.283, 4902.418
5978.211, 4880.660
5980.140, 4901.090
5982.068, 4934.815
5983.997, 4883.732
5985.925, 4838.600
5987.854, 4815.970
5989.782, 4842.744
5991.710, 4877.793
5993.639, 4792.351
5995.567, 4807.627
5997.496, 4812.660
5999.424, 4812.205
6001.353, 4825.853
6003.281, 4812.008
6005.209, 4791.472
6007.138, 4765.482
6009.066, 4731.684
6010.995, 4695.998
6012.923, 4703.194
6014.852, 4631.616
6016.780, 4633.137
6018.709, 4676.569
6020.637, 4660.713
6022.566, 4634.256
6024.494, 4566.868
6026.423, 4589.017
6028.351, 4656.146
6030.280, 4640.727
6032.208, 4589.326
6034.137, 4552.996
6036.065, 4555.625
6037.994, 4575.101
6039.922, 4571.711
6041.851, 4582.772
6043.779, 4580.884
6045.708, 4573.126
6047.636, 4569.461
6049.564, 4572.601
6051.493, 4526.224
6053.421, 4507.210
6055.350, 4509.581
6057.278, 4483.812
6059.207, 4382.046
6061.135, 4408.873
6063.063, 4477.850
6064.992, 4456.644
6066.920, 4372.938
6068.849, 4358.313
6070.777, 4342.245
6072.706, 4365.078
6074.634, 4358.764
6076.563, 4343.628
6078.491, 4388.083
6080.420, 4295.293
6082.348, 4291.456
6084.277, 4304.391
6086.205, 4308.989
6088.134, 4329.976
6090.062, 4301.510
6091.991, 4266.955
6093.919, 4253.424
6095.848, 4228.873
6097.776, 4170.535
6099.705, 4228.568
6101.633, 4282.708
6103.562, 4243.480
6105.490, 4165.865
6107.418, 4126.844
6109.347, 4108.928
6111.275, 4187.841
6113.204, 4198.140
6115.132, 4169.720
6117.061, 4151.523
6118.989, 4088.705
6120.917, 4083.950
6122.846, 4118.428
6124.774, 4099.588
6126.703, 4045.841
6128.631, 4096.769
6130.560, 4081.571
6132.488, 4016.159
6134.417, 3988.792
6136.345, 4007.562
6138.274, 4021.827
6140.202, 4032.684
6142.131, 4061.957
6144.059, 4021.505
6145.988, 3950.001
6147.916, 3930.628
6149.845, 4003.272
6151.773, 3987.334
6153.702, 3919.441
6155.630, 3883.752
6157.559, 3907.636
6159.487, 3934.167
6161.416, 3811.032
6163.344, 3845.346
6165.272, 3881.951
6167.201, 3852.057
6169.129, 3826.914
6171.058, 3847.416
6172.986, 3771.267
6174.915, 3760.251
6176.843, 3779.503
6178.771, 3759.842
6180.700, 3759.852
6182.628, 3846.265
6184.557, 3796.232
6186.485, 3762.905
6188.414, 3792.486
6190.342, 3765.681
6192.271, 3740.435
6194.199, 3710.803
6196.128, 3733.726
6198.056, 3739.827
6199.985, 3670.434
6201.913, 3625.098
6203.842, 3661.997
6205.770, 3653.752
6207.699, 3644.040
6209.627, 3654.849
6211.556, 3651.649
6213.484, 3602.093
6215.413, 3573.378
6217.341, 3606.936
6219.270, 3618.057
6221.198, 3565.967
6223.126, 3558.525
6225.055, 3588.718
6226.983, 3580.708
6228.912, 3541.415
6230.840, 3517.134
6232.769, 3542.446
6234.697, 3583.058
6236.625, 3503.425
6238.554, 3520.502
6240.482, 3522.979
6242.411, 3455.011
6244.339, 3414.897
6246.268, 3489.480
6248.196, 3487.295
6250.125, 3461.331
6252.053, 3436.365
6253.982, 3423.769
6255.910, 3451.348
6257.839, 3411.685
6259.767, 3409.479
6261.696, 3382.130
6263.624, 3367.391
6265.553, 3398.315
6267.481, 3367.993
6269.410, 3351.147
6271.338, 3361.895
6273.267, 3353.244
6275.195, 3326.701
6277.124, 3309.292
6279.052, 3292.539
6280.980, 3236.669
6282.909, 3285.781
6284.837, 3318.628
6286.766, 3285.060
6288.694, 3235.704
6290.623, 3216.508
6292.551, 3214.238
6294.479, 3177.510
6296.408, 3194.914
6298.336, 3235.422
6300.265, 3194.235
6302.193, 3171.749
6304.122, 3206.365
6306.050, 3170.475
6307.979, 3157.638
6309.907, 3180.997
6311.836, 3163.357
6313.764, 3122.315
6315.693, 3110.122
6317.621, 3140.518
6319.550, 3143.605
6321.478, 3115.997
6323.407, 3104.744
6325.335, 3118.561
6327.264, 3086.947
6329.192, 3074.185
6331.121, 3051.986
6333.049, 3022.107
6334.978, 3009.443
6336.906, 3005.617
6338.834, 3026.026
6340.763, 3041.622
6342.691, 3013.326
6344.620, 2979.874
6346.548, 2988.193
6348.477, 3022.650
6350.405, 2997.894
6352.333, 2945.465
6354.262, 2934.260
6356.190, 2956.858
6358.119, 2973.924
6360.047, 2956.542
6361.976, 2970.630
6363.904, 2965.246
6365.833, 2950.689
6367.761, 2927.527
6369.690, 2910.706
6371.618, 2916.515
6373.547, 2908.701
6375.475, 2915.310
6377.404, 2884.573
6379.332, 2886.170
6381.261, 2864.834
6383.189, 2805.816
6385.118, 2884.537
6387.046, 2853.074
6388.975, 2847.167
6390.903, 2840.479
6392.832, 2829.209
6394.760, 2808.513
6396.688, 2770.600
6398.617, 2842.327
6400.545, 2779.611
6402.474, 2814.628
6404.402, 2822.009
6406.331, 2761.315
6408.259, 2713.864
6410.188, 2769.245
6412.116, 2775.780
6414.044, 2750.924
6415.973, 2738.540
6417.901, 2715.021
6419.830, 2704.491
6421.758, 2739.602
6423.687, 2712.406
6425.615, 2745.803
6427.544, 2727.335
6429.472, 2700.434
6431.401, 2682.478
6433.329, 2660.075
6435.258, 2631.825
6437.186, 2669.920
6439.115, 2648.166
6441.043, 2627.957
6442.972, 2607.087
6444.900, 2602.250
6446.829, 2616.960
6448.757, 2606.472
6450.686, 2566.844
6452.614, 2600.396
6454.542, 2573.193
6456.471, 2577.136
6458.399, 2591.916
6460.328, 2566.217
6462.256, 2582.242
6464.185, 2548.806
6466.113, 2572.950
6468.042, 2568.020
6469.970, 2534.602
6471.898, 2518.071
6473.827, 2529.077
6475.755, 2511.707
6477.684, 2476.100
6479.612, 2524.569
6481.541, 2527.951
6483.469, 2521.051
6485.398, 2503.983
6487.326, 2461.868
6489.255, 2450.064
6491.183, 2504.035
6493.112, 2452.348
6495.040, 2460.861
6496.969, 2446.598
6498.897, 2438.289
6500.826, 2461.671
6502.754, 2416.358
6504.683, 2389.023
6506.611, 2381.280
6508.540, 2407.133
6510.468, 2417.440
6512.396, 2365.205
6514.325, 2323.163
6516.253, 2393.486
6518.182, 2365.757
6520.110, 2402.062
6522.039, 2371.885
6523.967, 2360.064
6525.896, 2358.960
6527.824, 2341.138
6529.752, 2307.289
6531.681, 2272.953
6533.609, 2310.949
6535.538, 2334.431
6537.466, 2308.965
6539.395, 2292.861
6541.323, 2297.683
6543.252, 2296.668
6545.180, 2278.835
6547.109, 2297.519
6549.037, 2306.261
6550.966, 2257.548
6552.894, 2275.127
6554.823, 2276.882
6556.751, 2236.516
6558.680, 2209.219
6560.608, 2201.840
6562.537, 2193.451
6564.465, 2157.332
6566.394, 2143.990
6568.322, 2123.283
6570.250, 2098.075
6572.179, 2068.056
6574.107, 2042.026
6576.036, 2060.551
6577.964, 1988.019
6579.893, 1991.745
6581.821, 1977.886
6583.750, 1979.605
6585.678, 1956.744
6587.606, 1936.326
6589.535, 1938.208
6591.463, 1910.757
6593.392, 1890.952
6595.320, 1892.825
6597.249, 1865.515
6599.177, 1859.122
6601.106, 1850.862
6603.034, 1823.305
6604.963, 1788.578
6606.891, 1775.050
6608.820, 1766.273
6610.748, 1760.517
6612.677, 1747.872
6614.605, 1742.587
6616.534, 1716.699
6618.462, 1706.676
6620.391, 1706.270
6622.319, 1672.900
6624.248, 1658.669
6626.176, 1653.923
6628.104, 1653.355
6630.033, 1632.838
##END=



