##NAMES=Boromuscovite
##RRUFFID=R070107
##IDEAL CHEMISTRY=KAl_2_(Si_3_B)O_10_(OH)_2_
##LOCALITY=Little 3 mine, Ramona, California, USA
##OWNER=RRUFF
##SOURCE=Jeffrey E. Patterson
##DESCRIPTION=White fine-grained micaceous on elbaite
##STATUS=The identification of this mineral is not yet confirmed
##URL=https://www.rruff.net/odr/rruff_sample/R070107
##FILETYPE=Raman RAW
##RAMAN WAVELENGTH=785

217.8855, 56428.09
219.8140, 56620.90
221.7424, 56776.50
223.6709, 56839.79
225.5994, 56851.17
227.5278, 56882.25
229.4563, 56936.52
231.3848, 56993.23
233.3132, 57041.57
235.2417, 57116.59
237.1702, 57275.13
239.0986, 57395.33
241.0271, 57366.73
242.9556, 57277.30
244.8840, 57289.59
246.8125, 57413.79
248.7410, 57462.54
250.6694, 57412.86
252.5979, 57380.83
254.5264, 57405.74
256.4548, 57438.18
258.3833, 57455.84
260.3118, 57472.60
262.2402, 57509.61
264.1687, 57562.01
266.0972, 57564.63
268.0256, 57504.96
269.9541, 57458.28
271.8826, 57439.03
273.8110, 57447.00
275.7395, 57513.54
277.6680, 57576.58
279.5964, 57563.44
281.5249, 57499.48
283.4534, 57450.96
285.3818, 57419.68
287.3103, 57422.37
289.2388, 57506.99
291.1672, 57541.71
293.0957, 57477.53
295.0242, 57391.91
296.9526, 57309.71
298.8811, 57241.50
300.8096, 57229.67
302.7380, 57270.71
304.6665, 57266.90
306.5950, 57175.72
308.5234, 57101.45
310.4519, 57064.21
312.3804, 57042.69
314.3088, 57043.34
316.2373, 57026.76
318.1658, 56950.43
320.0942, 56838.72
322.0227, 56750.54
323.9512, 56680.75
325.8796, 56646.54
327.8081, 56695.33
329.7366, 56688.06
331.6650, 56515.61
333.5935, 56341.34
335.5220, 56309.08
337.4504, 56331.73
339.3789, 56316.93
341.3074, 56264.24
343.2358, 56186.61
345.1643, 56089.97
347.0928, 56034.65
349.0212, 56027.38
350.9497, 55985.83
352.8782, 55906.14
354.8066, 55839.46
356.7351, 55767.77
358.6636, 55687.23
360.5920, 55609.61
362.5205, 55535.10
364.4490, 55452.09
366.3774, 55364.11
368.3059, 55307.07
370.2344, 55296.21
372.1628, 55264.46
374.0913, 55204.80
376.0198, 55132.05
377.9482, 55048.72
379.8767, 54978.17
381.8052, 54917.07
383.7336, 54842.81
385.6621, 54743.69
387.5906, 54631.59
389.5190, 54577.56
391.4475, 54646.12
393.3760, 54637.38
395.3044, 54481.97
397.2329, 54328.86
399.1614, 54214.88
401.0898, 54132.64
403.0183, 54090.43
404.9468, 54058.98
406.8752, 54016.07
408.8037, 53976.37
410.7322, 53933.81
412.6606, 53862.05
414.5891, 53736.84
416.5176, 53543.37
418.4460, 53416.48
420.3745, 53464.29
422.3030, 53517.06
424.2314, 53414.32
426.1599, 53262.55
428.0884, 53163.53
430.0168, 53104.62
431.9453, 53062.74
433.8738, 53034.90
435.8022, 52974.33
437.7307, 52896.29
439.6592, 52839.16
441.5876, 52771.07
443.5161, 52682.67
445.4446, 52622.34
447.3730, 52573.16
449.3015, 52478.68
451.2300, 52367.98
453.1584, 52313.84
455.0869, 52283.49
457.0154, 52179.43
458.9438, 52016.56
460.8723, 51886.24
462.8008, 51803.57
464.7292, 51733.82
466.6577, 51690.74
468.5862, 51627.01
470.5146, 51506.35
472.4431, 51377.36
474.3716, 51287.06
476.3000, 51212.14
478.2285, 51116.00
480.1570, 50996.02
482.0854, 50849.59
484.0139, 50693.59
485.9424, 50613.00
487.8708, 50639.04
489.7993, 50611.70
491.7278, 50505.89
493.6563, 50393.15
495.5847, 50268.14
497.5132, 50196.72
499.4417, 50223.49
501.3701, 50185.32
503.2986, 49994.99
505.2271, 49793.62
507.1555, 49682.66
509.0840, 49627.92
511.0125, 49592.00
512.9409, 49546.11
514.8694, 49432.64
516.7979, 49284.16
518.7263, 49180.34
520.6548, 49110.93
522.5833, 49034.54
524.5117, 48992.85
526.4402, 48964.21
528.3687, 48889.95
530.2971, 48781.46
532.2256, 48651.97
534.1541, 48543.14
536.0825, 48489.60
538.0110, 48452.76
539.9395, 48373.23
541.8679, 48279.97
543.7964, 48202.05
545.7249, 48130.80
547.6533, 48067.32
549.5818, 48012.63
551.5103, 47922.88
553.4387, 47792.28
555.3672, 47682.39
557.2957, 47588.18
559.2241, 47509.11
561.1526, 47464.98
563.0811, 47421.41
565.0095, 47350.48
566.9380, 47256.82
568.8665, 47161.45
570.7949, 47080.29
572.7234, 46991.43
574.6519, 46896.58
576.5803, 46805.82
578.5088, 46715.90
580.4373, 46656.13
582.3657, 46607.59
584.2942, 46496.22
586.2227, 46317.39
588.1511, 46204.26
590.0796, 46203.32
592.0081, 46183.21
593.9365, 46099.46
595.8650, 45994.20
597.7935, 45849.73
599.7219, 45719.83
601.6504, 45681.56
603.5789, 45678.23
605.5073, 45613.11
607.4358, 45502.58
609.3643, 45382.03
611.2927, 45245.24
613.2212, 45139.57
615.1497, 45079.64
617.0781, 45001.84
619.0066, 44883.51
620.9351, 44817.96
622.8635, 44861.45
624.7920, 44857.45
626.7205, 44746.25
628.6489, 44629.03
630.5774, 44531.39
632.5059, 44466.46
634.4343, 44456.80
636.3628, 44428.93
638.2913, 44339.24
640.2197, 44223.02
642.1482, 44081.38
644.0767, 43948.60
646.0051, 43876.60
647.9336, 43839.30
649.8621, 43786.67
651.7905, 43718.86
653.7190, 43613.68
655.6475, 43458.42
657.5759, 43362.14
659.5044, 43342.44
661.4329, 43297.23
663.3613, 43216.14
665.2898, 43129.06
667.2183, 43032.16
669.1467, 42954.47
671.0752, 42917.41
673.0037, 42877.47
674.9321, 42814.64
676.8606, 42746.91
678.7891, 42680.55
680.7175, 42609.37
682.6460, 42531.91
684.5745, 42453.46
686.5029, 42370.58
688.4314, 42287.86
690.3599, 42214.92
692.2883, 42153.38
694.2168, 42103.05
696.1453, 42056.89
698.0737, 42006.12
700.0022, 41949.77
701.9307, 41878.44
703.8591, 41791.59
705.7876, 41697.44
707.7161, 41587.26
709.6445, 41525.28
711.5730, 41565.25
713.5015, 41538.38
715.4299, 41371.75
717.3584, 41247.25
719.2869, 41231.43
721.2153, 41188.75
723.1438, 41050.20
725.0723, 40936.37
727.0007, 40916.67
728.9292, 40895.46
730.8577, 40812.46
732.7861, 40710.31
734.7146, 40627.55
736.6431, 40556.37
738.5715, 40461.63
740.5000, 40363.32
742.4285, 40333.35
744.3569, 40346.85
746.2854, 40292.06
748.2139, 40171.45
750.1423, 40067.91
752.0708, 39990.28
753.9993, 39910.07
755.9277, 39815.20
757.8562, 39721.97
759.7847, 39620.80
761.7131, 39535.76
763.6416, 39500.81
765.5701, 39483.68
767.4985, 39454.88
769.4270, 39383.68
771.3555, 39278.07
773.2839, 39187.08
775.2124, 39105.00
777.1409, 39041.88
779.0693, 39022.77
780.9978, 38990.26
782.9263, 38912.13
784.8547, 38843.33
786.7832, 38816.29
788.7117, 38775.11
790.6401, 38669.25
792.5686, 38564.21
794.4971, 38504.41
796.4255, 38454.70
798.3540, 38415.45
800.2825, 38369.13
802.2109, 38286.91
804.1394, 38208.23
806.0679, 38149.32
807.9963, 38085.02
809.9248, 38022.88
811.8533, 37966.84
813.7817, 37919.96
815.7102, 37891.09
817.6387, 37821.11
819.5671, 37683.24
821.4956, 37547.72
823.4241, 37472.78
825.3525, 37484.07
827.2810, 37522.08
829.2095, 37505.06
831.1379, 37469.38
833.0664, 37446.98
834.9949, 37417.79
836.9233, 37357.45
838.8518, 37251.45
840.7803, 37155.26
842.7087, 37108.38
844.6372, 37052.42
846.5657, 36971.18
848.4941, 36893.76
850.4226, 36801.98
852.3511, 36731.17
854.2795, 36715.75
856.2080, 36668.97
858.1365, 36557.29
860.0649, 36479.53
861.9934, 36466.14
863.9219, 36450.04
865.8503, 36394.67
867.7788, 36335.48
869.7073, 36331.83
871.6357, 36330.30
873.5642, 36252.33
875.4927, 36169.27
877.4211, 36121.13
879.3496, 36057.15
881.2781, 36010.00
883.2065, 35987.18
885.1350, 35947.59
887.0635, 35876.57
888.9919, 35752.73
890.9204, 35635.13
892.8489, 35577.14
894.7773, 35554.34
896.7058, 35542.38
898.6343, 35508.79
900.5627, 35442.22
902.4912, 35367.97
904.4197, 35284.76
906.3481, 35214.99
908.2766, 35200.83
910.2051, 35169.25
912.1335, 35071.89
914.0620, 34996.88
915.9905, 34972.04
917.9189, 34981.02
919.8474, 34976.57
921.7759, 34877.13
923.7043, 34785.19
925.6328, 34787.70
927.5613, 34758.27
929.4897, 34668.46
931.4182, 34627.48
933.3467, 34632.27
935.2751, 34566.70
937.2036, 34436.34
939.1321, 34373.58
941.0605, 34357.33
942.9890, 34324.89
944.9175, 34332.80
946.8459, 34340.82
948.7744, 34287.33
950.7029, 34210.61
952.6313, 34134.89
954.5598, 34053.97
956.4883, 33968.21
958.4167, 33891.64
960.3452, 33811.64
962.2737, 33780.44
964.2021, 33843.01
966.1306, 33846.81
968.0591, 33749.15
969.9875, 33700.49
971.9160, 33706.25
973.8445, 33685.81
975.7729, 33624.37
977.7014, 33530.13
979.6299, 33454.84
981.5583, 33419.97
983.4868, 33371.39
985.4153, 33321.49
987.3438, 33319.68
989.2722, 33333.03
991.2007, 33301.83
993.1292, 33258.22
995.0576, 33270.84
996.9861, 33236.62
998.9146, 33088.06
1000.843, 32999.24
1002.771, 33006.36
1004.700, 32963.64
1006.628, 32863.75
1008.557, 32835.36
1010.485, 32907.27
1012.414, 32891.59
1014.342, 32744.66
1016.271, 32683.95
1018.199, 32728.57
1020.128, 32691.82
1022.056, 32571.50
1023.985, 32506.36
1025.913, 32490.63
1027.842, 32436.00
1029.770, 32351.14
1031.698, 32316.39
1033.627, 32340.30
1035.555, 32342.33
1037.484, 32305.40
1039.412, 32288.21
1041.341, 32276.68
1043.269, 32206.73
1045.198, 32124.31
1047.126, 32093.11
1049.055, 32080.31
1050.983, 32036.27
1052.912, 31970.52
1054.840, 31938.01
1056.769, 31933.28
1058.697, 31908.81
1060.625, 31866.53
1062.554, 31820.10
1064.482, 31777.72
1066.411, 31754.11
1068.339, 31742.53
1070.268, 31748.29
1072.196, 31750.87
1074.125, 31704.69
1076.053, 31620.48
1077.982, 31511.41
1079.910, 31433.45
1081.839, 31434.39
1083.767, 31451.95
1085.696, 31456.75
1087.624, 31431.35
1089.552, 31340.54
1091.481, 31249.35
1093.409, 31214.52
1095.338, 31206.82
1097.266, 31193.61
1099.195, 31171.90
1101.123, 31152.18
1103.052, 31124.12
1104.980, 31094.80
1106.909, 31059.47
1108.837, 30994.87
1110.766, 30949.79
1112.694, 30936.80
1114.623, 30933.78
1116.551, 30959.55
1118.479, 30920.22
1120.408, 30792.99
1122.336, 30739.99
1124.265, 30767.95
1126.193, 30749.18
1128.122, 30683.04
1130.050, 30658.97
1131.979, 30677.03
1133.907, 30642.21
1135.836, 30562.57
1137.764, 30529.53
1139.693, 30530.64
1141.621, 30519.68
1143.550, 30490.32
1145.478, 30428.77
1147.406, 30356.53
1149.335, 30282.51
1151.263, 30227.83
1153.192, 30250.62
1155.120, 30268.30
1157.049, 30188.27
1158.977, 30123.44
1160.906, 30157.35
1162.834, 30183.20
1164.763, 30147.86
1166.691, 30119.95
1168.620, 30136.01
1170.548, 30106.16
1172.477, 29989.43
1174.405, 29916.94
1176.333, 29919.60
1178.262, 29909.69
1180.190, 29877.08
1182.119, 29856.99
1184.047, 29848.68
1185.976, 29779.05
1187.904, 29666.88
1189.833, 29650.31
1191.761, 29697.39
1193.690, 29740.66
1195.618, 29767.83
1197.547, 29726.77
1199.475, 29654.56
1201.404, 29594.43
1203.332, 29550.31
1205.260, 29531.96
1207.189, 29524.33
1209.117, 29550.07
1211.046, 29538.01
1212.974, 29397.81
1214.903, 29290.01
1216.831, 29257.13
1218.760, 29290.04
1220.688, 29434.26
1222.617, 29451.16
1224.545, 29284.96
1226.474, 29208.89
1228.402, 29247.72
1230.331, 29289.77
1232.259, 29312.57
1234.188, 29226.79
1236.116, 29082.87
1238.044, 29043.05
1239.973, 29051.36
1241.901, 29025.61
1243.830, 28976.69
1245.758, 28886.14
1247.687, 28820.20
1249.615, 28867.17
1251.544, 28905.66
1253.472, 28859.95
1255.401, 28800.88
1257.329, 28735.59
1259.258, 28687.28
1261.186, 28663.62
1263.115, 28635.84
1265.043, 28616.08
1266.971, 28582.39
1268.900, 28530.11
1270.828, 28442.19
1272.757, 28340.70
1274.685, 28356.94
1276.614, 28430.88
1278.542, 28430.85
1280.471, 28399.18
1282.399, 28399.24
1284.328, 28408.58
1286.256, 28382.54
1288.185, 28338.79
1290.113, 28305.23
1292.042, 28258.75
1293.970, 28163.20
1295.898, 28121.49
1297.827, 28202.98
1299.755, 28210.27
1301.684, 28100.09
1303.612, 28035.53
1305.541, 28020.30
1307.469, 28022.75
1309.398, 28036.47
1311.326, 28057.52
1313.255, 28054.12
1315.183, 27948.75
1317.112, 27838.52
1319.040, 27802.21
1320.969, 27790.99
1322.897, 27792.77
1324.825, 27774.38
1326.754, 27718.09
1328.682, 27684.50
1330.611, 27684.74
1332.539, 27692.10
1334.468, 27708.13
1336.396, 27655.18
1338.325, 27556.30
1340.253, 27500.52
1342.182, 27479.63
1344.110, 27507.47
1346.039, 27538.41
1347.967, 27542.63
1349.896, 27508.08
1351.824, 27406.70
1353.752, 27324.71
1355.681, 27282.64
1357.609, 27258.58
1359.538, 27250.06
1361.466, 27212.02
1363.395, 27145.62
1365.323, 27083.13
1367.252, 27030.73
1369.180, 27008.66
1371.109, 26994.04
1373.037, 26953.09
1374.966, 26898.29
1376.894, 26842.37
1378.823, 26786.02
1380.751, 26721.22
1382.679, 26662.37
1384.608, 26611.01
1386.536, 26590.86
1388.465, 26596.98
1390.393, 26552.88
1392.322, 26487.28
1394.250, 26524.02
1396.179, 26556.28
1398.107, 26387.37
1400.036, 26241.62
1401.964, 26326.96
1403.893, 26388.84
1405.821, 26294.79
1407.750, 26252.98
1409.678, 26308.98
1411.606, 26292.15
1413.535, 26203.02
1415.463, 26098.85
1417.392, 25993.26
1419.320, 25903.15
1421.249, 25852.29
1423.177, 25899.90
1425.106, 25937.71
1427.034, 25898.07
1428.963, 25846.39
1430.891, 25796.12
1432.820, 25748.47
1434.748, 25703.39
1436.677, 25659.88
1438.605, 25619.65
1440.533, 25591.26
1442.462, 25572.58
1444.390, 25563.90
1446.319, 25558.80
1448.247, 25563.92
1450.176, 25544.76
1452.104, 25485.44
1454.033, 25409.93
1455.961, 25316.50
1457.890, 25259.74
1459.818, 25235.14
1461.747, 25220.57
1463.675, 25200.09
1465.604, 25122.67
1467.532, 25057.10
1469.460, 25089.35
1471.389, 25063.40
1473.317, 24896.60
1475.246, 24838.35
1477.174, 24935.02
1479.103, 24949.30
1481.031, 24883.76
1482.960, 24778.24
1484.888, 24681.58
1486.817, 24712.49
1488.745, 24734.01
1490.674, 24614.20
1492.602, 24522.96
1494.531, 24504.89
1496.459, 24492.67
1498.387, 24476.97
1500.316, 24440.70
1502.244, 24392.73
1504.173, 24373.49
1506.101, 24345.13
1508.030, 24229.04
1509.958, 24139.61
1511.887, 24149.55
1513.815, 24185.11
1515.744, 24246.29
1517.672, 24213.90
1519.601, 24100.74
1521.529, 24015.21
1523.458, 23954.76
1525.386, 23927.75
1527.314, 23893.87
1529.243, 23787.75
1531.171, 23736.87
1533.100, 23814.63
1535.028, 23818.88
1536.957, 23742.25
1538.885, 23649.91
1540.814, 23570.50
1542.742, 23589.50
1544.671, 23616.55
1546.599, 23584.42
1548.528, 23508.79
1550.456, 23334.89
1552.385, 23274.46
1554.313, 23355.95
1556.241, 23328.31
1558.170, 23235.35
1560.098, 23232.04
1562.027, 23242.18
1563.955, 23194.86
1565.884, 23136.57
1567.812, 23084.72
1569.741, 23029.28
1571.669, 22967.53
1573.598, 22921.71
1575.526, 22889.14
1577.455, 22872.96
1579.383, 22848.24
1581.312, 22788.53
1583.240, 22723.17
1585.168, 22653.78
1587.097, 22632.29
1589.025, 22667.72
1590.954, 22615.70
1592.882, 22513.53
1594.811, 22452.00
1596.739, 22397.92
1598.668, 22315.80
1600.596, 22263.11
1602.525, 22265.10
1604.453, 22226.27
1606.382, 22141.35
1608.310, 22062.86
1610.239, 22002.24
1612.167, 22007.94
1614.095, 21992.32
1616.024, 21881.46
1617.952, 21824.13
1619.881, 21851.71
1621.809, 21823.15
1623.738, 21748.19
1625.666, 21715.13
1627.595, 21676.93
1629.523, 21558.47
1631.452, 21452.12
1633.380, 21392.06
1635.309, 21330.75
1637.237, 21264.84
1639.166, 21224.76
1641.094, 21196.66
1643.022, 21171.03
1644.951, 21115.82
1646.879, 20970.02
1648.808, 20873.06
1650.736, 20846.73
1652.665, 20881.63
1654.593, 20925.92
1656.522, 20779.83
1658.450, 20605.86
1660.379, 20583.16
1662.307, 20552.08
1664.236, 20444.04
1666.164, 20381.23
1668.093, 20360.21
1670.021, 20311.18
1671.949, 20259.87
1673.878, 20247.45
1675.806, 20236.34
1677.735, 20212.61
1679.663, 20173.89
1681.592, 20120.34
1683.520, 20060.38
1685.449, 19989.52
1687.377, 19864.77
1689.306, 19791.88
1691.234, 19895.67
1693.163, 19877.83
1695.091, 19670.30
1697.020, 19617.79
1698.948, 19647.79
1700.876, 19585.98
1702.805, 19499.75
1704.733, 19420.24
1706.662, 19354.33
1708.590, 19300.46
1710.519, 19329.16
1712.447, 19386.54
1714.376, 19303.55
1716.304, 19196.43
1718.233, 19143.88
1720.161, 19067.71
1722.090, 18946.22
1724.018, 18923.53
1725.947, 18952.39
1727.875, 18889.42
1729.803, 18818.46
1731.732, 18805.46
1733.660, 18755.36
1735.589, 18649.89
1737.517, 18577.13
1739.446, 18527.20
1741.374, 18467.54
1743.303, 18418.81
1745.231, 18400.63
1747.160, 18371.22
1749.088, 18325.15
1751.017, 18300.35
1752.945, 18262.45
1754.874, 18087.56
1756.802, 17975.18
1758.730, 18078.00
1760.659, 18077.29
1762.587, 17958.80
1764.516, 17932.66
1766.444, 17930.84
1768.373, 17839.69
1770.301, 17748.90
1772.230, 17695.07
1774.158, 17639.64
1776.087, 17587.67
1778.015, 17603.96
1779.944, 17612.42
1781.872, 17518.16
1783.801, 17419.32
1785.729, 17333.22
1787.657, 17325.52
1789.586, 17351.24
1791.514, 17263.48
1793.443, 17156.34
1795.371, 17090.16
1797.300, 17038.60
1799.228, 16997.00
1801.157, 16996.07
1803.085, 16990.34
1805.014, 16875.29
1806.942, 16792.72
1808.871, 16853.21
1810.799, 16797.87
1812.728, 16644.79
1814.656, 16570.08
1816.584, 16529.15
1818.513, 16490.28
1820.441, 16452.09
1822.370, 16414.71
1824.298, 16373.37
1826.227, 16331.61
1828.155, 16310.55
1830.084, 16275.46
1832.012, 16213.25
1833.941, 16109.68
1835.869, 15980.90
1837.798, 15956.29
1839.726, 15948.72
1841.655, 15870.85
1843.583, 15804.44
1845.511, 15765.40
1847.440, 15732.99
1849.368, 15703.43
1851.297, 15675.94
1853.225, 15632.00
1855.154, 15558.80
1857.082, 15506.00
1859.011, 15471.26
1860.939, 15415.75
1862.868, 15354.00
1864.796, 15292.32
1866.725, 15255.00
1868.653, 15238.74
1870.582, 15183.09
1872.510, 15104.96
1874.438, 14998.24
1876.367, 14935.65
1878.295, 14938.13
1880.224, 14953.45
1882.152, 14958.77
1884.081, 14927.09
1886.009, 14856.68
1887.938, 14721.08
1889.866, 14633.61
1891.795, 14595.13
1893.723, 14599.14
1895.652, 14599.78
1897.580, 14558.64
1899.509, 14485.07
1901.437, 14392.05
1903.365, 14343.54
1905.294, 14306.25
1907.222, 14260.25
1909.151, 14195.89
1911.079, 14105.99
1913.008, 14056.90
1914.936, 14022.97
1916.865, 13960.76
1918.793, 13910.74
1920.722, 13896.30
1922.650, 13833.87
1924.579, 13747.78
1926.507, 13672.88
1928.436, 13634.56
1930.364, 13663.96
1932.292, 13607.24
1934.221, 13497.94
1936.149, 13463.80
1938.078, 13432.26
1940.006, 13369.67
1941.935, 13308.93
1943.863, 13254.71
1945.792, 13220.69
1947.720, 13208.54
1949.649, 13231.09
1951.577, 13166.54
1953.506, 13033.25
1955.434, 13022.55
1957.363, 13028.41
1959.291, 12979.15
1961.219, 12902.70
1963.148, 12809.94
1965.076, 12742.21
1967.005, 12688.85
1968.933, 12639.52
1970.862, 12607.04
1972.790, 12584.16
1974.719, 12496.42
1976.647, 12410.85
1978.576, 12406.89
1980.504, 12372.95
1982.433, 12304.25
1984.361, 12250.36
1986.290, 12203.87
1988.218, 12150.04
1990.146, 12132.85
1992.075, 12141.59
1994.003, 12069.37
1995.932, 11979.33
1997.860, 11923.95
1999.789, 11870.80
2001.717, 11818.27
2003.646, 11792.09
2005.574, 11764.26
2007.503, 11705.35
2009.431, 11649.59
2011.360, 11600.46
2013.288, 11561.12
2015.217, 11521.37
2017.145, 11474.87
2019.073, 11424.33
2021.002, 11372.54
2022.930, 11345.28
2024.859, 11313.58
2026.787, 11262.41
2028.716, 11175.90
2030.644, 11073.65
2032.573, 11043.36
2034.501, 11016.02
2036.430, 10950.73
2038.358, 10888.11
2040.287, 10843.20
2042.215, 10848.47
2044.144, 10837.71
2046.072, 10789.56
2048.000, 10726.29
2049.929, 10666.25
2051.857, 10646.64
2053.786, 10622.08
2055.714, 10578.52
2057.643, 10512.61
2059.571, 10443.39
2061.500, 10384.24
2063.428, 10377.05
2065.357, 10399.82
2067.285, 10348.87
2069.214, 10307.53
2071.142, 10342.04
2073.071, 10298.24
2074.999, 10180.77
2076.927, 10050.50
2078.856, 9996.948
2080.784, 10059.41
2082.713, 10012.43
2084.641, 9921.527
2086.570, 9936.110
2088.498, 9928.563
2090.427, 9875.460
2092.355, 9800.827
2094.284, 9737.921
2096.212, 9730.090
2098.141, 9689.423
2100.069, 9634.493
2101.998, 9658.873
2103.926, 9670.119
2105.854, 9584.996
2107.783, 9541.258
2109.711, 9514.686
2111.640, 9437.882
2113.568, 9358.440
2115.497, 9294.967
2117.425, 9257.115
2119.354, 9217.908
2121.282, 9173.809
2123.211, 9150.329
2125.139, 9130.011
2127.068, 9060.016
2128.996, 9024.023
2130.925, 9083.032
2132.853, 9039.471
2134.781, 8935.605
2136.710, 8909.151
2138.638, 8890.828
2140.567, 8873.508
2142.495, 8835.395
2144.424, 8765.019
2146.352, 8719.618
2148.281, 8669.162
2150.209, 8606.661
2152.138, 8606.411
2154.066, 8597.142
2155.995, 8547.188
2157.923, 8513.958
2159.852, 8482.907
2161.780, 8454.482
2163.708, 8382.238
2165.637, 8279.393
2167.565, 8255.088
2169.494, 8255.845
2171.422, 8238.321
2173.351, 8224.030
2175.279, 8197.371
2177.208, 8128.259
2179.136, 8109.819
2181.065, 8116.731
2182.993, 8065.467
2184.922, 8012.732
2186.850, 7983.916
2188.779, 7952.065
2190.707, 7911.551
2192.635, 7898.052
2194.564, 7880.550
2196.492, 7847.813
2198.421, 7828.667
2200.349, 7795.013
2202.278, 7720.093
2204.206, 7693.816
2206.135, 7684.205
2208.063, 7664.359
2209.992, 7611.746
2211.920, 7528.270
2213.849, 7533.832
2215.777, 7537.199
2217.706, 7462.032
2219.634, 7423.042
2221.563, 7410.406
2223.491, 7369.080
2225.419, 7323.113
2227.348, 7269.231
2229.276, 7245.077
2231.205, 7228.237
2233.133, 7180.260
2235.062, 7135.780
2236.990, 7113.299
2238.919, 7118.105
2240.847, 7092.738
2242.776, 7051.054
2244.704, 7024.377
2246.633, 6968.145
2248.561, 6886.517
2250.490, 6873.514
2252.418, 6870.335
2254.346, 6833.944
2256.275, 6801.504
2258.203, 6754.450
2260.132, 6739.666
2262.060, 6731.802
2263.989, 6712.464
2265.917, 6645.276
2267.846, 6604.889
2269.774, 6648.252
2271.703, 6606.503
2273.631, 6534.321
2275.560, 6529.720
2277.488, 6529.601
2279.417, 6516.789
2281.345, 6457.141
2283.273, 6419.388
2285.202, 6409.263
2287.130, 6376.814
2289.059, 6352.045
2290.987, 6320.791
2292.916, 6295.878
2294.844, 6289.981
2296.773, 6230.464
2298.701, 6168.724
2300.630, 6145.902
2302.558, 6157.223
2304.487, 6126.010
2306.415, 6063.135
2308.344, 6062.863
2310.272, 6042.871
2312.200, 5966.504
2314.129, 5918.956
2316.057, 5897.953
2317.986, 5902.023
2319.914, 5885.370
2321.843, 5862.302
2323.771, 5835.733
2325.700, 5812.902
2327.628, 5797.544
2329.557, 5723.958
2331.485, 5685.930
2333.414, 5691.403
2335.342, 5644.199
2337.271, 5598.965
2339.199, 5568.312
2341.127, 5583.178
2343.056, 5572.254
2344.984, 5478.676
2346.913, 5461.612
2348.841, 5478.674
2350.770, 5453.386
2352.698, 5427.626
2354.627, 5410.507
2356.555, 5387.214
2358.484, 5361.603
2360.412, 5340.189
2362.341, 5283.206
2364.269, 5259.371
2366.198, 5281.538
2368.126, 5253.640
2370.054, 5216.348
2371.983, 5132.442
2373.911, 5122.063
2375.840, 5143.973
2377.768, 5079.493
2379.697, 5054.781
2381.625, 5051.395
2383.554, 4998.088
2385.482, 4963.102
2387.411, 4945.794
2389.339, 4947.003
2391.268, 4939.579
2393.196, 4909.095
2395.125, 4869.929
2397.053, 4845.022
2398.981, 4843.559
2400.910, 4810.256
2402.838, 4773.806
2404.767, 4748.199
2406.695, 4719.034
2408.624, 4695.823
2410.552, 4681.447
2412.481, 4673.296
2414.409, 4662.088
2416.338, 4624.149
2418.266, 4583.076
2420.195, 4548.995
2422.123, 4534.142
2424.052, 4525.294
2425.980, 4517.289
2427.908, 4488.582
2429.837, 4465.751
2431.765, 4453.510
2433.694, 4413.697
2435.622, 4387.993
2437.551, 4387.125
2439.479, 4361.711
2441.408, 4333.066
2443.336, 4311.968
2445.265, 4308.247
2447.193, 4296.647
2449.122, 4258.946
2451.050, 4244.760
2452.979, 4227.803
2454.907, 4175.767
2456.835, 4167.546
2458.764, 4171.548
2460.692, 4154.218
2462.621, 4108.108
2464.549, 4062.305
2466.478, 4072.389
2468.406, 4062.458
2470.335, 4042.130
2472.263, 4051.146
2474.192, 4013.614
2476.120, 3952.259
2478.049, 3939.587
2479.977, 3916.254
2481.906, 3880.040
2483.834, 3835.785
2485.762, 3820.299
2487.691, 3833.383
2489.619, 3833.770
2491.548, 3823.586
2493.476, 3803.649
2495.405, 3794.393
2497.333, 3757.862
2499.262, 3692.421
2501.190, 3667.098
2503.119, 3659.642
2505.047, 3659.264
2506.976, 3659.007
2508.904, 3642.750
2510.833, 3621.243
2512.761, 3571.410
2514.689, 3542.318
2516.618, 3549.153
2518.546, 3549.435
2520.475, 3529.257
2522.403, 3484.527
2524.332, 3491.500
2526.260, 3483.920
2528.189, 3426.488
2530.117, 3391.490
2532.046, 3383.071
2533.974, 3382.280
2535.903, 3403.354
2537.831, 3400.453
2539.760, 3345.419
2541.688, 3311.085
2543.616, 3287.400
2545.545, 3252.755
2547.473, 3253.522
2549.402, 3252.874
2551.330, 3225.265
2553.259, 3222.862
2555.187, 3194.924
2557.116, 3144.148
2559.044, 3149.729
2560.973, 3140.960
2562.901, 3119.700
2564.830, 3096.524
2566.758, 3078.931
2568.687, 3058.670
2570.615, 3059.496
2572.543, 3058.932
2574.472, 3037.092
2576.400, 3013.721
2578.329, 3007.006
2580.257, 2999.135
2582.186, 2958.131
2584.114, 2943.312
2586.043, 2938.837
2587.971, 2889.075
2589.900, 2881.990
2591.828, 2900.362
2593.757, 2874.064
2595.685, 2829.278
2597.614, 2809.489
2599.542, 2831.552
2601.470, 2814.703
2603.399, 2767.659
2605.327, 2768.451
2607.256, 2774.055
2609.184, 2747.781
2611.113, 2713.838
2613.041, 2703.629
2614.970, 2714.052
2616.898, 2701.412
2618.827, 2659.327
2620.755, 2634.371
2622.684, 2642.224
2624.612, 2609.500
2626.541, 2589.557
2628.469, 2596.658
2630.397, 2584.465
2632.326, 2560.837
2634.254, 2533.498
2636.183, 2507.131
2638.111, 2509.815
2640.040, 2498.993
2641.968, 2474.265
2643.897, 2474.601
2645.825, 2466.449
2647.754, 2458.719
2649.682, 2442.479
2651.611, 2414.352
2653.539, 2393.170
2655.468, 2394.758
2657.396, 2395.653
2659.324, 2378.513
2661.253, 2368.733
2663.181, 2344.194
2665.110, 2306.899
2667.038, 2308.204
2668.967, 2318.662
2670.895, 2266.063
2672.824, 2234.559
2674.752, 2232.220
2676.681, 2227.017
2678.609, 2218.875
2680.538, 2202.300
2682.466, 2178.409
2684.395, 2167.920
2686.323, 2144.192
2688.251, 2125.801
2690.180, 2113.631
2692.108, 2130.980
2694.037, 2118.469
2695.965, 2085.323
2697.894, 2093.025
2699.822, 2093.127
2701.751, 2074.807
2703.679, 2046.973
2705.608, 2005.478
2707.536, 1991.920
2709.465, 1999.815
2711.393, 1991.604
2713.322, 1974.243
2715.250, 1956.199
2717.178, 1953.994
2719.107, 1972.183
2721.035, 1951.810
2722.964, 1912.056
2724.892, 1887.923
2726.821, 1889.403
2728.749, 1895.441
2730.678, 1871.067
2732.606, 1853.542
2734.535, 1838.522
2736.463, 1845.815
2738.392, 1823.481
2740.320, 1793.674
2742.249, 1801.167
2744.177, 1783.394
2746.105, 1771.378
2748.034, 1761.447
2749.962, 1739.709
2751.891, 1715.867
2753.819, 1711.408
2755.748, 1718.457
2757.676, 1707.517
2759.605, 1682.054
2761.533, 1674.372
2763.462, 1665.198
2765.390, 1657.951
2767.319, 1642.092
2769.247, 1650.364
2771.176, 1625.289
2773.104, 1577.607
2775.032, 1585.516
2776.961, 1590.666
2778.889, 1578.592
2780.818, 1566.616
2782.746, 1558.919
2784.675, 1554.099
2786.603, 1551.442
2788.532, 1531.065
2790.460, 1514.511
2792.389, 1497.873
2794.317, 1486.071
2796.246, 1479.502
2798.174, 1476.588
2800.103, 1483.764
2802.031, 1468.432
2803.959, 1455.131
2805.888, 1445.757
2807.816, 1428.326
2809.745, 1409.678
2811.673, 1385.371
2813.602, 1379.403
2815.530, 1385.411
2817.459, 1384.813
2819.387, 1374.097
2821.316, 1370.512
2823.244, 1358.995
2825.173, 1340.369
2827.101, 1326.724
2829.030, 1316.131
2830.958, 1307.202
2832.886, 1287.930
2834.815, 1285.497
2836.743, 1279.304
2838.672, 1265.059
2840.600, 1265.771
2842.529, 1256.039
2844.457, 1230.713
2846.386, 1239.927
2848.314, 1243.392
2850.243, 1228.284
2852.171, 1201.652
2854.100, 1202.111
2856.028, 1183.827
2857.957, 1144.885
2859.885, 1164.765
2861.813, 1160.025
2863.742, 1138.772
2865.670, 1143.377
2867.599, 1141.517
2869.527, 1128.855
2871.456, 1114.929
2873.384, 1121.137
2875.313, 1114.387
2877.241, 1098.029
2879.170, 1096.596
2881.098, 1072.059
2883.027, 1061.330
2884.955, 1084.522
2886.884, 1071.760
2888.812, 1060.814
2890.740, 1057.115
2892.669, 1045.059
2894.597, 1035.598
2896.526, 1025.204
2898.454, 1011.507
2900.383, 1004.636
2902.311, 990.1776
2904.240, 970.8762
2906.168, 959.6413
2908.097, 953.5157
2910.025, 947.7573
2911.954, 941.3989
2913.882, 949.2366
2915.811, 947.8501
2917.739, 938.4821
2919.667, 928.8751
2921.596, 921.8562
2923.524, 915.3670
2925.453, 903.6384
2927.381, 902.3615
2929.310, 899.8104
2931.238, 886.6879
2933.167, 862.1127
2935.095, 873.5048
2937.024, 866.8781
2938.952, 839.7469
2940.881, 837.6423
2942.809, 828.0949
2944.738, 821.1343
2946.666, 834.6507
2948.594, 823.7014
2950.523, 807.9150
2952.451, 797.9511
2954.380, 805.6508
2956.308, 803.4170
2958.237, 794.4440
2960.165, 781.7900
2962.094, 766.0623
2964.022, 761.7380
2965.951, 756.7797
2967.879, 742.9622
2969.808, 741.3292
2971.736, 729.4948
2973.665, 709.0633
2975.593, 703.5385
2977.521, 692.7759
2979.450, 688.7639
2981.378, 704.1619
2983.307, 709.1251
2985.235, 694.0766
2987.164, 677.9344
2989.092, 680.1755
2991.021, 678.9545
2992.949, 671.3670
2994.878, 665.8464
2996.806, 661.9000
2998.735, 664.4294
3000.663, 657.0463
3002.592, 640.1348
3004.520, 640.2744
3006.448, 636.8766
3008.377, 625.5720
3010.305, 609.1060
3012.234, 605.9133
3014.162, 600.7310
3016.091, 597.9191
3018.019, 599.5215
3019.948, 571.1507
3021.876, 564.7159
3023.805, 572.9096
3025.733, 576.0334
3027.662, 560.9077
3029.590, 550.2141
3031.519, 560.7648
3033.447, 564.9303
3035.375, 545.2684
3037.304, 528.7615
3039.232, 538.8204
3041.161, 534.8486
3043.089, 531.6174
3045.018, 529.6839
3046.946, 533.4440
3048.875, 517.8675
3050.803, 504.2104
3052.732, 499.5585
3054.660, 498.9335
3056.589, 499.1428
3058.517, 501.4684
3060.446, 497.6932
3062.374, 495.0286
3064.302, 480.9919
3066.231, 468.9959
3068.159, 477.8658
3070.088, 481.4512
3072.016, 465.7598
3073.945, 455.5217
3075.873, 462.9337
3077.802, 447.0041
3079.730, 451.0769
3081.659, 452.8829
3083.587, 430.5956
3085.516, 429.1990
3087.444, 431.0936
3089.373, 435.4304
3091.301, 445.1489
3093.229, 421.5917
3095.158, 410.0250
3097.086, 413.2799
3099.015, 410.5631
3100.943, 396.0135
3102.872, 389.7357
3104.800, 399.9823
3106.729, 396.4471
3108.657, 381.2939
3110.586, 378.9046
3112.514, 390.5582
3114.443, 385.9501
3116.371, 379.8563
3118.300, 366.2863
3120.228, 356.1932
3122.156, 355.5535
3124.085, 357.7090
3126.013, 354.5865
3127.942, 347.4117
3129.870, 351.8090
3131.799, 353.5165
3133.727, 341.9885
3135.656, 326.3652
3137.584, 328.5255
3139.513, 327.2827
3141.441, 326.0309
3143.370, 320.0724
3145.298, 326.4795
3147.227, 326.2818
3149.155, 314.2006
3151.083, 310.2704
3153.012, 315.3867
3154.940, 307.4077
3156.869, 298.6887
3158.797, 293.6602
3160.726, 297.2894
3162.654, 294.0914
3164.583, 291.2703
3166.511, 288.8347
3168.440, 282.5187
3170.368, 278.1858
3172.297, 287.8532
3174.225, 295.5324
3176.154, 279.9448
3178.082, 268.4219
3180.010, 272.9470
3181.939, 277.3528
3183.867, 264.3899
3185.796, 261.8607
3187.724, 265.4375
3189.653, 269.5658
3191.581, 264.2927
3193.510, 259.1570
3195.438, 245.8488
3197.367, 243.0640
3199.295, 248.7832
3201.224, 245.5330
3203.152, 241.7143
3205.081, 245.4335
3207.009, 258.3814
3208.938, 249.6839
3210.866, 236.1750
3212.794, 236.3967
3214.723, 243.9507
3216.651, 241.7856
3218.580, 230.6028
3220.508, 238.2718
3222.437, 247.1211
3224.365, 233.0681
3226.294, 238.4019
3228.222, 235.4811
3230.151, 227.3779
3232.079, 223.3544
3234.008, 227.8471
3235.936, 227.1459
3237.865, 227.7739
3239.793, 232.9288
3241.721, 226.5624
3243.650, 213.0793
3245.578, 206.7232
3247.507, 207.9251
3249.435, 206.0205
3251.364, 216.5218
3253.292, 213.3384
3255.221, 208.4886
3257.149, 211.3329
3259.078, 210.8712
3261.006, 214.1913
3262.935, 214.3816
3264.863, 211.3256
3266.792, 206.6250
3268.720, 200.1890
3270.648, 198.0803
3272.577, 199.3486
3274.505, 203.1530
3276.434, 185.6555
3278.362, 187.2340
3280.291, 193.9654
3282.219, 192.1198
3284.148, 190.7451
3286.076, 186.2715
3288.005, 180.7979
3289.933, 177.6532
3291.862, 178.9665
3293.790, 190.7685
3295.719, 188.8433
3297.647, 186.1813
3299.575, 188.7921
3301.504, 176.4320
3303.432, 173.6043
3305.361, 174.7688
3307.289, 174.0078
3309.218, 169.5537
3311.146, 175.8878
3313.075, 178.8608
3315.003, 175.9734
3316.932, 169.7880
3318.860, 167.6836
3320.789, 160.4075
3322.717, 167.4063
3324.646, 178.5928
3326.574, 177.5304
3328.502, 169.4917
3330.431, 162.7279
3332.359, 157.3861
3334.288, 155.7165
3336.216, 163.2269
3338.145, 168.6370
3340.073, 158.6629
3342.002, 150.4183
3343.930, 156.7754
3345.859, 168.5950
3347.787, 156.0257
3349.716, 149.5105
3351.644, 149.4870
3353.573, 143.6279
3355.501, 146.2823
3357.429, 148.9813
3359.358, 149.5048
3361.286, 149.0522
3363.215, 150.0025
3365.143, 146.7120
3367.072, 148.8163
3369.000, 147.6993
3370.929, 139.6496
3372.857, 134.5135
3374.786, 142.4234
3376.714, 143.3222
3378.643, 136.8485
3380.571, 130.8448
3382.500, 131.4448
3384.428, 136.1519
3386.356, 140.2169
3388.285, 142.1261
3390.213, 141.2382
3392.142, 140.1659
3394.070, 141.6819
3395.999, 134.1291
3397.927, 124.8331
3399.856, 130.0044
3401.784, 132.9931
3403.713, 137.5202
3405.641, 128.6093
3407.570, 115.3224
3409.498, 124.3235
3411.427, 122.0749
3413.355, 123.1297
3415.283, 125.2479
3417.212, 124.7881
3419.140, 121.6697
3421.069, 123.3298
3422.997, 121.4482
3424.926, 115.7367
3426.854, 113.0629
3428.783, 121.7260
3430.711, 120.2990
3432.640, 119.2768
3434.568, 116.4378
3436.497, 115.2831
3438.425, 123.6514
3440.354, 116.3507
3442.282, 112.7674
3444.210, 112.3649
3446.139, 114.3069
3448.067, 119.1909
3449.996, 111.1859
3451.924, 101.6221
3453.853, 101.9850
3455.781, 108.4001
3457.710, 110.1494
3459.638, 109.2000
3461.567, 100.1751
3463.495, 101.6070
3465.424, 109.4493
3467.352, 111.7867
3469.281, 117.5659
3471.209, 112.2067
3473.137, 109.4300
3475.066, 105.9217
3476.994, 97.35902
3478.923, 98.90677
3480.851, 95.77427
3482.780, 93.99061
3484.708, 95.28674
3486.637, 96.93492
3488.565, 92.14051
3490.494, 93.02836
3492.422, 97.99193
3494.351, 97.40429
3496.279, 95.54991
3498.208, 105.7559
3500.136, 104.1858
3502.064, 88.51582
3503.993, 91.61268
3505.921, 102.5248
3507.850, 98.67783
3509.778, 94.66172
3511.707, 101.7731
3513.635, 101.3680
3515.564, 97.35227
3517.492, 94.78121
3519.421, 90.83693
3521.349, 91.72811
3523.278, 93.19173
3525.206, 92.08407
3527.135, 91.01228
3529.063, 93.23135
3530.991, 93.69030
3532.920, 91.75739
3534.848, 91.50307
3536.777, 86.32474
3538.705, 79.70181
3540.634, 88.54536
3542.562, 79.37658
3544.491, 86.09569
3546.419, 85.93658
3548.348, 82.53992
3550.276, 87.44334
3552.205, 74.71870
3554.133, 78.95374
3556.062, 91.21593
3557.990, 94.33418
3559.918, 88.55662
3561.847, 88.15382
3563.775, 79.11354
3565.704, 72.76389
3567.632, 77.20667
3569.561, 83.68826
3571.489, 83.77083
3573.418, 77.51984
3575.346, 75.18136
3577.275, 75.40920
3579.203, 71.45328
3581.132, 70.98466
3583.060, 79.14287
3584.989, 80.81379
3586.917, 76.86301
3588.845, 72.08656
3590.774, 73.96127
3592.702, 77.20631
3594.631, 74.39386
3596.559, 75.38654
3598.488, 70.42639
3600.416, 72.45024
3602.345, 76.22887
3604.273, 74.65780
3606.202, 68.05276
3608.130, 70.89320
3610.059, 72.17094
3611.987, 68.25105
3613.916, 65.75065
3615.844, 69.83380
3617.772, 77.31731
3619.701, 66.96646
3621.629, 64.35702
3623.558, 69.68229
3625.486, 67.90064
3627.415, 66.59921
3629.343, 76.30753
3631.272, 69.84800
3633.200, 72.15553
3635.129, 65.12730
3637.057, 67.21697
3638.986, 73.73296
3640.914, 71.05788
3642.843, 63.78520
3644.771, 72.60664
3646.699, 61.14218
3648.628, 57.75813
3650.556, 63.82375
3652.485, 68.72134
3654.413, 71.66302
3656.342, 61.11131
3658.270, 54.25259
3660.199, 58.97840
3662.127, 66.26008
3664.056, 68.05324
3665.984, 64.14666
3667.913, 62.09815
3669.841, 62.56165
3671.770, 68.56061
3673.698, 67.40199
3675.626, 63.90699
3677.555, 65.59268
3679.483, 60.93974
3681.412, 58.93726
3683.340, 56.89400
3685.269, 57.48028
3687.197, 58.33653
3689.126, 56.73752
3691.054, 54.40200
3692.983, 62.67062
3694.911, 66.00491
3696.840, 58.77214
3698.768, 59.00867
3700.697, 60.47008
3702.625, 57.17118
3704.553, 65.23988
3706.482, 54.04573
3708.410, 61.69487
3710.339, 60.89554
3712.267, 54.05323
3714.196, 53.53860
3716.124, 61.57017
3718.053, 64.86261
3719.981, 55.76735
3721.910, 57.58546
3723.838, 57.28160
3725.767, 56.66761
3727.695, 56.39376
3729.624, 53.34174
3731.552, 53.23637
3733.480, 52.53435
3735.409, 51.72734
3737.337, 50.91931
3739.266, 49.69342
3741.194, 49.69776
3743.123, 53.39151
3745.051, 59.51332
3746.980, 58.90883
3748.908, 57.31145
3750.837, 50.96885
3752.765, 45.49030
3754.694, 45.02568
3756.622, 49.85817
3758.551, 59.41127
3760.479, 59.22584
3762.407, 54.15671
3764.336, 59.08765
3766.264, 55.85725
3768.193, 56.62246
3770.121, 67.34411
3772.050, 53.94314
3773.978, 47.55446
3775.907, 47.75779
3777.835, 51.81951
3779.764, 53.84561
3781.692, 53.54794
3783.621, 52.69035
3785.549, 51.98114
3787.478, 52.30996
3789.406, 46.00549
3791.334, 47.79646
3793.263, 52.52503
3795.191, 55.98762
3797.120, 54.10841
3799.048, 49.64884
3800.977, 52.77785
3802.905, 50.35912
3804.834, 51.27407
3806.762, 53.74033
3808.691, 55.95422
3810.619, 57.93034
3812.548, 56.91923
3814.476, 52.45856
3816.405, 52.36001
3818.333, 49.67101
3820.261, 49.80854
3822.190, 50.94729
3824.118, 54.81849
3826.047, 57.27664
3827.975, 55.38579
3829.904, 52.54992
3831.832, 55.18234
3833.761, 54.10846
3835.689, 59.05347
3837.618, 53.99520
3839.546, 49.18589
3841.475, 49.14602
3843.403, 52.68693
3845.332, 56.41379
3847.260, 53.77982
3849.188, 53.67484
3851.117, 52.74998
3853.045, 53.42909
3854.974, 53.57923
3856.902, 49.91407
3858.831, 52.29703
3860.759, 58.16565
3862.688, 49.68161
3864.616, 54.92033
3866.545, 44.87300
3868.473, 52.58156
3870.402, 50.39728
3872.330, 48.28259
3874.259, 51.70720
3876.187, 55.19463
3878.115, 53.40760
3880.044, 46.50610
3881.972, 42.86276
3883.901, 37.39756
3885.829, 40.69901
3887.758, 45.63438
3889.686, 45.62804
3891.615, 46.72577
3893.543, 49.76970
3895.472, 50.52172
3897.400, 56.26009
3899.329, 45.46973
3901.257, 46.45680
3903.186, 47.44761
3905.114, 50.72543
3907.042, 52.14022
3908.971, 49.99290
3910.899, 49.40002
3912.828, 50.70761
3914.756, 42.77676
3916.685, 41.13145
3918.613, 44.13865
3920.542, 49.52929
3922.470, 47.21228
3924.399, 50.04383
3926.327, 50.00822
3928.256, 51.43580
3930.184, 56.65098
3932.113, 50.50263
3934.041, 46.54997
3935.969, 51.61086
3937.898, 43.70562
3939.826, 48.39568
3941.755, 44.68246
3943.683, 41.38612
3945.612, 44.95694
3947.540, 49.10052
3949.469, 46.32169
3951.397, 38.70129
3953.326, 44.39127
3955.254, 42.17854
3957.183, 40.58630
3959.111, 42.02326
3961.040, 48.62715
3962.968, 48.52097
3964.896, 47.98090
3966.825, 50.52047
3968.753, 50.46659
3970.682, 46.85819
3972.610, 45.05462
3974.539, 46.90083
3976.467, 45.59417
3978.396, 41.99427
3980.324, 46.81365
3982.253, 43.54502
3984.181, 42.97355
3986.110, 44.22295
3988.038, 45.97178
3989.967, 47.52986
3991.895, 39.28827
3993.823, 40.68987
3995.752, 45.76887
3997.680, 43.57047
3999.609, 44.23532
4001.537, 42.61340
4003.466, 37.70002
4005.394, 41.41071
4007.323, 43.31177
4009.251, 42.69080
4011.180, 44.31675
4013.108, 40.36569
4015.037, 44.20243
4016.965, 38.49080
4018.894, 42.76028
4020.822, 41.61846
4022.750, 41.91413
4024.679, 43.00353
4026.607, 43.63507
4028.536, 42.57747
4030.464, 40.90065
4032.393, 40.40326
4034.321, 42.11660
4036.250, 44.20855
4038.178, 39.37369
4040.107, 32.95039
4042.035, 43.89085
4043.964, 45.54391
4045.892, 45.96159
4047.821, 49.47799
4049.749, 52.89277
4051.677, 41.44679
4053.606, 38.28234
4055.534, 43.80145
4057.463, 41.19110
4059.391, 38.20054
4061.320, 41.52279
4063.248, 38.65575
4065.177, 39.46819
4067.105, 40.11739
4069.034, 44.90901
4070.962, 47.50235
4072.891, 34.69386
4074.819, 37.48455
4076.748, 43.16596
4078.676, 44.33976
4080.604, 35.68486
4082.533, 33.93024
4084.461, 44.60030
4086.390, 41.57420
4088.318, 38.92312
4090.247, 38.81385
4092.175, 37.91409
4094.104, 36.55686
4096.032, 39.77842
4097.961, 45.01431
4099.889, 39.55079
4101.818, 40.90107
4103.746, 40.12777
4105.675, 40.05699
4107.603, 37.34517
4109.532, 36.42144
4111.460, 37.92645
4113.389, 38.06967
4115.317, 43.11909
4117.246, 43.33847
4119.174, 47.49426
4121.103, 30.93264
4123.031, 31.03946
4124.959, 37.52070
4126.888, 33.36522
4128.816, 36.14254
4130.745, 42.94027
4132.673, 36.65373
4134.602, 37.51744
4136.530, 40.64053
4138.458, 38.65265
4140.387, 37.91494
4142.315, 39.26797
4144.244, 39.70522
4146.172, 38.00486
4148.101, 33.66727
4150.029, 36.87665
4151.958, 34.06883
4153.886, 36.97020
4155.815, 38.07758
4157.743, 40.68750
4159.672, 34.81490
4161.600, 37.51922
4163.529, 37.38707
4165.457, 38.67130
4167.386, 41.23944
4169.314, 35.65349
4171.243, 30.48831
4173.171, 40.17891
4175.100, 38.10229
4177.028, 36.98424
4178.957, 46.76513
4180.885, 39.60194
4182.813, 32.66405
4184.742, 41.94074
4186.670, 43.81673
4188.599, 43.13755
4190.527, 43.08035
4192.456, 35.09713
4194.384, 32.25140
4196.313, 33.94795
4198.241, 48.05233
4200.169, 40.42770
4202.098, 42.01200
4204.026, 43.66911
4205.955, 39.80283
4207.883, 35.38620
4209.812, 35.53367
4211.740, 38.12112
4213.669, 37.99553
4215.597, 36.05757
4217.526, 33.20884
4219.454, 30.49621
4221.383, 33.92449
4223.311, 40.51862
4225.240, 42.75340
4227.168, 42.55639
4229.097, 37.43650
4231.025, 34.91915
4232.954, 36.89043
4234.882, 37.89608
4236.811, 36.86323
4238.739, 35.54390
4240.667, 43.40345
4242.596, 33.48997
4244.524, 35.34215
4246.453, 50.02933
4248.381, 40.80091
4250.310, 34.50617
4252.238, 34.82566
4254.167, 30.88266
4256.095, 49.79441
4258.023, 44.44041
4259.952, 42.65541
4261.880, 43.23909
4263.809, 41.67311
4265.737, 38.82575
4267.666, 36.36814
4269.594, 32.35478
4271.523, 35.88459
4273.451, 40.73642
4275.380, 40.06080
4277.308, 35.97073
4279.237, 36.51037
4281.165, 42.27365
4283.094, 42.43834
4285.022, 38.04361
4286.951, 30.15673
4288.879, 25.05068
4290.808, 31.81520
4292.736, 41.79708
4294.665, 32.64736
4296.593, 38.95688
4298.521, 41.34287
4300.450, 30.85035
4302.378, 34.14436
4304.307, 44.82481
4306.235, 36.74405
4308.164, 33.21263
4310.092, 42.31397
4312.021, 45.15689
4313.949, 44.42752
4315.877, 42.61590
4317.806, 36.43980
4319.734, 29.49360
4321.663, 42.44169
4323.591, 44.98629
4325.520, 36.79615
4327.448, 34.71665
4329.377, 43.94152
4331.305, 34.47994
4333.234, 30.84658
##END=



