##NAMES=Brewsterite-Ba
##RRUFFID=R070120
##IDEAL CHEMISTRY=Ba(Al_2_Si_6_)O_16_·5H_2_O
##LOCALITY=Strontian, North West Highlands (Argyllshire), Scotland, UK
##OWNER=RRUFF
##SOURCE=Michael Scott
##DESCRIPTION=Colorless crystal fragment
##STATUS=The identification of this mineral has been confirmed only by single crystal X-ray diffraction
##URL=https://www.rruff.net/odr/rruff_sample/R070120
##DIFFRACTION SAMPLE DESCRIPTION=Single crystal, powder profile is calculated
##CELL PARAMETERS=a: 6.7707 b: 17.504 c: 7.738 alpha: 90 beta: 94.455 gamma: 90 volume: 914.3 crystal system: monoclinic
##FILETYPE=Raman RAW
##RAMAN WAVELENGTH=785

158.1026, 5857.605
160.0310, 5955.749
161.9595, 6136.848
163.8880, 6286.574
165.8164, 6394.092
167.7449, 6470.917
169.6734, 6514.165
171.6018, 6539.342
173.5303, 6562.083
175.4588, 6580.776
177.3872, 6604.570
179.3157, 6636.886
181.2442, 6666.751
183.1726, 6685.927
185.1011, 6707.254
187.0296, 6740.055
188.9580, 6780.721
190.8865, 6826.615
192.8150, 6878.698
194.7434, 6903.611
196.6719, 6885.825
198.6004, 6876.083
200.5288, 6897.959
202.4573, 6926.958
204.3858, 6952.541
206.3142, 6972.279
208.2427, 6975.888
210.1712, 6964.416
212.0996, 6966.075
214.0281, 6986.932
215.9566, 7018.660
217.8850, 7067.086
219.8135, 7116.826
221.7420, 7152.133
223.6704, 7182.443
225.5989, 7230.301
227.5274, 7297.404
229.4558, 7347.993
231.3843, 7372.796
233.3128, 7386.528
235.2412, 7373.915
237.1697, 7368.100
239.0982, 7406.341
241.0266, 7459.946
242.9551, 7478.892
244.8836, 7455.160
246.8120, 7453.667
248.7405, 7501.346
250.6690, 7529.321
252.5974, 7524.816
254.5259, 7505.024
256.4544, 7475.942
258.3828, 7440.465
260.3113, 7395.934
262.2398, 7340.876
264.1682, 7310.937
266.0967, 7310.828
268.0252, 7315.131
269.9536, 7324.915
271.8821, 7329.877
273.8106, 7319.839
275.7390, 7307.950
277.6675, 7306.652
279.5960, 7311.373
281.5244, 7315.250
283.4529, 7320.768
285.3814, 7308.819
287.3098, 7258.305
289.2383, 7233.609
291.1668, 7278.564
293.0952, 7331.824
295.0237, 7353.864
296.9522, 7357.680
298.8806, 7363.379
300.8091, 7371.790
302.7376, 7387.157
304.6660, 7412.129
306.5945, 7430.689
308.5230, 7431.734
310.4514, 7440.415
312.3799, 7470.550
314.3084, 7503.433
316.2368, 7516.239
318.1653, 7520.642
320.0938, 7550.292
322.0222, 7611.684
323.9507, 7652.321
325.8792, 7635.782
327.8076, 7646.809
329.7361, 7718.089
331.6646, 7790.297
333.5930, 7832.707
335.5215, 7859.128
337.4500, 7879.359
339.3784, 7895.538
341.3069, 7921.705
343.2354, 7959.575
345.1638, 8002.440
347.0923, 8059.068
349.0208, 8102.174
350.9492, 8106.108
352.8777, 8128.204
354.8062, 8204.731
356.7346, 8301.683
358.6631, 8378.884
360.5916, 8437.689
362.5201, 8496.894
364.4485, 8557.400
366.3770, 8620.483
368.3055, 8689.715
370.2339, 8754.493
372.1624, 8800.177
374.0909, 8841.111
376.0193, 8899.926
377.9478, 8970.602
379.8763, 9025.664
381.8047, 9052.192
383.7332, 9064.452
385.6617, 9071.771
387.5901, 9068.028
389.5186, 9043.516
391.4471, 9014.958
393.3755, 8975.436
395.3040, 8945.179
397.2325, 8946.133
399.1609, 8940.823
401.0894, 8899.647
403.0179, 8847.259
404.9463, 8816.492
406.8748, 8803.009
408.8033, 8781.614
410.7317, 8747.867
412.6602, 8721.721
414.5887, 8697.079
416.5172, 8674.022
418.4456, 8674.943
420.3741, 8680.972
422.3026, 8658.245
424.2310, 8615.126
426.1595, 8578.276
428.0880, 8548.312
430.0164, 8506.074
431.9449, 8444.377
433.8734, 8402.688
435.8018, 8389.561
437.7303, 8367.515
439.6588, 8331.096
441.5872, 8299.893
443.5157, 8271.670
445.4442, 8248.271
447.3726, 8236.091
449.3011, 8220.187
451.2296, 8184.713
453.1580, 8145.113
455.0865, 8147.914
457.0150, 8188.376
458.9434, 8208.574
460.8719, 8196.421
462.8004, 8215.582
464.7288, 8302.492
466.6573, 8413.215
468.5858, 8499.574
470.5142, 8557.279
472.4427, 8602.232
474.3712, 8641.162
476.2996, 8688.464
478.2281, 8748.502
480.1566, 8800.236
482.0850, 8837.528
484.0135, 8887.623
485.9420, 8958.027
487.8704, 8992.257
489.7989, 8978.356
491.7274, 8950.241
493.6558, 8904.292
495.5843, 8847.777
497.5128, 8781.080
499.4412, 8699.761
501.3697, 8594.290
503.2982, 8475.266
505.2266, 8362.325
507.1551, 8254.880
509.0836, 8129.169
511.0120, 7988.560
512.9405, 7885.181
514.8690, 7840.953
516.7974, 7780.905
518.7259, 7678.473
520.6544, 7579.975
522.5828, 7504.318
524.5113, 7448.751
526.4398, 7408.599
528.3682, 7385.874
530.2967, 7389.245
532.2252, 7390.281
534.1536, 7352.510
536.0821, 7292.157
538.0106, 7254.718
539.9390, 7250.885
541.8675, 7254.307
543.7960, 7247.973
545.7244, 7233.515
547.6529, 7220.884
549.5814, 7218.605
551.5098, 7240.045
553.4383, 7261.996
555.3668, 7251.613
557.2952, 7227.040
559.2237, 7217.039
561.1522, 7216.934
563.0806, 7211.529
565.0091, 7203.486
566.9376, 7188.629
568.8660, 7157.806
570.7945, 7132.608
572.7230, 7129.810
574.6514, 7127.600
576.5799, 7110.612
578.5084, 7093.377
580.4368, 7072.434
582.3653, 7065.939
584.2938, 7089.243
586.2222, 7086.921
588.1507, 7042.271
590.0792, 7005.379
592.0076, 6989.161
593.9361, 6971.979
595.8646, 6950.642
597.7930, 6930.713
599.7215, 6915.346
601.6500, 6908.379
603.5784, 6902.023
605.5069, 6894.248
607.4354, 6884.039
609.3638, 6855.600
611.2923, 6824.576
613.2208, 6805.254
615.1492, 6797.613
617.0777, 6800.933
619.0062, 6808.565
620.9346, 6814.146
622.8631, 6805.425
624.7916, 6782.464
626.7200, 6762.989
628.6485, 6745.184
630.5770, 6736.440
632.5054, 6745.723
634.4339, 6749.468
636.3624, 6735.704
638.2908, 6727.433
640.2193, 6724.496
642.1478, 6700.564
644.0762, 6667.454
646.0047, 6650.982
647.9332, 6653.236
649.8616, 6663.950
651.7901, 6674.738
653.7186, 6681.413
655.6470, 6652.194
657.5755, 6573.645
659.5040, 6528.443
661.4324, 6526.313
663.3609, 6527.739
665.2894, 6530.837
667.2178, 6533.536
669.1463, 6536.121
671.0748, 6533.653
673.0032, 6527.125
674.9317, 6509.092
676.8602, 6469.407
678.7886, 6426.869
680.7171, 6387.309
682.6456, 6365.255
684.5740, 6378.739
686.5025, 6404.583
688.4310, 6413.210
690.3594, 6410.031
692.2879, 6404.955
694.2164, 6397.100
696.1448, 6387.249
698.0733, 6378.191
700.0018, 6377.777
701.9302, 6384.181
703.8587, 6376.264
705.7872, 6350.428
707.7156, 6331.692
709.6441, 6323.320
711.5726, 6317.152
713.5010, 6302.600
715.4295, 6311.381
717.3580, 6375.752
719.2864, 6417.485
721.2149, 6396.531
723.1434, 6367.987
725.0718, 6360.203
727.0003, 6354.237
728.9288, 6332.281
730.8572, 6311.273
732.7857, 6310.420
734.7142, 6318.624
736.6426, 6320.047
738.5711, 6320.596
740.4996, 6332.892
742.4280, 6352.448
744.3565, 6368.169
746.2850, 6380.633
748.2134, 6386.151
750.1419, 6383.976
752.0704, 6373.481
753.9988, 6345.513
755.9273, 6350.577
757.8558, 6417.242
759.7842, 6436.124
761.7127, 6383.799
763.6412, 6361.079
765.5696, 6386.999
767.4981, 6404.262
769.4266, 6402.174
771.3550, 6398.914
773.2835, 6392.628
775.2120, 6390.152
777.1404, 6407.887
779.0689, 6424.788
780.9974, 6417.433
782.9259, 6396.726
784.8544, 6373.335
786.7828, 6364.779
788.7113, 6381.500
790.6398, 6393.309
792.5682, 6384.332
794.4967, 6365.727
796.4252, 6337.927
798.3536, 6300.568
800.2821, 6258.157
802.2106, 6223.328
804.1390, 6209.860
806.0675, 6206.100
807.9960, 6201.727
809.9244, 6200.444
811.8529, 6181.424
813.7814, 6144.859
815.7098, 6130.259
817.6383, 6138.147
819.5668, 6131.510
821.4952, 6106.942
823.4237, 6087.367
825.3522, 6078.575
827.2806, 6068.142
829.2091, 6047.972
831.1376, 6040.254
833.0660, 6055.175
834.9945, 6054.577
836.9230, 6026.364
838.8514, 6004.429
840.7799, 6003.906
842.7084, 6005.859
844.6368, 5994.420
846.5653, 5981.079
848.4938, 5974.369
850.4222, 5973.990
852.3507, 5975.016
854.2792, 5968.030
856.2076, 5960.808
858.1361, 5964.351
860.0646, 5972.340
861.9930, 5977.678
863.9215, 5980.808
865.8500, 5989.885
867.7784, 6011.011
869.7069, 6014.357
871.6354, 5984.044
873.5638, 5960.043
875.4923, 5954.781
877.4208, 5949.894
879.3492, 5956.033
881.2777, 5970.029
883.2062, 5967.258
885.1346, 5965.890
887.0631, 5989.251
888.9916, 6013.344
890.9200, 6024.066
892.8485, 6017.739
894.7770, 5986.813
896.7054, 5967.694
898.6339, 5992.204
900.5624, 6023.992
902.4908, 6013.346
904.4193, 5977.388
906.3478, 5968.816
908.2762, 5990.034
910.2047, 6002.396
912.1332, 5992.494
914.0616, 5995.000
915.9901, 6026.413
917.9186, 6053.519
919.8470, 6057.264
921.7755, 6055.439
923.7040, 6068.447
925.6324, 6072.680
927.5609, 6052.249
929.4894, 6051.613
931.4178, 6073.303
933.3463, 6078.163
935.2748, 6076.452
937.2032, 6082.632
939.1317, 6097.822
941.0602, 6122.917
942.9886, 6128.314
944.9171, 6113.985
946.8456, 6119.955
948.7740, 6139.033
950.7025, 6143.075
952.6310, 6143.131
954.5594, 6154.315
956.4879, 6167.017
958.4164, 6171.632
960.3448, 6182.000
962.2733, 6194.966
964.2018, 6193.139
966.1302, 6210.095
968.0587, 6240.741
969.9872, 6244.064
971.9156, 6242.682
973.8441, 6248.080
975.7726, 6267.058
977.7010, 6301.469
979.6295, 6328.490
981.5580, 6363.806
983.4865, 6389.817
985.4149, 6375.124
987.3434, 6363.596
989.2719, 6375.783
991.2003, 6395.188
993.1288, 6422.268
995.0573, 6451.561
996.9857, 6483.105
998.9142, 6499.533
1000.843, 6485.778
1002.771, 6493.049
1004.700, 6538.934
1006.628, 6577.695
1008.557, 6596.181
1010.485, 6613.545
1012.413, 6650.047
1014.342, 6697.931
1016.270, 6728.378
1018.199, 6746.178
1020.127, 6777.782
1022.056, 6809.431
1023.984, 6823.312
1025.913, 6836.416
1027.841, 6852.243
1029.770, 6870.676
1031.698, 6905.635
1033.627, 6945.555
1035.555, 6971.759
1037.484, 7009.235
1039.412, 7065.706
1041.340, 7131.564
1043.269, 7209.766
1045.197, 7261.208
1047.126, 7276.156
1049.054, 7279.838
1050.983, 7288.956
1052.911, 7332.814
1054.840, 7393.410
1056.768, 7429.644
1058.697, 7447.402
1060.625, 7455.396
1062.554, 7479.526
1064.482, 7544.511
1066.411, 7610.710
1068.339, 7692.890
1070.267, 7792.833
1072.196, 7834.480
1074.124, 7844.623
1076.053, 7888.098
1077.981, 7961.527
1079.910, 8050.152
1081.838, 8132.155
1083.767, 8193.798
1085.695, 8250.552
1087.624, 8312.225
1089.552, 8381.513
1091.481, 8466.082
1093.409, 8543.927
1095.338, 8590.652
1097.266, 8635.482
1099.194, 8716.820
1101.123, 8803.560
1103.051, 8851.926
1104.980, 8900.149
1106.908, 8985.602
1108.837, 9055.313
1110.765, 9077.216
1112.694, 9113.590
1114.622, 9185.420
1116.551, 9253.771
1118.479, 9310.319
1120.408, 9363.367
1122.336, 9408.860
1124.265, 9477.116
1126.193, 9577.925
1128.121, 9673.296
1130.050, 9752.760
1131.978, 9838.741
1133.907, 9937.588
1135.835, 10008.59
1137.764, 10052.70
1139.692, 10101.24
1141.621, 10160.17
1143.549, 10252.65
1145.478, 10365.13
1147.406, 10464.10
1149.335, 10542.43
1151.263, 10601.98
1153.192, 10654.06
1155.120, 10685.14
1157.048, 10722.17
1158.977, 10801.98
1160.905, 10885.21
1162.834, 10949.17
1164.762, 11008.71
1166.691, 11058.89
1168.619, 11113.58
1170.548, 11180.34
1172.476, 11271.52
1174.405, 11401.75
1176.333, 11507.21
1178.262, 11569.49
1180.190, 11632.31
1182.119, 11701.15
1184.047, 11764.65
1185.975, 11822.13
1187.904, 11891.53
1189.832, 11972.50
1191.761, 12043.55
1193.689, 12107.70
1195.618, 12195.51
1197.546, 12294.90
1199.475, 12365.26
1201.403, 12423.39
1203.332, 12498.93
1205.260, 12580.28
1207.189, 12651.47
1209.117, 12725.96
1211.046, 12825.06
1212.974, 12915.41
1214.902, 12956.61
1216.831, 13025.05
1218.759, 13164.11
1220.688, 13286.14
1222.616, 13364.70
1224.545, 13441.75
1226.473, 13526.82
1228.402, 13591.96
1230.330, 13632.92
1232.259, 13716.07
1234.187, 13840.87
1236.116, 13938.82
1238.044, 14009.76
1239.973, 14080.78
1241.901, 14145.81
1243.829, 14178.43
1245.758, 14208.54
1247.686, 14269.21
1249.615, 14350.38
1251.543, 14455.93
1253.472, 14565.48
1255.400, 14667.26
1257.329, 14766.21
1259.257, 14864.03
1261.186, 14943.97
1263.114, 14994.99
1265.043, 15090.85
1266.971, 15240.84
1268.900, 15358.12
1270.828, 15441.59
1272.756, 15589.83
1274.685, 15790.18
1276.613, 15976.51
1278.542, 16156.80
1280.470, 16331.93
1282.399, 16506.97
1284.327, 16678.27
1286.256, 16880.73
1288.184, 17171.28
1290.113, 17465.57
1292.041, 17680.62
1293.970, 17933.52
1295.898, 18309.70
1297.827, 18674.29
1299.755, 18979.95
1301.683, 19288.64
1303.612, 19591.96
1305.540, 19990.60
1307.469, 20477.91
1309.397, 20905.84
1311.326, 21299.86
1313.254, 21756.98
1315.183, 22245.76
1317.111, 22736.38
1319.040, 23201.07
1320.968, 23610.14
1322.897, 24020.82
1324.825, 24453.04
1326.754, 24884.03
1328.682, 25319.78
1330.610, 25752.90
1332.539, 26175.78
1334.467, 26577.85
1336.396, 26965.42
1338.324, 27339.21
1340.253, 27700.57
1342.181, 28086.71
1344.110, 28469.42
1346.038, 28788.80
1347.967, 29080.16
1349.895, 29364.19
1351.824, 29640.33
1353.752, 29919.22
1355.681, 30178.92
1357.609, 30427.49
1359.537, 30575.65
1361.466, 30596.93
1363.394, 30725.05
1365.323, 30955.68
1367.251, 31054.06
1369.180, 31079.31
1371.108, 31214.73
1373.037, 31362.59
1374.965, 31388.84
1376.894, 31358.46
1378.822, 31293.03
1380.751, 31225.53
1382.679, 31165.85
1384.608, 31114.64
1386.536, 31077.22
1388.464, 30998.39
1390.393, 30880.14
1392.321, 30830.22
1394.250, 30820.33
1396.178, 30737.17
1398.107, 30631.11
1400.035, 30616.63
1401.964, 30553.56
1403.892, 30261.77
1405.821, 30010.23
1407.749, 29945.76
1409.678, 29830.48
1411.606, 29633.25
1413.535, 29383.03
1415.463, 29100.65
1417.391, 28983.03
1419.320, 28951.67
1421.248, 28810.23
1423.177, 28594.66
1425.105, 28289.57
1427.034, 28020.61
1428.962, 27913.22
1430.891, 27778.36
1432.819, 27549.57
1434.748, 27302.71
1436.676, 27033.80
1438.605, 26843.19
1440.533, 26712.20
1442.462, 26547.87
1444.390, 26352.33
1446.318, 26108.51
1448.247, 25873.10
1450.175, 25692.73
1452.104, 25528.86
1454.032, 25385.75
1455.961, 25209.81
1457.889, 24974.86
1459.818, 24802.68
1461.746, 24684.84
1463.675, 24544.60
1465.603, 24383.61
1467.532, 24200.75
1469.460, 24002.37
1471.389, 23767.22
1473.317, 23579.18
1475.245, 23488.79
1477.174, 23390.51
1479.102, 23263.12
1481.031, 23146.85
1482.959, 23041.16
1484.888, 22932.84
1486.816, 22835.55
1488.745, 22821.35
1490.673, 22752.12
1492.602, 22469.83
1494.530, 22298.28
1496.459, 22379.54
1498.387, 22359.04
1500.316, 22182.93
1502.244, 22005.06
1504.172, 21843.62
1506.101, 21752.73
1508.029, 21709.57
1509.958, 21722.84
1511.886, 21704.85
1513.815, 21595.25
1515.743, 21512.33
1517.672, 21482.80
1519.600, 21459.79
1521.529, 21429.05
1523.457, 21309.11
1525.386, 21152.02
1527.314, 21028.23
1529.243, 20961.62
1531.171, 21043.53
1533.100, 21038.21
1535.028, 20853.65
1536.957, 20782.81
1538.885, 20840.20
1540.813, 20775.53
1542.742, 20639.89
1544.670, 20572.85
1546.599, 20541.32
1548.527, 20526.52
1550.456, 20512.21
1552.384, 20513.40
1554.313, 20440.60
1556.241, 20287.07
1558.170, 20160.03
1560.098, 20070.89
1562.027, 20056.69
1563.955, 20055.06
1565.884, 20009.11
1567.812, 19938.40
1569.740, 19820.41
1571.669, 19755.97
1573.597, 19755.68
1575.526, 19746.42
1577.454, 19722.94
1579.383, 19675.23
1581.311, 19607.60
1583.240, 19526.33
1585.168, 19420.90
1587.097, 19240.91
1589.025, 19152.29
1590.954, 19172.26
1592.882, 19181.31
1594.811, 19166.72
1596.739, 19055.59
1598.667, 18958.17
1600.596, 19000.30
1602.524, 18988.23
1604.453, 18821.13
1606.381, 18720.98
1608.310, 18695.70
1610.238, 18676.73
1612.167, 18657.07
1614.095, 18627.36
1616.024, 18582.29
1617.952, 18508.87
1619.881, 18455.84
1621.809, 18442.66
1623.738, 18385.49
1625.666, 18289.00
1627.594, 18158.30
1629.523, 18047.22
1631.451, 18049.12
1633.380, 18043.51
1635.308, 17994.08
1637.237, 17892.83
1639.165, 17741.79
1641.094, 17641.48
1643.022, 17587.28
1644.951, 17597.64
1646.879, 17601.04
1648.808, 17561.82
1650.736, 17465.54
1652.665, 17306.08
1654.593, 17180.55
1656.521, 17095.21
1658.450, 17065.75
1660.378, 17039.80
1662.307, 16948.84
1664.235, 16870.78
1666.164, 16839.27
1668.092, 16711.56
1670.021, 16508.26
1671.949, 16468.09
1673.878, 16477.01
1675.806, 16338.90
1677.735, 16236.95
1679.663, 16309.20
1681.592, 16250.17
1683.520, 16047.81
1685.448, 15947.63
1687.377, 15892.70
1689.305, 15746.39
1691.234, 15617.55
1693.162, 15593.94
1695.091, 15567.98
1697.019, 15528.10
1698.948, 15433.40
1700.876, 15317.08
1702.805, 15260.14
1704.733, 15209.86
1706.662, 15112.59
1708.590, 15054.03
1710.519, 15057.08
1712.447, 14991.75
1714.375, 14886.12
1716.304, 14830.02
1718.232, 14765.60
1720.161, 14625.39
1722.089, 14526.34
1724.018, 14496.88
1725.946, 14491.64
1727.875, 14489.84
1729.803, 14424.24
1731.732, 14336.67
1733.660, 14243.04
1735.589, 14169.35
1737.517, 14126.00
1739.446, 14063.88
1741.374, 13992.41
1743.302, 13934.89
1745.231, 13883.22
1747.159, 13833.33
1749.088, 13784.87
1751.016, 13737.68
1752.945, 13694.79
1754.873, 13663.87
1756.802, 13689.16
1758.730, 13680.16
1760.659, 13584.38
1762.587, 13495.54
1764.516, 13430.76
1766.444, 13416.89
1768.373, 13420.95
1770.301, 13384.99
1772.229, 13361.21
1774.158, 13373.28
1776.086, 13347.26
1778.015, 13287.43
1779.943, 13270.56
1781.872, 13265.58
1783.800, 13233.14
1785.729, 13210.97
1787.657, 13207.45
1789.586, 13216.13
1791.514, 13228.29
1793.443, 13217.22
1795.371, 13205.94
1797.300, 13214.61
1799.228, 13220.30
1801.156, 13221.19
1803.085, 13237.39
1805.013, 13252.93
1806.942, 13242.90
1808.870, 13218.69
1810.799, 13172.50
1812.727, 13179.30
1814.656, 13227.70
1816.584, 13259.11
1818.513, 13265.58
1820.441, 13219.77
1822.370, 13196.67
1824.298, 13209.21
1826.227, 13215.94
1828.155, 13206.89
1830.083, 13145.37
1832.012, 13096.62
1833.940, 13091.88
1835.869, 13130.72
1837.797, 13198.48
1839.726, 13137.96
1841.654, 13073.13
1843.583, 13139.32
1845.511, 13179.67
1847.440, 13161.20
1849.368, 13102.11
1851.297, 13035.42
1853.225, 13043.17
1855.154, 13043.61
1857.082, 12992.42
1859.010, 12984.88
1860.939, 13007.96
1862.867, 12955.02
1864.796, 12916.74
1866.724, 12971.88
1868.653, 12961.67
1870.581, 12862.08
1872.510, 12832.50
1874.438, 12825.30
1876.367, 12782.89
1878.295, 12723.69
1880.224, 12656.29
1882.152, 12559.95
1884.081, 12463.51
1886.009, 12464.90
1887.938, 12480.73
1889.866, 12477.23
1891.794, 12395.60
1893.723, 12263.66
1895.651, 12203.98
1897.580, 12158.10
1899.508, 12085.39
1901.437, 12022.79
1903.365, 11967.46
1905.294, 11917.66
1907.222, 11857.96
1909.151, 11753.94
1911.079, 11659.25
1913.008, 11578.63
1914.936, 11503.81
1916.865, 11431.14
1918.793, 11371.06
1920.721, 11261.65
1922.650, 11084.47
1924.578, 10981.67
1926.507, 10917.92
1928.435, 10817.10
1930.364, 10720.77
1932.292, 10655.18
1934.221, 10545.09
1936.149, 10412.15
1938.078, 10333.23
1940.006, 10279.67
1941.935, 10239.41
1943.863, 10131.69
1945.792, 9980.050
1947.720, 9826.953
1949.648, 9695.158
1951.577, 9630.184
1953.505, 9527.724
1955.434, 9386.416
1957.362, 9271.302
1959.291, 9172.373
1961.219, 9093.769
1963.148, 8994.462
1965.076, 8871.888
1967.005, 8793.666
1968.933, 8702.299
1970.862, 8541.274
1972.790, 8406.021
1974.719, 8307.541
1976.647, 8225.361
1978.575, 8120.131
1980.504, 7945.549
1982.432, 7818.870
1984.361, 7749.192
1986.289, 7665.270
1988.218, 7577.954
1990.146, 7495.633
1992.075, 7398.854
1994.003, 7285.347
1995.932, 7171.433
1997.860, 7085.289
1999.789, 7052.988
2001.717, 6971.103
2003.646, 6842.146
2005.574, 6766.119
2007.502, 6699.809
2009.431, 6604.472
2011.359, 6546.743
2013.288, 6518.150
2015.216, 6439.077
2017.145, 6348.420
2019.073, 6266.488
2021.002, 6165.879
2022.930, 6068.208
2024.859, 6056.598
2026.787, 6026.893
2028.716, 5914.547
2030.644, 5837.148
2032.573, 5790.769
2034.501, 5744.488
2036.429, 5692.621
2038.358, 5633.220
2040.286, 5558.068
2042.215, 5487.352
2044.143, 5475.559
2046.072, 5434.583
2048.000, 5331.564
2049.929, 5261.944
2051.857, 5219.951
2053.786, 5200.601
2055.714, 5173.559
2057.643, 5132.354
2059.571, 5147.432
2061.500, 5139.856
2063.428, 4993.377
2065.356, 4929.542
2067.285, 4954.674
2069.213, 4889.433
2071.142, 4818.329
2073.070, 4803.529
2074.999, 4756.701
2076.927, 4690.075
2078.856, 4676.743
2080.784, 4671.138
2082.713, 4657.125
2084.641, 4622.404
2086.570, 4581.479
2088.498, 4559.083
2090.427, 4530.162
2092.355, 4495.658
2094.283, 4441.579
2096.212, 4394.086
2098.140, 4391.818
2100.069, 4374.477
2101.997, 4335.694
2103.926, 4303.960
2105.854, 4272.070
2107.783, 4231.195
2109.711, 4208.016
2111.640, 4195.456
2113.568, 4158.775
2115.497, 4117.964
2117.425, 4073.407
2119.354, 4078.385
2121.282, 4100.874
2123.210, 4067.660
2125.139, 4054.662
2127.067, 4063.671
2128.996, 4006.031
2130.924, 3955.669
2132.853, 3958.485
2134.781, 3938.359
2136.710, 3915.204
2138.638, 3901.866
2140.567, 3890.657
2142.495, 3891.622
2144.424, 3860.353
2146.352, 3819.443
2148.281, 3817.985
2150.209, 3791.137
2152.137, 3745.750
2154.066, 3741.536
2155.994, 3739.321
2157.923, 3720.253
2159.851, 3697.842
2161.780, 3680.318
2163.708, 3664.289
2165.637, 3656.288
2167.565, 3675.676
2169.494, 3678.077
2171.422, 3649.800
2173.351, 3591.826
2175.279, 3562.398
2177.208, 3553.533
2179.136, 3531.994
2181.064, 3504.671
2182.993, 3487.329
2184.921, 3499.096
2186.850, 3503.839
2188.778, 3478.503
2190.707, 3453.560
2192.635, 3431.232
2194.564, 3413.855
2196.492, 3396.828
2198.421, 3374.275
2200.349, 3363.854
2202.278, 3351.096
2204.206, 3342.883
2206.135, 3329.251
2208.063, 3319.633
2209.991, 3314.876
2211.920, 3291.019
2213.848, 3263.593
2215.777, 3281.191
2217.705, 3294.899
2219.634, 3259.334
2221.562, 3233.075
2223.491, 3217.907
2225.419, 3224.688
2227.348, 3214.920
2229.276, 3188.861
2231.205, 3192.499
2233.133, 3183.224
2235.062, 3148.765
2236.990, 3156.018
2238.918, 3169.826
2240.847, 3124.472
2242.775, 3111.843
2244.704, 3118.164
2246.632, 3092.163
2248.561, 3075.456
2250.489, 3067.652
2252.418, 3090.075
2254.346, 3103.805
2256.275, 3037.595
2258.203, 3023.022
2260.132, 3037.545
2262.060, 3029.358
2263.989, 3016.098
2265.917, 3001.619
2267.845, 3001.220
2269.774, 2991.017
2271.702, 2956.943
2273.631, 2953.688
2275.559, 2953.999
2277.488, 2927.476
2279.416, 2909.869
2281.345, 2896.776
2283.273, 2901.681
2285.202, 2909.372
2287.130, 2888.689
2289.059, 2858.097
2290.987, 2843.197
2292.916, 2836.536
2294.844, 2847.195
2296.772, 2855.544
2298.701, 2822.174
2300.629, 2805.564
2302.558, 2804.695
2304.486, 2785.539
2306.415, 2768.217
2308.343, 2762.281
2310.272, 2757.178
2312.200, 2747.756
2314.129, 2721.341
2316.057, 2720.805
2317.986, 2711.892
2319.914, 2680.091
2321.843, 2660.201
2323.771, 2654.057
2325.699, 2658.905
2327.628, 2659.472
2329.556, 2666.578
2331.485, 2639.942
2333.413, 2636.113
2335.342, 2662.751
2337.270, 2630.292
2339.199, 2601.778
2341.127, 2585.738
2343.056, 2574.498
2344.984, 2573.106
2346.913, 2597.152
2348.841, 2598.591
2350.770, 2577.861
2352.698, 2551.378
2354.626, 2543.962
2356.555, 2543.412
2358.483, 2528.403
2360.412, 2523.003
2362.340, 2527.322
2364.269, 2510.904
2366.197, 2487.325
2368.126, 2477.405
2370.054, 2478.719
2371.983, 2474.679
2373.911, 2461.330
2375.840, 2443.221
2377.768, 2424.352
2379.697, 2405.305
2381.625, 2394.203
2383.553, 2385.538
2385.482, 2375.754
2387.410, 2359.469
2389.339, 2358.453
2391.267, 2355.865
2393.196, 2342.062
2395.124, 2330.485
2397.053, 2361.526
2398.981, 2369.897
2400.910, 2326.615
2402.838, 2310.164
2404.767, 2306.598
2406.695, 2300.807
2408.624, 2281.356
2410.552, 2262.889
2412.480, 2272.361
2414.409, 2255.228
2416.337, 2230.310
2418.266, 2236.686
2420.194, 2224.376
2422.123, 2204.880
2424.051, 2230.969
2425.980, 2225.377
2427.908, 2191.370
2429.837, 2186.337
2431.765, 2183.396
2433.694, 2174.945
2435.622, 2161.141
2437.551, 2142.076
2439.479, 2119.056
2441.407, 2142.158
2443.336, 2153.829
2445.264, 2122.756
2447.193, 2108.978
2449.121, 2106.492
2451.050, 2115.831
2452.978, 2104.753
2454.907, 2092.882
2456.835, 2095.451
2458.764, 2074.589
2460.692, 2052.630
2462.621, 2050.258
2464.549, 2040.344
2466.478, 2030.573
2468.406, 2031.324
2470.334, 2012.372
2472.263, 1988.085
2474.191, 1994.504
2476.120, 1982.107
2478.048, 1960.621
2479.977, 1966.072
2481.905, 1980.271
2483.834, 1989.263
2485.762, 1949.575
2487.691, 1933.028
2489.619, 1942.242
2491.548, 1944.161
2493.476, 1931.643
2495.405, 1911.293
2497.333, 1890.253
2499.261, 1872.739
2501.190, 1864.149
2503.118, 1871.685
2505.047, 1879.620
2506.975, 1873.500
2508.904, 1832.072
2510.832, 1825.908
2512.761, 1864.717
2514.689, 1826.842
2516.618, 1795.221
2518.546, 1813.990
2520.475, 1808.433
2522.403, 1792.637
2524.332, 1796.662
2526.260, 1779.895
2528.188, 1752.628
2530.117, 1747.252
2532.045, 1762.554
2533.974, 1761.682
2535.902, 1763.147
2537.831, 1754.510
2539.759, 1736.316
2541.688, 1713.157
2543.616, 1705.119
2545.545, 1704.011
2547.473, 1716.186
2549.402, 1699.363
2551.330, 1687.095
2553.259, 1700.611
2555.187, 1683.187
2557.115, 1663.758
2559.044, 1645.138
2560.972, 1624.118
2562.901, 1624.998
2564.829, 1654.345
2566.758, 1655.468
2568.686, 1633.877
2570.615, 1631.696
2572.543, 1628.078
2574.472, 1606.563
2576.400, 1588.605
2578.329, 1586.652
2580.257, 1582.027
2582.186, 1574.398
2584.114, 1549.820
2586.042, 1540.630
2587.971, 1563.406
2589.899, 1544.570
2591.828, 1521.002
2593.756, 1521.204
2595.685, 1520.883
2597.613, 1505.443
2599.542, 1490.561
2601.470, 1491.862
2603.399, 1501.232
2605.327, 1499.749
2607.256, 1484.061
2609.184, 1461.239
2611.113, 1447.991
2613.041, 1461.593
2614.969, 1454.151
2616.898, 1442.178
2618.826, 1444.584
2620.755, 1436.244
2622.683, 1427.445
2624.612, 1444.723
2626.540, 1428.788
2628.469, 1405.647
2630.397, 1399.705
2632.326, 1391.957
2634.254, 1379.699
2636.183, 1366.171
2638.111, 1367.716
2640.040, 1372.607
2641.968, 1383.485
2643.896, 1370.647
2645.825, 1348.060
2647.753, 1333.832
2649.682, 1335.818
2651.610, 1338.384
2653.539, 1345.241
2655.467, 1331.891
2657.396, 1315.190
2659.324, 1312.896
2661.253, 1310.115
2663.181, 1300.222
2665.110, 1283.330
2667.038, 1282.737
2668.967, 1288.483
2670.895, 1281.096
2672.823, 1279.754
2674.752, 1278.913
2676.680, 1271.008
2678.609, 1257.516
2680.537, 1225.991
2682.466, 1222.180
2684.394, 1248.283
2686.323, 1236.497
2688.251, 1225.292
2690.180, 1214.687
2692.108, 1205.618
2694.037, 1215.889
2695.965, 1208.860
2697.894, 1175.580
2699.822, 1168.394
2701.750, 1154.305
2703.679, 1154.573
2705.607, 1152.613
2707.536, 1144.675
2709.464, 1144.535
2711.393, 1144.297
2713.321, 1139.747
2715.250, 1128.024
2717.178, 1118.563
2719.107, 1120.167
2721.035, 1112.288
2722.964, 1098.115
2724.892, 1083.955
2726.821, 1084.488
2728.749, 1098.632
2730.677, 1095.684
2732.606, 1083.583
2734.534, 1071.014
2736.463, 1067.408
2738.391, 1060.583
2740.320, 1039.919
2742.248, 1026.875
2744.177, 1039.270
2746.105, 1035.609
2748.034, 1026.562
2749.962, 1020.534
2751.891, 1039.244
2753.819, 1039.777
2755.748, 1012.401
2757.676, 1008.471
2759.604, 1000.568
2761.533, 990.5334
2763.461, 985.6889
2765.390, 977.2750
2767.318, 973.5795
2769.247, 975.1902
2771.175, 964.5009
2773.104, 954.5772
2775.032, 959.1923
2776.961, 949.3918
2778.889, 941.0219
2780.818, 941.3394
2782.746, 924.9045
2784.675, 922.5192
2786.603, 931.2760
2788.531, 937.1214
2790.460, 928.2812
2792.388, 911.9460
2794.317, 905.4460
2796.245, 915.4984
2798.174, 911.2155
2800.102, 895.9849
2802.031, 901.0175
2803.959, 893.0526
2805.888, 879.7039
2807.816, 881.4017
2809.745, 872.6135
2811.673, 860.9367
2813.602, 850.6480
2815.530, 849.1231
2817.458, 856.8558
2819.387, 867.6863
2821.315, 858.9057
2823.244, 834.9867
2825.172, 825.5116
2827.101, 839.1373
2829.029, 819.7772
2830.958, 815.3665
2832.886, 829.0645
2834.815, 801.2996
2836.743, 786.7422
2838.672, 792.2383
2840.600, 821.4501
2842.529, 828.0568
2844.457, 815.3695
2846.385, 794.2662
2848.314, 796.0496
2850.242, 792.9678
2852.171, 784.0424
2854.099, 781.6658
2856.028, 765.3389
2857.956, 754.9861
2859.885, 763.2422
2861.813, 751.1812
2863.742, 744.9940
2865.670, 747.4741
2867.599, 754.1880
2869.527, 740.2141
2871.456, 729.9683
2873.384, 742.7331
2875.313, 738.5035
2877.241, 725.3672
2879.169, 712.2242
2881.098, 715.8013
2883.026, 708.6953
2884.955, 700.1242
2886.883, 700.8339
2888.812, 708.9949
2890.740, 714.0242
2892.669, 710.0920
2894.597, 686.5114
2896.526, 682.8052
2898.454, 688.2388
2900.383, 673.3726
2902.311, 669.3110
2904.240, 667.2750
2906.168, 667.1871
2908.096, 688.1257
2910.025, 673.5156
2911.953, 649.3980
2913.882, 646.2827
2915.810, 661.2255
2917.739, 664.8483
2919.667, 660.6497
2921.596, 662.7692
2923.524, 662.1531
2925.453, 650.5534
2927.381, 620.5494
2929.310, 635.9089
2931.238, 634.9240
2933.167, 627.8587
2935.095, 640.8287
2937.023, 628.3171
2938.952, 626.5958
2940.880, 642.5939
2942.809, 611.9183
2944.737, 610.5350
2946.666, 625.5566
2948.594, 623.1782
2950.523, 622.7691
2952.451, 620.5465
2954.380, 629.6694
2956.308, 616.1057
2958.237, 609.1684
2960.165, 603.3317
2962.094, 619.1516
2964.022, 610.1805
2965.950, 607.2114
2967.879, 600.3538
2969.807, 582.3024
2971.736, 590.6281
2973.664, 607.2916
2975.593, 613.6962
2977.521, 607.3205
2979.450, 616.4233
2981.378, 613.1429
2983.307, 598.9454
2985.235, 604.1409
2987.164, 594.1248
2989.092, 577.3019
2991.021, 598.4507
2992.949, 595.6625
2994.877, 593.1627
2996.806, 597.7228
2998.734, 607.9290
3000.663, 610.2499
3002.591, 609.7032
3004.520, 598.6384
3006.448, 598.8820
3008.377, 597.8354
3010.305, 593.1810
3012.234, 586.4929
3014.162, 599.3932
3016.091, 610.3247
3018.019, 606.3793
3019.948, 601.6531
3021.876, 603.5939
3023.805, 608.6516
3025.733, 601.5555
3027.662, 587.8517
3029.590, 593.6286
3031.519, 597.1342
3033.447, 599.4901
3035.375, 582.8361
3037.304, 586.2826
3039.232, 593.9491
3041.161, 606.4225
3043.089, 597.6534
3045.018, 594.3825
3046.946, 607.6932
3048.875, 626.4414
3050.803, 623.7383
3052.732, 611.5128
3054.660, 616.5607
3056.589, 623.2714
3058.517, 621.3493
3060.446, 656.4095
3062.374, 665.6970
3064.302, 627.7377
3066.231, 627.0111
3068.159, 631.3619
3070.088, 627.2365
3072.016, 649.2391
3073.945, 661.5344
3075.873, 643.8473
3077.802, 624.4796
3079.730, 626.7563
3081.659, 641.6239
3083.587, 656.7665
3085.516, 633.8777
3087.444, 637.2254
3089.373, 643.4581
3091.301, 641.4492
3093.229, 654.7609
3095.158, 662.2039
3097.086, 652.6409
3099.015, 655.6224
3100.943, 665.0111
3102.872, 663.9164
3104.800, 655.8125
3106.729, 643.2368
3108.657, 662.2874
3110.586, 675.0383
3112.514, 681.4464
3114.443, 676.3060
3116.371, 672.2993
3118.300, 664.5633
3120.228, 673.6805
3122.156, 681.1079
3124.085, 665.5753
3126.013, 666.8920
3127.942, 679.2786
3129.870, 688.8585
3131.799, 678.2164
3133.727, 684.2586
3135.656, 681.0766
3137.584, 649.4416
3139.513, 658.4828
3141.441, 667.0815
3143.370, 681.7698
3145.298, 698.7267
3147.227, 705.2931
3149.155, 681.6498
3151.083, 674.1385
3153.012, 705.4061
3154.940, 691.9990
3156.869, 693.4468
3158.797, 698.4424
3160.726, 689.0259
3162.654, 691.7015
3164.583, 699.0505
3166.511, 708.0872
3168.440, 715.0424
3170.368, 739.5030
3172.297, 724.4515
3174.225, 725.9421
3176.154, 756.0897
3178.082, 763.7134
3180.010, 762.0130
3181.939, 752.9138
3183.867, 748.5422
3185.796, 780.0512
3187.724, 786.6870
3189.653, 790.9512
3191.581, 804.8038
3193.510, 832.5565
3195.438, 844.1460
3197.367, 846.2441
3199.295, 853.3621
3201.224, 875.6703
3203.152, 871.7806
3205.081, 892.0696
3207.009, 918.8658
3208.938, 917.6365
3210.866, 951.1478
3212.794, 950.3066
3214.723, 970.3459
3216.651, 1027.943
3218.580, 1012.592
3220.508, 1036.402
3222.437, 1052.904
3224.365, 1051.023
3226.294, 1059.445
3228.222, 1120.007
3230.151, 1132.167
3232.079, 1114.576
3234.008, 1137.855
3235.936, 1148.219
3237.865, 1173.251
3239.793, 1201.497
3241.721, 1215.372
3243.650, 1209.977
3245.578, 1208.211
3247.507, 1216.266
3249.435, 1238.187
3251.364, 1274.727
3253.292, 1273.012
3255.221, 1283.973
3257.149, 1297.215
3259.078, 1261.175
3261.006, 1280.451
3262.935, 1293.569
3264.863, 1295.439
3266.792, 1291.435
3268.720, 1286.665
3270.648, 1323.746
3272.577, 1332.861
3274.505, 1305.160
3276.434, 1295.959
3278.362, 1337.649
3280.291, 1323.837
3282.219, 1301.292
3284.148, 1331.927
3286.076, 1303.752
3288.005, 1286.253
3289.933, 1283.724
3291.862, 1292.864
3293.790, 1315.189
3295.719, 1278.310
3297.647, 1268.524
3299.575, 1267.698
3301.504, 1233.264
3303.432, 1238.566
3305.361, 1226.474
3307.289, 1206.337
3309.218, 1192.847
3311.146, 1195.539
3313.075, 1185.234
3315.003, 1168.074
3316.932, 1155.540
3318.860, 1152.682
3320.789, 1135.092
3322.717, 1137.614
3324.646, 1119.569
3326.574, 1089.754
3328.502, 1116.042
3330.431, 1085.901
3332.359, 1064.167
3334.288, 1054.579
3336.216, 1044.064
3338.145, 1027.443
3340.073, 987.9070
3342.002, 975.6457
3343.930, 985.2019
3345.859, 984.2327
3347.787, 967.6504
3349.716, 971.0627
3351.644, 955.3708
3353.573, 916.0797
3355.501, 897.0915
3357.429, 911.5507
3359.358, 905.8577
3361.286, 882.3368
3363.215, 858.4711
3365.143, 858.4430
3367.072, 866.9338
3369.000, 844.6317
3370.929, 815.4794
3372.857, 813.9037
3374.786, 802.9189
3376.714, 793.5917
3378.643, 774.1068
3380.571, 755.4083
3382.500, 756.5334
3384.428, 767.7993
3386.356, 731.7507
3388.285, 707.4957
3390.213, 703.4186
3392.142, 677.1689
3394.070, 692.3724
3395.999, 685.9744
3397.927, 680.7723
3399.856, 684.6830
3401.784, 673.6749
3403.713, 651.0232
3405.641, 632.4172
3407.570, 622.2103
3409.498, 620.9747
3411.427, 626.6284
3413.355, 623.8129
3415.283, 603.3444
3417.212, 581.7584
3419.140, 571.0538
3421.069, 572.7089
3422.997, 579.6409
3424.926, 563.4628
3426.854, 540.4116
3428.783, 530.4736
3430.711, 549.9184
3432.640, 539.7766
3434.568, 524.5125
3436.497, 516.4929
3438.425, 512.8428
3440.354, 495.0316
3442.282, 488.1612
3444.210, 480.4960
3446.139, 476.2294
3448.067, 473.7426
3449.996, 455.8860
3451.924, 473.0758
3453.853, 456.4951
3455.781, 442.4939
3457.710, 450.0839
3459.638, 449.7319
3461.567, 427.6807
3463.495, 431.0620
3465.424, 430.7577
3467.352, 416.2848
3469.281, 405.9126
3471.209, 413.2393
3473.137, 421.6602
3475.066, 420.0084
3476.994, 402.8013
3478.923, 375.4759
3480.851, 374.5118
3482.780, 403.2127
3484.708, 397.2625
3486.637, 375.5227
3488.565, 365.1045
3490.494, 310.3339
3492.422, 345.3136
3494.351, 347.9756
3496.279, 338.3826
3498.208, 341.2399
3500.136, 324.5511
3502.064, 317.8778
3503.993, 325.5378
3505.921, 330.5690
3507.850, 323.1305
3509.778, 305.0381
3511.707, 298.5178
3513.635, 306.9192
3515.564, 303.5829
3517.492, 291.9760
3519.421, 286.5060
3521.349, 301.3990
3523.278, 289.6390
3525.206, 282.1851
3527.135, 275.4185
3529.063, 274.3783
3530.991, 291.7202
3532.920, 247.7590
3534.848, 262.3212
3536.777, 267.2847
3538.705, 258.7425
3540.634, 255.7046
3542.562, 245.5190
3544.491, 246.5452
3546.419, 240.1773
3548.348, 241.1722
3550.276, 241.0499
3552.205, 224.1581
3554.133, 236.3759
3556.062, 224.7861
3557.990, 216.6033
3559.918, 214.2829
3561.847, 214.9625
3563.775, 222.0291
3565.704, 222.1414
3567.632, 213.9092
3569.561, 227.7154
3571.489, 238.2052
3573.418, 223.5921
3575.346, 215.5867
3577.275, 227.7405
3579.203, 238.1695
3581.132, 230.9694
3583.060, 213.6141
3584.989, 202.5229
3586.917, 211.0930
3588.845, 222.7286
3590.774, 212.3969
3592.702, 198.1646
3594.631, 195.1215
3596.559, 203.2118
3598.488, 212.4857
3600.416, 185.1784
3602.345, 176.9739
3604.273, 198.2186
3606.202, 215.3604
3608.130, 195.4445
3610.059, 200.0530
3611.987, 201.9731
3613.916, 208.7891
3615.844, 208.7964
3617.772, 197.6200
3619.701, 184.8727
3621.629, 191.4839
3623.558, 200.8310
3625.486, 183.6312
3627.415, 174.4892
3629.343, 180.5366
3631.272, 181.4934
3633.200, 169.9372
3635.129, 170.9120
3637.057, 183.5912
3638.986, 189.3895
3640.914, 178.3855
3642.843, 163.1358
3644.771, 181.4681
3646.699, 184.9690
3648.628, 175.1340
3650.556, 167.5174
3652.485, 164.8589
3654.413, 158.7448
3656.342, 138.7522
3658.270, 135.8306
3660.199, 178.2448
3662.127, 175.8417
3664.056, 163.7791
3665.984, 162.7896
3667.913, 147.7930
3669.841, 154.8274
3671.770, 150.8525
3673.698, 148.7387
3675.626, 147.0941
3677.555, 144.9197
3679.483, 143.4396
3681.412, 142.7227
3683.340, 144.0966
3685.269, 123.5195
3687.197, 133.7354
3689.126, 137.8287
3691.054, 129.0023
3692.983, 139.4352
3694.911, 130.6065
3696.840, 115.8838
3698.768, 106.0284
3700.697, 120.3806
3702.625, 129.8480
3704.553, 121.1999
3706.482, 124.2640
3708.410, 117.5057
3710.339, 99.94197
3712.267, 123.0255
3714.196, 114.4756
3716.124, 91.17221
3718.053, 96.39676
3719.981, 99.01135
3721.910, 100.4957
3723.838, 106.8068
3725.767, 95.21213
3727.695, 92.59156
3729.624, 93.36271
3731.552, 83.40028
3733.480, 94.27802
3735.409, 102.8445
3737.337, 98.49569
3739.266, 92.52230
3741.194, 105.2166
3743.123, 107.1788
3745.051, 84.19816
3746.980, 94.47746
3748.908, 89.49332
3750.837, 72.13755
3752.765, 82.06224
3754.694, 92.67710
3756.622, 88.90462
3758.551, 78.44862
3760.479, 71.49598
3762.407, 67.34222
3764.336, 89.47068
3766.264, 86.26688
3768.193, 81.88132
3770.121, 78.27814
3772.050, 73.06601
3773.978, 73.21831
3775.907, 59.80565
3777.835, 90.11752
3779.764, 69.40430
3781.692, 76.58027
3783.621, 85.50499
3785.549, 76.51350
3787.478, 72.47850
3789.406, 91.26071
3791.334, 61.68319
3793.263, 41.93256
3795.191, 63.20240
3797.120, 75.81133
3799.048, 60.82734
3800.977, 52.03394
3802.905, 74.77493
3804.834, 59.89042
3806.762, 70.40446
3808.691, 80.21061
3810.619, 65.49834
3812.548, 75.59906
3814.476, 88.27412
3816.405, 75.31635
3818.333, 62.54430
3820.261, 71.29461
3822.190, 52.32950
3824.118, 69.90932
3826.047, 95.20052
3827.975, 84.97617
3829.904, 63.05226
3831.832, 56.87421
3833.761, 56.67163
3835.689, 66.79903
3837.618, 44.33958
3839.546, 53.37726
3841.475, 62.75529
3843.403, 74.30896
3845.332, 73.56357
3847.260, 70.77274
3849.188, 84.32530
3851.117, 56.79534
3853.045, 58.51259
3854.974, 63.15547
3856.902, 60.32626
3858.831, 59.44621
3860.759, 59.55798
3862.688, 56.05567
3864.616, 52.70428
3866.545, 56.26631
3868.473, 44.69159
3870.402, 50.78173
3872.330, 49.54050
3874.259, 39.12571
3876.187, 41.86113
3878.115, 62.41219
3880.044, 75.18441
3881.972, 59.41989
3883.901, 39.02924
3885.829, 39.07693
3887.758, 59.93724
3889.686, 52.85533
3891.615, 55.14815
3893.543, 67.50035
3895.472, 72.84931
3897.400, 61.40931
3899.329, 44.85987
3901.257, 51.89671
3903.186, 50.56376
3905.114, 48.17302
3907.042, 61.06543
3908.971, 46.37124
3910.899, 50.98669
3912.828, 59.14493
3914.756, 60.91565
3916.685, 71.58559
3918.613, 74.95490
3920.542, 58.28592
3922.470, 57.23226
3924.399, 49.02566
3926.327, 57.14870
3928.256, 63.42232
3930.184, 56.28006
3932.113, 39.34518
3934.041, 43.31181
3935.969, 73.41037
3937.898, 60.58315
3939.826, 59.54092
3941.755, 50.00318
3943.683, 55.36401
3945.612, 34.61209
3947.540, 37.30666
3949.469, 45.41573
3951.397, 49.73513
3953.326, 51.63579
3955.254, 46.76585
3957.183, 57.87957
3959.111, 41.09340
3961.040, 46.82531
3962.968, 47.50885
3964.896, 29.32494
3966.825, 39.43390
3968.753, 61.11504
3970.682, 59.00467
3972.610, 59.53677
3974.539, 71.39078
3976.467, 44.38662
3978.396, 62.09544
3980.324, 64.88944
3982.253, 45.51966
3984.181, 54.54705
3986.110, 50.23929
3988.038, 58.43336
3989.967, 61.55623
3991.895, 62.84430
3993.823, 61.47244
3995.752, 54.92430
3997.680, 63.68098
3999.609, 50.32179
4001.537, 70.00919
4003.466, 81.04412
4005.394, 57.16287
4007.323, 47.21169
4009.251, 39.87623
4011.180, 51.00304
4013.108, 56.09943
4015.037, 50.04803
4016.965, 50.42882
4018.894, 50.08946
4020.822, 42.79866
4022.750, 62.61163
4024.679, 48.31131
4026.607, 63.21246
4028.536, 43.80730
4030.464, 55.87093
4032.393, 57.31708
4034.321, 55.42124
4036.250, 66.04037
4038.178, 67.62334
4040.107, 61.76712
4042.035, 65.05069
4043.964, 50.98072
4045.892, 34.18725
4047.821, 58.90612
4049.749, 58.65168
4051.677, 48.50628
4053.606, 49.37061
4055.534, 55.11683
4057.463, 47.13217
4059.391, 48.90352
4061.320, 58.71981
4063.248, 56.82583
4065.177, 47.16869
4067.105, 40.87141
4069.034, 39.38036
4070.962, 61.85123
4072.891, 38.87118
4074.819, 30.31207
4076.748, 37.91076
4078.676, 48.21033
4080.604, 64.64692
4082.533, 48.17237
4084.461, 62.34426
4086.390, 48.46763
4088.318, 43.75380
4090.247, 42.65228
4092.175, 36.79208
4094.104, 52.07872
4096.032, 36.80016
4097.961, 38.74671
4099.889, 51.14565
4101.818, 42.36198
4103.746, 52.28828
4105.675, 52.07861
4107.603, 48.81720
4109.532, 67.79591
4111.460, 46.46687
4113.389, 43.28020
4115.317, 68.98970
4117.246, 60.27017
4119.174, 51.91766
4121.103, 60.51789
4123.031, 48.76266
4124.959, 43.03598
4126.888, 62.60929
4128.816, 71.74541
4130.745, 54.34101
4132.673, 68.20847
4134.602, 40.41073
4136.530, 58.27695
4138.458, 35.77745
4140.387, 51.46632
4142.315, 59.49195
4144.244, 65.31941
4146.172, 49.41644
4148.101, 45.01463
4150.029, 66.97670
4151.958, 61.68200
4153.886, 45.33704
4155.815, 46.91980
4157.743, 40.60213
4159.672, 47.71658
4161.600, 66.77520
4163.529, 48.95471
4165.457, 50.11914
4167.386, 52.46941
4169.314, 47.99632
4171.243, 39.36533
4173.171, 66.06911
4175.100, 45.13904
4177.028, 51.87709
4178.957, 41.26391
4180.885, 49.07848
4182.813, 55.32385
4184.742, 52.31560
4186.670, 47.10358
4188.599, 41.47346
4190.527, 39.39973
4192.456, 55.70360
4194.384, 62.32978
4196.313, 57.66127
4198.241, 69.91672
4200.169, 49.73200
4202.098, 45.14371
4204.026, 37.79787
4205.955, 64.20918
4207.883, 37.18799
4209.812, 45.16017
4211.740, 52.93694
4213.669, 73.92576
4215.597, 52.09333
4217.526, 44.80100
4219.454, 43.20349
4221.383, 59.18971
4223.311, 63.11760
4225.240, 71.67805
4227.168, 49.99154
4229.097, 48.23602
4231.025, 52.82602
4232.954, 62.75808
4234.882, 68.85349
4236.811, 53.79911
4238.739, 36.13102
4240.667, 38.00435
4242.596, 44.41668
4244.524, 55.03886
4246.453, 70.11560
4248.381, 62.17513
4250.310, 44.87598
4252.238, 30.28702
4254.167, 44.21835
4256.095, 66.48397
4258.023, 64.57712
4259.952, 44.29892
4261.880, 40.89497
4263.809, 25.19964
4265.737, 45.48233
4267.666, 47.17765
4269.594, 24.85900
4271.523, 48.35334
4273.451, 32.61368
4275.380, 60.03640
4277.308, 49.26609
4279.237, 64.95098
4281.165, 50.57144
4283.094, 62.75122
4285.022, 57.99961
4286.951, 56.76695
4288.879, 78.33001
4290.808, 64.27961
4292.736, 41.51758
4294.665, 57.38580
4296.593, 57.25951
##END=



