##NAMES=Brezinaite
##RRUFFID=R070042
##IDEAL CHEMISTRY=Cr_3_S_4_
##LOCALITY=Tucson meteorite, Pima County, Arizona, USA
##OWNER=RRUFF
##SOURCE=Michael Scott
##DESCRIPTION=Bright gray polished fragment embedded in epoxy
##STATUS=The identification of this mineral is not yet confirmed
##URL=https://www.rruff.net/odr/rruff_sample/R070042
##FILETYPE=Raman RAW
##RAMAN WAVELENGTH=532

151.8623, 334.6930
153.7907, 354.3303
155.7192, 377.6963
157.6477, 394.2115
159.5761, 401.6765
161.5046, 403.9169
163.4331, 403.5855
165.3615, 396.0361
167.2900, 392.0320
169.2185, 395.2192
171.1469, 403.4296
173.0754, 408.8012
175.0039, 408.4961
176.9323, 406.0807
178.8608, 403.7097
180.7893, 402.0267
182.7177, 399.2875
184.6462, 393.9610
186.5747, 386.8451
188.5031, 381.7534
190.4316, 379.8091
192.3601, 378.9896
194.2885, 377.9349
196.2170, 375.9328
198.1455, 375.5822
200.0739, 379.0573
202.0024, 386.4200
203.9309, 390.2186
205.8593, 389.0258
207.7878, 385.0857
209.7163, 380.3031
211.6447, 374.1660
213.5732, 367.6696
215.5017, 360.0826
217.4301, 352.5971
219.3586, 349.2693
221.2871, 353.6499
223.2155, 358.9823
225.1440, 360.8870
227.0725, 355.4516
229.0009, 350.7018
230.9294, 348.6985
232.8579, 348.9555
234.7863, 348.5328
236.7148, 345.5461
238.6433, 342.7085
240.5717, 341.4765
242.5002, 342.6880
244.4287, 343.1734
246.3571, 342.5891
248.2856, 341.8441
250.2141, 341.7091
252.1425, 343.4244
254.0710, 343.8371
255.9995, 341.4640
257.9279, 336.1292
259.8564, 331.5053
261.7849, 328.1120
263.7133, 326.3633
265.6418, 326.1183
267.5703, 328.0542
269.4987, 329.3024
271.4272, 330.3780
273.3557, 331.6638
275.2841, 332.3393
277.2126, 331.2518
279.1411, 329.8936
281.0695, 329.3467
282.9980, 330.2850
284.9265, 328.7880
286.8549, 324.0269
288.7834, 315.2565
290.7119, 311.8921
292.6404, 317.1065
294.5688, 324.2310
296.4973, 326.7900
298.4258, 322.7269
300.3542, 321.1863
302.2827, 325.4825
304.2112, 334.9852
306.1396, 338.7563
308.0681, 333.1951
309.9966, 325.4822
311.9250, 319.5312
313.8535, 315.4886
315.7820, 313.2393
317.7104, 313.5318
319.6389, 316.0882
321.5674, 319.0811
323.4958, 323.0262
325.4243, 324.7981
327.3528, 323.6781
329.2812, 318.1480
331.2097, 314.8260
333.1382, 314.6544
335.0666, 316.1548
336.9951, 317.3781
338.9235, 318.1938
340.8520, 318.3428
342.7805, 316.8090
344.7089, 313.2944
346.6374, 311.5475
348.5659, 316.2727
350.4943, 322.0310
352.4228, 324.5042
354.3513, 320.1424
356.2797, 315.8822
358.2082, 315.2808
360.1367, 317.2997
362.0651, 317.5770
363.9936, 313.6673
365.9221, 309.8304
367.8505, 308.5485
369.7790, 311.8212
371.7075, 315.1133
373.6359, 315.8265
375.5644, 314.2238
377.4929, 311.4138
379.4213, 308.4704
381.3498, 305.7426
383.2783, 303.0368
385.2067, 300.4572
387.1352, 298.5185
389.0637, 297.5451
390.9921, 298.3179
392.9206, 300.9043
394.8491, 304.5104
396.7775, 306.2891
398.7060, 306.8388
400.6345, 306.8301
402.5629, 306.7104
404.4914, 306.5913
406.4199, 305.9399
408.3483, 303.7297
410.2768, 299.4279
412.2053, 294.9538
414.1337, 291.6837
416.0622, 290.4214
417.9907, 292.3667
419.9191, 296.6950
421.8476, 299.3251
423.7761, 298.5805
425.7045, 295.5916
427.6330, 291.3794
429.5615, 285.3650
431.4899, 282.6151
433.4184, 286.1992
435.3469, 292.9087
437.2753, 296.2664
439.2038, 295.9758
441.1323, 294.8216
443.0607, 293.5753
444.9892, 290.9359
446.9177, 288.8933
448.8461, 288.7387
450.7746, 290.0091
452.7031, 292.0534
454.6315, 292.5711
456.5600, 292.7764
458.4885, 293.3896
460.4169, 295.4301
462.3454, 296.0313
464.2739, 293.2277
466.2023, 290.8635
468.1308, 291.1554
470.0593, 294.7620
471.9877, 296.4299
473.9162, 295.8207
475.8447, 293.3540
477.7731, 288.6884
479.7016, 280.7833
481.6301, 276.3942
483.5585, 277.8343
485.4870, 282.9965
487.4155, 287.0959
489.3439, 290.5864
491.2724, 293.3881
493.2009, 296.1550
495.1293, 298.4957
497.0578, 297.6448
498.9863, 289.8526
500.9147, 281.7619
502.8432, 278.0351
504.7717, 279.5109
506.7001, 281.9261
508.6286, 285.7528
510.5571, 289.2681
512.4855, 291.0788
514.4140, 288.3669
516.3425, 286.4827
518.2709, 286.7210
520.1994, 288.4456
522.1279, 289.6490
524.0563, 290.1916
525.9848, 289.7150
527.9133, 287.3961
529.8417, 284.1556
531.7702, 282.3807
533.6987, 282.2847
535.6271, 282.6026
537.5556, 283.0591
539.4841, 283.9338
541.4125, 284.8098
543.3410, 285.7306
545.2695, 286.7542
547.1979, 287.6065
549.1264, 287.3798
551.0549, 286.9573
552.9833, 286.3133
554.9118, 286.6125
556.8403, 287.1993
558.7687, 289.2473
560.6972, 289.5138
562.6257, 285.3632
564.5541, 278.1294
566.4826, 275.1384
568.4111, 280.1478
570.3395, 285.7996
572.2680, 288.6479
574.1965, 287.7966
576.1249, 286.1321
578.0534, 282.2960
579.9819, 278.6798
581.9103, 277.5199
583.8388, 279.1727
585.7673, 280.5856
587.6957, 281.2143
589.6242, 281.3228
591.5527, 280.8004
593.4811, 277.2152
595.4096, 275.0845
597.3381, 276.7838
599.2665, 280.5686
601.1950, 281.6619
603.1235, 277.8227
605.0519, 273.5702
606.9804, 269.9881
608.9089, 267.2350
610.8373, 266.2205
612.7658, 268.3688
614.6943, 270.7861
616.6227, 272.0753
618.5512, 272.2553
620.4797, 272.4058
622.4081, 272.6648
624.3366, 272.8320
626.2651, 272.5712
628.1935, 271.8482
630.1220, 272.3719
632.0505, 275.7681
633.9789, 279.4381
635.9074, 281.5017
637.8359, 281.4192
639.7643, 281.0285
641.6928, 279.6251
643.6213, 277.8227
645.5497, 277.5415
647.4782, 279.1664
649.4067, 280.9177
651.3351, 282.9489
653.2636, 285.1086
655.1921, 285.2938
657.1205, 278.9030
659.0490, 274.7763
660.9775, 277.4766
662.9059, 286.5441
664.8344, 293.1981
666.7629, 296.5422
668.6913, 297.2065
670.6198, 295.2617
672.5483, 291.0591
674.4767, 288.7984
676.4052, 289.8320
678.3337, 290.3107
680.2621, 289.6146
682.1906, 289.0054
684.1191, 288.3885
686.0475, 286.7491
687.9760, 285.2763
689.9045, 285.5782
691.8329, 288.6141
693.7614, 290.5198
695.6899, 290.7699
697.6183, 289.7008
699.5468, 287.5442
701.4753, 284.3488
703.4037, 282.6184
705.3322, 284.1617
707.2607, 285.2773
709.1891, 285.4634
711.1176, 286.2290
713.0461, 287.5956
714.9745, 286.4119
716.9030, 281.5560
718.8315, 280.6382
720.7599, 286.2404
722.6884, 291.0870
724.6169, 290.6333
726.5453, 286.8077
728.4738, 284.7291
730.4023, 285.8734
732.3307, 286.5482
734.2592, 284.8657
736.1877, 282.1913
738.1161, 280.4726
740.0446, 279.9516
741.9731, 280.6249
743.9016, 283.1747
745.8300, 285.6031
747.7585, 285.6414
749.6870, 283.0763
751.6154, 281.3193
753.5439, 279.3809
755.4724, 276.1962
757.4008, 274.6492
759.3293, 276.8763
761.2578, 279.5123
763.1862, 280.4818
765.1147, 279.5318
767.0432, 277.2676
768.9716, 273.0809
770.9001, 271.6832
772.8286, 277.2758
774.7570, 283.0063
776.6855, 282.5916
778.6140, 271.8946
780.5424, 265.8933
782.4709, 266.2063
784.3994, 268.1031
786.3278, 266.6889
788.2563, 261.8152
790.1848, 257.8080
792.1132, 256.2065
794.0417, 256.7556
795.9702, 257.7809
797.8986, 258.8743
799.8271, 258.6378
801.7556, 257.9265
803.6840, 257.0753
805.6125, 256.7076
807.5410, 257.0950
809.4694, 259.5475
811.3979, 263.0914
813.3264, 264.8308
815.2548, 263.2476
817.1833, 256.7268
819.1118, 251.2184
821.0402, 252.5144
822.9687, 259.3308
824.8972, 263.6100
826.8256, 261.1143
828.7541, 254.6607
830.6826, 250.7325
832.6110, 252.1537
834.5395, 255.4993
836.4680, 257.1332
838.3964, 251.2662
840.3249, 246.6138
842.2534, 246.3522
844.1818, 249.9536
846.1103, 254.9670
848.0388, 259.1636
849.9672, 261.1865
851.8957, 262.7863
853.8242, 264.4559
855.7526, 265.7074
857.6811, 264.7941
859.6096, 264.2558
861.5380, 264.0891
863.4665, 263.4142
865.3950, 261.5930
867.3234, 259.6010
869.2519, 260.1711
871.1804, 263.1786
873.1088, 266.9997
875.0373, 270.1448
876.9658, 271.9254
878.8942, 268.5490
880.8227, 262.5597
882.7512, 257.8514
884.6796, 257.1854
886.6081, 259.0695
888.5366, 260.5443
890.4650, 261.8216
892.3935, 262.6298
894.3220, 262.6579
896.2504, 261.6891
898.1789, 259.7210
900.1074, 259.7679
902.0358, 262.9360
903.9643, 266.2910
905.8928, 265.5500
907.8212, 261.6968
909.7497, 259.1913
911.6782, 259.5224
913.6066, 261.4308
915.5351, 264.0345
917.4636, 266.6412
919.3920, 266.6248
921.3205, 264.7917
923.2490, 264.4160
925.1774, 267.7938
927.1059, 271.3236
929.0344, 272.5298
930.9628, 271.5448
932.8913, 271.2308
934.8198, 273.2977
936.7482, 274.7232
938.6767, 269.1124
940.6052, 259.5153
942.5336, 256.6192
944.4621, 262.7354
946.3906, 270.1782
948.3190, 274.0525
950.2475, 278.6241
952.1760, 282.1700
954.1044, 280.8206
956.0329, 276.0656
957.9614, 272.3505
959.8898, 276.0800
961.8183, 279.3256
963.7468, 278.2207
965.6752, 276.0594
967.6037, 277.2794
969.5322, 279.8435
971.4606, 278.4252
973.3891, 272.8907
975.3176, 270.3612
977.2460, 275.0332
979.1745, 281.7199
981.1030, 287.4590
983.0314, 291.0850
984.9599, 291.6385
986.8884, 287.9927
988.8168, 284.8250
990.7453, 285.6339
992.6738, 288.0206
994.6022, 288.2576
996.5307, 284.8183
998.4592, 283.8097
1000.388, 288.4889
1002.316, 294.8875
1004.245, 298.7841
1006.173, 299.7016
1008.102, 299.9146
1010.030, 297.3528
1011.958, 292.6505
1013.887, 293.5001
1015.815, 300.9427
1017.744, 307.2783
1019.672, 310.0586
1021.601, 312.1909
1023.529, 314.1728
1025.458, 314.3100
1027.386, 313.5744
1029.315, 311.9106
1031.243, 313.0721
1033.172, 315.8934
1035.100, 317.9452
1037.028, 318.4598
1038.957, 315.5721
1040.885, 314.6707
1042.814, 320.1575
1044.742, 330.0497
1046.671, 335.1175
1048.599, 332.4349
1050.528, 329.1007
1052.456, 327.2623
1054.385, 327.9099
1056.313, 330.2380
1058.242, 335.0572
1060.170, 336.8187
1062.099, 334.0086
1064.027, 330.1538
1065.955, 326.1758
1067.884, 322.7979
1069.812, 321.5323
1071.741, 323.7140
1073.669, 325.6298
1075.598, 325.7868
1077.526, 324.7416
1079.455, 323.2955
1081.383, 320.8206
1083.312, 319.3047
1085.240, 319.8351
1087.169, 321.1321
1089.097, 321.5953
1091.026, 320.5060
1092.954, 319.4325
1094.882, 317.6658
1096.811, 316.4788
1098.739, 317.7989
1100.668, 321.0408
1102.596, 320.9691
1104.525, 313.8019
1106.453, 308.6012
1108.382, 310.6536
1110.310, 317.5750
1112.239, 322.2769
1114.167, 324.7124
1116.096, 324.6177
1118.024, 320.4766
1119.953, 314.9608
1121.881, 310.8132
1123.809, 308.2245
1125.738, 306.2218
1127.666, 305.2011
1129.595, 304.5059
1131.523, 302.6545
1133.452, 300.0841
1135.380, 301.5515
1137.309, 311.5109
1139.237, 319.3262
1141.166, 319.6177
1143.094, 313.9308
1145.023, 308.7174
1146.951, 303.8607
1148.880, 300.7348
1150.808, 299.4540
1152.736, 300.2870
1154.665, 302.8773
1156.593, 305.9334
1158.522, 307.4449
1160.450, 307.2663
1162.379, 306.3073
1164.307, 302.1743
1166.236, 297.6881
1168.164, 301.3274
1170.093, 318.7897
1172.021, 329.8808
1173.950, 321.9881
1175.878, 307.9604
1177.807, 301.6442
1179.735, 304.7458
1181.663, 306.7574
1183.592, 307.1255
1185.520, 307.6032
1187.449, 307.5945
1189.377, 305.4497
1191.306, 306.8853
1193.234, 313.8298
1195.163, 318.3322
1197.091, 318.2275
1199.020, 317.4525
1200.948, 316.6005
1202.877, 313.5621
1204.805, 312.4980
1206.734, 316.0141
1208.662, 320.1079
1210.590, 321.6908
1212.519, 323.3470
1214.447, 326.2494
1216.376, 329.5976
1218.304, 333.6947
1220.233, 339.6597
1222.161, 343.7093
1224.090, 342.6436
1226.018, 338.3724
1227.947, 336.3936
1229.875, 338.0751
1231.804, 340.7023
1233.732, 342.8250
1235.661, 342.7466
1237.589, 342.4995
1239.517, 343.0627
1241.446, 344.7138
1243.374, 348.1463
1245.303, 351.1189
1247.231, 351.6123
1249.160, 350.1501
1251.088, 349.7976
1253.017, 352.6129
1254.945, 356.3390
1256.874, 359.6484
1258.802, 361.2213
1260.731, 361.7085
1262.659, 361.2273
1264.588, 361.2968
1266.516, 363.0281
1268.444, 364.9738
1270.373, 364.8727
1272.301, 362.1385
1274.230, 361.8922
1276.158, 366.2037
1278.087, 370.7952
1280.015, 373.9424
1281.944, 375.2258
1283.872, 374.9211
1285.801, 373.2854
1287.729, 373.0557
1289.658, 375.7179
1291.586, 377.9645
1293.515, 377.3742
1295.443, 374.4878
1297.371, 372.5922
1299.300, 373.3878
1301.228, 376.3687
1303.157, 382.2310
1305.085, 388.3006
1307.014, 391.1650
1308.942, 387.2232
1310.871, 387.0667
1312.799, 391.8514
1314.728, 393.8800
1316.656, 394.1841
1318.585, 396.3419
1320.513, 399.3802
1322.442, 397.5932
1324.370, 397.3611
1326.298, 398.9783
1328.227, 401.3298
1330.155, 405.6540
1332.084, 410.3542
1334.012, 408.0989
1335.941, 397.2832
1337.869, 393.7225
1339.798, 403.6433
1341.726, 416.4489
1343.655, 424.2515
1345.583, 427.4839
1347.512, 426.1562
1349.440, 417.8604
1351.369, 413.8833
1353.297, 417.8175
1355.225, 424.6400
1357.154, 426.6982
1359.082, 420.2669
1361.011, 419.1135
1362.939, 427.8727
1364.868, 435.4567
1366.796, 436.4778
1368.725, 433.2279
1370.653, 431.9056
1372.582, 432.9034
1374.510, 432.6028
1376.439, 430.7848
1378.367, 429.8730
1380.296, 430.6631
1382.224, 431.8968
1384.152, 430.5577
1386.081, 425.1481
1388.009, 421.6456
1389.938, 424.6026
1391.866, 432.9445
1393.795, 442.9024
1395.723, 452.1266
1397.652, 454.6053
1399.580, 449.1059
1401.509, 441.2362
1403.437, 431.5341
1405.366, 426.1787
1407.294, 428.7377
1409.223, 438.4518
1411.151, 444.1567
1413.079, 444.4330
1415.008, 448.2231
1416.936, 456.4239
1418.865, 463.6782
1420.793, 466.7147
1422.722, 465.8228
1424.650, 463.8660
1426.579, 457.5653
1428.507, 452.6953
1430.436, 453.2095
1432.364, 456.0416
1434.293, 456.8298
1436.221, 455.1242
1438.150, 455.1016
1440.078, 457.8407
1442.006, 460.9910
1443.935, 462.0970
1445.863, 462.5472
1447.792, 466.1619
1449.720, 472.7346
1451.649, 475.7277
1453.577, 472.1811
1455.506, 470.2109
1457.434, 474.7538
1459.363, 480.4227
1461.291, 479.7501
1463.220, 472.9559
1465.148, 470.2674
1467.077, 473.3349
1469.005, 478.8290
1470.933, 489.7027
1472.862, 501.2724
1474.790, 507.1420
1476.719, 507.4432
1478.647, 507.5001
1480.576, 506.8192
1482.504, 506.3018
1484.433, 507.4238
1486.361, 508.5677
1488.290, 507.7853
1490.218, 504.3705
1492.147, 504.7143
1494.075, 512.3112
1496.004, 519.0393
1497.932, 523.4547
1499.860, 525.6239
1501.789, 525.5835
1503.717, 523.1052
1505.646, 522.1967
1507.574, 524.3531
1509.503, 526.0064
1511.431, 525.6096
1513.360, 524.7227
1515.288, 525.5083
1517.217, 528.1599
1519.145, 530.6531
1521.074, 533.5379
1523.002, 535.4590
1524.931, 535.8907
1526.859, 535.2150
1528.787, 533.5645
1530.716, 531.5620
1532.644, 531.3868
1534.573, 534.0911
1536.501, 535.6589
1538.430, 532.7379
1540.358, 531.2340
1542.287, 536.3581
1544.215, 545.1276
1546.144, 550.1118
1548.072, 550.6680
1550.001, 551.9550
1551.929, 556.5277
1553.858, 559.3553
1555.786, 553.8248
1557.714, 547.5786
1559.643, 552.8213
1561.571, 569.1405
1563.500, 579.3740
1565.428, 581.0169
1567.357, 577.8189
1569.285, 567.9865
1571.214, 556.2428
1573.142, 546.5646
1575.071, 538.7808
1576.999, 531.2879
1578.928, 523.3008
1580.856, 517.6956
1582.785, 518.0396
1584.713, 518.2098
1586.641, 514.7618
1588.570, 508.3396
1590.498, 498.7263
1592.427, 484.2783
1594.355, 476.2652
1596.284, 481.3810
1598.212, 486.0231
1600.141, 485.7527
1602.069, 481.6859
1603.998, 471.6786
1605.926, 455.1187
1607.855, 448.9844
1609.783, 461.2053
1611.712, 470.5832
1613.640, 469.5569
1615.568, 465.0789
1617.497, 462.1136
1619.425, 459.9650
1621.354, 454.0970
1623.282, 441.6077
1625.211, 434.8480
1627.139, 443.4703
1629.068, 448.8727
1630.996, 440.1401
1632.925, 425.3647
1634.853, 417.7596
1636.782, 418.4069
1638.710, 417.1272
1640.639, 412.7805
1642.567, 407.7673
1644.495, 400.1826
1646.424, 394.3895
1648.352, 395.6929
1650.281, 401.9494
1652.209, 402.7346
1654.138, 395.9979
1656.066, 389.6331
1657.995, 383.2921
1659.923, 378.7702
1661.852, 377.6876
1663.780, 378.1155
1665.709, 378.8796
1667.637, 380.3777
1669.566, 374.5029
1671.494, 352.8202
1673.422, 340.2235
1675.351, 348.7904
1677.279, 358.2540
1679.208, 355.5498
1681.136, 345.9919
1683.065, 342.4154
1684.993, 347.0449
1686.922, 347.0488
1688.850, 337.8113
1690.779, 330.1368
1692.707, 326.8196
1694.636, 325.6784
1696.564, 325.6309
1698.493, 326.3784
1700.421, 326.5127
1702.349, 326.0665
1704.278, 324.9218
1706.206, 324.4145
1708.135, 321.3556
1710.063, 311.1547
1711.992, 300.6499
1713.920, 297.4048
1715.849, 301.0291
1717.777, 304.7511
1719.706, 308.9293
1721.634, 312.1941
1723.563, 314.8987
1725.491, 315.9232
1727.420, 313.7028
1729.348, 310.2722
1731.276, 308.2864
1733.205, 307.6976
1735.133, 307.0440
1737.062, 306.7134
1738.990, 305.0337
1740.919, 298.8073
1742.847, 294.7468
1744.776, 298.9684
1746.704, 305.4677
1748.633, 304.7605
1750.561, 297.2237
1752.490, 290.9542
1754.418, 285.6752
1756.347, 283.9757
1758.275, 289.4681
1760.203, 294.8128
1762.132, 294.8673
1764.060, 293.2328
1765.989, 296.7135
1767.917, 304.4236
1769.846, 305.2115
1771.774, 295.7347
1773.703, 288.7044
1775.631, 287.9834
1777.560, 289.5387
1779.488, 292.1417
1781.417, 295.1422
1783.345, 299.1615
1785.274, 303.3785
1787.202, 300.2579
1789.130, 285.7124
1791.059, 279.5268
1792.987, 294.4626
1794.916, 306.8600
1796.844, 300.7064
1798.773, 288.4863
1800.701, 285.0217
1802.630, 288.6978
1804.558, 292.6970
1806.487, 297.9113
1808.415, 298.4192
1810.344, 287.5120
1812.272, 279.7268
1814.201, 284.0472
1816.129, 291.0522
1818.057, 290.7363
1819.986, 285.1872
1821.914, 283.1715
1823.843, 285.3879
1825.771, 288.0391
1827.700, 291.2640
1829.628, 294.4725
1831.557, 297.8264
1833.485, 300.8198
1835.414, 303.9130
1837.342, 306.1328
1839.271, 304.8969
1841.199, 299.5824
1843.128, 294.8100
1845.056, 288.8331
1846.984, 286.1331
1848.913, 289.1822
1850.841, 293.0797
1852.770, 295.9784
1854.698, 298.0790
1856.627, 299.7982
1858.555, 301.0790
1860.484, 300.5540
1862.412, 296.9207
1864.341, 296.3127
1866.269, 301.4494
1868.198, 306.3742
1870.126, 309.6331
1872.055, 311.4418
1873.983, 311.2452
1875.911, 309.9119
1877.840, 310.2584
1879.768, 312.1991
1881.697, 309.8006
1883.625, 300.2431
1885.554, 294.2940
1887.482, 296.2090
1889.411, 300.2190
1891.339, 305.4371
1893.268, 309.5727
1895.196, 309.2115
1897.125, 305.5585
1899.053, 302.4771
1900.982, 299.6551
1902.910, 300.3833
1904.839, 307.8471
1906.767, 313.8747
1908.695, 315.9240
1910.624, 316.4752
1912.552, 317.6784
1914.481, 317.9817
1916.409, 313.3277
1918.338, 304.2723
1920.266, 301.3848
1922.195, 309.8858
1924.123, 314.0580
1926.052, 309.9683
1927.980, 307.2066
1929.909, 309.9740
1931.837, 312.7141
1933.766, 309.6537
1935.694, 305.0295
1937.622, 308.2773
1939.551, 318.7120
1941.479, 320.8007
1943.408, 311.2950
1945.336, 307.7538
1947.265, 316.9684
1949.193, 324.3024
1951.122, 322.6987
1953.050, 319.0317
1954.979, 317.4708
1956.907, 317.4253
1958.836, 318.9004
1960.764, 321.3702
1962.693, 320.0090
1964.621, 312.5378
1966.549, 311.4596
1968.478, 326.1516
1970.406, 335.6371
1972.335, 329.3511
1974.263, 321.3562
1976.192, 322.1901
1978.120, 326.1979
1980.049, 322.7707
1981.977, 313.3462
1983.906, 313.8394
1985.834, 330.1007
1987.763, 338.5874
1989.691, 333.9651
1991.620, 329.8896
1993.548, 329.9866
1995.476, 330.1801
1997.405, 327.9071
1999.333, 325.3170
2001.262, 324.2458
2003.190, 324.8163
2005.119, 328.7110
2007.047, 335.8220
2008.976, 337.7513
2010.904, 332.0797
2012.833, 327.3916
2014.761, 324.6481
2016.690, 324.7925
2018.618, 331.0298
2020.547, 337.4759
2022.475, 339.6172
2024.403, 338.6261
2026.332, 335.2577
2028.260, 329.8788
2030.189, 329.5036
2032.117, 337.8359
2034.046, 342.0873
2035.974, 338.5863
2037.903, 336.9835
2039.831, 341.9945
2041.760, 345.3908
2043.688, 339.3700
2045.617, 333.6566
2047.545, 340.8097
2049.473, 354.4522
2051.402, 359.7637
2053.330, 357.1330
2055.259, 350.9318
2057.187, 339.8586
2059.116, 334.7149
2061.044, 340.0196
2062.973, 346.2927
2064.901, 354.0463
2066.830, 357.9193
2068.758, 351.7945
2070.687, 342.8181
2072.615, 337.6064
2074.543, 336.3538
2076.472, 341.0743
2078.400, 352.6964
2080.329, 358.5979
2082.257, 356.1439
2084.186, 357.6147
2086.114, 368.4807
2088.043, 374.2621
2089.971, 366.2803
2091.900, 358.4308
2093.828, 361.3739
2095.757, 365.4134
2097.685, 358.5217
2099.614, 346.7415
2101.542, 343.6042
2103.470, 348.5974
2105.399, 352.9004
2107.327, 356.4833
2109.256, 359.3431
2111.184, 361.0793
2113.113, 362.7273
2115.041, 368.0117
2116.970, 368.4442
2118.898, 353.0872
2120.827, 339.5198
2122.755, 345.3947
2124.684, 359.3020
2126.612, 362.9250
2128.541, 359.0592
2130.469, 358.6687
2132.397, 361.9532
2134.326, 362.6922
2136.254, 358.7713
2138.183, 358.9608
2140.111, 370.4981
2142.040, 377.2091
2143.968, 369.9019
2145.897, 362.7652
2147.825, 363.4965
2149.754, 367.7895
2151.682, 372.8312
2153.611, 377.7133
2155.539, 381.4043
2157.468, 383.5083
2159.396, 379.5614
2161.324, 369.1650
2163.253, 360.8052
2165.181, 354.5010
2167.110, 354.0276
2169.038, 365.4863
2170.967, 371.9893
2172.895, 361.0155
2174.824, 351.9021
2176.752, 358.4848
2178.681, 368.4793
2180.609, 369.6263
2182.538, 366.1461
2184.466, 366.1286
2186.395, 368.8795
2188.323, 368.7593
2190.251, 365.4544
2192.180, 367.4111
2194.108, 376.8871
2196.037, 381.4393
2197.965, 378.1391
2199.894, 372.0590
2201.822, 359.2347
2203.751, 351.8714
2205.679, 359.6306
2207.608, 370.1986
2209.536, 375.7322
2211.465, 377.6026
2213.393, 376.2788
2215.322, 373.0793
2217.250, 371.9192
2219.178, 372.6913
2221.107, 373.3474
2223.035, 374.0429
2224.964, 371.2573
2226.892, 363.1397
2228.821, 358.7366
2230.749, 361.9893
2232.678, 364.6135
2234.606, 361.3486
2236.535, 360.3451
2238.463, 369.0342
2240.392, 377.4933
2242.320, 376.5494
2244.249, 371.8557
2246.177, 370.3121
2248.105, 371.1297
2250.034, 371.2555
2251.962, 371.4781
2253.891, 380.4479
2255.819, 398.5241
2257.748, 398.0785
2259.676, 369.7359
2261.605, 355.0476
2263.533, 370.4056
2265.462, 382.3645
2267.390, 380.6403
2269.319, 380.1190
2271.247, 389.6613
2273.176, 397.4832
2275.104, 395.6789
2277.032, 389.8019
2278.961, 382.3662
2280.889, 375.9443
2282.818, 375.7320
2284.746, 379.4787
2286.675, 380.5277
2288.603, 379.1124
2290.532, 380.0667
2292.460, 384.1600
2294.389, 387.2622
2296.317, 389.9508
2298.246, 389.9785
2300.174, 383.0680
2302.103, 382.7256
2304.031, 395.8066
2305.959, 407.8514
2307.888, 414.2605
2309.816, 416.9910
2311.745, 414.4857
2313.673, 411.6494
2315.602, 410.7480
2317.530, 413.4591
2319.459, 423.9099
2321.387, 438.9529
2323.316, 448.9722
2325.244, 456.0925
2327.173, 476.8704
2329.101, 510.3816
2331.030, 539.0749
2332.958, 562.3381
2334.886, 575.1178
2336.815, 575.0186
2338.743, 571.2691
2340.672, 571.6080
2342.600, 558.2204
2344.529, 513.3760
2346.457, 476.1296
2348.386, 466.5801
2350.314, 457.0191
2352.243, 429.2870
2354.171, 402.0836
2356.100, 386.7672
2358.028, 380.0412
2359.957, 383.1276
2361.885, 389.4925
2363.813, 385.5800
2365.742, 376.4825
2367.670, 379.3539
2369.599, 392.9858
2371.527, 403.7336
2373.456, 411.7631
2375.384, 410.7648
2377.313, 399.3608
2379.241, 394.5344
2381.170, 400.3658
2383.098, 401.4424
2385.027, 389.7619
2386.955, 384.3012
2388.884, 394.7946
2390.812, 402.8192
2392.740, 399.6361
2394.669, 398.2305
2396.597, 406.9064
2398.526, 415.1034
2400.454, 416.8712
2402.383, 415.8294
2404.311, 413.8486
2406.240, 411.6805
2408.168, 410.1600
2410.097, 409.1093
2412.025, 408.3159
2413.954, 407.7098
2415.882, 407.1469
2417.811, 406.5952
2419.739, 405.3610
2421.667, 403.6896
2423.596, 404.8273
2425.524, 409.0775
2427.453, 410.8392
2429.381, 408.9719
2431.310, 407.2041
2433.238, 402.1774
2435.167, 404.5790
2437.095, 421.2101
2439.024, 430.4995
2440.952, 424.6903
2442.881, 420.6627
2444.809, 425.6832
2446.738, 430.0716
2448.666, 429.6744
2450.594, 427.3765
2452.523, 424.1990
2454.451, 420.2682
2456.380, 414.5294
2458.308, 409.2868
2460.237, 405.3046
2462.165, 404.0977
2464.094, 412.5922
2466.022, 421.1749
2467.951, 410.5817
2469.879, 391.5782
2471.808, 389.2023
2473.736, 399.4049
2475.665, 407.7922
2477.593, 414.2863
2479.521, 418.1936
2481.450, 419.5515
2483.378, 417.5985
2485.307, 412.3754
2487.235, 413.5498
2489.164, 423.5616
2491.092, 430.8462
2493.021, 434.8608
2494.949, 436.0432
2496.878, 433.4042
2498.806, 430.6738
2500.735, 427.6289
2502.663, 426.8398
2504.592, 429.8763
2506.520, 432.8636
2508.448, 436.2873
2510.377, 436.8750
2512.305, 428.4687
2514.234, 424.5673
2516.162, 436.7665
2518.091, 445.7325
2520.019, 440.6255
2521.948, 433.0126
2523.876, 428.1277
2525.805, 425.8392
2527.733, 426.5218
2529.662, 429.2726
2531.590, 436.6550
2533.519, 442.3778
2535.447, 435.1658
2537.375, 425.1881
2539.304, 429.3198
2541.232, 437.7295
2543.161, 432.8579
2545.089, 422.0466
2547.018, 422.0645
2548.946, 428.8043
2550.875, 428.0514
2552.803, 422.7961
2554.732, 430.4906
2556.660, 446.6277
2558.589, 446.5599
2560.517, 432.7269
2562.446, 433.8206
2564.374, 450.5521
2566.302, 455.1316
2568.231, 445.3952
2570.159, 439.6299
2572.088, 437.9627
2574.016, 439.1208
2575.945, 443.4597
2577.873, 443.4166
2579.802, 436.1451
2581.730, 433.3834
2583.659, 439.0398
2585.587, 441.9525
2587.516, 440.7583
2589.444, 440.6117
2591.373, 441.5539
2593.301, 446.4451
2595.229, 459.0828
2597.158, 466.8778
2599.086, 467.2203
2601.015, 462.0800
2602.943, 445.7210
2604.872, 435.2629
2606.800, 434.3868
2608.729, 438.7124
2610.657, 452.1529
2612.586, 459.8985
2614.514, 451.0366
2616.443, 444.2296
2618.371, 447.7974
2620.300, 451.8300
2622.228, 452.7037
2624.156, 453.7426
2626.085, 459.4417
2628.013, 460.6643
2629.942, 447.4196
2631.870, 435.8366
2633.799, 434.7634
2635.727, 437.7538
2637.656, 443.9787
2639.584, 449.3480
2641.513, 451.4407
2643.441, 452.0686
2645.370, 451.5734
2647.298, 451.1632
2649.227, 449.8231
2651.155, 451.2326
2653.083, 464.7563
2655.012, 474.5507
2656.940, 462.5677
2658.869, 448.8064
2660.797, 450.1698
2662.726, 457.0875
2664.654, 464.6085
2666.583, 469.0048
2668.511, 461.9586
2670.440, 454.7878
2672.368, 460.2307
2674.297, 469.5620
2676.225, 477.3902
2678.154, 481.3222
2680.082, 475.2632
2682.010, 467.2677
2683.939, 467.3724
2685.867, 470.2156
2687.796, 471.1327
2689.724, 469.7415
2691.653, 460.6313
2693.581, 453.6909
2695.510, 465.9627
2697.438, 483.1560
2699.367, 486.9452
2701.295, 484.6193
2703.224, 484.1135
2705.152, 483.9390
2707.081, 481.8924
2709.009, 479.5653
2710.938, 478.7971
2712.866, 479.1947
2714.794, 482.2419
2716.723, 484.2654
2718.651, 477.6565
2720.580, 470.4348
2722.508, 473.9952
2724.437, 480.8403
2726.365, 480.6465
2728.294, 478.8775
2730.222, 482.1944
2732.151, 488.0970
2734.079, 498.0684
2736.008, 504.4802
2737.936, 493.0196
2739.865, 478.9107
2741.793, 480.3130
2743.721, 488.3434
2745.650, 499.4827
2747.578, 505.2488
2749.507, 489.0472
2751.435, 472.7421
2753.364, 482.4994
2755.292, 498.7821
2757.221, 505.3730
2759.149, 505.5311
2761.078, 498.9486
2763.006, 491.3009
2764.935, 482.9864
2766.863, 480.9638
2768.792, 498.5372
2770.720, 515.6617
2772.648, 518.1882
2774.577, 512.0072
2776.505, 490.8952
2778.434, 476.1283
2780.362, 486.7825
2782.291, 502.2399
2784.219, 513.3117
2786.148, 519.1292
2788.076, 516.2557
2790.005, 513.3311
2791.933, 518.1523
2793.862, 519.5127
2795.790, 507.5813
2797.719, 497.3943
2799.647, 493.3893
2801.575, 495.8358
2803.504, 510.6141
2805.432, 520.3274
2807.361, 513.9591
2809.289, 508.1117
2811.218, 508.6099
2813.146, 508.7964
2815.075, 506.5401
2817.003, 506.3335
2818.932, 512.0574
2820.860, 513.8277
2822.789, 504.3926
2824.717, 500.4356
2826.646, 504.7880
2828.574, 510.8284
2830.502, 518.9438
2832.431, 521.9985
2834.359, 514.5090
2836.288, 513.6116
2838.216, 521.7458
2840.145, 529.5912
2842.073, 537.1639
2844.002, 535.8522
2845.930, 523.1596
2847.859, 517.4599
2849.787, 519.8312
2851.716, 525.7704
2853.644, 534.9679
2855.573, 540.6926
2857.501, 542.6788
2859.429, 540.0007
2861.358, 533.7746
2863.286, 533.8456
2865.215, 538.2225
2867.143, 533.9314
2869.072, 525.6965
2871.000, 528.9897
2872.929, 537.7740
2874.857, 537.3509
2876.786, 531.9515
2878.714, 528.8481
2880.643, 527.3785
2882.571, 526.0119
2884.500, 526.1732
2886.428, 530.8939
2888.356, 536.6367
2890.285, 541.4327
2892.213, 543.3376
2894.142, 536.7693
2896.070, 532.6836
2897.999, 544.5526
2899.927, 552.7225
2901.856, 538.7274
2903.784, 529.5938
2905.713, 538.4213
2907.641, 548.2675
2909.570, 554.5479
2911.498, 556.7453
2913.427, 551.2269
2915.355, 548.7153
2917.283, 551.0234
2919.212, 556.1797
2921.140, 568.2311
2923.069, 567.2241
2924.997, 544.6141
2926.926, 534.1722
2928.854, 537.4263
2930.783, 543.0612
2932.711, 550.2950
2934.640, 558.5624
2936.568, 567.5530
2938.497, 563.8047
2940.425, 550.9955
2942.354, 550.3275
2944.282, 557.2976
2946.210, 557.6425
2948.139, 553.8546
2950.067, 548.8206
2951.996, 546.0532
2953.924, 552.6744
2955.853, 563.4213
2957.781, 577.5992
2959.710, 586.8873
2961.638, 576.7386
2963.567, 567.8680
2965.495, 578.1556
2967.424, 585.0302
2969.352, 572.5322
2971.281, 559.7486
2973.209, 551.6620
2975.137, 549.4661
2977.066, 556.0533
2978.994, 560.0460
2980.923, 557.1421
2982.851, 554.7800
2984.780, 552.8152
2986.708, 555.7335
2988.637, 564.1025
2990.565, 565.6498
2992.494, 559.3227
2994.422, 553.4503
2996.351, 548.3632
2998.279, 549.0108
3000.208, 553.3068
3002.136, 555.2480
3004.064, 555.4384
3005.993, 554.8520
3007.921, 553.6901
3009.850, 551.3973
3011.778, 549.7175
3013.707, 551.2219
3015.635, 552.7591
3017.564, 550.8850
3019.492, 549.9918
3021.421, 552.0930
3023.349, 555.3773
3025.278, 559.4166
3027.206, 564.1635
3029.135, 572.4907
3031.063, 573.5443
3032.991, 564.9020
3034.920, 557.5778
3036.848, 551.7851
3038.777, 559.0103
3040.705, 579.9960
3042.634, 586.5165
3044.562, 581.0654
3046.491, 575.4602
3048.419, 569.2721
3050.348, 557.1707
3052.276, 545.8896
3054.205, 552.0967
3056.133, 560.5609
3058.062, 551.7689
3059.990, 543.3416
3061.918, 551.2184
3063.847, 560.7562
3065.775, 566.0820
3067.704, 569.9796
3069.632, 574.8344
3071.561, 575.6315
3073.489, 571.1539
3075.418, 563.2275
3077.346, 550.4681
3079.275, 554.5826
3081.203, 579.6210
3083.132, 579.9672
3085.060, 559.8990
3086.989, 547.3036
3088.917, 543.8616
3090.845, 559.1809
3092.774, 579.1785
3094.702, 577.6265
3096.631, 569.5097
3098.559, 569.0665
3100.488, 568.9975
3102.416, 562.0074
3104.345, 557.6553
3106.273, 559.3262
3108.202, 565.1119
3110.130, 578.5334
3112.059, 583.9487
3113.987, 576.7658
3115.916, 569.9814
3117.844, 564.0179
3119.772, 558.5929
3121.701, 554.2803
3123.629, 557.3533
3125.558, 564.5056
3127.486, 564.1160
3129.415, 561.5562
3131.343, 565.9378
3133.272, 570.7733
3135.200, 568.6819
3137.129, 565.7817
3139.057, 563.5099
3140.986, 565.0761
3142.914, 576.6971
3144.843, 582.0854
3146.771, 577.2656
3148.699, 576.3730
3150.628, 581.8964
3152.556, 578.9714
3154.485, 567.6282
3156.413, 565.7723
3158.342, 569.3268
3160.270, 563.7864
3162.199, 555.6235
3164.127, 554.1232
3166.056, 558.0637
3167.984, 569.7223
3169.913, 580.4838
3171.841, 587.7348
3173.770, 587.8895
3175.698, 576.6862
3177.626, 567.1738
3179.555, 561.3365
3181.483, 558.3212
3183.412, 558.4629
3185.340, 555.9053
3187.269, 552.2109
3189.197, 559.4937
3191.126, 571.4994
3193.054, 574.5421
3194.983, 572.2509
3196.911, 565.8919
3198.840, 561.3488
3200.768, 563.6475
3202.697, 567.5590
3204.625, 571.4762
3206.553, 575.8588
3208.482, 582.0685
3210.410, 581.9435
3212.339, 573.0400
3214.267, 566.5927
3216.196, 562.5018
3218.124, 559.7305
3220.053, 559.1772
3221.981, 565.0035
3223.910, 572.6583
3225.838, 578.0677
3227.767, 579.8661
3229.695, 573.3893
3231.624, 569.2935
3233.552, 571.1942
3235.480, 577.6039
3237.409, 591.2788
3239.337, 591.7080
3241.266, 575.9396
3243.194, 566.5480
3245.123, 562.7391
3247.051, 561.0520
3248.980, 562.0956
3250.908, 571.4968
3252.837, 578.9233
3254.765, 571.6219
3256.694, 564.9672
3258.622, 568.3941
3260.551, 572.0511
3262.479, 573.7974
3264.407, 577.0206
3266.336, 583.1835
3268.264, 578.9113
3270.193, 565.7231
3272.121, 562.1456
3274.050, 563.4873
3275.978, 559.5115
3277.907, 554.9777
3279.835, 553.3337
3281.764, 556.5592
3283.692, 572.9305
3285.621, 579.9668
3287.549, 563.6965
3289.478, 561.8853
3291.406, 578.3199
3293.334, 581.1321
3295.263, 571.2913
3297.191, 564.3301
3299.120, 562.9124
3301.048, 580.6603
3302.977, 595.9378
3304.905, 580.9130
3306.834, 564.8757
3308.762, 557.9281
3310.691, 560.9351
3312.619, 583.1724
3314.548, 594.0936
3316.476, 593.1168
3318.405, 587.7118
3320.333, 581.2931
3322.261, 590.7188
3324.190, 602.7242
3326.118, 589.6946
3328.047, 576.3889
3329.975, 586.8250
3331.904, 590.6714
3333.832, 572.1673
3335.761, 569.0436
3337.689, 592.2358
3339.618, 602.5943
3341.546, 599.7274
3343.475, 595.1207
3345.403, 590.5148
3347.332, 592.5966
3349.260, 592.6580
3351.188, 576.1128
3353.117, 563.4573
3355.045, 565.7870
3356.974, 571.0714
3358.902, 577.4542
3360.831, 586.3994
3362.759, 597.2801
3364.688, 600.7952
3366.616, 598.3276
3368.545, 589.1807
3370.473, 582.7218
3372.402, 593.9130
3374.330, 602.9656
3376.259, 596.8624
3378.187, 592.7123
3380.115, 594.3159
3382.044, 597.7817
3383.972, 602.8818
3385.901, 601.1313
3387.829, 595.0692
3389.758, 589.2513
3391.686, 586.1127
3393.615, 593.2426
3395.543, 596.4760
3397.472, 580.2558
3399.400, 579.4510
3401.329, 605.7233
3403.257, 602.3167
3405.186, 570.4280
3407.114, 567.0278
3409.042, 580.9438
3410.971, 589.9636
3412.899, 592.3660
3414.828, 574.1025
3416.756, 572.8204
3418.685, 612.6074
3420.613, 633.6393
3422.542, 622.5223
3424.470, 609.1018
3426.399, 596.0662
3428.327, 600.9596
3430.256, 612.6502
3432.184, 615.9553
3434.113, 615.5031
3436.041, 613.7811
3437.969, 611.0244
3439.898, 605.8127
3441.826, 603.1263
3443.755, 603.0540
3445.683, 605.3005
3447.612, 609.3991
3449.540, 617.6582
3451.469, 622.6467
3453.397, 611.6442
3455.326, 605.0201
3457.254, 618.8667
3459.183, 623.9407
3461.111, 617.1509
3463.040, 606.9874
3464.968, 597.2216
3466.896, 610.0737
3468.825, 628.2568
3470.753, 629.6620
3472.682, 625.0995
3474.610, 616.1236
3476.539, 615.8238
3478.467, 630.2696
3480.396, 629.2504
3482.324, 613.4805
3484.253, 613.6793
3486.181, 620.0801
3488.110, 614.1223
3490.038, 609.5948
3491.967, 619.0980
3493.895, 623.8351
3495.823, 610.6404
3497.752, 614.4991
3499.680, 633.2216
3501.609, 633.2027
3503.537, 623.2118
3505.466, 620.1881
3507.394, 617.9080
3509.323, 606.9323
3511.251, 606.4040
3513.180, 628.7530
3515.108, 635.1729
3517.037, 624.9460
3518.965, 614.4681
3520.894, 610.4217
3522.822, 641.4431
3524.750, 665.2458
3526.679, 639.0031
3528.607, 618.4125
3530.536, 615.1069
3532.464, 629.6122
3534.393, 659.6854
3536.321, 670.8022
3538.250, 667.9969
3540.178, 657.7988
3542.107, 645.2961
3544.035, 628.3168
3545.964, 623.7672
3547.892, 638.4319
3549.821, 640.3851
3551.749, 630.1026
3553.677, 629.1376
3555.606, 633.8663
3557.534, 643.1658
3559.463, 648.4147
3561.391, 644.5253
3563.320, 638.7143
3565.248, 631.6542
3567.177, 626.2850
3569.105, 623.8326
3571.034, 629.8865
3572.962, 639.4237
3574.891, 650.7653
3576.819, 655.5539
3578.748, 648.4127
3580.676, 637.6257
3582.604, 624.2321
3584.533, 630.5811
3586.461, 646.0063
3588.390, 643.5916
3590.318, 639.2226
3592.247, 646.4749
3594.175, 649.5344
3596.104, 638.7482
3598.032, 651.6790
3599.961, 681.9460
3601.889, 682.2660
3603.818, 669.3823
3605.746, 664.9901
3607.675, 662.8703
3609.603, 662.5328
3611.531, 657.4059
3613.460, 647.0744
3615.388, 633.6578
3617.317, 622.6351
3619.245, 630.8366
3621.174, 645.2784
3623.102, 663.1942
3625.031, 667.1135
3626.959, 651.4865
3628.888, 648.2686
3630.816, 657.2887
3632.745, 669.6816
3634.673, 677.0742
3636.602, 665.2620
3638.530, 655.9789
3640.458, 659.1234
3642.387, 661.7028
3644.315, 662.3972
3646.244, 660.4020
3648.172, 659.8338
3650.101, 670.5659
3652.029, 682.2329
3653.958, 693.3670
3655.886, 689.4614
3657.815, 667.9803
3659.743, 664.6873
3661.672, 673.6937
3663.600, 679.2073
3665.529, 679.3896
3667.457, 668.0344
3669.385, 660.2316
3671.314, 659.0281
3673.242, 658.9546
3675.171, 659.2292
3677.099, 656.8682
3679.028, 656.1196
3680.956, 664.3646
3682.885, 667.8370
3684.813, 661.5642
3686.742, 667.1046
3688.670, 681.8314
3690.599, 674.2202
3692.527, 664.2936
3694.456, 681.4132
3696.384, 689.4974
3698.313, 675.1975
3700.241, 669.9819
3702.169, 675.5057
3704.098, 678.9138
3706.026, 681.4749
3707.955, 685.9442
3709.883, 687.7660
3711.812, 684.9165
3713.740, 682.8660
3715.669, 682.0209
3717.597, 681.6317
3719.526, 678.5896
3721.454, 660.2328
3723.383, 657.4824
3725.311, 687.1848
3727.240, 696.5609
3729.168, 682.7846
3731.096, 676.9566
3733.025, 678.4550
3734.953, 692.6934
3736.882, 698.4930
3738.810, 685.3754
3740.739, 685.4979
3742.667, 698.6345
3744.596, 691.1392
3746.524, 678.4368
3748.453, 678.5221
3750.381, 681.5704
3752.310, 685.0255
3754.238, 684.8896
3756.167, 681.9081
3758.095, 681.3617
3760.023, 683.9986
3761.952, 693.1417
3763.880, 699.6595
3765.809, 701.2295
3767.737, 701.6784
3769.666, 701.4838
3771.594, 701.1995
3773.523, 700.4672
3775.451, 697.1146
3777.380, 698.5705
3779.308, 706.5641
3781.237, 703.7605
3783.165, 695.1347
3785.094, 694.4333
3787.022, 699.1001
3788.950, 712.6298
3790.879, 718.5128
3792.807, 715.1592
3794.736, 704.6631
3796.664, 696.7700
3798.593, 722.3222
3800.521, 737.3776
3802.450, 707.7388
3804.378, 692.8637
3806.307, 694.7566
3808.235, 705.8171
3810.164, 715.7860
3812.092, 710.4135
3814.021, 704.1085
3815.949, 702.3935
3817.877, 698.4341
3819.806, 692.8959
3821.734, 685.7372
3823.663, 684.0400
3825.591, 696.4145
3827.520, 703.0994
3829.448, 699.2415
3831.377, 701.1093
3833.305, 707.4099
3835.234, 722.4266
3837.162, 725.7646
3839.091, 703.3632
3841.019, 692.2255
3842.948, 694.9156
3844.876, 713.1280
3846.804, 730.8873
3848.733, 727.1724
3850.661, 725.1070
3852.590, 731.0380
3854.518, 730.9262
3856.447, 725.1749
3858.375, 715.3334
3860.304, 709.1296
3862.232, 712.3842
3864.161, 714.5875
3866.089, 714.6434
3868.018, 712.4387
3869.946, 708.8823
3871.875, 706.1156
3873.803, 697.4811
3875.731, 681.4778
3877.660, 692.0563
3879.588, 716.1398
3881.517, 721.2416
3883.445, 721.1155
3885.374, 718.6758
3887.302, 719.9229
3889.231, 724.3848
3891.159, 724.2740
3893.088, 720.2078
3895.016, 703.3984
3896.945, 701.2659
3898.873, 721.8719
3900.802, 725.5084
3902.730, 721.9965
3904.658, 718.7693
3906.587, 719.8787
3908.515, 732.2322
3910.444, 735.2159
3912.372, 729.0708
3914.301, 722.6019
3916.229, 715.6236
3918.158, 703.7719
3920.086, 706.2437
3922.015, 726.1076
3923.943, 735.0037
3925.872, 733.6797
3927.800, 718.7242
3929.729, 709.6237
3931.657, 710.9435
3933.585, 712.6466
3935.514, 714.6490
3937.442, 713.1843
3939.371, 714.4171
3941.299, 728.7964
3943.228, 729.6396
3945.156, 719.9717
3947.085, 720.0258
3949.013, 721.5909
3950.942, 721.6349
3952.870, 720.5075
3954.799, 719.1799
3956.727, 720.3320
3958.656, 722.6318
3960.584, 729.5045
3962.512, 731.6754
3964.441, 724.0659
3966.369, 715.8164
3968.298, 709.2073
3970.226, 708.7802
3972.155, 711.2773
3974.083, 716.7852
3976.012, 714.7268
3977.940, 708.5519
3979.869, 716.1167
3981.797, 721.9784
3983.726, 714.3799
3985.654, 716.5200
3987.583, 729.2571
3989.511, 725.9950
3991.439, 719.7894
3993.368, 727.4606
3995.296, 729.6169
3997.225, 723.7725
3999.153, 716.7873
4001.082, 711.3945
4003.010, 709.8768
4004.939, 718.1310
4006.867, 741.8969
4008.796, 749.4360
4010.724, 740.6190
4012.653, 731.8496
4014.581, 727.3969
4016.510, 727.7463
4018.438, 725.2794
4020.366, 718.6757
4022.295, 714.4117
4024.223, 716.3444
4026.152, 717.2755
4028.080, 717.6196
4030.009, 723.7401
4031.937, 721.1208
4033.866, 710.7977
4035.794, 711.0081
4037.723, 721.7808
4039.651, 730.6650
4041.580, 729.9359
4043.508, 726.5519
4045.437, 721.6143
4047.365, 715.7480
4049.293, 713.5566
4051.222, 716.7881
4053.150, 718.9884
4055.079, 717.0825
4057.007, 710.1344
4058.936, 715.7101
4060.864, 726.8649
4062.793, 726.3585
4064.721, 725.4594
4066.650, 723.9133
4068.578, 728.7878
4070.507, 735.6237
4072.435, 736.2168
4074.364, 736.5746
4076.292, 725.2581
4078.220, 721.3084
4080.149, 737.4485
4082.077, 744.3643
4084.006, 732.4045
4085.934, 732.5891
4087.863, 730.3817
4089.791, 723.7160
4091.720, 721.7818
4093.648, 725.8795
4095.577, 748.0384
4097.505, 756.7805
4099.434, 748.9822
4101.362, 749.0889
4103.291, 749.1193
4105.219, 740.3779
4107.147, 732.8538
4109.076, 738.1268
4111.004, 742.0953
4112.933, 737.7460
4114.861, 732.9896
4116.790, 733.2139
4118.718, 738.6088
4120.646, 742.3671
4122.575, 746.8284
4124.503, 749.8912
4126.432, 745.7101
4128.360, 748.5165
4130.289, 754.1264
4132.217, 749.5439
4134.146, 750.5371
4136.074, 749.3475
4138.003, 738.5715
4139.931, 750.6747
4141.860, 767.9536
4143.788, 753.8906
4145.717, 746.6326
4147.645, 756.1849
4149.574, 760.7738
4151.502, 762.8430
4153.431, 749.4351
4155.359, 744.5757
4157.288, 762.1588
4159.216, 767.8079
4161.145, 765.0027
4163.073, 768.8950
4165.001, 768.0814
4166.930, 762.6066
4168.858, 767.1261
4170.787, 776.2770
4172.715, 794.2606
4174.644, 796.0019
4176.572, 778.7646
4178.500, 774.0923
4180.429, 773.9524
4182.357, 765.1094
4184.286, 766.4642
4186.214, 780.0811
4188.143, 797.3487
4190.071, 808.3640
4192.000, 798.4805
4193.928, 796.7292
4195.857, 807.5947
4197.785, 819.7944
4199.714, 825.3200
4201.642, 811.4016
4203.571, 807.0241
4205.499, 815.7166
4207.428, 790.5613
4209.356, 772.2424
4211.285, 806.8843
4213.213, 823.2020
4215.142, 814.0140
4217.070, 817.8566
4218.999, 823.4953
4220.927, 821.1572
4222.855, 830.4266
4224.784, 849.0604
4226.712, 848.0700
4228.641, 843.3397
4230.569, 846.7136
4232.498, 844.0054
4234.426, 838.0173
4236.354, 850.1750
4238.283, 862.0513
4240.211, 861.8212
4242.140, 865.7726
4244.068, 872.2271
4245.997, 870.1271
4247.925, 872.3383
4249.854, 889.0062
4251.782, 886.3347
4253.711, 873.6492
4255.639, 866.8734
4257.568, 878.0651
4259.496, 921.3928
4261.425, 901.9403
4263.353, 863.7813
4265.282, 876.1234
4267.210, 893.4390
4269.139, 906.4799
4271.067, 913.0558
4272.996, 916.4521
4274.924, 921.5355
4276.853, 916.6923
4278.781, 903.3217
4280.709, 917.5345
4282.638, 936.9034
4284.566, 949.5820
4286.495, 940.6760
4288.423, 917.9828
4290.352, 914.2698
4292.280, 921.8467
4294.208, 939.3776
4296.137, 961.7410
4298.065, 978.2529
4299.994, 955.9688
4301.922, 945.7841
4303.851, 964.2033
4305.779, 964.6956
4307.708, 960.2144
4309.636, 967.9243
4311.565, 976.0613
4313.493, 982.1406
4315.422, 980.6270
4317.350, 978.0940
4319.279, 976.4199
4321.207, 997.9018
4323.136, 1028.974
4325.064, 1007.015
4326.993, 981.2221
4328.921, 970.7414
4330.850, 988.5966
4332.778, 1016.267
4334.707, 1023.056
4336.635, 1023.242
4338.563, 1020.769
4340.492, 1017.714
4342.420, 1016.956
4344.349, 1021.591
4346.277, 1027.038
4348.206, 1032.808
4350.134, 1038.714
4352.063, 1046.677
4353.991, 1061.042
4355.919, 1054.033
4357.848, 1036.762
4359.776, 1033.591
4361.705, 1024.729
4363.633, 1004.779
4365.562, 1025.664
4367.490, 1055.540
4369.419, 1066.476
4371.347, 1059.473
4373.276, 1042.228
4375.204, 1050.556
4377.133, 1060.208
4379.061, 1058.396
4380.990, 1076.543
4382.918, 1093.100
4384.847, 1063.929
4386.775, 1047.917
4388.704, 1054.685
4390.632, 1045.727
4392.561, 1046.155
4394.489, 1078.355
4396.417, 1083.942
4398.346, 1072.642
4400.274, 1085.776
4402.203, 1088.024
4404.131, 1070.411
4406.060, 1081.913
4407.988, 1097.868
4409.917, 1085.718
4411.845, 1087.325
4413.773, 1102.001
4415.702, 1110.875
4417.630, 1112.966
4419.559, 1104.552
4421.487, 1103.996
4423.416, 1107.057
4425.344, 1111.811
4427.273, 1102.086
4429.201, 1080.559
4431.130, 1090.388
4433.058, 1102.494
4434.987, 1102.248
4436.915, 1105.111
4438.844, 1107.147
4440.772, 1096.629
4442.701, 1095.219
4444.629, 1102.439
4446.558, 1088.214
4448.486, 1074.392
4450.415, 1073.711
4452.343, 1088.415
4454.271, 1105.728
4456.200, 1101.286
4458.128, 1095.002
4460.057, 1091.074
4461.985, 1093.198
4463.914, 1091.456
4465.842, 1077.346
4467.771, 1075.104
4469.699, 1083.657
4471.627, 1105.865
4473.556, 1117.733
4475.484, 1115.547
4477.413, 1097.487
4479.341, 1079.674
4481.270, 1067.693
4483.198, 1096.891
4485.127, 1134.088
4487.055, 1121.381
4488.984, 1108.829
4490.912, 1103.879
4492.841, 1098.790
4494.769, 1092.175
4496.698, 1081.800
4498.626, 1093.822
4500.555, 1107.196
4502.483, 1090.970
4504.412, 1091.389
4506.340, 1105.121
4508.269, 1096.051
4510.197, 1087.060
4512.125, 1086.868
4514.054, 1092.390
4515.982, 1098.978
4517.911, 1103.828
4519.839, 1098.210
4521.768, 1091.066
4523.696, 1115.837
4525.625, 1119.857
4527.553, 1095.100
4529.481, 1114.463
4531.410, 1123.082
4533.338, 1082.593
4535.267, 1093.394
4537.195, 1119.342
4539.124, 1084.185
4541.052, 1085.638
4542.981, 1123.175
4544.909, 1117.644
4546.838, 1108.997
4548.766, 1112.670
4550.695, 1107.489
4552.623, 1101.875
4554.552, 1103.455
4556.480, 1107.837
4558.409, 1108.970
4560.337, 1090.833
4562.266, 1082.329
4564.194, 1087.785
4566.123, 1094.962
4568.051, 1088.248
4569.979, 1054.615
4571.908, 1064.637
4573.836, 1086.959
4575.765, 1090.730
4577.693, 1083.223
4579.622, 1074.130
4581.550, 1083.101
4583.479, 1098.885
4585.407, 1114.713
4587.335, 1084.720
4589.264, 1066.955
4591.192, 1096.689
4593.121, 1088.866
4595.049, 1076.956
4596.978, 1099.901
4598.906, 1102.949
4600.835, 1096.240
4602.763, 1121.648
4604.692, 1128.001
4606.620, 1109.338
4608.549, 1106.995
4610.477, 1103.660
4612.406, 1090.930
4614.334, 1108.698
4616.263, 1122.016
4618.191, 1099.808
4620.120, 1071.307
4622.048, 1059.455
4623.977, 1113.966
4625.905, 1135.109
4627.833, 1116.600
4629.762, 1089.752
4631.690, 1072.912
4633.619, 1070.782
4635.547, 1071.957
4637.476, 1079.745
4639.404, 1097.685
4641.333, 1100.285
4643.261, 1092.991
4645.189, 1075.013
4647.118, 1086.200
4649.046, 1109.162
4650.975, 1096.331
4652.903, 1099.333
4654.832, 1116.124
4656.760, 1091.870
4658.689, 1082.876
4660.617, 1109.415
4662.546, 1107.279
4664.474, 1096.785
4666.403, 1089.256
4668.331, 1088.742
4670.260, 1089.356
4672.188, 1086.950
4674.117, 1069.782
4676.045, 1051.893
4677.974, 1064.567
4679.902, 1075.278
4681.831, 1078.361
4683.759, 1065.557
4685.688, 1062.724
4687.616, 1074.546
4689.544, 1097.089
4691.473, 1105.095
4693.401, 1081.526
4695.330, 1097.880
4697.258, 1114.214
4699.187, 1101.110
4701.115, 1086.216
4703.043, 1079.968
4704.972, 1096.476
4706.900, 1107.347
4708.829, 1110.879
4710.757, 1106.436
4712.686, 1103.842
4714.614, 1102.676
4716.543, 1094.729
4718.471, 1089.895
4720.400, 1088.997
4722.328, 1075.359
4724.257, 1078.138
4726.185, 1111.120
4728.114, 1106.466
4730.042, 1094.508
4731.971, 1091.355
4733.899, 1099.375
4735.828, 1107.814
4737.756, 1104.267
4739.685, 1109.601
4741.613, 1114.944
4743.542, 1108.353
4745.470, 1094.797
4747.398, 1085.296
4749.327, 1103.955
4751.255, 1108.463
4753.184, 1100.600
4755.112, 1105.770
4757.041, 1102.791
4758.969, 1092.358
4760.897, 1099.392
4762.826, 1098.706
4764.754, 1084.944
4766.683, 1090.813
4768.611, 1096.097
4770.540, 1093.761
4772.468, 1105.045
4774.397, 1116.155
4776.325, 1119.776
4778.254, 1102.835
4780.182, 1088.780
4782.111, 1095.942
4784.039, 1092.484
4785.968, 1086.533
4787.896, 1082.748
4789.825, 1114.014
4791.753, 1144.864
4793.682, 1126.031
4795.610, 1100.331
4797.539, 1082.397
4799.467, 1089.730
4801.396, 1106.056
4803.324, 1121.966
4805.252, 1124.990
4807.181, 1104.595
4809.109, 1080.043
4811.038, 1121.388
4812.966, 1128.307
4814.895, 1099.043
4816.823, 1100.437
4818.751, 1105.107
4820.680, 1108.302
4822.608, 1126.131
4824.537, 1123.390
4826.465, 1095.287
4828.394, 1077.102
4830.322, 1072.734
4832.251, 1082.618
4834.179, 1108.366
4836.108, 1121.028
4838.036, 1109.614
4839.965, 1095.332
4841.893, 1089.691
4843.822, 1097.090
4845.750, 1112.856
4847.679, 1119.544
4849.607, 1106.186
4851.536, 1119.559
4853.464, 1123.572
4855.393, 1100.168
4857.321, 1107.439
4859.250, 1117.749
4861.178, 1109.650
4863.106, 1103.634
4865.035, 1108.427
4866.963, 1129.607
4868.892, 1127.222
4870.820, 1124.019
4872.749, 1145.513
4874.677, 1122.893
4876.605, 1101.708
4878.534, 1115.111
4880.462, 1118.486
4882.391, 1117.883
4884.319, 1120.556
4886.248, 1117.492
4888.176, 1124.644
4890.105, 1158.269
4892.033, 1132.092
4893.962, 1104.582
4895.890, 1131.452
4897.819, 1115.602
4899.747, 1100.454
4901.676, 1127.698
4903.604, 1132.715
4905.533, 1128.133
4907.461, 1125.605
4909.390, 1118.487
4911.318, 1120.984
4913.247, 1151.831
4915.175, 1165.743
4917.104, 1158.447
4919.032, 1126.692
4920.960, 1128.405
4922.889, 1135.774
4924.817, 1123.993
4926.746, 1125.365
4928.674, 1126.231
4930.603, 1118.057
4932.531, 1129.296
4934.459, 1139.566
4936.388, 1135.512
4938.316, 1153.527
4940.245, 1157.907
4942.173, 1128.047
4944.102, 1130.502
4946.030, 1130.022
4947.959, 1112.143
4949.887, 1116.970
4951.816, 1132.594
4953.744, 1152.487
4955.673, 1160.546
4957.601, 1159.334
4959.530, 1151.780
4961.458, 1149.299
4963.387, 1149.023
4965.315, 1147.678
4967.244, 1122.303
4969.172, 1107.633
4971.101, 1112.378
4973.029, 1137.565
4974.958, 1147.121
4976.886, 1141.494
4978.814, 1151.628
4980.743, 1146.109
4982.671, 1131.219
4984.600, 1143.100
4986.528, 1146.414
4988.457, 1141.370
4990.385, 1137.994
4992.313, 1144.675
4994.242, 1150.879
4996.170, 1134.376
4998.099, 1126.150
5000.027, 1132.409
5001.956, 1160.104
5003.884, 1171.738
5005.813, 1165.842
5007.741, 1135.309
5009.670, 1139.809
5011.598, 1148.439
5013.527, 1139.522
5015.455, 1154.892
5017.384, 1165.217
5019.312, 1154.590
5021.241, 1144.647
5023.169, 1142.771
5025.098, 1150.656
5027.026, 1156.079
5028.955, 1157.050
5030.883, 1155.564
5032.812, 1161.575
5034.740, 1172.882
5036.668, 1180.516
5038.597, 1151.575
5040.525, 1141.587
5042.454, 1151.986
5044.382, 1174.430
5046.311, 1160.642
5048.239, 1136.656
5050.167, 1143.636
5052.096, 1161.523
5054.024, 1176.017
5055.953, 1175.878
5057.881, 1170.782
5059.810, 1154.406
5061.738, 1125.092
5063.667, 1117.517
5065.595, 1139.429
5067.524, 1187.276
5069.452, 1191.531
5071.381, 1183.830
5073.309, 1175.026
5075.238, 1169.286
5077.166, 1163.384
5079.095, 1157.552
5081.023, 1151.830
5082.952, 1153.319
5084.880, 1161.320
5086.809, 1174.679
5088.737, 1192.354
5090.666, 1194.287
5092.594, 1164.000
5094.522, 1173.410
5096.451, 1191.168
5098.379, 1198.373
5100.308, 1180.127
5102.236, 1163.306
5104.165, 1159.543
5106.093, 1184.220
5108.021, 1209.602
5109.950, 1219.930
5111.878, 1185.456
5113.807, 1155.851
5115.735, 1143.919
5117.664, 1159.842
5119.592, 1175.358
5121.521, 1190.048
5123.449, 1205.145
5125.378, 1210.393
5127.306, 1202.236
5129.235, 1183.239
5131.163, 1210.563
5133.092, 1208.604
5135.020, 1175.182
5136.949, 1165.440
5138.877, 1159.459
5140.806, 1154.922
5142.734, 1151.071
5144.663, 1161.498
5146.591, 1176.390
5148.520, 1186.874
5150.448, 1214.274
5152.376, 1212.144
5154.305, 1171.820
5156.233, 1183.790
5158.162, 1187.366
5160.090, 1177.758
5162.019, 1200.633
5163.947, 1202.384
5165.875, 1195.470
5167.804, 1209.034
5169.732, 1202.499
5171.661, 1198.173
5173.589, 1213.719
5175.518, 1181.131
5177.446, 1176.585
5179.375, 1217.690
5181.303, 1222.778
5183.232, 1205.955
5185.160, 1188.095
5187.089, 1206.257
5189.017, 1209.433
5190.946, 1203.591
5192.874, 1198.591
5194.803, 1209.287
5196.731, 1208.624
5198.660, 1188.332
5200.588, 1204.290
5202.517, 1221.630
5204.445, 1226.168
5206.374, 1192.592
5208.302, 1208.629
5210.230, 1234.017
5212.159, 1203.461
5214.087, 1224.000
5216.016, 1227.066
5217.944, 1185.805
5219.873, 1189.094
5221.801, 1197.683
5223.729, 1205.029
5225.658, 1228.350
5227.586, 1229.640
5229.515, 1218.761
5231.443, 1206.203
5233.372, 1236.531
5235.300, 1256.290
5237.229, 1244.790
5239.157, 1240.332
5241.086, 1247.933
5243.014, 1259.267
5244.943, 1255.052
5246.871, 1242.536
5248.800, 1231.690
5250.728, 1231.045
5252.657, 1208.898
5254.585, 1213.822
5256.514, 1250.337
5258.442, 1257.894
5260.371, 1246.383
5262.299, 1234.516
5264.228, 1254.696
5266.156, 1244.956
5268.084, 1229.831
5270.013, 1226.462
5271.941, 1228.392
5273.870, 1235.519
5275.798, 1246.860
5277.727, 1268.595
5279.655, 1250.324
5281.583, 1225.180
5283.512, 1231.693
5285.440, 1234.433
5287.369, 1248.772
5289.297, 1270.765
5291.226, 1249.135
5293.154, 1245.499
5295.083, 1257.102
5297.011, 1266.763
5298.940, 1271.193
5300.868, 1264.357
5302.797, 1246.551
5304.725, 1260.014
5306.654, 1264.782
5308.582, 1260.616
5310.511, 1264.574
5312.439, 1261.696
5314.368, 1255.637
5316.296, 1251.113
5318.225, 1268.287
5320.153, 1262.902
5322.082, 1244.813
5324.010, 1271.670
5325.938, 1281.999
5327.867, 1298.450
5329.795, 1336.080
5331.724, 1278.344
5333.652, 1246.834
5335.581, 1261.894
5337.509, 1283.371
5339.438, 1288.197
5341.366, 1276.821
5343.294, 1248.263
5345.223, 1274.526
5347.151, 1299.916
5349.080, 1305.629
5351.008, 1285.951
5352.937, 1287.133
5354.865, 1302.619
5356.794, 1320.860
5358.722, 1284.426
5360.651, 1280.504
5362.579, 1304.787
5364.508, 1256.809
5366.436, 1276.470
5368.365, 1307.144
5370.293, 1298.448
5372.222, 1294.039
5374.150, 1289.100
5376.079, 1287.041
5378.007, 1298.885
5379.936, 1328.460
5381.864, 1330.315
5383.792, 1280.170
5385.721, 1274.895
5387.649, 1299.300
5389.578, 1325.610
5391.506, 1316.747
5393.435, 1293.403
5395.363, 1286.599
5397.292, 1304.460
5399.220, 1310.526
5401.148, 1309.150
5403.077, 1307.663
5405.005, 1317.188
5406.934, 1305.306
5408.862, 1295.468
5410.791, 1297.540
5412.719, 1314.676
5414.648, 1327.965
5416.576, 1320.607
5418.505, 1285.995
5420.433, 1306.475
5422.362, 1328.720
5424.290, 1331.096
5426.219, 1291.406
5428.147, 1307.500
5430.076, 1335.994
5432.004, 1344.814
5433.933, 1302.331
5435.861, 1291.365
5437.790, 1305.275
5439.718, 1318.103
5441.646, 1305.414
5443.575, 1313.194
5445.503, 1341.741
5447.432, 1339.941
5449.360, 1340.080
5451.289, 1336.871
5453.217, 1325.108
5455.146, 1306.115
5457.074, 1322.531
5459.002, 1347.196
5460.931, 1333.732
5462.859, 1348.360
5464.788, 1363.823
5466.716, 1367.771
5468.645, 1360.967
5470.573, 1356.104
5472.502, 1350.888
5474.430, 1343.628
5476.359, 1346.768
5478.287, 1346.256
5480.216, 1342.477
5482.144, 1339.654
5484.073, 1326.229
5486.001, 1331.622
5487.930, 1347.252
5489.858, 1320.697
5491.787, 1324.730
5493.715, 1337.605
5495.644, 1341.777
5497.572, 1320.998
5499.500, 1338.299
5501.429, 1362.053
5503.357, 1352.939
5505.286, 1370.752
5507.214, 1357.201
5509.143, 1339.797
5511.071, 1387.551
5513.000, 1390.921
5514.928, 1369.908
5516.856, 1345.545
5518.785, 1341.419
5520.713, 1354.789
5522.642, 1363.756
5524.570, 1357.994
5526.499, 1354.638
5528.427, 1385.356
5530.356, 1403.996
5532.284, 1368.997
5534.213, 1389.042
5536.141, 1390.637
5538.070, 1372.606
5539.998, 1359.557
5541.927, 1380.020
5543.855, 1375.154
5545.784, 1352.063
5547.712, 1395.470
5549.641, 1376.753
5551.569, 1355.026
5553.498, 1358.896
5555.426, 1370.761
5557.354, 1365.517
5559.283, 1374.416
5561.211, 1408.305
5563.140, 1385.724
5565.068, 1386.009
5566.997, 1408.486
5568.925, 1436.580
5570.854, 1417.834
5572.782, 1383.609
5574.710, 1359.684
5576.639, 1368.822
5578.567, 1396.337
5580.496, 1413.030
5582.424, 1412.566
5584.353, 1398.478
5586.281, 1398.074
5588.210, 1407.075
5590.138, 1416.321
5592.067, 1413.668
5593.995, 1393.501
5595.924, 1381.136
5597.852, 1384.402
5599.781, 1390.707
5601.709, 1425.575
5603.638, 1424.873
5605.566, 1381.367
5607.495, 1402.320
5609.423, 1421.875
5611.352, 1433.130
5613.280, 1436.979
5615.208, 1435.005
5617.137, 1419.338
5619.065, 1404.896
5620.994, 1402.193
5622.922, 1405.570
5624.851, 1438.453
5626.779, 1451.558
5628.708, 1416.132
5630.636, 1403.263
5632.564, 1408.585
5634.493, 1412.120
5636.421, 1402.304
5638.350, 1436.216
5640.278, 1444.333
5642.207, 1436.296
5644.135, 1432.834
5646.064, 1436.164
5647.992, 1450.440
5649.921, 1454.782
5651.849, 1436.197
5653.778, 1445.415
5655.706, 1453.427
5657.635, 1446.570
5659.563, 1425.050
5661.492, 1459.784
5663.420, 1471.622
5665.349, 1461.254
5667.277, 1445.443
5669.206, 1475.126
5671.134, 1485.042
5673.063, 1471.388
5674.991, 1446.793
5676.919, 1473.449
5678.848, 1476.957
5680.776, 1464.581
5682.705, 1455.653
5684.633, 1463.742
5686.562, 1451.546
5688.490, 1444.031
5690.418, 1460.393
5692.347, 1484.740
5694.275, 1481.947
5696.204, 1474.370
5698.132, 1476.862
5700.061, 1471.568
5701.989, 1462.553
5703.918, 1458.174
5705.846, 1461.389
5707.775, 1466.771
5709.703, 1470.743
5711.632, 1475.487
5713.560, 1476.312
5715.489, 1451.656
5717.417, 1473.900
5719.346, 1498.976
5721.274, 1504.046
5723.203, 1489.365
5725.131, 1482.326
5727.060, 1488.083
5728.988, 1488.585
5730.917, 1455.080
5732.845, 1479.957
5734.773, 1482.655
5736.702, 1472.578
5738.630, 1493.268
5740.559, 1529.855
5742.487, 1532.697
5744.416, 1513.583
5746.344, 1496.653
5748.272, 1506.071
5750.201, 1481.470
5752.129, 1479.817
5754.058, 1525.221
5755.986, 1463.561
5757.915, 1486.188
5759.843, 1521.244
5761.772, 1518.606
5763.700, 1495.655
5765.629, 1521.122
5767.557, 1524.308
5769.486, 1500.876
5771.414, 1500.849
5773.343, 1545.235
5775.271, 1526.647
5777.200, 1483.724
5779.128, 1498.522
5781.057, 1522.695
5782.985, 1529.148
5784.914, 1524.193
5786.842, 1518.211
5788.771, 1507.185
5790.699, 1541.152
5792.627, 1568.886
5794.556, 1563.447
5796.484, 1533.669
5798.413, 1566.101
5800.341, 1571.365
5802.270, 1533.631
5804.198, 1488.579
5806.126, 1528.275
5808.055, 1553.882
5809.983, 1556.180
5811.912, 1552.297
5813.840, 1524.573
5815.769, 1557.408
5817.697, 1584.175
5819.626, 1570.655
5821.554, 1570.784
5823.483, 1559.555
5825.411, 1555.355
5827.340, 1561.694
5829.268, 1569.942
5831.197, 1601.230
5833.125, 1594.701
5835.054, 1573.909
5836.982, 1572.245
5838.911, 1562.866
5840.839, 1604.657
5842.768, 1613.785
5844.696, 1576.955
5846.625, 1591.348
5848.553, 1608.613
5850.481, 1604.665
5852.410, 1582.934
5854.338, 1559.103
5856.267, 1589.037
5858.195, 1614.606
5860.124, 1622.971
5862.052, 1613.859
5863.980, 1588.396
5865.909, 1566.272
5867.837, 1562.204
5869.766, 1580.022
5871.694, 1614.719
5873.623, 1610.460
5875.551, 1584.280
5877.480, 1577.981
5879.408, 1607.173
5881.337, 1634.516
5883.265, 1619.406
5885.194, 1608.560
5887.122, 1602.451
5889.051, 1573.878
5890.979, 1580.449
5892.908, 1584.785
5894.836, 1601.905
5896.765, 1634.702
5898.693, 1624.290
5900.622, 1597.260
5902.550, 1594.512
5904.479, 1602.542
5906.407, 1580.352
5908.335, 1642.626
5910.264, 1633.120
5912.192, 1630.692
5914.121, 1665.376
5916.049, 1611.366
5917.978, 1624.160
5919.906, 1648.523
5921.834, 1645.332
5923.763, 1603.179
5925.691, 1613.407
5927.620, 1648.158
5929.548, 1655.998
5931.477, 1639.321
5933.405, 1643.438
5935.334, 1657.493
5937.262, 1648.755
5939.191, 1639.463
5941.119, 1651.050
5943.048, 1674.383
5944.976, 1678.131
5946.905, 1666.599
5948.833, 1666.032
5950.762, 1692.995
5952.690, 1670.871
5954.619, 1639.579
5956.547, 1641.778
5958.476, 1656.034
5960.404, 1616.129
5962.333, 1659.633
5964.261, 1666.163
5966.189, 1661.707
5968.118, 1675.498
5970.046, 1675.221
5971.975, 1675.594
5973.903, 1679.470
5975.832, 1678.198
5977.760, 1670.100
5979.688, 1706.212
5981.617, 1675.562
5983.545, 1661.892
5985.474, 1679.868
5987.402, 1693.811
5989.331, 1695.886
5991.259, 1711.115
5993.188, 1723.975
5995.116, 1716.410
5997.045, 1671.626
5998.973, 1683.406
6000.902, 1707.082
6002.830, 1711.522
6004.759, 1701.150
6006.687, 1727.968
6008.616, 1704.228
6010.544, 1670.071
6012.473, 1667.935
6014.401, 1701.849
6016.330, 1713.461
6018.258, 1719.172
6020.187, 1724.029
6022.115, 1708.983
6024.043, 1676.967
6025.972, 1727.858
6027.900, 1699.055
6029.829, 1742.486
6031.757, 1776.887
6033.686, 1706.105
6035.614, 1720.778
6037.542, 1723.501
6039.471, 1717.674
6041.399, 1712.723
6043.328, 1713.941
6045.256, 1722.241
6047.185, 1733.507
6049.113, 1735.492
6051.042, 1726.036
6052.970, 1713.015
6054.899, 1732.857
6056.827, 1774.504
6058.756, 1790.733
6060.684, 1801.639
6062.613, 1842.493
6064.541, 1888.992
6066.470, 1884.023
6068.398, 1862.375
6070.327, 1817.865
6072.255, 1749.945
6074.184, 1787.724
6076.112, 1734.177
6078.041, 1721.286
6079.969, 1732.111
6081.897, 1720.699
6083.826, 1788.921
6085.754, 1726.442
6087.683, 1715.889
6089.611, 1744.363
6091.540, 1744.190
6093.468, 1700.826
6095.396, 1712.522
6097.325, 1757.443
6099.253, 1786.269
6101.182, 1778.716
6103.110, 1760.134
6105.039, 1769.467
6106.967, 1747.742
6108.896, 1736.319
6110.824, 1747.467
6112.753, 1738.536
6114.681, 1747.427
6116.610, 1753.276
6118.538, 1759.309
6120.467, 1761.086
6122.395, 1748.118
6124.324, 1772.076
6126.252, 1791.197
6128.181, 1796.788
6130.109, 1798.547
6132.038, 1803.184
6133.966, 1770.688
6135.895, 1768.242
6137.823, 1784.537
6139.751, 1807.035
6141.680, 1819.479
6143.608, 1782.741
6145.537, 1782.909
6147.465, 1782.341
6149.394, 1797.730
6151.322, 1815.940
6153.250, 1778.057
6155.179, 1829.521
6157.107, 1818.311
6159.036, 1790.835
6160.964, 1786.966
6162.893, 1805.597
6164.821, 1759.972
6166.750, 1788.919
6168.678, 1805.004
6170.607, 1801.466
6172.535, 1797.066
6174.464, 1789.029
6176.392, 1795.457
6178.321, 1801.754
6180.249, 1810.974
6182.178, 1820.873
6184.106, 1823.543
6186.035, 1807.508
6187.963, 1820.071
6189.892, 1814.417
6191.820, 1801.856
6193.749, 1804.818
6195.677, 1818.932
6197.605, 1842.135
6199.534, 1784.184
6201.462, 1767.558
6203.391, 1798.985
6205.319, 1799.056
6207.248, 1826.011
6209.176, 1798.992
6211.104, 1808.517
6213.033, 1817.365
6214.961, 1795.830
6216.890, 1791.663
6218.818, 1792.134
6220.747, 1833.814
6222.675, 1856.260
6224.604, 1841.696
6226.532, 1821.354
6228.461, 1856.779
6230.389, 1832.282
6232.318, 1816.529
6234.246, 1805.591
6236.175, 1799.826
6238.103, 1818.903
6240.032, 1849.323
6241.960, 1813.077
6243.889, 1825.908
6245.817, 1844.039
6247.746, 1824.628
6249.674, 1818.145
6251.603, 1822.942
6253.531, 1851.245
6255.459, 1845.501
6257.388, 1823.204
6259.316, 1819.956
6261.245, 1822.239
6263.173, 1829.100
6265.102, 1843.049
6267.030, 1865.377
6268.958, 1865.724
6270.887, 1825.464
6272.815, 1811.988
6274.744, 1854.418
6276.672, 1846.791
6278.601, 1849.563
6280.529, 1846.788
6282.458, 1785.349
6284.386, 1797.286
6286.315, 1861.906
6288.243, 1841.707
6290.172, 1821.643
6292.100, 1826.256
6294.029, 1811.035
6295.957, 1841.110
6297.886, 1840.248
6299.814, 1857.226
6301.743, 1854.435
6303.671, 1837.970
6305.600, 1844.057
6307.528, 1812.347
6309.457, 1839.036
6311.385, 1835.327
6313.313, 1821.916
6315.242, 1817.612
6317.170, 1824.068
6319.099, 1893.976
6321.027, 1863.610
6322.956, 1848.253
6324.884, 1851.892
6326.813, 1860.120
6328.741, 1866.775
6330.669, 1841.860
6332.598, 1823.486
6334.526, 1868.124
6336.455, 1854.489
6338.383, 1822.791
6340.312, 1845.088
6342.240, 1813.331
6344.169, 1847.347
6346.097, 1814.336
6348.026, 1821.565
6349.954, 1832.573
6351.883, 1817.027
6353.811, 1857.930
6355.740, 1840.203
6357.668, 1873.664
6359.597, 1866.601
6361.525, 1850.026
6363.454, 1855.074
6365.382, 1855.594
6367.311, 1821.575
6369.239, 1830.959
6371.167, 1838.353
6373.096, 1870.987
6375.024, 1880.150
6376.953, 1824.163
6378.881, 1828.749
6380.810, 1840.367
6382.738, 1855.516
6384.667, 1866.467
6386.595, 1865.738
6388.523, 1858.416
6390.452, 1858.627
6392.380, 1835.990
6394.309, 1879.490
6396.237, 1851.445
6398.166, 1841.219
6400.094, 1850.020
##END=



