##NAMES=Brizziite
##RRUFFID=R060611
##IDEAL CHEMISTRY=NaSbO_3_
##LOCALITY=Le Cetine di Cotorniano, Chiusdino, Siena Province, Tuscany, Italy
##OWNER=RRUFF
##SOURCE=Michael Scott
##DESCRIPTION=Colorless thin hexagonal plates associated with romeite, R060736
##STATUS=The identification of this mineral is confirmed by single-crystal X-ray diffraction and chemical analysis
##URL=https://www.rruff.net/odr/rruff_sample/R060611
##MEASURED CHEMISTRY=Na_1.00_Sb_1.00_O_3_ ; = gray phase with trace amounts of Fe  bright phase: stibiconite
##DIFFRACTION SAMPLE DESCRIPTION=Single crystal, powder profile is calculated
##CELL PARAMETERS=a: 5.33 b: 5.33 c: 15.92 alpha: 90 beta: 90 gamma: 120 volume: 392.1 crystal system: hexagonal
##FILETYPE=Raman Processed
##RAMAN WAVELENGTH=532

86.049, 29.962
87.977, 31.658
89.906, 32.692
91.834, 31.809
93.763, 30.975
95.691, 31.503
97.620, 33.740
99.548, 35.781
101.477, 36.490
103.405, 35.442
105.334, 36.872
107.262, 41.462
109.190, 48.223
111.119, 55.681
113.047, 64.032
114.976, 72.945
116.904, 82.825
118.833, 95.101
120.761, 104.706
122.690, 109.002
124.618, 109.827
126.547, 112.142
128.475, 118.302
130.404, 124.747
132.332, 128.747
134.260, 129.762
136.189, 130.425
138.117, 131.478
140.046, 132.997
141.974, 134.562
143.903, 132.180
145.831, 131.429
147.760, 138.342
149.688, 156.886
151.617, 178.933
153.545, 203.749
155.474, 241.518
157.402, 261.000
159.331, 248.219
161.259, 214.762
163.188, 186.311
165.116, 165.491
167.044, 149.899
168.973, 139.771
170.901, 136.152
172.830, 134.363
174.758, 133.794
176.687, 134.443
178.615, 134.978
180.544, 134.943
182.472, 134.942
184.401, 135.604
186.329, 137.101
188.258, 138.838
190.186, 140.510
192.115, 141.908
194.043, 143.897
195.971, 146.724
197.900, 150.141
199.828, 153.855
201.757, 159.763
203.685, 164.018
205.614, 164.808
207.542, 160.663
209.471, 156.288
211.399, 150.674
213.328, 144.906
215.256, 142.019
217.185, 142.592
219.113, 145.739
221.042, 151.461
222.970, 159.409
224.898, 170.025
226.827, 187.839
228.755, 211.965
230.684, 224.199
232.612, 220.648
234.541, 209.183
236.469, 193.670
238.398, 170.787
240.326, 153.024
242.255, 144.723
244.183, 146.860
246.112, 148.013
248.040, 147.627
249.969, 146.545
251.897, 145.378
253.825, 143.509
255.754, 142.679
257.682, 143.746
259.611, 147.184
261.539, 149.641
263.468, 150.442
265.396, 150.536
267.325, 150.877
269.253, 152.000
271.182, 152.797
273.110, 152.598
275.039, 151.281
276.967, 150.999
278.896, 152.237
280.824, 154.566
282.752, 157.541
284.681, 161.744
286.609, 166.076
288.538, 169.464
290.466, 171.928
292.395, 177.041
294.323, 188.052
296.252, 201.393
298.180, 212.874
300.109, 222.592
302.037, 230.495
303.966, 235.174
305.894, 236.903
307.823, 240.133
309.751, 251.608
311.679, 263.359
313.608, 263.844
315.536, 245.295
317.465, 225.514
319.393, 208.417
321.322, 193.729
323.250, 181.752
325.179, 172.669
327.107, 165.950
329.036, 161.689
330.964, 161.111
332.893, 160.482
334.821, 158.544
336.750, 155.337
338.678, 152.185
340.606, 148.335
342.535, 144.996
344.463, 143.705
346.392, 145.054
348.320, 146.736
350.249, 148.496
352.177, 150.482
354.106, 150.640
356.034, 147.370
357.963, 143.371
359.891, 140.843
361.820, 139.946
363.748, 139.697
365.677, 139.963
367.605, 140.717
369.533, 141.511
371.462, 142.765
373.390, 143.808
375.319, 143.887
377.247, 142.549
379.176, 142.346
381.104, 144.468
383.033, 148.289
384.961, 151.318
386.890, 153.008
388.818, 154.443
390.747, 156.122
392.675, 158.098
394.603, 159.804
396.532, 160.302
398.460, 160.569
400.389, 162.801
402.317, 169.458
404.246, 174.869
406.174, 176.419
408.103, 174.224
410.031, 172.561
411.960, 171.946
413.888, 172.026
415.817, 172.535
417.745, 173.372
419.674, 174.736
421.602, 177.759
423.530, 181.984
425.459, 183.657
427.388, 180.512
429.316, 176.317
431.244, 172.987
433.173, 170.300
435.101, 168.902
437.030, 170.127
438.958, 172.760
440.887, 174.177
442.815, 172.305
444.744, 171.072
446.672, 172.374
448.601, 176.286
450.529, 179.281
452.457, 179.794
454.386, 179.658
456.315, 180.621
458.243, 185.508
460.171, 188.540
462.100, 187.189
464.028, 182.816
465.957, 181.618
467.885, 187.221
469.814, 193.210
471.742, 195.917
473.671, 191.143
475.599, 189.697
477.528, 192.433
479.456, 198.518
481.384, 206.041
483.313, 215.238
485.241, 225.546
487.170, 236.140
489.098, 246.715
491.027, 260.611
492.955, 278.527
494.884, 299.148
496.812, 322.364
498.741, 349.349
500.669, 374.233
502.598, 398.939
504.526, 421.106
506.455, 432.109
508.383, 427.629
510.311, 417.720
512.240, 403.337
514.169, 385.028
516.097, 367.137
518.025, 349.158
519.954, 332.493
521.882, 318.504
523.811, 308.216
525.739, 299.194
527.668, 292.198
529.596, 286.411
531.525, 280.252
533.453, 274.321
535.382, 267.189
537.310, 257.112
539.239, 242.686
541.167, 233.128
543.096, 232.763
545.024, 234.387
546.952, 232.392
548.881, 225.421
550.809, 218.626
552.738, 213.500
554.666, 209.336
556.595, 204.128
558.523, 197.685
560.452, 190.737
562.380, 182.518
564.309, 173.400
566.237, 166.842
568.166, 166.031
570.094, 165.999
572.023, 163.491
573.951, 156.480
575.879, 151.786
577.808, 151.958
579.736, 154.184
581.665, 154.766
583.593, 152.243
585.522, 150.268
587.450, 149.602
589.379, 150.288
591.307, 152.059
593.236, 156.172
595.164, 160.160
597.093, 162.480
599.021, 162.960
600.950, 164.609
602.878, 164.305
604.806, 167.104
606.735, 179.112
608.663, 205.988
610.592, 230.329
612.520, 254.661
614.449, 273.518
616.377, 277.135
618.306, 253.278
620.234, 229.528
622.163, 213.501
624.091, 205.371
626.019, 199.178
627.948, 193.197
629.877, 190.506
631.805, 192.927
633.733, 200.459
635.662, 210.204
637.590, 218.901
639.519, 231.049
641.447, 249.613
643.376, 265.406
645.304, 305.008
647.233, 330.902
649.161, 397.084
651.090, 588.359
653.018, 980.959
654.946, 1389.585
656.875, 1852.888
658.804, 2339.922
660.732, 2510.691
662.660, 2170.969
664.589, 1734.127
666.517, 1336.841
668.446, 976.478
670.374, 697.661
672.303, 546.923
674.231, 453.882
676.160, 384.492
678.088, 350.207
680.017, 320.620
681.945, 296.085
683.873, 276.405
685.802, 260.826
687.731, 249.729
689.659, 241.887
691.587, 238.271
693.516, 237.487
695.444, 236.105
697.373, 233.845
699.301, 231.413
701.230, 228.597
703.158, 225.667
705.087, 223.637
707.015, 224.073
708.944, 223.449
710.872, 219.814
712.800, 212.443
714.729, 206.845
716.657, 203.306
718.586, 201.072
720.514, 200.084
722.443, 200.312
724.371, 200.690
726.300, 200.898
728.228, 201.272
730.157, 202.156
732.085, 204.292
734.014, 205.476
735.942, 205.076
737.871, 203.837
739.799, 202.544
741.727, 200.796
743.656, 200.092
745.584, 202.122
747.513, 205.310
749.441, 206.783
751.370, 205.360
753.298, 203.591
755.227, 201.840
757.155, 200.065
759.084, 198.046
761.012, 195.368
762.941, 193.104
764.869, 192.141
766.798, 192.126
768.726, 191.144
770.654, 186.825
772.583, 183.659
774.511, 183.965
776.440, 187.937
778.368, 189.844
780.297, 187.344
782.225, 185.024
784.154, 185.936
786.082, 189.989
788.011, 192.269
789.939, 189.640
791.868, 187.035
793.796, 187.614
795.725, 193.275
797.653, 195.848
799.581, 192.737
801.510, 188.389
803.438, 185.523
805.367, 183.988
807.295, 184.746
809.224, 191.000
811.152, 197.783
813.081, 201.236
815.009, 198.536
816.938, 197.017
818.866, 197.183
820.795, 198.211
822.723, 199.327
824.652, 200.535
826.580, 201.792
828.508, 203.861
830.437, 205.654
832.365, 206.038
834.294, 204.672
836.222, 202.410
838.151, 198.747
840.079, 194.465
842.008, 190.510
843.936, 186.669
845.865, 183.612
847.793, 181.956
849.722, 181.026
851.650, 179.972
853.579, 178.531
855.507, 177.573
857.435, 177.815
859.364, 178.444
861.292, 177.894
863.221, 175.089
865.149, 173.438
867.078, 175.050
869.006, 177.590
870.935, 177.863
872.863, 174.822
874.792, 172.077
876.720, 170.206
878.649, 169.220
880.577, 169.186
882.506, 170.805
884.434, 172.534
886.362, 174.587
888.291, 176.604
890.219, 178.070
892.148, 178.887
894.076, 179.502
896.005, 179.841
897.933, 180.096
899.862, 180.527
901.790, 181.325
903.719, 181.960
905.647, 182.049
907.576, 182.087
909.504, 183.008
911.433, 185.264
913.361, 186.646
915.290, 185.512
917.218, 183.851
919.146, 183.798
921.075, 185.933
923.003, 187.802
924.932, 189.404
926.860, 190.380
928.789, 190.253
930.717, 188.402
932.646, 186.916
934.574, 185.622
936.503, 184.922
938.431, 185.295
940.360, 186.783
942.288, 188.240
944.217, 189.650
946.145, 190.731
948.073, 191.167
950.002, 190.553
951.930, 190.565
953.859, 192.315
955.787, 193.723
957.716, 192.986
959.644, 190.139
961.573, 188.638
963.501, 189.191
965.430, 190.665
967.358, 192.578
969.287, 194.891
971.215, 197.355
973.144, 201.290
975.072, 203.934
977.000, 203.080
978.929, 199.337
980.857, 198.896
982.786, 205.708
984.714, 210.874
986.643, 211.042
988.571, 207.784
990.500, 204.541
992.428, 200.895
994.357, 198.516
996.285, 199.046
998.214, 200.916
1000.142, 201.159
1002.071, 196.959
1003.999, 195.471
1005.927, 200.191
1007.856, 206.657
1009.784, 208.397
1011.713, 204.295
1013.641, 200.773
1015.570, 197.088
1017.498, 195.808
1019.427, 199.671
1021.355, 209.348
1023.284, 216.814
1025.212, 221.037
1027.141, 222.471
1029.069, 219.921
1030.998, 212.607
1032.926, 209.047
1034.854, 212.449
1036.783, 215.865
1038.711, 215.532
1040.640, 212.716
1042.568, 212.837
1044.497, 217.682
1046.425, 222.285
1048.354, 225.455
1050.282, 227.010
1052.211, 225.935
1054.139, 219.684
1056.068, 215.889
1057.996, 217.143
1059.925, 220.721
1061.853, 223.356
1063.781, 224.714
1065.710, 225.941
1067.638, 227.515
1069.567, 228.572
1071.495, 227.782
1073.424, 225.288
1075.352, 224.388
1077.281, 227.381
1079.209, 229.683
1081.138, 228.593
1083.066, 224.430
1084.995, 221.776
1086.923, 219.807
1088.852, 220.498
1090.780, 227.185
1092.708, 236.509
1094.637, 239.925
1096.565, 234.585
1098.494, 230.887
1100.422, 232.579
1102.351, 235.652
1104.279, 235.876
1106.208, 232.997
1108.136, 231.182
1110.065, 231.187
1111.993, 232.513
1113.922, 235.360
1115.850, 239.847
1117.779, 243.159
1119.707, 245.007
1121.635, 245.931
1123.564, 246.163
1125.492, 245.560
1127.421, 243.256
1129.349, 237.232
1131.278, 234.265
1133.206, 239.376
1135.135, 246.172
1137.063, 247.700
1138.992, 243.390
1140.920, 240.625
1142.849, 241.572
1144.777, 243.628
1146.706, 245.865
1148.634, 248.295
1150.563, 249.630
1152.491, 248.969
1154.419, 248.286
1156.348, 247.539
1158.276, 247.145
1160.205, 248.262
1162.133, 251.415
1164.062, 254.441
1165.990, 257.519
1167.919, 259.918
1169.847, 260.953
1171.776, 260.671
1173.704, 259.844
1175.633, 257.689
1177.561, 256.227
1179.490, 256.117
1181.418, 257.356
1183.346, 259.991
1185.275, 265.586
1187.203, 270.218
1189.132, 273.329
1191.060, 275.181
1192.989, 275.977
1194.917, 275.430
1196.846, 274.766
1198.774, 273.645
1200.703, 272.852
1202.631, 273.344
1204.560, 274.668
1206.488, 274.664
1208.417, 271.689
1210.345, 270.664
1212.273, 274.959
1214.202, 281.391
1216.130, 286.322
1218.059, 289.837
1219.987, 291.170
1221.916, 288.873
1223.844, 285.792
1225.773, 282.823
1227.701, 280.088
1229.630, 279.560
1231.558, 283.395
1233.487, 286.550
1235.415, 287.346
1237.344, 287.173
1239.272, 287.797
1241.200, 289.024
1243.129, 291.867
1245.057, 298.740
1246.986, 304.859
1248.914, 306.730
1250.843, 305.359
1252.771, 304.895
1254.700, 306.291
1256.628, 307.020
1258.557, 305.570
1260.485, 303.542
1262.414, 302.785
1264.342, 303.649
1266.271, 304.919
1268.199, 307.329
1270.127, 309.472
1272.056, 310.220
1273.984, 310.103
1275.913, 311.553
1277.841, 315.869
1279.770, 318.841
1281.698, 319.255
1283.627, 318.228
1285.555, 315.578
1287.484, 311.609
1289.412, 311.615
1291.341, 319.559
1293.269, 326.044
1295.198, 325.401
1297.126, 321.118
1299.054, 319.290
1300.983, 320.544
1302.911, 321.808
1304.840, 322.097
1306.768, 322.656
1308.697, 324.499
1310.625, 327.488
1312.554, 329.637
1314.482, 330.758
1316.411, 331.333
1318.339, 328.734
1320.268, 327.259
1322.196, 333.356
1324.125, 348.958
1326.053, 357.548
1327.981, 352.867
1329.910, 348.151
1331.838, 348.940
1333.767, 352.709
1335.695, 354.818
1337.624, 355.016
1339.552, 355.565
1341.481, 357.471
1343.409, 359.309
1345.338, 360.435
1347.266, 360.829
1349.195, 359.980
1351.123, 356.106
1353.052, 355.190
1354.980, 360.252
1356.908, 367.336
1358.837, 374.476
1360.765, 382.014
1362.694, 385.265
1364.622, 381.220
1366.551, 376.843
1368.479, 372.769
1370.408, 369.539
1372.336, 367.524
1374.265, 366.306
1376.193, 368.616
1378.122, 378.476
1380.050, 387.148
1381.979, 390.990
1383.907, 391.571
1385.835, 391.382
1387.764, 389.899
1389.692, 390.593
1391.621, 397.678
1393.549, 402.794
1395.478, 398.052
1397.406, 388.630
1399.335, 386.856
1401.263, 395.520
1403.192, 401.044
1405.120, 397.412
1407.049, 392.838
1408.977, 391.959
1410.906, 394.285
1412.834, 397.538
1414.762, 402.993
1416.691, 406.232
1418.619, 403.829
1420.548, 401.268
1422.476, 402.756
1424.405, 408.123
1426.333, 412.708
1428.262, 416.950
1430.190, 419.785
1432.119, 419.818
1434.047, 419.310
1435.976, 420.169
1437.904, 422.358
1439.833, 424.627
1441.761, 426.637
1443.689, 429.033
1445.618, 433.591
1447.546, 437.413
1449.475, 436.662
1451.403, 431.718
1453.332, 429.825
1455.260, 432.936
1457.189, 435.976
1459.117, 437.021
1461.046, 437.609
1462.974, 439.473
1464.903, 442.333
1466.831, 444.051
1468.760, 443.507
1470.688, 443.728
1472.616, 447.804
1474.545, 451.502
1476.473, 449.518
1478.402, 442.758
1480.330, 440.879
1482.259, 447.247
1484.187, 453.033
1486.116, 454.718
1488.044, 455.260
1489.973, 457.022
1491.901, 459.969
1493.830, 462.875
1495.758, 465.053
1497.687, 468.298
1499.615, 474.867
1501.543, 480.923
1503.472, 482.314
1505.400, 479.248
1507.329, 479.500
1509.257, 487.071
1511.186, 491.676
1513.114, 489.307
1515.043, 486.149
1516.971, 486.471
1518.900, 489.983
1520.828, 494.458
1522.757, 502.127
1524.685, 507.177
1526.614, 508.904
1528.542, 508.178
1530.470, 503.826
1532.399, 497.323
1534.327, 494.316
1536.256, 496.084
1538.184, 498.476
1540.113, 500.743
1542.041, 504.337
1543.970, 510.995
1545.898, 519.265
1547.827, 526.501
1549.755, 533.238
1551.684, 535.902
1553.612, 529.758
1555.541, 524.788
1557.469, 525.863
1559.397, 529.646
1561.326, 531.139
1563.254, 530.422
1565.183, 531.445
1567.111, 535.761
1569.040, 539.425
1570.968, 540.772
1572.897, 541.024
1574.825, 540.799
1576.754, 540.364
1578.682, 541.386
1580.611, 544.638
1582.539, 547.335
1584.468, 546.117
1586.396, 546.882
1588.324, 557.063
1590.253, 571.606
1592.181, 577.657
1594.110, 573.340
1596.038, 571.006
1597.967, 574.720
1599.895, 578.149
1601.824, 576.306
1603.752, 573.232
1605.681, 575.440
1607.609, 582.858
1609.538, 587.330
1611.466, 586.858
1613.395, 586.121
1615.323, 585.412
1617.251, 586.370
1619.180, 591.820
1621.108, 600.261
1623.037, 604.169
1624.965, 601.114
1626.894, 601.227
1628.822, 609.750
1630.751, 618.072
1632.679, 621.993
1634.608, 622.697
1636.536, 621.471
1638.465, 618.164
1640.393, 617.605
1642.322, 620.825
1644.250, 626.205
1646.178, 636.616
1648.107, 646.087
1650.035, 647.991
1651.964, 643.748
1653.892, 642.559
1655.821, 645.238
1657.749, 648.879
1659.678, 654.612
1661.606, 658.946
1663.535, 658.047
1665.463, 655.815
1667.392, 661.083
1669.320, 674.433
1671.249, 678.850
1673.177, 666.735
1675.105, 658.539
1677.034, 663.157
1678.962, 671.899
1680.891, 679.652
1682.819, 686.418
1684.748, 692.135
1686.676, 696.263
1688.605, 702.024
1690.533, 714.153
1692.462, 721.398
1694.390, 714.650
1696.319, 703.912
1698.247, 699.152
1700.176, 700.168
1702.104, 706.022
1704.032, 719.112
1705.961, 728.437
1707.889, 728.996
1709.818, 728.167
1711.746, 730.609
1713.675, 733.867
1715.603, 732.461
1717.532, 726.664
1719.460, 727.055
1721.389, 737.836
1723.317, 746.082
1725.246, 744.839
1727.174, 743.148
1729.103, 748.520
1731.031, 757.119
1732.959, 759.610
1734.888, 755.540
1736.816, 757.567
1738.745, 771.281
1740.673, 782.149
1742.602, 781.781
1744.530, 779.626
1746.459, 783.808
1748.387, 791.455
1750.316, 795.533
1752.244, 795.544
1754.173, 795.684
1756.101, 796.705
1758.030, 797.506
1759.958, 795.988
1761.886, 795.521
1763.815, 799.464
1765.743, 806.726
1767.672, 815.678
1769.600, 827.337
1771.529, 831.696
1773.457, 821.737
1775.386, 814.446
1777.314, 816.695
1779.243, 823.493
1781.171, 832.330
1783.100, 842.067
1785.028, 849.501
1786.957, 854.802
1788.885, 855.620
1790.813, 844.976
1792.742, 839.428
1794.670, 845.984
1796.599, 857.207
1798.527, 871.041
1800.456, 884.542
1802.384, 887.391
1804.313, 875.564
1806.241, 869.177
1808.170, 869.686
1810.098, 873.707
1812.027, 884.152
1813.955, 894.321
1815.884, 899.295
1817.812, 900.751
1819.740, 901.778
1821.669, 901.614
1823.597, 905.087
1825.526, 914.269
1827.454, 923.703
1829.383, 936.531
1831.311, 944.864
1833.240, 938.580
1835.168, 928.255
1837.097, 932.861
1839.025, 953.039
1840.954, 963.115
1842.882, 957.631
1844.811, 958.163
1846.739, 974.207
1848.667, 988.218
1850.596, 992.927
1852.524, 992.662
1854.453, 989.955
1856.381, 985.864
1858.310, 985.498
1860.238, 989.696
1862.167, 990.701
1864.095, 984.243
1866.024, 982.332
1867.952, 991.986
1869.881, 1005.061
1871.809, 1018.265
1873.738, 1029.644
1875.666, 1033.778
1877.594, 1031.074
1879.523, 1033.891
1881.451, 1044.846
1883.380, 1055.462
1885.308, 1067.342
1887.237, 1074.290
1889.165, 1069.622
1891.094, 1061.778
1893.022, 1060.092
1894.951, 1063.474
1896.879, 1066.633
1898.808, 1069.373
1900.736, 1072.358
1902.665, 1073.103
1904.593, 1077.628
1906.521, 1095.318
1908.450, 1108.067
1910.378, 1098.438
1912.307, 1080.703
1914.235, 1077.961
1916.164, 1090.094
1918.092, 1103.283
1920.021, 1118.743
1921.949, 1131.356
1923.878, 1142.043
1925.806, 1146.877
1927.735, 1137.515
1929.663, 1128.507
1931.592, 1129.441
1933.520, 1137.933
1935.448, 1152.627
1937.377, 1172.304
1939.305, 1182.475
1941.234, 1179.974
1943.162, 1178.143
1945.091, 1177.809
1947.019, 1182.107
1948.948, 1196.548
1950.876, 1212.187
1952.805, 1220.989
1954.733, 1225.328
1956.662, 1230.917
1958.590, 1237.972
1960.519, 1242.579
1962.447, 1245.005
1964.375, 1244.684
1966.304, 1234.539
1968.232, 1231.228
1970.161, 1244.222
1972.089, 1262.406
1974.018, 1281.525
1975.946, 1297.237
1977.875, 1295.393
1979.803, 1275.355
1981.732, 1274.615
1983.660, 1301.667
1985.589, 1318.168
1987.517, 1312.835
1989.446, 1306.478
1991.374, 1303.358
1993.302, 1306.043
1995.231, 1324.385
1997.159, 1345.139
1999.088, 1341.889
2001.016, 1320.303
2002.945, 1320.382
2004.873, 1349.726
2006.802, 1369.187
2008.730, 1368.205
2010.659, 1366.733
2012.587, 1367.358
2014.516, 1370.871
2016.444, 1377.756
2018.373, 1387.777
2020.301, 1403.736
2022.229, 1422.843
2024.158, 1430.900
2026.086, 1425.198
2028.015, 1424.707
2029.943, 1431.658
2031.872, 1438.982
2033.800, 1445.982
2035.729, 1452.051
2037.657, 1457.771
2039.586, 1461.979
2041.514, 1461.956
2043.443, 1461.048
2045.371, 1466.086
2047.300, 1475.795
2049.228, 1479.912
2051.156, 1476.030
2053.085, 1476.900
2055.013, 1483.176
2056.942, 1495.072
2058.870, 1519.611
2060.799, 1540.995
2062.727, 1551.826
2064.656, 1555.602
2066.584, 1551.432
2068.513, 1544.010
2070.441, 1546.809
2072.370, 1559.721
2074.298, 1569.699
2076.227, 1575.859
2078.155, 1582.948
2080.083, 1593.562
2082.012, 1600.887
2083.940, 1599.604
2085.869, 1599.197
2087.797, 1605.724
2089.726, 1615.014
2091.654, 1622.786
2093.583, 1629.735
2095.511, 1637.124
2097.440, 1644.724
2099.368, 1657.178
2101.297, 1681.630
2103.225, 1695.119
2105.154, 1690.610
2107.082, 1686.477
2109.010, 1685.019
2110.939, 1685.698
2112.867, 1687.196
2114.796, 1691.990
2116.724, 1705.633
2118.653, 1722.346
2120.581, 1730.752
2122.510, 1732.450
2124.438, 1735.415
2126.367, 1739.659
2128.295, 1748.112
2130.224, 1763.054
2132.152, 1777.420
2134.081, 1790.387
2136.009, 1801.459
2137.938, 1807.010
2139.866, 1814.014
2141.794, 1833.371
2143.723, 1852.398
2145.651, 1848.956
2147.580, 1831.987
2149.508, 1836.019
2151.437, 1859.577
2153.365, 1873.148
2155.294, 1873.700
2157.222, 1875.261
2159.151, 1879.859
2161.079, 1885.623
2163.008, 1891.925
2164.936, 1898.871
2166.865, 1906.549
2168.793, 1914.629
2170.721, 1923.996
2172.650, 1932.925
2174.578, 1936.050
2176.507, 1936.224
2178.435, 1948.165
2180.364, 1971.937
2182.292, 1988.956
2184.221, 1997.259
2186.149, 2005.888
2188.078, 2017.188
2190.006, 2026.052
2191.935, 2027.268
2193.863, 2031.806
2195.792, 2054.261
2197.720, 2071.141
2199.648, 2054.067
2201.577, 2029.540
2203.505, 2035.677
2205.434, 2062.436
2207.362, 2079.888
2209.291, 2087.947
2211.219, 2094.253
2213.148, 2097.975
2215.076, 2111.519
2217.005, 2141.662
2218.933, 2160.205
2220.862, 2154.862
2222.790, 2149.678
2224.719, 2153.321
2226.647, 2159.594
2228.575, 2165.065
2230.504, 2171.656
2232.432, 2181.474
2234.361, 2193.543
2236.289, 2206.953
2238.218, 2221.088
2240.146, 2233.504
2242.075, 2243.992
2244.003, 2250.052
2245.932, 2250.128
2247.860, 2258.586
2249.789, 2280.043
2251.717, 2300.726
2253.646, 2322.333
2255.574, 2335.734
2257.502, 2327.904
2259.431, 2325.181
2261.359, 2347.531
2263.288, 2374.863
2265.216, 2390.848
2267.145, 2400.040
2269.073, 2409.672
2271.002, 2417.712
2272.930, 2415.934
2274.859, 2406.577
2276.787, 2403.780
2278.716, 2408.352
2280.644, 2417.947
2282.573, 2434.125
2284.501, 2450.431
2286.429, 2472.303
2288.358, 2483.613
2290.286, 2463.868
2292.215, 2457.431
2294.143, 2492.726
2296.072, 2529.311
2298.000, 2550.707
2299.929, 2557.049
2301.857, 2531.974
2303.786, 2503.205
2305.714, 2519.135
2307.643, 2565.368
2309.571, 2598.466
2311.500, 2618.507
2313.428, 2627.820
2315.356, 2623.184
2317.285, 2626.667
2319.213, 2639.445
2321.142, 2657.698
2323.070, 2684.072
2324.999, 2704.699
2326.927, 2713.626
2328.856, 2720.034
2330.784, 2723.473
2332.713, 2730.269
2334.641, 2750.531
2336.570, 2768.145
2338.498, 2767.479
2340.427, 2760.609
2342.355, 2759.174
2344.283, 2763.087
2346.212, 2769.368
2348.140, 2781.206
2350.069, 2815.114
2351.997, 2867.315
2353.926, 2895.419
2355.854, 2892.893
2357.783, 2896.328
2359.711, 2906.967
2361.640, 2920.585
2363.568, 2938.315
2365.497, 2955.739
2367.425, 2973.810
2369.354, 2987.503
2371.282, 2990.493
2373.210, 2997.886
2375.139, 3023.110
2377.067, 3047.555
2378.996, 3059.991
2380.924, 3066.639
2382.853, 3070.414
2384.781, 3073.591
2386.710, 3077.760
2388.638, 3083.910
2390.567, 3095.002
2392.495, 3109.845
2394.424, 3126.781
2396.352, 3144.874
2398.281, 3156.343
2400.209, 3160.403
2402.137, 3166.794
2404.066, 3176.314
2405.994, 3186.140
2407.923, 3193.085
2409.851, 3210.008
2411.780, 3245.418
2413.708, 3267.248
2415.637, 3256.747
2417.565, 3255.400
2419.494, 3289.166
2421.422, 3321.040
2423.351, 3336.433
2425.279, 3344.740
2427.208, 3345.360
2429.136, 3348.296
2431.064, 3365.113
2432.993, 3384.729
2434.921, 3392.830
2436.850, 3396.678
2438.778, 3403.327
2440.707, 3415.678
2442.635, 3447.861
2444.564, 3492.417
2446.492, 3513.141
2448.421, 3510.970
2450.349, 3499.196
2452.278, 3477.716
2454.206, 3493.839
2456.135, 3553.141
2458.063, 3585.780
2459.991, 3577.677
2461.920, 3573.267
2463.848, 3572.673
2465.777, 3586.030
2467.705, 3625.910
2469.634, 3659.795
2471.562, 3685.815
2473.491, 3700.011
2475.419, 3692.726
2477.348, 3689.396
2479.276, 3701.604
2481.205, 3720.907
2483.133, 3744.500
2485.062, 3770.866
2486.990, 3808.888
2488.918, 3838.063
2490.847, 3831.311
2492.775, 3814.763
2494.704, 3815.604
2496.632, 3827.267
2498.561, 3840.937
2500.489, 3858.940
2502.418, 3888.983
2504.346, 3925.304
2506.275, 3950.119
2508.203, 3963.962
2510.132, 3970.194
2512.060, 3970.889
2513.989, 3985.786
2515.917, 4014.920
2517.845, 4045.664
2519.774, 4078.596
2521.702, 4109.262
2523.631, 4142.969
2525.559, 4154.810
2527.488, 4134.219
2529.416, 4135.732
2531.345, 4169.269
2533.273, 4200.323
2535.202, 4226.280
2537.130, 4240.834
2539.059, 4235.227
2540.987, 4234.003
2542.916, 4241.700
2544.844, 4257.152
2546.772, 4284.266
2548.701, 4310.677
2550.629, 4325.905
2552.558, 4347.700
2554.486, 4396.564
2556.415, 4435.494
2558.343, 4437.147
2560.272, 4431.012
2562.200, 4428.314
2564.129, 4434.649
2566.057, 4457.329
2567.986, 4488.563
2569.914, 4535.886
2571.843, 4574.942
2573.771, 4567.660
2575.699, 4549.376
2577.628, 4563.041
2579.556, 4594.419
2581.485, 4628.771
2583.413, 4661.666
2585.342, 4686.230
2587.270, 4703.729
2589.199, 4711.023
2591.127, 4715.650
2593.056, 4744.076
2594.984, 4785.316
2596.913, 4789.356
2598.841, 4768.575
2600.770, 4789.771
2602.698, 4840.806
2604.626, 4857.238
2606.555, 4842.636
2608.483, 4856.544
2610.412, 4899.430
2612.340, 4927.984
2614.269, 4942.642
2616.197, 4950.882
2618.126, 4953.814
2620.054, 4972.613
2621.983, 5010.362
2623.911, 5038.277
2625.840, 5051.551
2627.768, 5067.321
2629.697, 5085.865
2631.625, 5101.129
2633.553, 5111.463
2635.482, 5133.035
2637.410, 5171.970
2639.339, 5203.271
2641.267, 5217.910
2643.196, 5239.085
2645.124, 5270.700
2647.053, 5298.022
2648.981, 5318.186
2650.910, 5337.503
2652.838, 5356.882
2654.767, 5373.712
2656.695, 5378.441
2658.624, 5398.590
2660.552, 5453.429
2662.480, 5486.115
2664.409, 5480.878
2666.337, 5480.996
2668.266, 5495.286
2670.194, 5519.594
2672.123, 5567.238
2674.051, 5598.218
2675.980, 5585.321
2677.908, 5591.672
2679.837, 5636.699
2681.765, 5681.559
2683.694, 5717.174
2685.622, 5746.597
2687.551, 5767.665
2689.479, 5788.685
2691.407, 5818.904
2693.336, 5835.879
2695.264, 5820.961
2697.193, 5822.788
2699.121, 5873.626
2701.050, 5914.330
2702.978, 5911.801
2704.907, 5915.871
2706.835, 5946.002
2708.764, 5979.311
2710.692, 6015.719
2712.621, 6044.076
2714.549, 6053.970
2716.478, 6066.510
2718.406, 6078.605
2720.334, 6110.151
2722.263, 6189.388
2724.191, 6244.004
2726.120, 6234.173
2728.048, 6231.443
2729.977, 6269.153
2731.905, 6311.456
2733.834, 6351.740
2735.762, 6389.425
2737.691, 6436.731
2739.619, 6457.424
2741.548, 6416.904
2743.476, 6398.006
2745.405, 6454.673
2747.333, 6498.958
2749.261, 6483.704
2751.190, 6489.136
2753.118, 6546.760
2755.047, 6594.117
2756.975, 6606.787
2758.904, 6615.815
2760.832, 6628.293
2762.761, 6642.637
2764.689, 6655.167
2766.618, 6679.245
2768.546, 6725.575
2770.475, 6763.087
2772.403, 6775.311
2774.332, 6792.351
2776.260, 6822.000
2778.188, 6853.155
2780.117, 6885.570
2782.045, 6914.079
2783.974, 6936.201
2785.902, 6961.321
2787.831, 6987.903
2789.759, 7029.393
2791.688, 7098.286
2793.616, 7146.804
2795.545, 7162.030
2797.473, 7188.697
2799.402, 7235.707
2801.330, 7281.922
2803.259, 7328.093
2805.187, 7362.459
2807.115, 7386.026
2809.044, 7388.375
2810.972, 7364.499
2812.901, 7379.571
2814.829, 7461.182
2816.758, 7496.644
2818.686, 7474.943
2820.615, 7489.189
2822.543, 7541.315
2824.472, 7596.311
2826.400, 7651.481
2828.329, 7673.018
2830.257, 7658.468
2832.186, 7663.058
2834.114, 7685.737
2836.042, 7722.367
2837.971, 7771.086
2839.899, 7820.839
2841.828, 7871.513
2843.756, 7921.200
2845.685, 7967.849
2847.613, 7993.360
2849.542, 8006.108
2851.470, 8028.695
2853.399, 8056.050
2855.327, 8071.521
2857.256, 8088.030
2859.184, 8152.542
2861.113, 8225.359
2863.041, 8228.870
2864.969, 8215.948
2866.898, 8267.542
2868.826, 8331.405
2870.755, 8334.879
2872.683, 8325.579
2874.612, 8345.471
2876.540, 8377.199
2878.469, 8413.237
2880.397, 8448.272
2882.326, 8485.486
2884.254, 8511.865
2886.183, 8502.773
2888.111, 8512.439
2890.040, 8601.266
2891.968, 8663.181
2893.896, 8616.192
2895.825, 8597.935
2897.753, 8662.084
2899.682, 8714.160
2901.610, 8715.759
2903.539, 8729.294
2905.467, 8777.203
2907.396, 8823.517
2909.324, 8864.540
2911.253, 8907.893
2913.181, 8957.362
2915.110, 8995.058
2917.038, 9011.566
2918.967, 9050.497
2920.895, 9114.867
2922.823, 9174.116
2924.752, 9226.554
2926.680, 9258.967
2928.609, 9272.477
2930.537, 9293.427
2932.466, 9320.231
2934.394, 9351.227
2936.323, 9383.257
2938.251, 9403.208
2940.180, 9422.612
2942.108, 9466.900
2944.037, 9527.516
2945.965, 9607.192
2947.894, 9676.040
2949.822, 9693.898
2951.750, 9694.051
2953.679, 9705.159
2955.607, 9718.027
2957.536, 9720.419
2959.464, 9731.521
2961.393, 9747.678
2963.321, 9796.229
2965.250, 9926.639
2967.178, 10021.960
2969.107, 10034.750
2971.035, 10057.270
2972.964, 10120.300
2974.892, 10174.050
2976.821, 10201.700
2978.749, 10240.520
2980.677, 10296.040
2982.606, 10314.700
2984.534, 10287.610
2986.463, 10322.340
2988.391, 10423.160
2990.320, 10472.250
2992.248, 10478.460
2994.177, 10476.020
2996.105, 10483.310
2998.034, 10569.770
2999.962, 10691.200
3001.891, 10751.170
3003.819, 10779.440
3005.748, 10814.360
3007.676, 10845.710
3009.604, 10842.190
3011.533, 10853.680
3013.461, 10940.620
3015.390, 11022.110
3017.318, 11063.270
3019.247, 11079.680
3021.175, 11061.080
3023.104, 11054.760
3025.032, 11072.470
3026.961, 11107.520
3028.889, 11163.870
3030.818, 11218.790
3032.746, 11267.230
3034.675, 11316.960
3036.603, 11366.960
3038.531, 11386.170
3040.460, 11380.210
3042.388, 11419.940
3044.317, 11489.210
3046.245, 11494.110
3048.174, 11480.890
3050.102, 11566.550
3052.031, 11684.120
3053.959, 11741.830
3055.888, 11781.130
3057.816, 11848.920
3059.745, 11906.860
3061.673, 11931.740
3063.602, 11942.520
3065.530, 11930.470
3067.458, 11946.770
3069.387, 12013.440
3071.315, 12080.930
3073.244, 12140.790
3075.172, 12185.820
3077.101, 12205.820
3079.029, 12245.530
3080.958, 12303.590
3082.886, 12363.800
3084.815, 12423.370
3086.743, 12463.310
3088.672, 12494.370
3090.600, 12543.650
3092.529, 12605.500
3094.457, 12669.740
3096.385, 12735.550
3098.314, 12806.680
3100.242, 12862.450
3102.171, 12872.650
3104.099, 12887.880
3106.028, 12934.880
3107.956, 12991.360
3109.885, 13067.870
3111.813, 13118.290
3113.742, 13133.720
3115.670, 13159.310
3117.599, 13198.320
3119.527, 13271.320
3121.456, 13369.790
3123.384, 13426.170
3125.313, 13451.590
3127.241, 13485.440
3129.169, 13530.480
3131.098, 13613.040
3133.026, 13689.620
3134.955, 13696.470
3136.883, 13709.690
3138.812, 13803.890
3140.740, 13887.150
3142.669, 13911.050
3144.597, 13955.100
3146.526, 14070.420
3148.454, 14143.060
3150.383, 14154.590
3152.311, 14182.380
3154.240, 14230.190
3156.168, 14292.130
3158.096, 14364.860
3160.025, 14446.880
3161.953, 14522.560
3163.882, 14554.870
3165.810, 14561.820
3167.739, 14547.420
3169.667, 14540.310
3171.596, 14554.640
3173.524, 14595.430
3175.453, 14678.550
3177.381, 14764.910
3179.310, 14854.080
3181.238, 14916.140
3183.167, 14943.750
3185.095, 14992.450
3187.023, 15065.530
3188.952, 15136.410
3190.880, 15204.940
3192.809, 15282.480
3194.737, 15353.270
3196.666, 15383.430
3198.594, 15398.050
3200.523, 15409.490
3202.451, 15440.660
3204.380, 15534.800
3206.308, 15598.450
3208.237, 15572.040
3210.165, 15583.080
3212.094, 15655.750
3214.022, 15731.890
3215.950, 15808.690
3217.879, 15859.380
3219.807, 15893.930
3221.736, 15959.510
3223.664, 16045.000
3225.593, 16142.430
3227.521, 16223.650
3229.450, 16223.150
3231.378, 16238.570
3233.307, 16357.890
3235.235, 16453.689
3237.164, 16480.000
3239.092, 16500.381
3241.021, 16529.080
3242.949, 16557.510
3244.877, 16588.350
3246.806, 16622.750
3248.734, 16672.580
3250.663, 16796.180
3252.591, 16941.109
3254.520, 17023.529
3256.448, 17068.869
3258.377, 17083.080
3260.305, 17102.160
3262.234, 17147.580
3264.162, 17209.430
3266.091, 17302.500
3268.019, 17339.920
3269.948, 17298.711
3271.876, 17342.631
3273.804, 17463.391
3275.733, 17549.131
3277.661, 17612.119
3279.590, 17665.910
3281.518, 17726.650
3283.447, 17833.990
3285.375, 17920.711
3287.304, 17914.949
3289.232, 17945.461
3291.161, 18073.230
3293.089, 18174.221
3295.018, 18238.189
3296.946, 18334.561
3298.875, 18457.539
3300.803, 18473.830
3302.731, 18448.760
3304.660, 18543.170
3306.588, 18666.270
3308.517, 18708.020
3310.445, 18762.240
3312.374, 18891.580
3314.302, 19005.020
3316.231, 19072.279
3318.159, 19115.840
3320.088, 19135.410
3322.016, 19157.270
3323.945, 19189.900
3325.873, 19298.090
3327.802, 19424.490
3329.730, 19455.320
3331.658, 19453.311
3333.587, 19439.609
3335.515, 19464.471
3337.444, 19553.490
3339.372, 19653.760
3341.301, 19763.891
3343.229, 19810.109
3345.158, 19793.900
3347.086, 19873.010
3349.015, 20005.760
3350.943, 20081.211
3352.872, 20126.449
3354.800, 20158.039
3356.729, 20200.000
3358.657, 20256.270
3360.585, 20344.240
3362.514, 20481.010
3364.442, 20559.830
3366.371, 20566.119
3368.299, 20576.430
3370.228, 20604.980
3372.156, 20737.430
3374.085, 20889.811
3376.013, 20932.449
3377.942, 20965.930
3379.870, 21056.141
3381.799, 21151.020
3383.727, 21225.311
3385.656, 21318.900
3387.584, 21435.891
3389.512, 21473.910
3391.441, 21463.619
3393.369, 21549.779
3395.298, 21677.650
3397.226, 21763.150
3399.155, 21849.359
3401.083, 21986.510
3403.012, 22079.061
3404.940, 22080.641
3406.869, 22131.820
3408.797, 22249.670
3410.726, 22354.760
3412.654, 22441.711
3414.583, 22478.090
3416.511, 22512.631
3418.439, 22606.740
3420.368, 22729.039
3422.296, 22885.869
3424.225, 23000.529
3426.153, 23023.199
3428.082, 23081.340
3430.010, 23177.619
3431.939, 23297.590
3433.867, 23423.199
3435.796, 23504.340
3437.724, 23571.461
3439.653, 23631.199
3441.581, 23725.420
3443.510, 23932.600
3445.438, 24038.949
3447.366, 24018.000
3449.295, 24044.500
3451.223, 24125.260
3453.152, 24208.420
3455.080, 24309.340
3457.009, 24477.439
3458.937, 24621.250
3460.866, 24640.359
3462.794, 24674.430
3464.723, 24757.141
3466.651, 24843.080
3468.580, 24929.279
3470.508, 25018.301
3472.437, 25098.689
3474.365, 25118.869
3476.293, 25149.801
3478.222, 25270.869
3480.150, 25404.641
3482.079, 25534.609
3484.007, 25642.410
3485.936, 25728.670
3487.864, 25766.350
3489.793, 25775.480
3491.721, 25821.721
3493.650, 25891.230
3495.578, 25983.189
3497.507, 26060.881
3499.435, 26095.020
3501.364, 26127.061
3503.292, 26159.311
3505.220, 26262.961
3507.149, 26411.090
3509.077, 26434.811
3511.006, 26410.801
3512.934, 26413.131
3514.863, 26453.250
3516.791, 26534.740
3518.720, 26653.500
3520.648, 26810.289
3522.577, 26983.850
3524.505, 27156.740
3526.434, 27199.439
3528.362, 27208.359
3530.291, 27327.020
3532.219, 27443.600
3534.147, 27494.590
3536.076, 27559.270
3538.004, 27671.650
3539.933, 27737.100
3541.861, 27758.670
3543.790, 27708.279
3545.718, 27680.039
3547.647, 27843.551
3549.575, 28022.279
3551.504, 28115.840
3553.432, 28240.289
3555.361, 28408.850
3557.289, 28547.070
3559.218, 28650.680
3561.146, 28698.160
3563.074, 28754.430
3565.003, 28916.641
3566.931, 29055.670
3568.860, 29112.650
3570.788, 29150.381
3572.717, 29181.711
3574.645, 29229.070
3576.574, 29307.221
3578.502, 29460.939
3580.431, 29639.770
3582.359, 29823.561
3584.288, 29948.881
3586.216, 29975.471
3588.145, 30075.439
3590.073, 30253.670
3592.001, 30391.990
3593.930, 30491.721
3595.858, 30521.721
3597.787, 30598.699
3599.715, 30837.150
3601.644, 31017.211
3603.572, 31086.340
3605.501, 31068.199
3607.429, 31014.039
3609.358, 31162.570
3611.286, 31377.471
3613.215, 31534.199
3615.143, 31669.820
3617.072, 31803.051
3619.000, 31875.131
3620.928, 31882.650
3622.857, 31970.439
3624.785, 32082.670
3626.714, 32118.369
3628.642, 32136.189
3630.571, 32167.170
3632.499, 32229.260
3634.428, 32333.551
3636.356, 32438.631
3638.285, 32551.760
3640.213, 32720.350
3642.142, 32876.910
3644.070, 32939.980
3645.999, 32997.250
3647.927, 33076.039
3649.855, 33181.379
3651.784, 33307.129
3653.712, 33384.340
3655.641, 33451.789
3657.569, 33586.371
3659.498, 33706.090
3661.426, 33761.371
3663.355, 33807.922
3665.283, 33850.121
3667.212, 33896.371
3669.140, 33961.379
3671.069, 34084.148
3672.997, 34236.602
3674.926, 34434.820
3676.854, 34562.320
3678.782, 34594.039
3680.711, 34693.750
3682.639, 34835.410
3684.568, 34933.359
3686.496, 35020.820
3688.425, 35157.480
3690.353, 35243.680
3692.282, 35265.000
3694.210, 35285.801
3696.139, 35329.180
3698.067, 35462.719
3699.996, 35619.762
3701.924, 35707.090
3703.853, 35828.941
3705.781, 36024.801
3707.709, 36133.879
3709.638, 36174.672
3711.566, 36342.180
3713.495, 36530.891
3715.423, 36613.871
3717.352, 36697.781
3719.280, 36812.289
3721.209, 36910.250
3723.137, 36996.309
3725.066, 37209.961
3726.994, 37437.500
3728.923, 37559.211
3730.851, 37643.430
3732.780, 37725.430
3734.708, 37780.578
3736.636, 37827.199
3738.565, 37970.391
3740.493, 38135.289
3742.422, 38162.551
3744.350, 38302.859
3746.279, 38689.102
3748.207, 38925.441
3750.136, 38998.949
3752.064, 39045.672
3753.993, 39094.922
3755.921, 39187.898
3757.850, 39294.352
3759.778, 39410.770
3761.707, 39548.340
3763.635, 39708.961
3765.563, 39905.719
3767.492, 40074.590
3769.420, 40121.422
3771.349, 40183.859
3773.277, 40295.328
3775.206, 40435.711
3777.134, 40581.199
3779.063, 40616.430
3780.991, 40660.039
3782.920, 40807.699
3784.848, 40989.051
3786.777, 41186.051
3788.705, 41370.961
3790.634, 41535.930
3792.562, 41685.141
3794.490, 41783.719
3796.419, 41773.051
3798.347, 41804.988
3800.276, 41893.352
3802.204, 42039.500
3804.133, 42211.359
3806.061, 42377.500
3807.990, 42516.859
3809.918, 42618.590
3811.847, 42714.820
3813.775, 42804.500
3815.704, 42796.512
3817.632, 42770.969
3819.561, 42816.359
3821.489, 42904.531
3823.417, 43041.711
3825.346, 43161.699
3827.274, 43280.789
3829.203, 43490.480
3831.131, 43685.672
3833.060, 43775.820
3834.988, 43856.781
3836.917, 43953.230
3838.845, 44045.160
3840.774, 44136.078
3842.702, 44227.172
3844.631, 44319.270
3846.559, 44391.930
3848.488, 44574.410
3850.416, 44854.281
3852.344, 45002.480
3854.273, 45095.230
3856.201, 45180.641
3858.130, 45292.340
3860.058, 45447.961
3861.987, 45581.980
3863.915, 45697.801
3865.844, 45797.289
3867.772, 45913.430
3869.701, 46055.609
3871.629, 46254.641
3873.558, 46506.750
3875.486, 46650.430
3877.415, 46741.512
3879.343, 46857.020
3881.271, 46962.211
3883.200, 47036.262
3885.128, 47126.449
3887.057, 47246.859
3888.985, 47491.641
3890.914, 47719.859
3892.842, 47809.262
3894.771, 47938.301
3896.699, 48093.020
3898.628, 48155.762
3900.556, 48233.461
3902.485, 48443.621
3904.413, 48606.121
3906.342, 48686.141
3908.270, 48851.449
3910.198, 49046.500
3912.127, 49198.262
3914.055, 49333.109
3915.984, 49432.469
3917.912, 49582.609
3919.841, 49783.109
3921.769, 49928.988
3923.698, 50011.602
3925.626, 49969.961
3927.555, 50019.352
3929.483, 50179.750
3931.412, 50346.172
3933.340, 50532.648
3935.269, 50637.160
3937.197, 50714.141
3939.125, 50822.609
3941.054, 50922.629
3942.982, 50988.840
3944.911, 51060.289
3946.839, 51192.898
3948.768, 51312.941
3950.696, 51387.539
3952.625, 51467.398
3954.553, 51657.328
3956.482, 51855.270
3958.410, 51946.559
3960.339, 52069.969
3962.267, 52176.648
3964.196, 52165.590
3966.124, 52188.422
3968.052, 52232.699
3969.981, 52274.422
3971.909, 52397.359
3973.838, 52492.379
3975.766, 52562.590
3977.695, 52662.359
3979.623, 52772.602
3981.552, 52951.500
3983.480, 53123.809
3985.409, 53225.641
3987.337, 53291.852
3989.266, 53408.539
3991.194, 53594.961
3993.123, 53736.129
3995.051, 53824.922
3996.979, 53960.770
3998.908, 54070.711
4000.836, 54135.578
4002.765, 54286.461
4004.693, 54528.359
4006.622, 54629.199
4008.550, 54684.539
4010.479, 54903.898
4012.407, 55137.020
4014.336, 55308.352
4016.264, 55417.480
4018.193, 55567.590
4020.121, 55866.430
4022.050, 56137.648
4023.978, 56251.238
4025.906, 56355.148
4027.835, 56477.660
4029.763, 56611.461
4031.692, 56771.531
4033.620, 56918.172
4035.549, 57049.789
4037.477, 57227.031
4039.406, 57432.539
4041.334, 57614.961
4043.263, 57767.480
4045.191, 57943.570
4047.120, 58156.590
4049.048, 58304.570
4050.977, 58455.141
4052.905, 58661.750
4054.833, 58854.820
4056.762, 59047.039
4058.690, 59234.809
4060.619, 59358.398
4062.547, 59403.641
4064.476, 59531.461
4066.404, 59731.070
4068.333, 59897.980
4070.261, 60055.328
4072.190, 60214.988
4074.118, 60367.969
4076.047, 60512.891
4077.975, 60701.141
4079.904, 60872.590
4081.832, 60978.289
4083.760, 61087.602
4085.689, 61214.871
4087.617, 61293.121
4089.546, 61355.551
4091.474, 61425.980
4093.403, 61537.039
4095.331, 61719.301
4097.260, 61924.770
4099.188, 62133.691
4101.117, 62368.719
4103.045, 62493.879
4104.974, 62475.590
4106.902, 62514.340
4108.831, 62643.820
4110.759, 62867.738
4112.688, 63060.281
4114.616, 63219.109
4116.544, 63316.070
4118.473, 63337.750
4120.401, 63363.852
4122.330, 63385.750
4124.258, 63392.711
4126.187, 63576.199
4128.115, 63852.660
4130.044, 63969.699
4131.972, 64044.320
4133.900, 64048.449
4135.829, 64151.148
4137.758, 64403.922
4139.686, 64528.059
4141.614, 64608.090
4143.543, 64735.820
4145.472, 64970.559
4147.400, 65224.859
4149.328, 65347.422
4151.257, 65445.859
4153.186, 65627.789
4155.114, 65820.820
4157.042, 65975.203
4158.971, 66148.719
4160.899, 66363.602
4162.828, 66626.758
4164.756, 66766.141
4166.685, 66747.844
4168.613, 66808.383
4170.542, 66970.938
4172.470, 67152.727
4174.398, 67305.750
4176.327, 67467.102
4178.255, 67804.133
4180.184, 68130.297
4182.112, 68171.852
4184.041, 68253.438
4185.969, 68465.703
4187.897, 68767.844
4189.826, 69073.453
4191.755, 69219.367
4193.683, 69350.250
4195.611, 69507.508
4197.540, 69619.258
4199.469, 69718.258
4201.397, 69805.688
4203.325, 69960.297
4205.254, 70232.398
4207.183, 70406.648
4209.111, 70568.102
4211.039, 70823.812
4212.968, 71056.523
4214.896, 71257.898
4216.825, 71535.531
4218.753, 71792.539
4220.682, 71886.367
4222.610, 72034.609
4224.539, 72254.023
4226.467, 72370.422
4228.396, 72458.656
4230.324, 72593.117
4232.252, 72715.789
4234.181, 72830.742
4236.109, 73096.406
4238.038, 73382.031
4239.966, 73556.633
4241.895, 73702.383
4243.823, 73828.242
##END=



