##NAMES=Burangaite
##RRUFFID=R070408
##IDEAL CHEMISTRY=NaFe^2+^Al_5_(PO_4_)_4_(OH)_6_·2H_2_O
##LOCALITY=Buranga pegmatite, Gatumba District, Gisenyi Province, Rwanda
##OWNER=RRUFF
##SOURCE=Michael Scott
##DESCRIPTION=Blue to blue-green prismatic, co-type specimen. This is the piece used by Selway et al (1997) to determine structure.
##STATUS=The identification of this mineral has been confirmed by single-crystal X-ray diffraction
##URL=https://www.rruff.net/odr/rruff_sample/R070408
##DIFFRACTION SAMPLE DESCRIPTION=Single crystal, powder profile is calculated
##CELL PARAMETERS=a: 25.043 b: 5.0405 c: 13.41 alpha: 90 beta: 110.883 gamma: 90 volume: 1581.6 crystal system: monoclinic
##FILETYPE=Raman RAW
##RAMAN WAVELENGTH=532

135.3528, 645.3847
137.2813, 713.3289
139.2097, 788.7967
141.1382, 861.6823
143.0667, 931.2701
144.9951, 999.1732
146.9236, 1065.941
148.8521, 1127.495
150.7805, 1193.242
152.7090, 1266.871
154.6375, 1346.224
156.5659, 1422.621
158.4944, 1480.487
160.4229, 1541.994
162.3513, 1629.924
164.2798, 1758.933
166.2083, 1886.923
168.1367, 2008.818
170.0652, 2128.014
171.9937, 2217.175
173.9221, 2282.823
175.8506, 2318.277
177.7791, 2316.722
179.7075, 2275.192
181.6360, 2201.761
183.5645, 2101.861
185.4929, 1955.704
187.4214, 1815.844
189.3499, 1677.984
191.2783, 1547.924
193.2068, 1434.790
195.1353, 1338.552
197.0637, 1262.104
198.9922, 1208.592
200.9207, 1188.259
202.8491, 1176.913
204.7776, 1176.578
206.7061, 1184.920
208.6345, 1195.481
210.5630, 1212.838
212.4915, 1229.413
214.4199, 1239.102
216.3484, 1241.873
218.2769, 1239.649
220.2053, 1229.118
222.1338, 1209.982
224.0623, 1199.213
225.9907, 1201.461
227.9192, 1209.644
229.8477, 1215.629
231.7761, 1215.585
233.7046, 1220.946
235.6331, 1236.681
237.5615, 1267.037
239.4900, 1291.567
241.4185, 1304.258
243.3469, 1313.635
245.2754, 1328.876
247.2039, 1347.972
249.1323, 1376.873
251.0608, 1418.733
252.9893, 1479.891
254.9177, 1537.642
256.8462, 1591.190
258.7747, 1641.543
260.7031, 1690.776
262.6316, 1747.134
264.5601, 1793.448
266.4885, 1825.474
268.4170, 1843.105
270.3455, 1842.261
272.2739, 1811.317
274.2024, 1762.013
276.1309, 1712.749
278.0593, 1649.625
279.9878, 1598.608
281.9163, 1572.060
283.8447, 1571.194
285.7732, 1577.077
287.7017, 1593.883
289.6301, 1615.039
291.5586, 1628.344
293.4871, 1623.386
295.4155, 1619.934
297.3440, 1628.048
299.2725, 1648.058
301.2009, 1663.698
303.1294, 1666.160
305.0579, 1662.653
306.9863, 1667.160
308.9148, 1678.401
310.8433, 1697.607
312.7717, 1730.256
314.7002, 1776.929
316.6287, 1817.067
318.5571, 1849.672
320.4856, 1873.842
322.4141, 1885.404
324.3425, 1884.159
326.2710, 1873.271
328.1995, 1844.952
330.1279, 1795.533
332.0564, 1770.858
333.9849, 1787.604
335.9133, 1826.387
337.8418, 1859.888
339.7703, 1883.516
341.6987, 1910.064
343.6272, 1946.956
345.5557, 1996.301
347.4841, 2036.013
349.4126, 2060.756
351.3411, 2078.457
353.2695, 2099.050
355.1980, 2128.024
357.1265, 2147.917
359.0549, 2147.441
360.9834, 2123.627
362.9119, 2117.453
364.8403, 2140.532
366.7688, 2171.556
368.6973, 2193.144
370.6257, 2202.928
372.5542, 2212.183
374.4827, 2229.264
376.4111, 2252.264
378.3396, 2257.483
380.2681, 2234.878
382.1965, 2205.022
384.1250, 2178.987
386.0535, 2157.258
387.9819, 2135.935
389.9104, 2113.137
391.8389, 2089.972
393.7673, 2069.905
395.6958, 2061.937
397.6243, 2048.477
399.5527, 2022.455
401.4812, 1984.472
403.4097, 1939.230
405.3381, 1879.513
407.2666, 1815.576
409.1951, 1762.512
411.1235, 1722.328
413.0520, 1687.765
414.9805, 1654.856
416.9089, 1623.650
418.8374, 1604.907
420.7659, 1602.568
422.6943, 1610.600
424.6228, 1626.415
426.5513, 1650.417
428.4797, 1679.475
430.4082, 1714.926
432.3367, 1755.249
434.2651, 1797.049
436.1936, 1840.829
438.1221, 1885.609
440.0505, 1933.222
441.9790, 1985.001
443.9075, 2029.536
445.8359, 2062.309
447.7644, 2087.374
449.6929, 2109.492
451.6213, 2122.407
453.5498, 2138.652
455.4783, 2159.053
457.4067, 2184.404
459.3352, 2217.819
461.2637, 2267.543
463.1921, 2319.724
465.1206, 2365.177
467.0491, 2399.741
468.9775, 2433.379
470.9060, 2477.637
472.8345, 2519.577
474.7629, 2533.479
476.6914, 2501.929
478.6199, 2465.498
480.5483, 2436.814
482.4768, 2414.332
484.4053, 2408.989
486.3337, 2429.566
488.2622, 2461.090
490.1907, 2491.657
492.1191, 2523.648
494.0476, 2547.685
495.9761, 2557.787
497.9045, 2557.137
499.8330, 2560.289
501.7615, 2564.446
503.6899, 2574.136
505.6184, 2591.104
507.5469, 2614.345
509.4753, 2647.098
511.4038, 2694.899
513.3323, 2750.274
515.2607, 2807.250
517.1892, 2866.888
519.1177, 2926.963
521.0461, 3002.195
522.9746, 3077.723
524.9031, 3118.487
526.8315, 3112.358
528.7600, 3077.188
530.6885, 3020.571
532.6169, 2940.540
534.5454, 2837.759
536.4739, 2692.041
538.4023, 2534.797
540.3308, 2391.681
542.2593, 2260.736
544.1877, 2151.173
546.1162, 2065.795
548.0447, 2002.077
549.9731, 1950.946
551.9016, 1916.314
553.8301, 1888.492
555.7585, 1867.910
557.6870, 1853.746
559.6155, 1834.336
561.5439, 1797.089
563.4724, 1760.610
565.4009, 1738.832
567.3293, 1740.350
569.2578, 1741.115
571.1863, 1738.724
573.1147, 1734.472
575.0432, 1729.596
576.9717, 1718.957
578.9001, 1716.141
580.8286, 1727.210
582.7571, 1752.381
584.6855, 1775.879
586.6140, 1792.649
588.5425, 1811.975
590.4709, 1839.589
592.3994, 1875.935
594.3279, 1912.909
596.2563, 1951.180
598.1848, 1988.599
600.1133, 2022.026
602.0417, 2046.310
603.9702, 2075.211
605.8987, 2121.437
607.8271, 2172.811
609.7556, 2204.388
611.6841, 2201.313
613.6125, 2194.380
615.5410, 2198.132
617.4695, 2214.235
619.3979, 2209.751
621.3264, 2175.727
623.2549, 2128.968
625.1833, 2078.347
627.1118, 2023.952
629.0403, 1966.328
630.9688, 1899.607
632.8972, 1832.677
634.8257, 1774.794
636.7542, 1725.753
638.6826, 1686.195
640.6111, 1658.776
642.5396, 1641.167
644.4680, 1628.971
646.3965, 1626.127
648.3250, 1622.690
650.2534, 1615.957
652.1819, 1605.848
654.1104, 1593.460
656.0388, 1577.218
657.9673, 1560.355
659.8958, 1543.161
661.8242, 1525.570
663.7527, 1512.257
665.6812, 1506.481
667.6096, 1503.966
669.5381, 1502.233
671.4666, 1501.842
673.3950, 1501.453
675.3235, 1500.180
677.2520, 1499.320
679.1804, 1500.626
681.1089, 1505.208
683.0374, 1509.119
684.9658, 1511.651
686.8943, 1512.795
688.8228, 1512.265
690.7512, 1503.999
692.6797, 1500.598
694.6082, 1510.236
696.5366, 1528.829
698.4651, 1539.924
700.3936, 1539.558
702.3220, 1534.056
704.2505, 1524.565
706.1790, 1508.900
708.1074, 1500.354
710.0359, 1506.800
711.9644, 1513.732
713.8928, 1508.398
715.8213, 1490.099
717.7498, 1478.097
719.6782, 1481.593
721.6067, 1489.845
723.5352, 1494.152
725.4636, 1492.174
727.3921, 1490.092
729.3206, 1489.022
731.2490, 1487.819
733.1775, 1483.839
735.1060, 1474.511
737.0344, 1469.589
738.9629, 1475.852
740.8914, 1488.147
742.8198, 1496.428
744.7483, 1495.356
746.6768, 1496.377
748.6052, 1503.095
750.5337, 1513.980
752.4622, 1522.362
754.3906, 1528.104
756.3191, 1531.698
758.2476, 1531.058
760.1760, 1527.413
762.1045, 1528.717
764.0330, 1541.576
765.9614, 1553.868
767.8899, 1559.061
769.8184, 1556.383
771.7468, 1562.607
773.6753, 1587.324
775.6038, 1612.160
777.5322, 1625.238
779.4607, 1626.725
781.3892, 1634.410
783.3176, 1660.628
785.2461, 1686.099
787.1746, 1697.912
789.1030, 1687.244
791.0315, 1689.892
792.9600, 1720.690
794.8884, 1754.535
796.8169, 1770.969
798.7454, 1768.491
800.6738, 1767.712
802.6023, 1775.442
804.5308, 1785.044
806.4592, 1791.360
808.3877, 1790.744
810.3162, 1792.838
812.2446, 1803.237
814.1731, 1813.332
816.1016, 1813.793
818.0300, 1804.021
819.9585, 1790.187
821.8870, 1769.452
823.8154, 1747.357
825.7439, 1729.387
827.6724, 1716.151
829.6008, 1706.572
831.5293, 1701.968
833.4578, 1700.335
835.3862, 1699.165
837.3147, 1698.762
839.2432, 1697.777
841.1716, 1693.625
843.1001, 1689.604
845.0286, 1690.231
846.9570, 1697.834
848.8855, 1705.578
850.8140, 1714.853
852.7424, 1722.909
854.6709, 1724.286
856.5994, 1715.430
858.5278, 1708.305
860.4563, 1702.461
862.3848, 1700.984
864.3132, 1708.612
866.2417, 1730.005
868.1702, 1748.577
870.0986, 1759.297
872.0271, 1765.592
873.9556, 1772.484
875.8840, 1780.032
877.8125, 1788.116
879.7410, 1797.707
881.6694, 1807.426
883.5979, 1814.951
885.5264, 1819.133
887.4548, 1825.186
889.3833, 1837.267
891.3118, 1850.892
893.2402, 1860.717
895.1687, 1865.631
897.0972, 1868.121
899.0256, 1868.501
900.9541, 1866.605
902.8826, 1862.247
904.8110, 1856.044
906.7395, 1846.112
908.6680, 1825.225
910.5964, 1804.334
912.5249, 1793.868
914.4534, 1795.397
916.3818, 1802.734
918.3103, 1820.015
920.2388, 1839.075
922.1672, 1852.142
924.0957, 1856.737
926.0242, 1861.221
927.9526, 1859.631
929.8811, 1862.524
931.8096, 1882.231
933.7380, 1919.951
935.6665, 1948.693
937.5950, 1949.735
939.5234, 1951.456
941.4519, 1972.633
943.3804, 2021.374
945.3088, 2061.012
947.2373, 2084.601
949.1658, 2106.141
951.0942, 2130.814
953.0227, 2158.976
954.9512, 2198.129
956.8796, 2259.986
958.8081, 2319.350
960.7366, 2360.726
962.6650, 2386.358
964.5935, 2418.299
966.5220, 2461.871
968.4504, 2508.032
970.3789, 2553.873
972.3074, 2600.065
974.2358, 2649.281
976.1643, 2697.044
978.0928, 2753.263
980.0212, 2827.442
981.9497, 2911.100
983.8782, 2986.608
985.8066, 3050.703
987.7351, 3112.621
989.6636, 3183.078
991.5920, 3250.737
993.5205, 3295.499
995.4490, 3292.482
997.3774, 3304.513
999.3059, 3329.977
1001.234, 3374.572
1003.163, 3447.338
1005.091, 3547.665
1007.020, 3668.316
1008.948, 3801.940
1010.877, 3963.323
1012.805, 4162.689
1014.734, 4402.791
1016.662, 4652.344
1018.591, 4926.270
1020.519, 5191.045
1022.448, 5440.485
1024.376, 5676.180
1026.304, 5852.943
1028.233, 5968.510
1030.161, 6035.340
1032.090, 6043.714
1034.018, 6003.587
1035.947, 5945.616
1037.875, 5853.812
1039.804, 5780.704
1041.732, 5754.523
1043.661, 5756.043
1045.589, 5760.910
1047.518, 5802.089
1049.446, 5775.813
1051.375, 5665.536
1053.303, 5489.435
1055.231, 5256.594
1057.160, 4948.669
1059.088, 4645.100
1061.017, 4329.546
1062.945, 4036.347
1064.874, 3786.952
1066.802, 3578.448
1068.731, 3411.858
1070.659, 3306.069
1072.588, 3219.575
1074.516, 3135.148
1076.445, 3054.240
1078.373, 2984.999
1080.302, 2930.617
1082.230, 2884.684
1084.158, 2841.375
1086.087, 2807.122
1088.015, 2794.472
1089.944, 2802.695
1091.872, 2829.100
1093.801, 2888.751
1095.729, 2955.809
1097.658, 3009.582
1099.586, 3049.815
1101.515, 3088.939
1103.443, 3144.918
1105.372, 3180.966
1107.300, 3177.172
1109.229, 3134.941
1111.157, 3084.310
1113.085, 3025.541
1115.014, 2957.850
1116.942, 2877.182
1118.871, 2788.097
1120.799, 2697.211
1122.728, 2596.971
1124.656, 2516.987
1126.585, 2475.214
1128.513, 2448.335
1130.442, 2416.223
1132.370, 2378.502
1134.299, 2348.579
1136.227, 2329.655
1138.156, 2318.175
1140.084, 2314.923
1142.012, 2318.926
1143.941, 2321.030
1145.869, 2319.958
1147.798, 2318.568
1149.726, 2315.583
1151.655, 2313.132
1153.583, 2313.206
1155.512, 2312.970
1157.440, 2325.423
1159.369, 2364.459
1161.297, 2407.292
1163.226, 2438.346
1165.154, 2458.929
1167.083, 2479.279
1169.011, 2500.888
1170.939, 2521.634
1172.868, 2541.805
1174.796, 2560.479
1176.725, 2575.200
1178.653, 2581.927
1180.582, 2590.925
1182.510, 2610.186
1184.439, 2627.175
1186.367, 2628.901
1188.296, 2613.141
1190.224, 2596.864
1192.153, 2582.605
1194.081, 2565.654
1196.010, 2537.818
1197.938, 2506.249
1199.866, 2490.544
1201.795, 2498.814
1203.723, 2502.228
1205.652, 2484.237
1207.580, 2462.366
1209.509, 2454.257
1211.437, 2464.544
1213.366, 2467.091
1215.294, 2454.281
1217.223, 2440.295
1219.151, 2433.107
1221.080, 2430.141
1223.008, 2418.568
1224.937, 2391.773
1226.865, 2367.993
1228.793, 2348.062
1230.722, 2333.624
1232.650, 2328.584
1234.579, 2332.722
1236.507, 2334.545
1238.436, 2330.256
1240.364, 2326.543
1242.293, 2327.164
1244.221, 2330.818
1246.150, 2335.065
1248.078, 2343.146
1250.007, 2343.434
1251.935, 2326.865
1253.864, 2307.053
1255.792, 2294.502
1257.720, 2289.645
1259.649, 2289.832
1261.577, 2299.012
1263.506, 2308.074
1265.434, 2313.997
1267.363, 2317.854
1269.291, 2322.077
1271.220, 2326.980
1273.148, 2331.089
1275.077, 2332.577
1277.005, 2334.559
1278.934, 2341.644
1280.862, 2351.707
1282.791, 2353.816
1284.719, 2342.807
1286.647, 2333.221
1288.576, 2327.152
1290.504, 2326.857
1292.433, 2338.292
1294.361, 2365.826
1296.290, 2382.695
1298.218, 2376.745
1300.147, 2370.398
1302.075, 2372.943
1304.004, 2381.764
1305.932, 2388.347
1307.861, 2389.813
1309.789, 2393.318
1311.718, 2403.672
1313.646, 2412.397
1315.574, 2409.567
1317.503, 2396.633
1319.431, 2394.603
1321.360, 2409.071
1323.288, 2424.701
1325.217, 2439.231
1327.145, 2450.623
1329.074, 2457.117
1331.002, 2458.693
1332.931, 2455.258
1334.859, 2438.362
1336.788, 2429.125
1338.716, 2443.154
1340.645, 2469.652
1342.573, 2483.298
1344.501, 2478.293
1346.430, 2477.963
1348.358, 2492.417
1350.287, 2505.312
1352.215, 2503.814
1354.144, 2491.276
1356.072, 2490.564
1358.001, 2516.919
1359.929, 2533.814
1361.858, 2531.613
1363.786, 2524.312
1365.715, 2524.680
1367.643, 2532.627
1369.572, 2533.750
1371.500, 2520.863
1373.428, 2513.012
1375.357, 2520.581
1377.285, 2532.821
1379.214, 2533.116
1381.142, 2522.320
1383.071, 2532.103
1384.999, 2585.779
1386.928, 2626.765
1388.856, 2619.953
1390.785, 2590.488
1392.713, 2568.825
1394.642, 2554.581
1396.570, 2552.731
1398.499, 2573.724
1400.427, 2594.582
1402.355, 2606.417
1404.284, 2611.550
1406.212, 2614.375
1408.141, 2613.480
1410.069, 2614.309
1411.998, 2618.422
1413.926, 2623.022
1415.855, 2627.217
1417.783, 2630.915
1419.712, 2633.851
1421.640, 2636.354
1423.569, 2637.430
1425.497, 2632.148
1427.426, 2630.388
1429.354, 2640.630
1431.282, 2659.195
1433.211, 2672.212
1435.139, 2678.759
1437.068, 2683.182
1438.996, 2683.687
1440.925, 2684.561
1442.853, 2692.052
1444.782, 2701.898
1446.710, 2698.249
1448.639, 2674.143
1450.567, 2663.346
1452.496, 2684.752
1454.424, 2710.518
1456.353, 2721.236
1458.281, 2722.247
1460.209, 2728.885
1462.138, 2743.454
1464.066, 2756.994
1465.995, 2770.818
1467.923, 2779.049
1469.852, 2774.577
1471.780, 2761.441
1473.709, 2756.474
1475.637, 2763.021
1477.566, 2767.922
1479.494, 2768.474
1481.423, 2767.022
1483.351, 2760.589
1485.280, 2752.805
1487.208, 2758.414
1489.136, 2787.869
1491.065, 2806.574
1492.993, 2805.803
1494.922, 2801.021
1496.850, 2797.890
1498.779, 2796.610
1500.707, 2797.547
1502.636, 2799.414
1504.564, 2806.388
1506.493, 2828.589
1508.421, 2844.214
1510.350, 2835.196
1512.278, 2815.760
1514.207, 2815.728
1516.135, 2843.423
1518.063, 2862.354
1519.992, 2868.943
1521.920, 2870.389
1523.849, 2862.827
1525.777, 2854.683
1527.706, 2860.721
1529.634, 2882.092
1531.563, 2897.519
1533.491, 2905.953
1535.420, 2908.316
1537.348, 2900.747
1539.277, 2890.036
1541.205, 2880.404
1543.134, 2872.779
1545.062, 2878.386
1546.990, 2906.642
1548.919, 2925.862
1550.847, 2917.710
1552.776, 2904.886
1554.704, 2904.630
1556.633, 2913.735
1558.561, 2922.419
1560.490, 2929.457
1562.418, 2940.261
1564.347, 2963.358
1566.275, 2981.710
1568.204, 2980.433
1570.132, 2968.926
1572.061, 2963.441
1573.989, 2964.261
1575.917, 2971.819
1577.846, 2994.060
1579.774, 3010.015
1581.703, 3002.595
1583.631, 2988.511
1585.560, 2988.323
1587.488, 3001.329
1589.417, 3010.790
1591.345, 3015.573
1593.274, 3016.164
1595.202, 3005.078
1597.131, 2996.849
1599.059, 3002.449
1600.988, 3019.955
1602.916, 3043.232
1604.844, 3078.342
1606.773, 3095.650
1608.701, 3071.691
1610.630, 3051.024
1612.558, 3060.090
1614.487, 3082.916
1616.415, 3089.282
1618.344, 3076.662
1620.272, 3073.473
1622.201, 3093.333
1624.129, 3102.875
1626.058, 3078.867
1627.986, 3052.655
1629.915, 3054.851
1631.843, 3081.973
1633.771, 3097.037
1635.700, 3094.489
1637.628, 3094.921
1639.557, 3107.564
1641.485, 3117.240
1643.414, 3112.229
1645.342, 3102.073
1647.271, 3106.048
1649.199, 3127.320
1651.128, 3139.016
1653.056, 3133.799
1654.985, 3129.042
1656.913, 3131.135
1658.842, 3133.126
1660.770, 3127.248
1662.698, 3115.969
1664.627, 3113.606
1666.555, 3124.477
1668.484, 3130.786
1670.412, 3121.663
1672.341, 3118.699
1674.269, 3134.188
1676.198, 3156.868
1678.126, 3174.745
1680.055, 3187.983
1681.983, 3189.135
1683.912, 3167.175
1685.840, 3156.805
1687.769, 3171.807
1689.697, 3191.768
1691.625, 3211.901
1693.554, 3227.732
1695.482, 3226.275
1697.411, 3203.562
1699.339, 3193.479
1701.268, 3204.749
1703.196, 3216.670
1705.125, 3227.927
1707.053, 3234.233
1708.982, 3225.049
1710.910, 3208.314
1712.839, 3216.647
1714.767, 3257.291
1716.696, 3284.522
1718.624, 3286.096
1720.552, 3285.438
1722.481, 3293.077
1724.409, 3299.463
1726.338, 3293.325
1728.266, 3277.912
1730.195, 3271.067
1732.123, 3274.791
1734.052, 3278.299
1735.980, 3277.283
1737.909, 3280.005
1739.837, 3295.126
1741.766, 3311.403
1743.694, 3317.620
1745.623, 3315.073
1747.551, 3308.051
1749.479, 3293.209
1751.408, 3292.939
1753.336, 3326.214
1755.265, 3351.170
1757.193, 3336.632
1759.122, 3312.947
1761.050, 3312.848
1762.979, 3331.272
1764.907, 3345.671
1766.836, 3355.832
1768.764, 3356.479
1770.693, 3336.758
1772.621, 3323.433
1774.550, 3336.023
1776.478, 3356.140
1778.406, 3367.454
1780.335, 3370.343
1782.263, 3363.346
1784.192, 3343.142
1786.120, 3332.866
1788.049, 3342.985
1789.977, 3353.317
1791.906, 3354.311
1793.834, 3352.631
1795.763, 3353.441
1797.691, 3357.014
1799.620, 3364.300
1801.548, 3375.650
1803.477, 3388.955
1805.405, 3414.623
1807.333, 3426.618
1809.262, 3403.056
1811.190, 3376.075
1813.119, 3374.896
1815.047, 3390.663
1816.976, 3397.306
1818.904, 3391.420
1820.833, 3391.181
1822.761, 3403.500
1824.690, 3411.206
1826.618, 3408.132
1828.547, 3403.249
1830.475, 3398.366
1832.404, 3397.050
1834.332, 3409.283
1836.260, 3437.066
1838.189, 3451.091
1840.117, 3441.163
1842.046, 3436.335
1843.974, 3439.646
1845.903, 3447.822
1847.831, 3461.979
1849.760, 3478.543
1851.688, 3495.882
1853.617, 3512.846
1855.545, 3519.680
1857.474, 3514.282
1859.402, 3509.262
1861.331, 3504.501
1863.259, 3503.260
1865.188, 3510.000
1867.116, 3517.127
1869.044, 3518.031
1870.973, 3516.379
1872.901, 3520.801
1874.830, 3530.647
1876.758, 3533.680
1878.687, 3526.734
1880.615, 3520.890
1882.544, 3513.701
1884.472, 3515.756
1886.401, 3545.658
1888.329, 3576.960
1890.258, 3577.261
1892.186, 3554.850
1894.115, 3540.330
1896.043, 3533.021
1897.971, 3538.114
1899.900, 3567.362
1901.828, 3590.743
1903.757, 3603.133
1905.685, 3606.885
1907.614, 3598.323
1909.542, 3584.953
1911.471, 3575.536
1913.399, 3570.502
1915.328, 3577.184
1917.256, 3605.224
1919.185, 3621.930
1921.113, 3617.516
1923.042, 3614.009
1924.970, 3619.291
1926.898, 3623.750
1928.827, 3619.075
1930.755, 3610.407
1932.684, 3607.014
1934.612, 3608.436
1936.541, 3607.955
1938.469, 3603.152
1940.398, 3609.028
1942.326, 3633.008
1944.255, 3658.190
1946.183, 3689.722
1948.112, 3707.683
1950.040, 3681.601
1951.969, 3640.178
1953.897, 3635.312
1955.825, 3662.763
1957.754, 3682.878
1959.682, 3694.042
1961.611, 3699.737
1963.539, 3698.895
1965.468, 3694.687
1967.396, 3686.228
1969.325, 3676.531
1971.253, 3665.328
1973.182, 3655.486
1975.110, 3650.607
1977.039, 3650.925
1978.967, 3661.547
1980.896, 3688.152
1982.824, 3705.403
1984.752, 3707.930
1986.681, 3708.103
1988.609, 3705.868
1990.538, 3705.922
1992.466, 3713.623
1994.395, 3722.685
1996.323, 3724.132
1998.252, 3720.983
2000.180, 3723.932
2002.109, 3733.437
2004.037, 3738.179
2005.966, 3733.038
2007.894, 3734.850
2009.823, 3759.237
2011.751, 3776.162
2013.679, 3764.691
2015.608, 3748.562
2017.536, 3750.846
2019.465, 3763.482
2021.393, 3769.254
2023.322, 3768.075
2025.250, 3763.370
2027.179, 3750.501
2029.107, 3746.642
2031.036, 3760.718
2032.964, 3770.432
2034.893, 3760.787
2036.821, 3756.774
2038.750, 3776.923
2040.678, 3804.793
2042.606, 3825.666
2044.535, 3838.798
2046.463, 3840.215
2048.392, 3830.224
2050.320, 3819.082
2052.249, 3804.794
2054.177, 3799.771
2056.106, 3813.577
2058.034, 3826.469
2059.963, 3833.368
2061.891, 3836.458
2063.820, 3832.864
2065.748, 3829.305
2067.677, 3837.091
2069.605, 3853.354
2071.533, 3864.557
2073.462, 3870.679
2075.390, 3872.316
2077.319, 3870.007
2079.247, 3860.163
2081.176, 3831.093
2083.104, 3816.567
2085.033, 3839.852
2086.961, 3868.538
2088.890, 3882.341
2090.818, 3888.741
2092.747, 3895.450
2094.675, 3902.434
2096.604, 3910.942
2098.532, 3921.737
2100.460, 3924.041
2102.389, 3908.398
2104.317, 3902.921
2106.246, 3918.452
2108.174, 3928.927
2110.103, 3926.691
2112.031, 3920.801
2113.960, 3909.071
2115.888, 3901.890
2117.817, 3916.774
2119.745, 3940.785
2121.674, 3940.683
2123.602, 3922.316
2125.531, 3926.404
2127.459, 3958.101
2129.387, 3974.125
2131.316, 3960.707
2133.244, 3952.832
2135.173, 3965.522
2137.101, 3973.951
2139.030, 3963.578
2140.958, 3952.341
2142.887, 3952.048
2144.815, 3958.737
2146.744, 3969.611
2148.672, 3982.837
2150.601, 3991.369
2152.529, 3995.496
2154.458, 4002.081
2156.386, 4012.302
2158.314, 4017.252
2160.243, 4013.643
2162.171, 4010.448
2164.100, 4012.284
2166.028, 4012.053
2167.957, 3999.991
2169.885, 3992.486
2171.814, 4008.007
2173.742, 4030.409
2175.671, 4037.345
2177.599, 4033.165
2179.528, 4031.857
2181.456, 4033.381
2183.385, 4031.379
2185.313, 4024.643
2187.241, 4024.554
2189.170, 4034.878
2191.098, 4043.223
2193.027, 4047.168
2194.955, 4047.555
2196.884, 4035.048
2198.812, 4030.763
2200.741, 4061.390
2202.669, 4094.160
2204.598, 4087.716
2206.526, 4061.243
2208.455, 4052.020
2210.383, 4059.125
2212.312, 4079.321
2214.240, 4113.562
2216.168, 4129.267
2218.097, 4121.464
2220.025, 4112.319
2221.954, 4103.466
2223.882, 4098.910
2225.811, 4103.134
2227.739, 4107.282
2229.668, 4108.208
2231.596, 4107.468
2233.525, 4103.733
2235.453, 4100.960
2237.382, 4099.615
2239.310, 4104.407
2241.239, 4132.621
2243.167, 4178.037
2245.095, 4203.770
2247.024, 4209.510
2248.952, 4204.353
2250.881, 4185.786
2252.809, 4178.056
2254.738, 4191.943
2256.666, 4200.809
2258.595, 4196.998
2260.523, 4190.425
2262.452, 4174.775
2264.380, 4169.124
2266.309, 4194.472
2268.237, 4224.353
2270.166, 4235.847
2272.094, 4236.056
2274.022, 4234.801
2275.951, 4231.073
2277.879, 4217.309
2279.808, 4196.442
2281.736, 4196.891
2283.665, 4224.438
2285.593, 4242.957
2287.522, 4248.297
2289.450, 4250.878
2291.379, 4246.148
2293.307, 4247.453
2295.236, 4264.411
2297.164, 4274.557
2299.093, 4262.221
2301.021, 4252.117
2302.949, 4263.599
2304.878, 4278.126
2306.806, 4277.234
2308.735, 4272.105
2310.663, 4277.291
2312.592, 4290.516
2314.520, 4308.496
2316.449, 4329.975
2318.377, 4342.917
2320.306, 4347.132
2322.234, 4360.106
2324.163, 4385.130
2326.091, 4387.317
2328.020, 4354.465
2329.948, 4332.025
2331.876, 4335.209
2333.805, 4338.598
2335.733, 4328.212
2337.662, 4328.428
2339.590, 4361.679
2341.519, 4390.875
2343.447, 4395.307
2345.376, 4387.159
2347.304, 4362.606
2349.233, 4342.549
2351.161, 4362.343
2353.090, 4398.251
2355.018, 4404.506
2356.947, 4387.964
2358.875, 4372.092
2360.803, 4357.179
2362.732, 4363.176
2364.660, 4398.126
2366.589, 4396.779
2368.517, 4348.522
2370.446, 4319.214
2372.374, 4320.561
2374.303, 4324.852
2376.231, 4324.515
2378.160, 4329.823
2380.088, 4350.966
2382.017, 4367.691
2383.945, 4371.568
2385.874, 4370.634
2387.802, 4361.428
2389.730, 4357.677
2391.659, 4380.516
2393.587, 4403.356
2395.516, 4392.177
2397.444, 4370.269
2399.373, 4372.625
2401.301, 4389.775
2403.230, 4400.005
2405.158, 4404.458
2407.087, 4409.653
2409.015, 4415.615
2410.944, 4416.860
2412.872, 4413.344
2414.801, 4404.127
2416.729, 4387.482
2418.657, 4384.620
2420.586, 4404.086
2422.514, 4416.673
2424.443, 4415.313
2426.371, 4410.850
2428.300, 4402.117
2430.228, 4394.615
2432.157, 4393.186
2434.085, 4386.810
2436.014, 4363.286
2437.942, 4346.122
2439.871, 4352.369
2441.799, 4365.015
2443.728, 4375.837
2445.656, 4383.268
2447.584, 4382.596
2449.513, 4380.328
2451.441, 4389.769
2453.370, 4400.543
2455.298, 4391.307
2457.227, 4369.745
2459.155, 4350.551
2461.084, 4335.371
2463.012, 4331.058
2464.941, 4336.857
2466.869, 4342.394
2468.798, 4348.081
2470.726, 4347.521
2472.655, 4339.313
2474.583, 4340.674
2476.511, 4353.504
2478.440, 4368.843
2480.368, 4387.325
2482.297, 4401.106
2484.225, 4414.714
2486.154, 4413.213
2488.082, 4379.476
2490.011, 4355.955
2491.939, 4346.578
2493.868, 4354.546
2495.796, 4399.082
2497.725, 4427.038
2499.653, 4398.382
2501.582, 4368.832
2503.510, 4370.642
2505.438, 4376.327
2507.367, 4361.216
2509.295, 4350.769
2511.224, 4372.480
2513.152, 4400.673
2515.081, 4414.628
2517.009, 4419.513
2518.938, 4418.946
2520.866, 4414.808
2522.795, 4406.451
2524.723, 4398.649
2526.652, 4404.456
2528.580, 4417.726
2530.509, 4419.966
2532.437, 4414.747
2534.365, 4411.038
2536.294, 4410.476
2538.222, 4426.847
2540.151, 4457.436
2542.079, 4450.003
2544.008, 4399.901
2545.936, 4393.272
2547.865, 4432.209
2549.793, 4439.985
2551.722, 4410.863
2553.650, 4400.278
2555.579, 4418.050
2557.507, 4429.583
2559.436, 4422.524
2561.364, 4431.257
2563.292, 4467.359
2565.221, 4482.590
2567.149, 4468.037
2569.078, 4445.184
2571.006, 4408.173
2572.935, 4392.285
2574.863, 4424.429
2576.792, 4447.587
2578.720, 4442.678
2580.649, 4441.398
2582.577, 4451.381
2584.506, 4463.415
2586.434, 4476.653
2588.363, 4487.271
2590.291, 4495.949
2592.219, 4498.244
2594.148, 4488.757
2596.076, 4477.303
2598.005, 4463.671
2599.933, 4456.363
2601.862, 4464.315
2603.790, 4472.807
2605.719, 4469.641
2607.647, 4467.512
2609.576, 4477.988
2611.504, 4489.875
2613.433, 4493.574
2615.361, 4495.679
2617.290, 4506.744
2619.218, 4513.249
2621.146, 4491.743
2623.075, 4472.188
2625.003, 4492.748
2626.932, 4524.768
2628.860, 4537.710
2630.789, 4539.987
2632.717, 4539.705
2634.646, 4537.657
2636.574, 4529.817
2638.503, 4525.189
2640.431, 4544.184
2642.360, 4569.321
2644.288, 4567.694
2646.217, 4553.917
2648.145, 4552.813
2650.073, 4560.763
2652.002, 4577.384
2653.930, 4593.929
2655.859, 4589.087
2657.787, 4573.866
2659.716, 4570.479
2661.644, 4578.593
2663.573, 4607.055
2665.501, 4642.336
2667.430, 4650.487
2669.358, 4635.417
2671.287, 4593.665
2673.215, 4543.048
2675.144, 4549.256
2677.072, 4593.231
2679.000, 4604.015
2680.929, 4593.323
2682.857, 4602.995
2684.786, 4623.852
2686.714, 4619.337
2688.643, 4598.522
2690.571, 4600.806
2692.500, 4619.520
2694.428, 4622.717
2696.357, 4614.912
2698.285, 4611.781
2700.214, 4612.724
2702.142, 4611.750
2704.071, 4611.733
2705.999, 4632.265
2707.927, 4665.785
2709.856, 4669.409
2711.784, 4652.384
2713.713, 4648.198
2715.641, 4654.483
2717.570, 4658.872
2719.498, 4662.900
2721.427, 4676.532
2723.355, 4696.031
2725.284, 4703.600
2727.212, 4701.257
2729.141, 4691.954
2731.069, 4679.500
2732.998, 4675.522
2734.926, 4679.712
2736.854, 4696.402
2738.783, 4719.009
2740.711, 4721.275
2742.640, 4709.731
2744.568, 4701.609
2746.497, 4695.996
2748.425, 4685.366
2750.354, 4676.662
2752.282, 4701.653
2754.211, 4739.932
2756.139, 4732.070
2758.068, 4701.604
2759.996, 4699.151
2761.925, 4712.853
2763.853, 4718.475
2765.781, 4719.459
2767.710, 4723.348
2769.638, 4727.548
2771.567, 4723.610
2773.495, 4720.233
2775.424, 4739.811
2777.352, 4762.799
2779.281, 4747.946
2781.209, 4724.691
2783.138, 4735.417
2785.066, 4763.329
2786.995, 4802.827
2788.923, 4834.092
2790.852, 4825.298
2792.780, 4803.836
2794.708, 4794.611
2796.637, 4794.288
2798.565, 4803.388
2800.494, 4815.255
2802.422, 4826.397
2804.351, 4834.745
2806.279, 4834.196
2808.208, 4835.986
2810.136, 4850.124
2812.065, 4865.290
2813.993, 4875.879
2815.922, 4882.599
2817.850, 4887.884
2819.779, 4885.984
2821.707, 4863.948
2823.635, 4852.292
2825.564, 4870.102
2827.492, 4892.090
2829.421, 4909.518
2831.349, 4926.378
2833.278, 4939.791
2835.206, 4961.792
2837.135, 5000.408
2839.063, 5034.611
2840.992, 5056.709
2842.920, 5075.750
2844.849, 5093.140
2846.777, 5106.691
2848.706, 5113.783
2850.634, 5129.619
2852.563, 5165.290
2854.491, 5174.715
2856.419, 5129.948
2858.348, 5119.905
2860.276, 5148.446
2862.205, 5192.022
2864.133, 5250.789
2866.062, 5268.891
2867.990, 5238.228
2869.919, 5228.066
2871.847, 5238.349
2873.776, 5258.346
2875.704, 5287.066
2877.633, 5325.837
2879.561, 5368.069
2881.490, 5378.702
2883.418, 5365.866
2885.346, 5357.048
2887.275, 5351.926
2889.203, 5347.240
2891.132, 5347.458
2893.060, 5366.942
2894.989, 5391.630
2896.917, 5399.921
2898.846, 5400.258
2900.774, 5392.440
2902.703, 5393.848
2904.631, 5432.564
2906.560, 5472.686
2908.488, 5487.868
2910.417, 5489.771
2912.345, 5476.753
2914.273, 5467.645
2916.202, 5475.108
2918.130, 5484.358
2920.059, 5486.250
2921.987, 5495.604
2923.916, 5519.828
2925.844, 5539.675
2927.773, 5544.271
2929.701, 5557.880
2931.630, 5592.177
2933.558, 5611.480
2935.487, 5611.147
2937.415, 5618.901
2939.344, 5641.296
2941.272, 5631.292
2943.200, 5580.701
2945.129, 5581.585
2947.057, 5626.416
2948.986, 5643.754
2950.914, 5640.414
2952.843, 5667.750
2954.771, 5708.263
2956.700, 5692.272
2958.628, 5655.927
2960.557, 5683.018
2962.485, 5730.770
2964.414, 5740.167
2966.342, 5740.739
2968.271, 5768.970
2970.199, 5799.004
2972.127, 5816.538
2974.056, 5821.925
2975.984, 5798.772
2977.913, 5789.679
2979.841, 5827.890
2981.770, 5857.108
2983.698, 5856.847
2985.627, 5861.507
2987.555, 5878.301
2989.484, 5908.322
2991.412, 5957.087
2993.341, 5991.025
2995.269, 6005.926
2997.198, 6030.696
2999.126, 6068.728
3001.054, 6095.007
3002.983, 6111.417
3004.911, 6148.649
3006.840, 6195.456
3008.768, 6200.100
3010.697, 6193.195
3012.625, 6263.505
3014.554, 6354.324
3016.482, 6368.335
3018.411, 6365.233
3020.339, 6395.272
3022.268, 6442.267
3024.196, 6506.155
3026.125, 6563.745
3028.053, 6598.510
3029.981, 6637.365
3031.910, 6704.666
3033.838, 6750.674
3035.767, 6755.840
3037.695, 6773.448
3039.624, 6811.207
3041.552, 6853.118
3043.481, 6896.351
3045.409, 6954.305
3047.338, 7025.795
3049.266, 7071.027
3051.195, 7098.390
3053.123, 7151.834
3055.052, 7216.638
3056.980, 7252.882
3058.908, 7275.963
3060.837, 7301.826
3062.765, 7336.688
3064.694, 7398.684
3066.622, 7455.868
3068.551, 7483.615
3070.479, 7503.326
3072.408, 7525.729
3074.336, 7536.381
3076.265, 7508.488
3078.193, 7517.818
3080.122, 7583.308
3082.050, 7615.045
3083.979, 7598.396
3085.907, 7609.546
3087.835, 7651.243
3089.764, 7646.030
3091.692, 7612.247
3093.621, 7635.731
3095.549, 7682.397
3097.478, 7675.244
3099.406, 7652.024
3101.335, 7670.069
3103.263, 7689.857
3105.192, 7681.993
3107.120, 7662.715
3109.049, 7635.767
3110.977, 7607.829
3112.906, 7577.053
3114.834, 7557.323
3116.762, 7554.271
3118.691, 7561.987
3120.619, 7584.506
3122.548, 7564.656
3124.476, 7506.506
3126.405, 7479.976
3128.333, 7480.347
3130.262, 7493.759
3132.190, 7507.747
3134.119, 7485.498
3136.047, 7464.599
3137.976, 7499.884
3139.904, 7534.754
3141.833, 7520.083
3143.761, 7511.435
3145.689, 7533.787
3147.618, 7563.402
3149.546, 7612.654
3151.475, 7611.377
3153.403, 7547.976
3155.332, 7525.205
3157.260, 7551.542
3159.189, 7579.399
3161.117, 7608.476
3163.046, 7637.521
3164.974, 7666.109
3166.903, 7696.144
3168.831, 7722.194
3170.760, 7718.579
3172.688, 7737.527
3174.616, 7824.838
3176.545, 7917.010
3178.473, 8004.501
3180.402, 8054.597
3182.330, 8049.655
3184.259, 8093.691
3186.187, 8207.089
3188.116, 8323.301
3190.044, 8442.284
3191.973, 8557.663
3193.901, 8693.212
3195.830, 8896.929
3197.758, 9158.241
3199.687, 9485.869
3201.615, 9834.444
3203.543, 10132.95
3205.472, 10506.02
3207.400, 11026.28
3209.329, 11595.87
3211.257, 12178.68
3213.186, 12916.14
3215.114, 13846.59
3217.043, 14841.37
3218.971, 15906.41
3220.900, 17106.31
3222.828, 18436.77
3224.757, 19896.28
3226.685, 21457.48
3228.614, 23132.04
3230.542, 24831.53
3232.470, 26545.72
3234.399, 28197.89
3236.327, 29828.38
3238.256, 31252.78
3240.184, 32459.46
3242.113, 33398.76
3244.041, 34063.27
3245.970, 34385.63
3247.898, 34402.58
3249.827, 34326.92
3251.755, 34027.13
3253.684, 33236.28
3255.612, 32158.33
3257.541, 30887.80
3259.469, 29555.16
3261.397, 28222.53
3263.326, 26817.87
3265.254, 25292.11
3267.183, 23831.89
3269.111, 22453.33
3271.040, 21184.60
3272.968, 20038.09
3274.897, 19127.52
3276.825, 18371.03
3278.754, 17612.88
3280.682, 16904.43
3282.611, 16311.14
3284.539, 15767.54
3286.468, 15255.27
3288.396, 14744.25
3290.324, 14235.11
3292.253, 13700.58
3294.181, 13139.18
3296.110, 12564.37
3298.038, 11984.08
3299.967, 11424.10
3301.895, 10889.79
3303.824, 10372.07
3305.752, 9903.904
3307.681, 9527.809
3309.609, 9186.241
3311.538, 8847.527
3313.466, 8562.100
3315.395, 8345.893
3317.323, 8169.470
3319.251, 8029.748
3321.180, 7882.325
3323.108, 7738.035
3325.037, 7624.839
3326.965, 7532.350
3328.894, 7456.007
3330.822, 7380.403
3332.751, 7292.514
3334.679, 7209.050
3336.608, 7127.147
3338.536, 7082.250
3340.465, 7078.839
3342.393, 7033.134
3344.322, 6956.497
3346.250, 6930.290
3348.178, 6920.132
3350.107, 6860.389
3352.035, 6809.847
3353.964, 6835.696
3355.892, 6849.661
3357.821, 6818.003
3359.749, 6796.891
3361.678, 6801.256
3363.606, 6771.728
3365.535, 6720.473
3367.463, 6718.026
3369.392, 6741.776
3371.320, 6766.499
3373.249, 6769.521
3375.177, 6704.074
3377.105, 6667.324
3379.034, 6719.215
3380.962, 6750.094
3382.891, 6748.122
3384.819, 6737.183
3386.748, 6720.671
3388.676, 6710.305
3390.605, 6700.933
3392.533, 6678.827
3394.462, 6661.633
3396.390, 6679.099
3398.319, 6675.785
3400.247, 6625.738
3402.176, 6590.355
3404.104, 6580.674
3406.032, 6560.415
3407.961, 6529.271
3409.889, 6480.790
3411.818, 6432.856
3413.746, 6414.247
3415.675, 6405.653
3417.603, 6407.548
3419.532, 6389.698
3421.460, 6335.247
3423.389, 6318.369
3425.317, 6340.264
3427.246, 6302.350
3429.174, 6228.899
3431.103, 6186.634
3433.031, 6158.371
3434.959, 6132.638
3436.888, 6106.124
3438.816, 6077.684
3440.745, 6047.173
3442.673, 6013.617
3444.602, 5985.385
3446.530, 5960.709
3448.459, 5926.988
3450.387, 5889.197
3452.316, 5853.897
3454.244, 5817.776
3456.173, 5775.406
3458.101, 5740.847
3460.030, 5727.111
3461.958, 5693.908
3463.886, 5646.198
3465.815, 5649.207
3467.743, 5672.670
3469.672, 5653.026
3471.600, 5617.280
3473.529, 5571.877
3475.457, 5549.392
3477.386, 5580.404
3479.314, 5562.788
3481.243, 5491.867
3483.171, 5470.413
3485.100, 5481.491
3487.028, 5467.639
3488.957, 5454.513
3490.885, 5483.708
3492.813, 5487.519
3494.742, 5438.135
3496.670, 5378.781
3498.599, 5312.215
3500.527, 5296.293
3502.456, 5315.657
3504.384, 5327.024
3506.313, 5325.870
3508.241, 5297.232
3510.170, 5271.354
3512.098, 5261.143
3514.027, 5244.656
3515.955, 5213.671
3517.884, 5230.069
3519.812, 5268.934
3521.740, 5256.941
3523.669, 5226.631
3525.597, 5202.768
3527.526, 5192.899
3529.454, 5208.958
3531.383, 5219.094
3533.311, 5221.060
3535.240, 5209.543
3537.168, 5187.687
3539.097, 5149.108
3541.025, 5126.378
3542.954, 5163.919
3544.882, 5186.715
3546.811, 5158.074
3548.739, 5138.694
3550.667, 5132.697
3552.596, 5145.318
3554.524, 5168.278
3556.453, 5194.160
3558.381, 5205.942
3560.310, 5168.688
3562.238, 5165.433
3564.167, 5218.471
3566.095, 5241.094
3568.024, 5231.009
3569.952, 5225.144
3571.881, 5216.693
3573.809, 5187.191
3575.738, 5168.263
3577.666, 5183.841
3579.594, 5195.346
3581.523, 5196.846
3583.451, 5193.806
3585.380, 5196.523
3587.308, 5249.555
3589.237, 5321.853
3591.165, 5366.239
3593.094, 5461.182
3595.022, 5632.194
3596.951, 5825.639
3598.879, 6035.492
3600.808, 6293.140
3602.736, 6607.543
3604.665, 6975.513
3606.593, 7424.961
3608.521, 7958.028
3610.450, 8608.254
3612.378, 9394.335
3614.307, 10306.70
3616.235, 11299.35
3618.164, 12328.90
3620.092, 13195.00
3622.021, 13710.92
3623.949, 13928.93
3625.878, 13835.08
3627.806, 13453.32
3629.735, 12817.33
3631.663, 12070.98
3633.592, 11250.45
3635.520, 10349.07
3637.448, 9464.408
3639.377, 8613.562
3641.305, 7864.198
3643.234, 7218.025
3645.162, 6729.284
3647.091, 6361.509
3649.019, 6041.351
3650.948, 5782.926
3652.876, 5593.060
3654.805, 5448.245
3656.733, 5348.432
3658.662, 5252.357
3660.590, 5169.354
3662.519, 5125.218
3664.447, 5109.443
3666.375, 5131.260
3668.304, 5127.170
3670.232, 5056.366
3672.161, 5027.914
3674.089, 5031.829
3676.018, 5020.715
3677.946, 5002.795
3679.875, 4984.820
3681.803, 4970.003
3683.732, 4950.949
3685.660, 4967.901
3687.589, 5011.363
3689.517, 5024.041
3691.446, 5016.434
3693.374, 4997.345
3695.302, 4973.042
3697.231, 4928.285
3699.159, 4937.197
3701.088, 4990.208
3703.016, 4990.429
3704.945, 4968.406
3706.873, 4968.170
3708.802, 4966.680
3710.730, 4950.990
3712.659, 4943.019
3714.587, 4942.180
3716.516, 4926.483
3718.444, 4911.793
3720.373, 4930.638
3722.301, 4945.244
3724.229, 4939.240
3726.158, 4923.154
3728.086, 4900.842
3730.015, 4904.683
3731.943, 4913.427
3733.872, 4892.692
3735.800, 4871.646
3737.729, 4863.253
3739.657, 4851.914
3741.586, 4836.637
3743.514, 4811.023
3745.443, 4790.102
3747.371, 4806.593
3749.300, 4809.805
3751.228, 4770.482
3753.156, 4761.508
3755.085, 4780.961
3757.013, 4809.229
3758.942, 4833.120
3760.870, 4835.170
3762.799, 4832.785
3764.727, 4832.011
3766.656, 4816.928
3768.584, 4791.295
3770.513, 4762.344
3772.441, 4745.474
3774.370, 4760.411
3776.298, 4776.584
3778.227, 4785.394
3780.155, 4818.458
3782.083, 4852.977
3784.012, 4825.593
3785.940, 4784.366
3787.869, 4751.965
3789.797, 4747.430
3791.726, 4776.576
3793.654, 4743.436
3795.583, 4694.873
3797.511, 4717.142
3799.440, 4735.612
3801.368, 4718.238
3803.297, 4690.592
3805.225, 4659.748
3807.154, 4671.514
3809.082, 4689.645
3811.010, 4667.427
3812.939, 4652.903
3814.867, 4660.163
3816.796, 4640.546
3818.724, 4606.265
3820.653, 4605.377
3822.581, 4620.978
3824.510, 4662.606
3826.438, 4659.216
3828.367, 4605.527
3830.295, 4594.251
3832.224, 4596.960
3834.152, 4542.947
3836.081, 4512.232
3838.009, 4563.939
3839.938, 4570.988
3841.866, 4537.854
3843.794, 4524.134
3845.723, 4522.269
3847.651, 4530.152
3849.580, 4524.080
3851.508, 4502.819
3853.437, 4515.690
3855.365, 4539.131
3857.294, 4523.269
3859.222, 4489.556
3861.151, 4436.743
3863.079, 4417.851
3865.008, 4432.053
3866.936, 4470.222
3868.865, 4494.994
3870.793, 4451.411
3872.721, 4418.441
3874.650, 4418.703
3876.578, 4424.648
3878.507, 4425.436
3880.435, 4391.560
3882.364, 4370.579
3884.292, 4388.413
3886.221, 4380.954
3888.149, 4350.622
3890.078, 4364.455
3892.006, 4380.248
3893.935, 4347.621
3895.863, 4335.759
3897.792, 4355.089
3899.720, 4351.746
3901.648, 4336.674
3903.577, 4329.669
3905.505, 4328.486
3907.434, 4337.574
3909.362, 4316.359
3911.291, 4275.416
3913.219, 4254.691
3915.148, 4246.164
3917.076, 4241.924
3919.005, 4256.399
3920.933, 4283.811
3922.862, 4267.150
3924.790, 4233.378
3926.719, 4199.694
3928.647, 4197.013
3930.575, 4241.596
3932.504, 4252.466
3934.432, 4243.366
3936.361, 4221.688
3938.289, 4200.719
3940.218, 4195.155
3942.146, 4181.204
3944.075, 4155.856
3946.003, 4161.521
3947.932, 4172.715
3949.860, 4150.593
3951.789, 4122.346
3953.717, 4106.783
3955.646, 4119.104
3957.574, 4122.426
3959.502, 4090.587
3961.431, 4059.718
3963.359, 4039.693
3965.288, 4040.757
3967.216, 4038.059
3969.145, 4028.329
3971.073, 4030.961
3973.002, 4042.950
3974.930, 4042.409
3976.859, 4040.537
3978.787, 4023.787
3980.716, 3993.171
3982.644, 3974.103
3984.573, 3986.099
3986.501, 4006.893
3988.429, 3975.184
3990.358, 3949.659
3992.286, 3966.715
3994.215, 3963.967
3996.143, 3948.384
3998.072, 3928.114
4000.000, 3911.235
4001.929, 3928.212
4003.857, 3937.357
4005.786, 3929.868
4007.714, 3903.438
4009.643, 3880.285
4011.571, 3901.397
4013.500, 3917.466
4015.428, 3909.962
4017.356, 3925.250
4019.285, 3929.237
4021.213, 3897.062
4023.142, 3870.571
4025.070, 3872.796
4026.999, 3872.932
4028.927, 3853.109
4030.856, 3842.206
4032.784, 3862.862
4034.713, 3868.712
4036.641, 3858.289
4038.570, 3846.884
4040.498, 3831.946
4042.427, 3836.541
4044.355, 3835.147
4046.283, 3811.312
4048.212, 3794.764
4050.140, 3798.831
4052.069, 3817.248
4053.997, 3820.992
4055.926, 3805.188
4057.854, 3800.300
4059.783, 3827.844
4061.711, 3820.985
4063.640, 3770.542
4065.568, 3741.946
4067.497, 3738.185
4069.425, 3746.206
4071.354, 3753.073
4073.282, 3740.997
4075.210, 3744.976
4077.139, 3750.324
4079.067, 3701.752
4080.996, 3699.644
4082.924, 3739.862
4084.853, 3712.918
4086.781, 3686.185
4088.710, 3699.691
4090.638, 3709.635
4092.567, 3702.505
4094.495, 3696.424
4096.424, 3695.573
4098.352, 3688.741
4100.280, 3681.774
4102.209, 3675.181
4104.138, 3658.786
4106.066, 3649.701
4107.994, 3673.259
4109.923, 3662.153
4111.852, 3614.000
4113.780, 3625.152
4115.708, 3649.555
4117.637, 3644.726
4119.565, 3641.147
4121.494, 3643.290
4123.422, 3647.521
4125.351, 3644.726
4127.279, 3612.725
4129.208, 3602.662
4131.136, 3621.945
4133.064, 3634.410
4134.993, 3634.664
4136.921, 3610.314
4138.850, 3597.560
4140.778, 3594.927
4142.707, 3591.497
4144.635, 3594.301
4146.563, 3604.646
4148.492, 3607.585
4150.421, 3600.710
4152.349, 3564.837
4154.277, 3531.565
4156.206, 3546.628
4158.135, 3547.583
4160.063, 3524.522
4161.991, 3517.423
4163.920, 3518.266
4165.849, 3517.466
4167.777, 3507.907
4169.705, 3494.744
4171.634, 3489.835
4173.563, 3486.819
4175.491, 3480.986
4177.419, 3467.296
4179.348, 3450.788
4181.276, 3450.517
4183.205, 3444.210
4185.133, 3414.833
4187.062, 3413.700
4188.990, 3456.636
4190.918, 3457.954
4192.847, 3436.349
4194.775, 3417.246
4196.704, 3400.403
4198.632, 3386.915
4200.561, 3385.959
4202.489, 3382.809
4204.418, 3347.474
4206.346, 3331.703
4208.274, 3344.444
4210.203, 3370.430
4212.132, 3392.517
4214.060, 3393.903
4215.988, 3393.609
4217.917, 3391.725
4219.846, 3349.973
4221.774, 3314.603
4223.702, 3335.045
4225.631, 3345.317
4227.560, 3344.600
4229.488, 3346.125
4231.416, 3338.804
4233.345, 3309.162
4235.273, 3297.385
4237.202, 3300.914
4239.130, 3300.975
4241.059, 3305.463
4242.987, 3329.294
4244.916, 3329.615
4246.844, 3310.917
4248.772, 3294.259
4250.701, 3289.848
4252.629, 3309.487
4254.558, 3317.349
4256.486, 3318.292
4258.415, 3328.844
4260.343, 3322.153
4262.271, 3283.235
4264.200, 3265.380
4266.129, 3271.925
4268.057, 3328.981
4269.985, 3354.932
4271.914, 3332.741
4273.843, 3314.124
4275.771, 3295.134
4277.699, 3260.950
4279.628, 3261.408
4281.557, 3293.327
4283.485, 3292.741
4285.413, 3288.206
4287.342, 3301.984
4289.271, 3309.091
4291.199, 3313.423
4293.127, 3343.711
4295.056, 3350.133
4296.984, 3292.624
4298.913, 3298.431
4300.841, 3331.713
4302.770, 3327.814
4304.698, 3318.501
4306.626, 3310.646
4308.555, 3313.664
4310.483, 3316.904
4312.412, 3307.420
4314.340, 3299.711
4316.269, 3296.420
4318.197, 3302.654
4320.126, 3316.408
4322.054, 3341.524
4323.982, 3343.849
4325.911, 3328.667
4327.840, 3302.344
4329.768, 3298.726
4331.696, 3329.863
4333.625, 3324.976
4335.554, 3311.369
4337.482, 3330.813
4339.410, 3335.971
4341.339, 3322.855
4343.268, 3320.517
4345.196, 3320.685
4347.124, 3315.426
4349.053, 3332.339
4350.981, 3354.191
4352.910, 3311.383
4354.838, 3297.004
4356.767, 3342.969
4358.695, 3355.454
4360.624, 3351.561
4362.552, 3362.825
4364.480, 3351.983
4366.409, 3320.588
4368.337, 3323.438
4370.266, 3334.733
4372.194, 3335.393
4374.123, 3345.985
4376.051, 3358.731
4377.979, 3356.768
4379.908, 3337.340
4381.837, 3293.852
4383.765, 3333.313
4385.693, 3378.264
4387.622, 3338.209
4389.551, 3335.817
4391.479, 3368.804
4393.407, 3361.589
4395.336, 3343.606
4397.265, 3326.023
4399.193, 3314.031
4401.121, 3318.447
4403.050, 3373.879
4404.979, 3386.166
4406.907, 3354.978
4408.835, 3374.445
4410.764, 3392.584
4412.692, 3375.171
4414.621, 3358.776
4416.549, 3348.776
4418.478, 3351.105
4420.406, 3358.060
4422.334, 3367.611
4424.263, 3378.257
4426.191, 3379.809
4428.120, 3358.421
4430.048, 3344.235
4431.977, 3339.837
4433.905, 3352.950
4435.834, 3359.212
4437.762, 3352.524
4439.690, 3358.991
4441.619, 3368.877
4443.548, 3375.248
4445.476, 3373.582
4447.404, 3368.017
4449.333, 3365.867
4451.262, 3378.987
4453.190, 3408.615
4455.118, 3381.866
4457.047, 3352.872
4458.976, 3386.068
4460.904, 3390.110
4462.832, 3372.380
4464.761, 3368.625
4466.689, 3372.744
4468.618, 3383.478
4470.546, 3390.846
4472.475, 3393.117
4474.403, 3387.757
4476.332, 3384.634
4478.260, 3381.770
4480.188, 3374.107
4482.117, 3353.133
4484.045, 3323.273
4485.974, 3364.375
4487.902, 3408.593
4489.831, 3396.643
4491.759, 3391.548
4493.688, 3389.170
4495.616, 3371.607
4497.545, 3363.380
4499.473, 3368.955
4501.401, 3390.223
4503.330, 3405.971
4505.259, 3404.749
4507.187, 3407.391
4509.115, 3414.620
4511.044, 3431.919
4512.973, 3433.389
4514.901, 3416.720
4516.829, 3373.930
4518.758, 3360.366
4520.687, 3409.158
4522.615, 3411.006
4524.543, 3397.574
4526.472, 3398.298
4528.400, 3387.619
4530.329, 3375.320
4532.257, 3393.856
4534.186, 3417.972
4536.114, 3437.177
4538.042, 3409.442
4539.971, 3387.976
4541.899, 3415.992
4543.828, 3419.632
4545.756, 3406.844
4547.685, 3380.563
4549.613, 3383.533
4551.542, 3407.793
4553.470, 3390.806
4555.398, 3401.174
4557.327, 3452.874
4559.256, 3433.304
4561.184, 3407.851
4563.112, 3435.600
4565.041, 3443.762
4566.970, 3439.747
4568.898, 3443.762
4570.826, 3438.790
4572.755, 3424.371
4574.684, 3403.641
4576.612, 3400.470
4578.540, 3420.882
4580.469, 3427.079
4582.397, 3424.361
4584.326, 3413.739
4586.254, 3416.485
4588.183, 3430.282
4590.111, 3459.676
4592.040, 3463.912
4593.968, 3445.107
4595.896, 3437.657
4597.825, 3434.706
4599.753, 3433.577
4601.682, 3427.257
4603.610, 3425.854
4605.539, 3439.968
4607.467, 3446.756
4609.396, 3447.052
4611.324, 3437.975
4613.253, 3444.770
4615.181, 3462.465
4617.109, 3469.823
4619.038, 3468.049
4620.967, 3459.170
4622.895, 3444.828
4624.823, 3446.368
4626.752, 3485.347
4628.681, 3489.609
4630.609, 3471.284
4632.537, 3433.341
4634.466, 3437.053
4636.395, 3457.200
4638.323, 3432.843
4640.251, 3434.669
4642.180, 3460.690
4644.108, 3457.290
4646.037, 3456.008
4647.965, 3466.534
4649.894, 3436.059
4651.822, 3412.483
4653.750, 3420.532
4655.679, 3433.803
4657.607, 3442.115
4659.536, 3428.394
4661.464, 3446.670
4663.393, 3477.867
4665.321, 3483.986
4667.250, 3481.004
4669.178, 3470.248
4671.106, 3438.644
4673.035, 3416.631
4674.964, 3414.109
4676.892, 3448.098
4678.820, 3480.936
4680.749, 3495.855
4682.678, 3469.971
4684.606, 3454.592
4686.534, 3490.280
4688.463, 3480.758
4690.392, 3457.414
4692.320, 3471.483
4694.248, 3476.106
4696.177, 3470.476
4698.105, 3455.599
4700.034, 3465.789
4701.962, 3489.519
4703.891, 3452.526
4705.819, 3428.937
4707.748, 3440.630
4709.676, 3493.279
4711.604, 3526.129
4713.533, 3512.586
4715.461, 3464.316
4717.390, 3436.958
4719.318, 3467.360
4721.247, 3485.264
4723.175, 3492.357
4725.104, 3495.733
4727.032, 3483.067
4728.961, 3462.084
4730.889, 3438.827
4732.817, 3446.321
4734.746, 3468.526
4736.675, 3457.580
4738.603, 3462.135
4740.531, 3479.132
4742.460, 3446.596
4744.389, 3437.176
4746.317, 3460.690
4748.245, 3478.443
4750.174, 3469.158
4752.103, 3424.369
4754.031, 3444.451
4755.959, 3476.803
4757.888, 3495.213
4759.816, 3505.672
4761.745, 3501.782
4763.673, 3469.453
4765.602, 3471.738
4767.530, 3482.148
4769.458, 3473.302
4771.387, 3463.194
4773.315, 3460.765
4775.244, 3479.733
4777.172, 3488.787
4779.101, 3495.813
4781.029, 3529.495
4782.958, 3525.888
4784.886, 3494.056
4786.814, 3463.886
4788.743, 3465.482
4790.672, 3489.607
4792.600, 3485.754
4794.528, 3477.339
4796.457, 3474.323
4798.386, 3511.893
4800.314, 3522.210
4802.242, 3492.949
4804.171, 3500.986
4806.100, 3494.624
4808.028, 3460.601
4809.956, 3467.828
4811.885, 3461.083
4813.813, 3415.302
4815.742, 3460.210
4817.670, 3502.851
4819.599, 3495.233
4821.527, 3490.504
4823.456, 3486.263
4825.384, 3476.747
4827.313, 3506.844
4829.241, 3530.610
4831.169, 3513.404
4833.098, 3507.836
4835.026, 3505.613
4836.955, 3500.957
4838.883, 3463.940
4840.812, 3435.813
4842.740, 3458.930
4844.669, 3467.461
4846.597, 3470.866
4848.525, 3491.110
4850.454, 3486.245
4852.383, 3468.413
4854.311, 3452.581
4856.239, 3439.597
4858.168, 3437.718
4860.097, 3459.439
4862.025, 3495.291
4863.953, 3519.260
4865.882, 3493.479
4867.811, 3464.425
4869.739, 3441.195
4871.667, 3420.155
4873.596, 3451.225
4875.524, 3489.541
4877.453, 3452.471
4879.381, 3425.673
4881.310, 3424.859
4883.238, 3470.859
4885.167, 3499.200
4887.095, 3502.232
4889.023, 3468.759
4890.952, 3439.402
4892.880, 3431.294
4894.809, 3479.542
4896.737, 3481.795
4898.666, 3455.042
4900.594, 3434.577
4902.522, 3452.377
4904.451, 3472.472
4906.380, 3421.424
4908.308, 3432.172
4910.236, 3468.009
4912.165, 3448.720
4914.094, 3423.225
4916.022, 3421.599
4917.950, 3493.386
4919.879, 3502.458
4921.808, 3469.816
4923.736, 3435.553
4925.664, 3428.246
4927.593, 3428.248
4929.521, 3406.298
4931.450, 3401.376
4933.378, 3410.904
4935.307, 3433.328
4937.235, 3419.897
4939.164, 3401.366
4941.092, 3416.241
4943.021, 3417.014
4944.949, 3415.562
4946.877, 3424.783
4948.806, 3419.239
4950.734, 3417.268
4952.663, 3439.883
4954.591, 3450.642
4956.520, 3448.743
4958.448, 3433.999
4960.377, 3426.166
4962.305, 3426.273
4964.233, 3434.389
4966.162, 3422.572
4968.091, 3420.608
4970.019, 3443.344
4971.947, 3430.946
4973.876, 3416.890
4975.805, 3413.747
4977.733, 3408.148
4979.661, 3413.534
4981.590, 3429.049
4983.519, 3393.438
4985.447, 3398.688
4987.375, 3444.491
4989.304, 3420.421
4991.232, 3393.243
4993.161, 3385.767
4995.089, 3445.228
4997.018, 3426.529
4998.946, 3360.360
5000.875, 3374.322
5002.803, 3387.736
5004.731, 3393.974
5006.660, 3407.463
5008.588, 3391.991
5010.517, 3378.980
5012.445, 3419.606
5014.374, 3399.029
5016.302, 3364.899
5018.230, 3368.081
5020.159, 3384.189
5022.088, 3397.533
5024.016, 3396.517
5025.944, 3401.943
5027.873, 3415.425
5029.802, 3431.930
5031.730, 3376.635
5033.658, 3330.961
5035.587, 3324.663
5037.516, 3346.424
5039.444, 3370.563
5041.372, 3383.157
5043.301, 3352.924
5045.229, 3331.989
5047.158, 3330.603
5049.086, 3354.022
5051.015, 3374.843
5052.943, 3378.922
5054.872, 3336.965
5056.800, 3341.842
5058.729, 3366.087
5060.657, 3378.201
5062.585, 3347.605
5064.514, 3319.124
5066.442, 3324.287
5068.371, 3353.617
5070.299, 3367.154
5072.228, 3351.559
5074.156, 3356.177
5076.085, 3355.986
5078.013, 3349.550
5079.941, 3366.397
5081.870, 3349.559
5083.799, 3319.502
5085.727, 3362.104
5087.655, 3341.743
5089.584, 3300.409
5091.513, 3311.468
5093.441, 3354.374
5095.369, 3375.574
5097.298, 3323.566
5099.227, 3323.709
5101.155, 3326.652
5103.083, 3309.200
5105.012, 3286.780
5106.940, 3289.227
5108.869, 3314.548
5110.797, 3331.299
5112.726, 3311.234
5114.654, 3275.670
5116.583, 3277.014
5118.511, 3302.199
5120.439, 3324.488
5122.368, 3316.089
5124.296, 3306.744
5126.225, 3288.508
5128.153, 3252.222
5130.082, 3295.829
5132.010, 3318.210
5133.938, 3290.931
5135.867, 3294.510
5137.796, 3294.037
5139.724, 3284.178
5141.652, 3267.712
5143.581, 3260.260
5145.510, 3259.913
5147.438, 3264.181
5149.366, 3259.999
5151.295, 3259.293
5153.224, 3268.105
5155.152, 3240.712
5157.080, 3225.510
5159.009, 3238.074
5160.938, 3260.281
5162.866, 3270.135
5164.794, 3271.525
5166.723, 3285.802
5168.651, 3283.514
5170.580, 3256.942
5172.508, 3198.914
5174.437, 3226.940
5176.365, 3257.136
5178.293, 3240.740
5180.222, 3254.278
5182.150, 3250.841
5184.079, 3224.394
5186.007, 3187.015
5187.936, 3224.494
5189.864, 3278.299
5191.793, 3245.970
5193.721, 3234.594
5195.649, 3234.754
5197.578, 3236.468
5199.507, 3219.549
5201.435, 3217.128
5203.363, 3226.483
5205.292, 3186.930
5207.221, 3167.359
5209.149, 3169.857
5211.077, 3181.645
5213.006, 3209.055
5214.935, 3221.098
5216.863, 3196.733
5218.791, 3222.207
5220.720, 3231.032
5222.648, 3207.779
5224.577, 3175.226
5226.505, 3163.104
5228.434, 3167.345
5230.362, 3183.065
5232.291, 3156.679
5234.219, 3149.066
5236.147, 3195.052
5238.076, 3198.102
5240.004, 3185.968
5241.933, 3173.490
5243.861, 3174.322
5245.790, 3183.641
5247.718, 3185.728
5249.646, 3157.640
5251.575, 3144.576
5253.504, 3150.484
5255.432, 3171.431
5257.360, 3178.033
5259.289, 3160.971
5261.218, 3131.610
5263.146, 3104.779
5265.074, 3142.135
5267.003, 3185.795
5268.932, 3184.819
5270.860, 3153.208
5272.788, 3136.039
5274.717, 3138.756
5276.646, 3118.559
5278.574, 3118.764
5280.502, 3124.847
5282.431, 3109.387
5284.359, 3100.425
5286.288, 3095.048
5288.216, 3092.403
5290.145, 3104.911
5292.073, 3116.031
5294.001, 3121.791
5295.930, 3124.842
5297.858, 3085.363
5299.787, 3058.176
5301.715, 3081.423
5303.644, 3096.462
5305.572, 3078.569
5307.501, 3049.304
5309.429, 3080.099
5311.357, 3098.968
5313.286, 3096.555
5315.215, 3075.367
5317.143, 3079.052
5319.071, 3091.023
5321.000, 3094.124
5322.929, 3041.482
5324.857, 3041.675
5326.785, 3061.393
5328.714, 3056.517
5330.643, 3046.289
5332.571, 3041.793
5334.499, 3044.497
5336.428, 3055.501
5338.356, 3016.631
5340.285, 2991.680
5342.213, 3064.547
5344.142, 3073.904
5346.070, 3053.516
5347.999, 3024.958
5349.927, 3012.529
5351.855, 3003.387
5353.784, 2999.890
5355.712, 3006.196
5357.641, 3024.424
5359.569, 3022.830
5361.498, 3004.468
5363.426, 3029.563
5365.354, 3016.611
5367.283, 2978.061
5369.212, 2935.686
5371.140, 2952.310
5373.068, 2985.293
5374.997, 3009.207
5376.926, 2997.895
5378.854, 2975.785
5380.782, 2965.800
5382.711, 2983.438
5384.640, 2980.122
5386.568, 2964.111
5388.496, 2955.342
5390.425, 2994.403
5392.354, 2978.972
5394.282, 2959.262
5396.210, 2964.592
5398.139, 2934.670
5400.067, 2925.650
5401.996, 2933.294
5403.924, 2931.206
5405.853, 2954.622
5407.781, 2946.714
5409.709, 2903.236
5411.638, 2930.674
5413.566, 2935.152
5415.495, 2916.956
5417.423, 2892.998
5419.352, 2882.853
5421.280, 2906.104
5423.209, 2940.445
5425.137, 2910.366
5427.065, 2898.887
5428.994, 2904.155
5430.923, 2917.128
5432.851, 2890.954
5434.779, 2892.570
5436.708, 2903.492
5438.637, 2880.756
5440.565, 2856.756
5442.493, 2866.529
5444.422, 2901.107
5446.351, 2887.467
5448.279, 2879.400
5450.207, 2882.562
5452.136, 2895.403
5454.064, 2862.219
5455.993, 2858.535
5457.921, 2867.320
5459.850, 2835.084
5461.778, 2808.606
5463.707, 2805.057
5465.635, 2819.085
5467.563, 2812.013
5469.492, 2825.490
5471.420, 2847.012
5473.349, 2862.993
5475.277, 2839.017
5477.206, 2822.090
5479.134, 2820.151
5481.063, 2829.330
5482.991, 2805.314
5484.920, 2783.582
5486.848, 2780.232
5488.776, 2799.731
5490.705, 2812.098
5492.634, 2822.216
5494.562, 2831.625
5496.490, 2806.732
5498.419, 2791.979
5500.348, 2791.370
5502.276, 2800.734
5504.204, 2805.809
5506.133, 2802.451
5508.062, 2793.382
5509.990, 2784.930
5511.918, 2781.471
5513.847, 2781.977
5515.775, 2783.104
5517.704, 2785.032
5519.632, 2727.182
5521.561, 2693.029
5523.489, 2733.325
5525.417, 2737.309
5527.346, 2749.643
5529.274, 2764.447
5531.203, 2766.464
5533.131, 2734.733
5535.060, 2720.100
5536.988, 2717.634
5538.917, 2699.086
5540.845, 2688.769
5542.773, 2690.977
5544.702, 2697.857
5546.631, 2685.767
5548.559, 2684.297
5550.487, 2675.025
5552.416, 2653.714
5554.345, 2645.218
5556.273, 2674.950
5558.201, 2703.167
5560.130, 2701.435
5562.059, 2690.378
5563.987, 2683.943
5565.915, 2677.828
5567.844, 2666.615
5569.772, 2663.647
5571.701, 2665.872
5573.629, 2659.313
5575.558, 2627.243
5577.486, 2607.595
5579.415, 2620.317
5581.343, 2639.476
5583.271, 2604.589
5585.200, 2598.662
5587.128, 2607.900
5589.057, 2619.046
5590.985, 2618.093
5592.914, 2635.302
5594.842, 2628.201
5596.771, 2592.608
5598.699, 2569.098
5600.628, 2577.915
5602.556, 2593.075
5604.484, 2596.207
5606.413, 2567.785
5608.342, 2572.093
5610.270, 2572.979
5612.198, 2554.778
5614.127, 2588.289
5616.056, 2567.261
5617.984, 2537.538
5619.912, 2538.596
5621.841, 2544.241
5623.770, 2552.154
5625.698, 2548.308
5627.626, 2526.247
5629.555, 2500.241
5631.483, 2522.897
5633.412, 2542.909
5635.340, 2518.448
5637.269, 2514.307
5639.197, 2529.078
5641.125, 2534.078
5643.054, 2507.209
5644.982, 2467.211
5646.911, 2476.085
5648.839, 2494.902
5650.768, 2480.346
5652.696, 2477.355
5654.625, 2482.248
5656.553, 2477.584
5658.481, 2453.817
5660.410, 2449.169
5662.339, 2475.091
5664.267, 2492.159
5666.195, 2471.236
5668.124, 2475.406
5670.053, 2478.192
5671.981, 2474.417
5673.909, 2464.177
5675.838, 2431.440
5677.767, 2418.720
5679.695, 2423.206
5681.623, 2435.602
5683.552, 2463.633
5685.480, 2444.225
5687.409, 2431.390
5689.337, 2458.632
5691.266, 2440.725
5693.194, 2407.605
5695.123, 2389.348
5697.051, 2398.485
5698.979, 2427.474
5700.908, 2407.523
5702.836, 2384.098
5704.765, 2380.844
5706.693, 2355.763
5708.622, 2382.064
5710.550, 2416.407
5712.479, 2424.852
5714.407, 2370.810
5716.336, 2356.394
5718.264, 2367.075
5720.192, 2380.166
5722.121, 2368.635
5724.050, 2352.388
5725.978, 2334.401
5727.906, 2327.744
5729.835, 2350.780
5731.764, 2350.964
5733.692, 2355.263
5735.620, 2361.406
5737.549, 2356.691
5739.478, 2355.220
5741.406, 2339.475
5743.334, 2312.596
5745.263, 2284.782
5747.191, 2296.953
5749.120, 2309.045
5751.048, 2302.183
5752.977, 2273.950
5754.905, 2240.960
5756.833, 2287.431
5758.762, 2317.971
5760.690, 2297.373
5762.619, 2288.756
5764.547, 2269.661
5766.476, 2256.789
5768.404, 2263.066
5770.333, 2297.476
5772.261, 2269.063
5774.189, 2258.771
5776.118, 2261.383
5778.047, 2243.782
5779.975, 2239.692
5781.903, 2223.619
5783.832, 2219.463
5785.761, 2243.995
5787.689, 2268.030
5789.617, 2258.824
5791.546, 2237.966
5793.475, 2223.726
5795.403, 2235.302
5797.331, 2194.318
5799.260, 2182.286
5801.188, 2206.575
5803.117, 2226.146
5805.045, 2229.610
5806.974, 2221.555
5808.902, 2216.892
5810.831, 2224.811
5812.759, 2195.803
5814.688, 2201.253
5816.616, 2192.798
5818.544, 2157.683
5820.473, 2168.817
5822.401, 2163.674
5824.330, 2159.243
5826.258, 2157.439
5828.187, 2148.533
5830.115, 2163.857
5832.044, 2159.339
5833.972, 2151.658
5835.900, 2157.462
5837.829, 2131.187
5839.758, 2126.616
5841.686, 2131.551
5843.614, 2137.045
5845.543, 2151.687
5847.472, 2123.624
5849.400, 2116.371
5851.328, 2124.026
5853.257, 2114.885
5855.186, 2123.904
5857.114, 2109.308
5859.042, 2100.143
5860.971, 2114.259
5862.899, 2144.993
5864.828, 2109.003
5866.756, 2070.859
5868.685, 2063.667
5870.613, 2094.472
5872.542, 2077.089
5874.470, 2090.909
5876.398, 2094.990
5878.327, 2065.204
5880.255, 2063.518
5882.184, 2058.639
5884.112, 2045.072
5886.041, 2040.917
5887.969, 2065.087
5889.897, 2027.520
5891.826, 2045.000
5893.755, 2047.250
5895.683, 2006.814
5897.611, 2046.398
5899.540, 2044.012
5901.469, 2040.543
5903.397, 2046.572
5905.325, 2049.687
5907.254, 2037.474
5909.183, 2037.291
5911.111, 2027.722
5913.039, 2005.546
5914.968, 2007.391
5916.896, 2009.889
5918.825, 1982.117
5920.753, 1965.524
5922.682, 2000.310
5924.610, 2005.216
5926.539, 1995.149
5928.467, 1993.349
5930.396, 1993.537
5932.324, 1954.092
5934.252, 2000.240
5936.181, 1980.902
5938.109, 1958.827
5940.038, 1982.698
5941.966, 1961.988
5943.895, 1955.205
5945.823, 1964.372
5947.752, 1968.957
5949.680, 1947.908
5951.608, 1916.175
5953.537, 1969.969
5955.466, 1984.048
5957.394, 1936.542
5959.322, 1908.294
5961.251, 1930.522
5963.180, 1940.872
5965.108, 1930.306
5967.036, 1910.648
5968.965, 1903.976
5970.894, 1903.682
5972.822, 1892.173
5974.750, 1900.641
5976.679, 1940.299
5978.607, 1904.034
5980.536, 1887.980
5982.464, 1879.435
5984.393, 1872.621
5986.321, 1873.570
5988.250, 1891.340
5990.178, 1899.599
5992.106, 1868.537
5994.035, 1840.264
5995.963, 1892.175
5997.892, 1906.880
5999.820, 1880.562
6001.749, 1853.704
6003.677, 1844.770
6005.605, 1839.151
6007.534, 1836.503
6009.463, 1827.213
6011.391, 1831.243
6013.319, 1847.740
6015.248, 1831.746
6017.177, 1820.028
6019.105, 1805.131
6021.033, 1800.719
6022.962, 1814.471
6024.891, 1828.532
6026.819, 1831.761
6028.747, 1816.406
6030.676, 1792.146
6032.604, 1777.850
6034.533, 1822.148
6036.461, 1799.167
6038.390, 1801.617
6040.318, 1807.987
6042.247, 1779.143
6044.175, 1798.607
6046.104, 1782.197
6048.032, 1783.930
6049.960, 1789.237
6051.889, 1771.148
6053.817, 1781.978
6055.746, 1790.769
6057.674, 1765.754
6059.603, 1736.160
6061.531, 1736.880
6063.460, 1756.036
6065.388, 1726.738
6067.316, 1743.471
6069.245, 1773.223
6071.174, 1758.786
6073.102, 1732.962
6075.030, 1743.611
6076.959, 1735.477
6078.888, 1718.077
6080.816, 1718.870
6082.744, 1753.589
6084.673, 1722.296
6086.602, 1713.936
6088.530, 1719.687
6090.458, 1711.037
6092.387, 1694.621
6094.315, 1679.840
6096.244, 1719.667
6098.172, 1738.495
6100.101, 1706.100
6102.029, 1705.109
6103.958, 1694.180
6105.886, 1692.522
6107.814, 1677.410
6109.743, 1651.945
6111.671, 1652.167
6113.600, 1690.522
6115.528, 1657.125
6117.457, 1640.955
6119.385, 1664.759
6121.313, 1681.307
6123.242, 1673.145
6125.171, 1675.189
6127.099, 1652.096
6129.027, 1623.873
6130.956, 1623.973
6132.885, 1636.193
6134.813, 1639.507
6136.741, 1655.932
6138.670, 1649.105
6140.599, 1613.404
6142.527, 1623.997
6144.455, 1643.157
6146.384, 1621.874
6148.313, 1609.837
6150.241, 1616.566
6152.169, 1601.989
6154.098, 1605.177
6156.026, 1575.486
6157.955, 1586.009
6159.883, 1599.978
6161.812, 1567.091
6163.740, 1610.379
6165.668, 1604.325
6167.597, 1598.273
6169.525, 1585.737
6171.454, 1563.469
6173.382, 1565.961
6175.311, 1585.579
6177.239, 1575.469
6179.168, 1559.499
6181.096, 1561.956
6183.024, 1579.635
6184.953, 1541.052
6186.882, 1521.170
6188.810, 1529.042
6190.738, 1539.896
6192.667, 1543.191
6194.596, 1562.249
6196.524, 1544.849
6198.452, 1549.992
6200.381, 1542.646
6202.310, 1517.707
6204.238, 1500.669
6206.166, 1496.965
6208.095, 1511.321
6210.023, 1530.389
6211.952, 1518.672
6213.880, 1479.021
6215.809, 1468.041
6217.737, 1521.247
6219.666, 1487.981
6221.594, 1490.178
6223.522, 1508.564
6225.451, 1472.529
6227.379, 1485.922
6229.308, 1489.561
6231.236, 1494.507
6233.165, 1502.050
6235.093, 1498.272
6237.021, 1468.548
6238.950, 1488.692
6240.879, 1467.361
6242.807, 1443.731
6244.735, 1442.480
6246.664, 1453.832
6248.593, 1444.543
6250.521, 1453.737
6252.449, 1436.588
6254.378, 1446.164
6256.307, 1460.018
6258.235, 1445.071
6260.163, 1432.757
6262.092, 1433.733
6264.021, 1454.771
6265.949, 1451.707
6267.877, 1431.108
6269.806, 1422.738
6271.734, 1419.556
6273.663, 1426.010
6275.591, 1416.050
6277.520, 1423.590
6279.448, 1431.249
6281.376, 1401.467
6283.305, 1393.242
6285.233, 1394.515
6287.162, 1370.686
6289.090, 1363.527
6291.019, 1372.632
6292.947, 1364.608
6294.876, 1387.365
6296.804, 1391.016
6298.732, 1374.434
6300.661, 1376.435
6302.590, 1386.745
6304.518, 1365.849
6306.446, 1366.953
6308.375, 1352.844
6310.304, 1358.389
6312.232, 1373.189
6314.160, 1378.102
6316.089, 1367.889
6318.018, 1361.258
6319.946, 1359.006
6321.874, 1352.186
6323.803, 1350.536
6325.731, 1360.763
6327.660, 1371.692
6329.588, 1345.430
6331.517, 1345.351
6333.445, 1320.804
6335.374, 1300.511
6337.302, 1314.168
6339.230, 1344.754
6341.159, 1308.362
6343.087, 1297.308
6345.016, 1316.178
6346.944, 1321.748
6348.873, 1310.723
6350.801, 1301.733
6352.729, 1309.555
6354.658, 1309.642
6356.587, 1321.148
6358.515, 1313.518
6360.443, 1289.031
6362.372, 1265.644
6364.301, 1260.705
6366.229, 1320.259
6368.157, 1333.417
6370.086, 1322.152
6372.015, 1288.727
6373.943, 1270.904
6375.871, 1295.097
6377.800, 1299.873
6379.729, 1320.295
6381.657, 1287.803
6383.585, 1277.869
6385.514, 1276.160
6387.442, 1262.466
6389.371, 1273.507
6391.299, 1274.186
6393.228, 1303.539
6395.156, 1280.285
6397.084, 1250.976
6399.013, 1242.513
6400.941, 1242.383
6402.870, 1274.738
6404.798, 1260.395
6406.727, 1271.182
6408.655, 1275.481
6410.584, 1267.433
6412.512, 1254.479
6414.440, 1240.906
6416.369, 1270.405
6418.298, 1270.373
6420.226, 1245.904
6422.154, 1241.492
6424.083, 1240.868
6426.012, 1223.736
6427.940, 1226.003
6429.868, 1205.332
6431.797, 1212.282
6433.726, 1209.173
6435.654, 1199.825
6437.582, 1203.392
6439.511, 1221.577
6441.439, 1220.379
6443.368, 1177.209
6445.296, 1209.569
6447.225, 1204.105
6449.153, 1179.541
6451.082, 1188.752
6453.010, 1222.577
6454.938, 1206.799
6456.867, 1190.054
6458.795, 1203.473
6460.724, 1199.245
6462.652, 1184.047
6464.581, 1174.237
6466.509, 1168.053
6468.438, 1166.252
6470.366, 1164.739
6472.295, 1151.682
6474.223, 1146.126
6476.151, 1168.575
6478.080, 1192.470
6480.009, 1177.322
6481.937, 1159.657
6483.865, 1158.737
6485.794, 1142.901
6487.723, 1124.787
6489.651, 1134.224
6491.579, 1146.210
6493.508, 1129.320
6495.437, 1140.917
6497.365, 1145.650
6499.293, 1131.420
6501.222, 1144.470
6503.150, 1143.612
6505.079, 1129.026
6507.007, 1128.999
6508.936, 1131.173
6510.864, 1109.012
6512.792, 1100.048
6514.721, 1111.994
6516.649, 1132.816
6518.578, 1102.609
6520.506, 1053.004
6522.435, 1085.560
6524.363, 1071.006
6526.292, 1077.732
6528.220, 1082.827
6530.148, 1062.606
6532.077, 1070.853
6534.006, 1096.926
6535.934, 1088.285
6537.862, 1064.352
6539.791, 1064.333
6541.720, 1082.867
6543.648, 1061.526
6545.576, 1063.543
6547.505, 1074.172
##END=



