##NAMES=Burbankite
##RRUFFID=R120073
##IDEAL CHEMISTRY=(Na,Ca)_3_(Sr,Ba,Ce)_3_(CO_3_)_5_
##LOCALITY=Mont Saint-Hilaire, Rouville RCM, Montérégie, Québec, Canada
##OWNER=RRUFF
##SOURCE=Donald Doell
##DESCRIPTION=Prismatic yellow-orange crystals embedded in microcline. Color is dependent upon light source.
##STATUS=The identification of this mineral is confirmed by single-crystal X-ray diffraction and chemical analysis
##URL=https://www.rruff.net/odr/rruff_sample/R120073
##MEASURED CHEMISTRY=(Na_2.99_K_0.04_)(Sr_0.54_Ca_0.48_Ba_0.18_Ce_0.73_La_0.42_Nd_0.17_Pr_0.07_)(CO_3_)_5_
##DIFFRACTION SAMPLE DESCRIPTION=Single crystal, powder profile is calculated
##CELL PARAMETERS=a: 10.532 b: 10.532 c: 6.4381 alpha: 90 beta: 90 gamma: 120 volume: 618.46 crystal system: hexagonal
##FILETYPE=Raman Processed
##RAMAN WAVELENGTH=780

94.74634, 7361.875
96.67480, 7505.983
98.60327, 7628.779
100.5317, 7798.651
102.4602, 7929.710
104.3887, 8048.414
106.3171, 8121.462
108.2456, 8077.696
110.1741, 8029.547
112.1025, 8073.652
114.0310, 8207.060
115.9595, 8319.646
117.8879, 8397.259
119.8164, 8473.132
121.7449, 8522.452
123.6733, 8595.545
125.6018, 8770.968
127.5303, 9041.968
129.4587, 9185.248
131.3872, 9147.303
133.3157, 9137.156
135.2441, 9239.933
137.1726, 9387.108
139.1011, 9537.682
141.0295, 9691.450
142.9580, 9837.931
144.8865, 9964.955
146.8149, 10129.54
148.7434, 10377.67
150.6719, 10642.14
152.6003, 10873.25
154.5288, 11085.19
156.4573, 11333.19
158.3857, 11618.35
160.3142, 11927.69
162.2427, 12251.33
164.1711, 12607.54
166.0996, 13019.54
168.0281, 13469.89
169.9565, 13903.12
171.8850, 14313.62
173.8135, 14788.18
175.7419, 15391.83
177.6704, 16012.73
179.5989, 16578.87
181.5273, 17163.81
183.4558, 17890.06
185.3843, 18743.39
187.3127, 19598.63
189.2412, 20382.13
191.1697, 21260.24
193.0981, 22251.73
195.0266, 23364.66
196.9551, 24651.83
198.8835, 26070.11
200.8120, 27494.14
202.7405, 28890.33
204.6689, 30352.49
206.5974, 31884.25
208.5259, 33484.32
210.4543, 35178.39
212.3828, 36937.34
214.3113, 38708.55
216.2397, 40482.42
218.1682, 42293.73
220.0967, 44179.32
222.0251, 46057.80
223.9536, 47897.25
225.8821, 49721.05
227.8105, 51559.38
229.7390, 53408.59
231.6675, 55228.39
233.5959, 56960.82
235.5244, 58749.07
237.4529, 60634.11
239.3813, 62543.34
241.3098, 64444.52
243.2383, 66334.69
245.1667, 68212.06
247.0952, 70070.54
249.0237, 71926.56
250.9521, 73703.85
252.8806, 75600.35
254.8091, 77707.04
256.7375, 79951.41
258.6660, 82242.41
260.5945, 84587.90
262.5229, 87136.52
264.4514, 89922.31
266.3799, 92834.22
268.3083, 96025.00
270.2368, 99099.17
272.1653, 101928.1
274.0938, 104484.9
276.0222, 106700.4
277.9507, 108561.0
279.8792, 110154.5
281.8076, 111453.1
283.7361, 112612.4
285.6646, 113744.2
287.5930, 114651.7
289.5215, 115159.1
291.4500, 115368.2
293.3784, 115550.6
295.3069, 115720.3
297.2354, 115615.4
299.1638, 115215.4
301.0923, 114546.1
303.0208, 113414.7
304.9492, 112212.5
306.8777, 111143.5
308.8062, 110221.8
310.7346, 109472.5
312.6631, 108873.8
314.5916, 108572.1
316.5200, 108560.2
318.4485, 108920.7
320.3770, 109694.3
322.3054, 110791.4
324.2339, 112217.1
326.1624, 113919.1
328.0908, 115752.0
330.0193, 117725.0
331.9477, 119543.2
333.8762, 121024.2
335.8047, 122600.5
337.7331, 124623.0
339.6616, 126588.0
341.5901, 128074.4
343.5185, 129155.8
345.4470, 130137.1
347.3755, 131026.6
349.3039, 131493.9
351.2324, 131455.5
353.1609, 130990.8
355.0893, 130048.8
357.0178, 128779.6
358.9463, 127310.8
360.8747, 125567.6
362.8032, 123384.7
364.7317, 120761.8
366.6601, 118164.8
368.5886, 115688.2
370.5171, 113177.2
372.4455, 110485.1
374.3740, 107881.1
376.3025, 105533.8
378.2309, 103373.0
380.1594, 101313.3
382.0879, 99347.29
384.0163, 97410.62
385.9448, 95416.23
387.8733, 93633.63
389.8017, 92081.11
391.7302, 90743.30
393.6587, 89712.16
395.5871, 88824.62
397.5156, 87890.20
399.4441, 86952.67
401.3725, 86216.39
403.3010, 85779.44
405.2295, 85275.04
407.1579, 84610.73
409.0864, 84014.18
411.0149, 83599.91
412.9433, 83199.01
414.8718, 82769.06
416.8003, 82246.29
418.7287, 81508.42
420.6572, 80549.47
422.5857, 79487.65
424.5141, 78307.65
426.4426, 77071.30
428.3711, 75715.60
430.2995, 74425.40
432.2280, 73368.61
434.1565, 72342.99
436.0849, 71177.34
438.0134, 69913.30
439.9419, 68685.35
441.8703, 67511.95
443.7988, 66225.96
445.7273, 64767.71
447.6557, 63377.69
449.5842, 62080.80
451.5127, 60916.52
453.4411, 59986.41
455.3696, 59117.15
457.2981, 58127.47
459.2265, 57044.70
461.1550, 55963.16
463.0835, 54875.15
465.0119, 53925.72
466.9404, 53176.84
468.8689, 52389.94
470.7973, 51443.73
472.7258, 50517.40
474.6543, 49710.93
476.5827, 48948.55
478.5112, 48126.37
480.4397, 47279.84
482.3681, 46553.96
484.2966, 45939.72
486.2251, 45283.81
488.1535, 44555.80
490.0820, 43836.13
492.0105, 43114.23
493.9389, 42444.28
495.8674, 41865.24
497.7959, 41326.72
499.7243, 40804.41
501.6528, 40279.92
503.5813, 39721.16
505.5097, 39128.81
507.4382, 38460.54
509.3667, 37667.30
511.2951, 37013.08
513.2236, 36633.29
515.1521, 36282.99
517.0806, 35922.29
519.0090, 35553.43
520.9375, 35145.94
522.8660, 34748.79
524.7944, 34443.82
526.7229, 34205.10
528.6514, 33924.17
530.5798, 33574.80
532.5083, 33408.58
534.4368, 33642.30
536.3652, 33738.41
538.2937, 33495.58
540.2222, 33305.01
542.1506, 33352.73
544.0791, 33489.34
546.0076, 33596.82
547.9360, 33701.99
549.8645, 33849.41
551.7930, 34035.92
553.7214, 34224.16
555.6499, 34390.06
557.5784, 34624.81
559.5068, 34981.60
561.4353, 35313.99
563.3638, 35492.67
565.2922, 35797.02
567.2207, 36520.00
569.1492, 37249.11
571.0776, 37621.30
573.0061, 37802.54
574.9345, 38070.41
576.8630, 38421.71
578.7914, 38837.25
580.7199, 39369.35
582.6484, 39752.41
584.5768, 39896.52
586.5053, 40158.12
588.4338, 40704.21
590.3622, 41192.09
592.2907, 41420.55
594.2192, 41589.07
596.1476, 41874.66
598.0761, 42144.29
600.0046, 42177.33
601.9330, 42038.18
603.8615, 41987.73
605.7900, 42034.14
607.7184, 42050.24
609.6469, 42029.64
611.5754, 42020.78
613.5038, 42029.50
615.4323, 42054.23
617.3608, 42104.17
619.2892, 42154.36
621.2177, 42195.21
623.1462, 42229.52
625.0746, 42244.67
627.0031, 42263.97
628.9316, 42334.27
630.8600, 42444.22
632.7885, 42529.36
634.7170, 42595.83
636.6454, 42733.34
638.5739, 42954.64
640.5024, 43204.05
642.4308, 43499.96
644.3593, 43754.50
646.2878, 43980.83
648.2162, 44110.69
650.1447, 44086.74
652.0732, 43989.64
654.0016, 43881.50
655.9301, 43733.91
657.8586, 43505.60
659.7870, 43206.52
661.7155, 42853.49
663.6440, 42453.47
665.5724, 42056.67
667.5009, 41670.48
669.4294, 41228.79
671.3578, 40742.16
673.2863, 40152.60
675.2148, 39335.73
677.1432, 38602.14
679.0717, 38101.99
681.0002, 37595.06
682.9286, 36959.24
684.8571, 36272.04
686.7856, 35598.43
688.7141, 34911.14
690.6425, 34171.56
692.5710, 33398.34
694.4995, 32604.37
696.4279, 31804.02
698.3564, 31186.60
700.2849, 30822.84
702.2133, 30339.06
704.1418, 29635.55
706.0703, 28982.43
707.9987, 28385.87
709.9272, 27829.76
711.8557, 27335.10
713.7841, 26840.93
715.7126, 26328.64
717.6411, 25799.94
719.5695, 25238.34
721.4980, 24678.72
723.4265, 24163.82
725.3549, 23662.70
727.2834, 23119.88
729.2119, 22551.62
731.1403, 22003.14
733.0688, 21474.73
734.9973, 20988.26
736.9257, 20546.25
738.8542, 20128.10
740.7827, 19730.47
742.7111, 19387.35
744.6396, 19150.03
746.5681, 18775.10
748.4965, 18108.46
750.4250, 17532.43
752.3535, 17244.47
754.2819, 16997.76
756.2104, 16700.63
758.1389, 16378.02
760.0673, 16028.86
761.9958, 15680.68
763.9243, 15370.06
765.8527, 15073.34
767.7812, 14724.51
769.7097, 14363.97
771.6381, 14135.98
773.5666, 14009.82
775.4951, 13811.82
777.4235, 13544.98
779.3520, 13246.44
781.2805, 12914.44
783.2089, 12687.24
785.1374, 12609.09
787.0659, 12484.63
788.9943, 12262.79
790.9228, 12035.79
792.8513, 11793.76
794.7797, 11598.72
796.7082, 11512.53
798.6367, 11408.77
800.5651, 11220.39
802.4936, 11017.15
804.4221, 10827.17
806.3505, 10658.55
808.2790, 10548.24
810.2075, 10437.44
812.1359, 10210.90
814.0644, 9966.195
815.9929, 9864.826
817.9213, 9859.525
819.8498, 9880.060
821.7783, 9898.386
823.7067, 9767.698
825.6352, 9499.409
827.5637, 9380.231
829.4921, 9442.773
831.4206, 9458.505
833.3491, 9405.989
835.2775, 9350.572
837.2060, 9285.474
839.1345, 9235.492
841.0629, 9235.070
842.9914, 9187.454
844.9199, 9034.888
846.8483, 8920.314
848.7768, 8879.525
850.7053, 8878.539
852.6337, 8931.277
854.5622, 8976.721
856.4907, 8994.595
858.4191, 8979.612
860.3476, 8896.736
862.2761, 8818.470
864.2045, 8803.912
866.1330, 8810.843
868.0615, 8792.792
869.9899, 8781.825
871.9184, 8852.011
873.8469, 8932.768
875.7753, 8880.627
877.7038, 8757.660
879.6323, 8702.472
881.5607, 8704.708
883.4892, 8745.704
885.4177, 8812.922
887.3461, 8791.990
889.2746, 8700.116
891.2031, 8867.791
893.1315, 9277.352
895.0600, 9365.459
896.9885, 9118.771
898.9169, 8970.705
900.8454, 8949.068
902.7739, 9050.413
904.7023, 9296.755
906.6308, 9381.601
908.5593, 9215.769
910.4877, 9216.354
912.4162, 9516.405
914.3447, 9721.621
916.2731, 9711.556
918.2016, 9724.753
920.1301, 9794.903
922.0585, 9935.239
923.9870, 10234.96
925.9155, 10462.45
927.8439, 10524.44
929.7724, 10565.75
931.7009, 10582.34
933.6293, 10655.89
935.5578, 10861.43
937.4863, 11067.45
939.4147, 11188.38
941.3432, 11328.07
943.2717, 11569.95
945.2001, 11816.65
947.1286, 12041.48
949.0571, 12206.81
950.9855, 12190.46
952.9140, 12216.60
954.8425, 12527.53
956.7709, 12894.32
958.6994, 13074.99
960.6279, 13249.13
962.5563, 13627.41
964.4848, 14054.94
966.4133, 14353.82
968.3417, 14623.74
970.2702, 14976.71
972.1987, 15368.19
974.1271, 15767.86
976.0556, 16148.46
977.9841, 16426.05
979.9125, 16691.41
981.8410, 17081.29
983.7695, 17573.85
985.6979, 18186.45
987.6264, 18834.76
989.5549, 19309.42
991.4833, 19702.72
993.4118, 20223.53
995.3403, 20837.50
997.2687, 21480.04
999.1972, 22133.01
1001.126, 22754.55
1003.054, 23343.05
1004.983, 23841.17
1006.911, 24317.70
1008.840, 25023.92
1010.768, 25893.33
1012.696, 26693.36
1014.625, 27450.32
1016.553, 28242.30
1018.482, 29078.02
1020.410, 30036.43
1022.339, 31066.10
1024.267, 31913.96
1026.196, 32667.26
1028.124, 33713.46
1030.053, 34962.70
1031.981, 36064.97
1033.910, 37065.76
1035.838, 38110.29
1037.767, 39204.91
1039.695, 40368.85
1041.624, 41595.77
1043.552, 42862.55
1045.480, 44171.48
1047.409, 45536.86
1049.337, 46955.93
1051.266, 48418.63
1053.194, 49937.18
1055.123, 51619.30
1057.051, 53362.53
1058.980, 54820.34
1060.908, 56127.89
1062.837, 57605.59
1064.765, 59235.10
1066.694, 61035.65
1068.622, 62909.48
1070.550, 64617.03
1072.479, 66225.10
1074.407, 67793.56
1076.336, 69426.20
1078.264, 71374.84
1080.193, 73507.05
1082.121, 75557.93
1084.050, 77628.14
1085.978, 79984.91
1087.907, 82413.79
1089.835, 84553.23
1091.764, 86550.68
1093.692, 88532.91
1095.620, 90594.69
1097.549, 92911.47
1099.477, 95330.39
1101.406, 97657.25
1103.334, 99995.17
1105.263, 102296.7
1107.191, 104833.8
1109.120, 108013.9
1111.048, 111385.5
1112.977, 114655.9
1114.905, 117843.2
1116.834, 120989.6
1118.762, 124028.9
1120.691, 126677.4
1122.619, 129535.9
1124.547, 133060.7
1126.476, 136747.5
1128.404, 140398.4
1130.333, 143993.7
1132.261, 147406.0
1134.190, 150994.7
1136.118, 155027.5
1138.047, 159012.5
1139.975, 162685.9
1141.904, 166523.5
1143.832, 170673.6
1145.761, 175068.2
1147.689, 179818.1
1149.618, 184353.7
1151.546, 188434.7
1153.474, 192707.4
1155.403, 197255.7
1157.331, 202242.1
1159.260, 207732.6
1161.188, 213454.4
1163.117, 219414.6
1165.045, 225001.5
1166.974, 230147.1
1168.902, 235901.3
1170.831, 242321.9
1172.759, 249196.7
1174.688, 256469.8
1176.616, 264020.4
1178.545, 271818.5
1180.473, 279772.6
1182.401, 287928.6
1184.330, 296351.1
1186.258, 305144.4
1188.187, 314502.2
1190.115, 324479.8
1192.044, 335120.0
1193.972, 346465.9
1195.901, 358459.9
1197.829, 371240.5
1199.758, 384986.6
1201.686, 399527.5
1203.615, 414474.5
1205.543, 430508.9
1207.472, 447932.5
1209.400, 467027.3
1211.328, 488318.4
1213.257, 510766.3
1215.185, 533415.9
1217.114, 558202.9
1219.042, 586027.2
1220.971, 615457.9
1222.899, 645731.4
1224.828, 678619.0
1226.756, 714223.0
1228.685, 753041.1
1230.613, 795224.4
1232.542, 839926.0
1234.470, 887030.2
1236.399, 937622.8
1238.327, 991738.1
1240.255, 1048792.
1242.184, 1108861.
1244.112, 1172664.
1246.041, 1239859.
1247.969, 1310265.
1249.898, 1382462.
1251.826, 1454635.
1253.755, 1526070.
1255.683, 1596154.
1257.612, 1664200.
1259.540, 1731664.
1261.469, 1793489.
1263.397, 1847894.
1265.326, 1892783.
1267.254, 1926447.
1269.182, 1952043.
1271.111, 1970818.
1273.039, 1980591.
1274.968, 1979546.
1276.896, 1974697.
1278.825, 1966160.
1280.753, 1961124.
1282.682, 1960337.
1284.610, 1968773.
1286.539, 1987535.
1288.467, 2020713.
1290.396, 2069650.
1292.324, 2137339.
1294.253, 2225123.
1296.181, 2337073.
1298.109, 2467877.
1300.038, 2612983.
1301.966, 2769882.
1303.895, 2941940.
1305.823, 3116097.
1307.752, 3291035.
1309.680, 3453103.
1311.609, 3601460.
1313.537, 3726184.
1315.466, 3827361.
1317.394, 3899469.
1319.323, 3942228.
1321.251, 3954420.
1323.180, 3934514.
1325.108, 3890249.
1327.036, 3821816.
1328.965, 3734730.
1330.893, 3631615.
1332.822, 3518515.
1334.750, 3400478.
1336.679, 3284817.
1338.607, 3171737.
1340.536, 3057220.
1342.464, 2950937.
1344.393, 2858079.
1346.321, 2776892.
1348.250, 2706378.
1350.178, 2649240.
1352.107, 2606964.
1354.035, 2576249.
1355.964, 2557081.
1357.892, 2546768.
1359.820, 2545259.
1361.749, 2548529.
1363.677, 2555779.
1365.606, 2564577.
1367.534, 2573552.
1369.463, 2580632.
1371.391, 2584861.
1373.320, 2585761.
1375.248, 2582193.
1377.177, 2572572.
1379.105, 2559087.
1381.034, 2542472.
1382.962, 2522268.
1384.891, 2498097.
1386.819, 2471409.
1388.747, 2442379.
1390.676, 2414245.
1392.604, 2387225.
1394.533, 2359891.
1396.461, 2332988.
1398.390, 2307668.
1400.318, 2284834.
1402.247, 2265850.
1404.175, 2249860.
1406.104, 2235985.
1408.032, 2224848.
1409.961, 2217723.
1411.889, 2211527.
1413.818, 2205163.
1415.746, 2200829.
1417.674, 2199207.
1419.603, 2196884.
1421.531, 2193874.
1423.460, 2191748.
1425.388, 2190055.
1427.317, 2188395.
1429.245, 2185094.
1431.174, 2178229.
1433.102, 2168565.
1435.031, 2155872.
1436.959, 2142051.
1438.888, 2128357.
1440.816, 2112253.
1442.745, 2093182.
1444.673, 2071272.
1446.601, 2046472.
1448.530, 2020640.
1450.458, 1993780.
1452.387, 1965859.
1454.315, 1937068.
1456.244, 1907335.
1458.172, 1877609.
1460.101, 1849054.
1462.029, 1820040.
1463.958, 1789558.
1465.886, 1760013.
1467.815, 1732012.
1469.743, 1704566.
1471.672, 1677512.
1473.600, 1650564.
1475.528, 1623914.
1477.457, 1598835.
1479.385, 1574329.
1481.314, 1548361.
1483.242, 1522928.
1485.171, 1499908.
1487.099, 1477407.
1489.028, 1454922.
1490.956, 1432415.
1492.885, 1409846.
1494.813, 1388715.
1496.742, 1368926.
1498.670, 1348617.
1500.599, 1328491.
1502.527, 1310154.
1504.455, 1292637.
1506.384, 1275007.
1508.312, 1257678.
1510.241, 1240817.
1512.169, 1224418.
1514.098, 1208283.
1516.026, 1193068.
1517.955, 1178741.
1519.883, 1166271.
1521.812, 1154631.
1523.740, 1140593.
1525.669, 1125998.
1527.597, 1112933.
1529.526, 1100343.
1531.454, 1087327.
1533.382, 1075402.
1535.311, 1065572.
1537.239, 1055039.
1539.168, 1043554.
1541.096, 1034466.
1543.025, 1027066.
1544.953, 1019422.
1546.882, 1011752.
1548.810, 1003796.
1550.739, 997004.6
1552.667, 992208.8
1554.596, 988496.1
1556.524, 985699.9
1558.453, 983278.8
1560.381, 981130.3
1562.309, 979425.4
1564.238, 978300.4
1566.166, 978081.1
1568.095, 978781.8
1570.023, 980687.9
1571.952, 983161.9
1573.880, 985968.6
1575.809, 989818.8
1577.737, 994868.1
1579.666, 1000246.
1581.594, 1006241.
1583.523, 1014339.
1585.451, 1023728.
1587.380, 1032959.
1589.308, 1043346.
1591.236, 1056071.
1593.165, 1069333.
1595.093, 1082806.
1597.022, 1096039.
1598.950, 1109349.
1600.879, 1126117.
1602.807, 1144106.
1604.736, 1158455.
1606.664, 1173147.
1608.593, 1191593.
1610.521, 1211080.
1612.450, 1231221.
1614.378, 1251145.
1616.307, 1270763.
1618.235, 1288987.
1620.163, 1306102.
1622.092, 1322087.
1624.020, 1338427.
1625.949, 1357832.
1627.877, 1375234.
1629.806, 1387788.
1631.734, 1400163.
1633.663, 1412586.
1635.591, 1423863.
1637.520, 1434267.
1639.448, 1444702.
1641.377, 1454380.
1643.305, 1461453.
1645.234, 1470890.
1647.162, 1484686.
1649.090, 1500480.
1651.019, 1517949.
1652.947, 1536515.
1654.876, 1556187.
1656.804, 1576449.
1658.733, 1598932.
1660.661, 1625290.
1662.590, 1652198.
1664.518, 1678658.
1666.447, 1708448.
1668.375, 1741197.
1670.304, 1769343.
1672.232, 1795217.
1674.161, 1822642.
1676.089, 1849225.
1678.017, 1873586.
1679.946, 1896775.
1681.874, 1918958.
1683.803, 1934797.
1685.731, 1945129.
1687.660, 1954743.
1689.588, 1962471.
1691.517, 1967301.
1693.445, 1969193.
1695.374, 1967712.
1697.302, 1965509.
1699.231, 1962737.
1701.159, 1958672.
1703.088, 1953682.
1705.016, 1948330.
1706.944, 1942914.
1708.873, 1938663.
1710.801, 1932122.
1712.730, 1922489.
1714.658, 1913461.
1716.587, 1905597.
1718.515, 1901052.
1720.444, 1897127.
1722.372, 1890673.
1724.301, 1884729.
1726.229, 1881690.
1728.158, 1875560.
1730.086, 1866194.
1732.015, 1856515.
1733.943, 1845690.
1735.871, 1832306.
1737.800, 1817974.
1739.728, 1804034.
1741.657, 1787505.
1743.585, 1767987.
1745.514, 1746419.
1747.442, 1722712.
1749.371, 1695967.
1751.299, 1668051.
1753.228, 1640074.
1755.156, 1611111.
1757.085, 1580874.
1759.013, 1549572.
1760.942, 1517003.
1762.870, 1481914.
1764.798, 1446458.
1766.727, 1412417.
1768.655, 1378110.
1770.584, 1343145.
1772.512, 1310211.
1774.441, 1278426.
1776.369, 1244156.
1778.298, 1209687.
1780.226, 1177042.
1782.155, 1144991.
1784.083, 1113228.
1786.012, 1082192.
1787.940, 1051735.
1789.869, 1021096.
1791.797, 991242.5
1793.725, 963450.3
1795.654, 935832.3
1797.582, 907792.4
1799.511, 882023.3
1801.439, 858020.3
1803.368, 833979.6
1805.296, 810273.6
1807.225, 786955.3
1809.153, 764823.5
1811.082, 744040.4
1813.010, 724314.4
1814.939, 705400.2
1816.867, 686873.0
1818.796, 668742.1
1820.724, 650672.5
1822.652, 633937.0
1824.581, 618873.3
1826.509, 603155.4
1828.438, 587573.8
1830.366, 574300.8
1832.295, 561275.6
1834.223, 547272.1
1836.152, 534209.0
1838.080, 522323.2
1840.009, 510169.1
1841.937, 498342.4
1843.866, 488403.3
1845.794, 478012.3
1847.723, 466182.4
1849.651, 455454.4
1851.579, 445957.6
1853.508, 437174.8
1855.436, 428515.9
1857.365, 419123.6
1859.293, 410254.1
1861.222, 402185.1
1863.150, 394063.7
1865.079, 386075.5
1867.007, 378992.7
1868.936, 372062.6
1870.864, 364717.4
1872.793, 357755.1
1874.721, 351219.7
1876.650, 344543.7
1878.578, 337938.5
1880.506, 331826.5
1882.435, 325695.2
1884.363, 319286.8
1886.292, 313522.7
1888.220, 308243.6
1890.149, 302688.4
1892.077, 297153.8
1894.006, 291918.1
1895.934, 286668.3
1897.863, 281364.5
1899.791, 276310.3
1901.720, 271348.4
1903.648, 265949.3
1905.577, 261065.0
1907.505, 257528.4
1909.433, 253198.5
1911.362, 248313.3
1913.290, 244036.9
1915.219, 239835.0
1917.147, 235248.2
1919.076, 231009.8
1921.004, 227236.5
1922.933, 223753.9
1924.861, 220397.8
1926.790, 217121.9
1928.718, 213294.1
1930.647, 208566.5
1932.575, 205062.1
1934.504, 202277.9
1936.432, 198832.8
1938.360, 195013.9
1940.289, 190821.4
1942.217, 187515.4
1944.146, 184952.5
1946.074, 181176.3
1948.003, 177308.0
1949.931, 174551.4
1951.860, 171616.2
1953.788, 168309.8
1955.717, 164722.6
1957.645, 161156.1
1959.574, 158108.4
1961.502, 155012.5
1963.431, 151711.1
1965.359, 148574.6
1967.287, 145622.3
1969.216, 142939.4
1971.144, 140156.2
1973.073, 136985.0
1975.001, 134217.2
1976.930, 131712.1
1978.858, 128798.0
1980.787, 125909.5
1982.715, 123529.4
1984.644, 120700.7
1986.572, 117484.6
1988.501, 114909.8
1990.429, 112570.7
1992.358, 109988.8
1994.286, 107970.5
1996.214, 106595.7
1998.143, 104095.4
2000.071, 101539.0
2002.000, 100204.8
2003.928, 98584.22
2005.857, 96258.59
2007.785, 94285.73
2009.714, 92463.65
2011.642, 90488.52
2013.571, 88612.70
2015.499, 86913.63
2017.428, 85503.27
2019.356, 84125.61
2021.285, 82137.41
2023.213, 80405.84
2025.141, 79188.38
2027.070, 77895.49
2028.998, 76468.40
2030.927, 74708.09
2032.855, 73135.84
2034.784, 71924.71
2036.712, 70541.03
2038.641, 69017.01
2040.569, 67390.27
2042.498, 65945.61
2044.426, 64790.10
2046.355, 63580.17
2048.283, 62330.88
2050.212, 61212.47
2052.140, 59829.75
2054.068, 57937.39
2055.997, 56833.61
2057.925, 56190.45
2059.854, 55264.51
2061.782, 54210.55
2063.711, 53046.74
2065.639, 52095.67
2067.568, 51251.36
2069.496, 50273.54
2071.425, 49320.54
2073.353, 48477.57
2075.281, 47509.86
2077.210, 46503.55
2079.138, 45615.22
2081.067, 44749.44
2082.995, 43881.83
2084.924, 42944.93
2086.852, 42129.14
2088.781, 41890.82
2090.709, 41263.28
2092.638, 39912.14
2094.566, 39383.57
2096.495, 39079.07
2098.423, 38224.28
2100.352, 37505.91
2102.280, 37044.00
2104.208, 36143.25
2106.137, 35186.51
2108.065, 34572.81
2109.994, 33903.64
2111.922, 33135.10
2113.851, 32365.33
2115.779, 31725.93
2117.708, 31327.06
2119.636, 31064.31
2121.565, 30817.76
2123.493, 30201.46
2125.422, 29466.24
2127.350, 28691.31
2129.279, 28393.35
2131.207, 28216.99
2133.135, 27084.00
2135.064, 26279.94
2136.992, 26257.99
2138.921, 25929.81
2140.849, 25471.25
2142.778, 25241.41
2144.706, 24870.01
2146.635, 24304.53
2148.563, 24018.82
2150.492, 23777.72
2152.420, 23310.57
2154.349, 22956.19
2156.277, 22730.28
2158.206, 22669.44
2160.134, 22383.22
2162.063, 21459.21
2163.991, 21306.22
2165.919, 21568.71
2167.848, 21278.35
2169.776, 20845.94
2171.705, 20375.23
2173.633, 20422.11
2175.562, 20559.60
2177.490, 20220.33
2179.419, 20095.78
2181.347, 20220.74
2183.276, 19736.25
2185.204, 19330.20
2187.133, 19420.02
2189.061, 19545.87
2190.990, 19575.41
2192.918, 19168.16
2194.846, 18974.75
2196.775, 19164.21
2198.703, 19016.40
2200.632, 18767.34
2202.560, 18693.21
2204.489, 18780.76
2206.417, 18957.42
2208.346, 18892.40
2210.274, 18787.31
2212.203, 18741.38
2214.131, 18820.80
2216.060, 18954.05
2217.988, 18966.26
2219.917, 19115.21
2221.845, 19429.35
2223.773, 19487.55
2225.702, 19538.95
2227.630, 19818.41
2229.559, 20087.98
2231.487, 20324.01
2233.416, 20494.28
2235.344, 20674.67
2237.273, 20914.88
2239.201, 20719.06
2241.130, 20579.21
2243.058, 20966.49
2244.987, 21544.97
2246.915, 22095.34
2248.844, 21856.22
2250.772, 21543.82
2252.700, 21419.46
2254.629, 21805.02
2256.557, 22334.59
2258.486, 22612.99
2260.414, 22775.76
2262.343, 22891.44
2264.271, 23239.49
2266.200, 23330.34
2268.128, 22988.63
2270.057, 23374.84
2271.985, 23945.97
2273.914, 23981.51
2275.842, 23978.83
2277.771, 23978.17
2279.699, 23887.89
2281.627, 23812.58
2283.556, 23787.97
2285.484, 23916.11
2287.413, 24063.55
2289.341, 24023.22
2291.270, 24228.53
2293.198, 24524.68
2295.127, 24290.62
2297.055, 24188.31
2298.984, 24425.15
2300.912, 24379.54
2302.841, 24182.19
2304.769, 23874.38
2306.698, 23786.57
2308.626, 23696.90
2310.554, 22930.81
2312.483, 22604.42
2314.411, 22905.00
2316.340, 22800.82
2318.268, 22653.44
2320.197, 22653.82
2322.125, 22908.48
2324.054, 23068.27
2325.982, 22591.36
2327.911, 22346.91
2329.839, 22394.17
2331.768, 22554.76
2333.696, 22397.27
2335.625, 21815.00
2337.553, 21762.53
2339.481, 21733.94
2341.410, 21296.76
2343.338, 21213.69
2345.267, 21258.43
2347.195, 20840.57
2349.124, 20442.59
2351.052, 20206.81
2352.981, 20437.82
2354.909, 20618.13
2356.838, 20552.68
2358.766, 20107.30
2360.695, 19774.45
2362.623, 20186.94
2364.552, 20227.71
2366.480, 19978.55
2368.408, 19547.45
2370.337, 19542.92
2372.265, 19886.03
2374.194, 19682.62
2376.122, 19653.04
2378.051, 20139.00
2379.979, 19887.27
2381.908, 19656.99
2383.836, 20154.67
2385.765, 20227.22
2387.693, 20086.45
2389.622, 20132.86
2391.550, 19977.80
2393.479, 19742.40
2395.407, 20209.32
2397.335, 20401.26
2399.264, 20075.01
2401.192, 19684.20
2403.121, 19495.35
2405.049, 19634.07
2406.978, 19510.82
2408.906, 19444.74
2410.835, 19815.36
2412.763, 19652.53
2414.692, 19179.73
2416.620, 18892.76
2418.549, 18591.95
2420.477, 18389.95
2422.406, 18896.70
2424.334, 19098.60
2426.262, 18805.47
2428.191, 18526.15
2430.119, 18315.12
2432.048, 18192.79
2433.976, 17592.91
2435.905, 17121.73
2437.833, 17545.92
2439.762, 17084.57
2441.690, 16403.85
2443.619, 16543.67
2445.547, 16610.68
2447.476, 16517.09
2449.404, 16268.46
2451.333, 15923.16
2453.261, 15573.92
2455.189, 15615.77
2457.118, 15751.57
2459.046, 15859.08
2460.975, 15382.66
2462.903, 14835.48
2464.832, 14457.58
2466.760, 14483.74
2468.689, 14408.78
2470.617, 13897.00
2472.546, 13454.71
2474.474, 13212.88
2476.403, 13325.87
2478.331, 12801.93
2480.260, 12235.30
2482.188, 12787.72
2484.116, 13077.84
2486.045, 13014.78
2487.973, 12757.74
2489.902, 12401.89
2491.830, 12026.53
2493.759, 11874.42
2495.687, 11568.32
2497.616, 11131.29
2499.544, 11165.69
2501.473, 11101.30
2503.401, 10804.88
2505.330, 10861.07
2507.258, 10925.54
2509.187, 10838.37
2511.115, 10533.11
2513.043, 10302.55
2514.972, 10387.19
2516.900, 10251.66
2518.829, 10069.73
2520.757, 9949.493
2522.686, 10195.51
2524.614, 10315.64
2526.543, 9752.313
2528.471, 9516.999
2530.400, 9657.176
2532.328, 10267.58
2534.257, 9889.037
2536.185, 9234.809
2538.114, 9566.872
2540.042, 9524.084
2541.970, 9211.745
2543.899, 9063.483
2545.827, 9234.479
2547.756, 9480.373
2549.684, 9078.939
2551.613, 8833.754
2553.541, 8911.757
2555.470, 9630.596
2557.398, 9937.820
2559.327, 9825.686
2561.255, 9902.084
2563.184, 9679.945
2565.112, 9326.767
2567.041, 9793.831
2568.969, 10027.50
2570.897, 9884.878
2572.826, 9698.091
2574.754, 9431.652
2576.683, 9183.901
2578.611, 9494.210
2580.540, 9611.134
2582.468, 9475.376
2584.397, 9919.754
2586.325, 10055.73
2588.254, 9731.697
2590.182, 9365.427
2592.111, 9277.200
2594.039, 9470.831
2595.968, 9446.816
2597.896, 9179.147
2599.824, 8767.898
2601.753, 8937.055
2603.681, 9175.496
2605.610, 9299.388
2607.538, 9043.095
2609.467, 8845.845
2611.395, 8760.084
2613.324, 8270.742
2615.252, 8347.864
2617.181, 8935.505
2619.109, 8618.050
2621.038, 8426.731
2622.966, 8523.418
2624.895, 8548.776
2626.823, 8499.578
2628.751, 8379.548
2630.680, 8153.248
2632.608, 8114.410
2634.537, 8146.047
2636.465, 7657.755
2638.394, 7630.744
2640.322, 7962.604
2642.251, 8099.118
2644.179, 7978.649
2646.108, 7754.425
2648.036, 7764.546
2649.965, 7567.630
2651.893, 7387.510
2653.822, 7726.879
2655.750, 7894.490
2657.678, 7877.279
2659.607, 7733.504
2661.535, 7813.419
2663.464, 7842.354
2665.392, 7472.851
2667.321, 7460.950
2669.249, 7781.842
2671.178, 8367.350
2673.106, 8250.441
2675.035, 7868.158
2676.963, 7560.800
2678.892, 7217.666
2680.820, 7342.232
2682.749, 8043.487
2684.677, 7846.910
2686.605, 7592.643
2688.534, 7626.766
2690.462, 7785.953
2692.391, 7809.253
2694.319, 7700.808
2696.248, 7830.438
2698.176, 7898.145
2700.105, 7808.757
2702.033, 7269.237
2703.962, 7703.928
2705.890, 8585.909
2707.819, 8424.801
2709.747, 8095.478
2711.676, 7857.127
2713.604, 7968.761
2715.532, 7913.229
2717.461, 7574.502
2719.389, 6759.136
2721.318, 6838.040
2723.246, 7326.561
2725.175, 7873.829
2727.103, 8242.382
2729.032, 8445.654
2730.960, 8480.447
2732.889, 8195.291
2734.817, 8030.480
2736.746, 8112.426
2738.674, 8583.150
2740.603, 8413.084
2742.531, 7828.847
2744.459, 7666.123
2746.388, 8153.555
2748.316, 8840.518
2750.245, 9176.755
2752.173, 8941.881
2754.102, 8433.496
2756.030, 7876.437
2757.959, 8189.972
2759.887, 8543.212
2761.816, 8593.990
2763.744, 9117.652
2765.673, 8719.887
2767.601, 7636.844
2769.530, 7944.540
2771.458, 8584.607
2773.386, 8956.433
2775.315, 8187.241
2777.243, 8396.292
2779.172, 8418.428
2781.100, 6612.444
2783.029, 7506.093
2784.957, 8553.753
2786.886, 8141.658
2788.814, 7918.888
2790.743, 7980.782
2792.671, 8219.631
2794.600, 8037.326
2796.528, 7612.875
2798.457, 7266.037
2800.385, 7489.779
2802.313, 8233.635
2804.242, 8615.354
2806.170, 7941.455
2808.099, 8149.157
2810.027, 8190.531
2811.956, 7771.704
2813.884, 8737.638
2815.813, 8423.020
2817.741, 7180.860
2819.670, 7778.409
2821.598, 8670.435
2823.527, 9185.513
2825.455, 8432.277
2827.384, 9217.497
2829.312, 9180.827
2831.240, 6944.395
2833.169, 7552.767
2835.097, 8137.948
2837.026, 7880.637
2838.954, 6637.787
2840.883, 7102.772
2842.811, 8238.907
2844.740, 8315.683
2846.668, 8181.435
2848.597, 8504.793
2850.525, 9533.100
2852.454, 8561.104
2854.382, 7670.885
2856.311, 7499.630
2858.239, 8266.364
2860.167, 7925.739
2862.096, 7248.884
2864.024, 7319.324
2865.953, 7468.747
2867.881, 7633.791
2869.810, 7862.936
2871.738, 8575.468
2873.667, 9105.944
2875.595, 9142.092
2877.524, 8017.922
2879.452, 8345.912
2881.381, 8955.009
2883.309, 8746.683
2885.238, 7796.482
2887.166, 7708.356
2889.094, 8477.681
2891.023, 8443.023
2892.951, 7742.662
2894.880, 7016.516
2896.808, 6915.940
2898.737, 7461.688
2900.665, 8308.691
2902.594, 9068.064
2904.522, 7927.386
2906.451, 7663.464
2908.379, 8202.979
2910.308, 8645.064
2912.236, 9021.702
2914.165, 9004.204
2916.093, 8559.023
2918.021, 9096.447
2919.950, 9229.233
2921.878, 8772.469
2923.807, 7847.440
2925.735, 8802.863
2927.664, 9660.529
2929.592, 9231.131
2931.521, 8761.439
2933.449, 9166.281
2935.378, 10164.42
2937.306, 11088.45
2939.235, 9728.956
2941.163, 8734.267
2943.092, 9882.940
2945.020, 10344.11
2946.948, 9411.745
2948.877, 8474.606
2950.805, 10989.96
2952.734, 11017.41
2954.662, 10581.11
2956.591, 11244.75
2958.519, 9862.728
2960.448, 10238.18
2962.376, 11852.96
2964.305, 12484.60
2966.233, 11692.62
2968.162, 11083.80
2970.090, 11478.54
2972.019, 12186.34
2973.947, 12389.69
2975.875, 12626.77
2977.804, 13773.54
2979.732, 13979.93
2981.661, 13738.09
2983.589, 13501.53
2985.518, 13682.01
2987.446, 14957.28
2989.375, 15907.30
2991.303, 15203.98
2993.232, 14744.02
2995.160, 15578.40
2997.089, 17037.15
2999.017, 17045.76
3000.946, 17313.38
3002.874, 17560.44
3004.802, 17580.46
3006.731, 18094.41
3008.659, 18869.96
3010.588, 19824.65
3012.516, 21013.10
3014.445, 20909.56
3016.373, 20605.78
3018.302, 20494.13
3020.230, 20202.82
3022.159, 21008.43
3024.087, 21977.69
3026.016, 22439.37
3027.944, 23399.74
3029.873, 23826.31
3031.801, 24439.61
3033.729, 26454.28
3035.658, 25356.49
3037.586, 26065.62
3039.515, 28980.80
3041.443, 29422.40
3043.372, 29060.95
3045.300, 29569.53
3047.229, 31348.24
3049.157, 30957.26
3051.086, 30385.26
3053.014, 31040.17
3054.943, 34199.86
3056.871, 36049.64
3058.800, 36080.00
3060.728, 35866.93
3062.656, 39090.43
3064.585, 39257.78
3066.513, 39698.47
3068.442, 41678.21
3070.370, 42768.03
3072.299, 43220.88
3074.227, 44167.05
3076.156, 46275.20
3078.084, 48676.03
3080.013, 49175.95
3081.941, 49459.46
3083.870, 51557.36
3085.798, 53459.96
3087.727, 54333.22
3089.655, 54969.15
3091.583, 56917.03
3093.512, 59328.27
3095.440, 61181.04
3097.369, 62411.40
3099.297, 63724.32
3101.226, 65318.79
3103.154, 66840.26
3105.083, 68178.69
3107.011, 69453.16
3108.940, 71546.25
3110.868, 74373.62
3112.797, 77508.93
3114.725, 79089.66
3116.654, 76040.77
3118.582, 75644.42
3120.510, 84120.84
3122.439, 86142.13
3124.367, 88266.26
3126.296, 90862.07
3128.224, 92877.78
3130.153, 93700.91
3132.081, 95740.86
3134.010, 98786.91
3135.938, 101799.4
3137.867, 106482.9
3139.795, 108569.2
3141.724, 109526.5
3143.652, 113504.0
3145.581, 118486.9
3147.509, 122754.8
3149.438, 125190.7
3151.366, 124195.9
3153.294, 131382.7
3155.223, 136266.8
3157.151, 137992.4
3159.080, 142936.9
3161.008, 144608.2
3162.937, 149795.6
3164.865, 157687.9
3166.794, 160726.3
3168.722, 165204.1
3170.651, 169165.8
3172.579, 172406.3
3174.508, 176474.8
3176.436, 180904.8
3178.365, 186832.7
3180.293, 192705.4
3182.221, 194338.4
3184.150, 199729.2
3186.078, 206668.9
3188.007, 214157.7
3189.935, 222759.4
3191.864, 229381.1
3193.792, 236461.4
3195.721, 242746.9
3197.649, 244085.5
3199.578, 255752.6
3201.506, 268126.0
3203.435, 278948.6
3205.363, 290417.4
3207.292, 303822.9
3209.220, 310806.6
3211.148, 317427.4
3213.077, 335611.4
3215.005, 347378.2
3216.934, 360361.3
3218.862, 376178.7
3220.791, 394546.3
3222.719, 402264.1
3224.648, 417251.6
3226.576, 435563.3
3228.505, 451065.8
3230.433, 474606.3
3232.362, 488969.9
3234.290, 505696.6
3236.219, 532754.9
3238.147, 559357.1
3240.075, 581602.2
3242.004, 604757.7
3243.932, 631260.8
3245.861, 658202.1
3247.789, 691512.1
3249.718, 724813.6
3251.646, 755270.9
3253.575, 782573.2
3255.503, 813748.5
3257.432, 850583.6
3259.360, 890610.3
3261.289, 930395.2
3263.217, 968374.9
3265.146, 1000072.
3267.074, 1034375.
3269.002, 1079349.
3270.931, 1122044.
3272.859, 1159816.
3274.788, 1205326.
3276.716, 1259888.
3278.645, 1296895.
3280.573, 1332445.
3282.502, 1376367.
3284.430, 1425888.
3286.359, 1469537.
3288.287, 1518815.
3290.216, 1574309.
3292.144, 1638655.
3294.073, 1711859.
3296.001, 1772124.
3297.929, 1835043.
3299.858, 1907793.
3301.786, 1989188.
3303.715, 2065315.
3305.643, 2147231.
3307.572, 2227522.
3309.500, 2305476.
3311.429, 2391308.
3313.357, 2433901.
3315.286, 2463669.
3317.214, 2492424.
3319.143, 2520867.
3321.071, 2524311.
3323.000, 2516542.
3324.928, 2510846.
3326.856, 2508260.
3328.785, 2496495.
3330.713, 2471109.
3332.642, 2436497.
3334.570, 2403590.
3336.499, 2383370.
3338.427, 2386212.
3340.356, 2374427.
3342.284, 2355251.
3344.213, 2338533.
3346.141, 2328566.
3348.070, 2322586.
3349.998, 2314992.
3351.927, 2307095.
3353.855, 2300906.
3355.783, 2281903.
3357.712, 2255010.
3359.640, 2236559.
3361.569, 2228684.
3363.497, 2212358.
3365.426, 2204088.
3367.354, 2189594.
3369.283, 2172858.
3371.211, 2161798.
3373.140, 2152919.
3375.068, 2126027.
3376.997, 2111421.
3378.925, 2107719.
3380.854, 2084191.
3382.782, 2062670.
3384.710, 2050672.
3386.639, 2039578.
3388.567, 2028510.
3390.496, 2041758.
3392.424, 2032466.
3394.353, 2023238.
3396.281, 2032564.
3398.210, 2062409.
3400.138, 2056192.
3402.067, 2066502.
3403.995, 2076178.
3405.924, 2079763.
3407.852, 2090725.
3409.781, 2100550.
3411.709, 2124726.
3413.637, 2147764.
3415.566, 2161200.
3417.494, 2179671.
3419.423, 2203843.
3421.351, 2234776.
3423.280, 2261889.
3425.208, 2282784.
3427.137, 2332817.
3429.065, 2357069.
3430.994, 2385254.
3432.922, 2414011.
3434.851, 2425078.
3436.779, 2420427.
3438.708, 2435210.
3440.636, 2442987.
3442.564, 2442913.
3444.493, 2448536.
3446.421, 2409624.
3448.350, 2389440.
3450.278, 2362971.
3452.207, 2329393.
3454.135, 2320455.
3456.064, 2276555.
##END=



