##NAMES=Burkeite
##RRUFFID=R060112
##IDEAL CHEMISTRY=Na_4_(SO_4_)(CO_3_)
##LOCALITY=Searles Lake, near Trona, San Bernardino County, California, USA
##OWNER=RRUFF
##SOURCE=University of Arizona Mineral Museum
##DESCRIPTION=Tan colored nodule covered with white thenardite powder
##STATUS=The identification of this mineral has been confirmed by X-ray diffraction and chemical analysis
##URL=https://www.rruff.net/odr/rruff_sample/R060112
##MEASURED CHEMISTRY=Na_4.00_S_1.00_O_4_CO_3_ ; C not measured but estimated by difference.
##DIFFRACTION SAMPLE DESCRIPTION=Powder, mixed with thenardite
##CELL PARAMETERS=a: 5.159 b: 9.214 c: 7.05 alpha: 90 beta: 90 gamma: 90 volume: 335.2 crystal system: orthorhombic
##FILETYPE=Raman Processed
##RAMAN WAVELENGTH=780

137.3743, 305.1182
139.3027, 306.8333
141.2312, 308.2950
143.1597, 309.4899
145.0881, 310.3131
147.0166, 310.3751
148.9450, 310.2856
150.8735, 310.9767
152.8020, 312.2934
154.7304, 313.0333
156.6589, 312.3651
158.5874, 312.1514
160.5158, 313.3634
162.4443, 314.7227
164.3728, 314.8281
166.3012, 313.9704
168.2297, 313.3252
170.1582, 313.1364
172.0866, 312.9478
174.0151, 312.8226
175.9436, 312.5144
177.8720, 311.9127
179.8005, 311.0097
181.7290, 309.6783
183.6574, 307.7718
185.5859, 305.7523
187.5144, 303.6917
189.4428, 301.5092
191.3713, 299.1852
193.2998, 296.6992
195.2282, 293.9362
197.1567, 290.7079
199.0852, 287.9770
201.0136, 285.4438
202.9421, 283.7308
204.8706, 284.0096
206.7990, 284.5265
208.7275, 283.1590
210.6560, 279.7378
212.5844, 278.5700
214.5129, 281.9662
216.4414, 283.7294
218.3698, 282.1075
220.2983, 279.6347
222.2268, 277.7466
224.1552, 276.3409
226.0837, 275.0634
228.0122, 273.8193
229.9406, 272.9591
231.8691, 272.7526
233.7976, 272.5579
235.7260, 272.2501
237.6545, 271.6706
239.5830, 270.4721
241.5114, 268.5855
243.4399, 267.2596
245.3684, 266.6178
247.2968, 266.1527
249.2253, 265.7217
251.1538, 265.4201
253.0822, 265.4347
255.0107, 265.6111
256.9392, 265.4723
258.8676, 264.9978
260.7961, 264.3177
262.7246, 263.2753
264.6530, 262.3640
266.5815, 261.9783
268.5100, 261.6572
270.4384, 260.7900
272.3669, 259.5439
274.2954, 259.2262
276.2238, 260.0176
278.1523, 260.5074
280.0808, 260.3292
282.0092, 259.8358
283.9377, 258.9817
285.8662, 258.0102
287.7946, 257.2993
289.7231, 256.8244
291.6516, 256.6296
293.5800, 256.8364
295.5085, 257.0281
297.4370, 256.8423
299.3654, 256.7590
301.2939, 257.3789
303.2224, 258.2668
305.1508, 258.2109
307.0793, 257.2675
309.0078, 256.5594
310.9362, 256.4279
312.8647, 256.1480
314.7932, 255.4622
316.7216, 254.6778
318.6501, 253.8368
320.5786, 253.0568
322.5070, 252.8040
324.4355, 253.1059
326.3640, 252.9749
328.2924, 251.7663
330.2209, 250.8707
332.1494, 250.7475
334.0778, 250.9690
336.0063, 251.4003
337.9348, 251.8382
339.8632, 251.8617
341.7917, 251.4525
343.7202, 251.0493
345.6486, 250.6363
347.5771, 250.3487
349.5056, 250.3537
351.4340, 250.3813
353.3625, 250.2730
355.2910, 249.9869
357.2194, 249.4669
359.1479, 248.7071
361.0764, 248.0044
363.0048, 247.1938
364.9333, 246.6828
366.8618, 246.7932
368.7902, 246.9833
370.7187, 246.9198
372.6472, 246.6709
374.5756, 246.3167
376.5041, 245.8479
378.4326, 245.5128
380.3610, 245.5265
382.2895, 245.3475
384.2180, 244.5772
386.1464, 244.0430
388.0749, 244.3519
390.0034, 244.8289
391.9318, 244.8108
393.8603, 244.4054
395.7888, 244.2795
397.7172, 244.5978
399.6457, 244.7495
401.5742, 244.8226
403.5026, 244.6712
405.4311, 243.9985
407.3596, 243.2766
409.2880, 242.5145
411.2165, 242.0186
413.1450, 242.8422
415.0734, 245.3358
417.0019, 247.1292
418.9304, 248.1189
420.8588, 248.6255
422.7873, 248.5635
424.7158, 248.4090
426.6442, 248.0883
428.5727, 247.9961
430.5012, 248.7432
432.4296, 250.2523
434.3581, 251.7772
436.2866, 253.2717
438.2150, 255.0266
440.1435, 257.1048
442.0720, 259.2827
444.0004, 261.4963
445.9289, 263.7679
447.8574, 266.3293
449.7858, 268.7063
451.7143, 270.5939
453.6428, 271.8848
455.5712, 270.6835
457.4997, 266.6638
459.4282, 262.8432
461.3566, 259.6229
463.2851, 257.0392
465.2136, 255.3747
467.1420, 254.0623
469.0705, 252.7917
470.9990, 251.5330
472.9274, 250.4247
474.8559, 249.4229
476.7844, 247.7327
478.7128, 245.1368
480.6413, 243.2422
482.5698, 242.9675
484.4982, 242.3640
486.4267, 240.5847
488.3552, 238.6400
490.2836, 237.1257
492.2121, 235.9712
494.1406, 235.0868
496.0690, 234.3990
497.9975, 233.7650
499.9260, 233.1999
501.8544, 232.6107
503.7829, 231.9669
505.7114, 231.3120
507.6398, 230.7894
509.5683, 230.0466
511.4968, 228.4261
513.4252, 226.8945
515.3537, 227.0340
517.2822, 228.0750
519.2106, 228.0499
521.1391, 226.8457
523.0676, 225.8605
524.9960, 225.1664
526.9245, 224.8715
528.8530, 225.4381
530.7814, 225.7517
532.7099, 225.1916
534.6384, 224.4429
536.5668, 224.0636
538.4953, 223.3959
540.4238, 223.6808
542.3522, 223.6883
544.2807, 223.4335
546.2092, 222.1303
548.1376, 222.1808
550.0661, 221.6888
551.9946, 221.1746
553.9230, 221.4157
555.8515, 220.2650
557.7800, 220.4940
559.7084, 220.1724
561.6369, 220.1027
563.5654, 219.6040
565.4938, 219.6669
567.4223, 219.8763
569.3508, 220.0394
571.2792, 220.1147
573.2077, 220.1191
575.1362, 219.9596
577.0646, 219.9942
578.9931, 220.3662
580.9216, 220.8165
582.8500, 221.2368
584.7785, 221.7164
586.7070, 222.3289
588.6354, 223.0235
590.5639, 223.6659
592.4924, 224.2238
594.4208, 224.7511
596.3493, 225.2165
598.2778, 225.8819
600.2062, 226.7652
602.1347, 227.8743
604.0632, 229.2828
605.9916, 230.8012
607.9201, 231.8275
609.8486, 233.4923
611.7770, 237.0618
613.7055, 241.1915
615.6340, 244.3501
617.5624, 246.7700
619.4909, 249.0742
621.4194, 250.9940
623.3478, 251.0015
625.2763, 249.0294
627.2048, 247.2974
629.1332, 246.1776
631.0617, 244.8444
632.9902, 242.8862
634.9186, 241.0922
636.8471, 239.9948
638.7756, 238.7673
640.7040, 236.9373
642.6325, 234.7773
644.5610, 232.2777
646.4894, 229.4913
648.4179, 226.8977
650.3464, 224.3804
652.2748, 221.3077
654.2033, 217.5983
656.1318, 214.2534
658.0602, 211.2773
659.9887, 209.0707
661.9172, 207.9626
663.8456, 207.2257
665.7741, 206.9716
667.7026, 206.7254
669.6310, 206.1252
671.5595, 205.5849
673.4880, 205.5117
675.4164, 205.6363
677.3449, 205.6125
679.2734, 205.3378
681.2018, 204.5952
683.1303, 203.4806
685.0588, 202.9706
686.9872, 203.2733
688.9157, 203.4224
690.8442, 203.1821
692.7726, 203.1943
694.7011, 203.7715
696.6296, 204.0747
698.5580, 203.8465
700.4865, 203.4223
702.4149, 202.4940
704.3434, 201.8006
706.2719, 202.6318
708.2003, 203.5787
710.1288, 202.7178
712.0573, 200.6951
713.9857, 199.0683
715.9142, 197.8418
717.8427, 197.0347
719.7711, 196.7001
721.6996, 196.6180
723.6281, 196.8752
725.5565, 197.0610
727.4850, 197.2443
729.4135, 197.1682
731.3419, 196.6227
733.2704, 196.0952
735.1989, 195.8842
737.1273, 195.5453
739.0558, 194.4475
740.9843, 193.5024
742.9127, 193.6011
744.8412, 194.0539
746.7697, 193.9872
748.6981, 193.5542
750.6266, 193.2516
752.5551, 193.0842
754.4835, 192.8589
756.4120, 192.6118
758.3405, 192.4148
760.2689, 192.2989
762.1974, 191.9397
764.1259, 191.1773
766.0543, 190.6310
767.9828, 190.5156
769.9113, 190.5426
771.8397, 190.6595
773.7682, 190.6278
775.6967, 190.4598
777.6251, 190.1553
779.5536, 189.4207
781.4821, 188.7912
783.4105, 188.7732
785.3390, 188.8919
787.2675, 188.6979
789.1959, 188.3564
791.1244, 187.8957
793.0529, 187.4039
794.9813, 187.5638
796.9098, 188.1380
798.8383, 187.9113
800.7667, 187.0130
802.6952, 186.7856
804.6237, 187.3398
806.5521, 187.4129
808.4806, 186.7700
810.4091, 186.0082
812.3375, 185.1702
814.2660, 184.5215
816.1945, 183.8173
818.1229, 183.6932
820.0514, 184.7384
821.9799, 185.5842
823.9083, 186.1170
825.8368, 186.0336
827.7653, 184.5276
829.6937, 183.1815
831.6222, 183.2502
833.5507, 183.5888
835.4791, 183.2347
837.4076, 182.7029
839.3361, 182.7690
841.2645, 182.9890
843.1930, 182.4151
845.1215, 181.4133
847.0499, 180.9462
848.9784, 180.9101
850.9069, 180.8601
852.8353, 180.7138
854.7638, 179.9982
856.6923, 178.7278
858.6207, 178.3377
860.5492, 179.0075
862.4777, 179.1042
864.4061, 178.4131
866.3346, 177.8880
868.2631, 177.7552
870.1915, 177.1291
872.1200, 175.5583
874.0485, 174.7112
875.9769, 175.1790
877.9054, 175.4630
879.8339, 175.0914
881.7623, 174.7603
883.6908, 174.7405
885.6193, 174.6807
887.5477, 174.4588
889.4762, 174.1486
891.4047, 173.6060
893.3331, 173.1720
895.2616, 173.1521
897.1901, 173.0499
899.1185, 172.5942
901.0470, 172.0660
902.9755, 171.7390
904.9039, 171.2673
906.8324, 170.0182
908.7609, 168.9180
910.6893, 169.2501
912.6178, 170.0376
914.5463, 169.9780
916.4747, 169.3575
918.4032, 168.5273
920.3317, 167.6680
922.2601, 167.4366
924.1886, 167.6040
926.1171, 167.0094
928.0455, 165.8855
929.9740, 165.3826
931.9025, 165.4431
933.8309, 165.7012
935.7594, 166.0597
937.6879, 165.9633
939.6163, 165.4475
941.5448, 165.4511
943.4733, 166.0218
945.4017, 166.1846
947.3302, 165.8385
949.2587, 165.7940
951.1871, 166.1489
953.1156, 166.3181
955.0441, 165.8412
956.9725, 167.6289
958.9010, 172.1240
960.8295, 178.1290
962.7579, 186.1372
964.6864, 194.1996
966.6149, 202.7588
968.5433, 209.9921
970.4718, 214.9896
972.4003, 220.0519
974.3287, 224.5980
976.2572, 230.6475
978.1857, 237.3126
980.1141, 247.5098
982.0426, 261.6703
983.9711, 279.5341
985.8995, 302.8351
987.8280, 326.4726
989.7565, 352.7155
991.6849, 372.3666
993.6134, 384.4274
995.5419, 386.0815
997.4703, 374.8533
999.3988, 356.0808
1001.327, 328.0686
1003.256, 300.0698
1005.184, 274.1537
1007.113, 251.5840
1009.041, 233.0938
1010.970, 217.7971
1012.898, 205.9344
1014.827, 196.0470
1016.755, 187.6049
1018.683, 180.6797
1020.612, 175.5130
1022.540, 171.4452
1024.469, 168.0711
1026.397, 166.1765
1028.326, 166.3334
1030.254, 167.4600
1032.183, 169.4622
1034.111, 171.7762
1036.040, 174.2193
1037.968, 176.6780
1039.897, 179.4130
1041.825, 181.8394
1043.754, 183.2659
1045.682, 184.9707
1047.610, 186.8212
1049.539, 190.0372
1051.467, 195.4570
1053.396, 201.6200
1055.324, 208.6896
1057.253, 215.4040
1059.181, 222.1492
1061.110, 227.1799
1063.038, 230.4996
1064.967, 231.0409
1066.895, 228.8289
1068.824, 222.9032
1070.752, 210.8403
1072.681, 198.8755
1074.609, 188.0637
1076.537, 178.6888
1078.466, 170.7321
1080.394, 164.5312
1082.323, 160.4408
1084.251, 157.6949
1086.180, 156.5944
1088.108, 155.9747
1090.037, 155.4478
1091.965, 155.4996
1093.894, 156.4582
1095.822, 157.6261
1097.751, 159.1797
1099.679, 160.3703
1101.608, 160.9195
1103.536, 161.4972
1105.464, 162.5319
1107.393, 162.8393
1109.321, 161.7864
1111.250, 161.1991
1113.178, 161.2361
1115.107, 161.5706
1117.035, 162.6833
1118.964, 162.8826
1120.892, 161.8024
1122.821, 160.8734
1124.749, 160.1975
1126.678, 159.0825
1128.606, 157.4328
1130.535, 155.9933
1132.463, 154.7495
1134.391, 154.0376
1136.320, 153.8777
1138.248, 153.1158
1140.177, 151.7092
1142.105, 150.3697
1144.034, 149.2391
1145.962, 148.0247
1147.891, 146.7603
1149.819, 146.3214
1151.748, 146.3821
1153.676, 145.8362
1155.605, 145.0168
1157.533, 144.3224
1159.462, 143.7714
1161.390, 143.8406
1163.318, 144.0822
1165.247, 143.9450
1167.175, 143.3769
1169.104, 141.7071
1171.032, 140.1784
1172.961, 140.5454
1174.889, 141.1392
1176.818, 140.3768
1178.746, 139.5454
1180.675, 139.6665
1182.603, 139.7396
1184.532, 139.2672
1186.460, 138.6287
1188.389, 137.6049
1190.317, 136.8839
1192.245, 136.9760
1194.174, 137.0192
1196.102, 137.0520
1198.031, 136.4736
1199.959, 134.7104
1201.888, 133.7819
1203.816, 134.1296
1205.745, 134.2794
1207.673, 134.1558
1209.602, 133.7346
1211.530, 132.9948
1213.459, 132.6719
1215.387, 132.7421
1217.316, 132.6540
1219.244, 132.3882
1221.172, 131.9727
1223.101, 131.5279
1225.029, 131.2637
1226.958, 131.0823
1228.886, 130.9642
1230.815, 130.9419
1232.743, 130.8792
1234.672, 130.8174
1236.600, 130.8992
1238.529, 130.7851
1240.457, 130.3189
1242.386, 129.9476
1244.314, 129.8456
1246.243, 129.6474
1248.171, 129.1693
1250.099, 128.7231
1252.028, 128.3945
1253.956, 128.3403
1255.885, 128.5872
1257.813, 128.6887
1259.742, 128.6654
1261.670, 128.5778
1263.599, 128.4111
1265.527, 128.2458
1267.456, 127.9959
1269.384, 127.6080
1271.313, 127.2429
1273.241, 127.3886
1275.170, 127.7647
1277.098, 127.7601
1279.026, 127.4963
1280.955, 127.1082
1282.883, 126.6772
1284.812, 125.9824
1286.740, 125.4440
1288.669, 125.9078
1290.597, 126.2977
1292.526, 125.6484
1294.454, 125.2202
1296.383, 125.6810
1298.311, 125.9688
1300.240, 125.8924
1302.168, 125.7308
1304.097, 125.4376
1306.025, 124.9925
1307.953, 124.4236
1309.882, 124.4404
1311.810, 124.9853
1313.739, 125.0836
1315.667, 124.7876
1317.596, 124.2037
1319.524, 123.5912
1321.453, 123.5832
1323.381, 123.6574
1325.310, 123.1202
1327.238, 122.7238
1329.167, 123.3252
1331.095, 123.8063
1333.024, 123.1800
1334.952, 122.6247
1336.880, 122.7367
1338.809, 122.8785
1340.737, 123.0478
1342.666, 123.1955
1344.594, 123.2851
1346.523, 123.0811
1348.451, 122.5419
1350.380, 121.8864
1352.308, 121.2751
1354.237, 121.5199
1356.165, 122.0752
1358.094, 121.6511
1360.022, 120.9416
1361.951, 120.7991
1363.879, 120.8433
1365.807, 120.7941
1367.736, 120.6422
1369.664, 120.4265
1371.593, 120.1809
1373.521, 119.9766
1375.450, 119.8531
1377.378, 119.6325
1379.307, 119.5606
1381.235, 119.7533
1383.164, 119.4682
1385.092, 118.9068
1387.021, 119.0656
1388.949, 119.4806
1390.878, 119.4147
1392.806, 119.1066
1394.734, 118.6995
1396.663, 118.5764
1398.591, 118.9085
1400.520, 119.2533
1402.448, 119.6472
1404.377, 119.8793
1406.305, 119.7521
1408.234, 119.8098
1410.162, 120.0992
1412.091, 119.9626
1414.019, 119.5439
1415.948, 119.1353
1417.876, 118.6737
1419.805, 118.0354
1421.733, 117.5280
1423.661, 117.6447
1425.590, 117.7681
1427.518, 117.4171
1429.447, 117.3784
1431.375, 118.1507
1433.304, 118.1426
1435.232, 117.1139
1437.161, 116.6466
1439.089, 116.7993
1441.018, 117.0376
1442.946, 117.0678
1444.875, 116.4745
1446.803, 116.0439
1448.731, 116.3746
1450.660, 116.5462
1452.588, 116.0902
1454.517, 115.6573
1456.445, 115.7238
1458.374, 115.7039
1460.302, 115.1059
1462.231, 114.6128
1464.159, 114.3495
1466.088, 114.1859
1468.016, 114.0758
1469.945, 113.5743
1471.873, 112.9630
1473.802, 112.9003
1475.730, 113.0804
1477.658, 113.2679
1479.587, 113.2821
1481.515, 113.0576
1483.444, 112.6433
1485.372, 112.0875
1487.301, 111.7280
1489.229, 111.4493
1491.158, 111.1563
1493.086, 110.9133
1495.015, 110.4780
1496.943, 110.0535
1498.872, 110.2336
1500.800, 110.6726
1502.729, 110.7357
1504.657, 110.5892
1506.585, 110.6026
1508.514, 110.2037
1510.442, 109.2860
1512.371, 108.8305
1514.299, 108.8932
1516.228, 109.2587
1518.156, 109.6713
1520.085, 110.0804
1522.013, 110.0853
1523.942, 109.2252
1525.870, 108.7055
1527.799, 108.6033
1529.727, 108.3834
1531.656, 108.0894
1533.584, 107.8245
1535.512, 107.7339
1537.441, 107.5865
1539.369, 107.3213
1541.298, 107.1258
1543.226, 107.0621
1545.155, 106.9578
1547.083, 107.1056
1549.012, 107.8255
1550.940, 107.7640
1552.869, 107.0109
1554.797, 106.2076
1556.726, 105.7069
1558.654, 105.9117
1560.583, 106.0746
1562.511, 106.0796
1564.439, 106.0453
1566.368, 105.9408
1568.296, 105.8370
1570.225, 105.5048
1572.153, 105.2420
1574.082, 105.0897
1576.010, 104.7575
1577.939, 104.4340
1579.867, 104.1631
1581.796, 103.9594
1583.724, 103.6072
1585.653, 103.1701
1587.581, 103.1336
1589.510, 103.2595
1591.438, 103.1819
1593.366, 102.8743
1595.295, 102.5320
1597.223, 102.4886
1599.152, 102.6095
1601.080, 102.4907
1603.009, 102.1264
1604.937, 101.5492
1606.866, 101.1217
1608.794, 101.0318
1610.723, 100.9776
1612.651, 100.7801
1614.580, 100.3529
1616.508, 99.99500
1618.437, 100.0322
1620.365, 99.93977
1622.293, 99.56394
1624.222, 99.45887
1626.150, 99.47549
1628.079, 99.46177
1630.007, 99.46535
1631.936, 98.75138
1633.864, 97.95340
1635.793, 98.29320
1637.721, 98.49565
1639.650, 97.64394
1641.578, 97.26781
1643.507, 97.65706
1645.435, 97.54453
1647.364, 97.16240
1649.292, 96.85072
1651.220, 96.52767
1653.149, 96.40345
1655.077, 96.44454
1657.006, 96.40018
1658.934, 96.20792
1660.863, 96.03370
1662.791, 95.62469
1664.720, 95.23858
1666.648, 95.46743
1668.577, 95.56002
1670.505, 95.06685
1672.434, 94.83517
1674.362, 95.33113
1676.291, 95.49440
1678.219, 94.73671
1680.147, 94.39048
1682.076, 94.47917
1684.004, 94.28977
1685.933, 94.10243
1687.861, 94.13643
1689.790, 94.11568
1691.718, 94.16866
1693.647, 94.09272
1695.575, 93.61610
1697.504, 93.44007
1699.432, 93.66727
1701.361, 94.41189
1703.289, 94.84853
1705.218, 93.95562
1707.146, 93.13396
1709.074, 92.78156
1711.003, 92.68790
1712.931, 92.62064
1714.860, 92.12694
1716.788, 91.56567
1718.717, 91.02269
1720.645, 90.81878
1722.574, 91.08500
1724.502, 90.96194
1726.431, 90.69547
1728.359, 90.47876
1730.288, 90.38081
1732.216, 90.67353
1734.145, 90.68147
1736.073, 89.58521
1738.001, 88.81280
1739.930, 89.02650
1741.858, 89.15736
1743.787, 89.00043
1745.715, 88.78964
1747.644, 88.49161
1749.572, 88.09097
1751.501, 88.15849
1753.429, 88.70881
1755.358, 88.99300
1757.286, 88.79453
1759.215, 88.17649
1761.143, 87.81090
1763.072, 87.51823
1765.000, 87.19114
1766.928, 86.99140
1768.857, 86.58447
1770.785, 86.14893
1772.714, 85.79039
1774.642, 85.61501
1776.571, 85.99879
1778.499, 86.13400
1780.428, 85.62301
1782.356, 84.77987
1784.285, 84.08663
1786.213, 84.09329
1788.142, 84.28059
1790.070, 83.99375
1791.999, 83.63895
1793.927, 83.61848
1795.855, 83.46848
1797.784, 83.03633
1799.712, 82.63720
1801.641, 82.63167
1803.569, 82.99162
1805.498, 82.57131
1807.426, 81.63183
1809.355, 81.57857
1811.283, 81.98036
1813.212, 81.92136
1815.140, 81.70952
1817.069, 81.26761
1818.997, 80.79819
1820.926, 80.70962
1822.854, 80.27272
1824.782, 79.77428
1826.711, 79.98685
1828.639, 80.16442
1830.568, 80.31641
1832.496, 80.10243
1834.425, 79.44657
1836.353, 79.20652
1838.282, 79.18371
1840.210, 79.08420
1842.139, 78.69445
1844.067, 78.02953
1845.996, 77.83430
1847.924, 77.73820
1849.853, 77.33173
1851.781, 77.20213
1853.709, 77.33021
1855.638, 77.23139
1857.566, 76.90602
1859.495, 76.46999
1861.423, 76.09583
1863.352, 75.86714
1865.280, 75.89242
1867.209, 76.12349
1869.137, 75.86665
1871.066, 75.10188
1872.994, 74.69783
1874.923, 74.38006
1876.851, 74.01853
1878.780, 73.99125
1880.708, 74.25054
1882.636, 74.47430
1884.565, 74.35510
1886.493, 73.83756
1888.422, 73.39808
1890.350, 73.20847
1892.279, 73.28924
1894.207, 73.32180
1896.136, 72.87478
1898.064, 72.65382
1899.993, 72.61126
1901.921, 72.08971
1903.850, 71.62900
1905.778, 71.55235
1907.707, 71.45327
1909.635, 71.12339
1911.563, 70.91206
1913.492, 71.01730
1915.420, 70.75469
1917.349, 70.22998
1919.277, 70.11065
1921.206, 70.10932
1923.134, 69.90447
1925.063, 69.56072
1926.991, 69.12350
1928.920, 69.27933
1930.848, 69.65393
1932.777, 68.87863
1934.705, 68.07989
1936.634, 68.32406
1938.562, 68.56278
1940.490, 68.07217
1942.419, 67.90171
1944.347, 68.01715
1946.276, 68.14359
1948.204, 67.87422
1950.133, 67.08208
1952.061, 66.97438
1953.990, 67.16026
1955.918, 67.17332
1957.847, 66.83537
1959.775, 66.18806
1961.704, 65.84047
1963.632, 65.51072
1965.561, 65.26138
1967.489, 65.19594
1969.417, 65.14182
1971.346, 65.29905
1973.274, 65.33963
1975.203, 64.86999
1977.131, 64.38138
1979.060, 64.00191
1980.988, 63.73042
1982.917, 63.49276
1984.845, 63.23146
1986.774, 63.05252
1988.702, 63.13324
1990.631, 63.12452
1992.559, 62.98319
1994.488, 62.78468
1996.416, 62.63116
1998.344, 62.51768
2000.273, 62.28123
2002.201, 62.10279
2004.130, 61.94979
2006.058, 61.72686
2007.987, 61.80970
2009.915, 61.81863
2011.844, 61.40187
2013.772, 61.12400
2015.701, 60.88980
2017.629, 60.16794
2019.558, 59.73012
2021.486, 59.72898
2023.415, 59.72788
2025.343, 59.70824
2027.271, 59.46175
2029.200, 59.20090
2031.128, 59.02001
2033.057, 58.60559
2034.985, 58.15413
2036.914, 58.09200
2038.842, 58.09275
2040.771, 58.01628
2042.699, 57.73102
2044.628, 57.62616
2046.556, 57.71818
2048.485, 57.46324
2050.413, 56.96859
2052.342, 56.97297
2054.270, 57.05814
2056.198, 56.54826
2058.127, 56.19847
2060.055, 55.95916
2061.984, 55.65170
2063.912, 55.68548
2065.841, 55.83722
2067.769, 55.60228
2069.698, 55.31512
2071.626, 55.08921
2073.555, 54.86385
2075.483, 54.80817
2077.412, 54.62432
2079.340, 54.17124
2081.269, 54.17616
2083.197, 54.32133
2085.125, 54.11150
2087.054, 53.71279
2088.982, 53.42257
2090.911, 52.87801
2092.839, 52.54877
2094.768, 52.86382
2096.696, 52.92218
2098.625, 52.87476
2100.553, 52.66024
2102.482, 52.45552
2104.410, 52.30119
2106.339, 51.98009
2108.267, 51.57664
2110.196, 51.57031
2112.124, 51.62753
2114.052, 51.52083
2115.981, 51.17872
2117.909, 50.99498
2119.838, 50.68289
2121.766, 50.29221
2123.695, 50.62502
2125.623, 50.76605
2127.552, 50.32948
2129.480, 49.79589
2131.409, 49.60549
2133.337, 49.67039
2135.266, 49.56770
2137.194, 49.29500
2139.123, 49.12750
2141.051, 49.02007
2142.979, 48.67832
2144.908, 48.29081
2146.836, 47.99157
2148.765, 48.25391
2150.693, 48.21898
2152.622, 47.56909
2154.550, 47.41253
2156.479, 47.45545
2158.407, 47.48302
2160.336, 47.29413
2162.264, 46.84285
2164.193, 46.71056
2166.121, 46.80663
2168.050, 46.90991
2169.978, 46.86032
2171.906, 46.55622
2173.835, 46.00063
2175.763, 45.64195
2177.692, 45.58980
2179.620, 45.35021
2181.549, 45.08162
2183.477, 44.97777
2185.406, 45.10699
2187.334, 45.12703
2189.263, 44.61062
2191.191, 44.30010
2193.120, 44.55527
2195.048, 44.74128
2196.977, 44.68023
2198.905, 44.26836
2200.833, 43.76656
2202.762, 43.29093
2204.690, 43.10335
2206.619, 43.01333
2208.547, 42.72445
2210.476, 42.77571
2212.404, 43.13351
2214.333, 42.99402
2216.261, 42.57698
2218.190, 42.16243
2220.118, 42.15031
2222.047, 42.27591
2223.975, 41.78788
2225.904, 41.56025
2227.832, 41.87143
2229.760, 41.62151
2231.689, 41.21949
2233.617, 41.16524
2235.546, 40.97066
2237.474, 40.66415
2239.403, 40.39880
2241.331, 40.29113
2243.260, 40.42283
2245.188, 40.15886
2247.117, 39.84023
2249.045, 39.87949
2250.974, 39.65705
2252.902, 39.31507
2254.831, 39.42749
2256.759, 39.29967
2258.688, 38.83829
2260.616, 38.59203
2262.544, 38.51686
2264.473, 38.93549
2266.401, 39.15888
2268.330, 38.91948
2270.258, 38.81364
2272.187, 38.55347
2274.115, 37.89930
2276.044, 37.70796
2277.972, 37.71853
2279.901, 37.48769
2281.829, 37.29836
2283.758, 37.13306
2285.686, 37.05810
2287.615, 36.89050
2289.543, 36.57553
2291.471, 36.42923
2293.400, 36.29898
2295.328, 36.13213
2297.257, 35.77785
2299.185, 35.39920
2301.114, 35.54174
2303.042, 35.65841
2304.971, 35.50417
2306.899, 35.36962
2308.828, 35.20431
2310.756, 34.88268
2312.685, 35.07068
2314.613, 35.30227
2316.542, 34.60710
2318.470, 34.41114
2320.398, 34.88520
2322.327, 34.41085
2324.255, 34.02861
2326.184, 34.49440
2328.112, 34.10315
2330.041, 33.45933
2331.969, 33.59024
2333.898, 33.68338
2335.826, 33.59557
2337.755, 33.13619
2339.683, 32.82718
2341.612, 32.92442
2343.540, 32.79959
2345.469, 32.61218
2347.397, 32.48169
2349.325, 32.21675
2351.254, 32.01223
2353.182, 32.43646
2355.111, 32.55162
2357.039, 32.19445
2358.968, 31.64129
2360.896, 31.35394
2362.825, 31.44154
2364.753, 31.50847
2366.682, 31.54666
2368.610, 31.56462
2370.539, 31.08124
2372.467, 30.46082
2374.396, 30.84848
2376.324, 30.95243
2378.252, 30.62563
2380.181, 30.74478
2382.109, 30.64678
2384.038, 29.98540
2385.966, 29.95641
2387.895, 30.11132
2389.823, 30.06704
2391.752, 29.72973
2393.680, 29.34032
2395.609, 29.24141
2397.537, 29.33040
2399.466, 29.48277
2401.394, 29.03315
2403.323, 28.73522
2405.251, 28.83243
2407.179, 28.75589
2409.108, 28.60153
2411.036, 28.38013
2412.965, 28.26807
2414.893, 28.21182
2416.822, 28.13015
2418.750, 27.92949
2420.679, 27.69201
2422.607, 27.63298
2424.536, 27.57247
2426.464, 27.45281
2428.393, 27.12823
2430.321, 26.99809
2432.250, 27.23201
2434.178, 26.83266
2436.106, 26.56731
2438.035, 26.89075
2439.963, 26.63933
2441.892, 26.24967
2443.820, 26.15204
2445.749, 26.28816
2447.677, 26.41622
2449.606, 26.04679
2451.534, 25.77999
2453.463, 25.72397
2455.391, 25.77122
2457.320, 25.68395
2459.248, 25.41386
2461.177, 25.40761
2463.105, 25.21844
2465.033, 24.60384
2466.962, 24.86593
2468.890, 25.12887
2470.819, 24.60820
2472.747, 24.40618
2474.676, 24.42418
2476.604, 24.71152
2478.533, 24.66126
2480.461, 24.47351
2482.390, 24.42500
2484.318, 24.14344
2486.247, 23.73969
2488.175, 23.41313
2490.104, 23.44277
2492.032, 23.78018
2493.960, 23.59726
2495.889, 23.91397
2497.817, 24.83491
2499.746, 23.93014
2501.674, 23.03750
2503.603, 22.78898
2505.531, 22.65392
2507.460, 22.55288
2509.388, 22.36596
2511.317, 22.29956
2513.245, 22.30693
2515.174, 22.31579
2517.102, 22.18987
2519.031, 21.97506
2520.959, 21.70365
2522.887, 21.59732
2524.816, 21.59711
2526.744, 21.68139
2528.673, 21.35724
2530.601, 20.90689
2532.530, 20.97526
2534.458, 20.87222
2536.387, 20.84067
2538.315, 21.05182
2540.244, 21.19143
2542.172, 21.04029
2544.101, 20.71192
2546.029, 20.66532
2547.958, 20.83351
2549.886, 20.75305
2551.814, 20.51732
2553.743, 20.17186
2555.671, 20.04504
2557.600, 20.06758
2559.528, 20.04172
2561.457, 19.98995
2563.385, 19.87269
2565.314, 19.57421
2567.242, 19.57380
2569.171, 19.66247
2571.099, 19.73083
2573.028, 19.55165
2574.956, 19.23947
2576.885, 19.06074
2578.813, 19.16303
2580.741, 19.01785
2582.670, 18.67755
2584.598, 18.62952
2586.527, 18.59318
2588.455, 18.59640
2590.384, 18.51106
2592.312, 18.34286
2594.241, 18.13116
2596.169, 17.96979
2598.098, 17.97720
2600.026, 18.10256
2601.955, 17.95002
2603.883, 17.81577
2605.812, 17.83274
2607.740, 17.83127
2609.668, 17.71094
2611.597, 17.50731
2613.525, 17.90560
2615.454, 17.98445
2617.382, 17.19261
2619.311, 16.92078
2621.239, 17.50884
2623.168, 18.15308
2625.096, 17.92647
2627.025, 17.79042
2628.953, 17.98676
2630.882, 17.21646
2632.810, 16.42412
2634.739, 15.98678
2636.667, 17.01638
2638.595, 17.11890
2640.524, 16.33566
2642.452, 16.00999
2644.381, 15.88478
2646.309, 15.93455
2648.238, 15.95609
2650.166, 15.93968
2652.095, 15.71712
2654.023, 15.21517
2655.952, 14.96044
2657.880, 14.97930
2659.809, 14.88077
2661.737, 15.10861
2663.666, 15.36494
2665.594, 15.13497
2667.522, 14.98716
2669.451, 14.92692
2671.379, 14.86057
2673.308, 14.81146
2675.236, 14.53454
2677.165, 14.33653
2679.093, 14.38828
2681.022, 14.45458
2682.950, 14.30793
2684.879, 14.02052
2686.807, 13.96651
2688.736, 14.36369
2690.664, 14.40212
2692.593, 14.06321
2694.521, 13.59158
2696.449, 13.39685
2698.378, 13.48892
2700.306, 13.64366
2702.235, 13.72817
2704.163, 13.63639
2706.092, 13.25235
2708.020, 12.99057
2709.949, 13.00466
2711.877, 13.27337
2713.806, 13.06277
2715.734, 12.76846
2717.663, 12.80825
2719.591, 12.97527
2721.520, 13.02053
2723.448, 12.88283
2725.376, 12.73111
2727.305, 12.62089
2729.233, 12.52779
2731.162, 12.44786
2733.090, 12.50020
2735.019, 12.38210
2736.947, 11.79575
2738.876, 11.95076
2740.804, 12.12773
2742.733, 11.99742
2744.661, 11.93647
2746.590, 11.97165
2748.518, 11.87906
2750.447, 11.41829
2752.375, 11.37699
2754.303, 11.91434
2756.232, 11.99006
2758.160, 11.84677
2760.089, 11.48616
2762.017, 11.51656
2763.946, 11.31444
2765.874, 10.85970
2767.803, 10.74335
2769.731, 11.05077
2771.660, 11.25982
2773.588, 10.83916
2775.517, 10.52811
2777.445, 10.53788
2779.374, 10.86041
2781.302, 10.59910
2783.230, 10.50978
2785.159, 10.60500
2787.087, 10.72815
2789.016, 10.70913
2790.944, 10.53294
2792.873, 10.10633
2794.801, 9.980570
2796.730, 10.24875
2798.658, 10.28017
2800.587, 10.11314
2802.515, 9.980546
2804.444, 9.835990
2806.372, 9.473083
2808.301, 9.421799
2810.229, 10.04552
2812.157, 9.743943
2814.086, 9.569495
2816.014, 9.659895
2817.943, 9.520540
2819.871, 9.266835
2821.800, 9.115987
2823.728, 8.872565
2825.657, 9.284864
2827.585, 9.355330
2829.514, 8.734415
2831.442, 9.134684
2833.371, 9.141439
2835.299, 8.685058
2837.228, 8.949352
2839.156, 8.859063
2841.084, 8.416512
2843.013, 8.502695
2844.941, 8.517824
2846.870, 8.449007
2848.798, 8.316432
2850.727, 8.247791
2852.655, 8.234779
2854.584, 8.371346
2856.512, 8.326571
2858.441, 8.075832
2860.369, 8.077503
2862.298, 8.505034
2864.226, 8.489091
2866.155, 8.313282
2868.083, 8.047477
2870.011, 8.252206
2871.940, 8.292819
2873.868, 7.983034
2875.797, 7.767833
2877.725, 7.762609
2879.654, 7.723416
2881.582, 7.623230
2883.511, 7.300021
2885.439, 6.935358
2887.368, 7.263273
2889.296, 7.505709
2891.225, 7.519441
2893.153, 7.280566
2895.082, 7.219526
2897.010, 6.983639
2898.938, 6.780705
2900.867, 7.155907
2902.795, 7.021650
2904.724, 7.006433
2906.652, 6.945971
2908.581, 6.537210
2910.509, 6.766562
2912.438, 7.038726
2914.366, 6.733292
2916.295, 6.715958
2918.223, 6.897786
2920.152, 6.790832
2922.080, 6.445005
2924.008, 6.491225
2925.937, 6.817341
2927.865, 6.600806
2929.794, 6.521051
2931.722, 6.603660
2933.651, 6.522020
2935.579, 6.483703
2937.508, 6.355960
2939.436, 6.205985
2941.365, 6.449632
2943.293, 6.597447
2945.221, 6.446686
2947.150, 5.932076
2949.078, 6.096784
2951.007, 6.319263
2952.935, 6.358049
2954.864, 6.154625
2956.792, 6.105999
2958.721, 6.064884
2960.649, 6.145166
2962.578, 5.653022
2964.506, 5.407318
2966.435, 5.839467
2968.363, 5.730582
2970.292, 5.515051
2972.220, 5.498320
2974.148, 5.623603
2976.077, 5.341078
2978.005, 5.185594
2979.934, 5.523318
2981.862, 5.907565
2983.791, 5.920063
2985.719, 5.601835
2987.648, 5.358839
2989.576, 5.186808
2991.505, 5.232090
2993.433, 5.349683
2995.362, 4.836049
2997.290, 5.286778
2999.219, 5.662622
3001.147, 5.473833
3003.075, 5.346800
3005.004, 5.202446
3006.932, 4.964960
3008.861, 4.915090
3010.789, 4.954607
3012.718, 5.024494
3014.646, 5.097590
3016.575, 5.047556
3018.503, 5.171861
3020.432, 5.165282
3022.360, 4.756911
3024.289, 4.897573
3026.217, 4.963391
3028.146, 4.830741
3030.074, 4.975333
3032.002, 4.942124
3033.931, 4.864067
3035.859, 4.626722
3037.788, 4.415373
3039.716, 4.496683
3041.645, 4.689612
3043.573, 4.727958
3045.502, 4.787139
3047.430, 4.806231
3049.359, 4.401971
3051.287, 4.279328
3053.216, 4.453392
3055.144, 4.640131
3057.073, 4.601110
3059.001, 3.831354
3060.929, 3.821893
3062.858, 4.135788
3064.786, 4.116398
3066.715, 4.096697
3068.643, 3.990114
3070.572, 4.052057
3072.500, 4.029997
3074.429, 3.727999
3076.357, 3.764509
3078.286, 4.109047
3080.214, 3.907961
3082.143, 3.866525
3084.071, 3.962943
3086.000, 3.930385
3087.928, 3.824372
3089.856, 3.771909
3091.785, 3.866798
3093.713, 3.853669
3095.642, 3.397769
3097.570, 3.489999
3099.499, 3.836504
3101.427, 3.465798
3103.356, 3.926900
3105.284, 3.939477
3107.213, 3.416682
3109.141, 3.210547
3111.070, 3.926589
3112.998, 4.104827
3114.927, 3.249845
3116.855, 3.283892
3118.783, 3.280342
3120.712, 3.285120
3122.640, 3.433171
3124.569, 3.395496
3126.497, 3.073933
3128.426, 2.911296
3130.354, 3.140204
3132.283, 3.204565
3134.211, 3.150054
3136.140, 3.148967
3138.068, 3.213680
3139.997, 2.929024
3141.925, 3.045918
3143.854, 3.461303
3145.782, 3.208506
3147.710, 3.174507
3149.639, 3.226821
3151.567, 3.200446
3153.496, 2.944196
3155.424, 3.008663
3157.353, 2.827085
3159.281, 2.493073
3161.210, 2.801713
3163.138, 2.715501
3165.067, 2.599715
3166.995, 2.615093
3168.924, 2.558098
3170.852, 2.581717
3172.781, 2.765266
3174.709, 2.956389
3176.637, 2.624789
3178.566, 2.694804
3180.494, 2.728729
3182.423, 2.536846
3184.351, 2.559572
3186.280, 2.521610
3188.208, 2.562488
3190.137, 2.712602
3192.065, 2.929052
3193.994, 2.657833
3195.922, 2.399085
3197.851, 2.423545
3199.779, 2.582643
3201.708, 2.389354
3203.636, 2.219529
3205.564, 2.214548
3207.493, 2.461214
3209.421, 2.542218
3211.350, 2.444541
3213.278, 2.269527
3215.207, 2.315720
3217.135, 2.634228
3219.064, 2.707307
3220.992, 2.506324
3222.921, 2.491733
3224.849, 2.353207
3226.778, 1.989046
3228.706, 1.747661
3230.635, 2.290417
3232.563, 2.321282
3234.491, 2.128703
3236.420, 2.046154
3238.348, 2.345109
3240.277, 2.510982
3242.205, 2.475274
3244.134, 2.356322
3246.062, 2.499646
3247.991, 2.099637
3249.919, 2.036954
3251.848, 2.100456
3253.776, 2.004308
3255.705, 1.703762
3257.633, 1.709452
3259.562, 1.902917
3261.490, 2.087275
3263.418, 2.031926
3265.347, 2.274673
3267.275, 2.304764
3269.204, 1.977720
3271.132, 1.947614
3273.061, 2.117293
3274.989, 2.073506
3276.918, 1.807583
3278.846, 1.495209
3280.775, 1.197216
3282.703, 1.480490
3284.632, 1.965602
3286.560, 1.919600
3288.489, 1.334474
3290.417, 1.950057
3292.345, 2.288341
3294.274, 2.364217
3296.202, 1.391790
3298.131, 1.773029
3300.059, 1.611788
3301.988, 1.428292
3303.916, 2.000067
3305.845, 1.180107
3307.773, 1.739904
3309.702, 1.748922
3311.630, 2.010023
3313.559, 1.725271
3315.487, 1.609123
3317.416, 2.038984
3319.344, 2.166519
3321.272, 1.818943
3323.201, 1.282812
3325.129, 1.261609
3327.058, 1.443690
3328.986, 1.175655
3330.915, 1.527307
3332.843, 1.743200
3334.772, 1.636488
3336.700, 1.370892
3338.629, 1.571680
3340.557, 1.519649
3342.486, 1.510074
3344.414, 1.692539
3346.343, 1.609452
3348.271, 1.626562
3350.199, 1.712707
3352.128, 1.684349
3354.056, 1.359046
3355.985, 1.259608
3357.913, 1.364526
3359.842, 1.376472
3361.770, 1.250246
3363.699, 1.696019
3365.627, 1.615710
3367.556, 1.656883
3369.484, 1.761959
3371.413, 1.341402
3373.341, 1.872346
3375.270, 1.875302
3377.198, 1.498604
3379.126, 1.220871
3381.055, 1.563717
3382.983, 1.490005
3384.912, 1.106271
3386.840, 0.9563701
3388.769, 1.482482
3390.697, 1.067328
3392.626, 1.226635
3394.554, 1.551071
3396.483, 1.672218
3398.411, 1.653756
3400.340, 1.746093
3402.268, 1.951095
3404.197, 1.859779
3406.125, 1.342968
3408.053, 1.417552
3409.982, 1.396208
3411.910, 1.001592
3413.839, 0.6711844
3415.767, 1.024120
3417.696, 1.148939
3419.624, 1.393702
3421.553, 1.427362
3423.481, 1.174805
3425.410, 0.9029261
3427.338, 1.139302
3429.267, 1.308796
3431.195, 1.470792
3433.124, 1.622532
3435.052, 0.8427885
3436.980, 1.220185
3438.909, 1.260914
3440.837, 1.210034
3442.766, 1.726459
3444.694, 0.9947963
3446.623, 0.9979486
3448.551, 1.005944
3450.480, 0.9576089
3452.408, 1.307659
3454.337, 1.119299
3456.265, 0.7580143
3458.194, 0.9681736
3460.122, 1.454095
3462.051, 1.231014
3463.979, 1.336051
3465.907, 0.9973453
3467.836, 1.026416
3469.764, 1.433756
3471.693, 1.205176
3473.621, 1.057615
3475.550, 0.9411007
3477.478, 1.130553
3479.407, 1.368986
3481.335, 0.5992912
3483.264, 0.8777028
3485.192, 1.054668
3487.121, 1.059118
3489.049, 1.105303
3490.978, 1.415052
3492.906, 1.105644
3494.834, 0.9455455
3496.763, 1.056915
3498.691, 1.223621
3500.620, 1.015898
3502.548, 1.312356
3504.477, 1.010105
3506.405, 0.8999550
3508.334, 1.225029
3510.262, 1.008950
3512.191, 0.8767175
3514.119, 1.190104
3516.048, 1.038963
3517.976, 0.7284520
3519.905, 1.686865
3521.833, 0.5590986
3523.761, 1.355528
3525.690, 1.864070
3527.618, 1.185937
3529.547, 0.4934806
3531.475, 0.4869286
3533.404, 1.067614
3535.332, 1.272233
3537.261, 1.092418
3539.189, 0.9805145
3541.118, 0.4633222
3543.046, 1.035604
3544.975, 1.230721
3546.903, 1.149073
3548.832, 1.332188
3550.760, 1.062449
3552.688, 1.266244
3554.617, 1.260738
3556.545, 1.277282
3558.474, 1.368531
3560.402, 0.8209146
3562.331, 1.064146
3564.259, 1.032969
3566.188, 0.9216433
3568.116, 1.003520
3570.045, 1.301281
3571.973, 1.666728
3573.902, 1.336626
3575.830, 1.373692
3577.759, 1.420260
3579.687, 0.9565806
3581.615, 1.258006
3583.544, 1.306994
3585.472, 1.019306
3587.401, 0.8706853
3589.329, 1.095107
3591.258, 1.472340
3593.186, 1.193261
3595.115, 1.435708
3597.043, 1.782198
3598.972, 1.786238
3600.900, 1.443434
3602.829, 1.606717
3604.757, 1.651569
3606.686, 1.420518
3608.614, 1.403271
3610.542, 1.756289
3612.471, 2.129107
3614.399, 2.067340
3616.328, 2.043470
3618.256, 2.302496
3620.185, 2.234869
3622.113, 1.631224
3624.042, 1.746300
3625.970, 1.843442
3627.899, 1.845504
3629.827, 1.784209
3631.756, 1.635200
3633.684, 1.439949
3635.613, 1.706442
3637.541, 1.814163
3639.469, 1.542293
3641.398, 1.537432
3643.326, 1.691538
3645.255, 1.123556
3647.183, 0.5910147
3649.112, 1.021358
3651.040, 0.9572270
3652.969, 1.014255
3654.897, 1.543929
3656.826, 1.230705
3658.754, 0.7517234
3660.683, 0.8641509
3662.611, 1.388471
3664.540, 1.748373
3666.468, 1.618960
3668.396, 1.184443
3670.325, 0.9599637
3672.253, 0.9788426
3674.182, 0.7919298
3676.110, 0.9444124
3678.039, 1.578937
3679.967, 1.324964
3681.896, 1.024956
3683.824, 0.5996921
3685.753, 0.9002555
3687.681, 1.243038
3689.610, 0.9214426
3691.538, 0.6825907
3693.467, 0.6302725
3695.395, 0.9037433
3697.323, 0.8205145
3699.252, 0.6049953
3701.180, 0.6732179
3703.109, 0.9115288
3705.037, 0.6437937
3706.966, 0.7873642
3708.894, 0.8159954
3710.823, 0.6547850
3712.751, 0.6914778
3714.680, 1.316944
3716.608, 0.5075954
3718.537, 0.4501531
3720.465, 0.2969128
3722.394, 0.6702546
3724.322, 1.308628
3726.250, 1.073734
3728.179, 0.2853586
3730.107, 0.3228524
3732.036, 0.1439388
3733.964, -2.0548929E-03
3735.893, -2.2028960E-02
3737.821, 3.7645239E-02
3739.750, 0.4321405
3741.678, 0.6328261
3743.607, 0.7072433
3745.535, 0.7163791
3747.464, 0.6020555
3749.392, 0.5246593
3751.321, 0.7029625
3753.249, 0.5183146
3755.177, 0.4816532
3757.106, 0.4945232
3759.034, 0.4034098
3760.963, 0.4589965
3762.891, 0.8101423
3764.820, 1.039515
3766.748, 1.008070
3768.677, 1.063830
3770.605, 1.113083
3772.534, 1.107239
3774.462, 0.9274546
3776.391, 0.5479144
3778.319, 0.5526204
3780.248, 1.041845
3782.176, 0.7233422
3784.104, 0.5066398
3786.033, 0.5198258
3787.961, 0.5369150
3789.890, 0.6583038
3791.818, 1.204107
3793.747, 0.4532515
3795.675, 0.8438933
3797.604, 0.7871619
3799.532, 0.6510779
3801.461, 0.7602710
3803.389, 0.2369270
3805.318, 0.8736703
3807.246, 0.9412982
3809.175, 0.3557574
3811.103, 0.7923091
3813.031, 1.114245
3814.960, 0.6291491
3816.888, 0.5979100
3818.817, 0.3261867
3820.745, 0.1103419
3822.674, 0.9567838
3824.602, 1.121807
3826.531, 0.7338787
3828.459, 0.6234838
3830.388, 0.9183801
3832.316, 0.7414172
3834.245, 0.9833464
3836.173, 0.2363737
3838.102, 0.2494521
3840.030, 0.4276974
3841.958, 0.3035636
3843.887, 0.3876902
3845.815, 0.7886831
3847.744, 0.8546042
3849.672, 0.4610303
3851.601, 0.2383969
3853.529, 0.3084945
3855.458, 0.6116857
3857.386, 0.7514631
3859.315, 0.2899065
3861.243, 0.4105382
3863.172, 1.022914
3865.100, 0.2304925
3867.029, 0.6269334
3868.957, 1.266210
3870.885, 0.9990999
3872.814, 0.2752334
3874.742, -0.2889789
3876.671, 0.2888651
3878.599, 1.067962
3880.528, 0.8963074
3882.456, 0.7953219
3884.385, 0.9517371
3886.313, 0.7525623
3888.242, 0.1145222
3890.170, 0.3634246
3892.099, 0.3046476
3894.027, 0.4968781
3895.956, 0.7202785
3897.884, 0.3145591
3899.813, 9.2966892E-02
3901.741, 0.5858678
3903.669, 0.9746872
3905.598, 0.2583973
3907.526, 0.5525011
3909.455, 0.5241846
3911.383, 0.1210756
3913.312, 0.7301571
3915.240, 0.9775068
3917.169, 0.5540914
3919.097, 0.6352159
3921.026, 0.2671079
3922.954, 0.4695080
3924.883, -0.2930509
3926.811, 0.3011201
3928.740, 0.8563326
3930.668, 0.2510974
3932.596, 5.9961360E-02
3934.525, 0.9312119
3936.453, 0.5091100
3938.382, 0.7142293
3940.310, 1.080473
3942.239, 0.5324703
3944.167, 0.5758521
3946.096, 0.8218288
3948.024, 0.6821588
3949.953, 0.7405174
3951.881, 1.141659
3953.810, 0.2432333
3955.738, 0.5481513
3957.667, -0.2491207
3959.595, 0.6475192
3961.523, 0.7468440
3963.452, 0.2093157
3965.380, 8.1072323E-02
3967.309, 0.2170739
3969.237, 0.4515129
3971.166, 0.6589066
3973.094, 0.8434399
3975.023, 0.3739717
3976.951, 0.3990989
3978.880, 0.3677936
3980.808, 0.4558557
3982.737, -0.2237914
3984.665, -0.2161833
3986.594, 0.1789685
3988.522, -3.8300630E-02
3990.450, -0.2729699
3992.379, 5.4185539E-02
3994.307, 0.6784142
3996.236, 0.1980838
3998.164, 0.6306008
4000.093, 0.5483270
4002.021, 0.2569476
4003.950, 5.2469011E-02
4005.878, 0.3088793
4007.807, 0.5107596
4009.735, 3.6099430E-02
4011.664, 0.2172229
4013.592, -0.1064134
4015.521, -0.1049924
4017.449, -0.2220796
4019.377, 1.1669820E-02
4021.306, 5.5637609E-02
4023.234, -7.0460223E-02
4025.163, 0.1073635
4027.091, 0.4947758
4029.020, 0.4366671
4030.948, 0.2072504
4032.877, -8.1732057E-02
4034.805, 0.4579911
4036.734, -4.4399789E-03
4038.662, -0.1149487
4040.591, 0.1465664
4042.519, -2.5060959E-02
4044.448, -0.2130759
4046.376, 4.1318011E-02
4048.304, -0.2767068
4050.233, 0.1321826
4052.161, 7.3950693E-02
4054.090, 0.2937270
4056.018, 0.6347649
4057.947, 0.3421687
4059.875, 0.1042631
4061.804, 0.2848616
4063.732, 0.4674892
4065.661, 0.3238360
4067.589, 0.1836126
4069.518, 0.4545322
4071.446, -0.4394879
4073.375, 8.3550230E-02
4075.303, 0.5381420
4077.231, 0.3773689
4079.160, 0.4232992
4081.088, 0.1509160
4083.017, -0.1820005
4084.945, 8.9301907E-02
4086.874, 0.6076041
4088.802, 0.5861692
4090.731, 0.3701814
4092.659, 0.2518690
4094.588, 0.5157396
4096.516, 0.6304063
4098.444, -0.1415394
4100.373, 0.3872606
4102.301, 0.4096985
4104.230, 0.2368654
4106.158, 0.1857212
4108.087, -0.2142432
4110.015, 4.6674471E-02
4111.944, 3.9376490E-02
4113.872, -0.5506805
4115.801, 0.2945925
4117.729, 0.2480513
4119.658, -0.1610027
4121.586, 0.3965320
4123.515, -5.3856149E-02
4125.443, -5.3080730E-03
4127.372, 0.4308727
4129.300, 0.4286872
4131.229, 0.3016454
4133.157, -0.3441251
4135.085, -0.3752649
4137.014, -0.2003914
4138.942, -0.1033555
4140.871, -0.1433102
4142.799, 0.5625519
4144.728, 5.1956542E-02
4146.656, 0.1294498
4148.584, 0.3161308
4150.513, 0.5410120
4152.441, 0.1528541
4154.370, -0.3015797
4156.298, 0.6076965
4158.227, 0.6169761
4160.155, 0.2246798
4162.084, 0.2217878
4164.012, 0.2252077
4165.941, -3.5766000E-03
4167.869, -0.1678747
4169.798, 6.6918328E-02
4171.726, 0.1109828
4173.655, -0.2052317
4175.583, -1.1545510E-02
4177.512, 0.5278754
4179.440, 0.4254279
4181.369, -7.6320390E-03
4183.297, 9.2545003E-02
4185.226, -0.1717988
4187.154, 0.1192610
4189.083, 7.5304858E-02
4191.011, 1.2343760E-02
4192.939, 0.4457847
4194.868, 3.7728500E-02
4196.796, -9.9116258E-02
4198.725, -0.1655350
4200.653, -0.3925073
4202.582, 2.0894250E-02
4204.510, 0.5111480
4206.438, 0.3087157
4208.367, 0.2219044
4210.295, 0.5627256
4212.224, 0.3064547
4214.152, 0.5672489
4216.081, -2.3934990E-02
4218.009, 0.3976659
4219.938, 0.2342932
4221.866, -0.3377478
4223.795, 0.2330513
4225.723, 0.5012128
4227.652, -0.2787751
4229.580, -0.4918017
4231.509, 0.1508515
4233.437, 0.4754447
4235.366, -0.3116553
4237.294, -0.4319560
4239.223, 0.3106957
4241.151, 0.2230763
4243.080, 8.6050838E-02
4245.008, -9.2877736E-03
4246.937, 1.6953301E-02
4248.865, 0.9775543
4250.793, -0.1728372
4252.722, -2.4228770E-02
4254.650, -0.1731665
4256.579, 0.2355643
4258.507, 5.9405230E-02
4260.436, -4.5941491E-03
4262.364, -0.1817389
4264.292, 0.1834669
4266.221, -0.1473818
4268.149, 2.8859491E-02
4270.078, 0.2521790
4272.006, 2.7461501E-02
4273.935, 0.2975198
4275.863, 0.4690331
4277.792, 2.4866231E-02
4279.720, 0.2386749
4281.649, 0.7283302
##END=



