##NAMES=Bussyite-(Ce)
##RRUFFID=R120059
##IDEAL CHEMISTRY=(Ce,REE)_3_(Na,H_2_O)_6_MnSi_9_Be_5_(O,OH)_30_F_4_
##LOCALITY=Mont Saint-Hilaire, Rouville RCM, Montérégie, Québec, Canada
##OWNER=RRUFF
##SOURCE=Donald Doell
##DESCRIPTION=Sprays of pale yellow, elongated crystals, associated with catapleiite, albite and aegirine
##STATUS=The identification of this mineral has been confirmed only by single crystal X-ray diffraction
##URL=https://www.rruff.net/odr/rruff_sample/R120059
##DIFFRACTION SAMPLE DESCRIPTION=Single crystal, powder profile is calculated
##CELL PARAMETERS=a: 11.663 b: 13.911 c: 16.577 alpha: 90 beta: 95.981 gamma: 90 volume: 2674.7 crystal system: monoclinic
##FILETYPE=Raman Processed
##RAMAN WAVELENGTH=532

198.3804, 669.0895
200.3089, 674.3071
202.2373, 676.6090
204.1658, 680.1093
206.0943, 686.3041
208.0227, 694.9453
209.9512, 702.4274
211.8797, 708.8985
213.8081, 714.0866
215.7366, 717.9951
217.6651, 720.3848
219.5935, 721.7246
221.5220, 721.6913
223.4505, 720.1650
225.3789, 719.3953
227.3074, 719.6836
229.2359, 720.4493
231.1643, 721.1843
233.0928, 721.8527
235.0213, 722.3030
236.9497, 722.6269
238.8782, 722.7234
240.8067, 722.0420
242.7351, 720.3041
244.6636, 717.8750
246.5921, 715.0270
248.5205, 711.2055
250.4490, 707.7751
252.3775, 705.3410
254.3059, 703.8353
256.2344, 702.4538
258.1629, 700.6656
260.0913, 699.2242
262.0198, 699.1400
263.9483, 700.6232
265.8767, 702.9314
267.8052, 706.0427
269.7337, 709.8518
271.6621, 713.5248
273.5906, 716.8383
275.5191, 719.7205
277.4475, 721.9713
279.3760, 723.1708
281.3045, 724.1647
283.2329, 725.2465
285.1614, 726.4997
287.0899, 727.5859
289.0183, 729.0557
290.9468, 730.4445
292.8753, 731.3635
294.8037, 731.9042
296.7322, 732.2725
298.6607, 732.3369
300.5891, 731.9698
302.5176, 732.3635
304.4461, 733.7029
306.3745, 735.4180
308.3030, 736.9389
310.2315, 737.9082
312.1599, 739.0939
314.0884, 740.9128
316.0169, 743.4143
317.9453, 745.4850
319.8738, 746.9627
321.8023, 748.3864
323.7307, 749.9617
325.6592, 750.9086
327.5877, 753.5170
329.5161, 758.5234
331.4446, 765.6561
333.3731, 772.6699
335.3015, 778.5626
337.2300, 784.9785
339.1585, 792.7021
341.0869, 801.7817
343.0154, 812.3447
344.9439, 824.4164
346.8723, 838.2460
348.8008, 854.1649
350.7293, 876.4951
352.6578, 896.5028
354.5862, 910.7713
356.5147, 918.0291
358.4432, 920.8062
360.3716, 916.8336
362.3001, 908.5533
364.2286, 899.6028
366.1570, 889.4103
368.0855, 879.2028
370.0140, 869.4294
371.9424, 860.2079
373.8709, 850.9508
375.7994, 841.2648
377.7278, 831.8234
379.6563, 823.1849
381.5848, 815.3953
383.5132, 808.3775
385.4417, 801.7414
387.3702, 795.6975
389.2986, 791.3456
391.2271, 789.9521
393.1556, 789.2880
395.0840, 787.9865
397.0125, 785.5227
398.9410, 783.3132
400.8694, 780.7861
402.7979, 778.7369
404.7264, 778.5673
406.6548, 781.4057
408.5833, 784.7930
410.5118, 787.7849
412.4402, 790.3431
414.3687, 792.3030
416.2972, 791.6876
418.2256, 791.4844
420.1541, 795.0847
422.0826, 805.4241
424.0110, 814.2103
425.9395, 819.4242
427.8680, 820.9982
429.7964, 821.1471
431.7249, 817.7912
433.6534, 814.6392
435.5818, 813.7678
437.5103, 815.7063
439.4388, 817.7077
441.3672, 819.1555
443.2957, 820.2129
445.2242, 821.3325
447.1526, 822.2886
449.0811, 823.5182
451.0096, 825.3522
452.9380, 827.8844
454.8665, 830.3207
456.7950, 832.3651
458.7234, 834.5931
460.6519, 837.5797
462.5804, 841.3391
464.5089, 845.5947
466.4373, 850.4874
468.3658, 855.8039
470.2943, 860.9622
472.2227, 864.7626
474.1512, 869.2567
476.0797, 875.2900
478.0081, 882.7831
479.9366, 891.2228
481.8651, 901.3897
483.7935, 912.2737
485.7220, 923.0462
487.6505, 934.1852
489.5789, 944.8834
491.5074, 955.7360
493.4359, 966.0621
495.3643, 974.4114
497.2928, 981.0219
499.2213, 984.5330
501.1497, 984.6514
503.0782, 981.1042
505.0067, 973.5358
506.9351, 960.8192
508.8636, 944.8213
510.7921, 927.0082
512.7205, 905.8866
514.6490, 887.4149
516.5775, 871.7319
518.5059, 859.3447
520.4344, 852.4598
522.3629, 855.7959
524.2913, 858.9249
526.2198, 856.6439
528.1483, 849.0583
530.0767, 843.8423
532.0052, 842.8740
533.9337, 844.0995
535.8621, 846.3398
537.7906, 850.1734
539.7191, 853.7203
541.6475, 856.5000
543.5760, 858.7125
545.5045, 860.6837
547.4329, 862.4435
549.3614, 863.5681
551.2899, 863.8174
553.2183, 863.0819
555.1468, 861.9131
557.0753, 859.5212
559.0037, 857.6418
560.9322, 857.3737
562.8607, 859.4691
564.7891, 861.3588
566.7176, 862.7186
568.6461, 863.9125
570.5745, 865.3065
572.5030, 866.5819
574.4315, 868.6522
576.3599, 871.8698
578.2884, 876.0369
580.2169, 880.7044
582.1453, 885.4080
584.0738, 890.9363
586.0023, 897.7839
587.9307, 905.8576
589.8592, 914.0758
591.7877, 923.0031
593.7161, 931.3087
595.6447, 938.2332
597.5731, 943.4976
599.5016, 947.7983
601.4301, 951.5761
603.3585, 954.4771
605.2870, 956.0565
607.2155, 956.3339
609.1439, 955.6578
611.0724, 954.1550
613.0009, 951.8058
614.9293, 948.3632
616.8578, 942.0018
618.7863, 936.1181
620.7147, 932.1641
622.6432, 929.8814
624.5717, 927.3010
626.5001, 923.7205
628.4286, 920.4797
630.3571, 918.5012
632.2855, 918.8609
634.2140, 918.7020
636.1425, 917.1062
638.0709, 915.5825
639.9994, 915.7816
641.9279, 917.9598
643.8563, 920.2584
645.7848, 921.7694
647.7133, 922.8447
649.6417, 924.3716
651.5702, 927.4820
653.4987, 929.5568
655.4271, 929.3267
657.3556, 927.5336
659.2841, 926.7581
661.2125, 928.2288
663.1410, 929.6555
665.0695, 930.3118
666.9979, 930.2794
668.9264, 929.6035
670.8549, 927.1800
672.7833, 925.1222
674.7118, 924.9977
676.6403, 926.7097
678.5687, 928.4428
680.4972, 929.3947
682.4257, 930.3278
684.3541, 931.8663
686.2826, 935.1135
688.2111, 937.3680
690.1395, 937.6151
692.0680, 937.2025
693.9965, 937.9467
695.9249, 939.9641
697.8534, 942.7661
699.7819, 946.8927
701.7103, 951.6583
703.6388, 955.1982
705.5673, 957.2192
707.4957, 958.4258
709.4242, 959.0688
711.3527, 959.0034
713.2811, 957.7689
715.2096, 954.5557
717.1381, 951.1409
719.0665, 947.5847
720.9950, 943.6692
722.9235, 942.4099
724.8519, 945.1768
726.7804, 948.9797
728.7089, 952.8502
730.6373, 956.8280
732.5658, 959.9461
734.4943, 961.5080
736.4227, 962.7031
738.3512, 964.1441
740.2797, 965.7327
742.2081, 967.5972
744.1366, 969.5197
746.0651, 971.6356
747.9935, 974.2523
749.9220, 977.4586
751.8505, 980.2996
753.7789, 982.3178
755.7074, 984.1055
757.6359, 986.2480
759.5643, 989.5148
761.4928, 992.0137
763.4213, 993.0284
765.3497, 993.5058
767.2782, 994.7374
769.2067, 996.7446
771.1351, 999.3397
773.0636, 1002.991
774.9921, 1007.078
776.9205, 1010.597
778.8490, 1012.544
780.7775, 1015.051
782.7059, 1018.751
784.6344, 1023.002
786.5629, 1026.412
788.4913, 1028.697
790.4198, 1030.744
792.3483, 1032.643
794.2767, 1034.659
796.2052, 1037.354
798.1337, 1039.892
800.0621, 1044.600
801.9906, 1052.053
803.9191, 1062.159
805.8475, 1074.727
807.7760, 1093.302
809.7045, 1108.245
811.6329, 1116.177
813.5614, 1117.703
815.4899, 1112.980
817.4183, 1095.151
819.3468, 1078.983
821.2753, 1068.287
823.2037, 1062.738
825.1322, 1059.230
827.0607, 1059.438
828.9891, 1059.550
830.9176, 1057.011
832.8461, 1053.268
834.7745, 1052.518
836.7030, 1053.511
838.6315, 1060.218
840.5599, 1075.836
842.4884, 1099.289
844.4169, 1121.217
846.3453, 1137.170
848.2738, 1156.010
850.2023, 1183.517
852.1307, 1216.195
854.0592, 1245.121
855.9877, 1274.803
857.9161, 1291.700
859.8446, 1290.385
861.7731, 1272.293
863.7015, 1247.991
865.6300, 1210.165
867.5585, 1175.105
869.4869, 1147.679
871.4154, 1126.794
873.3439, 1108.994
875.2723, 1094.809
877.2008, 1082.927
879.1293, 1072.696
881.0577, 1064.259
882.9862, 1058.276
884.9147, 1056.104
886.8431, 1054.884
888.7716, 1054.179
890.7001, 1054.026
892.6285, 1054.433
894.5570, 1055.311
896.4855, 1056.692
898.4139, 1058.417
900.3424, 1060.610
902.2709, 1063.790
904.1993, 1069.556
906.1278, 1073.766
908.0563, 1074.632
909.9847, 1073.645
911.9132, 1073.970
913.8417, 1076.364
915.7701, 1077.777
917.6986, 1076.267
919.6271, 1073.979
921.5555, 1073.661
923.4840, 1076.309
925.4125, 1078.707
927.3410, 1080.324
929.2695, 1081.757
931.1979, 1083.540
933.1264, 1085.576
935.0549, 1088.288
936.9833, 1091.527
938.9118, 1095.281
940.8403, 1099.412
942.7687, 1103.758
944.6972, 1108.379
946.6257, 1113.804
948.5541, 1118.965
950.4826, 1122.862
952.4111, 1124.711
954.3395, 1129.186
956.2680, 1138.349
958.1965, 1148.170
960.1249, 1156.697
962.0534, 1163.914
963.9819, 1170.633
965.9103, 1177.332
967.8388, 1182.452
969.7673, 1184.665
971.6957, 1184.394
973.6242, 1184.645
975.5527, 1185.764
977.4811, 1187.448
979.4096, 1190.470
981.3381, 1194.387
983.2665, 1197.293
985.1950, 1198.262
987.1235, 1200.490
989.0519, 1205.576
990.9804, 1211.998
992.9089, 1217.709
994.8373, 1222.279
996.7658, 1226.722
998.6943, 1231.219
1000.623, 1235.467
1002.551, 1239.272
1004.480, 1242.882
1006.408, 1245.593
1008.337, 1246.885
1010.265, 1247.977
1012.194, 1249.955
1014.122, 1252.773
1016.050, 1255.136
1017.979, 1256.799
1019.907, 1258.041
1021.836, 1258.298
1023.764, 1257.664
1025.693, 1258.997
1027.621, 1264.609
1029.550, 1269.429
1031.478, 1272.191
1033.407, 1273.351
1035.335, 1274.261
1037.264, 1275.455
1039.192, 1275.401
1041.120, 1273.667
1043.049, 1270.477
1044.977, 1266.073
1046.906, 1260.334
1048.834, 1254.008
1050.763, 1245.245
1052.691, 1237.568
1054.620, 1233.984
1056.548, 1235.740
1058.477, 1235.709
1060.405, 1231.604
1062.334, 1228.344
1064.262, 1228.926
1066.191, 1232.377
1068.119, 1234.264
1070.047, 1233.199
1071.976, 1232.793
1073.904, 1234.666
1075.833, 1237.868
1077.761, 1240.906
1079.690, 1243.505
1081.618, 1246.628
1083.547, 1249.925
1085.475, 1254.231
1087.404, 1260.273
1089.332, 1268.248
1091.261, 1277.839
1093.189, 1290.810
1095.118, 1303.637
1097.046, 1314.378
1098.975, 1323.334
1100.903, 1331.358
1102.832, 1337.280
1104.760, 1344.414
1106.688, 1355.541
1108.617, 1368.300
1110.545, 1378.241
1112.474, 1387.188
1114.402, 1390.141
1116.331, 1385.244
1118.259, 1375.709
1120.188, 1363.383
1122.116, 1347.936
1124.045, 1333.420
1125.973, 1318.276
1127.902, 1305.961
1129.830, 1298.707
1131.759, 1295.467
1133.687, 1293.991
1135.615, 1294.892
1137.544, 1296.025
1139.472, 1296.433
1141.401, 1297.000
1143.329, 1298.959
1145.258, 1303.051
1147.186, 1307.489
1149.115, 1313.050
1151.043, 1318.286
1152.972, 1322.383
1154.900, 1325.217
1156.829, 1326.663
1158.757, 1326.688
1160.686, 1325.267
1162.614, 1321.349
1164.542, 1316.383
1166.471, 1313.081
1168.399, 1312.754
1170.328, 1310.493
1172.256, 1303.220
1174.185, 1295.533
1176.113, 1290.734
1178.042, 1289.090
1179.970, 1287.928
1181.899, 1287.635
1183.827, 1287.052
1185.756, 1285.581
1187.684, 1283.500
1189.613, 1281.494
1191.541, 1279.482
1193.469, 1278.214
1195.398, 1278.315
1197.326, 1279.171
1199.255, 1280.168
1201.183, 1281.287
1203.112, 1283.176
1205.040, 1287.223
1206.969, 1290.026
1208.897, 1289.101
1210.826, 1286.008
1212.754, 1285.145
1214.683, 1288.797
1216.611, 1291.702
1218.540, 1293.270
1220.468, 1294.863
1222.396, 1297.413
1224.325, 1301.070
1226.253, 1306.478
1228.182, 1314.747
1230.110, 1322.847
1232.039, 1329.353
1233.967, 1334.474
1235.896, 1338.301
1237.824, 1340.120
1239.753, 1342.387
1241.681, 1346.455
1243.610, 1350.304
1245.538, 1352.760
1247.467, 1353.983
1249.395, 1355.623
1251.323, 1358.627
1253.252, 1361.354
1255.180, 1363.592
1257.109, 1365.507
1259.037, 1366.859
1260.966, 1367.261
1262.894, 1369.415
1264.823, 1375.649
1266.751, 1381.178
1268.680, 1382.635
1270.608, 1381.569
1272.537, 1381.827
1274.465, 1384.368
1276.394, 1385.836
1278.322, 1385.420
1280.250, 1383.618
1282.179, 1380.152
1284.107, 1374.669
1286.036, 1371.140
1287.964, 1370.807
1289.893, 1370.910
1291.821, 1370.375
1293.750, 1369.936
1295.678, 1370.945
1297.607, 1373.865
1299.535, 1376.367
1301.464, 1378.920
1303.392, 1380.362
1305.321, 1379.088
1307.249, 1376.307
1309.177, 1375.465
1311.106, 1377.226
1313.034, 1378.992
1314.963, 1380.418
1316.891, 1381.422
1318.820, 1381.698
1320.748, 1381.390
1322.677, 1381.793
1324.605, 1383.280
1326.534, 1384.952
1328.462, 1386.970
1330.391, 1388.630
1332.319, 1389.054
1334.248, 1387.922
1336.176, 1386.701
1338.104, 1385.516
1340.033, 1384.324
1341.961, 1382.702
1343.890, 1381.317
1345.818, 1381.741
1347.747, 1384.588
1349.675, 1386.265
1351.604, 1384.642
1353.532, 1383.203
1355.461, 1383.519
1357.389, 1385.167
1359.318, 1387.795
1361.246, 1392.032
1363.175, 1394.913
1365.103, 1395.462
1367.031, 1395.085
1368.960, 1394.400
1370.888, 1393.585
1372.817, 1393.214
1374.745, 1392.734
1376.674, 1393.530
1378.602, 1395.666
1380.531, 1398.810
1382.459, 1403.220
1384.388, 1408.926
1386.316, 1413.310
1388.245, 1415.242
1390.173, 1417.773
1392.102, 1423.026
1394.030, 1428.096
1395.958, 1429.615
1397.887, 1427.308
1399.815, 1425.914
1401.744, 1425.776
1403.672, 1425.760
1405.601, 1425.201
1407.529, 1424.845
1409.458, 1425.939
1411.386, 1428.427
1413.315, 1429.970
1415.243, 1428.828
1417.172, 1429.797
1419.100, 1435.723
1421.029, 1444.146
1422.957, 1452.005
1424.885, 1459.147
1426.814, 1468.622
1428.742, 1480.235
1430.671, 1495.090
1432.599, 1514.638
1434.528, 1536.825
1436.456, 1559.733
1438.385, 1583.996
1440.313, 1605.988
1442.242, 1626.865
1444.170, 1643.953
1446.099, 1657.324
1448.027, 1666.059
1449.956, 1668.845
1451.884, 1665.174
1453.813, 1657.708
1455.741, 1646.940
1457.669, 1632.226
1459.598, 1611.669
1461.526, 1588.230
1463.455, 1563.893
1465.383, 1538.403
1467.312, 1519.556
1469.240, 1511.201
1471.169, 1503.426
1473.097, 1492.484
1475.026, 1480.915
1476.954, 1471.422
1478.883, 1463.793
1480.811, 1456.756
1482.740, 1450.474
1484.668, 1444.659
1486.596, 1439.047
1488.525, 1434.432
1490.453, 1431.227
1492.382, 1429.467
1494.310, 1429.495
1496.239, 1431.864
1498.167, 1433.722
1500.096, 1433.341
1502.024, 1432.209
1503.953, 1431.253
1505.881, 1430.373
1507.810, 1429.282
1509.738, 1428.722
1511.667, 1427.145
1513.595, 1423.745
1515.523, 1420.639
1517.452, 1418.766
1519.380, 1418.159
1521.309, 1418.918
1523.237, 1421.904
1525.166, 1423.689
1527.094, 1423.717
1529.023, 1422.600
1530.951, 1419.157
1532.880, 1415.253
1534.808, 1414.926
1536.737, 1420.132
1538.665, 1422.472
1540.594, 1419.847
1542.522, 1417.443
1544.450, 1416.320
1546.379, 1416.475
1548.307, 1418.314
1550.236, 1421.846
1552.164, 1424.366
1554.093, 1425.750
1556.021, 1426.140
1557.950, 1424.656
1559.878, 1422.919
1561.807, 1422.439
1563.735, 1422.809
1565.664, 1422.160
1567.592, 1419.971
1569.521, 1418.950
1571.449, 1421.615
1573.377, 1423.314
1575.306, 1420.231
1577.234, 1415.113
1579.163, 1412.814
1581.091, 1413.479
1583.020, 1414.162
1584.948, 1414.352
1586.877, 1414.899
1588.805, 1416.651
1590.734, 1418.626
1592.662, 1419.430
1594.591, 1419.468
1596.519, 1421.559
1598.448, 1427.034
1600.376, 1430.153
1602.304, 1426.733
1604.233, 1423.220
1606.161, 1424.126
1608.090, 1427.415
1610.018, 1428.647
1611.947, 1427.620
1613.875, 1426.165
1615.804, 1425.585
1617.732, 1423.426
1619.661, 1416.757
1621.589, 1409.974
1623.518, 1408.058
1625.446, 1410.646
1627.375, 1412.472
1629.303, 1412.695
1631.231, 1413.364
1633.160, 1414.935
1635.088, 1416.444
1637.017, 1417.240
1638.945, 1417.487
1640.874, 1418.005
1642.802, 1419.178
1644.731, 1418.553
1646.659, 1414.345
1648.588, 1411.473
1650.516, 1412.328
1652.445, 1414.362
1654.373, 1415.591
1656.302, 1415.986
1658.230, 1415.549
1660.158, 1413.523
1662.087, 1412.358
1664.015, 1412.918
1665.944, 1413.604
1667.872, 1414.057
1669.801, 1414.202
1671.729, 1413.975
1673.658, 1413.441
1675.586, 1412.528
1677.515, 1410.701
1679.443, 1409.766
1681.372, 1410.331
1683.300, 1411.554
1685.229, 1413.385
1687.157, 1415.346
1689.085, 1416.218
1691.014, 1415.493
1692.942, 1415.488
1694.871, 1416.735
1696.799, 1417.679
1698.728, 1418.342
1700.656, 1418.375
1702.585, 1416.990
1704.513, 1414.992
1706.442, 1414.809
1708.370, 1416.839
1710.299, 1419.590
1712.227, 1423.057
1714.156, 1427.082
1716.084, 1431.697
1718.012, 1436.581
1719.941, 1441.277
1721.869, 1445.912
1723.798, 1451.522
1725.726, 1458.608
1727.655, 1465.073
1729.583, 1470.818
1731.512, 1475.969
1733.440, 1480.672
1735.369, 1484.807
1737.297, 1488.169
1739.226, 1490.899
1741.154, 1493.800
1743.083, 1497.569
1745.011, 1499.002
1746.939, 1496.088
1748.868, 1493.040
1750.797, 1492.358
1752.725, 1490.824
1754.653, 1484.924
1756.582, 1475.333
1758.510, 1466.235
1760.439, 1457.919
1762.367, 1448.843
1764.296, 1438.296
1766.224, 1428.184
1768.153, 1418.963
1770.081, 1410.855
1772.010, 1403.978
1773.938, 1398.413
1775.867, 1394.332
1777.795, 1391.780
1779.724, 1390.378
1781.652, 1390.675
1783.580, 1390.729
1785.509, 1389.616
1787.437, 1388.060
1789.366, 1385.906
1791.294, 1383.758
1793.223, 1383.661
1795.151, 1385.684
1797.080, 1385.778
1799.008, 1382.616
1800.937, 1380.140
1802.865, 1380.046
1804.794, 1380.607
1806.722, 1381.452
1808.651, 1381.975
1810.579, 1380.602
1812.507, 1377.633
1814.436, 1376.480
1816.364, 1377.979
1818.293, 1378.490
1820.221, 1376.168
1822.150, 1373.908
1824.078, 1372.655
1826.007, 1372.642
1827.935, 1375.775
1829.864, 1380.697
1831.792, 1380.780
1833.721, 1374.906
1835.649, 1370.862
1837.578, 1370.670
1839.506, 1370.709
1841.434, 1369.245
1843.363, 1367.875
1845.291, 1367.932
1847.220, 1368.861
1849.148, 1369.652
1851.077, 1370.341
1853.005, 1370.311
1854.934, 1369.222
1856.862, 1368.125
1858.791, 1367.724
1860.719, 1366.734
1862.648, 1363.785
1864.576, 1360.507
1866.505, 1359.112
1868.433, 1359.278
1870.361, 1358.825
1872.290, 1357.553
1874.218, 1356.187
1876.147, 1354.441
1878.075, 1353.131
1880.004, 1352.776
1881.932, 1352.636
1883.861, 1352.032
1885.789, 1351.382
1887.718, 1351.427
1889.646, 1352.055
1891.575, 1352.617
1893.503, 1353.180
1895.432, 1352.713
1897.360, 1350.575
1899.288, 1348.294
1901.217, 1347.084
1903.145, 1345.787
1905.074, 1343.192
1907.002, 1340.317
1908.931, 1339.112
1910.859, 1339.508
1912.788, 1340.327
1914.716, 1341.457
1916.645, 1341.994
1918.573, 1340.992
1920.502, 1340.030
1922.430, 1340.431
1924.359, 1340.588
1926.287, 1339.041
1928.215, 1336.358
1930.144, 1333.407
1932.072, 1330.214
1934.001, 1328.981
1935.929, 1330.676
1937.858, 1332.401
1939.786, 1334.881
1941.715, 1335.818
1943.643, 1333.225
1945.572, 1329.707
1947.500, 1327.127
1949.429, 1325.433
1951.357, 1324.830
1953.286, 1325.481
1955.214, 1324.887
1957.142, 1322.526
1959.071, 1320.078
1960.999, 1317.011
1962.928, 1315.073
1964.856, 1316.072
1966.785, 1317.281
1968.713, 1316.680
1970.642, 1315.130
1972.570, 1314.043
1974.499, 1313.362
1976.427, 1312.545
1978.356, 1311.419
1980.284, 1310.912
1982.213, 1311.214
1984.141, 1311.787
1986.069, 1312.615
1987.998, 1313.282
1989.926, 1313.170
1991.855, 1312.960
1993.783, 1313.915
1995.712, 1315.601
1997.640, 1316.010
1999.569, 1314.943
2001.497, 1314.024
2003.426, 1313.623
2005.354, 1312.906
2007.283, 1311.923
2009.211, 1310.371
2011.140, 1307.300
2013.068, 1304.379
2014.996, 1303.193
2016.925, 1303.133
2018.853, 1303.001
2020.782, 1302.867
2022.710, 1303.084
2024.639, 1303.890
2026.567, 1303.956
2028.496, 1302.952
2030.424, 1301.477
2032.353, 1299.273
2034.281, 1297.111
2036.210, 1294.879
2038.138, 1293.293
2040.067, 1293.613
2041.995, 1294.980
2043.923, 1295.373
2045.852, 1294.798
2047.780, 1293.743
2049.709, 1291.823
2051.637, 1290.423
2053.566, 1290.030
2055.494, 1289.532
2057.423, 1288.957
2059.351, 1288.042
2061.280, 1286.340
2063.208, 1284.745
2065.136, 1284.582
2067.065, 1285.323
2068.993, 1285.298
2070.922, 1284.506
2072.850, 1282.872
2074.779, 1279.695
2076.708, 1279.131
2078.636, 1283.032
2080.564, 1285.544
2082.493, 1284.243
2084.421, 1281.728
2086.350, 1278.558
2088.278, 1275.880
2090.207, 1275.618
2092.135, 1276.559
2094.064, 1276.030
2095.992, 1274.187
2097.921, 1272.303
2099.849, 1270.018
2101.778, 1268.313
2103.706, 1267.030
2105.635, 1266.145
2107.563, 1266.149
2109.491, 1265.830
2111.420, 1264.725
2113.348, 1263.565
2115.277, 1263.272
2117.205, 1263.096
2119.134, 1261.992
2121.062, 1260.186
2122.991, 1257.808
2124.919, 1254.869
2126.848, 1253.397
2128.776, 1253.689
2130.705, 1254.025
2132.633, 1254.213
2134.562, 1254.224
2136.490, 1254.160
2138.418, 1253.859
2140.347, 1253.696
2142.275, 1252.975
2144.204, 1250.438
2146.132, 1247.543
2148.061, 1246.725
2149.989, 1247.596
2151.918, 1248.480
2153.846, 1249.345
2155.775, 1249.171
2157.703, 1247.465
2159.632, 1247.264
2161.560, 1249.985
2163.489, 1251.535
2165.417, 1249.759
2167.345, 1247.704
2169.274, 1246.224
2171.202, 1245.460
2173.131, 1246.663
2175.059, 1247.990
2176.988, 1246.443
2178.916, 1243.079
2180.845, 1240.724
2182.773, 1239.439
2184.702, 1240.529
2186.630, 1244.278
2188.559, 1247.349
2190.487, 1249.294
2192.416, 1250.491
2194.344, 1251.326
2196.272, 1250.656
2198.201, 1246.901
2200.129, 1243.010
2202.058, 1240.649
2203.986, 1239.027
2205.915, 1237.389
2207.843, 1235.992
2209.772, 1235.043
2211.700, 1234.705
2213.629, 1235.941
2215.557, 1238.799
2217.486, 1241.533
2219.414, 1243.975
2221.343, 1247.673
2223.271, 1252.606
2225.199, 1259.467
2227.128, 1266.493
2229.056, 1278.865
2230.985, 1294.113
2232.913, 1320.634
2234.842, 1359.467
2236.770, 1415.272
2238.699, 1497.136
2240.627, 1595.383
2242.556, 1708.382
2244.484, 1822.515
2246.413, 1894.770
2248.341, 1924.802
2250.270, 1907.137
2252.198, 1840.165
2254.126, 1755.398
2256.055, 1649.865
2257.983, 1553.244
2259.912, 1467.226
2261.840, 1397.762
2263.769, 1350.501
2265.697, 1314.266
2267.626, 1286.889
2269.554, 1266.661
2271.483, 1255.632
2273.411, 1248.524
2275.340, 1240.473
2277.268, 1232.791
2279.197, 1227.620
2281.125, 1224.500
2283.053, 1222.294
2284.982, 1220.784
2286.910, 1218.609
2288.839, 1215.324
2290.767, 1213.169
2292.696, 1212.247
2294.624, 1212.104
2296.553, 1214.741
2298.481, 1214.691
2300.410, 1208.663
2302.338, 1204.406
2304.267, 1205.943
2306.195, 1207.526
2308.124, 1205.736
2310.052, 1203.471
2311.980, 1202.867
2313.909, 1203.062
2315.837, 1203.221
2317.766, 1203.258
2319.694, 1202.701
2321.623, 1201.809
2323.551, 1202.214
2325.480, 1203.884
2327.408, 1204.689
2329.337, 1204.603
2331.265, 1203.769
2333.194, 1202.126
2335.122, 1200.187
2337.051, 1197.724
2338.979, 1196.222
2340.907, 1197.045
2342.836, 1197.645
2344.764, 1198.164
2346.693, 1197.438
2348.621, 1192.429
2350.550, 1188.984
2352.478, 1192.220
2354.407, 1196.616
2356.335, 1197.658
2358.264, 1196.541
2360.192, 1194.308
2362.121, 1191.499
2364.049, 1189.066
2365.978, 1187.201
2367.906, 1186.379
2369.834, 1186.686
2371.763, 1185.609
2373.691, 1182.685
2375.620, 1181.357
2377.548, 1181.584
2379.477, 1182.615
2381.405, 1184.493
2383.334, 1185.789
2385.262, 1186.347
2387.191, 1186.090
2389.119, 1185.058
2391.048, 1183.481
2392.976, 1180.986
2394.905, 1178.870
2396.833, 1177.981
2398.761, 1177.218
2400.690, 1174.186
2402.618, 1172.631
2404.547, 1177.682
2406.475, 1183.634
2408.404, 1183.867
2410.332, 1181.141
2412.261, 1180.037
2414.189, 1179.617
2416.118, 1176.449
2418.046, 1171.557
2419.975, 1170.908
2421.903, 1174.213
2423.832, 1175.777
2425.760, 1175.504
2427.688, 1174.595
2429.617, 1172.941
2431.545, 1172.336
2433.474, 1173.498
2435.402, 1173.937
2437.331, 1173.965
2439.259, 1172.342
2441.188, 1167.387
2443.116, 1164.145
2445.045, 1163.861
2446.973, 1164.945
2448.902, 1168.032
2450.830, 1170.210
2452.759, 1169.517
2454.687, 1168.082
2456.615, 1166.531
2458.544, 1165.293
2460.472, 1165.039
2462.401, 1164.994
2464.329, 1164.713
2466.258, 1164.145
2468.186, 1162.686
2470.115, 1161.276
2472.043, 1161.386
2473.972, 1162.273
2475.900, 1162.441
2477.829, 1162.027
2479.757, 1161.977
2481.686, 1162.096
2483.614, 1160.954
2485.542, 1158.811
2487.471, 1157.767
2489.399, 1157.930
2491.328, 1158.133
2493.256, 1158.360
2495.185, 1158.725
2497.113, 1159.347
2499.042, 1159.390
2500.970, 1158.411
2502.899, 1157.498
2504.827, 1156.730
2506.756, 1155.360
2508.684, 1152.877
2510.613, 1151.255
2512.541, 1151.922
2514.469, 1151.725
2516.398, 1148.574
2518.326, 1146.651
2520.255, 1148.498
2522.183, 1149.744
2524.112, 1148.328
2526.040, 1146.818
2527.969, 1146.517
2529.897, 1145.984
2531.826, 1143.840
2533.754, 1141.965
2535.683, 1141.746
2537.611, 1142.226
2539.540, 1142.850
2541.468, 1143.567
2543.396, 1144.177
2545.325, 1144.839
2547.253, 1146.490
2549.182, 1147.428
2551.110, 1144.422
2553.039, 1140.294
2554.967, 1139.902
2556.896, 1141.455
2558.824, 1141.737
2560.753, 1141.155
2562.681, 1140.419
2564.610, 1139.584
2566.538, 1138.281
2568.467, 1136.800
2570.395, 1136.363
2572.323, 1136.658
2574.252, 1136.471
2576.180, 1135.794
2578.109, 1136.019
2580.037, 1137.012
2581.966, 1136.630
2583.894, 1135.104
2585.823, 1134.245
2587.751, 1134.251
2589.680, 1134.741
2591.608, 1135.726
2593.537, 1136.938
2595.465, 1138.308
2597.394, 1139.373
2599.322, 1139.962
2601.250, 1140.692
2603.179, 1141.631
2605.107, 1142.314
2607.036, 1142.682
2608.964, 1142.983
2610.893, 1143.603
2612.821, 1143.367
2614.750, 1142.101
2616.678, 1140.747
2618.607, 1139.267
2620.535, 1138.422
2622.464, 1138.835
2624.392, 1138.535
2626.321, 1136.752
2628.249, 1135.077
2630.177, 1133.908
2632.106, 1132.139
2634.034, 1128.977
2635.963, 1127.471
2637.891, 1129.578
2639.820, 1130.976
2641.748, 1130.294
2643.677, 1129.309
2645.605, 1127.527
2647.534, 1127.086
2649.462, 1129.149
2651.391, 1130.568
2653.319, 1129.931
2655.248, 1129.168
2657.176, 1128.478
2659.104, 1128.346
2661.033, 1130.209
2662.961, 1130.599
2664.890, 1128.483
2666.818, 1125.468
2668.747, 1120.802
2670.675, 1118.158
2672.604, 1120.793
2674.532, 1122.796
2676.461, 1121.113
2678.389, 1119.887
2680.318, 1120.392
2682.246, 1121.053
2684.175, 1120.968
2686.103, 1121.284
2688.031, 1123.629
2689.960, 1124.761
2691.888, 1122.714
2693.817, 1120.721
2695.745, 1119.506
2697.674, 1119.458
2699.602, 1120.857
2701.531, 1123.250
2703.459, 1127.429
2705.388, 1130.877
2707.316, 1132.006
2709.245, 1133.017
2711.173, 1133.997
2713.102, 1135.979
2715.030, 1139.839
2716.958, 1143.728
2718.887, 1147.320
2720.815, 1150.123
2722.744, 1151.645
2724.672, 1153.068
2726.601, 1155.497
2728.529, 1156.411
2730.458, 1154.051
2732.386, 1151.919
2734.315, 1151.283
2736.243, 1150.834
2738.172, 1150.654
2740.100, 1149.555
2742.029, 1146.912
2743.957, 1144.268
2745.885, 1141.895
2747.814, 1140.359
2749.742, 1140.048
2751.671, 1140.511
2753.599, 1141.747
2755.528, 1143.588
2757.456, 1145.953
2759.385, 1148.719
2761.313, 1152.067
2763.242, 1154.758
2765.170, 1155.677
2767.099, 1157.362
2769.027, 1160.778
2770.956, 1162.274
2772.884, 1160.951
2774.813, 1159.964
2776.741, 1160.431
2778.669, 1160.210
2780.598, 1159.221
2782.526, 1157.623
2784.455, 1155.268
2786.383, 1153.566
2788.312, 1152.659
2790.240, 1151.660
2792.169, 1150.017
2794.097, 1149.485
2796.026, 1150.287
2797.954, 1150.117
2799.883, 1148.938
2801.811, 1147.874
2803.740, 1147.084
2805.668, 1146.255
2807.596, 1145.454
2809.525, 1144.194
2811.453, 1142.564
2813.382, 1141.892
2815.310, 1142.141
2817.239, 1143.198
2819.167, 1144.937
2821.096, 1146.688
2823.024, 1148.571
2824.953, 1150.846
2826.881, 1153.767
2828.810, 1158.727
2830.738, 1164.629
2832.667, 1168.695
2834.595, 1172.133
2836.523, 1178.134
2838.452, 1184.866
2840.380, 1189.265
2842.309, 1192.467
2844.237, 1196.170
2846.166, 1199.211
2848.094, 1199.042
2850.023, 1198.718
2851.951, 1201.503
2853.880, 1205.263
2855.808, 1207.024
2857.737, 1210.923
2859.665, 1219.159
2861.594, 1231.695
2863.522, 1249.191
2865.450, 1270.309
2867.379, 1295.790
2869.307, 1321.943
2871.236, 1349.099
2873.164, 1373.193
2875.093, 1395.458
2877.021, 1409.061
2878.950, 1410.138
2880.878, 1410.551
2882.807, 1411.789
2884.735, 1416.494
2886.664, 1422.906
2888.592, 1438.188
2890.521, 1462.924
2892.449, 1494.485
2894.377, 1532.830
2896.306, 1573.992
2898.234, 1618.273
2900.163, 1661.157
2902.091, 1703.151
2904.020, 1725.505
2905.948, 1730.228
2907.877, 1727.369
2909.805, 1718.144
2911.734, 1702.215
2913.662, 1684.165
2915.591, 1674.792
2917.519, 1676.006
2919.448, 1690.295
2921.376, 1718.904
2923.304, 1767.574
2925.233, 1828.624
2927.161, 1897.156
2929.090, 1969.139
2931.018, 2043.537
2932.947, 2116.368
2934.875, 2184.066
2936.804, 2249.800
2938.732, 2324.560
2940.661, 2381.874
2942.589, 2416.076
2944.518, 2424.333
2946.446, 2400.260
2948.375, 2360.552
2950.303, 2301.124
2952.231, 2242.079
2954.160, 2182.915
2956.088, 2137.091
2958.017, 2107.354
2959.945, 2081.363
2961.874, 2057.149
2963.802, 2046.278
2965.731, 2047.200
2967.659, 2044.439
2969.588, 2037.673
2971.516, 2027.014
2973.445, 2013.628
2975.373, 2000.398
2977.302, 1987.036
2979.230, 1972.727
2981.158, 1957.927
2983.087, 1945.319
2985.015, 1930.050
2986.944, 1908.158
2988.872, 1880.874
2990.801, 1849.257
2992.729, 1813.157
2994.658, 1770.566
2996.586, 1726.533
2998.515, 1681.335
3000.443, 1637.401
3002.372, 1595.068
3004.300, 1553.600
3006.229, 1512.218
3008.157, 1473.679
3010.085, 1437.922
3012.014, 1406.481
3013.942, 1379.162
3015.871, 1351.883
3017.799, 1325.013
3019.728, 1303.401
3021.656, 1285.767
3023.585, 1267.750
3025.513, 1250.768
3027.442, 1237.214
3029.370, 1225.706
3031.299, 1214.844
3033.227, 1204.499
3035.156, 1194.508
3037.084, 1184.928
3039.012, 1175.811
3040.941, 1167.146
3042.869, 1159.404
3044.798, 1151.395
3046.726, 1142.487
3048.655, 1135.304
3050.583, 1130.879
3052.512, 1126.232
3054.440, 1121.006
3056.369, 1116.774
3058.297, 1113.620
3060.226, 1112.787
3062.154, 1113.246
3064.083, 1109.772
3066.011, 1104.299
3067.939, 1101.483
3069.868, 1099.778
3071.796, 1097.676
3073.725, 1095.127
3075.653, 1091.913
3077.582, 1088.759
3079.510, 1086.514
3081.439, 1083.801
3083.367, 1078.340
3085.296, 1075.939
3087.224, 1079.795
3089.153, 1079.702
3091.081, 1074.033
3093.010, 1070.698
3094.938, 1070.608
3096.866, 1069.268
3098.795, 1066.955
3100.723, 1066.502
3102.652, 1067.106
3104.580, 1066.946
3106.509, 1066.198
3108.437, 1064.797
3110.366, 1063.302
3112.294, 1062.074
3114.223, 1061.156
3116.151, 1061.302
3118.080, 1060.625
3120.008, 1058.232
3121.937, 1056.111
3123.865, 1054.734
3125.793, 1053.318
3127.722, 1051.528
3129.650, 1050.457
3131.579, 1049.969
3133.507, 1049.479
3135.436, 1048.869
3137.364, 1047.931
3139.293, 1046.768
3141.221, 1045.562
3143.150, 1044.307
3145.078, 1042.527
3147.007, 1041.332
3148.935, 1041.917
3150.864, 1042.303
3152.792, 1041.909
3154.720, 1040.750
3156.649, 1038.015
3158.577, 1037.495
3160.506, 1040.025
3162.434, 1038.599
3164.363, 1033.940
3166.291, 1033.053
3168.220, 1034.290
3170.148, 1031.483
3172.077, 1027.939
3174.005, 1029.641
3175.934, 1031.740
3177.862, 1029.645
3179.791, 1027.495
3181.719, 1027.278
3183.647, 1027.604
3185.576, 1028.089
3187.504, 1029.029
3189.433, 1030.582
3191.361, 1030.548
3193.290, 1028.908
3195.218, 1028.424
3197.147, 1028.342
3199.075, 1025.698
3201.004, 1021.868
3202.932, 1018.680
3204.861, 1016.464
3206.789, 1015.602
3208.718, 1015.803
3210.646, 1017.653
3212.574, 1018.207
3214.503, 1015.634
3216.431, 1014.965
3218.360, 1017.539
3220.288, 1018.390
3222.217, 1017.705
3224.145, 1017.141
3226.074, 1016.636
3228.002, 1015.778
3229.931, 1014.617
3231.859, 1012.993
3233.788, 1011.329
3235.716, 1009.880
3237.645, 1008.358
3239.573, 1006.019
3241.501, 1005.420
3243.430, 1007.538
3245.358, 1007.943
3247.287, 1006.106
3249.215, 1005.651
3251.144, 1006.250
3253.072, 1007.360
3255.001, 1007.999
3256.929, 1005.969
3258.858, 1003.447
3260.786, 1001.714
3262.715, 1000.998
3264.643, 1002.306
3266.572, 1002.667
3268.500, 1001.257
3270.428, 1001.380
3272.357, 1003.473
3274.285, 1001.251
3276.214, 996.0986
3278.142, 995.8382
3280.071, 997.6172
3281.999, 996.8750
3283.928, 995.7606
3285.856, 996.5134
3287.785, 997.0279
3289.713, 996.6208
3291.642, 995.8936
3293.570, 994.9379
3295.499, 994.3693
3297.427, 994.1104
3299.355, 992.4017
3301.284, 989.8191
3303.212, 988.4194
3305.141, 987.6757
3307.069, 986.9002
3308.998, 986.5240
3310.926, 987.9882
3312.855, 987.9046
3314.783, 984.9477
3316.712, 983.0367
3318.640, 983.0399
3320.569, 982.8047
3322.497, 982.3474
3324.426, 983.0980
3326.354, 983.9633
3328.282, 982.2042
3330.211, 980.5374
3332.139, 982.7923
3334.068, 983.9415
3335.996, 981.0846
3337.925, 978.7729
3339.853, 977.8739
3341.782, 977.0012
3343.710, 976.2021
3345.639, 977.0554
3347.567, 978.3557
3349.496, 975.9189
3351.424, 973.1788
3353.353, 974.1361
3355.281, 975.2171
3357.209, 974.6560
3359.138, 973.5563
3361.066, 972.0856
3362.995, 971.0723
3364.923, 970.6911
3366.852, 968.2144
3368.780, 965.3535
3370.709, 967.2537
3372.637, 969.9639
3374.566, 968.4519
3376.494, 966.8447
3378.423, 967.6574
3380.351, 966.7965
3382.280, 962.0987
3384.208, 959.7894
3386.136, 959.7611
3388.065, 959.7770
3389.993, 959.7208
3391.922, 959.1486
3393.851, 958.9902
3395.779, 961.1054
3397.708, 962.1547
3399.636, 959.2580
3401.564, 958.5177
3403.493, 960.9848
3405.421, 959.7010
3407.350, 955.2147
3409.278, 954.9719
3411.207, 956.3308
3413.135, 954.5261
3415.064, 952.4088
3416.992, 952.1639
3418.921, 952.5118
3420.849, 953.4229
3422.778, 953.4670
3424.706, 952.3951
3426.635, 949.8536
3428.563, 947.8377
3430.491, 955.4411
3432.420, 962.9805
3434.348, 955.6613
3436.277, 948.6282
3438.205, 949.9210
3440.134, 950.1889
3442.062, 947.4089
3443.991, 945.7731
3445.919, 945.2296
3447.848, 944.5851
3449.776, 943.8425
3451.705, 943.0839
3453.633, 942.1967
3455.562, 940.7282
3457.490, 940.1503
3459.418, 941.4512
3461.347, 939.7925
3463.275, 935.1029
3465.204, 934.7359
3467.132, 936.6560
3469.061, 935.6865
3470.989, 934.2848
3472.918, 934.4285
3474.846, 934.7727
3476.775, 934.8848
3478.703, 934.7958
3480.632, 934.4008
3482.560, 932.8657
3484.489, 930.8854
3486.417, 930.7819
3488.345, 931.4148
3490.274, 932.5752
3492.202, 932.6172
3494.131, 930.5158
3496.059, 929.4461
3497.988, 929.9384
3499.916, 928.5062
3501.845, 926.5009
3503.773, 929.1070
3505.702, 931.8356
3507.630, 929.1544
3509.559, 926.3252
3511.487, 925.4650
3513.416, 924.3554
3515.344, 922.8243
3517.272, 920.8906
3519.201, 919.4068
3521.129, 921.1832
3523.058, 923.8559
3524.986, 926.1662
3526.915, 926.5335
3528.843, 922.5067
3530.772, 920.5062
3532.700, 920.7278
3534.629, 922.8502
3536.557, 925.3385
3538.486, 925.1064
3540.414, 922.9949
3542.343, 917.7234
3544.271, 915.3092
3546.199, 918.1603
3548.128, 919.8965
3550.056, 920.0538
3551.985, 918.9648
3553.913, 917.6736
3555.842, 918.4855
3557.770, 919.3821
3559.699, 920.1342
3561.627, 917.8391
3563.556, 911.6417
3565.484, 910.9348
3567.413, 914.5219
3569.341, 915.0139
3571.270, 913.8956
3573.198, 912.1685
3575.126, 911.2154
3577.055, 912.2662
3578.983, 911.9578
3580.912, 909.9156
3582.840, 909.3460
3584.769, 909.7006
3586.697, 909.5330
3588.626, 909.2306
3590.554, 909.5005
3592.483, 908.2961
3594.411, 904.7185
3596.340, 903.5938
3598.268, 904.5806
3600.197, 904.0607
3602.125, 902.8372
3604.053, 901.9315
3605.982, 900.8505
3607.910, 899.1893
3609.839, 899.0406
3611.767, 900.8969
3613.696, 898.2589
3615.624, 893.9905
3617.553, 894.7233
3619.481, 896.2704
3621.410, 895.8522
3623.338, 894.8313
3625.267, 893.3799
3627.195, 891.8161
3629.124, 890.5809
3631.052, 892.3365
3632.980, 894.6863
3634.909, 895.9836
3636.837, 895.3158
3638.766, 892.0648
3640.694, 889.3528
3642.623, 887.4980
3644.551, 886.3623
3646.480, 886.0393
3648.408, 887.4462
3650.337, 887.9368
3652.265, 885.9658
3654.194, 885.1742
3656.122, 886.0936
3658.051, 885.2288
3659.979, 883.6815
3661.907, 884.0531
3663.836, 883.5677
3665.764, 879.7224
3667.693, 877.9421
3669.621, 879.5903
3671.550, 881.1652
3673.478, 882.2438
3675.407, 881.0553
3677.335, 880.1568
3679.264, 882.4606
3681.192, 882.6309
3683.121, 879.2742
3685.049, 877.2249
3686.978, 876.3402
3688.906, 876.3255
3690.834, 875.9745
3692.763, 873.6558
3694.691, 872.1138
3696.620, 871.9144
3698.548, 871.8228
3700.477, 872.1082
3702.405, 875.1129
3704.334, 877.9445
3706.262, 878.3956
3708.191, 876.8555
3710.119, 873.1658
3712.048, 869.8487
3713.976, 867.2794
3715.905, 867.7520
3717.833, 867.7130
3719.761, 862.4350
3721.690, 860.0711
3723.618, 862.4258
3725.547, 863.8236
3727.475, 864.1003
3729.404, 863.4069
3731.332, 862.6130
3733.261, 862.5994
3735.189, 862.1196
3737.118, 860.9736
3739.046, 860.5192
3740.975, 860.3897
3742.903, 858.9989
3744.832, 857.6182
3746.760, 857.2476
3748.688, 856.7617
3750.617, 856.0037
3752.545, 854.8138
3754.474, 853.7994
3756.402, 855.0275
3758.331, 855.9963
3760.259, 854.6965
3762.188, 853.8505
3764.116, 853.6429
3766.045, 854.6149
3767.973, 855.6731
3769.902, 855.4055
3771.830, 853.6809
3773.759, 848.8719
3775.687, 847.4102
3777.615, 848.9090
3779.544, 847.8046
3781.472, 846.0753
3783.401, 845.5727
3785.329, 846.7941
3787.258, 851.8593
3789.186, 852.4374
3791.115, 849.6422
3793.043, 847.1949
3794.972, 845.8809
3796.900, 847.1707
3798.829, 847.2797
3800.757, 844.8979
3802.686, 844.1812
3804.614, 844.4996
3806.542, 844.8880
3808.471, 844.5003
3810.399, 842.7196
3812.328, 840.3132
3814.256, 837.5146
3816.185, 839.3040
3818.113, 841.6976
3820.042, 838.6102
3821.970, 836.6885
3823.899, 838.3140
3825.827, 837.0751
3827.756, 833.7891
3829.684, 833.3152
3831.613, 833.8142
3833.541, 834.2802
3835.469, 834.3495
3837.398, 833.9195
3839.326, 831.2966
3841.255, 828.1682
3843.183, 827.2821
3845.112, 827.8535
3847.040, 831.0430
3848.969, 830.0657
3850.897, 825.9323
3852.826, 825.8356
3854.754, 826.7081
3856.683, 825.6475
3858.611, 825.4036
3860.540, 826.6491
3862.468, 827.2083
3864.396, 826.6643
3866.325, 823.4340
3868.253, 820.4034
3870.182, 818.5206
3872.110, 818.8036
3874.039, 820.6234
3875.967, 820.2613
3877.896, 819.6975
3879.824, 821.1959
3881.753, 821.8484
3883.681, 821.0599
3885.610, 818.5012
3887.538, 815.8001
3889.467, 815.4693
3891.395, 816.2103
3893.323, 817.7596
3895.252, 818.0891
3897.180, 817.4136
3899.109, 817.0276
3901.037, 816.3007
3902.966, 814.3748
3904.894, 812.8777
3906.823, 812.1279
3908.751, 814.1683
3910.680, 815.9592
3912.608, 812.6543
3914.537, 811.1891
3916.465, 814.2491
3918.394, 814.7454
3920.322, 813.4560
3922.250, 811.6345
3924.179, 810.2997
3926.107, 810.0737
3928.036, 809.1058
3929.964, 807.6292
3931.893, 807.5187
3933.821, 807.5876
3935.750, 807.0468
3937.678, 806.1143
3939.607, 804.9784
3941.535, 806.3897
3943.464, 807.7806
3945.392, 805.8544
3947.321, 803.8676
3949.249, 802.4286
3951.177, 801.9842
3953.106, 802.1474
3955.034, 802.5219
3956.963, 803.0279
3958.891, 804.2083
3960.820, 803.1855
3962.748, 800.8398
3964.677, 799.1410
3966.605, 798.4128
3968.534, 799.0704
3970.462, 798.5367
3972.391, 796.9456
3974.319, 796.1437
3976.248, 795.3310
3978.176, 793.9681
3980.104, 792.3342
3982.033, 790.5579
3983.961, 788.9637
3985.890, 788.3346
3987.818, 790.1888
3989.747, 790.8875
3991.675, 790.0412
3993.604, 790.9134
3995.532, 792.0730
3997.461, 791.5606
3999.389, 790.7399
4001.318, 789.9583
4003.246, 789.8806
4005.175, 789.2173
4007.103, 783.9559
4009.031, 781.9022
4010.960, 786.0877
4012.888, 787.1313
4014.817, 786.0707
4016.745, 785.4241
4018.674, 784.3375
4020.602, 782.3033
4022.531, 782.8312
4024.459, 784.6559
4026.388, 784.2442
4028.316, 783.3588
4030.245, 782.4009
4032.173, 782.8668
4034.102, 783.8327
4036.030, 782.3770
4037.958, 780.8164
4039.887, 780.3199
4041.815, 780.1915
4043.744, 780.1435
4045.672, 778.6992
4047.601, 778.4066
4049.529, 781.1806
4051.458, 779.6465
4053.386, 775.1406
4055.315, 775.7501
4057.243, 776.3459
4059.172, 772.9886
4061.100, 772.6922
4063.029, 774.6065
4064.957, 773.6719
4066.885, 773.2035
4068.814, 775.4941
4070.742, 776.0128
4072.671, 774.8293
4074.599, 773.4720
4076.528, 771.5423
4078.456, 768.3443
4080.385, 769.8915
4082.313, 774.1846
4084.242, 771.6125
4086.170, 768.9764
4088.099, 770.1260
4090.027, 770.2595
4091.956, 769.4168
4093.884, 768.5353
4095.813, 767.6965
4097.741, 767.1051
4099.669, 765.7543
4101.598, 764.4866
4103.526, 765.7424
4105.455, 766.8660
4107.383, 766.8485
4109.312, 765.8896
4111.240, 764.5857
4113.169, 764.3333
4115.097, 763.6840
4117.026, 762.0774
4118.954, 761.6846
4120.883, 762.0055
4122.811, 762.1435
4124.740, 762.3580
4126.668, 762.6632
4128.597, 763.5286
4130.525, 764.4930
4132.454, 764.8190
4134.382, 765.3377
4136.311, 766.1690
4138.239, 764.0427
4140.167, 761.7603
4142.096, 763.3481
4144.024, 762.3470
4145.953, 758.7035
4147.881, 758.2111
4149.810, 759.0173
4151.738, 759.8428
4153.667, 760.2527
4155.595, 760.2678
4157.523, 760.0011
4159.452, 759.6552
4161.380, 759.2350
4163.309, 760.1204
4165.237, 761.4133
4167.166, 759.7703
4169.094, 757.8186
4171.023, 756.2072
4172.951, 758.2411
4174.880, 760.9536
4176.808, 757.3704
4178.737, 755.8340
4180.665, 759.0961
4182.594, 757.8574
4184.522, 755.6350
4186.451, 756.7001
4188.379, 758.1447
4190.308, 759.3193
4192.236, 758.7427
4194.165, 757.7825
4196.093, 757.3295
4198.021, 757.7112
4199.950, 758.3109
4201.878, 757.0832
4203.807, 755.3937
4205.735, 753.8027
4207.664, 753.0828
4209.592, 753.3098
4211.521, 754.5319
4213.449, 756.3910
4215.377, 758.6136
4217.306, 760.6979
4219.234, 761.0724
4221.163, 757.6262
4223.091, 754.3873
4225.020, 752.4701
4226.948, 755.9310
4228.877, 759.0322
4230.805, 758.0595
4232.734, 759.2090
4234.662, 761.2353
4236.591, 759.1697
4238.519, 758.0117
4240.448, 759.4313
4242.376, 759.0099
##END=



