##NAMES=Butlerite
##RRUFFID=R110160
##IDEAL CHEMISTRY=Fe^3+^(SO_4_)(OH)·2H_2_O
##LOCALITY=United Verde mine, Jerome, Arizona
##OWNER=RRUFF
##SOURCE=George Rossman, California Institute of Technology
##DESCRIPTION=Orange translucent grains
##STATUS=The identification of this mineral has been confirmed by single-crystal X-ray diffraction
##URL=https://www.rruff.net/odr/rruff_sample/R110160
##DIFFRACTION SAMPLE DESCRIPTION=Single crystal, powder profile is calculated
##CELL PARAMETERS=a: 6.5249 b: 7.368 c: 5.8517 alpha: 90 beta: 108.546 gamma: 90 volume: 266.72 crystal system: monoclinic
##FILETYPE=Raman Processed
##RAMAN WAVELENGTH=532

181.0245, 1052.164
182.9530, 1055.177
184.8814, 1057.450
186.8099, 1060.847
188.7384, 1066.741
190.6668, 1070.505
192.5953, 1081.247
194.5238, 1100.096
196.4522, 1126.369
198.3807, 1161.658
200.3092, 1207.641
202.2376, 1261.128
204.1661, 1321.701
206.0946, 1394.135
208.0230, 1465.112
209.9515, 1533.197
211.8800, 1599.469
213.8084, 1654.896
215.7369, 1703.418
217.6654, 1740.883
219.5938, 1761.216
221.5223, 1762.660
223.4508, 1756.002
225.3792, 1745.233
227.3077, 1729.851
229.2362, 1708.885
231.1646, 1682.495
233.0931, 1650.846
235.0216, 1615.556
236.9500, 1578.013
238.8785, 1532.499
240.8070, 1477.277
242.7354, 1412.332
244.6639, 1343.222
246.5924, 1266.244
248.5208, 1187.863
250.4493, 1113.069
252.3778, 1040.974
254.3062, 975.2415
256.2347, 917.2686
258.1632, 866.7576
260.0916, 821.5939
262.0201, 782.2403
263.9486, 748.2015
265.8770, 720.0074
267.8055, 699.0127
269.7340, 679.6633
271.6624, 660.2761
273.5909, 641.6090
275.5194, 625.7891
277.4478, 615.3428
279.3763, 606.2156
281.3048, 597.0900
283.2332, 587.8058
285.1617, 578.2396
287.0902, 567.8771
289.0186, 557.5322
290.9471, 547.9982
292.8756, 539.8807
294.8040, 531.5823
296.7325, 522.5565
298.6610, 512.9772
300.5894, 504.0006
302.5179, 495.6400
304.4464, 488.2233
306.3748, 482.2288
308.3033, 477.6171
310.2318, 473.7943
312.1602, 470.4217
314.0887, 467.6356
316.0172, 466.3535
317.9456, 466.9470
319.8741, 468.1734
321.8026, 469.6934
323.7310, 471.5224
325.6595, 474.4136
327.5880, 477.7529
329.5164, 481.9752
331.4449, 488.3900
333.3734, 497.0483
335.3018, 507.5651
337.2303, 519.7593
339.1588, 533.5911
341.0872, 551.7717
343.0157, 573.1666
344.9442, 598.0670
346.8727, 627.6390
348.8011, 662.0861
350.7296, 700.8869
352.6581, 744.5087
354.5865, 791.9311
356.5150, 840.8817
358.4435, 890.8269
360.3719, 941.1635
362.3004, 992.2726
364.2289, 1044.040
366.1573, 1094.366
368.0858, 1141.078
370.0143, 1186.358
371.9427, 1233.219
373.8712, 1281.859
375.7997, 1333.719
377.7281, 1388.820
379.6566, 1446.855
381.5851, 1509.534
383.5135, 1580.483
385.4420, 1655.795
387.3705, 1734.730
389.2989, 1815.256
391.2274, 1889.817
393.1559, 1961.051
395.0843, 2023.731
397.0128, 2068.469
398.9413, 2094.299
400.8697, 2099.821
402.7982, 2077.820
404.7267, 2031.617
406.6551, 1968.966
408.5836, 1886.486
410.5121, 1794.209
412.4405, 1693.512
414.3690, 1586.945
416.2975, 1484.351
418.2259, 1389.781
420.1544, 1304.500
422.0829, 1230.180
424.0113, 1165.418
425.9398, 1113.121
427.8683, 1075.127
429.7967, 1052.421
431.7252, 1043.969
433.6537, 1052.378
435.5821, 1075.204
437.5106, 1111.893
439.4391, 1166.259
441.3675, 1227.608
443.2960, 1298.001
445.2245, 1373.552
447.1529, 1450.504
449.0814, 1521.421
451.0099, 1597.079
452.9383, 1679.563
454.8668, 1772.227
456.7953, 1873.885
458.7237, 2001.959
460.6522, 2120.477
462.5807, 2220.981
464.5091, 2296.343
466.4376, 2320.059
468.3661, 2278.013
470.2945, 2185.762
472.2230, 2056.434
474.1515, 1897.937
476.0799, 1738.028
478.0084, 1580.959
479.9369, 1436.581
481.8653, 1310.452
483.7938, 1202.089
485.7223, 1108.487
487.6507, 1031.622
489.5792, 967.8961
491.5077, 915.4026
493.4361, 875.1601
495.3646, 842.5161
497.2931, 817.1995
499.2215, 799.3214
501.1500, 785.9677
503.0785, 776.5189
505.0069, 771.4358
506.9354, 771.9185
508.8639, 778.8469
510.7923, 792.1595
512.7208, 811.0720
514.6493, 837.5837
516.5778, 871.8768
518.5062, 913.2396
520.4347, 965.3316
522.3632, 1029.651
524.2916, 1106.683
526.2201, 1188.362
528.1486, 1281.294
530.0770, 1371.369
532.0055, 1456.515
533.9340, 1535.117
535.8624, 1588.814
537.7909, 1616.726
539.7194, 1616.759
541.6478, 1585.816
543.5763, 1518.525
545.5048, 1435.945
547.4332, 1330.283
549.3617, 1217.363
551.2902, 1108.694
553.2186, 1003.496
555.1471, 909.1265
557.0756, 827.2189
559.0040, 759.6678
560.9325, 701.7722
562.8610, 655.0717
564.7894, 616.9694
566.7179, 586.7789
568.6464, 564.3956
570.5748, 546.3563
572.5033, 532.5641
574.4318, 522.3355
576.3602, 515.2494
578.2887, 510.9380
580.2172, 510.7804
582.1456, 514.8937
584.0741, 523.0500
586.0026, 535.7993
587.9310, 554.0948
589.8595, 576.4364
591.7880, 607.7403
593.7164, 641.9008
595.6449, 669.5707
597.5734, 692.0495
599.5018, 703.4993
601.4303, 702.4626
603.3588, 688.1614
605.2872, 667.4219
607.2157, 637.2914
609.1442, 605.9142
611.0726, 574.9828
613.0011, 544.7220
614.9296, 518.4883
616.8580, 497.3682
618.7865, 479.2319
620.7150, 463.5930
622.6434, 450.5059
624.5719, 438.8003
626.5004, 428.4829
628.4288, 419.6581
630.3573, 412.3584
632.2858, 406.8917
634.2142, 402.6576
636.1427, 400.2498
638.0712, 398.8734
639.9996, 397.1582
641.9281, 394.8299
643.8566, 392.7903
645.7850, 390.9648
647.7135, 389.5901
649.6420, 389.3146
651.5704, 391.9115
653.4989, 393.6718
655.4274, 393.7270
657.3558, 392.3563
659.2843, 390.5191
661.2128, 387.8433
663.1412, 385.3738
665.0697, 383.6419
666.9982, 382.7164
668.9266, 381.1718
670.8551, 378.6476
672.7836, 375.8132
674.7120, 372.8765
676.6405, 369.9384
678.5690, 367.3039
680.4974, 365.1621
682.4259, 363.1311
684.3544, 361.2122
686.2828, 359.6285
688.2113, 358.0459
690.1398, 356.7366
692.0682, 355.1627
693.9967, 352.9261
695.9252, 349.9556
697.8536, 347.5175
699.7821, 345.9920
701.7106, 344.7301
703.6390, 343.4478
705.5675, 342.1111
707.4960, 340.7089
709.4244, 339.0373
711.3529, 337.4977
713.2814, 336.4793
715.2098, 336.3602
717.1383, 335.9493
719.0668, 334.5913
720.9952, 332.9383
722.9237, 332.2425
724.8522, 332.5851
726.7806, 332.5076
728.7091, 331.1289
730.6376, 329.7654
732.5660, 329.2330
734.4945, 330.1895
736.4230, 330.3826
738.3514, 329.4514
740.2799, 328.4299
742.2084, 327.5826
744.1368, 326.7921
746.0653, 325.9386
747.9938, 325.2990
749.9222, 324.7312
751.8507, 324.0358
753.7792, 323.1363
755.7076, 322.3033
757.6361, 321.3068
759.5646, 320.4337
761.4930, 319.8056
763.4215, 319.3032
765.3500, 318.5975
767.2784, 317.9897
769.2069, 317.6926
771.1354, 317.3237
773.0638, 316.8174
774.9923, 316.0347
776.9208, 314.8898
778.8492, 313.5564
780.7777, 312.2886
782.7062, 311.1113
784.6346, 309.8642
786.5631, 308.5034
788.4916, 306.8644
790.4200, 305.2515
792.3485, 303.7322
794.2770, 302.7116
796.2054, 301.9927
798.1339, 300.8947
800.0624, 299.7198
801.9908, 298.5448
803.9193, 298.1765
805.8478, 298.9801
807.7762, 299.9807
809.7047, 299.9158
811.6332, 298.0060
813.5616, 296.2108
815.4901, 294.9270
817.4186, 293.4034
819.3470, 291.6944
821.2755, 289.9213
823.2040, 288.8063
825.1324, 288.5612
827.0609, 288.3247
828.9894, 287.6453
830.9178, 287.1800
832.8463, 285.8670
834.7748, 285.9499
836.7032, 285.4878
838.6317, 285.0607
840.5602, 285.1396
842.4886, 286.1024
844.4171, 287.1353
846.3456, 287.5880
848.2740, 288.4356
850.2025, 290.2856
852.1310, 292.2927
854.0594, 293.4951
855.9879, 293.9811
857.9164, 294.2766
859.8448, 294.4380
861.7733, 294.2838
863.7018, 294.0856
865.6302, 293.5678
867.5587, 293.1491
869.4872, 292.4104
871.4156, 291.6443
873.3441, 291.0902
875.2726, 290.7788
877.2010, 291.0019
879.1295, 291.7621
881.0580, 292.6635
882.9865, 293.3295
884.9149, 293.6376
886.8434, 293.8998
888.7719, 294.1194
890.7003, 294.3792
892.6288, 294.7133
894.5573, 295.8335
896.4857, 297.2942
898.4142, 298.2870
900.3427, 298.6710
902.2711, 298.9732
904.1996, 299.5237
906.1281, 300.0721
908.0565, 300.6347
909.9850, 301.2721
911.9135, 302.0018
913.8419, 302.8572
915.7704, 303.9078
917.6989, 304.9830
919.6273, 305.8122
921.5558, 306.3591
923.4843, 307.0391
925.4127, 308.0032
927.3412, 309.0115
929.2697, 310.1767
931.1981, 311.6005
933.1266, 312.9371
935.0551, 314.0287
936.9835, 315.4059
938.9120, 317.3077
940.8405, 319.6685
942.7689, 322.2209
944.6974, 324.5287
946.6259, 326.5492
948.5543, 328.5296
950.4828, 330.6129
952.4113, 332.8260
954.3397, 335.4427
956.2682, 338.5023
958.1967, 341.7909
960.1251, 345.1847
962.0536, 348.7470
963.9821, 353.0464
965.9105, 358.4958
967.8390, 365.1407
969.7675, 372.4405
971.6959, 379.9043
973.6244, 387.1952
975.5529, 394.8353
977.4813, 404.5986
979.4098, 416.5522
981.3383, 430.5168
983.2667, 446.7791
985.1952, 465.1568
987.1237, 486.3784
989.0521, 512.0180
990.9806, 542.9265
992.9091, 579.5778
994.8375, 621.7895
996.7660, 671.9402
998.6945, 731.8181
1000.623, 800.9815
1002.551, 881.4071
1004.480, 973.4360
1006.408, 1078.302
1008.337, 1202.273
1010.265, 1350.644
1012.194, 1511.959
1014.122, 1687.309
1016.051, 1857.439
1017.979, 2005.584
1019.908, 2091.072
1021.836, 2109.852
1023.765, 2051.337
1025.693, 1935.545
1027.621, 1757.848
1029.550, 1575.271
1031.478, 1402.349
1033.407, 1245.305
1035.335, 1113.346
1037.264, 1005.982
1039.192, 918.3320
1041.121, 849.4542
1043.049, 797.7567
1044.978, 756.9297
1046.906, 727.1223
1048.835, 705.6003
1050.763, 691.7609
1052.692, 683.7120
1054.620, 679.6609
1056.548, 679.8575
1058.477, 682.6202
1060.405, 687.8796
1062.334, 695.1249
1064.262, 704.4671
1066.191, 716.5463
1068.119, 732.5810
1070.048, 752.1475
1071.976, 775.8138
1073.905, 804.7797
1075.833, 838.6060
1077.762, 878.7478
1079.690, 925.5309
1081.619, 978.8824
1083.547, 1036.560
1085.475, 1101.909
1087.404, 1179.000
1089.332, 1270.345
1091.261, 1369.965
1093.189, 1481.148
1095.118, 1599.473
1097.046, 1716.379
1098.975, 1833.334
1100.903, 1929.672
1102.832, 2007.049
1104.760, 2050.999
1106.689, 2055.797
1108.617, 2019.993
1110.546, 1955.102
1112.474, 1849.931
1114.402, 1735.067
1116.331, 1608.281
1118.259, 1480.676
1120.188, 1367.745
1122.116, 1270.569
1124.045, 1185.848
1125.973, 1113.904
1127.902, 1053.154
1129.830, 1003.361
1131.759, 963.2057
1133.687, 927.4830
1135.616, 897.5645
1137.544, 869.3866
1139.473, 841.2944
1141.401, 813.5493
1143.329, 786.8533
1145.258, 761.1572
1147.186, 736.7029
1149.115, 713.2234
1151.043, 691.2717
1152.972, 670.9882
1154.900, 652.1497
1156.829, 635.6409
1158.757, 621.7055
1160.686, 609.8626
1162.614, 600.2076
1164.543, 592.4476
1166.471, 586.1669
1168.400, 581.4272
1170.328, 578.4489
1172.256, 577.8304
1174.185, 578.3495
1176.113, 578.9882
1178.042, 579.5024
1179.970, 581.0911
1181.899, 584.1110
1183.827, 587.6186
1185.756, 591.2723
1187.684, 595.1259
1189.613, 599.3338
1191.541, 603.9608
1193.470, 609.0538
1195.398, 615.3735
1197.327, 621.7731
1199.255, 627.5300
1201.183, 632.6293
1203.112, 635.8225
1205.040, 635.7548
1206.969, 635.0347
1208.897, 635.2792
1210.826, 635.4109
1212.754, 632.5699
1214.683, 625.6304
1216.611, 617.2067
1218.540, 607.7979
1220.468, 596.7713
1222.397, 583.0912
1224.325, 566.9355
1226.254, 550.8454
1228.182, 535.0432
1230.110, 519.0870
1232.039, 501.9238
1233.967, 484.6981
1235.896, 469.3102
1237.824, 456.0615
1239.753, 443.3651
1241.681, 430.4947
1243.610, 418.5065
1245.538, 408.1048
1247.467, 399.3991
1249.395, 391.4328
1251.324, 384.3869
1253.252, 377.7308
1255.181, 371.2156
1257.109, 365.2529
1259.037, 360.3091
1260.966, 356.5161
1262.894, 353.1360
1264.823, 349.9752
1266.751, 346.9914
1268.680, 344.4029
1270.608, 342.2259
1272.537, 339.9733
1274.465, 337.5661
1276.394, 334.9147
1278.322, 331.5781
1280.251, 328.6115
1282.179, 326.5690
1284.108, 325.3633
1286.036, 324.2944
1287.964, 323.7895
1289.893, 322.8925
1291.821, 320.8364
1293.750, 318.4383
1295.678, 317.0606
1297.607, 317.0652
1299.535, 316.7375
1301.464, 315.8197
1303.392, 314.6978
1305.321, 313.4552
1307.249, 312.3611
1309.178, 311.4799
1311.106, 310.5578
1313.035, 309.4976
1314.963, 308.5572
1316.891, 307.6886
1318.820, 306.2740
1320.748, 304.3223
1322.677, 302.9899
1324.605, 302.5048
1326.534, 302.0460
1328.462, 301.5319
1330.391, 300.9850
1332.319, 300.2798
1334.248, 299.4439
1336.176, 298.4039
1338.105, 296.9059
1340.033, 295.4817
1341.962, 294.3864
1343.890, 293.5341
1345.818, 292.6457
1347.747, 291.7222
1349.675, 290.8404
1351.604, 289.6597
1353.532, 288.7953
1355.461, 288.9528
1357.389, 289.5390
1359.318, 289.3294
1361.246, 288.2802
1363.175, 287.0134
1365.103, 285.4288
1367.032, 283.9412
1368.960, 282.8175
1370.889, 281.8981
1372.817, 281.2062
1374.745, 281.2159
1376.674, 281.4147
1378.602, 281.7731
1380.531, 281.8004
1382.459, 281.0227
1384.388, 279.5081
1386.316, 278.8308
1388.245, 279.4824
1390.173, 279.8903
1392.102, 279.9407
1394.030, 280.0201
1395.959, 280.3607
1397.887, 280.5585
1399.816, 280.0424
1401.744, 278.4474
1403.672, 277.4406
1405.601, 277.6727
1407.529, 278.2779
1409.458, 278.4283
1411.386, 278.4413
1413.315, 279.0058
1415.243, 280.3342
1417.172, 281.1004
1419.100, 280.4687
1421.029, 279.7835
1422.957, 280.1657
1424.886, 281.3200
1426.814, 282.6388
1428.743, 284.2721
1430.671, 285.8715
1432.599, 287.4603
1434.528, 288.7581
1436.456, 289.4462
1438.385, 289.5399
1440.313, 289.6289
1442.242, 289.2894
1444.170, 289.4334
1446.099, 290.8126
1448.027, 292.5014
1449.956, 293.2727
1451.884, 292.8933
1453.813, 292.4341
1455.741, 291.8459
1457.670, 291.4308
1459.598, 291.5915
1461.526, 291.7565
1463.455, 290.9658
1465.383, 289.0862
1467.312, 288.0342
1469.240, 288.7877
1471.169, 289.6731
1473.097, 289.9003
1475.026, 289.5880
1476.954, 289.0511
1478.883, 288.4750
1480.811, 287.8791
1482.740, 287.0843
1484.668, 286.5377
1486.597, 286.5547
1488.525, 286.8870
1490.453, 287.4099
1492.382, 288.0546
1494.310, 288.2720
1496.239, 287.4165
1498.167, 287.7609
1500.096, 291.0289
1502.024, 294.4298
1503.953, 296.3917
1505.881, 296.9667
1507.810, 296.2956
1509.738, 293.7877
1511.667, 292.2492
1513.595, 292.3404
1515.524, 292.7393
1517.452, 292.7300
1519.380, 292.6575
1521.309, 293.4474
1523.237, 295.3648
1525.166, 297.4519
1527.094, 300.3327
1529.023, 302.6895
1530.951, 303.2549
1532.880, 303.0211
1534.808, 304.0797
1536.737, 307.0907
1538.665, 309.3233
1540.594, 309.9191
1542.522, 310.6481
1544.451, 312.1016
1546.379, 314.1071
1548.307, 316.7046
1550.236, 319.9424
1552.164, 322.2755
1554.093, 323.0174
1556.021, 323.7110
1557.950, 324.7360
1559.878, 326.0889
1561.807, 327.9336
1563.735, 330.0458
1565.664, 331.4674
1567.592, 331.9175
1569.521, 332.5075
1571.449, 333.8165
1573.378, 335.1310
1575.306, 336.1859
1577.234, 336.8260
1579.163, 336.5103
1581.091, 335.1953
1583.020, 335.4774
1584.948, 338.6259
1586.877, 341.5715
1588.805, 342.9701
1590.734, 343.6268
1592.662, 343.9286
1594.591, 344.0905
1596.519, 345.6219
1598.448, 349.1656
1600.376, 352.2585
1602.305, 353.3427
1604.233, 354.4949
1606.161, 357.3350
1608.090, 361.1476
1610.018, 364.3631
1611.947, 366.9221
1613.875, 369.1520
1615.804, 370.4031
1617.732, 372.6611
1619.661, 377.7588
1621.589, 383.6082
1623.518, 387.7759
1625.446, 390.4876
1627.375, 394.3406
1629.303, 399.9809
1631.232, 405.2195
1633.160, 409.0832
1635.089, 412.6956
1637.017, 416.7406
1638.945, 420.8624
1640.874, 424.2787
1642.802, 426.8985
1644.731, 429.4170
1646.659, 432.1868
1648.588, 434.5648
1650.516, 436.5389
1652.445, 438.0169
1654.373, 438.7745
1656.302, 438.8707
1658.230, 438.8859
1660.159, 438.9096
1662.087, 438.4518
1664.016, 437.5368
1665.944, 435.9676
1667.872, 433.7441
1669.801, 430.7813
1671.729, 426.7635
1673.658, 421.5911
1675.586, 416.8985
1677.515, 413.5800
1679.443, 409.0147
1681.372, 401.6555
1683.300, 394.2365
1685.229, 388.0626
1687.157, 382.9183
1689.086, 378.5117
1691.014, 375.0613
1692.943, 371.0966
1694.871, 366.2115
1696.799, 361.3389
1698.728, 356.3977
1700.656, 351.8085
1702.585, 347.9921
1704.513, 344.8095
1706.442, 341.6797
1708.370, 338.4639
1710.299, 335.8746
1712.227, 334.2803
1714.156, 332.8291
1716.084, 331.3023
1718.013, 329.7973
1719.941, 328.4420
1721.870, 327.1797
1723.798, 325.7051
1725.726, 323.8060
1727.655, 322.4635
1729.583, 322.4835
1731.512, 322.1016
1733.440, 320.2057
1735.369, 318.2464
1737.297, 317.8005
1739.226, 318.5541
1741.154, 318.5367
1743.083, 317.5333
1745.011, 316.5287
1746.940, 315.5294
1748.868, 314.6413
1750.797, 314.0186
1752.725, 313.3609
1754.653, 312.2302
1756.582, 310.7615
1758.510, 309.9430
1760.439, 310.1003
1762.367, 309.3680
1764.296, 306.7313
1766.224, 304.5640
1768.153, 304.0963
1770.081, 304.0428
1772.010, 303.4153
1773.938, 302.3518
1775.867, 301.2836
1777.795, 300.1875
1779.724, 299.2585
1781.652, 298.4570
1783.580, 297.9078
1785.509, 297.7039
1787.437, 297.6754
1789.366, 297.8810
1791.294, 298.1052
1793.223, 297.7076
1795.151, 296.6591
1797.080, 296.1946
1799.008, 296.8043
1800.937, 297.0416
1802.865, 296.2221
1804.794, 295.2466
1806.722, 294.5260
1808.651, 294.1127
1810.579, 294.2238
1812.507, 294.7865
1814.436, 295.0774
1816.364, 294.9266
1818.293, 294.8926
1820.221, 295.4164
1822.150, 295.5935
1824.078, 294.7165
1826.007, 293.4585
1827.935, 292.3561
1829.864, 291.5343
1831.792, 291.6061
1833.721, 292.8016
1835.649, 293.6654
1837.578, 293.7261
1839.506, 293.8769
1841.434, 294.7114
1843.363, 295.3982
1845.291, 295.1418
1847.220, 294.2780
1849.148, 293.5504
1851.077, 292.9651
1853.005, 292.4934
1854.934, 292.1068
1856.862, 291.9120
1858.791, 292.1084
1860.719, 292.2950
1862.648, 292.3891
1864.576, 292.3065
1866.505, 291.7419
1868.433, 290.8379
1870.361, 290.5999
1872.290, 291.4143
1874.218, 291.9594
1876.147, 292.2162
1878.075, 292.2562
1880.004, 291.7972
1881.932, 291.4664
1883.861, 291.9586
1885.789, 292.6909
1887.718, 292.3894
1889.646, 292.5912
1891.575, 292.8141
1893.503, 292.1112
1895.432, 292.8668
1897.360, 292.3957
1899.288, 291.9221
1901.217, 292.0905
1903.145, 292.3481
1905.074, 292.3037
1907.002, 292.1145
1908.931, 291.9138
1910.859, 291.7403
1912.788, 292.2856
1914.716, 293.8393
1916.645, 294.8725
1918.573, 294.8395
1920.502, 294.4352
1922.430, 293.5200
1924.359, 292.7678
1926.287, 292.9063
1928.215, 293.6713
1930.144, 294.4660
1932.072, 295.3224
1934.001, 296.0555
1935.929, 296.7465
1937.858, 297.1503
1939.786, 296.8651
1941.715, 296.7663
1943.643, 297.1935
1945.572, 297.9141
1947.500, 298.7071
1949.429, 299.6255
1951.357, 301.1037
1953.286, 303.3348
1955.214, 303.7506
1957.143, 300.9103
1959.071, 299.6890
1961.000, 302.1601
1962.928, 304.0660
1964.856, 303.4459
1966.785, 302.5952
1968.713, 303.2103
1970.642, 304.6852
1972.570, 305.9131
1974.499, 306.9528
1976.427, 308.2374
1978.356, 309.7972
1980.284, 311.4595
1982.213, 313.2518
1984.141, 314.9611
1986.070, 316.6089
1987.998, 318.0032
1989.927, 318.7229
1991.855, 319.3232
1993.783, 320.5273
1995.712, 322.2361
1997.640, 324.0729
1999.569, 326.1622
2001.497, 327.8367
2003.426, 328.6843
2005.354, 329.7953
2007.283, 331.8844
2009.211, 333.4094
2011.140, 333.3380
2013.068, 332.9018
2014.997, 332.9978
2016.925, 333.5449
2018.854, 334.5567
2020.782, 336.0062
2022.710, 336.8614
2024.639, 337.0085
2026.567, 337.2375
2028.496, 337.5603
2030.424, 338.1711
2032.353, 339.2453
2034.281, 340.4115
2036.210, 341.8271
2038.138, 342.9043
2040.067, 342.6835
2041.995, 341.7697
2043.924, 341.7347
2045.852, 342.5666
2047.781, 342.9840
2049.709, 342.7609
2051.637, 342.6788
2053.566, 343.1259
2055.494, 343.2016
2057.423, 342.3330
2059.351, 341.5479
2061.280, 341.7551
2063.208, 342.0812
2065.137, 341.3857
2067.065, 340.1324
2068.994, 339.5958
2070.922, 339.7484
2072.851, 339.9322
2074.779, 340.0466
2076.708, 340.3577
2078.636, 341.0161
2080.564, 341.3637
2082.493, 341.1191
2084.421, 340.5721
2086.350, 339.7246
2088.278, 338.8712
2090.207, 338.5935
2092.135, 338.4528
2094.064, 337.1869
2095.992, 334.9641
2097.921, 334.0168
2099.849, 334.7371
2101.778, 335.4270
2103.706, 336.4326
2105.635, 336.6507
2107.563, 334.7497
2109.491, 333.7116
2111.420, 335.6754
2113.348, 337.5532
2115.277, 336.7323
2117.205, 337.9876
2119.134, 335.8485
2121.062, 337.7480
2122.991, 338.0384
2124.919, 336.7777
2126.848, 336.7207
2128.776, 338.5083
2130.705, 339.2603
2132.633, 337.7399
2134.562, 336.4946
2136.490, 336.1949
2138.418, 336.0085
2140.347, 335.5992
2142.275, 335.1798
2144.204, 335.0362
2146.132, 334.9493
2148.061, 334.7073
2149.989, 334.2344
2151.918, 332.7121
2153.846, 330.2376
2155.775, 329.6881
2157.703, 331.5890
2159.632, 332.9871
2161.560, 333.1623
2163.489, 333.2587
2165.417, 333.8701
2167.345, 334.0507
2169.274, 333.1756
2171.202, 331.9879
2173.131, 330.7684
2175.059, 329.8286
2176.988, 329.6533
2178.916, 330.1306
2180.845, 331.1389
2182.773, 332.6428
2184.702, 332.6760
2186.630, 330.9380
2188.559, 330.2178
2190.487, 331.1987
2192.416, 331.5771
2194.344, 330.3630
2196.272, 329.3199
2198.201, 329.6182
2200.129, 329.6390
2202.058, 327.7854
2203.986, 325.9384
2205.915, 326.3348
2207.843, 327.7068
2209.772, 327.8286
2211.700, 326.9557
2213.629, 326.3822
2215.557, 326.1245
2217.486, 325.0544
2219.414, 324.9952
2221.343, 325.0971
2223.271, 324.2734
2225.199, 325.5983
2227.128, 324.8051
2229.056, 324.5173
2230.985, 325.8871
2232.913, 327.7422
2234.842, 328.9741
2236.770, 330.8790
2238.699, 335.3945
2240.627, 340.8551
2242.556, 344.8614
2244.484, 347.5807
2246.413, 349.8269
2248.341, 351.4362
2250.270, 350.6445
2252.198, 347.3092
2254.126, 343.1528
2256.055, 337.9213
2257.983, 333.7337
2259.912, 331.2745
2261.840, 329.2905
2263.769, 327.8276
2265.697, 326.2753
2267.626, 324.0235
2269.554, 322.0772
2271.483, 320.9615
2273.411, 320.6231
2275.340, 321.8334
2277.268, 323.3244
2279.197, 322.6280
2281.125, 320.5712
2283.053, 319.2343
2284.982, 318.6371
2286.910, 318.9002
2288.839, 320.1948
2290.767, 320.7676
2292.696, 320.3549
2294.624, 319.5185
2296.553, 317.4495
2298.481, 316.3732
2300.410, 317.0590
2302.338, 317.9853
2304.267, 318.0028
2306.195, 319.2327
2308.124, 324.8496
2310.052, 329.8081
2311.980, 330.0304
2313.909, 327.6692
2315.837, 324.1713
2317.766, 320.4727
2319.694, 318.3159
2321.623, 317.6008
2323.551, 318.2646
2325.480, 320.3158
2327.408, 321.6233
2329.337, 322.1855
2331.265, 321.6925
2333.194, 319.9001
2335.122, 318.6345
2337.051, 318.3563
2338.979, 318.1493
2340.907, 317.8534
2342.836, 317.6135
2344.764, 317.5063
2346.693, 317.4634
2348.621, 317.4953
2350.550, 317.4921
2352.478, 317.2920
2354.407, 317.0031
2356.335, 316.4912
2358.264, 316.0659
2360.192, 316.5024
2362.121, 317.1590
2364.049, 316.7194
2365.978, 315.4990
2367.906, 314.4755
2369.834, 313.6949
2371.763, 313.2682
2373.691, 313.1902
2375.620, 313.5582
2377.548, 314.4881
2379.477, 314.5631
2381.405, 313.2739
2383.334, 312.6967
2385.262, 313.4892
2387.191, 314.3689
2389.119, 315.6394
2391.048, 316.0475
2392.976, 314.4527
2394.905, 313.0712
2396.833, 312.8623
2398.761, 313.1378
2400.690, 313.9220
2402.618, 314.4759
2404.547, 313.8957
2406.475, 313.0528
2408.404, 312.8959
2410.332, 313.1307
2412.261, 313.3183
2414.189, 313.5352
2416.118, 314.2868
2418.046, 315.2856
2419.975, 314.4339
2421.903, 311.9114
2423.832, 310.9426
2425.760, 311.5433
2427.688, 312.4865
2429.617, 313.7702
2431.545, 314.1796
2433.474, 313.1754
2435.402, 312.5849
2437.331, 312.8341
2439.259, 313.1122
2441.188, 313.6437
2443.116, 313.6941
2445.045, 312.9342
2446.973, 312.0830
2448.902, 310.9989
2450.830, 310.5179
2452.759, 311.4596
2454.687, 312.4926
2456.615, 313.0825
2458.544, 313.2076
2460.472, 312.4180
2462.401, 311.6501
2464.329, 311.9043
2466.258, 312.5922
2468.186, 313.3717
2470.115, 313.8637
2472.043, 313.1335
2473.972, 313.2754
2475.900, 312.8153
2477.829, 312.1500
2479.757, 311.7855
2481.686, 310.7497
2483.614, 310.1711
2485.542, 310.0105
2487.471, 309.2742
2489.399, 308.0747
2491.328, 308.3638
2493.256, 310.4307
2495.185, 311.4760
2497.113, 310.8309
2499.042, 310.6215
2500.970, 310.9787
2502.899, 311.3761
2504.827, 311.9565
2506.756, 311.7127
2508.684, 309.9515
2510.613, 309.2701
2512.541, 311.1245
2514.469, 312.3963
2516.398, 311.8765
2518.326, 311.3070
2520.255, 311.0259
2522.183, 311.0157
2524.112, 311.3591
2526.040, 311.7858
2527.969, 312.2950
2529.897, 312.6495
2531.826, 312.9525
2533.754, 312.7689
2535.683, 311.1079
2537.611, 309.6903
2539.540, 310.1488
2541.468, 311.2210
2543.396, 311.8295
2545.325, 312.2825
2547.253, 313.1668
2549.182, 313.7987
2551.110, 312.9956
2553.039, 311.6762
2554.967, 311.2996
2556.896, 311.4680
2558.824, 311.4697
2560.753, 311.4018
2562.681, 311.3632
2564.610, 311.4549
2566.538, 312.0214
2568.467, 312.8606
2570.395, 313.2430
2572.323, 313.2367
2574.252, 313.3413
2576.180, 313.5477
2578.109, 314.2546
2580.037, 314.1638
2581.966, 315.4226
2583.894, 314.5625
2585.823, 314.3820
2587.751, 315.0228
2589.680, 315.3749
2591.608, 315.3428
2593.537, 315.5088
2595.465, 315.8920
2597.394, 315.9454
2599.322, 315.5524
2601.250, 315.7910
2603.179, 316.9046
2605.107, 317.5041
2607.036, 317.1599
2608.964, 317.1321
2610.893, 317.6298
2612.821, 318.0030
2614.750, 318.1603
2616.678, 318.5816
2618.607, 319.4509
2620.535, 320.0201
2622.464, 319.9339
2624.392, 320.0002
2626.321, 320.5099
2628.249, 320.8204
2630.177, 320.8008
2632.106, 320.8548
2634.034, 321.1363
2635.963, 321.3068
2637.891, 321.1109
2639.820, 321.1961
2641.748, 322.1027
2643.677, 322.6250
2645.605, 322.1636
2647.534, 322.0468
2649.462, 322.7367
2651.391, 323.2730
2653.319, 323.3231
2655.248, 323.1798
2657.176, 322.6129
2659.104, 322.3631
2661.033, 322.8567
2662.961, 323.4037
2664.890, 324.1736
2666.818, 324.3206
2668.747, 323.0056
2670.675, 322.1396
2672.604, 322.6119
2674.532, 323.4145
2676.461, 324.4430
2678.389, 325.3155
2680.318, 325.8907
2682.246, 326.2379
2684.175, 326.0836
2686.103, 326.2021
2688.031, 327.0465
2689.960, 328.0453
2691.888, 329.5692
2693.817, 330.3524
2695.745, 329.4877
2697.674, 328.9578
2699.602, 330.1255
2701.531, 330.6528
2703.459, 328.4803
2705.388, 327.1121
2707.316, 328.4116
2709.245, 329.8175
2711.173, 330.4251
2713.102, 331.1747
2715.030, 332.8016
2716.958, 333.8648
2718.887, 332.7651
2720.815, 332.6203
2722.744, 335.7012
2724.672, 337.9662
2726.601, 337.9701
2728.529, 337.8902
2730.458, 338.6552
2732.386, 339.0949
2734.315, 338.3148
2736.243, 337.8849
2738.172, 338.4116
2740.100, 339.0348
2742.029, 339.8210
2743.957, 340.0536
2745.885, 339.0920
2747.814, 338.6083
2749.742, 339.3107
2751.671, 340.2472
2753.599, 341.3617
2755.528, 342.4681
2757.456, 343.5939
2759.385, 344.3466
2761.313, 344.2437
2763.242, 344.5668
2765.170, 345.9025
2767.099, 346.9998
2769.027, 347.8595
2770.956, 348.0086
2772.884, 347.0797
2774.813, 347.0392
2776.741, 348.7758
2778.669, 350.0219
2780.598, 350.7949
2782.526, 350.3798
2784.455, 348.3584
2786.383, 347.8467
2788.312, 349.3336
2790.240, 350.7474
2792.169, 351.9134
2794.097, 352.4645
2796.026, 353.3517
2797.954, 353.8596
2799.883, 354.4539
2801.811, 354.7564
2803.740, 355.3263
2805.668, 355.9007
2807.596, 355.6699
2809.525, 356.4339
2811.453, 356.2181
2813.382, 356.4630
2815.310, 357.1894
2817.239, 358.7670
2819.167, 360.8453
2821.096, 361.4084
2823.024, 360.8300
2824.953, 360.3967
2826.881, 360.3986
2828.810, 362.0545
2830.738, 364.6751
2832.667, 367.0257
2834.595, 368.9838
2836.523, 370.1000
2838.452, 370.8637
2840.380, 372.2255
2842.309, 373.6771
2844.237, 374.6135
2846.166, 375.2120
2848.094, 375.4664
2850.023, 375.6960
2851.951, 375.9956
2853.880, 376.6816
2855.808, 378.4822
2857.737, 380.0902
2859.665, 380.0558
2861.594, 380.3120
2863.522, 382.0114
2865.450, 384.4081
2867.379, 387.4040
2869.307, 390.5429
2871.236, 394.2648
2873.164, 396.9713
2875.093, 397.6070
2877.021, 398.0148
2878.950, 398.2644
2880.878, 399.2267
2882.807, 401.4939
2884.735, 403.2539
2886.664, 404.0690
2888.592, 404.2669
2890.521, 406.4220
2892.449, 408.5038
2894.377, 410.0870
2896.306, 413.9477
2898.234, 416.1740
2900.163, 418.3431
2902.091, 420.4835
2904.020, 421.5240
2905.948, 421.7584
2907.877, 422.7353
2909.805, 424.5172
2911.734, 427.3848
2913.662, 430.9637
2915.591, 434.0988
2917.519, 437.1085
2919.448, 440.7391
2921.376, 444.5895
2923.304, 447.9848
2925.233, 451.4607
2927.161, 455.6351
2929.090, 460.3072
2931.018, 465.1439
2932.947, 470.6037
2934.875, 477.8043
2936.804, 484.5251
2938.732, 489.9630
2940.661, 493.8152
2942.589, 495.7462
2944.518, 496.6604
2946.446, 495.7832
2948.375, 496.2111
2950.303, 500.2188
2952.231, 501.3390
2954.160, 498.4595
2956.088, 496.3461
2958.017, 495.8145
2959.945, 493.9401
2961.874, 493.4839
2963.802, 493.3875
2965.731, 492.7397
2967.659, 494.0259
2969.588, 493.9864
2971.516, 494.7695
2973.445, 496.3234
2975.373, 498.9663
2977.302, 501.8081
2979.230, 502.6981
2981.158, 503.1373
2983.087, 504.8231
2985.015, 507.1834
2986.944, 510.7686
2988.872, 513.3018
2990.801, 512.5472
2992.729, 511.9451
2994.658, 513.6673
2996.586, 515.2819
2998.515, 515.3451
3000.443, 516.5422
3002.372, 519.9289
3004.300, 522.1188
3006.229, 522.0929
3008.157, 521.7589
3010.085, 521.1078
3012.014, 521.0891
3013.942, 521.7816
3015.871, 524.0559
3017.799, 524.5345
3019.728, 528.4615
3021.656, 528.1258
3023.585, 530.8766
3025.513, 535.0300
3027.442, 537.9858
3029.370, 540.1432
3031.299, 540.9000
3033.227, 542.4959
3035.156, 547.9953
3037.084, 553.1035
3039.012, 554.5532
3040.941, 556.2928
3042.869, 560.7471
3044.798, 564.2416
3046.726, 565.6210
3048.655, 568.0239
3050.583, 572.3491
3052.512, 576.8058
3054.440, 581.4852
3056.369, 584.5634
3058.297, 586.2513
3060.226, 588.7579
3062.154, 592.1193
3064.083, 596.6630
3066.011, 599.6198
3067.939, 604.5427
3069.868, 606.9144
3071.796, 610.8348
3073.725, 614.5878
3075.653, 615.1730
3077.582, 617.3303
3079.510, 624.7463
3081.439, 631.8864
3083.367, 636.0367
3085.296, 640.4065
3087.224, 645.7252
3089.153, 650.8295
3091.081, 655.5574
3093.010, 660.0053
3094.938, 664.1234
3096.866, 668.3295
3098.795, 672.6319
3100.723, 677.1924
3102.652, 681.8386
3104.580, 686.1608
3106.509, 690.2789
3108.437, 694.3262
3110.366, 698.3160
3112.294, 701.5754
3114.223, 705.8860
3116.151, 713.3985
3118.080, 720.4816
3120.008, 725.9426
3121.937, 731.0061
3123.865, 735.6268
3125.793, 741.3225
3127.722, 748.7299
3129.650, 754.6288
3131.579, 759.1350
3133.507, 764.0154
3135.436, 769.4212
3137.364, 776.1828
3139.293, 783.4510
3141.221, 789.4118
3143.150, 795.1993
3145.078, 801.5594
3147.007, 808.6338
3148.935, 817.0984
3150.864, 825.0557
3152.792, 831.7043
3154.720, 838.2032
3156.649, 844.8469
3158.577, 851.2725
3160.506, 857.4503
3162.434, 864.3487
3164.363, 871.8810
3166.291, 878.5121
3168.220, 886.7180
3170.148, 893.6002
3172.077, 903.1818
3174.005, 911.7264
3175.934, 920.2576
3177.862, 930.0501
3179.791, 939.5944
3181.719, 947.6560
3183.647, 956.8445
3185.576, 968.4135
3187.504, 979.4288
3189.433, 989.0911
3191.361, 999.1544
3193.290, 1009.333
3195.218, 1016.952
3197.147, 1027.334
3199.075, 1033.781
3201.004, 1045.622
3202.932, 1053.306
3204.861, 1060.775
3206.789, 1071.789
3208.718, 1083.122
3210.646, 1092.289
3212.574, 1103.132
3214.503, 1117.058
3216.431, 1129.864
3218.360, 1140.631
3220.288, 1150.462
3222.217, 1159.659
3224.145, 1171.083
3226.074, 1183.842
3228.002, 1195.179
3229.931, 1206.237
3231.859, 1218.518
3233.788, 1231.122
3235.716, 1243.473
3237.645, 1255.732
3239.573, 1267.757
3241.501, 1279.971
3243.430, 1292.227
3245.358, 1306.305
3247.287, 1319.165
3249.215, 1332.253
3251.144, 1346.215
3253.072, 1358.347
3255.001, 1371.319
3256.929, 1384.037
3258.858, 1397.344
3260.786, 1412.277
3262.715, 1427.402
3264.643, 1443.284
3266.572, 1456.207
3268.500, 1464.848
3270.428, 1475.468
3272.357, 1488.846
3274.285, 1500.865
3276.214, 1512.203
3278.142, 1527.888
3280.071, 1544.156
3281.999, 1553.951
3283.928, 1563.101
3285.856, 1579.007
3287.785, 1592.020
3289.713, 1596.688
3291.642, 1603.834
3293.570, 1618.593
3295.499, 1626.840
3297.427, 1628.941
3299.355, 1636.252
3301.284, 1646.520
3303.212, 1652.146
3305.141, 1655.063
3307.069, 1656.399
3308.998, 1658.897
3310.926, 1665.799
3312.855, 1672.496
3314.783, 1678.582
3316.712, 1681.620
3318.640, 1680.612
3320.569, 1680.608
3322.497, 1681.535
3324.426, 1682.640
3326.354, 1683.894
3328.282, 1686.857
3330.211, 1687.943
3332.139, 1681.724
3334.068, 1676.260
3335.996, 1676.471
3337.925, 1674.847
3339.853, 1669.507
3341.782, 1668.106
3343.710, 1670.453
3345.639, 1670.961
3347.567, 1669.158
3349.496, 1662.428
3351.424, 1654.771
3353.353, 1651.549
3355.281, 1646.820
3357.209, 1635.879
3359.138, 1626.163
3361.066, 1618.923
3362.995, 1614.499
3364.923, 1613.007
3366.852, 1607.767
3368.780, 1600.318
3370.709, 1593.607
3372.637, 1587.972
3374.566, 1585.013
3376.494, 1580.946
3378.423, 1573.016
3380.351, 1566.328
3382.280, 1562.901
3384.208, 1557.863
3386.136, 1551.374
3388.065, 1545.985
3389.993, 1541.551
3391.922, 1538.105
3393.850, 1534.838
3395.779, 1530.783
3397.707, 1527.138
3399.636, 1525.412
3401.564, 1522.459
3403.493, 1517.936
3405.421, 1513.481
3407.350, 1509.538
3409.278, 1509.717
3411.207, 1511.173
3413.135, 1507.618
3415.063, 1505.172
3416.992, 1509.861
3418.920, 1515.076
3420.849, 1519.463
3422.777, 1522.442
3424.706, 1523.820
3426.634, 1524.493
3428.563, 1525.375
3430.491, 1529.586
3432.420, 1535.052
3434.348, 1539.563
3436.277, 1543.987
3438.205, 1548.909
3440.134, 1553.716
3442.062, 1558.516
3443.990, 1561.669
3445.919, 1563.872
3447.847, 1570.438
3449.776, 1577.906
3451.704, 1579.928
3453.633, 1579.855
3455.561, 1581.292
3457.490, 1578.116
3459.418, 1568.397
3461.347, 1558.965
3463.275, 1550.207
3465.204, 1537.168
3467.132, 1521.107
3469.061, 1502.695
3470.989, 1486.343
3472.917, 1479.048
3474.846, 1468.568
3476.774, 1450.788
3478.703, 1432.426
3480.631, 1414.238
3482.560, 1395.400
3484.488, 1376.180
3486.417, 1357.873
3488.345, 1339.455
3490.274, 1320.219
3492.202, 1300.073
3494.131, 1278.253
3496.059, 1258.445
3497.988, 1241.000
3499.916, 1225.874
3501.844, 1210.951
3503.773, 1190.310
3505.701, 1167.705
3507.630, 1147.166
3509.558, 1126.367
3511.487, 1103.904
3513.415, 1082.982
3515.344, 1063.840
3517.272, 1047.541
3519.201, 1032.417
3521.129, 1014.682
3523.058, 994.7751
3524.986, 972.0109
3526.915, 949.9240
3528.843, 929.6379
3530.771, 911.8452
3532.700, 896.2302
3534.628, 875.8864
3536.557, 859.4722
3538.485, 838.7328
3540.414, 824.3226
3542.342, 804.9104
3544.271, 787.0230
3546.199, 773.0372
3548.128, 757.0763
3550.056, 739.1414
3551.985, 723.5895
3553.913, 709.4800
3555.842, 695.0943
3557.770, 681.2659
3559.698, 668.1652
3561.627, 657.0529
3563.555, 645.4172
3565.484, 634.2623
3567.412, 624.7906
3569.341, 613.8495
3571.269, 604.1742
3573.198, 596.1291
3575.126, 587.5496
3577.055, 577.2062
3578.983, 567.9111
3580.912, 560.1307
3582.840, 551.2927
3584.769, 546.5428
3586.697, 541.0457
3588.625, 534.8481
3590.554, 525.3002
3592.482, 520.4977
3594.411, 514.0485
3596.339, 507.7100
3598.268, 504.0963
3600.196, 495.9816
3602.125, 492.6944
3604.053, 487.7382
3605.982, 483.8118
3607.910, 478.2328
3609.839, 473.4022
3611.767, 470.5966
3613.696, 466.9540
3615.624, 461.8967
3617.552, 459.1266
3619.481, 452.7790
3621.409, 449.9150
3623.338, 448.6560
3625.266, 444.6072
3627.195, 442.7859
3629.123, 440.3703
3631.052, 434.5972
3632.980, 435.1645
3634.909, 433.2518
3636.837, 428.7900
3638.766, 429.6952
3640.694, 425.9769
3642.623, 424.1573
3644.551, 423.8133
3646.479, 422.3061
3648.408, 423.1046
3650.336, 421.8082
3652.265, 420.2891
3654.193, 418.1526
3656.122, 415.5038
3658.050, 413.2396
3659.979, 411.5044
3661.907, 411.0380
3663.836, 410.0934
3665.764, 408.8057
3667.693, 408.0403
3669.621, 406.5159
3671.550, 406.2082
3673.478, 405.1368
3675.406, 404.7006
3677.335, 403.9468
3679.263, 401.9924
3681.192, 399.5791
3683.120, 396.5410
3685.049, 397.3771
3686.977, 400.3148
3688.906, 399.2863
3690.834, 397.1396
3692.763, 395.7919
3694.691, 394.8312
3696.620, 394.2158
3698.548, 393.5652
3700.477, 392.9569
3702.405, 392.9426
3704.333, 393.0148
3706.262, 393.1981
3708.190, 392.0734
3710.119, 389.1700
3712.047, 387.2462
3713.976, 386.2886
3715.904, 386.1649
3717.833, 386.2004
3719.761, 385.9357
3721.690, 385.5638
3723.618, 385.1318
3725.547, 384.8177
3727.475, 384.5488
3729.404, 384.6035
3731.332, 383.7122
3733.260, 383.2265
3735.189, 382.5917
3737.117, 381.3332
3739.046, 381.8347
3740.974, 380.3528
3742.903, 381.5792
3744.831, 382.6010
3746.760, 380.8843
3748.688, 379.5326
3750.617, 378.9510
3752.545, 377.3383
3754.474, 375.7231
3756.402, 377.3438
3758.331, 379.0441
3760.259, 379.0468
3762.188, 378.1471
3764.116, 376.5444
3766.044, 376.7292
3767.973, 375.7332
3769.901, 376.2342
3771.830, 375.0417
3773.758, 374.8642
3775.687, 375.1715
3777.615, 375.6453
3779.544, 373.3487
3781.472, 370.9806
3783.401, 372.2222
3785.329, 373.9624
3787.258, 375.7619
3789.186, 375.3053
3791.115, 373.3988
3793.043, 372.9409
3794.971, 373.2228
3796.900, 374.2296
3798.828, 373.9054
3800.757, 371.2577
3802.685, 370.9077
3804.614, 371.8111
3806.542, 372.0755
3808.471, 371.4984
3810.399, 369.5750
3812.328, 368.7994
3814.256, 369.4195
3816.185, 369.5303
3818.113, 369.5091
3820.042, 370.0122
3821.970, 370.3139
3823.898, 370.2173
3825.827, 370.2539
3827.755, 370.2856
3829.684, 369.5297
3831.612, 368.3473
3833.541, 366.0353
3835.469, 366.1260
3837.398, 365.5424
3839.326, 368.1355
3841.255, 365.8973
3843.183, 366.5270
3845.112, 366.8711
3847.040, 364.8300
3848.969, 364.7704
3850.897, 366.2512
3852.825, 365.9615
3854.754, 364.9691
3856.682, 363.8633
3858.611, 363.5566
3860.539, 364.2841
3862.468, 364.9310
3864.396, 365.1225
3866.325, 363.7682
3868.253, 362.4613
3870.182, 361.7413
3872.110, 362.0962
3874.039, 363.3522
3875.967, 363.5693
3877.896, 363.4958
3879.824, 363.7661
3881.752, 364.4966
3883.681, 365.8350
3885.609, 366.5411
3887.538, 366.8151
3889.466, 366.9101
3891.395, 366.9598
3893.323, 367.0744
3895.252, 366.7736
3897.180, 366.1582
3899.109, 365.6527
3901.037, 365.6794
3902.966, 366.5775
3904.894, 367.3689
3906.823, 367.7604
3908.751, 365.9680
3910.679, 364.4439
3912.608, 366.2497
3914.536, 367.9239
3916.465, 368.4650
3918.393, 369.3953
3920.322, 370.1957
3922.250, 370.4175
3924.179, 370.5533
3926.107, 370.2331
3928.036, 370.1050
3929.964, 368.6725
3931.893, 368.2656
3933.821, 368.5313
3935.750, 368.2029
3937.678, 370.3431
3939.606, 369.1868
3941.535, 370.4064
3943.463, 371.9183
3945.392, 371.3496
3947.320, 371.2457
3949.249, 371.9754
3951.177, 371.5356
3953.106, 370.5937
3955.034, 370.6944
3956.963, 370.9167
3958.891, 370.8542
3960.820, 370.6679
3962.748, 370.4422
3964.677, 370.0704
3966.605, 370.2989
3968.533, 371.7167
3970.462, 371.4919
3972.390, 370.1381
3974.319, 371.9053
3976.247, 373.4696
3978.176, 371.5003
3980.104, 370.9373
3982.033, 372.4775
3983.961, 373.6038
3985.890, 374.1748
3987.818, 373.9325
3989.747, 373.5435
3991.675, 373.3696
3993.604, 373.9320
3995.532, 374.3789
3997.460, 372.5853
3999.389, 371.5104
4001.317, 373.1267
4003.246, 373.9091
4005.174, 373.3486
4007.103, 374.5942
4009.031, 375.6417
4010.960, 374.2520
4012.888, 373.6537
4014.817, 374.7939
4016.745, 375.2829
4018.674, 374.7118
4020.602, 374.0578
4022.531, 374.6261
4024.459, 375.4513
4026.387, 374.9424
4028.316, 375.1093
4030.244, 376.3673
4032.173, 376.5040
4034.101, 376.7696
4036.030, 377.1036
4037.958, 376.8774
4039.887, 377.0367
4041.815, 376.9464
4043.744, 376.6175
4045.672, 376.5019
4047.601, 375.6801
4049.529, 375.6506
4051.458, 375.1020
4053.386, 375.2643
4055.314, 375.0078
4057.243, 374.8770
4059.171, 374.8277
4061.100, 375.7898
4063.028, 376.3405
4064.957, 375.4803
4066.885, 373.9661
4068.814, 373.2291
4070.742, 374.0515
4072.671, 375.5600
4074.599, 377.2999
4076.528, 378.3724
4078.456, 376.4118
4080.385, 374.3710
4082.313, 374.4293
4084.241, 375.5675
4086.170, 374.6617
4088.098, 376.6126
4090.027, 374.7061
4091.955, 375.3717
4093.884, 375.2313
4095.812, 374.1737
4097.741, 374.6786
4099.669, 374.8229
4101.598, 374.8557
4103.526, 375.2076
4105.455, 376.3432
4107.383, 376.2131
4109.312, 376.3131
4111.240, 374.3159
4113.168, 376.2114
4115.097, 376.5786
4117.025, 377.3813
4118.954, 379.6365
4120.882, 378.3579
4122.811, 375.9461
4124.739, 375.9184
4126.668, 375.8298
4128.596, 375.9404
4130.525, 377.7204
4132.453, 376.9198
4134.382, 378.5134
4136.310, 376.7670
4138.239, 377.8560
4140.167, 378.5555
4142.096, 378.3208
4144.024, 378.7386
4145.953, 378.4973
4147.881, 376.8066
4149.810, 376.5678
4151.738, 377.2396
4153.667, 376.8023
4155.595, 377.1210
4157.523, 379.3581
4159.452, 380.3821
4161.380, 380.0307
4163.309, 378.6646
4165.237, 377.8989
4167.166, 377.8963
4169.094, 378.2387
4171.022, 379.2070
4172.951, 380.4266
4174.879, 381.2408
4176.808, 381.4260
4178.736, 380.5859
4180.665, 379.4018
4182.593, 378.0960
4184.522, 378.1808
4186.450, 380.0170
4188.379, 380.8203
4190.307, 380.4225
4192.236, 377.9398
4194.164, 376.9783
4196.093, 378.2735
4198.021, 378.3195
4199.950, 378.0080
4201.878, 378.3963
4203.807, 379.4369
4205.735, 380.9915
4207.664, 381.4190
4209.592, 381.7056
4211.521, 383.4134
4213.449, 383.0661
4215.377, 380.7216
4217.306, 379.6802
4219.234, 379.6903
4221.163, 381.0700
4223.091, 380.2587
4225.020, 381.0383
4226.948, 379.9733
4228.876, 381.6170
4230.805, 379.5468
4232.733, 379.3741
4234.662, 380.8323
4236.590, 381.8006
4238.519, 382.7983
4240.447, 384.2110
4242.376, 383.3365
4244.304, 381.5840
4246.233, 382.5102
4248.161, 382.1805
4250.090, 379.1486
4252.018, 377.7230
4253.947, 377.3947
4255.875, 377.5480
4257.804, 378.2653
4259.732, 379.5927
4261.661, 379.5636
4263.589, 378.7547
4265.518, 379.7417
4267.446, 377.4839
4269.375, 380.1217
4271.303, 380.7152
4273.231, 380.1314
4275.160, 378.2522
4277.088, 379.3763
4279.017, 381.9027
4280.945, 379.9384
4282.874, 377.0458
4284.802, 374.1595
4286.730, 375.5079
4288.659, 378.4449
4290.587, 379.2250
4292.516, 378.0274
4294.444, 374.9282
4296.373, 375.0339
4298.301, 376.1149
4300.230, 376.0277
4302.158, 377.4707
4304.087, 376.3969
4306.015, 377.5096
4307.944, 374.7265
4309.872, 373.7747
4311.801, 373.7433
4313.729, 374.1392
4315.658, 373.9096
4317.586, 374.4882
4319.515, 376.2588
4321.443, 377.0014
4323.372, 377.4919
4325.300, 379.0329
4327.229, 378.9564
4329.157, 377.3666
4331.085, 377.4655
4333.014, 376.9846
4334.942, 374.3326
4336.871, 373.7004
4338.799, 374.3250
4340.728, 373.5775
4342.656, 373.4312
4344.584, 374.3726
4346.513, 374.2892
4348.441, 373.7668
4350.370, 372.7874
4352.298, 374.3881
4354.227, 373.7176
4356.155, 375.4192
4358.084, 373.8321
4360.012, 376.7260
4361.941, 376.5251
4363.869, 374.4344
4365.798, 372.5121
4367.726, 371.8978
4369.655, 372.8296
4371.583, 373.3052
4373.512, 374.1531
4375.440, 373.5773
4377.369, 373.5780
4379.297, 372.2399
4381.226, 371.9281
4383.154, 371.5262
4385.083, 369.3579
4387.011, 370.0525
4388.939, 371.1722
4390.868, 369.7071
4392.796, 368.5285
4394.725, 368.0644
4396.653, 367.1683
4398.582, 366.7713
4400.510, 366.7980
4402.438, 366.8125
4404.367, 368.0202
4406.295, 367.1861
4408.224, 368.9420
4410.152, 366.4474
4412.081, 366.4323
4414.009, 366.6800
4415.938, 365.7265
4417.866, 365.8436
4419.795, 366.6472
4421.723, 367.8860
4423.652, 367.5054
4425.580, 365.2553
4427.509, 363.5341
4429.437, 362.1522
4431.366, 360.4627
4433.294, 361.7272
4435.223, 364.3524
4437.151, 365.2987
4439.080, 365.6577
4441.008, 365.6161
4442.937, 365.2873
4444.865, 365.3269
4446.793, 363.4393
4448.722, 364.0715
4450.650, 362.5612
4452.579, 362.6507
4454.507, 362.5124
4456.436, 362.5190
4458.364, 362.4837
4460.292, 361.8353
4462.221, 362.0833
4464.149, 360.8935
4466.078, 359.4636
4468.006, 360.3380
4469.935, 360.3786
4471.863, 359.2027
4473.792, 358.3383
4475.720, 357.4906
4477.649, 356.4825
4479.577, 356.6216
4481.506, 356.9504
4483.434, 355.9538
4485.363, 356.0215
4487.291, 356.7911
4489.220, 355.3405
4491.148, 354.6467
4493.077, 355.8576
4495.005, 356.6109
4496.934, 356.2780
4498.862, 353.3062
4500.791, 352.4511
4502.719, 353.2708
4504.647, 354.4464
4506.576, 354.0990
4508.504, 351.8520
4510.433, 352.1561
4512.361, 352.4739
4514.290, 351.2319
4516.218, 351.3080
4518.146, 351.5309
4520.075, 349.4859
4522.003, 347.6088
4523.932, 346.6491
4525.860, 348.6265
4527.789, 350.1456
4529.717, 349.7570
4531.646, 347.5464
4533.574, 346.5267
4535.503, 345.7896
4537.431, 349.0383
4539.360, 344.9933
4541.288, 346.9168
4543.217, 348.1078
4545.145, 347.4489
4547.074, 346.3404
4549.002, 345.4980
4550.931, 345.3596
4552.859, 345.0407
4554.788, 344.3735
4556.716, 342.8835
4558.645, 342.0832
4560.573, 341.9749
4562.501, 342.5988
4564.430, 342.6383
4566.358, 342.0308
4568.287, 342.5564
4570.215, 342.3912
4572.144, 342.1400
4574.072, 342.1005
4576.000, 341.5167
4577.929, 341.3123
4579.857, 340.6419
4581.786, 339.7498
4583.714, 339.1338
4585.643, 338.4814
4587.571, 337.7524
4589.500, 336.1877
4591.428, 336.9438
4593.357, 335.5941
4595.285, 335.7108
4597.214, 334.7958
4599.142, 335.8477
4601.071, 337.0679
4602.999, 337.3994
4604.928, 334.8331
4606.856, 333.0997
4608.785, 332.8146
4610.713, 334.9722
4612.642, 335.8117
4614.570, 334.4257
4616.499, 332.7541
4618.427, 331.8093
4620.355, 331.0895
4622.284, 331.7236
4624.212, 330.6094
4626.141, 331.0460
4628.069, 331.6716
4629.998, 331.9619
4631.926, 330.6754
4633.854, 330.8639
4635.783, 332.1221
4637.711, 330.1451
4639.640, 328.4460
4641.568, 328.2698
4643.497, 325.8627
4645.425, 324.8659
4647.354, 327.2938
4649.282, 328.7852
4651.211, 329.3762
4653.139, 329.7167
4655.068, 327.3267
4656.996, 327.3332
4658.925, 324.8483
4660.853, 324.6650
4662.782, 323.3429
4664.710, 321.1166
4666.639, 320.9553
4668.567, 323.0253
4670.496, 324.7420
4672.424, 324.8834
4674.353, 322.5803
4676.281, 322.5513
4678.209, 322.8793
4680.138, 322.2767
4682.066, 321.4320
4683.995, 320.3683
4685.923, 318.5332
4687.852, 318.6591
4689.780, 319.6844
4691.708, 318.9711
4693.637, 319.2501
4695.565, 320.2999
4697.494, 320.3093
4699.422, 319.1077
4701.351, 317.2076
4703.279, 317.5675
4705.208, 317.0437
4707.136, 314.2925
4709.065, 315.5257
4710.993, 317.2065
4712.922, 317.4725
4714.850, 316.0534
4716.779, 314.9312
4718.707, 316.4207
4720.636, 314.0858
4722.564, 311.6751
4724.493, 315.1591
4726.421, 314.9242
4728.350, 312.5690
4730.278, 312.3934
4732.207, 312.2818
4734.135, 311.9653
4736.063, 311.4487
4737.992, 311.3091
4739.920, 311.6178
4741.849, 312.5558
4743.777, 312.5224
4745.706, 311.3185
4747.634, 310.1317
4749.563, 308.7610
4751.491, 307.0513
4753.419, 308.1419
4755.348, 308.8607
4757.276, 307.6739
4759.205, 310.9510
4761.133, 312.9734
4763.062, 308.1754
4764.990, 306.0264
4766.919, 305.8194
4768.847, 307.0456
4770.776, 306.6490
4772.704, 306.0880
4774.633, 308.3735
4776.561, 306.5869
4778.490, 303.3030
4780.418, 303.4908
4782.347, 304.2619
4784.275, 305.1385
4786.204, 306.1755
4788.132, 306.5783
4790.061, 305.7618
4791.989, 301.2965
4793.917, 299.4565
4795.846, 300.6342
4797.774, 303.0254
4799.703, 303.2550
4801.631, 301.4595
4803.560, 302.0018
4805.488, 301.9463
4807.417, 300.6947
4809.345, 301.2032
4811.273, 300.3954
4813.202, 298.0464
4815.130, 300.5386
4817.059, 301.9545
4818.987, 299.9049
4820.916, 298.4678
4822.844, 297.8410
4824.773, 298.0934
4826.701, 300.5546
4828.630, 301.7798
4830.558, 299.8636
4832.487, 298.6398
4834.415, 297.5747
4836.344, 296.3664
4838.272, 296.9698
4840.201, 297.2903
4842.129, 295.7872
4844.058, 295.0780
4845.986, 294.9154
4847.915, 295.1108
4849.843, 294.9513
4851.771, 295.3685
4853.700, 297.6145
4855.628, 294.8051
4857.557, 291.8694
4859.485, 292.5797
4861.414, 292.1321
4863.342, 291.6717
4865.271, 292.5848
4867.199, 291.7221
4869.127, 290.1591
4871.056, 288.6115
4872.984, 289.4667
4874.913, 292.2651
4876.841, 297.1261
4878.770, 296.6104
4880.698, 293.8035
4882.627, 291.2774
4884.555, 289.4228
4886.484, 288.0371
4888.412, 286.8507
4890.341, 288.3819
4892.269, 290.3224
4894.198, 290.8828
4896.126, 289.4354
4898.055, 288.0460
4899.983, 288.3253
4901.912, 288.2481
4903.840, 287.8691
4905.769, 287.2159
4907.697, 287.4066
4909.625, 287.2012
4911.554, 285.7687
4913.482, 282.8119
4915.411, 281.3185
4917.339, 283.8851
4919.268, 284.7279
4921.196, 284.9891
4923.125, 285.2740
4925.053, 284.6159
4926.981, 283.8820
4928.910, 283.6058
4930.838, 282.1376
4932.767, 280.9870
4934.695, 280.8151
4936.624, 280.8554
4938.552, 282.3512
4940.481, 285.3160
4942.409, 282.7575
4944.338, 281.6112
4946.266, 283.7199
4948.195, 280.8809
4950.123, 280.0357
4952.052, 281.8460
4953.980, 278.3096
4955.909, 277.1475
4957.837, 279.1891
4959.766, 278.3744
4961.694, 278.5303
4963.623, 279.6035
4965.551, 279.0714
4967.479, 278.5216
4969.408, 277.8210
4971.336, 275.5579
4973.265, 273.9105
4975.193, 273.2510
4977.122, 273.8368
4979.050, 274.6934
4980.979, 275.1971
4982.907, 274.0799
4984.835, 275.5967
4986.764, 277.0992
4988.692, 275.3991
4990.621, 273.7837
4992.549, 273.2723
4994.478, 274.9944
4996.406, 274.1026
4998.335, 273.2022
5000.263, 273.8276
5002.192, 272.9266
5004.120, 272.1045
5006.049, 272.0989
5007.977, 271.0891
5009.906, 269.7267
5011.834, 268.4984
5013.763, 269.4614
5015.691, 269.8095
5017.620, 269.2495
5019.548, 269.1697
5021.477, 269.4562
5023.405, 269.8570
5025.333, 269.6732
5027.262, 270.3953
5029.190, 270.8712
5031.119, 268.5265
5033.047, 268.1683
5034.976, 268.5495
5036.904, 267.6826
5038.833, 267.8634
5040.761, 267.9780
5042.689, 267.1982
5044.618, 267.0217
5046.546, 267.1205
5048.475, 267.2223
5050.403, 265.2296
5052.332, 265.1273
5054.260, 267.4690
5056.189, 267.0641
5058.117, 265.5745
5060.046, 263.9149
5061.974, 263.3386
5063.903, 263.5775
5065.831, 263.6428
5067.760, 261.5955
5069.688, 261.4684
5071.617, 261.3562
5073.545, 258.5902
5075.474, 258.8410
5077.402, 260.7564
5079.331, 263.5416
5081.259, 261.7899
5083.188, 260.2198
5085.116, 260.3734
5087.044, 259.6537
5088.973, 258.3746
5090.901, 257.1186
5092.830, 257.6407
5094.758, 258.4726
5096.687, 259.1142
5098.615, 259.0688
5100.543, 259.8025
5102.472, 260.1725
5104.400, 258.7240
5106.329, 257.1526
5108.257, 255.9837
5110.186, 255.4705
5112.114, 255.9075
5114.043, 255.9444
5115.971, 255.5079
5117.900, 256.6002
5119.828, 256.9103
5121.757, 256.3799
5123.685, 255.9847
5125.614, 255.0365
5127.542, 254.5663
5129.471, 255.9778
5131.399, 256.0366
5133.328, 255.1349
5135.256, 253.7339
5137.185, 253.2986
5139.113, 252.6737
5141.042, 251.6113
5142.970, 251.3104
5144.898, 251.0229
5146.827, 251.0276
5148.755, 252.9533
5150.684, 251.7745
5152.612, 250.3900
5154.541, 252.9662
5156.469, 251.6306
5158.397, 250.5601
5160.326, 251.7003
5162.254, 248.7138
5164.183, 248.6680
5166.111, 251.7924
5168.040, 250.1243
5169.968, 248.5619
5171.897, 247.8688
5173.825, 247.9467
5175.754, 248.0469
5177.682, 247.9832
5179.611, 247.7054
5181.539, 247.7546
5183.468, 248.5952
5185.396, 249.8840
5187.325, 248.4379
5189.253, 247.9705
5191.182, 248.1130
5193.110, 246.7002
5195.039, 246.9761
5196.967, 247.0357
5198.896, 244.7866
5200.824, 242.8203
5202.752, 242.8690
5204.681, 244.8651
5206.609, 244.6837
5208.538, 244.5638
5210.466, 244.3102
5212.395, 242.3946
5214.323, 241.0808
5216.251, 241.3365
5218.180, 244.1463
5220.108, 241.8990
5222.037, 239.0661
5223.965, 237.8817
5225.894, 241.0819
5227.822, 242.0827
5229.751, 241.5169
5231.679, 242.5341
5233.608, 241.4737
5235.536, 239.7483
5237.465, 238.5035
5239.393, 239.3210
5241.322, 239.5871
5243.250, 238.7573
5245.179, 237.0228
5247.107, 238.4057
5249.036, 240.0043
5250.964, 237.4199
5252.893, 237.6317
5254.821, 238.3551
5256.750, 238.3287
5258.678, 237.4620
5260.606, 236.7974
5262.535, 236.4087
5264.463, 235.6069
5266.392, 237.5753
5268.320, 238.0042
5270.249, 233.8743
5272.177, 232.7324
5274.105, 233.4655
5276.034, 234.9096
5277.962, 235.2498
5279.891, 234.5565
5281.819, 233.7493
5283.748, 233.8746
5285.676, 233.7573
5287.605, 232.0345
5289.533, 229.3787
5291.462, 231.9544
5293.390, 231.6350
5295.319, 230.1411
5297.247, 231.7694
5299.176, 231.2590
5301.104, 230.8587
5303.033, 231.5646
5304.961, 230.4273
5306.890, 231.0948
5308.818, 232.4274
5310.747, 231.4341
5312.675, 229.9713
5314.604, 229.4850
5316.532, 230.4326
5318.460, 228.3355
5320.389, 227.3680
5322.317, 227.5990
5324.246, 227.3738
5326.174, 225.3380
5328.103, 224.5123
5330.031, 226.2244
5331.959, 224.8863
5333.888, 224.7741
5335.816, 226.0158
5337.745, 226.9394
5339.673, 226.3977
5341.602, 225.8724
5343.530, 226.1456
5345.459, 225.4746
5347.387, 224.0955
5349.316, 222.8338
5351.244, 223.1453
5353.173, 222.6250
5355.101, 221.6921
5357.030, 220.8101
5358.958, 221.7202
5360.887, 221.1174
5362.815, 220.6159
5364.744, 223.9024
5366.672, 223.0257
5368.601, 221.5390
5370.529, 221.4120
5372.458, 221.3389
5374.386, 219.9574
5376.314, 218.6576
5378.243, 219.6695
5380.171, 219.0745
5382.100, 218.6003
5384.028, 218.6409
5385.957, 217.5840
5387.885, 217.5916
5389.813, 217.4463
5391.742, 215.6816
5393.670, 217.1454
5395.599, 216.8357
5397.527, 215.2176
5399.456, 218.1462
5401.384, 216.8117
5403.313, 215.0265
5405.241, 215.7162
5407.170, 217.1706
5409.098, 216.6913
5411.027, 215.1682
5412.955, 214.7144
5414.884, 215.2291
5416.812, 215.2757
5418.741, 214.2160
5420.669, 211.5076
5422.598, 212.1903
5424.526, 213.3205
5426.455, 211.7719
5428.383, 210.8868
5430.312, 210.9272
5432.240, 211.5610
5434.168, 212.0611
5436.097, 213.0459
5438.025, 213.3812
5439.954, 212.6665
5441.882, 212.5868
5443.811, 210.8453
5445.739, 209.6184
5447.667, 211.3177
5449.596, 210.1089
5451.524, 209.0353
5453.453, 208.8029
5455.381, 208.2930
5457.310, 209.5893
5459.238, 209.2647
5461.167, 206.2859
5463.095, 205.8976
5465.024, 207.4242
5466.952, 208.3511
5468.881, 206.6057
5470.809, 206.1597
5472.738, 205.3042
5474.666, 204.3080
5476.595, 205.2670
5478.523, 203.4051
5480.452, 203.5298
5482.380, 206.3453
5484.309, 204.7808
5486.237, 201.7956
5488.166, 200.4289
5490.094, 202.1416
5492.022, 202.0832
5493.951, 202.2126
5495.879, 202.7631
5497.808, 203.5504
5499.736, 201.7715
##END=



