##NAMES=Bystrite
##RRUFFID=R060642
##IDEAL CHEMISTRY=Na_7_Ca(Al_6_Si_6_)O_24_(S_5_)^2-^Cl^1-^
##LOCALITY=Malaya Bystvaya, Lapis Deposit, Baikal, Russia
##OWNER=RRUFF
##SOURCE=Michael Scott
##DESCRIPTION=Yellowish-brown granular associated with blue lazurite and white calcite
##STATUS=The identification of this mineral has been confirmed only by single crystal X-ray diffraction
##URL=https://www.rruff.net/odr/rruff_sample/R060642
##DIFFRACTION SAMPLE DESCRIPTION=Single crystal, powder profile is calculated
##CELL PARAMETERS=a: 12.885 b: 12.885 c: 10.708 alpha: 90 beta: 90 gamma: 120 volume: 1539 crystal system: hexagonal
##FILETYPE=Raman RAW
##RAMAN WAVELENGTH=780

7.687793e+001, 2.570684e+003
7.880640e+001, 2.279532e+003
8.073486e+001, 2.170511e+003
8.266333e+001, 2.288209e+003
8.459180e+001, 2.556964e+003
8.652026e+001, 2.876323e+003
8.844873e+001, 3.242079e+003
9.037720e+001, 3.656430e+003
9.230566e+001, 4.147741e+003
9.423413e+001, 4.409251e+003
9.616260e+001, 4.507457e+003
9.809106e+001, 4.607726e+003
1.000195e+002, 4.684644e+003
1.019480e+002, 4.747681e+003
1.038765e+002, 4.789863e+003
1.058049e+002, 4.801289e+003
1.077334e+002, 4.807322e+003
1.096619e+002, 4.806617e+003
1.115903e+002, 4.803740e+003
1.135188e+002, 4.802135e+003
1.154473e+002, 4.799258e+003
1.173757e+002, 4.802109e+003
1.193042e+002, 4.811330e+003
1.212327e+002, 4.820964e+003
1.231611e+002, 4.826213e+003
1.250896e+002, 4.830221e+003
1.270181e+002, 4.835878e+003
1.289465e+002, 4.842202e+003
1.308750e+002, 4.851086e+003
1.328035e+002, 4.860284e+003
1.347319e+002, 4.873209e+003
1.366604e+002, 4.885789e+003
1.385889e+002, 4.905539e+003
1.405173e+002, 4.940267e+003
1.424458e+002, 4.989206e+003
1.443743e+002, 5.040387e+003
1.463027e+002, 5.089747e+003
1.482312e+002, 5.145700e+003
1.501597e+002, 5.212172e+003
1.520881e+002, 5.283686e+003
1.540166e+002, 5.363536e+003
1.559451e+002, 5.448448e+003
1.578735e+002, 5.506766e+003
1.598020e+002, 5.526215e+003
1.617305e+002, 5.534885e+003
1.636589e+002, 5.524057e+003
1.655874e+002, 5.513001e+003
1.675159e+002, 5.512521e+003
1.694443e+002, 5.521208e+003
1.713728e+002, 5.534956e+003
1.733013e+002, 5.555590e+003
1.752297e+002, 5.578144e+003
1.771582e+002, 5.599819e+003
1.790867e+002, 5.626469e+003
1.810151e+002, 5.660479e+003
1.829436e+002, 5.701365e+003
1.848721e+002, 5.752500e+003
1.868005e+002, 5.822213e+003
1.887290e+002, 5.871174e+003
1.906575e+002, 5.908515e+003
1.925859e+002, 5.911164e+003
1.945144e+002, 5.864933e+003
1.964429e+002, 5.780284e+003
1.983713e+002, 5.658505e+003
2.002998e+002, 5.498337e+003
2.022283e+002, 5.324788e+003
2.041567e+002, 5.133276e+003
2.060852e+002, 4.944042e+003
2.080137e+002, 4.755052e+003
2.099421e+002, 4.579138e+003
2.118706e+002, 4.421252e+003
2.137991e+002, 4.282472e+003
2.157275e+002, 4.169654e+003
2.176560e+002, 4.083640e+003
2.195845e+002, 4.012626e+003
2.215129e+002, 3.974430e+003
2.234414e+002, 3.917602e+003
2.253699e+002, 3.809219e+003
2.272983e+002, 3.678311e+003
2.292268e+002, 3.557327e+003
2.311553e+002, 3.447487e+003
2.330837e+002, 3.365075e+003
2.350122e+002, 3.315549e+003
2.369407e+002, 3.278929e+003
2.388691e+002, 3.250192e+003
2.407976e+002, 3.230528e+003
2.427261e+002, 3.222816e+003
2.446545e+002, 3.225335e+003
2.465830e+002, 3.233193e+003
2.485115e+002, 3.246640e+003
2.504399e+002, 3.259801e+003
2.523684e+002, 3.274428e+003
2.542969e+002, 3.283936e+003
2.562253e+002, 3.290236e+003
2.581538e+002, 3.287796e+003
2.600823e+002, 3.268120e+003
2.620107e+002, 3.233073e+003
2.639392e+002, 3.191138e+003
2.658677e+002, 3.141256e+003
2.677961e+002, 3.089459e+003
2.697246e+002, 3.034780e+003
2.716531e+002, 2.981245e+003
2.735815e+002, 2.933230e+003
2.755100e+002, 2.886682e+003
2.774385e+002, 2.833196e+003
2.793669e+002, 2.773724e+003
2.812954e+002, 2.718908e+003
2.832239e+002, 2.669744e+003
2.851523e+002, 2.626545e+003
2.870808e+002, 2.589832e+003
2.890093e+002, 2.558215e+003
2.909377e+002, 2.530837e+003
2.928662e+002, 2.507954e+003
2.947947e+002, 2.490045e+003
2.967231e+002, 2.477344e+003
2.986516e+002, 2.466934e+003
3.005801e+002, 2.459438e+003
3.025085e+002, 2.452920e+003
3.044370e+002, 2.447207e+003
3.063655e+002, 2.442203e+003
3.082939e+002, 2.437546e+003
3.102224e+002, 2.433572e+003
3.121509e+002, 2.431269e+003
3.140793e+002, 2.430822e+003
3.160078e+002, 2.431211e+003
3.179363e+002, 2.432254e+003
3.198647e+002, 2.434042e+003
3.217932e+002, 2.437663e+003
3.237217e+002, 2.441152e+003
3.256501e+002, 2.441733e+003
3.275786e+002, 2.441064e+003
3.295071e+002, 2.444844e+003
3.314355e+002, 2.456523e+003
3.333640e+002, 2.463830e+003
3.352925e+002, 2.464701e+003
3.372209e+002, 2.464337e+003
3.391494e+002, 2.462248e+003
3.410779e+002, 2.461122e+003
3.430063e+002, 2.463059e+003
3.449348e+002, 2.467331e+003
3.468633e+002, 2.471747e+003
3.487917e+002, 2.476358e+003
3.507202e+002, 2.480885e+003
3.526487e+002, 2.485798e+003
3.545771e+002, 2.489939e+003
3.565056e+002, 2.492457e+003
3.584341e+002, 2.494936e+003
3.603625e+002, 2.498810e+003
3.622910e+002, 2.503455e+003
3.642195e+002, 2.507507e+003
3.661479e+002, 2.511161e+003
3.680764e+002, 2.512185e+003
3.700049e+002, 2.508740e+003
3.719333e+002, 2.507559e+003
3.738618e+002, 2.512041e+003
3.757903e+002, 2.516968e+003
3.777188e+002, 2.518531e+003
3.796472e+002, 2.518990e+003
3.815757e+002, 2.521472e+003
3.835042e+002, 2.526040e+003
3.854326e+002, 2.534124e+003
3.873611e+002, 2.546634e+003
3.892896e+002, 2.558060e+003
3.912180e+002, 2.566487e+003
3.931465e+002, 2.575239e+003
3.950750e+002, 2.586706e+003
3.970034e+002, 2.598601e+003
3.989319e+002, 2.607362e+003
4.008604e+002, 2.614432e+003
4.027888e+002, 2.625471e+003
4.047173e+002, 2.640067e+003
4.066458e+002, 2.660427e+003
4.085742e+002, 2.686228e+003
4.105027e+002, 2.719148e+003
4.124312e+002, 2.760005e+003
4.143596e+002, 2.807462e+003
4.162881e+002, 2.859655e+003
4.182166e+002, 2.918723e+003
4.201450e+002, 2.991919e+003
4.220735e+002, 3.076825e+003
4.240020e+002, 3.158319e+003
4.259304e+002, 3.234642e+003
4.278589e+002, 3.313535e+003
4.297874e+002, 3.397419e+003
4.317158e+002, 3.483360e+003
4.336443e+002, 3.568182e+003
4.355728e+002, 3.656702e+003
4.375012e+002, 3.751739e+003
4.394297e+002, 3.854138e+003
4.413582e+002, 3.966833e+003
4.432866e+002, 4.089137e+003
4.452151e+002, 4.214681e+003
4.471436e+002, 4.353360e+003
4.490720e+002, 4.464377e+003
4.510005e+002, 4.559444e+003
4.529290e+002, 4.603125e+003
4.548574e+002, 4.581761e+003
4.567859e+002, 4.502516e+003
4.587144e+002, 4.353963e+003
4.606428e+002, 4.157271e+003
4.625713e+002, 3.946624e+003
4.644998e+002, 3.722156e+003
4.664282e+002, 3.522046e+003
4.683567e+002, 3.349248e+003
4.702852e+002, 3.205634e+003
4.722136e+002, 3.099395e+003
4.741421e+002, 3.010276e+003
4.760706e+002, 2.939591e+003
4.779990e+002, 2.874011e+003
4.799275e+002, 2.797863e+003
4.818560e+002, 2.718681e+003
4.837844e+002, 2.651940e+003
4.857129e+002, 2.597989e+003
4.876414e+002, 2.555054e+003
4.895698e+002, 2.524331e+003
4.914983e+002, 2.503629e+003
4.934268e+002, 2.496214e+003
4.953552e+002, 2.494535e+003
4.972837e+002, 2.497495e+003
4.992122e+002, 2.504151e+003
5.011406e+002, 2.515319e+003
5.030691e+002, 2.528911e+003
5.049976e+002, 2.542433e+003
5.069260e+002, 2.555819e+003
5.088545e+002, 2.563660e+003
5.107830e+002, 2.567847e+003
5.127114e+002, 2.560304e+003
5.146399e+002, 2.540220e+003
5.165684e+002, 2.509072e+003
5.184968e+002, 2.460770e+003
5.204253e+002, 2.410398e+003
5.223538e+002, 2.363032e+003
5.242822e+002, 2.321701e+003
5.262107e+002, 2.290633e+003
5.281392e+002, 2.268798e+003
5.300676e+002, 2.252226e+003
5.319961e+002, 2.241483e+003
5.339246e+002, 2.233941e+003
5.358530e+002, 2.230100e+003
5.377815e+002, 2.227486e+003
5.397100e+002, 2.225345e+003
5.416384e+002, 2.224891e+003
5.435669e+002, 2.228347e+003
5.454954e+002, 2.231758e+003
5.474238e+002, 2.234280e+003
5.493523e+002, 2.234183e+003
5.512808e+002, 2.227784e+003
5.532092e+002, 2.216146e+003
5.551377e+002, 2.205148e+003
5.570662e+002, 2.194751e+003
5.589946e+002, 2.185550e+003
5.609231e+002, 2.177580e+003
5.628516e+002, 2.170877e+003
5.647800e+002, 2.165820e+003
5.667085e+002, 2.161360e+003
5.686370e+002, 2.156362e+003
5.705654e+002, 2.152557e+003
5.724939e+002, 2.152450e+003
5.744224e+002, 2.153280e+003
5.763508e+002, 2.151197e+003
5.782793e+002, 2.146596e+003
5.802078e+002, 2.140903e+003
5.821362e+002, 2.134210e+003
5.840647e+002, 2.127470e+003
5.859932e+002, 2.120482e+003
5.879216e+002, 2.115156e+003
5.898501e+002, 2.113623e+003
5.917786e+002, 2.110871e+003
5.937070e+002, 2.104199e+003
5.956355e+002, 2.097961e+003
5.975640e+002, 2.094171e+003
5.994924e+002, 2.092355e+003
6.014209e+002, 2.092940e+003
6.033494e+002, 2.094777e+003
6.052778e+002, 2.095690e+003
6.072063e+002, 2.095717e+003
6.091348e+002, 2.094933e+003
6.110632e+002, 2.093157e+003
6.129917e+002, 2.091775e+003
6.149202e+002, 2.091138e+003
6.168486e+002, 2.090338e+003
6.187771e+002, 2.088790e+003
6.207056e+002, 2.087709e+003
6.226340e+002, 2.087101e+003
6.245625e+002, 2.087516e+003
6.264910e+002, 2.090659e+003
6.284194e+002, 2.093877e+003
6.303479e+002, 2.093925e+003
6.322764e+002, 2.092040e+003
6.342048e+002, 2.090361e+003
6.361333e+002, 2.088984e+003
6.380618e+002, 2.088618e+003
6.399902e+002, 2.089346e+003
6.419187e+002, 2.091093e+003
6.438472e+002, 2.096204e+003
6.457756e+002, 2.098369e+003
6.477041e+002, 2.094777e+003
6.496326e+002, 2.091971e+003
6.515610e+002, 2.092508e+003
6.534895e+002, 2.093355e+003
6.554180e+002, 2.091762e+003
6.573464e+002, 2.090715e+003
6.592749e+002, 2.092962e+003
6.612034e+002, 2.097348e+003
6.631318e+002, 2.102039e+003
6.650603e+002, 2.107168e+003
6.669888e+002, 2.113783e+003
6.689172e+002, 2.122373e+003
6.708457e+002, 2.127716e+003
6.727742e+002, 2.129841e+003
6.747026e+002, 2.128208e+003
6.766311e+002, 2.121540e+003
6.785596e+002, 2.114347e+003
6.804880e+002, 2.107237e+003
6.824165e+002, 2.100574e+003
6.843450e+002, 2.093825e+003
6.862734e+002, 2.088712e+003
6.882019e+002, 2.087335e+003
6.901304e+002, 2.086919e+003
6.920588e+002, 2.084918e+003
6.939873e+002, 2.082198e+003
6.959158e+002, 2.080653e+003
6.978442e+002, 2.079592e+003
6.997727e+002, 2.075774e+003
7.017012e+002, 2.069265e+003
7.036296e+002, 2.064727e+003
7.055581e+002, 2.062208e+003
7.074866e+002, 2.060318e+003
7.094150e+002, 2.058670e+003
7.113435e+002, 2.059391e+003
7.132720e+002, 2.064585e+003
7.152004e+002, 2.068013e+003
7.171289e+002, 2.067537e+003
7.190574e+002, 2.065106e+003
7.209858e+002, 2.058952e+003
7.229143e+002, 2.054223e+003
7.248428e+002, 2.055671e+003
7.267712e+002, 2.058908e+003
7.286997e+002, 2.060217e+003
7.306282e+002, 2.059680e+003
7.325566e+002, 2.055516e+003
7.344851e+002, 2.050001e+003
7.364136e+002, 2.051006e+003
7.383420e+002, 2.056886e+003
7.402705e+002, 2.058643e+003
7.421990e+002, 2.055786e+003
7.441274e+002, 2.053784e+003
7.460559e+002, 2.053418e+003
7.479844e+002, 2.052190e+003
7.499128e+002, 2.049365e+003
7.518413e+002, 2.046706e+003
7.537698e+002, 2.044963e+003
7.556982e+002, 2.043041e+003
7.576267e+002, 2.041434e+003
7.595552e+002, 2.038840e+003
7.614836e+002, 2.033095e+003
7.634121e+002, 2.028137e+003
7.653406e+002, 2.027354e+003
7.672690e+002, 2.028030e+003
7.691975e+002, 2.027332e+003
7.711260e+002, 2.026338e+003
7.730544e+002, 2.026410e+003
7.749829e+002, 2.027200e+003
7.769114e+002, 2.028663e+003
7.788398e+002, 2.030203e+003
7.807683e+002, 2.028742e+003
7.826968e+002, 2.024030e+003
7.846252e+002, 2.020766e+003
7.865537e+002, 2.019590e+003
7.884822e+002, 2.017878e+003
7.904106e+002, 2.014417e+003
7.923391e+002, 2.013352e+003
7.942676e+002, 2.017199e+003
7.961960e+002, 2.018771e+003
7.981245e+002, 2.015896e+003
8.000530e+002, 2.013488e+003
8.019814e+002, 2.013080e+003
8.039099e+002, 2.013037e+003
8.058384e+002, 2.012428e+003
8.077668e+002, 2.012301e+003
8.096953e+002, 2.013245e+003
8.116238e+002, 2.014795e+003
8.135522e+002, 2.016145e+003
8.154807e+002, 2.018219e+003
8.174092e+002, 2.023073e+003
8.193376e+002, 2.028214e+003
8.212661e+002, 2.029732e+003
8.231946e+002, 2.028968e+003
8.251230e+002, 2.028305e+003
8.270515e+002, 2.028161e+003
8.289800e+002, 2.030539e+003
8.309084e+002, 2.035221e+003
8.328369e+002, 2.039165e+003
8.347654e+002, 2.042456e+003
8.366938e+002, 2.045134e+003
8.386223e+002, 2.047183e+003
8.405508e+002, 2.049322e+003
8.424792e+002, 2.051459e+003
8.444077e+002, 2.054559e+003
8.463362e+002, 2.058868e+003
8.482646e+002, 2.062678e+003
8.501931e+002, 2.065413e+003
8.521216e+002, 2.068332e+003
8.540500e+002, 2.071880e+003
8.559785e+002, 2.075512e+003
8.579070e+002, 2.080879e+003
8.598354e+002, 2.083382e+003
8.617639e+002, 2.079067e+003
8.636924e+002, 2.075367e+003
8.656208e+002, 2.076776e+003
8.675493e+002, 2.077669e+003
8.694778e+002, 2.074940e+003
8.714063e+002, 2.070187e+003
8.733347e+002, 2.064374e+003
8.752632e+002, 2.057198e+003
8.771917e+002, 2.047606e+003
8.791201e+002, 2.037230e+003
8.810486e+002, 2.028284e+003
8.829771e+002, 2.019708e+003
8.849055e+002, 2.009729e+003
8.868340e+002, 1.999151e+003
8.887625e+002, 1.989883e+003
8.906909e+002, 1.980902e+003
8.926194e+002, 1.968624e+003
8.945479e+002, 1.955112e+003
8.964763e+002, 1.947848e+003
8.984048e+002, 1.945060e+003
9.003333e+002, 1.937148e+003
9.022617e+002, 1.924902e+003
9.041902e+002, 1.918054e+003
9.061187e+002, 1.916929e+003
9.080471e+002, 1.912656e+003
9.099756e+002, 1.904286e+003
9.119041e+002, 1.898551e+003
9.138325e+002, 1.895956e+003
9.157610e+002, 1.894419e+003
9.176895e+002, 1.894444e+003
9.196179e+002, 1.893556e+003
9.215464e+002, 1.890996e+003
9.234749e+002, 1.888954e+003
9.254033e+002, 1.888548e+003
9.273318e+002, 1.886645e+003
9.292603e+002, 1.881753e+003
9.311887e+002, 1.878463e+003
9.331172e+002, 1.878539e+003
9.350457e+002, 1.877551e+003
9.369741e+002, 1.873852e+003
9.389026e+002, 1.870566e+003
9.408311e+002, 1.867458e+003
9.427595e+002, 1.867343e+003
9.446880e+002, 1.873686e+003
9.466165e+002, 1.877387e+003
9.485449e+002, 1.873670e+003
9.504734e+002, 1.869803e+003
9.524019e+002, 1.868432e+003
9.543303e+002, 1.868459e+003
9.562588e+002, 1.870481e+003
9.581873e+002, 1.871778e+003
9.601157e+002, 1.869955e+003
9.620442e+002, 1.868532e+003
9.639727e+002, 1.869730e+003
9.659011e+002, 1.871431e+003
9.678296e+002, 1.873239e+003
9.697581e+002, 1.874160e+003
9.716865e+002, 1.872689e+003
9.736150e+002, 1.871165e+003
9.755435e+002, 1.870448e+003
9.774719e+002, 1.871210e+003
9.794004e+002, 1.874219e+003
9.813289e+002, 1.878731e+003
9.832573e+002, 1.885328e+003
9.851858e+002, 1.891886e+003
9.871143e+002, 1.895968e+003
9.890427e+002, 1.899694e+003
9.909712e+002, 1.905473e+003
9.928997e+002, 1.911545e+003
9.948281e+002, 1.915743e+003
9.967566e+002, 1.919359e+003
9.986851e+002, 1.924498e+003
1.000614e+003, 1.929133e+003
1.002542e+003, 1.929433e+003
1.004470e+003, 1.929290e+003
1.006399e+003, 1.934602e+003
1.008327e+003, 1.941222e+003
1.010256e+003, 1.944115e+003
1.012184e+003, 1.944977e+003
1.014113e+003, 1.946899e+003
1.016041e+003, 1.947389e+003
1.017970e+003, 1.943193e+003
1.019898e+003, 1.935603e+003
1.021827e+003, 1.924708e+003
1.023755e+003, 1.913076e+003
1.025684e+003, 1.903612e+003
1.027612e+003, 1.895996e+003
1.029541e+003, 1.890728e+003
1.031469e+003, 1.886039e+003
1.033397e+003, 1.878605e+003
1.035326e+003, 1.870947e+003
1.037254e+003, 1.865862e+003
1.039183e+003, 1.863080e+003
1.041111e+003, 1.863402e+003
1.043040e+003, 1.864925e+003
1.044968e+003, 1.866287e+003
1.046897e+003, 1.866625e+003
1.048825e+003, 1.864194e+003
1.050754e+003, 1.860771e+003
1.052682e+003, 1.858572e+003
1.054611e+003, 1.856611e+003
1.056539e+003, 1.853485e+003
1.058468e+003, 1.850034e+003
1.060396e+003, 1.847431e+003
1.062324e+003, 1.844803e+003
1.064253e+003, 1.840904e+003
1.066181e+003, 1.836706e+003
1.068110e+003, 1.832206e+003
1.070038e+003, 1.829127e+003
1.071967e+003, 1.831294e+003
1.073895e+003, 1.833553e+003
1.075824e+003, 1.828280e+003
1.077752e+003, 1.823610e+003
1.079681e+003, 1.829034e+003
1.081609e+003, 1.836110e+003
1.083538e+003, 1.837684e+003
1.085466e+003, 1.837550e+003
1.087395e+003, 1.837068e+003
1.089323e+003, 1.838177e+003
1.091251e+003, 1.844201e+003
1.093180e+003, 1.849850e+003
1.095108e+003, 1.851274e+003
1.097037e+003, 1.851497e+003
1.098965e+003, 1.851349e+003
1.100894e+003, 1.852105e+003
1.102822e+003, 1.856100e+003
1.104751e+003, 1.858945e+003
1.106679e+003, 1.857334e+003
1.108608e+003, 1.855780e+003
1.110536e+003, 1.855667e+003
1.112465e+003, 1.856815e+003
1.114393e+003, 1.861428e+003
1.116322e+003, 1.863375e+003
1.118250e+003, 1.859548e+003
1.120178e+003, 1.854633e+003
1.122107e+003, 1.849404e+003
1.124035e+003, 1.844319e+003
1.125964e+003, 1.839700e+003
1.127892e+003, 1.835068e+003
1.129821e+003, 1.831325e+003
1.131749e+003, 1.825022e+003
1.133678e+003, 1.813700e+003
1.135606e+003, 1.805156e+003
1.137535e+003, 1.801287e+003
1.139463e+003, 1.797475e+003
1.141392e+003, 1.793055e+003
1.143320e+003, 1.788952e+003
1.145249e+003, 1.785221e+003
1.147177e+003, 1.782528e+003
1.149105e+003, 1.781377e+003
1.151034e+003, 1.777835e+003
1.152962e+003, 1.771502e+003
1.154891e+003, 1.765873e+003
1.156819e+003, 1.761061e+003
1.158748e+003, 1.757656e+003
1.160676e+003, 1.755725e+003
1.162605e+003, 1.758583e+003
1.164533e+003, 1.764697e+003
1.166462e+003, 1.761902e+003
1.168390e+003, 1.752672e+003
1.170319e+003, 1.748028e+003
1.172247e+003, 1.746966e+003
1.174176e+003, 1.747245e+003
1.176104e+003, 1.747650e+003
1.178032e+003, 1.744457e+003
1.179961e+003, 1.740400e+003
1.181889e+003, 1.740397e+003
1.183818e+003, 1.741665e+003
1.185746e+003, 1.741236e+003
1.187675e+003, 1.739731e+003
1.189603e+003, 1.736929e+003
1.191532e+003, 1.734445e+003
1.193460e+003, 1.733813e+003
1.195389e+003, 1.733321e+003
1.197317e+003, 1.731895e+003
1.199246e+003, 1.730220e+003
1.201174e+003, 1.727773e+003
1.203103e+003, 1.727198e+003
1.205031e+003, 1.731230e+003
1.206959e+003, 1.732519e+003
1.208888e+003, 1.727725e+003
1.210816e+003, 1.723965e+003
1.212745e+003, 1.723063e+003
1.214673e+003, 1.723112e+003
1.216602e+003, 1.723843e+003
1.218530e+003, 1.725078e+003
1.220459e+003, 1.726812e+003
1.222387e+003, 1.727834e+003
1.224316e+003, 1.727992e+003
1.226244e+003, 1.728067e+003
1.228173e+003, 1.728082e+003
1.230101e+003, 1.728132e+003
1.232030e+003, 1.728218e+003
1.233958e+003, 1.728700e+003
1.235886e+003, 1.729161e+003
1.237815e+003, 1.727722e+003
1.239743e+003, 1.725866e+003
1.241672e+003, 1.727099e+003
1.243600e+003, 1.729247e+003
1.245529e+003, 1.728836e+003
1.247457e+003, 1.728353e+003
1.249386e+003, 1.731828e+003
1.251314e+003, 1.734333e+003
1.253243e+003, 1.729764e+003
1.255171e+003, 1.726758e+003
1.257100e+003, 1.731764e+003
1.259028e+003, 1.736139e+003
1.260957e+003, 1.735690e+003
1.262885e+003, 1.735928e+003
1.264813e+003, 1.737838e+003
1.266742e+003, 1.740740e+003
1.268670e+003, 1.745183e+003
1.270599e+003, 1.748486e+003
1.272527e+003, 1.750387e+003
1.274456e+003, 1.752021e+003
1.276384e+003, 1.753523e+003
1.278313e+003, 1.758034e+003
1.280241e+003, 1.764942e+003
1.282170e+003, 1.768939e+003
1.284098e+003, 1.771460e+003
1.286027e+003, 1.777217e+003
1.287955e+003, 1.784588e+003
1.289884e+003, 1.790944e+003
1.291812e+003, 1.796872e+003
1.293740e+003, 1.802994e+003
1.295669e+003, 1.809014e+003
1.297597e+003, 1.814970e+003
1.299526e+003, 1.820335e+003
1.301454e+003, 1.824689e+003
1.303383e+003, 1.828762e+003
1.305311e+003, 1.833172e+003
1.307240e+003, 1.836165e+003
1.309168e+003, 1.836562e+003
1.311097e+003, 1.838715e+003
1.313025e+003, 1.843938e+003
1.314954e+003, 1.847122e+003
1.316882e+003, 1.848085e+003
1.318811e+003, 1.847780e+003
1.320739e+003, 1.846655e+003
1.322667e+003, 1.847719e+003
1.324596e+003, 1.850300e+003
1.326524e+003, 1.853111e+003
1.328453e+003, 1.855182e+003
1.330381e+003, 1.854232e+003
1.332310e+003, 1.852405e+003
1.334238e+003, 1.851324e+003
1.336167e+003, 1.850869e+003
1.338095e+003, 1.850201e+003
1.340024e+003, 1.851526e+003
1.341952e+003, 1.856348e+003
1.343881e+003, 1.860949e+003
1.345809e+003, 1.864204e+003
1.347738e+003, 1.869005e+003
1.349666e+003, 1.875786e+003
1.351594e+003, 1.885132e+003
1.353523e+003, 1.896837e+003
1.355451e+003, 1.907214e+003
1.357380e+003, 1.917432e+003
1.359308e+003, 1.932471e+003
1.361237e+003, 1.950710e+003
1.363165e+003, 1.968200e+003
1.365094e+003, 1.987795e+003
1.367022e+003, 2.012814e+003
1.368951e+003, 2.041366e+003
1.370879e+003, 2.071900e+003
1.372808e+003, 2.105539e+003
1.374736e+003, 2.142922e+003
1.376665e+003, 2.183186e+003
1.378593e+003, 2.226327e+003
1.380521e+003, 2.273411e+003
1.382450e+003, 2.326528e+003
1.384378e+003, 2.369474e+003
1.386307e+003, 2.401273e+003
1.388235e+003, 2.418466e+003
1.390164e+003, 2.420317e+003
1.392092e+003, 2.400320e+003
1.394021e+003, 2.367479e+003
1.395949e+003, 2.332312e+003
1.397878e+003, 2.295249e+003
1.399806e+003, 2.253730e+003
1.401735e+003, 2.215230e+003
1.403663e+003, 2.183540e+003
1.405592e+003, 2.156136e+003
1.407520e+003, 2.132370e+003
1.409448e+003, 2.113276e+003
1.411377e+003, 2.099813e+003
1.413305e+003, 2.088841e+003
1.415234e+003, 2.080333e+003
1.417162e+003, 2.073419e+003
1.419091e+003, 2.067641e+003
1.421019e+003, 2.060372e+003
1.422948e+003, 2.054369e+003
1.424876e+003, 2.056685e+003
1.426805e+003, 2.058291e+003
1.428733e+003, 2.050907e+003
1.430662e+003, 2.044568e+003
1.432590e+003, 2.044087e+003
1.434519e+003, 2.042739e+003
1.436447e+003, 2.038734e+003
1.438375e+003, 2.034959e+003
1.440304e+003, 2.031747e+003
1.442232e+003, 2.024366e+003
1.444161e+003, 2.014069e+003
1.446089e+003, 2.007256e+003
1.448018e+003, 2.003001e+003
1.449946e+003, 2.000618e+003
1.451875e+003, 1.998191e+003
1.453803e+003, 1.992133e+003
1.455732e+003, 1.987892e+003
1.457660e+003, 1.988998e+003
1.459589e+003, 1.990300e+003
1.461517e+003, 1.991046e+003
1.463446e+003, 1.989877e+003
1.465374e+003, 1.986768e+003
1.467302e+003, 1.984158e+003
1.469231e+003, 1.982564e+003
1.471159e+003, 1.984174e+003
1.473088e+003, 1.986785e+003
1.475016e+003, 1.986252e+003
1.476945e+003, 1.985178e+003
1.478873e+003, 1.987284e+003
1.480802e+003, 1.987387e+003
1.482730e+003, 1.981711e+003
1.484659e+003, 1.976415e+003
1.486587e+003, 1.972658e+003
1.488516e+003, 1.968410e+003
1.490444e+003, 1.963656e+003
1.492373e+003, 1.961474e+003
1.494301e+003, 1.960310e+003
1.496229e+003, 1.954508e+003
1.498158e+003, 1.947451e+003
1.500086e+003, 1.944011e+003
1.502015e+003, 1.939945e+003
1.503943e+003, 1.931414e+003
1.505872e+003, 1.923904e+003
1.507800e+003, 1.920193e+003
1.509729e+003, 1.915097e+003
1.511657e+003, 1.907837e+003
1.513586e+003, 1.902673e+003
1.515514e+003, 1.899157e+003
1.517443e+003, 1.895477e+003
1.519371e+003, 1.891204e+003
1.521300e+003, 1.884811e+003
1.523228e+003, 1.878808e+003
1.525156e+003, 1.875393e+003
1.527085e+003, 1.871460e+003
1.529013e+003, 1.865806e+003
1.530942e+003, 1.860146e+003
1.532870e+003, 1.854782e+003
1.534799e+003, 1.849373e+003
1.536727e+003, 1.844332e+003
1.538656e+003, 1.841905e+003
1.540584e+003, 1.840895e+003
1.542513e+003, 1.838867e+003
1.544441e+003, 1.838044e+003
1.546370e+003, 1.840921e+003
1.548298e+003, 1.842658e+003
1.550227e+003, 1.841217e+003
1.552155e+003, 1.841890e+003
1.554083e+003, 1.845254e+003
1.556012e+003, 1.850295e+003
1.557940e+003, 1.856178e+003
1.559869e+003, 1.859910e+003
1.561797e+003, 1.863876e+003
1.563726e+003, 1.873427e+003
1.565654e+003, 1.881323e+003
1.567583e+003, 1.880784e+003
1.569511e+003, 1.883508e+003
1.571440e+003, 1.891898e+003
1.573368e+003, 1.900597e+003
1.575297e+003, 1.908941e+003
1.577225e+003, 1.915128e+003
1.579154e+003, 1.920544e+003
1.581082e+003, 1.928623e+003
1.583010e+003, 1.936668e+003
1.584939e+003, 1.943056e+003
1.586867e+003, 1.947178e+003
1.588796e+003, 1.948718e+003
1.590724e+003, 1.947792e+003
1.592653e+003, 1.944339e+003
1.594581e+003, 1.940529e+003
1.596510e+003, 1.936633e+003
1.598438e+003, 1.933245e+003
1.600367e+003, 1.930214e+003
1.602295e+003, 1.926811e+003
1.604224e+003, 1.924775e+003
1.606152e+003, 1.925853e+003
1.608081e+003, 1.926761e+003
1.610009e+003, 1.926994e+003
1.611938e+003, 1.926769e+003
1.613866e+003, 1.926420e+003
1.615794e+003, 1.928872e+003
1.617723e+003, 1.931921e+003
1.619651e+003, 1.932051e+003
1.621580e+003, 1.932465e+003
1.623508e+003, 1.935129e+003
1.625437e+003, 1.937516e+003
1.627365e+003, 1.939177e+003
1.629294e+003, 1.939016e+003
1.631222e+003, 1.937686e+003
1.633151e+003, 1.940586e+003
1.635079e+003, 1.944033e+003
1.637008e+003, 1.941969e+003
1.638936e+003, 1.938792e+003
1.640865e+003, 1.936287e+003
1.642793e+003, 1.934859e+003
1.644721e+003, 1.934794e+003
1.646650e+003, 1.932978e+003
1.648578e+003, 1.929655e+003
1.650507e+003, 1.926773e+003
1.652435e+003, 1.923552e+003
1.654364e+003, 1.918779e+003
1.656292e+003, 1.913195e+003
1.658221e+003, 1.906883e+003
1.660149e+003, 1.900439e+003
1.662078e+003, 1.893827e+003
1.664006e+003, 1.884223e+003
1.665935e+003, 1.873534e+003
1.667863e+003, 1.869822e+003
1.669792e+003, 1.866719e+003
1.671720e+003, 1.856518e+003
1.673648e+003, 1.846456e+003
1.675577e+003, 1.839339e+003
1.677505e+003, 1.831491e+003
1.679434e+003, 1.823078e+003
1.681362e+003, 1.822773e+003
1.683291e+003, 1.825005e+003
1.685219e+003, 1.817702e+003
1.687148e+003, 1.808240e+003
1.689076e+003, 1.802212e+003
1.691005e+003, 1.795167e+003
1.692933e+003, 1.784879e+003
1.694862e+003, 1.780986e+003
1.696790e+003, 1.781713e+003
1.698719e+003, 1.774632e+003
1.700647e+003, 1.765975e+003
1.702575e+003, 1.764304e+003
1.704504e+003, 1.762209e+003
1.706432e+003, 1.755721e+003
1.708361e+003, 1.749988e+003
1.710289e+003, 1.745666e+003
1.712218e+003, 1.739182e+003
1.714146e+003, 1.732205e+003
1.716075e+003, 1.729333e+003
1.718003e+003, 1.726407e+003
1.719932e+003, 1.719979e+003
1.721860e+003, 1.714934e+003
1.723789e+003, 1.712681e+003
1.725717e+003, 1.710128e+003
1.727646e+003, 1.707527e+003
1.729574e+003, 1.707359e+003
1.731502e+003, 1.706545e+003
1.733431e+003, 1.701018e+003
1.735359e+003, 1.696537e+003
1.737288e+003, 1.694969e+003
1.739216e+003, 1.693730e+003
1.741145e+003, 1.692418e+003
1.743073e+003, 1.689379e+003
1.745002e+003, 1.687288e+003
1.746930e+003, 1.692458e+003
1.748859e+003, 1.695389e+003
1.750787e+003, 1.691958e+003
1.752716e+003, 1.690100e+003
1.754644e+003, 1.690621e+003
1.756573e+003, 1.688920e+003
1.758501e+003, 1.687376e+003
1.760429e+003, 1.691570e+003
1.762358e+003, 1.695064e+003
1.764286e+003, 1.692920e+003
1.766215e+003, 1.693862e+003
1.768143e+003, 1.698648e+003
1.770072e+003, 1.706029e+003
1.772000e+003, 1.713215e+003
1.773929e+003, 1.714492e+003
1.775857e+003, 1.714912e+003
1.777786e+003, 1.718133e+003
1.779714e+003, 1.720498e+003
1.781643e+003, 1.721749e+003
1.783571e+003, 1.723456e+003
1.785500e+003, 1.725978e+003
1.787428e+003, 1.730420e+003
1.789356e+003, 1.734506e+003
1.791285e+003, 1.736294e+003
1.793213e+003, 1.738241e+003
1.795142e+003, 1.740580e+003
1.797070e+003, 1.741660e+003
1.798999e+003, 1.741078e+003
1.800927e+003, 1.736973e+003
1.802856e+003, 1.733423e+003
1.804784e+003, 1.733464e+003
1.806713e+003, 1.732851e+003
1.808641e+003, 1.731188e+003
1.810570e+003, 1.727742e+003
1.812498e+003, 1.724420e+003
1.814427e+003, 1.726248e+003
1.816355e+003, 1.726289e+003
1.818283e+003, 1.720305e+003
1.820212e+003, 1.717811e+003
1.822140e+003, 1.719493e+003
1.824069e+003, 1.717161e+003
1.825997e+003, 1.714246e+003
1.827926e+003, 1.716850e+003
1.829854e+003, 1.718416e+003
1.831783e+003, 1.716570e+003
1.833711e+003, 1.714201e+003
1.835640e+003, 1.711575e+003
1.837568e+003, 1.708359e+003
1.839497e+003, 1.704932e+003
1.841425e+003, 1.701388e+003
1.843354e+003, 1.699060e+003
1.845282e+003, 1.698388e+003
1.847210e+003, 1.697193e+003
1.849139e+003, 1.695794e+003
1.851067e+003, 1.695838e+003
1.852996e+003, 1.695958e+003
1.854924e+003, 1.694748e+003
1.856853e+003, 1.694076e+003
1.858781e+003, 1.694192e+003
1.860710e+003, 1.695537e+003
1.862638e+003, 1.697987e+003
1.864567e+003, 1.700984e+003
1.866495e+003, 1.705773e+003
1.868424e+003, 1.714062e+003
1.870352e+003, 1.719153e+003
1.872281e+003, 1.721839e+003
1.874209e+003, 1.729173e+003
1.876137e+003, 1.737611e+003
1.878066e+003, 1.742782e+003
1.879994e+003, 1.749870e+003
1.881923e+003, 1.760480e+003
1.883851e+003, 1.769404e+003
1.885780e+003, 1.776371e+003
1.887708e+003, 1.780168e+003
1.889637e+003, 1.784020e+003
1.891565e+003, 1.790863e+003
1.893494e+003, 1.795563e+003
1.895422e+003, 1.797859e+003
1.897351e+003, 1.797673e+003
1.899279e+003, 1.795808e+003
1.901208e+003, 1.792786e+003
1.903136e+003, 1.789683e+003
1.905064e+003, 1.787172e+003
1.906993e+003, 1.781061e+003
1.908921e+003, 1.771590e+003
1.910850e+003, 1.759422e+003
1.912778e+003, 1.744191e+003
1.914707e+003, 1.725035e+003
1.916635e+003, 1.706928e+003
1.918564e+003, 1.690920e+003
1.920492e+003, 1.681195e+003
1.922421e+003, 1.670525e+003
1.924349e+003, 1.649285e+003
1.926278e+003, 1.632952e+003
1.928206e+003, 1.624577e+003
1.930135e+003, 1.614734e+003
1.932063e+003, 1.603251e+003
1.933991e+003, 1.588979e+003
1.935920e+003, 1.576939e+003
1.937848e+003, 1.569307e+003
1.939777e+003, 1.558064e+003
1.941705e+003, 1.544440e+003
1.943634e+003, 1.534173e+003
1.945562e+003, 1.526141e+003
1.947491e+003, 1.520972e+003
1.949419e+003, 1.513204e+003
1.951348e+003, 1.502953e+003
1.953276e+003, 1.493976e+003
1.955205e+003, 1.486619e+003
1.957133e+003, 1.482026e+003
1.959062e+003, 1.477146e+003
1.960990e+003, 1.471354e+003
1.962918e+003, 1.464014e+003
1.964847e+003, 1.457163e+003
1.966775e+003, 1.454385e+003
1.968704e+003, 1.452455e+003
1.970632e+003, 1.451068e+003
1.972561e+003, 1.446389e+003
1.974489e+003, 1.440409e+003
1.976418e+003, 1.437594e+003
1.978346e+003, 1.436501e+003
1.980275e+003, 1.437212e+003
1.982203e+003, 1.435601e+003
1.984132e+003, 1.432401e+003
1.986060e+003, 1.433415e+003
1.987989e+003, 1.433902e+003
1.989917e+003, 1.430525e+003
1.991845e+003, 1.427303e+003
1.993774e+003, 1.425014e+003
1.995702e+003, 1.425946e+003
1.997631e+003, 1.427522e+003
1.999559e+003, 1.428053e+003
2.001488e+003, 1.427221e+003
2.003416e+003, 1.425011e+003
2.005345e+003, 1.421164e+003
2.007273e+003, 1.418410e+003
2.009202e+003, 1.420425e+003
2.011130e+003, 1.422160e+003
2.013059e+003, 1.422458e+003
2.014987e+003, 1.419859e+003
2.016916e+003, 1.417079e+003
2.018844e+003, 1.419004e+003
2.020772e+003, 1.419277e+003
2.022701e+003, 1.416776e+003
2.024629e+003, 1.415257e+003
2.026558e+003, 1.414266e+003
2.028486e+003, 1.412658e+003
2.030415e+003, 1.411702e+003
2.032343e+003, 1.411634e+003
2.034272e+003, 1.414071e+003
2.036200e+003, 1.416507e+003
2.038129e+003, 1.413916e+003
2.040057e+003, 1.412554e+003
2.041986e+003, 1.414139e+003
2.043914e+003, 1.411779e+003
2.045843e+003, 1.407506e+003
2.047771e+003, 1.404486e+003
2.049699e+003, 1.402842e+003
2.051628e+003, 1.402909e+003
2.053556e+003, 1.400234e+003
2.055485e+003, 1.396842e+003
2.057413e+003, 1.397335e+003
2.059342e+003, 1.394845e+003
2.061270e+003, 1.386265e+003
2.063199e+003, 1.381100e+003
2.065127e+003, 1.376420e+003
2.067056e+003, 1.367744e+003
2.068984e+003, 1.358697e+003
2.070913e+003, 1.350402e+003
2.072841e+003, 1.342765e+003
2.074770e+003, 1.335268e+003
2.076698e+003, 1.326837e+003
2.078626e+003, 1.319161e+003
2.080555e+003, 1.312692e+003
2.082483e+003, 1.307130e+003
2.084412e+003, 1.301965e+003
2.086340e+003, 1.296465e+003
2.088269e+003, 1.291946e+003
2.090197e+003, 1.288528e+003
2.092126e+003, 1.281452e+003
2.094054e+003, 1.273674e+003
2.095983e+003, 1.267620e+003
2.097911e+003, 1.264043e+003
2.099840e+003, 1.262621e+003
2.101768e+003, 1.259486e+003
2.103697e+003, 1.255884e+003
2.105625e+003, 1.252891e+003
2.107553e+003, 1.248954e+003
2.109482e+003, 1.244189e+003
2.111410e+003, 1.239529e+003
2.113339e+003, 1.236153e+003
2.115267e+003, 1.235101e+003
2.117196e+003, 1.233715e+003
2.119124e+003, 1.231552e+003
2.121053e+003, 1.227893e+003
2.122981e+003, 1.223774e+003
2.124910e+003, 1.219257e+003
2.126838e+003, 1.218506e+003
2.128767e+003, 1.218744e+003
2.130695e+003, 1.214295e+003
2.132624e+003, 1.210138e+003
2.134552e+003, 1.207652e+003
2.136480e+003, 1.208715e+003
2.138409e+003, 1.209205e+003
2.140337e+003, 1.202394e+003
2.142266e+003, 1.198439e+003
2.144194e+003, 1.198470e+003
2.146123e+003, 1.198203e+003
2.148051e+003, 1.197590e+003
2.149980e+003, 1.196785e+003
2.151908e+003, 1.193969e+003
2.153837e+003, 1.190169e+003
2.155765e+003, 1.191483e+003
2.157694e+003, 1.191515e+003
2.159622e+003, 1.187288e+003
2.161551e+003, 1.181369e+003
2.163479e+003, 1.176435e+003
2.165407e+003, 1.179034e+003
2.167336e+003, 1.178826e+003
2.169264e+003, 1.172967e+003
2.171193e+003, 1.171285e+003
2.173121e+003, 1.170876e+003
2.175050e+003, 1.168960e+003
2.176978e+003, 1.166016e+003
2.178907e+003, 1.162483e+003
2.180835e+003, 1.159646e+003
2.182764e+003, 1.158606e+003
2.184692e+003, 1.160248e+003
2.186621e+003, 1.158425e+003
2.188549e+003, 1.154746e+003
2.190478e+003, 1.153494e+003
2.192406e+003, 1.151270e+003
2.194334e+003, 1.147370e+003
2.196263e+003, 1.145361e+003
2.198191e+003, 1.143307e+003
2.200120e+003, 1.137907e+003
2.202048e+003, 1.136459e+003
2.203977e+003, 1.137427e+003
2.205905e+003, 1.131563e+003
2.207834e+003, 1.126656e+003
2.209762e+003, 1.126856e+003
2.211691e+003, 1.126928e+003
2.213619e+003, 1.126102e+003
2.215548e+003, 1.123512e+003
2.217476e+003, 1.119788e+003
2.219405e+003, 1.115276e+003
2.221333e+003, 1.112598e+003
2.223261e+003, 1.110186e+003
2.225190e+003, 1.106580e+003
2.227118e+003, 1.104974e+003
2.229047e+003, 1.104316e+003
2.230975e+003, 1.101346e+003
2.232904e+003, 1.099405e+003
2.234832e+003, 1.099545e+003
2.236761e+003, 1.097217e+003
2.238689e+003, 1.094836e+003
2.240618e+003, 1.094573e+003
2.242546e+003, 1.093665e+003
2.244475e+003, 1.091909e+003
2.246403e+003, 1.088424e+003
2.248332e+003, 1.087749e+003
2.250260e+003, 1.091362e+003
2.252188e+003, 1.088829e+003
2.254117e+003, 1.083581e+003
2.256045e+003, 1.078314e+003
2.257974e+003, 1.077337e+003
2.259902e+003, 1.079393e+003
2.261831e+003, 1.078247e+003
2.263759e+003, 1.077588e+003
2.265688e+003, 1.078468e+003
2.267616e+003, 1.075943e+003
2.269545e+003, 1.073208e+003
2.271473e+003, 1.075517e+003
2.273402e+003, 1.073036e+003
2.275330e+003, 1.066894e+003
2.277259e+003, 1.063627e+003
2.279187e+003, 1.059931e+003
2.281115e+003, 1.054793e+003
2.283044e+003, 1.054619e+003
2.284972e+003, 1.055945e+003
2.286901e+003, 1.055809e+003
2.288829e+003, 1.053574e+003
2.290758e+003, 1.051002e+003
2.292686e+003, 1.053826e+003
2.294615e+003, 1.054543e+003
2.296543e+003, 1.051147e+003
2.298472e+003, 1.048000e+003
2.300400e+003, 1.044860e+003
2.302329e+003, 1.042106e+003
2.304257e+003, 1.035993e+003
2.306186e+003, 1.029254e+003
2.308114e+003, 1.026468e+003
2.310042e+003, 1.028235e+003
2.311971e+003, 1.033478e+003
2.313899e+003, 1.032140e+003
2.315828e+003, 1.027756e+003
2.317756e+003, 1.021634e+003
2.319685e+003, 1.019430e+003
2.321613e+003, 1.018314e+003
2.323542e+003, 1.013721e+003
2.325470e+003, 1.015790e+003
2.327399e+003, 1.022007e+003
2.329327e+003, 1.017963e+003
2.331256e+003, 1.014142e+003
2.333184e+003, 1.013331e+003
2.335113e+003, 1.007423e+003
2.337041e+003, 1.002191e+003
2.338969e+003, 1.001956e+003
2.340898e+003, 1.001027e+003
2.342826e+003, 9.998826e+002
2.344755e+003, 1.001243e+003
2.346683e+003, 9.991112e+002
2.348612e+003, 9.941282e+002
2.350540e+003, 9.932233e+002
2.352469e+003, 9.924287e+002
2.354397e+003, 9.903743e+002
2.356326e+003, 9.896858e+002
2.358254e+003, 9.888433e+002
2.360183e+003, 9.868489e+002
2.362111e+003, 9.815575e+002
2.364040e+003, 9.762249e+002
2.365968e+003, 9.768746e+002
2.367896e+003, 9.777306e+002
2.369825e+003, 9.773246e+002
2.371753e+003, 9.729747e+002
2.373682e+003, 9.688779e+002
2.375610e+003, 9.667055e+002
2.377539e+003, 9.647698e+002
2.379467e+003, 9.632389e+002
2.381396e+003, 9.617993e+002
2.383324e+003, 9.648348e+002
2.385253e+003, 9.667913e+002
2.387181e+003, 9.586324e+002
2.389110e+003, 9.551609e+002
2.391038e+003, 9.565848e+002
2.392967e+003, 9.590594e+002
2.394895e+003, 9.572299e+002
2.396823e+003, 9.507072e+002
2.398752e+003, 9.529554e+002
2.400680e+003, 9.563239e+002
2.402609e+003, 9.570109e+002
2.404537e+003, 9.503357e+002
2.406466e+003, 9.431414e+002
2.408394e+003, 9.418632e+002
2.410323e+003, 9.385361e+002
2.412251e+003, 9.338936e+002
2.414180e+003, 9.296636e+002
2.416108e+003, 9.282418e+002
2.418037e+003, 9.287266e+002
2.419965e+003, 9.270699e+002
2.421894e+003, 9.247272e+002
2.423822e+003, 9.221065e+002
2.425750e+003, 9.192299e+002
2.427679e+003, 9.169745e+002
2.429607e+003, 9.157000e+002
2.431536e+003, 9.181288e+002
2.433464e+003, 9.189824e+002
2.435393e+003, 9.123992e+002
2.437321e+003, 9.089096e+002
2.439250e+003, 9.067028e+002
2.441178e+003, 9.020106e+002
2.443107e+003, 9.010639e+002
2.445035e+003, 9.014108e+002
2.446964e+003, 8.958418e+002
2.448892e+003, 8.925311e+002
2.450821e+003, 8.917574e+002
2.452749e+003, 8.873254e+002
2.454677e+003, 8.847123e+002
2.456606e+003, 8.853024e+002
2.458534e+003, 8.851586e+002
2.460463e+003, 8.842830e+002
2.462391e+003, 8.826412e+002
2.464320e+003, 8.793163e+002
2.466248e+003, 8.773234e+002
2.468177e+003, 8.788735e+002
2.470105e+003, 8.750006e+002
2.472034e+003, 8.705242e+002
2.473962e+003, 8.710594e+002
2.475891e+003, 8.668240e+002
2.477819e+003, 8.620401e+002
2.479748e+003, 8.651346e+002
2.481676e+003, 8.694994e+002
2.483604e+003, 8.717094e+002
2.485533e+003, 8.641174e+002
2.487461e+003, 8.574314e+002
2.489390e+003, 8.533312e+002
2.491318e+003, 8.512003e+002
2.493247e+003, 8.481039e+002
2.495175e+003, 8.440130e+002
2.497104e+003, 8.421006e+002
2.499032e+003, 8.411407e+002
2.500961e+003, 8.405137e+002
2.502889e+003, 8.388810e+002
2.504818e+003, 8.368354e+002
2.506746e+003, 8.345889e+002
2.508675e+003, 8.322278e+002
2.510603e+003, 8.298514e+002
2.512531e+003, 8.274527e+002
2.514460e+003, 8.265702e+002
2.516388e+003, 8.259082e+002
2.518317e+003, 8.242727e+002
2.520245e+003, 8.219431e+002
2.522174e+003, 8.204881e+002
2.524102e+003, 8.218724e+002
2.526031e+003, 8.210800e+002
2.527959e+003, 8.191182e+002
2.529888e+003, 8.180980e+002
2.531816e+003, 8.133798e+002
2.533745e+003, 8.083594e+002
2.535673e+003, 8.093557e+002
2.537602e+003, 8.063454e+002
2.539530e+003, 8.013984e+002
2.541458e+003, 8.011755e+002
2.543387e+003, 8.004803e+002
2.545315e+003, 7.985460e+002
2.547244e+003, 7.938046e+002
2.549172e+003, 7.944911e+002
2.551101e+003, 7.994662e+002
2.553029e+003, 8.022614e+002
2.554958e+003, 8.032943e+002
2.556886e+003, 8.025085e+002
2.558815e+003, 7.983607e+002
2.560743e+003, 7.973481e+002
2.562672e+003, 7.989241e+002
2.564600e+003, 7.964394e+002
2.566529e+003, 7.937504e+002
2.568457e+003, 7.911357e+002
2.570385e+003, 7.855762e+002
2.572314e+003, 7.789346e+002
2.574242e+003, 7.726461e+002
2.576171e+003, 7.709360e+002
2.578099e+003, 7.695648e+002
2.580028e+003, 7.670411e+002
2.581956e+003, 7.610776e+002
2.583885e+003, 7.572934e+002
2.585813e+003, 7.564265e+002
2.587742e+003, 7.518860e+002
2.589670e+003, 7.457236e+002
2.591599e+003, 7.394619e+002
2.593527e+003, 7.427283e+002
2.595456e+003, 7.429131e+002
2.597384e+003, 7.373727e+002
2.599313e+003, 7.348812e+002
2.601241e+003, 7.326747e+002
2.603169e+003, 7.299128e+002
2.605098e+003, 7.268574e+002
2.607026e+003, 7.222364e+002
2.608955e+003, 7.167998e+002
2.610883e+003, 7.185666e+002
2.612812e+003, 7.179639e+002
2.614740e+003, 7.136156e+002
2.616669e+003, 7.143677e+002
2.618597e+003, 7.119061e+002
2.620526e+003, 7.060963e+002
2.622454e+003, 7.074719e+002
2.624383e+003, 7.052440e+002
2.626311e+003, 6.989335e+002
2.628240e+003, 6.962441e+002
2.630168e+003, 6.958436e+002
2.632096e+003, 6.958126e+002
2.634025e+003, 6.917576e+002
2.635953e+003, 6.874243e+002
2.637882e+003, 6.838088e+002
2.639810e+003, 6.807662e+002
2.641739e+003, 6.807120e+002
2.643667e+003, 6.816648e+002
2.645596e+003, 6.779649e+002
2.647524e+003, 6.747968e+002
2.649453e+003, 6.725184e+002
2.651381e+003, 6.704424e+002
2.653310e+003, 6.687077e+002
2.655238e+003, 6.666436e+002
2.657167e+003, 6.631618e+002
2.659095e+003, 6.607549e+002
2.661023e+003, 6.586452e+002
2.662952e+003, 6.554017e+002
2.664880e+003, 6.535338e+002
2.666809e+003, 6.520748e+002
2.668737e+003, 6.498113e+002
2.670666e+003, 6.485956e+002
2.672594e+003, 6.465890e+002
2.674523e+003, 6.423932e+002
2.676451e+003, 6.400725e+002
2.678380e+003, 6.374675e+002
2.680308e+003, 6.333472e+002
2.682237e+003, 6.290659e+002
2.684165e+003, 6.265717e+002
2.686094e+003, 6.262776e+002
2.688022e+003, 6.249932e+002
2.689950e+003, 6.238544e+002
2.691879e+003, 6.228167e+002
2.693807e+003, 6.190771e+002
2.695736e+003, 6.160871e+002
2.697664e+003, 6.144053e+002
2.699593e+003, 6.126697e+002
2.701521e+003, 6.114955e+002
2.703450e+003, 6.100031e+002
2.705378e+003, 6.054799e+002
2.707307e+003, 6.016432e+002
2.709235e+003, 5.992028e+002
2.711164e+003, 5.991002e+002
2.713092e+003, 5.962872e+002
2.715021e+003, 5.920101e+002
2.716949e+003, 5.876356e+002
2.718877e+003, 5.862004e+002
2.720806e+003, 5.848215e+002
2.722734e+003, 5.807420e+002
2.724663e+003, 5.809919e+002
2.726591e+003, 5.804119e+002
2.728520e+003, 5.763251e+002
2.730448e+003, 5.746505e+002
2.732377e+003, 5.723799e+002
2.734305e+003, 5.689475e+002
2.736234e+003, 5.685995e+002
2.738162e+003, 5.656812e+002
2.740091e+003, 5.605275e+002
2.742019e+003, 5.573242e+002
2.743948e+003, 5.575195e+002
2.745876e+003, 5.579266e+002
2.747804e+003, 5.528559e+002
2.749733e+003, 5.498548e+002
2.751661e+003, 5.475673e+002
2.753590e+003, 5.439951e+002
2.755518e+003, 5.460268e+002
2.757447e+003, 5.454427e+002
2.759375e+003, 5.385758e+002
2.761304e+003, 5.360010e+002
2.763232e+003, 5.344241e+002
2.765161e+003, 5.323931e+002
2.767089e+003, 5.287625e+002
2.769018e+003, 5.270497e+002
2.770946e+003, 5.266775e+002
2.772875e+003, 5.250447e+002
2.774803e+003, 5.220831e+002
2.776731e+003, 5.189238e+002
2.778660e+003, 5.170642e+002
2.780588e+003, 5.157999e+002
2.782517e+003, 5.132778e+002
2.784445e+003, 5.078849e+002
2.786374e+003, 5.046655e+002
2.788302e+003, 5.026315e+002
2.790231e+003, 5.012329e+002
2.792159e+003, 4.998164e+002
2.794088e+003, 4.979717e+002
2.796016e+003, 4.958560e+002
2.797945e+003, 4.942073e+002
2.799873e+003, 4.908787e+002
2.801802e+003, 4.881976e+002
2.803730e+003, 4.889049e+002
2.805658e+003, 4.868478e+002
2.807587e+003, 4.840428e+002
2.809515e+003, 4.818254e+002
2.811444e+003, 4.796609e+002
2.813372e+003, 4.767546e+002
2.815301e+003, 4.733317e+002
2.817229e+003, 4.708613e+002
2.819158e+003, 4.695547e+002
2.821086e+003, 4.683334e+002
2.823015e+003, 4.651191e+002
2.824943e+003, 4.624095e+002
2.826872e+003, 4.600815e+002
2.828800e+003, 4.578813e+002
2.830729e+003, 4.572779e+002
2.832657e+003, 4.567504e+002
2.834585e+003, 4.552204e+002
2.836514e+003, 4.494655e+002
2.838442e+003, 4.465412e+002
2.840371e+003, 4.457130e+002
2.842299e+003, 4.435689e+002
2.844228e+003, 4.429434e+002
2.846156e+003, 4.409532e+002
2.848085e+003, 4.347679e+002
2.850013e+003, 4.329385e+002
2.851942e+003, 4.310495e+002
2.853870e+003, 4.281115e+002
2.855799e+003, 4.276315e+002
2.857727e+003, 4.265478e+002
2.859656e+003, 4.242656e+002
2.861584e+003, 4.205971e+002
2.863512e+003, 4.175300e+002
2.865441e+003, 4.145516e+002
2.867369e+003, 4.114732e+002
2.869298e+003, 4.108828e+002
2.871226e+003, 4.100767e+002
2.873155e+003, 4.080630e+002
2.875083e+003, 4.035198e+002
2.877012e+003, 4.026841e+002
2.878940e+003, 4.021024e+002
2.880869e+003, 3.973693e+002
2.882797e+003, 3.959796e+002
2.884726e+003, 3.948196e+002
2.886654e+003, 3.925553e+002
2.888583e+003, 3.898570e+002
2.890511e+003, 3.878885e+002
2.892439e+003, 3.861503e+002
2.894368e+003, 3.833342e+002
2.896296e+003, 3.811278e+002
2.898225e+003, 3.787806e+002
2.900153e+003, 3.757633e+002
2.902082e+003, 3.744837e+002
2.904010e+003, 3.734475e+002
2.905939e+003, 3.717926e+002
2.907867e+003, 3.684196e+002
2.909796e+003, 3.662545e+002
2.911724e+003, 3.642446e+002
2.913653e+003, 3.613704e+002
2.915581e+003, 3.597079e+002
2.917510e+003, 3.572309e+002
2.919438e+003, 3.542020e+002
2.921366e+003, 3.535143e+002
2.923295e+003, 3.515496e+002
2.925223e+003, 3.489051e+002
2.927152e+003, 3.464183e+002
2.929080e+003, 3.424157e+002
2.931009e+003, 3.419850e+002
2.932937e+003, 3.441419e+002
2.934866e+003, 3.395460e+002
2.936794e+003, 3.383302e+002
2.938723e+003, 3.388344e+002
2.940651e+003, 3.383710e+002
2.942580e+003, 3.352143e+002
2.944508e+003, 3.325928e+002
2.946437e+003, 3.307194e+002
2.948365e+003, 3.261461e+002
2.950293e+003, 3.269821e+002
2.952222e+003, 3.283296e+002
2.954150e+003, 3.247666e+002
2.956079e+003, 3.211490e+002
2.958007e+003, 3.196946e+002
2.959936e+003, 3.193845e+002
2.961864e+003, 3.158297e+002
2.963793e+003, 3.139748e+002
2.965721e+003, 3.129368e+002
2.967650e+003, 3.116313e+002
2.969578e+003, 3.084450e+002
2.971507e+003, 3.130157e+002
2.973435e+003, 3.200966e+002
2.975364e+003, 3.155393e+002
2.977292e+003, 3.060336e+002
2.979220e+003, 2.978588e+002
2.981149e+003, 2.941241e+002
2.983077e+003, 2.950379e+002
2.985006e+003, 2.947609e+002
2.986934e+003, 2.928706e+002
2.988863e+003, 2.904852e+002
2.990791e+003, 2.878549e+002
2.992720e+003, 2.864331e+002
2.994648e+003, 2.860804e+002
2.996577e+003, 2.848494e+002
2.998505e+003, 2.814997e+002
3.000434e+003, 2.780749e+002
3.002362e+003, 2.763928e+002
3.004291e+003, 2.749330e+002
3.006219e+003, 2.742571e+002
3.008147e+003, 2.734291e+002
3.010076e+003, 2.697618e+002
3.012004e+003, 2.694243e+002
3.013933e+003, 2.706297e+002
3.015861e+003, 2.713240e+002
3.017790e+003, 2.651897e+002
3.019718e+003, 2.644160e+002
3.021647e+003, 2.645174e+002
3.023575e+003, 2.588620e+002
3.025504e+003, 2.585201e+002
3.027432e+003, 2.568556e+002
3.029361e+003, 2.535958e+002
3.031289e+003, 2.526675e+002
3.033218e+003, 2.510237e+002
3.035146e+003, 2.493540e+002
3.037074e+003, 2.483508e+002
3.039003e+003, 2.495409e+002
3.040931e+003, 2.481416e+002
3.042860e+003, 2.443335e+002
3.044788e+003, 2.393714e+002
3.046717e+003, 2.373742e+002
3.048645e+003, 2.359616e+002
3.050574e+003, 2.346973e+002
3.052502e+003, 2.340866e+002
3.054431e+003, 2.337713e+002
3.056359e+003, 2.328022e+002
3.058288e+003, 2.309708e+002
3.060216e+003, 2.287555e+002
3.062145e+003, 2.263668e+002
3.064073e+003, 2.244887e+002
3.066001e+003, 2.235100e+002
3.067930e+003, 2.228387e+002
3.069858e+003, 2.226821e+002
3.071787e+003, 2.219619e+002
3.073715e+003, 2.193262e+002
3.075644e+003, 2.178885e+002
3.077572e+003, 2.162827e+002
3.079501e+003, 2.142925e+002
3.081429e+003, 2.121426e+002
3.083358e+003, 2.112518e+002
3.085286e+003, 2.114643e+002
3.087215e+003, 2.113189e+002
3.089143e+003, 2.071244e+002
3.091072e+003, 2.053893e+002
3.093000e+003, 2.044853e+002
3.094928e+003, 2.033121e+002
3.096857e+003, 2.034083e+002
3.098785e+003, 2.013224e+002
3.100714e+003, 2.000841e+002
3.102642e+003, 2.011422e+002
3.104571e+003, 1.977351e+002
3.106499e+003, 1.950819e+002
3.108428e+003, 1.931761e+002
3.110356e+003, 1.909810e+002
3.112285e+003, 1.895630e+002
3.114213e+003, 1.893391e+002
3.116142e+003, 1.892117e+002
3.118070e+003, 1.874973e+002
3.119999e+003, 1.868280e+002
3.121927e+003, 1.863869e+002
3.123855e+003, 1.848681e+002
3.125784e+003, 1.800685e+002
3.127712e+003, 1.777779e+002
3.129641e+003, 1.778323e+002
3.131569e+003, 1.782633e+002
3.133498e+003, 1.752956e+002
3.135426e+003, 1.740730e+002
3.137355e+003, 1.731568e+002
3.139283e+003, 1.716850e+002
3.141212e+003, 1.691932e+002
3.143140e+003, 1.804252e+002
3.145069e+003, 1.856551e+002
3.146997e+003, 1.785845e+002
3.148926e+003, 1.715165e+002
3.150854e+003, 1.678421e+002
3.152782e+003, 1.682211e+002
3.154711e+003, 1.719286e+002
3.156639e+003, 1.790552e+002
3.158568e+003, 1.713866e+002
3.160496e+003, 1.618174e+002
3.162425e+003, 1.576534e+002
3.164353e+003, 1.559479e+002
3.166282e+003, 1.557937e+002
3.168210e+003, 1.546705e+002
3.170139e+003, 1.520175e+002
3.172067e+003, 1.509156e+002
3.173996e+003, 1.512858e+002
3.175924e+003, 1.510166e+002
3.177853e+003, 1.492799e+002
3.179781e+003, 1.478474e+002
3.181709e+003, 1.451345e+002
3.183638e+003, 1.440409e+002
3.185566e+003, 1.449941e+002
3.187495e+003, 1.426353e+002
3.189423e+003, 1.412825e+002
3.191352e+003, 1.406600e+002
3.193280e+003, 1.399200e+002
3.195209e+003, 1.377344e+002
3.197137e+003, 1.366438e+002
3.199066e+003, 1.358356e+002
3.200994e+003, 1.346758e+002
3.202923e+003, 1.329928e+002
3.204851e+003, 1.317415e+002
3.206780e+003, 1.303294e+002
3.208708e+003, 1.289433e+002
3.210636e+003, 1.288357e+002
3.212565e+003, 1.271289e+002
3.214493e+003, 1.265411e+002
3.216422e+003, 1.267752e+002
3.218350e+003, 1.253344e+002
3.220279e+003, 1.222976e+002
3.222207e+003, 1.204918e+002
3.224136e+003, 1.199857e+002
3.226064e+003, 1.196836e+002
3.227993e+003, 1.184925e+002
3.229921e+003, 1.179529e+002
3.231850e+003, 1.176645e+002
3.233778e+003, 1.167101e+002
3.235707e+003, 1.155352e+002
3.237635e+003, 1.143908e+002
3.239563e+003, 1.138539e+002
3.241492e+003, 1.140808e+002
3.243420e+003, 1.111974e+002
3.245349e+003, 1.156002e+002
3.247277e+003, 1.159935e+002
3.249206e+003, 1.088271e+002
3.251134e+003, 1.149430e+002
3.253063e+003, 1.166824e+002
3.254991e+003, 1.222416e+002
3.256920e+003, 1.278903e+002
3.258848e+003, 1.114581e+002
3.260777e+003, 1.048981e+002
3.262705e+003, 1.068285e+002
3.264634e+003, 1.098559e+002
3.266562e+003, 1.054764e+002
3.268490e+003, 1.027225e+002
3.270419e+003, 1.025257e+002
3.272347e+003, 1.023751e+002
3.274276e+003, 1.000098e+002
3.276204e+003, 1.004487e+002
3.278133e+003, 1.013544e+002
3.280061e+003, 1.010361e+002
3.281990e+003, 9.934096e+001
3.283918e+003, 9.932322e+001
3.285847e+003, 9.765611e+001
3.287775e+003, 9.809172e+001
3.289704e+003, 1.001282e+002
3.291632e+003, 9.903653e+001
3.293561e+003, 9.696438e+001
3.295489e+003, 9.652492e+001
3.297417e+003, 9.727251e+001
3.299346e+003, 9.772206e+001
3.301274e+003, 9.607549e+001
3.303203e+003, 9.595747e+001
3.305131e+003, 9.673001e+001
3.307060e+003, 9.689854e+001
3.308988e+003, 9.377377e+001
3.310917e+003, 9.316671e+001
3.312845e+003, 9.441747e+001
3.314774e+003, 9.589831e+001
3.316702e+003, 9.588679e+001
3.318631e+003, 9.562669e+001
3.320559e+003, 9.564002e+001
3.322488e+003, 9.534061e+001
3.324416e+003, 9.448060e+001
3.326344e+003, 9.525968e+001
3.328273e+003, 9.724297e+001
3.330201e+003, 9.946639e+001
3.332130e+003, 1.011964e+002
3.334058e+003, 1.017170e+002
3.335987e+003, 1.040590e+002
3.337915e+003, 1.063295e+002
3.339844e+003, 1.089852e+002
3.341772e+003, 1.127136e+002
3.343701e+003, 1.146072e+002
3.345629e+003, 1.162727e+002
3.347558e+003, 1.168417e+002
3.349486e+003, 1.156469e+002
3.351415e+003, 1.126406e+002
3.353343e+003, 1.111338e+002
3.355271e+003, 1.079765e+002
3.357200e+003, 1.048822e+002
3.359128e+003, 1.037743e+002
3.361057e+003, 1.012518e+002
3.362985e+003, 9.993272e+001
3.364914e+003, 9.831898e+001
3.366842e+003, 9.602646e+001
3.368771e+003, 9.388750e+001
3.370699e+003, 9.133807e+001
3.372628e+003, 9.036086e+001
3.374556e+003, 8.994542e+001
3.376485e+003, 8.897981e+001
3.378413e+003, 8.778463e+001
3.380342e+003, 8.710722e+001
3.382270e+003, 8.602377e+001
3.384198e+003, 8.439893e+001
3.386127e+003, 8.261714e+001
3.388055e+003, 8.323141e+001
3.389984e+003, 8.278068e+001
3.391912e+003, 8.110718e+001
3.393841e+003, 7.975516e+001
3.395769e+003, 8.132148e+001
3.397698e+003, 8.143128e+001
3.399626e+003, 8.047588e+001
3.401555e+003, 7.909801e+001
3.403483e+003, 7.794081e+001
3.405412e+003, 7.795589e+001
3.407340e+003, 7.913155e+001
3.409269e+003, 7.942841e+001
3.411197e+003, 7.875757e+001
3.413125e+003, 7.802528e+001
3.415054e+003, 7.813441e+001
3.416982e+003, 7.674094e+001
3.418911e+003, 7.686031e+001
3.420839e+003, 7.763654e+001
3.422768e+003, 7.500377e+001
3.424696e+003, 7.509245e+001
3.426625e+003, 7.570699e+001
3.428553e+003, 7.498766e+001
3.430482e+003, 7.300725e+001
3.432410e+003, 7.195291e+001
3.434339e+003, 7.091418e+001
3.436267e+003, 7.020802e+001
3.438196e+003, 6.957407e+001
3.440124e+003, 6.913707e+001
3.442052e+003, 6.998940e+001
3.443981e+003, 6.912720e+001
3.445909e+003, 6.909101e+001
3.447838e+003, 6.932944e+001
3.449766e+003, 6.848495e+001
3.451695e+003, 6.569180e+001
3.453623e+003, 6.473540e+001
3.455552e+003, 6.503350e+001
##END=



