##NAMES=Cahnite
##RRUFFID=R110095
##IDEAL CHEMISTRY=Ca_2_B(AsO_4_)(OH)_4_
##LOCALITY=Inner Mongolia province, China
##OWNER=RRUFF
##SOURCE=Rob Lavinsky
##DESCRIPTION=White tetrahedra associated with bluish green borcarite (R110094)
##STATUS=The identification of this mineral is confirmed by single-crystal X-ray diffraction and chemical analysis
##URL=https://www.rruff.net/odr/rruff_sample/R110095
##MEASURED CHEMISTRY=Ca_2.01_B[(As_0.96_Si_0.04_)O_4_](OH)_4_ ; B not measured
##DIFFRACTION SAMPLE DESCRIPTION=Single crystal, powder profile is calculated
##CELL PARAMETERS=a: 7.106 b: 7.106 c: 6.196 alpha: 90 beta: 90 gamma: 90 volume: 312.85 crystal system: tetragonal
##FILETYPE=Raman Processed
##RAMAN WAVELENGTH=532

107.7427, 15.43332
109.6712, 14.97304
111.5997, 14.76868
113.5281, 14.85666
115.4566, 14.90373
117.3851, 14.77042
119.3135, 14.49813
121.2420, 14.35660
123.1705, 14.40179
125.0989, 14.52207
127.0274, 14.67418
128.9559, 14.92863
130.8844, 15.08127
132.8128, 15.00096
134.7413, 14.72409
136.6698, 14.61645
138.5982, 14.66770
140.5267, 14.93282
142.4552, 15.45712
144.3836, 15.46056
146.3121, 16.58458
148.2406, 18.88613
150.1690, 22.30011
152.0975, 27.80328
154.0260, 35.93788
155.9544, 45.87731
157.8829, 57.17854
159.8114, 69.43509
161.7398, 83.57937
163.6683, 100.0897
165.5968, 119.2856
167.5252, 138.3986
169.4537, 158.6340
171.3822, 178.2965
173.3106, 195.9121
175.2391, 211.9969
177.1676, 224.5755
179.0960, 230.3621
181.0245, 222.9224
182.9530, 215.3110
184.8814, 206.3220
186.8099, 197.8371
188.7384, 191.5484
190.6668, 188.2640
192.5953, 185.9133
194.5238, 184.4077
196.4522, 183.5943
198.3807, 183.0195
200.3092, 182.4519
202.2376, 182.1539
204.1661, 182.3112
206.0946, 182.3097
208.0230, 183.4795
209.9515, 186.7853
211.8800, 191.9777
213.8084, 196.1625
215.7369, 199.5748
217.6654, 202.0811
219.5938, 202.9953
221.5223, 202.0377
223.4508, 200.1719
225.3792, 197.8058
227.3077, 194.9345
229.2362, 192.6202
231.1646, 190.5384
233.0931, 189.0259
235.0216, 188.3716
236.9500, 188.7307
238.8785, 189.7624
240.8070, 191.5273
242.7354, 193.9246
244.6639, 196.0339
246.5924, 197.2464
248.5208, 198.6798
250.4493, 200.8561
252.3778, 203.3533
254.3062, 207.2806
256.2347, 212.9763
258.1632, 220.1993
260.0916, 228.5613
262.0201, 240.3385
263.9486, 251.5956
265.8770, 260.2677
267.8055, 265.5614
269.7340, 271.0710
271.6624, 276.0981
273.5909, 281.4980
275.5194, 289.0546
277.4478, 300.8849
279.3763, 313.2521
281.3048, 325.0553
283.2332, 336.4423
285.1617, 346.9008
287.0902, 353.0275
289.0186, 357.1143
290.9471, 362.7688
292.8756, 372.8860
294.8040, 381.3191
296.7325, 388.4769
298.6610, 394.9070
300.5894, 400.2994
302.5179, 397.2986
304.4464, 397.2827
306.3748, 409.4981
308.3033, 432.8212
310.2318, 465.8877
312.1602, 517.4577
314.0887, 582.3827
316.0172, 635.6857
317.9456, 681.1620
319.8741, 711.6511
321.8026, 713.0439
323.7310, 683.0141
325.6595, 638.5183
327.5880, 585.4753
329.5164, 529.3004
331.4449, 479.4058
333.3734, 437.2621
335.3018, 402.3128
337.2303, 375.3287
339.1588, 355.7592
341.0872, 340.0166
343.0157, 327.5764
344.9442, 317.3490
346.8727, 308.0679
348.8011, 298.7633
350.7296, 291.6583
352.6581, 286.3344
354.5865, 282.7998
356.5150, 282.6596
358.4435, 285.5641
360.3719, 291.7274
362.3004, 302.1507
364.2289, 316.7696
366.1573, 332.2027
368.0858, 349.7431
370.0143, 367.1294
371.9427, 381.0715
373.8712, 390.2939
375.7997, 398.1208
377.7281, 404.1664
379.6566, 408.5976
381.5851, 415.4552
383.5135, 427.0405
385.4420, 440.3481
387.3705, 455.5949
389.2989, 473.7568
391.2274, 487.7759
393.1559, 493.0451
395.0843, 491.4640
397.0128, 485.4473
398.9413, 473.4809
400.8697, 461.5037
402.7982, 451.4254
404.7267, 443.8923
406.6551, 438.6288
408.5836, 436.7261
410.5121, 436.1149
412.4405, 436.4803
414.3690, 436.5862
416.2975, 434.4035
418.2259, 428.8433
420.1544, 420.8165
422.0829, 411.0884
424.0113, 399.4586
425.9398, 388.5028
427.8683, 378.2250
429.7967, 369.2731
431.7252, 363.0447
433.6537, 359.7352
435.5821, 359.2635
437.5106, 361.9326
439.4391, 370.3720
441.3675, 378.7540
443.2960, 387.2813
445.2245, 393.1973
447.1529, 395.4443
449.0814, 392.3114
451.0099, 385.8874
452.9383, 375.9478
454.8668, 363.8803
456.7953, 352.3206
458.7237, 342.1184
460.6522, 332.7520
462.5807, 323.8320
464.5091, 315.3997
466.4376, 306.9371
468.3661, 298.1196
470.2945, 289.3387
472.2230, 280.9245
474.1515, 272.7857
476.0799, 265.3565
478.0084, 258.5894
479.9369, 252.7152
481.8653, 248.2872
483.7938, 245.7673
485.7223, 243.5315
487.6507, 241.0090
489.5792, 238.2563
491.5077, 235.9670
493.4361, 234.2008
495.3646, 232.9452
497.2931, 232.3184
499.2215, 232.1941
501.1500, 232.4460
503.0785, 233.4669
505.0069, 234.7045
506.9354, 235.4898
508.8639, 235.2358
510.7923, 235.4399
512.7208, 236.4828
514.6493, 238.1303
516.5778, 239.6749
518.5062, 241.3316
520.4347, 243.0354
522.3632, 244.6365
524.2916, 245.6301
526.2201, 247.1270
528.1486, 249.1913
530.0770, 252.0711
532.0055, 256.0494
533.9340, 260.9088
535.8624, 265.5211
537.7909, 270.1501
539.7194, 274.1764
541.6478, 276.9651
543.5763, 278.2097
545.5048, 278.4584
547.4332, 277.4972
549.3617, 275.7210
551.2902, 273.3321
553.2186, 269.8287
555.1471, 266.3296
557.0756, 262.9135
559.0040, 260.0447
560.9325, 257.4903
562.8610, 255.2929
564.7894, 253.3286
566.7179, 251.5816
568.6464, 249.9891
570.5748, 248.9576
572.5033, 248.7412
574.4318, 248.8223
576.3602, 248.7583
578.2887, 248.4216
580.2172, 248.3183
582.1456, 248.6494
584.0741, 249.2656
586.0026, 249.8957
587.9310, 250.5282
589.8595, 251.2794
591.7880, 252.5146
593.7164, 253.7734
595.6449, 254.3395
597.5734, 253.5321
599.5018, 253.0087
601.4303, 253.3986
603.3588, 254.7173
605.2872, 255.6773
607.2157, 255.7500
609.1442, 255.9598
611.0726, 257.0255
613.0011, 258.8966
614.9296, 260.1562
616.8580, 260.0560
618.7865, 259.8484
620.7150, 260.2228
622.6434, 261.2162
624.5719, 262.1204
626.5004, 262.8836
628.4288, 263.5357
630.3573, 264.0978
632.2858, 264.4978
634.2142, 264.9742
636.1427, 265.4623
638.0712, 266.0638
639.9996, 266.9228
641.9281, 268.1464
643.8566, 269.1345
645.7850, 269.4597
647.7135, 269.4411
649.6420, 269.7825
651.5704, 271.0574
653.4989, 272.1024
655.4274, 272.4538
657.3558, 272.4189
659.2843, 272.8595
661.2128, 274.1660
663.1412, 275.4503
665.0697, 276.2058
666.9982, 276.4917
668.9266, 277.3683
670.8551, 279.4041
672.7836, 281.3636
674.7120, 282.5933
676.6405, 283.1621
678.5690, 283.8498
680.4974, 284.7987
682.4259, 285.9936
684.3544, 287.4500
686.2828, 289.0503
688.2113, 290.3351
690.1398, 290.8885
692.0682, 291.5280
693.9967, 292.5858
695.9252, 293.9639
697.8536, 295.8841
699.7821, 298.5829
701.7106, 301.7497
703.6390, 305.0497
705.5675, 308.2432
707.4960, 312.2168
709.4244, 317.0986
711.3529, 322.9725
713.2814, 329.6893
715.2098, 337.4418
717.1383, 346.1482
719.0668, 355.4407
720.9952, 365.5110
722.9237, 376.1201
724.8522, 386.4114
726.7806, 398.5674
728.7091, 413.8145
730.6376, 430.9447
732.5660, 449.8397
734.4945, 469.8128
736.4230, 492.9229
738.3514, 518.9755
740.2799, 549.0012
742.2084, 584.6693
744.1368, 627.6737
746.0653, 673.1979
747.9938, 722.7047
749.9222, 772.2609
751.8507, 813.2454
753.7792, 845.2486
755.7076, 868.2053
757.6361, 879.0999
759.5646, 877.0923
761.4930, 866.0173
763.4215, 842.2462
765.3500, 814.5778
767.2784, 787.7657
769.2069, 762.2857
771.1354, 743.7912
773.0638, 733.5837
774.9923, 731.2483
776.9208, 738.1799
778.8492, 754.6093
780.7777, 774.6180
782.7062, 800.7170
784.6346, 824.8982
786.5631, 843.3032
788.4916, 855.8221
790.4200, 858.8260
792.3485, 845.7842
794.2770, 827.0803
796.2054, 808.5788
798.1339, 792.1183
800.0624, 784.3359
801.9908, 788.4277
803.9193, 805.0821
805.8478, 823.1415
807.7762, 849.1741
809.7047, 877.0319
811.6332, 896.0403
813.5616, 924.4366
815.4901, 980.3575
817.4186, 1039.576
819.3470, 1109.813
821.2755, 1196.223
823.2040, 1276.490
825.1324, 1329.046
827.0609, 1399.641
828.9894, 1512.815
830.9178, 1661.923
832.8463, 1873.907
834.7748, 2211.873
836.7032, 2596.249
838.6317, 2949.145
840.5602, 3299.160
842.4886, 3577.083
844.4171, 3599.741
846.3456, 3411.993
848.2740, 3137.314
850.2025, 2763.626
852.1310, 2370.561
854.0594, 2022.267
855.9879, 1728.981
857.9164, 1486.585
859.8448, 1288.710
861.7733, 1125.532
863.7018, 1002.658
865.6302, 909.3564
867.5587, 825.1906
869.4872, 750.5781
871.4156, 684.0108
873.3441, 626.5369
875.2726, 577.8190
877.2010, 536.9777
879.1295, 505.2801
881.0580, 480.6594
882.9865, 463.8716
884.9149, 450.5024
886.8434, 439.8752
888.7719, 432.5363
890.7003, 428.5983
892.6288, 427.7660
894.5573, 427.9300
896.4857, 429.0400
898.4142, 430.7449
900.3427, 432.2451
902.2711, 433.9640
904.1996, 435.9972
906.1281, 437.6605
908.0565, 440.2216
909.9850, 442.1500
911.9135, 444.2408
913.8419, 446.8715
915.7704, 449.1675
917.6989, 450.5418
919.6273, 450.5220
921.5558, 448.9927
923.4843, 446.0888
925.4127, 442.3983
927.3412, 438.0638
929.2697, 433.1320
931.1981, 427.6993
933.1266, 422.1895
935.0551, 417.2593
936.9835, 413.1927
938.9120, 409.5677
940.8405, 405.9012
942.7689, 402.2059
944.6974, 399.4709
946.6259, 397.3054
948.5543, 394.3097
950.4828, 390.2214
952.4113, 385.3456
954.3397, 381.0880
956.2682, 378.2245
958.1967, 376.5487
960.1251, 375.4316
962.0536, 374.3395
963.9821, 373.0431
965.9105, 372.0616
967.8390, 372.3071
969.7675, 372.9312
971.6959, 373.3718
973.6244, 373.7522
975.5529, 375.2760
977.4813, 377.8405
979.4098, 380.9631
981.3383, 384.0806
983.2667, 386.2067
985.1952, 387.1682
987.1237, 388.5952
989.0521, 390.8600
990.9806, 392.7963
992.9091, 393.4771
994.8375, 392.9088
996.7660, 392.7074
998.6945, 392.9528
1000.623, 393.0822
1002.551, 392.8813
1004.480, 392.2558
1006.408, 391.8619
1008.337, 392.2204
1010.265, 393.2077
1012.194, 393.1303
1014.122, 391.2893
1016.051, 388.2028
1017.979, 385.0975
1019.908, 382.8917
1021.836, 381.0296
1023.765, 379.2221
1025.693, 376.8438
1027.621, 373.9479
1029.550, 370.8795
1031.478, 367.5523
1033.407, 364.4915
1035.335, 362.6124
1037.264, 362.2554
1039.192, 361.8497
1041.121, 360.5886
1043.049, 358.7218
1044.978, 357.5963
1046.906, 357.7492
1048.835, 358.5003
1050.763, 358.8340
1052.692, 358.4301
1054.620, 358.0790
1056.548, 358.0596
1058.477, 358.3550
1060.405, 358.9267
1062.334, 359.3965
1064.262, 359.5399
1066.191, 359.1712
1068.119, 358.9375
1070.048, 359.0238
1071.976, 359.9996
1073.905, 361.3554
1075.833, 362.5594
1077.762, 363.4389
1079.690, 364.0180
1081.619, 364.3928
1083.547, 364.5551
1085.475, 364.7896
1087.404, 365.3519
1089.332, 366.6661
1091.261, 367.4495
1093.189, 366.7124
1095.118, 365.2803
1097.046, 365.0734
1098.975, 366.0047
1100.903, 366.6130
1102.832, 366.4650
1104.760, 366.1577
1106.689, 365.7807
1108.617, 365.6743
1110.546, 366.1204
1112.474, 367.7130
1114.402, 368.6814
1116.331, 368.5503
1118.259, 368.1620
1120.188, 368.2007
1122.116, 368.6620
1124.045, 369.0546
1125.973, 369.1889
1127.902, 369.3573
1129.830, 370.1159
1131.759, 371.2096
1133.687, 371.7892
1135.616, 371.6004
1137.544, 371.7066
1139.473, 372.3418
1141.401, 372.8579
1143.329, 373.0912
1145.258, 373.0684
1147.186, 372.9308
1149.115, 372.1201
1151.043, 371.6996
1152.972, 372.3987
1154.900, 373.9732
1156.829, 374.8932
1158.757, 374.7099
1160.686, 374.5099
1162.614, 374.6056
1164.543, 374.9826
1166.471, 376.0540
1168.400, 378.3310
1170.328, 380.0844
1172.256, 380.2766
1174.185, 380.2762
1176.113, 381.0612
1178.042, 382.6938
1179.970, 384.2422
1181.899, 386.0634
1183.827, 387.3372
1185.756, 387.4119
1187.684, 386.8200
1189.613, 386.8456
1191.541, 387.5935
1193.470, 388.6019
1195.398, 390.0906
1197.327, 391.6897
1199.255, 392.8058
1201.183, 393.3789
1203.112, 394.3729
1205.040, 396.0282
1206.969, 397.9098
1208.897, 399.9176
1210.826, 401.9945
1212.754, 403.9828
1214.683, 406.1017
1216.611, 407.8827
1218.540, 409.4149
1220.468, 410.6571
1222.397, 411.5289
1224.325, 412.0658
1226.254, 412.5437
1228.182, 413.1587
1230.110, 413.4117
1232.039, 412.4002
1233.967, 410.9837
1235.896, 410.6824
1237.824, 411.7717
1239.753, 412.4801
1241.681, 412.2458
1243.610, 411.8934
1245.538, 411.6753
1247.467, 411.4870
1249.395, 411.7728
1251.324, 413.6743
1253.252, 414.7821
1255.181, 413.8168
1257.109, 412.2045
1259.037, 412.1221
1260.966, 413.6516
1262.894, 414.3251
1264.823, 413.3018
1266.751, 412.1778
1268.680, 411.4169
1270.608, 411.1982
1272.537, 411.9381
1274.465, 414.0547
1276.394, 415.3952
1278.322, 414.7064
1280.251, 413.8293
1282.179, 413.8262
1284.108, 414.7645
1286.036, 415.9455
1287.964, 417.4991
1289.893, 418.9432
1291.821, 420.1312
1293.750, 421.3478
1295.678, 422.6115
1297.607, 423.4565
1299.535, 424.1171
1301.464, 424.6123
1303.392, 425.4734
1305.321, 427.0922
1307.249, 428.7790
1309.178, 429.8638
1311.106, 430.2412
1313.035, 431.1244
1314.963, 433.4547
1316.891, 435.6647
1318.820, 436.7290
1320.748, 436.8586
1322.677, 436.6934
1324.605, 435.6631
1326.534, 435.3095
1328.462, 436.6245
1330.391, 438.3736
1332.319, 439.1502
1334.248, 438.8243
1336.176, 438.4732
1338.105, 437.6290
1340.033, 437.2371
1341.962, 438.1082
1343.890, 439.6388
1345.818, 440.3676
1347.747, 439.8949
1349.675, 439.8727
1351.604, 441.1082
1353.532, 442.2347
1355.461, 442.0311
1357.389, 441.2196
1359.318, 441.5587
1361.246, 443.4146
1363.175, 444.8481
1365.103, 445.0527
1367.032, 444.9088
1368.960, 445.0345
1370.889, 445.6528
1372.817, 446.1753
1374.745, 446.2306
1376.674, 446.4143
1378.602, 447.0447
1380.531, 447.8896
1382.459, 448.6384
1384.388, 448.8120
1386.316, 448.9317
1388.245, 449.8422
1390.173, 450.8117
1392.102, 451.7184
1394.030, 452.3380
1395.959, 452.4585
1397.887, 452.2292
1399.816, 452.6210
1401.744, 453.6099
1403.672, 454.8058
1405.601, 456.8438
1407.529, 458.6949
1409.458, 458.6783
1411.386, 456.9393
1413.315, 456.4263
1415.243, 458.2133
1417.172, 459.9905
1419.100, 460.2555
1421.029, 460.1201
1422.957, 461.1632
1424.886, 463.5971
1426.814, 465.4746
1428.743, 466.3362
1430.671, 466.8197
1432.599, 466.7725
1434.528, 466.6827
1436.456, 467.2669
1438.385, 468.7973
1440.313, 470.2101
1442.242, 471.2509
1444.170, 471.8681
1446.099, 471.9781
1448.027, 472.0236
1449.956, 472.2874
1451.884, 472.6327
1453.813, 473.6489
1455.741, 475.9327
1457.670, 477.9906
1459.598, 479.5427
1461.526, 480.6373
1463.455, 480.9725
1465.383, 480.5333
1467.312, 481.3254
1469.240, 484.3075
1471.169, 487.3920
1473.097, 490.2132
1475.026, 492.1006
1476.954, 491.8911
1478.883, 489.9737
1480.811, 489.4016
1482.740, 491.0382
1484.668, 493.2696
1486.597, 496.1401
1488.525, 498.9279
1490.453, 500.8395
1492.382, 502.0216
1494.310, 503.5882
1496.239, 505.5433
1498.167, 507.2165
1500.096, 508.0393
1502.024, 508.9765
1503.953, 510.9646
1505.881, 513.6661
1507.810, 515.0920
1509.738, 515.4518
1511.667, 515.2106
1513.595, 513.1953
1515.524, 511.0431
1517.452, 509.9921
1519.380, 510.0005
1521.309, 510.2790
1523.237, 510.7052
1525.166, 510.9579
1527.094, 511.2175
1529.023, 511.4649
1530.951, 511.4015
1532.880, 511.2843
1534.808, 511.7285
1536.737, 513.1348
1538.665, 513.2551
1540.594, 511.1821
1542.522, 509.5299
1544.451, 509.0004
1546.379, 509.2752
1548.307, 510.0741
1550.236, 511.3460
1552.164, 512.2478
1554.093, 512.6028
1556.021, 513.0157
1557.950, 513.9952
1559.878, 514.7883
1561.807, 514.2896
1563.735, 512.7928
1565.664, 512.2061
1567.592, 513.0396
1569.521, 513.6258
1571.449, 512.8459
1573.378, 512.3428
1575.306, 513.7089
1577.234, 515.8456
1579.163, 516.5465
1581.091, 515.7176
1583.020, 515.3776
1584.948, 516.0176
1586.877, 516.7683
1588.805, 517.1848
1590.734, 517.8099
1592.662, 519.2870
1594.591, 521.4200
1596.519, 523.0275
1598.448, 523.7704
1600.376, 524.7657
1602.305, 526.3264
1604.233, 527.9299
1606.161, 529.6327
1608.090, 531.2072
1610.018, 531.9326
1611.947, 531.6685
1613.875, 531.1182
1615.804, 530.3598
1617.732, 529.8223
1619.661, 529.5453
1621.589, 529.6755
1623.518, 530.6354
1625.446, 532.3510
1627.375, 533.3716
1629.303, 533.0757
1631.232, 533.4205
1633.160, 535.2568
1635.089, 537.2009
1637.017, 538.6617
1638.945, 539.6103
1640.874, 539.8397
1642.802, 539.1768
1644.731, 539.4583
1646.659, 542.1646
1648.588, 543.8221
1650.516, 542.3914
1652.445, 540.5997
1654.373, 540.9753
1656.302, 543.1652
1658.230, 544.6229
1660.159, 544.9661
1662.087, 545.4807
1664.016, 546.0236
1665.944, 547.0914
1667.872, 549.7481
1669.801, 552.5366
1671.729, 553.2814
1673.658, 551.8035
1675.586, 550.8783
1677.515, 550.4814
1679.443, 550.7834
1681.372, 552.3183
1683.300, 554.0078
1685.229, 555.4911
1687.157, 556.6124
1689.086, 556.9596
1691.014, 556.3185
1692.943, 555.6397
1694.871, 554.1095
1696.799, 553.7805
1698.728, 556.2452
1700.656, 558.8967
1702.585, 559.7929
1704.513, 559.4671
1706.442, 559.5636
1708.370, 560.2646
1710.299, 560.8655
1712.227, 560.8390
1714.156, 561.3788
1716.084, 563.6384
1718.013, 565.7318
1719.941, 565.5735
1721.870, 563.7667
1723.798, 563.3069
1725.726, 564.5793
1727.655, 565.9859
1729.583, 568.1819
1731.512, 569.4576
1733.440, 568.7903
1735.369, 567.5049
1737.297, 566.4466
1739.226, 565.7639
1741.154, 566.4032
1743.083, 568.8008
1745.011, 570.9830
1746.940, 572.7819
1748.868, 574.2336
1750.797, 575.1400
1752.725, 575.7825
1754.653, 576.2855
1756.582, 576.6687
1758.510, 577.3104
1760.439, 578.3563
1762.367, 579.0016
1764.296, 579.2139
1766.224, 579.0461
1768.153, 578.3470
1770.081, 577.5795
1772.010, 576.9093
1773.938, 576.5107
1775.867, 577.1053
1777.795, 578.8387
1779.724, 580.3338
1781.652, 581.1873
1783.580, 582.1857
1785.509, 583.7477
1787.437, 585.3002
1789.366, 586.4911
1791.294, 587.3214
1793.223, 587.7062
1795.151, 587.6230
1797.080, 587.8424
1799.008, 588.4883
1800.937, 589.4137
1802.865, 591.1858
1804.794, 592.5875
1806.722, 592.5738
1808.651, 591.8890
1810.579, 591.4547
1812.507, 591.2809
1814.436, 591.5385
1816.364, 592.2900
1818.293, 593.0900
1820.221, 593.9805
1822.150, 594.5961
1824.078, 594.1722
1826.007, 593.8303
1827.935, 595.5651
1829.864, 598.6179
1831.792, 599.2787
1833.721, 596.8361
1835.649, 596.2436
1837.578, 599.6265
1839.506, 602.4964
1841.434, 602.8148
1843.363, 602.5403
1845.291, 603.2270
1847.220, 604.3742
1849.148, 604.8130
1851.077, 604.4168
1853.005, 604.3693
1854.934, 604.7460
1856.862, 605.3898
1858.791, 606.9075
1860.719, 607.9714
1862.648, 607.4235
1864.576, 606.4951
1866.505, 606.7999
1868.433, 608.1298
1870.361, 609.0369
1872.290, 609.2302
1874.218, 609.7278
1876.147, 610.5709
1878.075, 611.7131
1880.004, 613.9510
1881.932, 615.6722
1883.861, 615.4316
1885.789, 614.1686
1887.718, 613.4313
1889.646, 613.1695
1891.575, 612.9102
1893.503, 612.3539
1895.432, 612.6165
1897.360, 614.6214
1899.288, 616.2260
1901.217, 616.6169
1903.145, 616.5284
1905.074, 616.3369
1907.002, 616.2423
1908.931, 616.6161
1910.859, 617.4252
1912.788, 618.0898
1914.716, 618.3785
1916.645, 618.8160
1918.573, 619.3010
1920.502, 620.0631
1922.430, 621.8945
1924.359, 623.4104
1926.287, 623.0919
1928.215, 621.6786
1930.144, 620.7797
1932.072, 620.4290
1934.001, 620.8643
1935.929, 622.4615
1937.858, 624.0734
1939.786, 626.1453
1941.715, 627.3967
1943.643, 626.4441
1945.572, 625.2757
1947.500, 626.0421
1949.429, 625.5029
1951.357, 625.4998
1953.286, 626.3552
1955.214, 625.8865
1957.143, 627.2903
1959.071, 628.1603
1961.000, 627.9930
1962.928, 627.7103
1964.856, 627.6879
1966.785, 627.6617
1968.713, 627.1879
1970.642, 626.7586
1972.570, 627.2255
1974.499, 628.5367
1976.427, 630.5590
1978.356, 633.4789
1980.284, 635.3935
1982.213, 635.5695
1984.141, 635.5837
1986.070, 635.6697
1987.998, 636.0389
1989.927, 636.8807
1991.855, 638.0068
1993.783, 639.6270
1995.712, 641.3790
1997.640, 641.3093
1999.569, 638.7571
2001.497, 637.9602
2003.426, 640.2102
2005.354, 642.2286
2007.283, 643.9970
2009.211, 645.0789
2011.140, 644.7603
2013.068, 644.2077
2014.997, 644.5817
2016.925, 645.3754
2018.854, 645.3303
2020.782, 646.1387
2022.710, 646.9715
2024.639, 647.1627
2026.567, 647.7955
2028.496, 647.9557
2030.424, 648.3201
2032.353, 648.0275
2034.281, 647.7373
2036.210, 647.4385
2038.138, 647.1836
2040.067, 646.7424
2041.995, 646.4630
2043.924, 647.4998
2045.852, 649.8300
2047.781, 651.2042
2049.709, 651.1983
2051.637, 651.2844
2053.566, 651.5045
2055.494, 651.8906
2057.423, 652.8074
2059.351, 653.5276
2061.280, 653.6995
2063.208, 653.5782
2065.137, 653.2812
2067.065, 652.9937
2068.994, 653.2740
2070.922, 654.0767
2072.851, 654.1130
2074.779, 652.8979
2076.708, 653.2081
2078.636, 656.1207
2080.564, 658.4285
2082.493, 658.5166
2084.421, 658.5064
2086.350, 660.1331
2088.278, 661.7573
2090.207, 661.5826
2092.135, 660.5580
2094.064, 660.4471
2095.992, 661.2354
2097.921, 662.4042
2099.849, 664.6667
2101.778, 664.7905
2103.706, 660.5148
2105.635, 657.9721
2107.563, 658.8235
2109.491, 660.1986
2111.420, 661.9047
2113.348, 663.2032
2115.277, 663.3755
2117.205, 663.1718
2119.134, 663.4660
2121.062, 664.1417
2122.991, 664.8907
2124.919, 665.6459
2126.848, 666.0887
2128.776, 665.8894
2130.705, 666.3531
2132.633, 668.5687
2134.562, 669.9032
2136.490, 669.0712
2138.418, 668.3779
2140.347, 668.9716
2142.275, 670.0273
2144.204, 671.1483
2146.132, 672.1937
2148.061, 672.8839
2149.989, 673.3134
2151.918, 673.6912
2153.846, 674.0350
2155.775, 674.9371
2157.703, 676.5975
2159.632, 677.2684
2161.560, 675.7748
2163.489, 675.2376
2165.417, 677.2366
2167.345, 679.3287
2169.274, 680.9142
2171.202, 681.7813
2173.131, 681.3831
2175.059, 680.5588
2176.988, 680.2951
2178.916, 680.6346
2180.845, 681.8915
2182.773, 684.0359
2184.702, 684.9906
2186.630, 684.4924
2188.559, 684.5750
2190.487, 685.3713
2192.416, 686.8977
2194.344, 689.7819
2196.272, 692.0678
2198.201, 692.4431
2200.129, 692.7811
2202.058, 694.7004
2203.986, 696.5764
2205.915, 696.2344
2207.843, 697.9895
2209.772, 696.3627
2211.700, 699.1697
2213.629, 700.1949
2215.557, 699.4462
2217.486, 698.6098
2219.414, 697.6426
2221.343, 697.9336
2223.271, 700.3048
2225.199, 701.5590
2227.128, 699.8639
2229.056, 698.7755
2230.985, 700.2814
2232.913, 701.7900
2234.842, 701.7925
2236.770, 701.2552
2238.699, 700.8893
2240.627, 700.7285
2242.556, 700.5247
2244.484, 700.6086
2246.413, 702.6635
2248.341, 703.1418
2250.270, 704.1081
2252.198, 706.1604
2254.126, 706.0643
2256.055, 708.1175
2257.983, 709.5156
2259.912, 709.2929
2261.840, 709.1467
2263.769, 709.9767
2265.697, 710.2068
2267.626, 708.7168
2269.554, 707.0775
2271.483, 706.3096
2273.411, 705.9767
2275.340, 705.7988
2277.268, 705.7996
2279.197, 705.9137
2281.125, 706.2305
2283.053, 706.8331
2284.982, 707.7285
2286.910, 708.4337
2288.839, 709.6860
2290.767, 710.0324
2292.696, 711.1414
2294.624, 711.4294
2296.553, 711.4871
2298.481, 712.4301
2300.410, 712.6058
2302.338, 712.6600
2304.267, 712.9212
2306.195, 713.0329
2308.124, 712.4948
2310.052, 712.1754
2311.980, 712.5104
2313.909, 713.6154
2315.837, 716.4280
2317.766, 719.6439
2319.694, 720.1698
2321.623, 718.7509
2323.551, 719.0764
2325.480, 721.1434
2327.408, 721.9963
2329.337, 721.5567
2331.265, 720.8755
2333.194, 719.8688
2335.122, 719.9191
2337.051, 721.8911
2338.979, 723.0986
2340.907, 722.1678
2342.836, 721.7928
2344.764, 723.2142
2346.693, 724.6895
2348.621, 725.5735
2350.550, 726.0871
2352.478, 725.9050
2354.407, 725.6074
2356.335, 725.4275
2358.264, 725.4980
2360.192, 726.6998
2362.121, 728.0390
2364.049, 727.1388
2365.978, 727.6791
2367.906, 727.4085
2369.834, 726.5792
2371.763, 727.0699
2373.691, 725.7056
2375.620, 726.4591
2377.548, 729.7391
2379.477, 731.8112
2381.405, 732.0729
2383.334, 731.6149
2385.262, 730.1788
2387.191, 729.3323
2389.119, 729.9114
2391.048, 730.7146
2392.976, 731.4435
2394.905, 732.4212
2396.833, 734.0553
2398.761, 735.6164
2400.690, 736.4706
2402.618, 737.1329
2404.547, 737.7708
2406.475, 738.5860
2408.404, 740.2289
2410.332, 741.9388
2412.261, 742.1047
2414.189, 743.6439
2416.118, 742.7004
2418.046, 745.1400
2419.975, 746.1865
2421.903, 745.9950
2423.832, 747.5333
2425.760, 750.7748
2427.688, 753.1529
2429.617, 754.3270
2431.545, 756.1998
2433.474, 759.2199
2435.402, 762.1095
2437.331, 764.4825
2439.259, 767.3435
2441.188, 771.7635
2443.116, 774.8013
2445.045, 775.0082
2446.973, 775.7197
2448.902, 778.1746
2450.830, 781.0795
2452.759, 784.1568
2454.687, 786.9198
2456.615, 788.9300
2458.544, 790.6614
2460.472, 792.4030
2462.401, 794.1804
2464.329, 796.5773
2466.258, 798.6384
2468.186, 799.0966
2470.115, 798.5488
2472.043, 797.6644
2473.972, 796.4022
2475.900, 794.4085
2477.829, 791.9928
2479.757, 790.5465
2481.686, 789.8627
2483.614, 788.8212
2485.542, 787.4317
2487.471, 784.5983
2489.399, 780.5634
2491.328, 778.5295
2493.256, 778.8583
2495.185, 779.0593
2497.113, 778.5964
2499.042, 779.1188
2500.970, 781.6299
2502.899, 781.7723
2504.827, 778.0367
2506.756, 776.3229
2508.684, 778.4597
2510.613, 779.5328
2512.541, 778.1344
2514.469, 776.2137
2516.398, 773.7098
2518.326, 771.8679
2520.255, 771.0981
2522.183, 771.0110
2524.112, 772.0828
2526.040, 772.7199
2527.969, 771.5025
2529.897, 770.7028
2531.826, 772.4211
2533.754, 774.0590
2535.683, 773.6668
2537.611, 772.8024
2539.540, 772.1183
2541.468, 772.1790
2543.396, 774.1661
2545.325, 776.4254
2547.253, 776.9423
2549.182, 776.8713
2551.110, 777.4329
2553.039, 778.5201
2554.967, 780.6072
2556.896, 782.8033
2558.824, 783.2217
2560.753, 782.5453
2562.681, 782.1298
2564.610, 781.9933
2566.538, 781.8562
2568.467, 782.5267
2570.395, 782.9070
2572.323, 784.6652
2574.252, 786.6042
2576.180, 788.6365
2578.109, 790.8224
2580.037, 793.0264
2581.966, 792.8098
2583.894, 790.5394
2585.823, 790.5484
2587.751, 793.2499
2589.680, 794.6438
2591.608, 794.3224
2593.537, 794.9897
2595.465, 796.8710
2597.394, 796.9250
2599.322, 794.7126
2601.250, 793.9954
2603.179, 795.3456
2605.107, 796.4016
2607.036, 796.6006
2608.964, 797.5609
2610.893, 800.0665
2612.821, 801.2906
2614.750, 800.7985
2616.678, 800.4836
2618.607, 800.6143
2620.535, 800.8954
2622.464, 801.6181
2624.392, 801.5036
2626.321, 799.3451
2628.249, 798.2264
2630.177, 798.8808
2632.106, 799.4411
2634.034, 799.8682
2635.963, 799.3873
2637.891, 796.9172
2639.820, 795.5387
2641.748, 796.2541
2643.677, 797.7073
2645.605, 800.1093
2647.534, 802.2193
2649.462, 803.6864
2651.391, 804.9517
2653.319, 805.1426
2655.248, 807.0081
2657.176, 803.9864
2659.104, 801.1303
2661.033, 798.9677
2662.961, 797.9714
2664.890, 798.9518
2666.818, 799.8483
2668.747, 799.9733
2670.675, 800.0180
2672.604, 800.2648
2674.532, 800.4838
2676.461, 800.2676
2678.389, 800.4263
2680.318, 801.6046
2682.246, 802.0536
2684.175, 799.7641
2686.103, 798.9872
2688.031, 803.6378
2689.960, 806.8370
2691.888, 804.7924
2693.817, 802.9960
2695.745, 803.1533
2697.674, 804.2520
2699.602, 807.4488
2701.531, 808.6738
2703.459, 803.1490
2705.388, 799.9938
2707.316, 805.4341
2709.245, 809.1490
2711.173, 806.1442
2713.102, 804.4101
2715.030, 808.2083
2716.958, 811.2645
2718.887, 810.5856
2720.815, 809.4640
2722.744, 808.8402
2724.672, 808.3201
2726.601, 807.3936
2728.529, 807.6855
2730.458, 811.0266
2732.386, 813.1097
2734.315, 810.4762
2736.243, 809.4053
2738.172, 813.5848
2740.100, 815.9504
2742.029, 813.7877
2743.957, 812.9568
2745.885, 816.6904
2747.814, 818.9492
2749.742, 816.6586
2751.671, 815.2779
2753.599, 815.9177
2755.528, 817.3434
2757.456, 819.7551
2759.385, 821.2219
2761.313, 822.3351
2763.242, 823.8367
2765.170, 823.5883
2767.099, 825.2289
2769.027, 824.6239
2770.956, 823.6185
2772.884, 822.3636
2774.813, 821.5533
2776.741, 821.4410
2778.669, 821.8746
2780.598, 823.5043
2782.526, 824.0525
2784.455, 823.2141
2786.383, 822.8499
2788.312, 823.1504
2790.240, 823.4179
2792.169, 823.2695
2794.097, 823.8470
2796.026, 825.2204
2797.954, 826.7203
2799.883, 828.3493
2801.811, 827.8904
2803.740, 825.2209
2805.668, 825.9759
2807.596, 824.9974
2809.525, 825.4204
2811.453, 826.3239
2813.382, 827.0916
2815.310, 828.2905
2817.239, 828.7855
2819.167, 829.3398
2821.096, 829.8916
2823.024, 830.1720
2824.953, 830.6050
2826.881, 831.2833
2828.810, 832.3132
2830.738, 833.9397
2832.667, 837.8732
2834.595, 837.6688
2836.523, 841.6157
2838.452, 839.2444
2840.380, 839.7450
2842.309, 841.2562
2844.237, 841.2633
2846.166, 841.0218
2848.094, 841.5735
2850.023, 843.0381
2851.951, 846.4108
2853.880, 849.5982
2855.808, 851.0629
2857.737, 851.6801
2859.665, 851.5869
2861.594, 851.6443
2863.522, 852.5092
2865.450, 853.5057
2867.379, 854.0810
2869.307, 855.1898
2871.236, 857.8920
2873.164, 860.0391
2875.093, 860.1743
2877.021, 860.9621
2878.950, 862.9893
2880.878, 865.5889
2882.807, 866.1483
2884.735, 866.7960
2886.664, 868.3043
2888.592, 867.2647
2890.521, 868.5080
2892.449, 870.5643
2894.377, 873.3821
2896.306, 875.2214
2898.234, 875.6403
2900.163, 878.0716
2902.091, 882.6310
2904.020, 884.7781
2905.948, 884.9962
2907.877, 885.8859
2909.805, 887.5125
2911.734, 890.0947
2913.662, 893.1154
2915.591, 894.9592
2917.519, 896.0798
2919.448, 897.0043
2921.376, 898.2150
2923.304, 900.9869
2925.233, 903.9088
2927.161, 905.3363
2929.090, 906.1551
2931.018, 906.4532
2932.947, 907.4623
2934.875, 910.8475
2936.804, 913.9947
2938.732, 915.1407
2940.661, 916.1915
2942.589, 917.9090
2944.518, 919.2944
2946.446, 919.8250
2948.375, 920.4343
2950.303, 921.4110
2952.231, 922.2746
2954.160, 922.9269
2956.088, 923.8472
2958.017, 925.1425
2959.945, 925.9406
2961.874, 926.1338
2963.802, 925.5731
2965.731, 924.5546
2967.659, 926.6133
2969.588, 930.8782
2971.516, 932.1430
2973.445, 931.6619
2975.373, 932.5931
2977.302, 934.8516
2979.230, 939.5431
2981.158, 944.0406
2983.087, 944.4315
2985.015, 943.8555
2986.944, 945.8815
2988.872, 947.6786
2990.801, 947.0086
2992.729, 946.6280
2994.658, 948.1019
2996.586, 949.9803
2998.515, 952.1434
3000.443, 953.5343
3002.372, 953.6993
3004.300, 953.8671
3006.229, 954.6518
3008.157, 954.2094
3010.085, 955.1666
3012.014, 955.8195
3013.942, 956.0559
3015.871, 957.2365
3017.799, 956.4936
3019.728, 956.2392
3021.656, 956.7573
3023.585, 959.7805
3025.513, 963.7942
3027.442, 966.5618
3029.370, 968.2484
3031.299, 967.8173
3033.227, 967.9213
3035.156, 972.2013
3037.084, 975.5317
3039.012, 973.7910
3040.941, 972.2678
3042.869, 973.3766
3044.798, 974.9023
3046.726, 976.6840
3048.655, 978.0820
3050.583, 978.9052
3052.512, 979.5057
3054.440, 979.9269
3056.369, 979.8839
3058.297, 979.5363
3060.226, 980.5038
3062.154, 982.5579
3064.083, 984.8082
3066.011, 986.9732
3067.939, 987.8559
3069.868, 988.6818
3071.796, 991.4394
3073.725, 994.4247
3075.653, 995.6819
3077.582, 997.3682
3079.510, 1000.816
3081.439, 1004.839
3083.367, 1009.398
3085.296, 1013.663
3087.224, 1018.916
3089.153, 1025.141
3091.081, 1030.489
3093.010, 1038.772
3094.938, 1046.413
3096.866, 1053.622
3098.795, 1060.637
3100.723, 1069.196
3102.652, 1079.589
3104.580, 1092.728
3106.509, 1107.444
3108.437, 1122.225
3110.366, 1137.340
3112.294, 1151.532
3114.223, 1168.508
3116.151, 1191.287
3118.080, 1216.378
3120.008, 1242.604
3121.937, 1270.978
3123.865, 1301.035
3125.793, 1336.326
3127.722, 1377.397
3129.650, 1422.350
3131.579, 1471.180
3133.507, 1524.998
3135.436, 1583.724
3137.364, 1648.265
3139.293, 1717.101
3141.221, 1786.567
3143.150, 1859.376
3145.078, 1938.894
3147.007, 2020.778
3148.935, 2104.294
3150.864, 2184.774
3152.792, 2261.526
3154.720, 2332.301
3156.649, 2397.404
3158.577, 2453.121
3160.506, 2499.990
3162.434, 2536.623
3164.363, 2561.524
3166.291, 2565.099
3168.220, 2549.843
3170.148, 2518.701
3172.077, 2475.868
3174.005, 2427.385
3175.934, 2371.471
3177.862, 2304.206
3179.791, 2232.413
3181.719, 2156.527
3183.647, 2084.531
3185.576, 2019.271
3187.504, 1954.395
3189.433, 1887.352
3191.361, 1825.665
3193.290, 1769.044
3195.218, 1717.408
3197.147, 1669.581
3199.075, 1621.935
3201.004, 1576.362
3202.932, 1535.311
3204.861, 1499.322
3206.789, 1471.411
3208.718, 1444.823
3210.646, 1413.838
3212.574, 1388.037
3214.503, 1370.519
3216.431, 1354.218
3218.360, 1338.051
3220.288, 1322.062
3222.217, 1306.261
3224.145, 1289.920
3226.074, 1274.529
3228.002, 1265.451
3229.931, 1258.465
3231.859, 1247.497
3233.788, 1236.239
3235.716, 1225.648
3237.645, 1218.418
3239.573, 1217.249
3241.501, 1214.037
3243.430, 1206.665
3245.358, 1200.563
3247.287, 1196.090
3249.215, 1193.393
3251.144, 1192.067
3253.072, 1191.076
3255.001, 1189.936
3256.929, 1187.614
3258.858, 1185.167
3260.786, 1183.236
3262.715, 1181.832
3264.643, 1181.936
3266.572, 1179.983
3268.500, 1180.784
3270.428, 1181.201
3272.357, 1181.476
3274.285, 1184.145
3276.214, 1183.439
3278.142, 1186.563
3280.071, 1190.579
3281.999, 1190.831
3283.928, 1189.722
3285.856, 1188.181
3287.785, 1188.207
3289.713, 1191.437
3291.642, 1194.316
3293.570, 1196.401
3295.499, 1197.224
3297.427, 1196.853
3299.355, 1196.545
3301.284, 1196.105
3303.212, 1194.230
3305.141, 1192.618
3307.069, 1194.328
3308.998, 1196.316
3310.926, 1197.435
3312.855, 1196.725
3314.783, 1196.134
3316.712, 1191.546
3318.640, 1192.078
3320.569, 1190.608
3322.497, 1187.519
3324.426, 1188.720
3326.354, 1191.187
3328.282, 1189.449
3330.211, 1185.889
3332.139, 1182.129
3334.068, 1178.632
3335.996, 1176.725
3337.925, 1172.680
3339.853, 1165.325
3341.782, 1160.334
3343.710, 1157.796
3345.639, 1155.269
3347.567, 1152.759
3349.496, 1150.437
3351.424, 1148.316
3353.353, 1148.002
3355.281, 1145.215
3357.209, 1134.483
3359.138, 1128.251
3361.066, 1129.681
3362.995, 1128.841
3364.923, 1125.068
3366.852, 1121.012
3368.780, 1117.343
3370.709, 1115.736
3372.637, 1115.038
3374.566, 1114.255
3376.494, 1113.319
3378.423, 1112.738
3380.351, 1110.259
3382.280, 1104.298
3384.208, 1099.962
3386.136, 1097.263
3388.065, 1095.488
3389.993, 1094.051
3391.922, 1091.548
3393.850, 1088.896
3395.779, 1087.222
3397.707, 1085.288
3399.636, 1083.291
3401.564, 1078.950
3403.493, 1076.170
3405.421, 1072.620
3407.350, 1068.379
3409.278, 1065.491
3411.207, 1061.123
3413.135, 1057.881
3415.063, 1054.237
3416.992, 1048.942
3418.920, 1042.725
3420.849, 1035.078
3422.777, 1029.805
3424.706, 1027.496
3426.634, 1025.711
3428.563, 1023.932
3430.491, 1020.834
3432.420, 1016.738
3434.348, 1012.064
3436.277, 1006.444
3438.205, 998.8643
3440.134, 992.6159
3442.062, 988.3707
3443.990, 984.5063
3445.919, 981.3611
3447.847, 982.3350
3449.776, 978.2812
3451.704, 978.9967
3453.633, 973.5232
3455.561, 972.4948
3457.490, 970.3405
3459.418, 965.4444
3461.347, 961.7891
3463.275, 959.7260
3465.204, 957.3309
3467.132, 954.7083
3469.061, 952.1025
3470.989, 949.4167
3472.917, 945.7091
3474.846, 943.5109
3476.774, 943.4216
3478.703, 944.9394
3480.631, 943.8792
3482.560, 947.4485
3484.488, 944.9033
3486.417, 946.6653
3488.345, 949.0165
3490.274, 948.2216
3492.202, 947.2811
3494.131, 947.4952
3496.059, 946.3256
3497.988, 942.9490
3499.916, 941.5117
3501.844, 941.4319
3503.773, 942.0226
3505.701, 941.9958
3507.630, 939.6041
3509.558, 936.8959
3511.487, 933.8621
3513.415, 933.8762
3515.344, 931.3843
3517.272, 930.1909
3519.201, 928.9770
3521.129, 927.4061
3523.058, 926.0499
3524.986, 925.1494
3526.915, 923.1987
3528.843, 921.6262
3530.771, 920.5676
3532.700, 919.9281
3534.628, 918.2617
3536.557, 916.1494
3538.485, 914.7092
3540.414, 914.2078
3542.342, 915.7455
3544.271, 916.6870
3546.199, 916.8638
3548.128, 913.0500
3550.056, 912.5144
3551.985, 910.4732
3553.913, 908.2360
3555.842, 907.6669
3557.770, 906.6117
3559.698, 907.5537
3561.627, 906.5372
3563.555, 902.8201
3565.484, 899.7026
3567.412, 897.7345
3569.341, 900.2433
3571.269, 903.2531
3573.198, 902.4069
3575.126, 900.2216
3577.055, 897.2342
3578.983, 895.8114
3580.912, 896.4063
3582.840, 895.2151
3584.769, 893.4922
3586.697, 895.2109
3588.625, 896.6812
3590.554, 893.6685
3592.482, 892.3227
3594.411, 894.1412
3596.339, 894.4323
3598.268, 893.3222
3600.196, 895.1682
3602.125, 896.4883
3604.053, 891.4122
3605.982, 887.5603
3607.910, 888.7711
3609.839, 888.3406
3611.767, 885.2160
3613.696, 881.4612
3615.624, 878.5065
3617.552, 880.9396
3619.481, 882.9506
3621.409, 880.0620
3623.338, 875.7960
3625.266, 870.3446
3627.195, 868.1188
3629.123, 868.6176
3631.052, 869.3926
3632.980, 870.5608
3634.909, 873.3497
3636.837, 874.1524
3638.766, 871.6476
3640.694, 868.9063
3642.623, 866.4381
3644.551, 866.7610
3646.479, 867.7751
3648.408, 867.4379
3650.336, 864.5279
3652.265, 863.4435
3654.193, 861.8549
3656.122, 858.8150
3658.050, 859.5916
3659.979, 858.7035
3661.907, 859.6520
3663.836, 859.4850
3665.764, 859.4116
3667.693, 858.8206
3669.621, 858.4338
3671.550, 857.9965
3673.478, 855.3895
3675.406, 857.2797
3677.335, 859.1804
3679.263, 857.3235
3681.192, 855.5173
3683.120, 854.4906
3685.049, 852.5828
3686.977, 850.4020
3688.906, 850.7761
3690.834, 850.8036
3692.763, 845.8284
3694.691, 845.4783
3696.620, 846.1339
3698.548, 845.9871
3700.477, 849.3557
3702.405, 850.1257
3704.333, 852.5320
3706.262, 852.6334
3708.190, 856.1066
3710.119, 852.1581
3712.047, 850.0042
3713.976, 849.6306
3715.904, 850.7293
3717.833, 851.7842
3719.761, 852.2692
3721.690, 850.6144
3723.618, 846.4095
3725.547, 843.1923
3727.475, 841.3409
3729.404, 842.9328
3731.332, 844.4050
3733.260, 841.8764
3735.189, 841.0949
3737.117, 843.1678
3739.046, 841.7596
3740.974, 838.5323
3742.903, 838.7278
3744.831, 840.1473
3746.760, 842.4233
3748.688, 842.4935
3750.617, 840.0281
3752.545, 838.4072
3754.474, 837.8008
3756.402, 839.0299
3758.331, 840.1990
3760.259, 839.8650
3762.188, 839.9418
3764.116, 840.4631
3766.044, 840.3455
3767.973, 840.0730
3769.901, 841.2513
3771.830, 841.6307
3773.758, 839.3196
3775.687, 838.5915
3777.615, 839.5121
3779.544, 841.0009
3781.472, 841.9673
3783.401, 840.9296
3785.329, 838.9128
3787.258, 838.9200
3789.186, 837.9103
3791.115, 837.3198
3793.043, 837.5676
3794.971, 837.2499
3796.900, 836.9409
3798.828, 836.6872
3800.757, 836.4431
3802.685, 835.7106
3804.614, 835.6836
3806.542, 834.9810
3808.471, 834.9464
3810.399, 836.5145
3812.328, 837.1642
3814.256, 836.5567
3816.185, 835.4294
3818.113, 834.4203
3820.042, 834.9191
3821.970, 834.7805
3823.898, 833.3456
3825.827, 832.5453
3827.755, 832.2462
3829.684, 831.3147
3831.612, 830.3536
3833.541, 829.4370
3835.469, 829.5437
3837.398, 830.7727
3839.326, 832.7302
3841.255, 833.9580
3843.183, 830.7834
3845.112, 827.9844
3847.040, 828.2272
3848.969, 827.4414
3850.897, 825.9935
3852.825, 826.6749
3854.754, 828.2719
3856.682, 830.1794
3858.611, 831.3004
3860.539, 831.4832
3862.468, 829.0880
3864.396, 829.8142
3866.325, 827.4490
3868.253, 828.8399
3870.182, 828.6984
3872.110, 828.1710
3874.039, 827.5765
3875.967, 828.7424
3877.896, 829.9830
3879.824, 829.8232
3881.752, 828.9448
3883.681, 829.5305
3885.609, 827.9229
3887.538, 829.0677
3889.466, 828.1827
3891.395, 827.1133
3893.323, 826.2969
3895.252, 827.2499
3897.180, 829.1823
3899.109, 829.6710
3901.037, 829.2491
3902.966, 827.6569
3904.894, 826.1423
3906.823, 824.7184
3908.751, 824.3911
3910.679, 824.6834
3912.608, 825.0385
3914.536, 825.2273
3916.465, 824.5323
3918.393, 824.2503
3920.322, 824.7064
3922.250, 824.7894
3924.179, 825.2088
3926.107, 824.6760
3928.036, 824.2708
3929.964, 823.6082
3931.893, 822.8004
3933.821, 822.5780
3935.750, 821.9484
3937.678, 821.1594
3939.606, 819.9645
3941.535, 819.1241
3943.463, 819.2508
3945.392, 820.0133
3947.320, 820.3007
3949.249, 820.2722
3951.177, 820.9962
3953.106, 821.5291
3955.034, 820.3098
3956.963, 819.1943
3958.891, 819.2662
3960.820, 819.5266
3962.748, 819.5687
3964.677, 818.5756
3966.605, 817.4669
3968.533, 816.6315
3970.462, 816.3760
3972.390, 816.4550
3974.319, 816.1332
3976.247, 815.2228
3978.176, 813.2615
3980.104, 812.5370
3982.033, 813.0582
3983.961, 813.7306
3985.890, 813.7883
3987.818, 812.1150
3989.747, 811.2492
3991.675, 811.6984
3993.604, 811.6779
3995.532, 810.6326
3997.460, 809.1862
3999.389, 809.8014
4001.317, 809.4327
4003.246, 808.9519
4005.174, 810.2311
4007.103, 808.9229
4009.031, 809.1865
4010.960, 810.4242
4012.888, 809.8397
4014.817, 808.3478
4016.745, 808.8123
4018.674, 809.5403
4020.602, 809.9715
4022.531, 810.4371
4024.459, 810.1273
4026.387, 807.5545
4028.316, 805.7325
4030.244, 804.8265
4032.173, 805.9728
4034.101, 807.3096
4036.030, 807.9836
4037.958, 808.3534
4039.887, 804.5902
4041.815, 802.4935
4043.744, 803.3400
4045.672, 803.9295
4047.601, 805.0269
4049.529, 806.7661
4051.458, 806.8347
4053.386, 805.8058
4055.314, 803.7195
4057.243, 801.5934
4059.171, 801.9556
4061.100, 802.3263
4063.028, 803.0146
4064.957, 804.4365
4066.885, 804.2231
4068.814, 800.3672
4070.742, 799.8879
4072.671, 801.9053
4074.599, 801.8273
4076.528, 802.6743
4078.456, 801.8661
4080.385, 798.4109
4082.313, 796.1284
4084.241, 797.9141
4086.170, 799.5363
4088.098, 798.2375
4090.027, 796.9756
4091.955, 796.5289
4093.884, 796.1920
4095.812, 795.2806
4097.741, 794.3370
4099.669, 794.9973
4101.598, 795.3705
4103.526, 791.9447
4105.455, 789.3613
4107.383, 791.4050
4109.312, 793.6129
4111.240, 792.1839
4113.168, 791.6003
4115.097, 792.9987
4117.025, 792.9798
4118.954, 791.5311
4120.882, 791.2957
4122.811, 791.2160
4124.739, 789.2906
4126.668, 786.5652
4128.596, 785.3226
4130.525, 786.3418
4132.453, 787.4838
4134.382, 784.1968
4136.310, 780.8954
4138.239, 781.7087
4140.167, 781.3109
4142.096, 779.6076
4144.024, 779.1235
4145.953, 779.7766
4147.881, 781.1754
4149.810, 780.4843
4151.738, 779.7922
4153.667, 780.2200
4155.595, 779.8539
4157.523, 778.8923
4159.452, 778.7103
4161.380, 777.4436
4163.309, 773.4008
4165.237, 771.8816
4167.166, 774.1188
4169.094, 776.4215
4171.022, 777.6158
4172.951, 777.4794
4174.879, 777.4487
4176.808, 775.2598
4178.736, 775.0052
4180.665, 772.7598
4182.593, 770.6896
4184.522, 770.3029
4186.450, 772.0872
4188.379, 772.3806
4190.307, 771.2356
4192.236, 769.4340
4194.164, 769.4097
4196.093, 771.0577
4198.021, 769.0809
4199.950, 766.7598
4201.878, 769.2355
4203.807, 768.4461
4205.735, 763.9020
4207.664, 762.3905
4209.592, 762.7507
4211.521, 764.3287
4213.449, 765.8716
4215.377, 766.9152
4217.306, 764.0755
4219.234, 761.1656
4221.163, 761.3012
4223.091, 760.8408
4225.020, 759.5413
4226.948, 757.9014
4228.876, 756.9840
4230.805, 757.6326
4232.733, 757.9097
4234.662, 757.7304
4236.590, 757.3055
4238.519, 757.3996
4240.447, 758.5864
4242.376, 757.7127
4244.304, 756.0450
4246.233, 756.8181
4248.161, 758.2384
4250.090, 759.9828
4252.018, 758.5313
4253.947, 756.1404
4255.875, 756.3517
4257.804, 755.2136
4259.732, 751.9312
4261.661, 753.4203
4263.589, 754.8187
4265.518, 750.4495
4267.446, 749.5878
4269.375, 752.5617
4271.303, 754.0861
4273.231, 754.5029
4275.160, 753.9454
4277.088, 752.1649
4279.017, 749.7841
4280.945, 748.2361
4282.874, 747.7045
4284.802, 748.5793
4286.730, 746.1808
4288.659, 746.7797
4290.587, 744.8775
4292.516, 746.7042
4294.444, 747.7799
4296.373, 748.4504
4298.301, 748.4696
4300.230, 746.9941
4302.158, 747.4893
4304.087, 746.6130
4306.015, 747.2745
4307.944, 745.2861
4309.872, 746.1055
4311.801, 745.1540
4313.729, 743.4313
4315.658, 744.0403
4317.586, 744.5678
4319.515, 744.3813
4321.443, 746.2492
4323.372, 746.7070
4325.300, 747.2056
4327.229, 746.9145
4329.157, 747.0737
4331.085, 745.8177
4333.014, 743.2289
4334.942, 743.7839
4336.871, 742.1857
4338.799, 739.3580
4340.728, 738.3891
4342.656, 737.6225
4344.584, 736.5978
4346.513, 736.6079
4348.441, 733.2618
4350.370, 736.5703
4352.298, 738.5285
4354.227, 738.2428
4356.155, 734.1533
4358.084, 731.4930
4360.012, 733.7272
4361.941, 735.0896
4363.869, 735.6971
4365.798, 736.7928
4367.726, 735.6813
4369.655, 731.7628
4371.583, 729.8576
4373.512, 730.5154
4375.440, 736.6257
4377.369, 738.0095
4379.297, 735.6373
4381.226, 734.4257
4383.154, 732.5558
4385.083, 731.9562
4387.011, 729.1111
4388.939, 730.9705
4390.868, 732.8879
4392.796, 732.1004
4394.725, 728.8741
4396.653, 724.8322
4398.582, 723.7660
4400.510, 727.5953
4402.438, 729.4516
4404.367, 729.8968
4406.295, 730.4163
4408.224, 729.5739
4410.152, 730.0594
4412.081, 728.4729
4414.009, 729.2328
4415.938, 728.5696
4417.866, 726.3196
4419.795, 723.9470
4421.723, 724.2230
4423.652, 724.3809
4425.580, 723.8949
4427.509, 723.2692
4429.437, 723.2892
4431.366, 722.0648
4433.294, 723.4940
4435.223, 720.0383
4437.151, 720.8356
4439.080, 720.3873
4441.008, 717.7926
4442.937, 719.1075
4444.865, 721.1219
4446.793, 721.9574
4448.722, 721.6036
4450.650, 720.4547
4452.579, 718.4557
4454.507, 718.5916
4456.436, 720.6541
4458.364, 719.2902
4460.292, 716.7511
4462.221, 713.7819
4464.149, 714.8835
4466.078, 717.2390
4468.006, 714.9465
4469.935, 714.8787
4471.863, 717.3466
4473.792, 715.4764
4475.720, 713.2722
4477.649, 712.7293
4479.577, 711.7524
4481.506, 711.6085
4483.434, 714.6180
4485.363, 716.6332
4487.291, 716.6508
4489.220, 711.7370
4491.148, 708.9598
4493.077, 711.0140
4495.005, 712.2836
4496.934, 712.6376
4498.862, 711.6614
4500.791, 711.1456
4502.719, 711.1218
4504.647, 711.5841
4506.576, 711.8253
4508.504, 711.6451
4510.433, 710.1558
4512.361, 709.1310
4514.290, 709.9003
4516.218, 707.8470
4518.146, 705.1713
4520.075, 705.9406
4522.003, 705.7573
4523.932, 704.4760
4525.860, 705.4599
4527.789, 704.9632
4529.717, 700.9436
4531.646, 699.3038
4533.574, 699.4905
4535.503, 697.9606
4537.431, 700.7717
4539.360, 698.1954
4541.288, 699.5868
4543.217, 700.5271
4545.145, 700.0280
4547.074, 697.3163
4549.002, 695.4001
4550.931, 696.0579
4552.859, 695.8770
4554.788, 695.6251
4556.716, 696.4376
4558.645, 696.4116
4560.573, 696.1509
4562.501, 697.9821
4564.430, 698.7894
4566.358, 698.2863
4568.287, 699.6219
4570.215, 699.8434
4572.144, 697.3612
4574.072, 696.2414
4576.000, 696.1853
4577.929, 697.1375
4579.857, 697.1729
4581.786, 696.6787
4583.714, 697.4520
4585.643, 696.3358
4587.571, 693.1612
4589.500, 689.4044
4591.428, 687.8766
4593.357, 689.5953
4595.285, 684.9004
4597.214, 680.4470
4599.142, 683.5261
4601.071, 686.0170
4602.999, 686.8272
4604.928, 683.7910
4606.856, 682.8306
4608.785, 683.7867
4610.713, 682.3723
4612.642, 681.2332
4614.570, 680.9913
4616.499, 678.7931
4618.427, 677.1445
4620.355, 677.7010
4622.284, 676.0097
4624.212, 676.1619
4626.141, 676.0857
4628.069, 676.0248
4629.998, 679.2654
4631.926, 679.1551
4633.854, 677.2393
4635.783, 674.5506
4637.711, 674.5968
4639.640, 674.0355
4641.568, 671.7897
4643.497, 669.8517
4645.425, 669.9617
4647.354, 673.2040
4649.282, 672.7031
4651.211, 670.6219
4653.139, 668.7921
4655.068, 669.2579
4656.996, 670.4507
4658.925, 669.7389
4660.853, 667.2693
4662.782, 663.9961
4664.710, 662.8225
4666.639, 661.9099
4668.567, 661.1131
4670.496, 663.5851
4672.424, 665.2120
4674.353, 663.7672
4676.281, 664.3727
4678.209, 664.9661
4680.138, 664.2491
4682.066, 660.2211
4683.995, 656.8281
4685.923, 658.8043
4687.852, 662.2898
4689.780, 664.7490
4691.708, 660.7083
4693.637, 658.9161
4695.565, 659.6749
4697.494, 660.1879
4699.422, 660.1572
4701.351, 659.4951
4703.279, 657.8699
4705.208, 655.5352
4707.136, 652.5082
4709.065, 652.7131
4710.993, 653.8533
4712.922, 654.7385
4714.850, 651.0683
4716.779, 647.7957
4718.707, 649.2062
4720.636, 653.3519
4722.564, 656.3625
4724.493, 652.9425
4726.421, 649.2701
4728.350, 647.1861
4730.278, 646.5151
4732.207, 645.7442
4734.135, 647.0145
4736.063, 646.6550
4737.992, 647.0138
4739.920, 647.4939
4741.849, 647.6443
4743.777, 646.3055
4745.706, 643.7238
4747.634, 642.6157
4749.563, 642.7900
4751.491, 641.4679
4753.419, 642.5169
4755.348, 640.9620
4757.276, 641.0775
4759.205, 641.4247
4761.133, 640.9957
4763.062, 637.3856
4764.990, 644.9621
4766.919, 652.8201
4768.847, 650.5994
4770.776, 643.3714
4772.704, 637.1752
4774.633, 640.2969
4776.561, 638.5966
4778.490, 635.1946
4780.418, 637.4678
4782.347, 638.3359
4784.275, 637.8232
4786.204, 637.6078
4788.132, 636.6396
4790.061, 635.2500
4791.989, 635.0369
4793.917, 634.6459
4795.846, 633.9609
4797.774, 633.9371
4799.703, 631.9855
4801.631, 628.4163
4803.560, 626.5964
4805.488, 627.0779
4807.417, 629.1727
4809.345, 624.8887
4811.273, 624.5762
4813.202, 630.1645
4815.130, 630.3544
4817.059, 629.8183
4818.987, 630.4308
4820.916, 628.0745
4822.844, 626.6629
4824.773, 627.6274
4826.701, 628.9621
4828.630, 628.7964
4830.558, 626.0748
4832.487, 626.9324
4834.415, 625.9918
4836.344, 620.5304
4838.272, 620.0239
4840.201, 620.6149
4842.129, 619.3578
4844.058, 621.7115
4845.986, 622.8563
4847.915, 619.5663
4849.843, 619.1285
4851.771, 619.2806
4853.700, 617.7590
4855.628, 620.9509
4857.557, 621.6605
4859.485, 614.0204
4861.414, 612.2087
4863.342, 614.3062
4865.271, 619.0596
4867.199, 616.7610
4869.127, 612.3464
4871.056, 609.7424
4872.984, 609.3678
4874.913, 610.6512
4876.841, 613.4927
4878.770, 612.7272
4880.698, 611.3093
4882.627, 612.0443
4884.555, 610.4348
4886.484, 608.9311
4888.412, 609.8684
4890.341, 610.6188
4892.269, 611.1500
4894.198, 612.1076
4896.126, 607.3904
4898.055, 603.4036
4899.983, 605.3570
4901.912, 602.4236
4903.840, 600.1641
4905.769, 604.7555
4907.697, 604.3669
4909.625, 602.5417
4911.554, 601.7045
4913.482, 602.5190
4915.411, 602.8439
4917.339, 600.7892
4919.268, 600.6508
4921.196, 601.2295
4923.125, 601.7111
4925.053, 597.1935
4926.981, 594.4180
4928.910, 597.3715
4930.838, 597.2929
4932.767, 595.3260
4934.695, 592.4377
4936.624, 593.4693
4938.552, 596.1036
4940.481, 598.8205
4942.409, 595.5458
4944.338, 592.0303
4946.266, 590.4943
4948.195, 591.7466
4950.123, 591.8997
4952.052, 590.1336
4953.980, 587.3987
4955.909, 586.5247
4957.837, 587.3979
4959.766, 585.8879
4961.694, 585.3317
4963.623, 586.0593
4965.551, 587.6027
4967.479, 587.2123
4969.408, 585.5270
4971.336, 585.1747
4973.265, 584.3873
4975.193, 583.7908
4977.122, 585.9090
4979.050, 583.3135
4980.979, 579.5236
4982.907, 581.1703
4984.835, 580.2150
4986.764, 578.7947
4988.692, 579.9542
4990.621, 578.0692
4992.549, 575.1360
4994.478, 572.6892
4996.406, 573.9291
4998.335, 577.3088
5000.263, 581.7216
5002.192, 580.6838
5004.120, 577.4473
5006.049, 573.9450
5007.977, 572.9401
5009.906, 570.7315
5011.834, 566.9617
5013.763, 570.3577
5015.691, 573.9843
5017.620, 575.3900
5019.548, 571.9423
5021.477, 568.9324
5023.405, 567.3174
5025.333, 566.6042
5027.262, 567.1923
5029.190, 568.7444
5031.119, 571.5156
5033.047, 568.0087
5034.976, 563.7469
5036.904, 566.7985
5038.833, 564.9367
5040.761, 561.7064
5042.689, 559.9806
5044.618, 562.5408
5046.546, 565.2509
5048.475, 565.8110
5050.403, 562.9068
5052.332, 560.1551
5054.260, 558.6282
5056.189, 556.4572
5058.117, 554.5891
5060.046, 553.7911
5061.974, 556.5448
5063.903, 556.5237
5065.831, 554.9543
5067.760, 556.0086
5069.688, 554.1107
5071.617, 551.6920
5073.545, 552.0105
5075.474, 551.5480
5077.402, 551.3826
5079.331, 552.7332
5081.259, 550.4803
5083.188, 549.2285
5085.116, 550.4404
5087.044, 551.4350
5088.973, 553.3290
5090.901, 555.2031
5092.830, 552.4008
5094.758, 549.8074
5096.687, 547.8716
5098.615, 545.5815
5100.543, 545.2293
5102.472, 545.5881
5104.400, 544.9995
5106.329, 545.6516
5108.257, 546.4690
5110.186, 546.7266
5112.114, 545.0539
5114.043, 543.1446
5115.971, 541.7736
5117.900, 541.9702
5119.828, 540.3505
5121.757, 537.8372
5123.685, 537.5077
5125.614, 541.6041
5127.542, 545.2297
5129.471, 542.2372
5131.399, 542.1057
5133.328, 541.4810
5135.256, 537.6107
5137.185, 535.2277
5139.113, 535.6745
5141.042, 538.3458
5142.970, 537.0438
5144.898, 536.5385
5146.827, 536.7997
5148.755, 535.6002
5150.684, 533.9937
5152.612, 532.6915
5154.541, 532.0048
5156.469, 535.4012
5158.397, 535.2547
5160.326, 528.7261
5162.254, 530.0258
5164.183, 530.1757
5166.111, 527.4910
5168.040, 526.3071
5169.968, 527.6284
5171.897, 529.4941
5173.825, 528.7779
5175.754, 528.0189
5177.682, 527.8815
5179.611, 528.6626
5181.539, 528.5781
5183.468, 529.7385
5185.396, 531.4848
5187.325, 522.8489
5189.253, 523.0256
5191.182, 527.6605
5193.110, 521.5898
5195.039, 520.2044
5196.967, 520.8559
5198.896, 519.8987
5200.824, 520.1847
5202.752, 518.9634
5204.681, 516.1824
5206.609, 518.8906
5208.538, 520.0814
5210.466, 519.1896
5212.395, 517.2628
5214.323, 516.1326
5216.251, 516.4434
5218.180, 518.9016
5220.108, 516.5472
5222.037, 514.4434
5223.965, 513.8600
5225.894, 511.0697
5227.822, 511.0025
5229.751, 513.1051
5231.679, 516.4250
5233.608, 513.6161
5235.536, 510.0310
5237.465, 509.4240
5239.393, 511.4970
5241.322, 511.0722
5243.250, 508.3646
5245.179, 509.0796
5247.107, 507.9033
5249.036, 506.2914
5250.964, 506.8829
5252.893, 506.2046
5254.821, 506.5350
5256.750, 508.0824
5258.678, 504.3127
5260.606, 503.3579
5262.535, 504.9464
5264.463, 505.5405
5266.392, 504.9399
5268.320, 503.3436
5270.249, 500.9326
5272.177, 500.2730
5274.105, 500.0308
5276.034, 499.6225
5277.962, 498.1772
5279.891, 499.2509
5281.819, 499.9183
5283.748, 495.7819
5285.676, 496.1549
5287.605, 496.1914
5289.533, 494.6306
5291.462, 495.2147
5293.390, 493.5412
5295.319, 491.2856
5297.247, 491.4422
5299.176, 494.3906
5301.104, 494.6825
5303.033, 490.4185
5304.961, 488.1444
5306.890, 491.6853
5308.818, 495.8287
5310.747, 491.0589
5312.675, 488.4984
5314.604, 487.0844
5316.532, 485.7091
5318.460, 485.9025
5320.389, 487.8428
5322.317, 489.3984
5324.246, 486.3998
5326.174, 484.8035
5328.103, 485.2911
5330.031, 486.9955
5331.959, 481.9915
5333.888, 479.6485
5335.816, 480.2298
5337.745, 479.7384
5339.673, 478.3271
5341.602, 476.4741
5343.530, 474.5863
5345.459, 473.5219
5347.387, 475.0988
5349.316, 477.4292
5351.244, 476.7676
5353.173, 474.1335
5355.101, 473.3776
5357.030, 476.1189
5358.958, 475.7469
5360.887, 473.6142
5362.815, 471.7917
5364.744, 472.8707
5366.672, 473.3808
5368.601, 472.7550
5370.529, 471.2173
5372.458, 471.3729
5374.386, 467.6630
5376.314, 463.8545
5378.243, 466.1692
5380.171, 469.3633
5382.100, 467.1735
5384.028, 461.0279
5385.957, 465.6311
5387.885, 466.4620
5389.813, 464.5018
5391.742, 462.3874
5393.670, 465.0905
5395.599, 465.7867
5397.527, 463.3705
5399.456, 460.5154
5401.384, 458.2632
5403.313, 458.2415
5405.241, 460.7198
5407.170, 460.7977
5409.098, 459.2494
5411.027, 457.6239
5412.955, 458.5899
5414.884, 455.3593
5416.812, 453.3869
5418.741, 454.1579
5420.669, 452.7190
5422.598, 453.9568
5424.526, 454.1397
5426.455, 449.7668
5428.383, 448.6974
5430.312, 449.3983
5432.240, 450.2617
5434.168, 448.9339
5436.097, 448.3964
5438.025, 448.8531
5439.954, 450.0125
5441.882, 451.0522
5443.811, 447.9102
5445.739, 444.7604
5447.667, 446.3332
5449.596, 445.9049
5451.524, 446.3290
5453.453, 447.3097
5455.381, 445.7093
5457.310, 443.8015
5459.238, 441.8268
5461.167, 440.3033
5463.095, 443.1573
5465.024, 441.4174
5466.952, 438.6733
5468.881, 439.5783
5470.809, 435.4595
5472.738, 433.4218
5474.666, 434.1469
5476.595, 434.3784
5478.523, 437.4586
5480.452, 437.2769
5482.380, 432.9706
5484.309, 433.8449
5486.237, 433.8105
5488.166, 432.6716
5490.094, 431.2320
5492.022, 430.8728
5493.951, 431.5041
5495.879, 431.0211
5497.808, 426.3669
5499.736, 425.7409
##END=



