##NAMES=Calciouranoite
##RRUFFID=R070022
##IDEAL CHEMISTRY=(Ca,Ba,Pb,K,Na)U_2_O_7_·5H_2_O
##LOCALITY=Oktyabr'skoye Mo-U deposit,  east Transbaikal region, Russia
##OWNER=RRUFF
##SOURCE=Michael Scott
##DESCRIPTION=Cryptocrystalline looking, greasy yellow blotches, amorphous
##STATUS=The identification of this mineral is not yet confirmed
##URL=https://www.rruff.net/odr/rruff_sample/R070022
##FILETYPE=Raman RAW
##RAMAN WAVELENGTH=532

203.9302, 47967.43
205.8587, 48436.87
207.7871, 48909.34
209.7156, 49326.75
211.6441, 49678.64
213.5726, 49990.25
215.5010, 50268.52
217.4295, 50506.39
219.3580, 50734.24
221.2864, 50965.47
223.2149, 51179.23
225.1434, 51356.42
227.0718, 51447.02
229.0003, 51550.46
230.9288, 51706.32
232.8572, 51913.49
234.7857, 52081.53
236.7142, 52162.96
238.6426, 52214.51
240.5711, 52288.36
242.4996, 52426.44
244.4280, 52546.99
246.3565, 52615.05
248.2850, 52642.46
250.2134, 52701.68
252.1419, 52823.81
254.0704, 52968.42
255.9988, 53111.38
257.9273, 53266.80
259.8557, 53395.46
261.7842, 53461.32
263.7127, 53471.13
265.6411, 53535.45
267.5696, 53690.69
269.4981, 53868.72
271.4265, 54028.12
273.3550, 54168.48
275.2835, 54304.02
277.2119, 54445.62
279.1404, 54585.46
281.0689, 54700.71
282.9973, 54767.41
284.9258, 54835.42
286.8543, 54930.21
288.7827, 55060.09
290.7112, 55177.19
292.6397, 55267.18
294.5681, 55342.95
296.4966, 55429.14
298.4251, 55527.40
300.3535, 55632.95
302.2820, 55745.28
304.2105, 55867.66
306.1389, 55984.39
308.0674, 56104.99
309.9959, 56214.64
311.9243, 56298.02
313.8528, 56339.93
315.7813, 56384.62
317.7097, 56442.43
319.6382, 56517.98
321.5667, 56601.83
323.4951, 56700.18
325.4236, 56800.96
327.3521, 56900.38
329.2805, 57003.75
331.2090, 57089.10
333.1375, 57150.74
335.0660, 57198.00
336.9944, 57238.54
338.9229, 57256.09
340.8514, 57286.65
342.7798, 57349.38
344.7083, 57464.54
346.6368, 57559.83
348.5652, 57607.64
350.4937, 57652.26
352.4222, 57737.56
354.3506, 57894.36
356.2791, 58036.82
358.2076, 58127.40
360.1360, 58161.88
362.0645, 58239.77
363.9930, 58409.12
365.9214, 58588.30
367.8499, 58715.87
369.7784, 58756.45
371.7068, 58825.86
373.6353, 58955.68
375.5638, 59119.48
377.4922, 59262.57
379.4207, 59381.69
381.3492, 59483.70
383.2776, 59569.94
385.2061, 59630.68
387.1346, 59704.58
389.0630, 59791.95
390.9915, 59911.21
392.9200, 60040.86
394.8484, 60184.34
396.7769, 60318.83
398.7054, 60447.68
400.6339, 60565.23
402.5623, 60675.22
404.4908, 60790.54
406.4193, 60898.38
408.3477, 60969.68
410.2762, 60993.84
412.2047, 61026.14
414.1331, 61071.29
416.0616, 61141.00
417.9901, 61237.02
419.9185, 61366.51
421.8470, 61472.08
423.7755, 61542.48
425.7039, 61591.66
427.6324, 61655.26
429.5609, 61740.84
431.4893, 61822.87
433.4178, 61887.67
435.3463, 61934.96
437.2747, 62010.74
439.2032, 62157.56
441.1317, 62333.15
443.0601, 62472.36
444.9886, 62542.46
446.9171, 62617.66
448.8455, 62724.14
450.7740, 62841.76
452.7025, 62955.67
454.6309, 63091.15
456.5594, 63226.24
458.4879, 63333.68
460.4163, 63410.31
462.3448, 63497.15
464.2733, 63591.02
466.2017, 63699.28
468.1302, 63827.67
470.0587, 64003.69
471.9871, 64146.79
473.9156, 64261.64
475.8441, 64367.70
477.7725, 64461.02
479.7010, 64489.15
481.6295, 64524.25
483.5579, 64644.42
485.4864, 64856.95
487.4149, 64992.00
489.3433, 65012.44
491.2718, 65019.35
493.2003, 65024.76
495.1287, 65005.13
497.0572, 65013.37
498.9857, 65140.60
500.9141, 65329.27
502.8426, 65487.34
504.7711, 65581.99
506.6995, 65660.84
508.6280, 65773.49
510.5565, 65909.05
512.4849, 66016.91
514.4134, 66033.08
516.3419, 66056.84
518.2703, 66106.59
520.1988, 66181.09
522.1273, 66284.36
524.0557, 66457.88
525.9842, 66620.43
527.9127, 66725.63
529.8411, 66737.01
531.7696, 66795.88
533.6981, 66908.02
535.6265, 67027.57
537.5550, 67114.32
539.4835, 67183.25
541.4119, 67290.59
543.3404, 67429.74
545.2689, 67582.30
547.1973, 67731.70
549.1258, 67911.70
551.0543, 68035.14
552.9827, 68041.00
554.9112, 67969.00
556.8397, 67965.17
558.7681, 68097.73
560.6966, 68234.67
562.6251, 68316.54
564.5535, 68362.76
566.4820, 68451.55
568.4105, 68542.84
570.3389, 68615.66
572.2674, 68674.75
574.1959, 68772.83
576.1243, 68869.20
578.0528, 68946.55
579.9813, 69008.30
581.9097, 69074.61
583.8382, 69126.81
585.7667, 69189.06
587.6951, 69277.81
589.6236, 69382.27
591.5521, 69457.96
593.4805, 69484.83
595.4090, 69546.20
597.3375, 69696.77
599.2659, 69892.59
601.1944, 70022.48
603.1229, 70030.52
605.0513, 70059.95
606.9798, 70192.66
608.9083, 70464.84
610.8367, 70643.31
612.7652, 70709.25
614.6937, 70741.12
616.6221, 70783.99
618.5506, 70788.52
620.4791, 70835.17
622.4075, 70969.82
624.3360, 71140.81
626.2645, 71289.35
628.1929, 71438.66
630.1214, 71547.84
632.0499, 71576.67
633.9783, 71586.56
635.9068, 71644.54
637.8353, 71758.14
639.7637, 71866.59
641.6922, 71940.91
643.6207, 71991.48
645.5491, 72087.09
647.4776, 72270.34
649.4061, 72438.13
651.3345, 72529.69
653.2630, 72570.17
655.1915, 72642.71
657.1199, 72788.69
659.0484, 72927.09
660.9769, 73015.27
662.9053, 73056.29
664.8338, 73138.93
666.7623, 73301.15
668.6907, 73463.26
670.6192, 73579.52
672.5477, 73659.09
674.4761, 73752.39
676.4046, 73851.98
678.3331, 73941.56
680.2615, 74010.24
682.1900, 74086.29
684.1185, 74190.66
686.0469, 74351.06
687.9754, 74513.77
689.9039, 74654.40
691.8323, 74752.98
693.7608, 74861.46
695.6893, 74987.34
697.6177, 75121.20
699.5462, 75256.86
701.4747, 75393.95
703.4031, 75510.05
705.3316, 75560.23
707.2601, 75617.34
709.1885, 75742.85
711.1170, 75972.20
713.0455, 76176.16
714.9739, 76331.59
716.9024, 76474.87
718.8309, 76632.25
720.7593, 76808.10
722.6878, 76975.41
724.6163, 77090.32
726.5447, 77209.50
728.4732, 77422.76
730.4017, 77796.99
732.3301, 78150.34
734.2586, 78426.77
736.1871, 78672.51
738.1155, 78962.06
740.0440, 79302.73
741.9725, 79688.95
743.9009, 80123.17
745.8294, 80585.67
747.7579, 81059.84
749.6863, 81538.35
751.6148, 82048.85
753.5433, 82613.71
755.4717, 83212.48
757.4002, 83804.55
759.3287, 84363.27
761.2571, 84959.22
763.1856, 85617.06
765.1141, 86328.32
767.0425, 87056.66
768.9710, 87806.23
770.8995, 88562.10
772.8279, 89300.35
774.7564, 90048.37
776.6849, 90867.24
778.6133, 91813.97
780.5418, 92746.52
782.4703, 93634.91
784.3987, 94503.21
786.3272, 95342.52
788.2557, 96175.13
790.1841, 96944.11
792.1126, 97662.95
794.0411, 98307.84
795.9695, 98793.38
797.8980, 99089.51
799.8265, 99249.04
801.7549, 99287.29
803.6834, 99197.20
805.6119, 98926.55
807.5403, 98439.98
809.4688, 97827.94
811.3973, 97129.27
813.3257, 96350.49
815.2542, 95487.37
817.1827, 94478.83
819.1111, 93467.34
821.0396, 92480.44
822.9681, 91525.64
824.8965, 90668.41
826.8250, 89925.21
828.7535, 89204.60
830.6819, 88455.20
832.6104, 87776.38
834.5389, 87207.08
836.4673, 86785.14
838.3958, 86380.58
840.3243, 85950.53
842.2527, 85524.31
844.1812, 85181.41
846.1097, 84952.17
848.0381, 84751.93
849.9666, 84530.26
851.8951, 84308.77
853.8235, 84141.66
855.7520, 84056.20
857.6805, 83978.30
859.6089, 83860.18
861.5374, 83694.27
863.4659, 83592.59
865.3943, 83636.13
867.3228, 83748.76
869.2513, 83865.73
871.1797, 83868.82
873.1082, 83858.07
875.0367, 83844.89
876.9651, 83870.24
878.8936, 83939.15
880.8221, 84005.37
882.7505, 84068.84
884.6790, 84135.48
886.6075, 84184.12
888.5359, 84172.56
890.4644, 84182.16
892.3929, 84268.24
894.3214, 84400.03
896.2498, 84509.53
898.1783, 84599.17
900.1068, 84706.35
902.0352, 84773.31
903.9637, 84771.23
905.8922, 84771.92
907.8206, 84809.74
909.7491, 84885.02
911.6776, 84991.59
913.6060, 85139.46
915.5345, 85291.04
917.4630, 85425.02
919.3914, 85523.05
921.3199, 85629.98
923.2484, 85759.71
925.1768, 85890.66
927.1053, 86006.88
929.0338, 86120.77
930.9622, 86212.14
932.8907, 86301.69
934.8192, 86457.53
936.7476, 86694.41
938.6761, 86917.24
940.6046, 87044.77
942.5330, 87131.49
944.4615, 87227.94
946.3900, 87350.57
948.3184, 87501.58
950.2469, 87667.10
952.1754, 87809.80
954.1038, 87935.45
956.0323, 88074.55
957.9608, 88239.46
959.8892, 88388.91
961.8177, 88464.11
963.7462, 88538.66
965.6746, 88641.09
967.6031, 88758.61
969.5316, 88839.02
971.4600, 88881.68
973.3885, 88900.00
975.3170, 88907.34
977.2454, 88927.77
979.1739, 88973.28
981.1024, 89012.50
983.0308, 88977.47
984.9593, 88909.03
986.8878, 88862.46
988.8162, 88867.34
990.7447, 88890.00
992.6732, 88930.64
994.6016, 88926.97
996.5301, 88852.48
998.4586, 88773.71
1000.387, 88802.28
1002.315, 88906.13
1004.244, 88958.95
1006.172, 88974.66
1008.101, 88996.21
1010.029, 89031.84
1011.958, 89044.19
1013.886, 89089.40
1015.815, 89174.24
1017.743, 89267.54
1019.672, 89349.41
1021.600, 89414.67
1023.529, 89477.70
1025.457, 89575.96
1027.386, 89676.36
1029.314, 89751.12
1031.243, 89794.41
1033.171, 89817.27
1035.099, 89851.10
1037.028, 89923.72
1038.956, 90033.22
1040.885, 90149.48
1042.813, 90266.09
1044.742, 90341.82
1046.670, 90397.24
1048.599, 90449.19
1050.527, 90500.48
1052.456, 90536.48
1054.384, 90602.09
1056.313, 90710.95
1058.241, 90838.25
1060.170, 90977.54
1062.098, 91128.86
1064.026, 91262.27
1065.955, 91349.81
1067.883, 91441.38
1069.812, 91562.16
1071.740, 91710.85
1073.669, 91843.56
1075.597, 91948.01
1077.526, 92046.04
1079.454, 92145.63
1081.383, 92234.41
1083.311, 92296.23
1085.240, 92323.86
1087.168, 92349.75
1089.097, 92379.10
1091.025, 92413.45
1092.953, 92489.27
1094.882, 92628.30
1096.810, 92789.59
1098.739, 92942.23
1100.667, 93079.48
1102.596, 93203.80
1104.524, 93301.53
1106.453, 93378.44
1108.381, 93437.41
1110.310, 93508.38
1112.238, 93588.09
1114.167, 93687.03
1116.095, 93791.16
1118.024, 93889.56
1119.952, 93985.72
1121.880, 94103.23
1123.809, 94252.42
1125.737, 94382.59
1127.666, 94478.17
1129.594, 94569.72
1131.523, 94668.93
1133.451, 94775.63
1135.380, 94903.88
1137.308, 95074.62
1139.237, 95221.59
1141.165, 95312.35
1143.094, 95374.55
1145.022, 95441.13
1146.951, 95518.59
1148.879, 95613.38
1150.807, 95741.73
1152.736, 95858.33
1154.664, 95915.42
1156.593, 95959.55
1158.521, 96076.50
1160.450, 96290.24
1162.378, 96487.03
1164.307, 96646.59
1166.235, 96754.47
1168.164, 96805.50
1170.092, 96817.93
1172.021, 96874.55
1173.949, 96997.97
1175.878, 97132.48
1177.806, 97293.25
1179.734, 97460.52
1181.663, 97591.75
1183.591, 97670.84
1185.520, 97753.34
1187.448, 97839.36
1189.377, 97938.99
1191.305, 98059.27
1193.234, 98191.12
1195.162, 98299.66
1197.091, 98351.59
1199.019, 98437.67
1200.948, 98631.86
1202.876, 98865.98
1204.805, 99011.05
1206.733, 98993.03
1208.661, 99061.96
1210.590, 99321.34
1212.518, 99589.21
1214.447, 99745.18
1216.375, 99794.56
1218.304, 99857.34
1220.232, 99940.69
1222.161, 100017.9
1224.089, 100061.9
1226.018, 100113.2
1227.946, 100206.3
1229.875, 100332.1
1231.803, 100475.4
1233.732, 100665.3
1235.660, 100861.8
1237.589, 101031.8
1239.517, 101150.7
1241.445, 101243.1
1243.374, 101285.8
1245.302, 101351.4
1247.231, 101447.9
1249.159, 101585.7
1251.088, 101749.5
1253.016, 101936.0
1254.945, 102099.6
1256.873, 102238.8
1258.802, 102353.8
1260.730, 102427.8
1262.659, 102469.7
1264.587, 102554.7
1266.516, 102718.1
1268.444, 102912.5
1270.372, 103151.3
1272.301, 103357.1
1274.229, 103474.4
1276.158, 103537.5
1278.086, 103647.2
1280.015, 103833.9
1281.943, 103995.6
1283.872, 104102.0
1285.800, 104183.5
1287.729, 104273.2
1289.657, 104361.2
1291.586, 104470.6
1293.514, 104634.9
1295.443, 104809.6
1297.371, 104944.9
1299.299, 105028.0
1301.228, 105137.7
1303.156, 105282.1
1305.085, 105412.6
1307.013, 105500.9
1308.942, 105593.1
1310.870, 105747.1
1312.799, 105975.9
1314.727, 106155.3
1316.656, 106219.2
1318.584, 106286.8
1320.513, 106445.8
1322.441, 106642.5
1324.370, 106793.6
1326.298, 106895.1
1328.226, 106996.1
1330.155, 107087.8
1332.083, 107194.6
1334.012, 107340.4
1335.940, 107547.1
1337.869, 107765.9
1339.797, 107971.4
1341.726, 108132.7
1343.654, 108241.4
1345.583, 108335.0
1347.511, 108434.3
1349.440, 108535.2
1351.368, 108652.1
1353.297, 108816.1
1355.225, 108981.3
1357.153, 109102.0
1359.082, 109177.9
1361.010, 109265.2
1362.939, 109433.6
1364.867, 109600.4
1366.796, 109737.5
1368.724, 109870.4
1370.653, 109985.7
1372.581, 110075.1
1374.510, 110201.1
1376.438, 110450.4
1378.367, 110670.2
1380.295, 110728.0
1382.224, 110762.6
1384.152, 110871.9
1386.080, 111032.1
1388.009, 111167.3
1389.937, 111325.7
1391.866, 111491.4
1393.794, 111651.3
1395.723, 111805.7
1397.651, 111938.7
1399.580, 112012.4
1401.508, 112083.9
1403.437, 112245.3
1405.365, 112444.6
1407.294, 112624.4
1409.222, 112775.2
1411.151, 112931.8
1413.079, 113133.5
1415.007, 113297.2
1416.936, 113345.4
1418.864, 113404.5
1420.793, 113535.2
1422.721, 113734.3
1424.650, 113976.7
1426.578, 114236.5
1428.507, 114424.3
1430.435, 114520.9
1432.364, 114629.3
1434.292, 114795.9
1436.221, 114964.4
1438.149, 115063.1
1440.078, 115099.5
1442.006, 115203.2
1443.934, 115407.9
1445.863, 115599.8
1447.791, 115757.3
1449.720, 115907.9
1451.648, 116071.5
1453.577, 116241.4
1455.505, 116391.3
1457.434, 116501.6
1459.362, 116590.3
1461.291, 116650.9
1463.219, 116714.5
1465.148, 116849.4
1467.076, 117086.3
1469.005, 117289.6
1470.933, 117418.9
1472.861, 117547.9
1474.790, 117716.6
1476.718, 117899.0
1478.647, 118025.6
1480.575, 118055.1
1482.504, 118119.3
1484.432, 118260.5
1486.361, 118415.0
1488.289, 118539.1
1490.218, 118650.5
1492.146, 118820.4
1494.075, 119089.7
1496.003, 119297.3
1497.932, 119338.4
1499.860, 119404.5
1501.788, 119612.3
1503.717, 119870.0
1505.645, 120025.9
1507.574, 120065.4
1509.502, 120121.0
1511.431, 120207.2
1513.359, 120335.7
1515.288, 120537.3
1517.216, 120754.2
1519.145, 120881.5
1521.073, 120933.6
1523.002, 121050.6
1524.930, 121274.7
1526.859, 121474.0
1528.787, 121603.6
1530.715, 121739.3
1532.644, 121882.1
1534.572, 122019.8
1536.501, 122188.1
1538.429, 122414.6
1540.358, 122619.0
1542.286, 122732.0
1544.215, 122850.5
1546.143, 123083.0
1548.072, 123372.0
1550.000, 123516.4
1551.929, 123464.4
1553.857, 123511.8
1555.786, 123805.4
1557.714, 124084.3
1559.642, 124230.1
1561.571, 124298.7
1563.499, 124357.2
1565.428, 124391.3
1567.356, 124510.1
1569.285, 124813.5
1571.213, 125070.6
1573.142, 125156.4
1575.070, 125197.4
1576.999, 125346.4
1578.927, 125611.4
1580.856, 125821.4
1582.784, 125933.3
1584.713, 126061.1
1586.641, 126235.4
1588.569, 126425.5
1590.498, 126614.1
1592.426, 126797.4
1594.355, 126967.5
1596.283, 127120.8
1598.212, 127269.3
1600.140, 127390.2
1602.069, 127530.8
1603.997, 127744.4
1605.926, 127982.7
1607.854, 128145.2
1609.783, 128194.7
1611.711, 128304.3
1613.640, 128540.8
1615.568, 128748.5
1617.496, 128880.7
1619.425, 128979.2
1621.353, 129079.3
1623.282, 129180.3
1625.210, 129276.0
1627.139, 129317.2
1629.067, 129434.8
1630.996, 129703.7
1632.924, 129976.1
1634.853, 130172.9
1636.781, 130315.1
1638.710, 130443.6
1640.638, 130545.3
1642.567, 130681.5
1644.495, 130883.8
1646.423, 131076.4
1648.352, 131222.7
1650.280, 131365.8
1652.209, 131576.8
1654.137, 131840.2
1656.066, 132068.1
1657.994, 132257.9
1659.923, 132415.6
1661.851, 132503.8
1663.780, 132602.3
1665.708, 132757.6
1667.637, 132943.9
1669.565, 133117.4
1671.494, 133273.6
1673.422, 133442.4
1675.350, 133652.1
1677.279, 133833.3
1679.207, 133957.8
1681.136, 134065.9
1683.064, 134144.8
1684.993, 134230.4
1686.921, 134468.2
1688.850, 135005.5
1690.778, 135333.3
1692.707, 135243.0
1694.635, 135219.2
1696.564, 135463.0
1698.492, 135799.5
1700.421, 136065.7
1702.349, 136262.8
1704.277, 136403.4
1706.206, 136384.3
1708.134, 136483.4
1710.063, 136818.7
1711.991, 137137.3
1713.920, 137310.3
1715.848, 137417.6
1717.777, 137566.4
1719.705, 137758.1
1721.634, 137972.6
1723.562, 138238.2
1725.491, 138481.7
1727.419, 138715.1
1729.348, 138903.8
1731.276, 138984.6
1733.204, 139027.2
1735.133, 139157.2
1737.061, 139385.4
1738.990, 139635.0
1740.918, 139965.0
1742.847, 140219.4
1744.775, 140314.8
1746.704, 140396.5
1748.632, 140562.9
1750.561, 140771.4
1752.489, 140914.8
1754.418, 140967.7
1756.346, 141131.5
1758.275, 141491.0
1760.203, 141814.6
1762.131, 142056.3
1764.060, 142246.7
1765.988, 142395.4
1767.917, 142508.7
1769.845, 142581.1
1771.774, 142603.6
1773.702, 142712.4
1775.631, 142937.3
1777.559, 143202.2
1779.488, 143512.0
1781.416, 143830.0
1783.345, 144178.4
1785.273, 144502.7
1787.202, 144692.6
1789.130, 144749.2
1791.058, 144725.5
1792.987, 144552.2
1794.915, 144523.4
1796.844, 144787.7
1798.772, 145131.9
1800.701, 145487.0
1802.629, 145813.2
1804.558, 146046.7
1806.486, 146193.7
1808.415, 146304.0
1810.343, 146360.4
1812.272, 146462.5
1814.200, 146670.3
1816.129, 146878.2
1818.057, 146982.1
1819.985, 147091.3
1821.914, 147386.0
1823.842, 147815.7
1825.771, 148105.0
1827.699, 148209.9
1829.628, 148336.3
1831.556, 148515.3
1833.485, 148719.5
1835.413, 148989.8
1837.342, 149238.9
1839.270, 149347.7
1841.199, 149371.0
1843.127, 149510.2
1845.056, 149819.1
1846.984, 150042.8
1848.912, 150086.3
1850.841, 150185.0
1852.769, 150416.9
1854.698, 150676.8
1856.626, 150930.3
1858.555, 151153.7
1860.483, 151278.7
1862.412, 151294.8
1864.340, 151414.2
1866.269, 151687.8
1868.197, 151958.0
1870.126, 152294.5
1872.054, 152517.4
1873.983, 152419.0
1875.911, 152300.4
1877.839, 152505.3
1879.768, 152945.6
1881.696, 153229.0
1883.625, 153337.0
1885.553, 153469.8
1887.482, 153644.3
1889.410, 153854.6
1891.339, 154166.4
1893.267, 154429.3
1895.196, 154483.5
1897.124, 154477.6
1899.053, 154621.9
1900.981, 154889.7
1902.910, 155127.1
1904.838, 155324.0
1906.766, 155508.1
1908.695, 155661.9
1910.623, 155842.6
1912.552, 156120.9
1914.480, 156384.2
1916.409, 156522.1
1918.337, 156592.8
1920.266, 156712.8
1922.194, 156883.7
1924.123, 157067.3
1926.051, 157226.3
1927.980, 157462.9
1929.908, 157876.3
1931.837, 158242.0
1933.765, 158503.8
1935.693, 158669.0
1937.622, 158658.3
1939.550, 158575.9
1941.479, 158731.7
1943.407, 159155.1
1945.336, 159418.3
1947.264, 159436.0
1949.193, 159516.0
1951.121, 159760.0
1953.050, 160001.0
1954.978, 160167.3
1956.907, 160302.7
1958.835, 160413.1
1960.764, 160529.8
1962.692, 160734.6
1964.620, 161021.0
1966.549, 161276.9
1968.477, 161498.6
1970.406, 161672.0
1972.334, 161767.3
1974.263, 161853.4
1976.191, 161929.5
1978.120, 162032.0
1980.048, 162198.3
1981.977, 162408.5
1983.905, 162631.7
1985.834, 162868.0
1987.762, 163075.6
1989.691, 163224.9
1991.619, 163405.5
1993.547, 163651.9
1995.476, 163884.8
1997.404, 164069.6
1999.333, 164255.0
2001.261, 164490.4
2003.190, 164731.6
2005.118, 164920.3
2007.047, 165058.1
2008.975, 165128.0
2010.904, 165120.4
2012.832, 165205.2
2014.761, 165431.3
2016.689, 165667.1
2018.618, 165883.7
2020.546, 166090.8
2022.474, 166271.3
2024.403, 166464.2
2026.331, 166733.1
2028.260, 167037.2
2030.188, 167271.4
2032.117, 167433.0
2034.045, 167581.6
2035.974, 167690.5
2037.902, 167837.2
2039.831, 168071.2
2041.759, 168272.3
2043.688, 168411.0
2045.616, 168512.0
2047.545, 168517.4
2049.473, 168545.8
2051.402, 168796.5
2053.330, 169188.2
2055.259, 169432.9
2057.187, 169529.0
2059.115, 169661.2
2061.044, 169850.0
2062.972, 170061.0
2064.901, 170337.4
2066.829, 170551.1
2068.758, 170579.1
2070.686, 170614.4
2072.615, 170780.3
2074.543, 171038.9
2076.472, 171428.5
2078.400, 171875.7
2080.329, 171977.3
2082.257, 171612.7
2084.186, 171511.8
2086.114, 171784.0
2088.042, 172021.2
2089.971, 172122.7
2091.899, 172266.3
2093.828, 172585.4
2095.756, 172876.5
2097.685, 172969.8
2099.613, 172994.6
2101.542, 173092.0
2103.470, 173245.2
2105.399, 173419.5
2107.327, 173615.8
2109.256, 173758.2
2111.184, 173799.6
2113.113, 173901.5
2115.041, 174106.0
2116.969, 174324.2
2118.898, 174546.4
2120.826, 174769.0
2122.755, 175007.8
2124.683, 175230.7
2126.612, 175413.0
2128.540, 175555.1
2130.469, 175662.7
2132.397, 175731.7
2134.326, 175687.9
2136.254, 175512.5
2138.183, 175587.6
2140.111, 176062.0
2142.040, 176463.1
2143.968, 176631.7
2145.896, 176791.9
2147.825, 177044.0
2149.753, 177277.5
2151.682, 177406.0
2153.610, 177490.7
2155.539, 177600.1
2157.467, 177725.2
2159.396, 177830.3
2161.324, 177919.8
2163.253, 178073.4
2165.181, 178301.4
2167.110, 178505.2
2169.038, 178667.0
2170.967, 178827.6
2172.895, 179050.5
2174.823, 179183.9
2176.752, 179023.5
2178.680, 178926.0
2180.609, 179170.6
2182.537, 179558.5
2184.466, 179944.0
2186.394, 180269.4
2188.323, 180325.9
2190.251, 180135.6
2192.180, 180206.8
2194.108, 180570.1
2196.037, 180809.7
2197.965, 180850.3
2199.894, 180950.5
2201.822, 181217.3
2203.750, 181428.2
2205.679, 181485.8
2207.607, 181492.6
2209.536, 181399.7
2211.464, 181381.0
2213.393, 181663.5
2215.321, 182072.8
2217.250, 182334.9
2219.178, 182480.9
2221.107, 182632.0
2223.035, 182788.0
2224.964, 182942.0
2226.892, 183097.5
2228.821, 183211.1
2230.749, 183260.0
2232.677, 183331.1
2234.606, 183473.2
2236.534, 183593.5
2238.463, 183653.7
2240.391, 183692.2
2242.320, 183657.3
2244.248, 183682.5
2246.177, 183963.7
2248.105, 184335.0
2250.034, 184516.2
2251.962, 184565.0
2253.891, 184709.0
2255.819, 184929.9
2257.748, 185049.1
2259.676, 185047.9
2261.604, 185112.9
2263.533, 185279.4
2265.461, 185465.0
2267.390, 185702.3
2269.318, 185884.3
2271.247, 185990.1
2273.175, 186033.5
2275.104, 185909.3
2277.032, 185852.3
2278.961, 186139.1
2280.889, 186468.6
2282.818, 186434.5
2284.746, 186267.2
2286.675, 186396.4
2288.603, 186742.7
2290.531, 187001.8
2292.460, 187172.0
2294.388, 187285.8
2296.317, 187286.1
2298.245, 187417.2
2300.174, 187777.0
2302.102, 188030.6
2304.031, 188102.2
2305.959, 188159.6
2307.888, 188227.0
2309.816, 188322.3
2311.745, 188482.7
2313.673, 188637.9
2315.602, 188720.1
2317.530, 188800.2
2319.458, 188993.1
2321.387, 189194.0
2323.315, 189178.3
2325.244, 189055.9
2327.172, 189176.7
2329.101, 189505.4
2331.029, 189770.5
2332.958, 189968.5
2334.886, 190081.1
2336.815, 190092.0
2338.743, 190153.8
2340.672, 190326.8
2342.600, 190443.7
2344.529, 190390.4
2346.457, 190420.8
2348.385, 190694.2
2350.314, 190904.1
2352.242, 190867.1
2354.171, 190836.0
2356.099, 190952.5
2358.028, 191112.7
2359.956, 191218.6
2361.885, 191336.3
2363.813, 191602.0
2365.742, 191906.1
2367.670, 192025.1
2369.599, 191994.4
2371.527, 191920.6
2373.456, 191809.1
2375.384, 191866.5
2377.313, 192096.1
2379.241, 192218.2
2381.169, 192201.1
2383.098, 192207.1
2385.026, 192236.3
2386.955, 192359.4
2388.883, 192680.6
2390.812, 192945.3
2392.740, 193134.7
2394.669, 193225.4
2396.597, 193118.8
2398.526, 193036.5
2400.454, 193057.6
2402.383, 193149.1
2404.311, 193356.6
2406.240, 193554.5
2408.168, 193592.2
2410.096, 193584.0
2412.025, 193678.0
2413.953, 193837.1
2415.882, 194009.5
2417.810, 194179.7
2419.739, 194267.1
2421.667, 194298.6
2423.596, 194462.3
2425.524, 194744.8
2427.453, 194860.4
2429.381, 194759.2
2431.310, 194784.2
2433.238, 195051.8
2435.167, 195216.5
2437.095, 195265.9
2439.023, 195229.3
2440.952, 195043.8
2442.880, 194950.2
2444.809, 195018.5
2446.737, 195154.2
2448.666, 195363.7
2450.594, 195573.9
2452.523, 195805.7
2454.451, 195962.8
2456.380, 195913.8
2458.308, 195862.4
2460.237, 195974.1
2462.165, 196131.1
2464.094, 196257.6
2466.022, 196342.1
2467.950, 196311.0
2469.879, 196269.5
2471.807, 196421.7
2473.736, 196686.1
2475.664, 196906.7
2477.593, 197058.2
2479.521, 196939.5
2481.450, 196625.0
2483.378, 196647.9
2485.307, 196985.5
2487.235, 197294.0
2489.164, 197566.4
2491.092, 197652.7
2493.021, 197432.5
2494.949, 197426.1
2496.877, 197718.5
2498.806, 197941.1
2500.734, 198052.8
2502.663, 198152.5
2504.591, 198250.2
2506.520, 198361.5
2508.448, 198545.5
2510.377, 198645.6
2512.305, 198542.1
2514.234, 198476.2
2516.162, 198615.1
2518.091, 198654.2
2520.019, 198303.4
2521.948, 198121.9
2523.876, 198621.6
2525.804, 199094.3
2527.733, 199033.3
2529.661, 198857.6
2531.590, 198786.0
2533.518, 198862.6
2535.447, 199304.3
2537.375, 199749.4
2539.304, 199712.7
2541.232, 199515.6
2543.161, 199542.9
2545.089, 199689.6
2547.018, 199803.3
2548.946, 199895.2
2550.875, 199966.5
2552.803, 200043.4
2554.731, 200271.5
2556.660, 200563.3
2558.588, 200559.3
2560.517, 200333.6
2562.445, 200253.0
2564.374, 200312.1
2566.302, 200416.8
2568.231, 200569.3
2570.159, 200700.6
2572.088, 200810.5
2574.016, 200914.9
2575.945, 201015.0
2577.873, 201006.5
2579.802, 200844.9
2581.730, 200852.3
2583.658, 201118.7
2585.587, 201359.5
2587.515, 201578.3
2589.444, 201752.9
2591.372, 201876.5
2593.301, 201989.5
2595.229, 202116.1
2597.158, 202167.3
2599.086, 202045.0
2601.015, 201993.5
2602.943, 202101.3
2604.872, 202147.6
2606.800, 202057.3
2608.729, 202030.6
2610.657, 202141.7
2612.585, 202263.4
2614.514, 202346.9
2616.442, 202449.0
2618.371, 202623.1
2620.299, 202755.8
2622.228, 202759.3
2624.156, 202822.7
2626.085, 203071.3
2628.013, 203281.7
2629.942, 203370.1
2631.870, 203370.4
2633.799, 203119.6
2635.727, 203036.2
2637.656, 203533.3
2639.584, 203958.1
2641.512, 203940.3
2643.441, 203858.4
2645.369, 203962.9
2647.298, 204039.0
2649.226, 203788.2
2651.155, 203672.2
2653.083, 204220.3
2655.012, 204739.2
2656.940, 204660.1
2658.869, 204530.3
2660.797, 204821.2
2662.726, 205130.8
2664.654, 205140.1
2666.583, 205024.2
2668.511, 204774.4
2670.439, 204646.8
2672.368, 204989.3
2674.296, 205399.9
2676.225, 205578.2
2678.153, 205619.3
2680.082, 205564.5
2682.010, 205470.2
2683.939, 205301.2
2685.867, 205218.7
2687.796, 205502.3
2689.724, 205829.0
2691.653, 205840.2
2693.581, 205791.9
2695.510, 205955.3
2697.438, 206206.3
2699.366, 206489.4
2701.295, 206703.2
2703.223, 206671.8
2705.152, 206582.6
2707.080, 206620.1
2709.009, 206707.2
2710.937, 206791.3
2712.866, 206843.8
2714.794, 206799.8
2716.723, 206739.2
2718.651, 206730.9
2720.580, 206769.1
2722.508, 206871.3
2724.437, 206993.4
2726.365, 207135.1
2728.293, 207221.2
2730.222, 207082.0
2732.150, 206939.0
2734.079, 207020.8
2736.007, 207186.8
2737.936, 207310.9
2739.864, 207434.5
2741.793, 207630.0
2743.721, 207812.0
2745.650, 207899.4
2747.578, 207930.3
2749.507, 207887.2
2751.435, 207862.3
2753.364, 207960.3
2755.292, 208085.0
2757.220, 208189.2
2759.149, 208239.5
2761.077, 208151.4
2763.006, 208079.4
2764.934, 208133.5
2766.863, 208253.1
2768.791, 208398.8
2770.720, 208587.8
2772.648, 208905.5
2774.577, 209169.5
2776.505, 209259.5
2778.434, 209283.3
2780.362, 209236.7
2782.291, 209241.0
2784.219, 209505.9
2786.147, 209624.4
2788.076, 209271.4
2790.004, 208992.7
2791.933, 209084.8
2793.861, 209258.3
2795.790, 209372.3
2797.718, 209574.8
2799.647, 210013.2
2801.575, 210375.8
2803.504, 210570.7
2805.432, 210671.0
2807.361, 210642.0
2809.289, 210626.3
2811.218, 210663.3
2813.146, 210717.2
2815.074, 210805.0
2817.003, 210828.6
2818.931, 210684.0
2820.860, 210699.6
2822.788, 211082.2
2824.717, 211371.3
2826.645, 211544.1
2828.574, 211556.8
2830.502, 211332.7
2832.431, 211395.9
2834.359, 211971.6
2836.288, 212325.3
2838.216, 212369.4
2840.145, 212477.3
2842.073, 212662.7
2844.001, 212905.4
2845.930, 213208.3
2847.858, 213481.1
2849.787, 213721.0
2851.715, 213955.8
2853.644, 214183.5
2855.572, 214345.5
2857.501, 214463.4
2859.429, 214716.8
2861.358, 215052.5
2863.286, 215133.4
2865.215, 215057.8
2867.143, 215282.7
2869.072, 215634.6
2871.000, 215662.1
2872.928, 215530.8
2874.857, 215574.1
2876.785, 215690.3
2878.714, 215694.0
2880.642, 215674.1
2882.571, 215731.9
2884.499, 215837.3
2886.428, 215967.5
2888.356, 216118.2
2890.285, 216345.0
2892.213, 216510.6
2894.142, 216485.7
2896.070, 216427.2
2897.999, 216375.3
2899.927, 216401.1
2901.855, 216600.1
2903.784, 216796.9
2905.712, 217004.1
2907.641, 217039.1
2909.569, 216589.2
2911.498, 216402.1
2913.426, 216783.1
2915.355, 217149.2
2917.283, 217459.7
2919.212, 217650.0
2921.140, 217708.5
2923.069, 217623.8
2924.997, 217282.8
2926.926, 217296.6
2928.854, 217684.0
2930.782, 217767.6
2932.711, 217522.8
2934.639, 217382.6
2936.568, 217355.1
2938.496, 217499.9
2940.425, 217758.5
2942.353, 217913.3
2944.282, 217934.9
2946.210, 217687.9
2948.139, 217322.5
2950.067, 217109.3
2951.996, 216989.5
2953.924, 216851.3
2955.853, 216795.9
2957.781, 216997.5
2959.709, 217237.8
2961.638, 217377.8
2963.566, 217426.6
2965.495, 217377.5
2967.423, 217272.1
2969.352, 217037.0
2971.280, 216909.4
2973.209, 217078.4
2975.137, 217147.4
2977.066, 217013.2
2978.994, 216912.9
2980.923, 216910.7
2982.851, 216900.8
2984.780, 216867.6
2986.708, 216877.9
2988.636, 216933.4
2990.565, 216923.0
2992.493, 216843.3
2994.422, 216749.2
2996.350, 216664.5
2998.279, 216795.5
3000.207, 217037.5
3002.136, 217144.2
3004.064, 217141.5
3005.993, 217040.4
3007.921, 216892.9
3009.850, 216710.9
3011.778, 216586.1
3013.707, 216567.4
3015.635, 216675.3
3017.563, 217055.8
3019.492, 217357.6
3021.420, 217457.2
3023.349, 217429.6
3025.277, 217187.2
3027.206, 217073.9
3029.134, 217251.3
3031.063, 217281.5
3032.991, 217094.7
3034.920, 217167.3
3036.848, 217588.1
3038.777, 217867.0
3040.705, 217997.5
3042.634, 217850.4
3044.562, 217531.7
3046.490, 217452.9
3048.419, 217518.3
3050.347, 217505.3
3052.276, 217496.0
3054.204, 217673.2
3056.133, 217848.9
3058.061, 217795.4
3059.990, 217753.3
3061.918, 217890.8
3063.847, 218096.3
3065.775, 218423.3
3067.704, 218569.7
3069.632, 218243.1
3071.561, 218117.0
3073.489, 218338.4
3075.417, 218431.4
3077.346, 218345.5
3079.274, 218484.9
3081.203, 218873.2
3083.131, 218885.3
3085.060, 218608.8
3086.988, 218502.1
3088.917, 218574.5
3090.845, 218986.6
3092.774, 219422.0
3094.702, 219379.1
3096.631, 219164.0
3098.559, 218917.5
3100.488, 218794.9
3102.416, 218990.1
3104.344, 219163.6
3106.273, 219200.2
3108.201, 219195.4
3110.130, 219087.4
3112.058, 219282.0
3113.987, 220034.8
3115.915, 220210.4
3117.844, 219832.7
3119.772, 219645.1
3121.701, 219648.9
3123.629, 219717.6
3125.558, 219814.2
3127.486, 219842.6
3129.415, 219837.9
3131.343, 219770.9
3133.271, 219790.0
3135.200, 220173.9
3137.128, 220446.8
3139.057, 220327.8
3140.985, 220211.0
3142.914, 220194.3
3144.842, 220316.0
3146.771, 220628.6
3148.699, 220742.5
3150.628, 220617.3
3152.556, 220744.5
3154.485, 221082.9
3156.413, 221030.4
3158.342, 220772.6
3160.270, 220795.2
3162.198, 220940.2
3164.127, 221089.4
3166.055, 221114.5
3167.984, 220759.4
3169.912, 220508.9
3171.841, 220687.7
3173.769, 220896.8
3175.698, 221074.7
3177.626, 221125.1
3179.555, 221006.8
3181.483, 221038.7
3183.412, 221254.4
3185.340, 221391.5
3187.269, 221452.6
3189.197, 221389.0
3191.125, 221307.2
3193.054, 221415.4
3194.982, 221605.8
3196.911, 221832.0
3198.839, 221977.9
3200.768, 221931.2
3202.696, 221854.2
3204.625, 221754.2
3206.553, 221759.4
3208.482, 221901.1
3210.410, 222068.2
3212.339, 222258.4
3214.267, 222338.3
3216.196, 222321.5
3218.124, 222183.5
3220.052, 222076.0
3221.981, 222437.0
3223.909, 222810.9
3225.838, 222623.4
3227.766, 222380.0
3229.695, 222316.9
3231.623, 222377.5
3233.552, 222631.8
3235.480, 222710.8
3237.409, 222529.7
3239.337, 222513.7
3241.266, 222686.3
3243.194, 222731.8
3245.123, 222716.1
3247.051, 222862.7
3248.979, 223078.7
3250.908, 223280.9
3252.836, 223407.1
3254.765, 223406.5
3256.693, 223336.8
3258.622, 223218.0
3260.550, 223020.1
3262.479, 222688.5
3264.407, 222595.7
3266.336, 222790.3
3268.264, 223130.7
3270.193, 223541.9
3272.121, 223618.6
3274.050, 223504.1
3275.978, 223409.5
3277.906, 223303.8
3279.835, 223040.2
3281.763, 222968.4
3283.692, 223393.0
3285.620, 223642.5
3287.549, 223459.7
3289.477, 223365.7
3291.406, 223380.9
3293.334, 223499.7
3295.263, 223669.3
3297.191, 223642.4
3299.120, 223534.6
3301.048, 223502.6
3302.977, 223536.9
3304.905, 223688.6
3306.833, 223801.8
3308.762, 223795.9
3310.690, 223838.4
3312.619, 223994.1
3314.547, 224142.8
3316.476, 224272.4
3318.404, 224061.0
3320.333, 223717.4
3322.261, 223940.4
3324.190, 224286.2
3326.118, 224079.4
3328.047, 223895.3
3329.975, 224207.2
3331.904, 224368.3
3333.832, 224156.8
3335.760, 224058.7
3337.689, 224138.6
3339.617, 224285.1
3341.546, 224481.8
3343.474, 224763.9
3345.403, 224943.0
3347.331, 224600.2
3349.260, 224199.6
3351.188, 224090.4
3353.117, 224126.1
3355.045, 224325.2
3356.974, 224489.0
3358.902, 224596.2
3360.831, 224596.3
3362.759, 224529.4
3364.688, 224732.9
3366.616, 224988.6
3368.544, 224704.4
3370.473, 224396.9
3372.401, 224562.3
3374.330, 224730.7
3376.258, 224670.3
3378.187, 224700.7
3380.115, 224883.0
3382.044, 224974.6
3383.972, 224973.1
3385.901, 224984.5
3387.829, 224968.8
3389.758, 224724.2
3391.686, 224602.0
3393.615, 225086.6
3395.543, 225516.9
3397.471, 225650.4
3399.400, 225770.4
3401.328, 225961.7
3403.257, 225669.8
3405.185, 225048.9
3407.114, 224968.7
3409.042, 225168.2
3410.971, 225200.8
3412.899, 225276.3
3414.828, 225687.3
3416.756, 225874.8
3418.685, 225588.8
3420.613, 225539.5
3422.542, 225810.6
3424.470, 225792.1
3426.398, 225581.9
3428.327, 225633.3
3430.255, 225698.8
3432.184, 225350.2
3434.112, 225164.9
3436.041, 225517.8
3437.969, 225780.3
3439.898, 225767.6
3441.826, 225817.1
3443.755, 225917.0
3445.683, 225849.3
3447.612, 225705.8
3449.540, 225599.5
3451.469, 225592.5
3453.397, 225814.4
3455.325, 225936.9
3457.254, 225718.9
3459.182, 225669.9
3461.111, 225803.2
3463.039, 225955.7
3464.968, 226103.3
3466.896, 226262.5
3468.825, 226303.6
3470.753, 226030.0
3472.682, 225748.6
3474.610, 225574.7
3476.539, 225462.7
3478.467, 225406.1
3480.396, 225560.4
3482.324, 225858.4
3484.252, 226088.6
3486.181, 226117.6
3488.109, 225530.3
3490.038, 225144.6
3491.966, 225468.0
3493.895, 225700.0
3495.823, 225653.5
3497.752, 225579.2
3499.680, 225487.8
3501.609, 225397.6
3503.537, 225330.4
3505.466, 225308.3
3507.394, 225355.4
3509.323, 225603.8
3511.251, 225531.5
3513.179, 224865.0
3515.108, 224551.3
3517.036, 224552.6
3518.965, 224678.6
3520.893, 224805.0
3522.822, 224748.9
3524.750, 224616.5
3526.679, 224428.9
3528.607, 224234.2
3530.536, 224026.8
3532.464, 223991.3
3534.393, 224076.5
3536.321, 224022.2
3538.250, 223864.2
3540.178, 223592.0
3542.106, 223348.4
3544.035, 223201.1
3545.963, 223126.0
3547.892, 223122.6
3549.820, 223184.0
3551.749, 223252.0
3553.677, 223059.7
3555.606, 222817.8
3557.534, 222682.6
3559.463, 222708.9
3561.391, 223005.9
3563.320, 222964.2
3565.248, 222484.2
3567.177, 222224.3
3569.105, 222101.7
3571.033, 221969.2
3572.962, 221776.9
3574.890, 221358.8
3576.819, 221140.8
3578.747, 221288.6
3580.676, 221192.6
3582.604, 220861.8
3584.533, 220767.8
3586.461, 220837.1
3588.390, 221103.3
3590.318, 221247.8
3592.247, 221139.8
3594.175, 220830.5
3596.104, 220257.8
3598.032, 220030.3
3599.960, 220021.8
3601.889, 219854.5
3603.817, 219678.5
3605.746, 219689.1
3607.674, 219616.7
3609.603, 219249.2
3611.531, 219274.7
3613.460, 219608.2
3615.388, 219279.3
3617.317, 218717.2
3619.245, 218556.2
3621.174, 218501.2
3623.102, 218420.0
3625.031, 218394.5
3626.959, 218444.8
3628.887, 218148.9
3630.816, 217684.1
3632.744, 217492.7
3634.673, 217445.1
3636.601, 217509.5
3638.530, 217485.7
3640.458, 217293.8
3642.387, 217143.0
3644.315, 217030.9
3646.244, 216897.1
3648.172, 216781.7
3650.101, 216760.4
3652.029, 216711.0
3653.958, 216560.5
3655.886, 216410.1
3657.814, 216274.0
3659.743, 216278.5
3661.671, 216302.0
3663.600, 216084.7
3665.528, 215904.7
3667.457, 216017.8
3669.385, 215872.0
3671.314, 215448.1
3673.242, 215225.4
3675.171, 215149.8
3677.099, 215143.3
3679.028, 215135.3
3680.956, 215062.4
3682.885, 215040.8
3684.813, 215085.0
3686.741, 214972.6
3688.670, 214780.1
3690.598, 214763.2
3692.527, 214698.2
3694.455, 214324.8
3696.384, 214091.8
3698.312, 214064.0
3700.241, 214208.9
3702.169, 214413.6
3704.098, 214323.0
3706.026, 214177.5
3707.955, 214179.8
3709.883, 214142.9
3711.812, 214026.8
3713.740, 213997.5
3715.668, 213982.3
3717.597, 213601.9
3719.525, 213297.3
3721.454, 213529.7
3723.382, 213649.3
3725.311, 213513.1
3727.239, 213475.2
3729.168, 213470.8
3731.096, 213200.3
3733.025, 212909.3
3734.953, 212711.4
3736.882, 212768.8
3738.810, 213148.4
3740.739, 213152.5
3742.667, 212893.9
3744.595, 212643.6
3746.524, 212538.6
3748.452, 212792.6
3750.381, 212836.8
3752.309, 212564.5
3754.238, 212504.6
3756.166, 212564.4
3758.095, 212555.7
3760.023, 212430.8
3761.952, 212113.5
3763.880, 211841.0
3765.809, 211642.8
3767.737, 211338.9
3769.666, 211101.8
3771.594, 211438.0
3773.522, 211639.0
3775.451, 211244.8
3777.379, 211142.7
3779.308, 211364.3
3781.236, 211249.7
3783.165, 210997.7
3785.093, 210814.5
3787.022, 210728.4
3788.950, 210775.3
3790.879, 210830.7
3792.807, 210864.9
3794.736, 210702.9
3796.664, 210539.3
3798.593, 210662.6
3800.521, 210654.4
3802.449, 210388.4
3804.378, 210085.8
3806.306, 209808.3
3808.235, 209708.3
3810.163, 209699.5
3812.092, 209764.5
3814.020, 209765.5
3815.949, 209675.6
3817.877, 209691.9
3819.806, 209717.6
3821.734, 209622.0
3823.663, 209429.3
3825.591, 209109.2
3827.520, 209016.6
3829.448, 209130.3
3831.376, 209160.0
3833.305, 209094.1
3835.233, 208819.1
3837.162, 208715.3
3839.090, 208862.6
3841.019, 208737.9
3842.947, 208475.4
3844.876, 208432.2
3846.804, 208502.1
3848.733, 208775.1
3850.661, 208729.0
3852.590, 208384.8
3854.518, 208272.9
3856.447, 208045.1
3858.375, 207601.3
3860.303, 207288.8
3862.232, 207259.5
3864.160, 206989.6
3866.089, 206574.0
3868.017, 206364.7
3869.946, 206107.7
3871.874, 205548.9
3873.803, 205333.8
3875.731, 205477.9
3877.660, 205092.0
3879.588, 204597.7
3881.517, 204588.5
3883.445, 204406.5
3885.374, 203834.4
3887.302, 203659.3
3889.230, 203645.7
3891.159, 203154.2
3893.087, 202699.1
3895.016, 202593.8
3896.944, 202347.5
3898.873, 201922.9
3900.801, 201815.8
3902.730, 201758.5
3904.658, 201470.8
3906.587, 201044.8
3908.515, 200500.6
3910.444, 200229.9
3912.372, 200166.4
3914.301, 200172.7
3916.229, 200064.4
3918.157, 199830.0
3920.086, 199416.6
3922.014, 198893.5
3923.943, 198796.7
3925.871, 198745.4
3927.800, 198478.1
3929.728, 198065.7
3931.657, 197551.1
3933.585, 197253.9
3935.514, 197062.9
3937.442, 196918.3
3939.371, 196826.1
3941.299, 196783.1
3943.228, 196340.5
3945.156, 195787.8
3947.084, 195570.5
3949.013, 195319.3
3950.941, 194928.7
3952.870, 194884.8
3954.798, 194959.9
3956.727, 194380.0
3958.655, 193878.2
3960.584, 193951.0
3962.512, 193861.8
3964.441, 193589.6
3966.369, 193244.6
3968.298, 192920.7
3970.226, 192722.5
3972.155, 192470.3
3974.083, 192156.6
3976.011, 192055.1
3977.940, 191988.6
3979.868, 191764.9
3981.797, 191445.6
3983.725, 191002.5
3985.654, 190695.3
3987.582, 190510.0
3989.511, 190563.4
3991.439, 190416.3
3993.368, 189848.2
3995.296, 189528.3
3997.225, 189380.0
3999.153, 189104.0
4001.082, 188855.2
4003.010, 188598.2
4004.938, 188323.2
4006.867, 188076.6
4008.795, 187689.3
4010.724, 187387.9
4012.652, 187412.1
4014.581, 187251.6
4016.509, 186966.8
4018.438, 186816.5
4020.366, 186630.6
4022.295, 186157.0
4024.223, 185938.9
4026.152, 186102.6
4028.080, 185971.9
4030.009, 185618.2
4031.937, 185205.5
4033.865, 184966.4
4035.794, 184938.5
4037.722, 184637.7
4039.651, 184188.4
4041.579, 183918.3
4043.508, 183832.2
4045.436, 183953.4
4047.365, 183856.7
4049.293, 183530.8
4051.222, 183203.8
4053.150, 182813.5
4055.079, 182430.1
4057.007, 182270.0
4058.936, 182190.2
4060.864, 181997.7
4062.792, 181896.3
4064.721, 181715.2
4066.649, 181492.2
4068.578, 181378.0
4070.506, 181074.1
4072.435, 180716.5
4074.363, 180497.9
4076.292, 180290.3
4078.220, 180303.6
4080.149, 180218.6
4082.077, 179762.3
4084.006, 179557.8
4085.934, 179657.5
4087.863, 179756.8
4089.791, 179537.8
4091.719, 179229.3
4093.648, 179096.1
4095.576, 178937.9
4097.505, 178952.1
4099.434, 178953.1
4101.362, 178851.0
4103.291, 178742.7
4105.219, 178632.9
4107.147, 178449.1
4109.076, 178315.9
4111.004, 178322.1
4112.933, 178277.7
4114.861, 178178.3
4116.790, 177938.1
4118.718, 177731.7
4120.646, 177637.8
4122.575, 177427.1
4124.503, 177095.0
4126.432, 177004.5
4128.360, 176967.2
4130.289, 176653.3
4132.217, 176415.7
4134.146, 176381.2
4136.074, 176142.7
4138.003, 175852.3
4139.931, 175847.7
4141.860, 175705.1
4143.788, 175158.7
4145.717, 174799.3
4147.645, 174684.4
4149.574, 174383.5
4151.502, 174035.3
4153.431, 173943.2
4155.359, 173713.9
4157.288, 173262.3
4159.216, 172978.9
4161.145, 172733.3
4163.073, 172511.5
4165.001, 172156.0
4166.930, 171804.1
4168.858, 171907.8
4170.787, 171912.0
4172.715, 171601.2
4174.644, 171395.6
4176.572, 171257.8
4178.500, 171025.6
4180.429, 170661.2
4182.357, 170081.7
4184.286, 169934.0
4186.214, 170041.5
4188.143, 169937.9
4190.071, 169703.4
4192.000, 169351.8
4193.928, 169031.9
4195.857, 168740.1
4197.785, 168404.8
4199.714, 168183.7
4201.642, 168166.3
4203.571, 168089.8
4205.499, 167945.6
4207.428, 167768.3
4209.356, 167495.2
4211.285, 167026.3
4213.213, 166840.8
4215.142, 166739.6
4217.070, 166204.6
4218.999, 165837.5
4220.927, 165895.1
4222.855, 165789.6
4224.784, 165625.0
4226.712, 165608.6
4228.641, 165455.7
4230.569, 165119.3
4232.498, 164717.5
4234.426, 164376.7
4236.354, 164301.7
4238.283, 164314.1
4240.211, 164370.4
4242.140, 164028.6
4244.068, 163658.5
4245.997, 163646.6
4247.925, 163682.9
4249.854, 163757.2
4251.782, 163904.5
4253.711, 163893.0
4255.639, 163508.5
4257.568, 163199.2
4259.496, 163020.9
4261.425, 163108.2
4263.353, 163269.0
4265.282, 163453.9
4267.210, 163467.6
4269.139, 163379.6
4271.067, 163350.5
4272.996, 163369.5
4274.924, 163484.3
4276.853, 163333.3
4278.781, 163110.9
4280.709, 163207.2
4282.638, 163180.6
4284.566, 162903.8
4286.495, 162976.5
4288.423, 163169.4
4290.352, 163276.7
4292.280, 163267.8
4294.208, 163151.4
4296.137, 163018.1
4298.065, 162963.3
4299.994, 163063.2
4301.922, 163331.2
4303.851, 163639.1
4305.779, 163430.7
4307.708, 163233.8
4309.636, 163293.0
4311.565, 163325.4
4313.493, 163305.0
4315.422, 163104.0
4317.350, 163128.9
4319.279, 163491.0
4321.207, 163748.6
4323.136, 163858.3
4325.064, 163733.1
4326.993, 163568.4
4328.921, 163432.6
4330.850, 163687.2
4332.778, 163932.2
4334.707, 163930.1
4336.635, 163987.6
4338.563, 164034.6
4340.492, 163721.6
4342.420, 163559.3
4344.349, 163691.5
4346.277, 163925.3
4348.206, 164106.0
4350.134, 163975.0
4352.063, 164034.5
4353.991, 164285.4
4355.919, 164280.8
4357.848, 164193.3
4359.776, 164122.4
4361.705, 164144.9
4363.633, 164168.4
4365.562, 163854.2
4367.490, 163740.7
4369.419, 164056.5
4371.347, 164166.4
4373.276, 164167.4
4375.204, 164183.9
4377.133, 164127.0
4379.061, 163979.7
4380.990, 163614.9
4382.918, 163377.3
4384.847, 163523.2
4386.775, 163494.1
4388.704, 163373.5
4390.632, 163407.6
4392.561, 163324.1
4394.489, 163070.1
4396.417, 162952.8
4398.346, 162873.0
4400.274, 162740.7
4402.203, 162656.9
4404.131, 162641.1
4406.060, 162811.1
4407.988, 162817.5
4409.917, 162546.6
4411.845, 162536.5
4413.773, 162553.1
4415.702, 162216.4
4417.630, 162082.6
4419.559, 162173.3
4421.487, 162280.8
4423.416, 162305.0
4425.344, 162167.8
4427.273, 161998.4
4429.201, 161843.5
4431.130, 161809.1
4433.058, 161684.8
4434.987, 161462.6
4436.915, 161396.9
4438.844, 161436.8
4440.772, 161585.7
4442.701, 161444.5
4444.629, 161165.4
4446.558, 160983.8
4448.486, 160941.8
4450.415, 161017.6
4452.343, 161154.0
4454.271, 161064.8
4456.200, 160420.7
4458.128, 160130.2
4460.057, 160076.4
4461.985, 159991.3
4463.914, 160019.9
4465.842, 160170.9
4467.771, 160139.4
4469.699, 160002.7
4471.627, 159762.1
4473.556, 159836.4
4475.484, 160027.1
4477.413, 159950.9
4479.341, 159959.4
4481.270, 160048.7
4483.198, 159713.0
4485.127, 159506.7
4487.055, 159826.0
4488.984, 159738.9
4490.912, 159463.4
4492.841, 159314.0
4494.769, 159360.8
4496.698, 159546.8
4498.626, 159475.3
4500.555, 159279.6
4502.483, 158991.1
4504.412, 159197.7
4506.340, 159479.3
4508.269, 159317.7
4510.197, 159295.7
4512.125, 159340.3
4514.054, 158876.3
4515.982, 158632.3
4517.911, 158887.6
4519.839, 158779.0
4521.768, 158612.8
4523.696, 158670.8
4525.625, 158695.5
4527.553, 158670.4
4529.481, 158562.9
4531.410, 158540.0
4533.338, 158601.6
4535.267, 158496.9
4537.195, 158383.9
4539.124, 158356.2
4541.052, 158204.1
4542.981, 158064.7
4544.909, 158174.6
4546.838, 158216.6
4548.766, 158194.2
4550.695, 158345.3
4552.623, 158228.3
4554.552, 157744.4
4556.480, 157715.1
4558.409, 157852.4
4560.337, 157986.2
4562.266, 157775.1
4564.194, 157489.1
4566.123, 157658.4
4568.051, 157716.8
4569.979, 157630.9
4571.908, 157785.5
4573.836, 157804.6
4575.765, 157553.6
4577.693, 157284.3
4579.622, 157120.7
4581.550, 157157.5
4583.479, 157321.5
4585.407, 157457.3
4587.335, 157261.6
4589.264, 157130.3
4591.192, 157112.5
4593.121, 157186.8
4595.049, 157015.7
4596.978, 156491.1
4598.906, 156627.7
4600.835, 156787.9
4602.763, 156431.8
4604.692, 156400.4
4606.620, 156538.6
4608.549, 156503.8
4610.477, 156480.8
4612.406, 156494.0
4614.334, 156558.7
4616.263, 156569.7
4618.191, 156504.8
4620.120, 156497.0
4622.048, 156427.4
4623.977, 156194.9
4625.905, 156208.6
4627.833, 156296.9
4629.762, 156199.9
4631.690, 156249.6
4633.619, 156312.4
4635.547, 155883.0
4637.476, 155701.9
4639.404, 155802.2
4641.333, 155582.3
4643.261, 155421.0
4645.189, 155497.5
4647.118, 155517.9
4649.046, 155522.1
4650.975, 155554.8
4652.903, 155386.5
4654.832, 155204.4
4656.760, 155280.1
4658.689, 155387.2
4660.617, 155432.1
4662.546, 155267.7
4664.474, 154951.2
4666.403, 154572.6
4668.331, 154753.6
4670.260, 154897.9
4672.188, 154806.5
4674.117, 154776.7
4676.045, 154656.2
4677.974, 154246.0
4679.902, 154158.0
4681.831, 154257.6
4683.759, 154453.3
4685.688, 154329.7
4687.616, 154091.2
4689.544, 154236.0
4691.473, 154201.3
4693.401, 154014.9
4695.330, 154171.7
4697.258, 154147.8
4699.187, 153827.5
4701.115, 153541.8
4703.043, 153414.7
4704.972, 153482.9
4706.900, 153506.0
4708.829, 153529.4
4710.757, 153649.5
4712.686, 153484.4
4714.614, 153258.7
4716.543, 153220.9
4718.471, 153106.8
4720.400, 152976.4
4722.328, 153009.9
4724.257, 152949.9
4726.185, 152788.2
4728.114, 152552.4
4730.042, 152414.0
4731.971, 152408.5
4733.899, 152644.6
4735.828, 152678.7
4737.756, 152392.4
4739.685, 152329.1
4741.613, 152155.3
4743.542, 151704.3
4745.470, 151859.9
4747.398, 152040.4
4749.327, 151848.3
4751.255, 151738.9
4753.184, 151611.5
4755.112, 151305.8
4757.041, 151098.0
4758.969, 151036.0
4760.897, 151201.2
4762.826, 151399.9
4764.754, 151466.9
4766.683, 150998.3
4768.611, 150827.0
4770.540, 150899.8
4772.468, 150744.3
4774.397, 150440.9
4776.325, 150126.1
4778.254, 150259.2
4780.182, 150442.3
4782.111, 150548.5
4784.039, 150579.7
4785.968, 150298.8
4787.896, 149712.5
4789.825, 149539.4
4791.753, 149609.9
4793.682, 149871.7
4795.610, 149757.1
4797.539, 149669.7
4799.467, 149832.1
4801.396, 149561.5
4803.324, 149158.6
4805.252, 148818.9
4807.181, 148955.2
4809.109, 149141.2
4811.038, 148984.3
4812.966, 148742.3
4814.895, 148553.0
4816.823, 148612.1
4818.751, 148539.7
4820.680, 148364.4
4822.608, 148119.0
4824.537, 148027.4
4826.465, 148045.5
4828.394, 148148.1
4830.322, 147904.9
4832.251, 147530.9
4834.179, 147626.7
4836.108, 147483.4
4838.036, 147182.9
4839.965, 147227.1
4841.893, 147121.2
4843.822, 146872.0
4845.750, 146719.8
4847.679, 146666.8
4849.607, 146688.2
4851.536, 146769.5
4853.464, 146678.1
4855.393, 146411.4
4857.321, 146119.8
4859.250, 145929.9
4861.178, 145854.1
4863.106, 145838.1
4865.035, 145786.1
4866.963, 145659.7
4868.892, 145306.3
4870.820, 145096.1
4872.749, 145105.0
4874.677, 145161.0
4876.605, 145170.6
4878.534, 145125.8
4880.462, 145250.8
4882.391, 145017.0
4884.319, 144371.8
4886.248, 144310.2
4888.176, 144344.3
4890.105, 144320.6
4892.033, 144261.5
4893.962, 144084.3
4895.890, 143821.6
4897.819, 144192.3
4899.747, 144332.6
4901.676, 144060.1
4903.604, 143822.1
4905.533, 143607.5
4907.461, 143421.9
4909.390, 143367.8
4911.318, 143435.8
4913.247, 143554.9
4915.175, 143313.7
4917.104, 143048.1
4919.032, 142846.1
4920.960, 142520.0
4922.889, 142413.2
4924.817, 142559.0
4926.746, 142624.3
4928.674, 142544.4
4930.603, 142335.1
4932.531, 142054.7
4934.459, 141981.8
4936.388, 142049.1
4938.316, 141568.2
4940.245, 141291.5
4942.173, 141285.3
4944.102, 141272.5
4946.030, 141159.2
4947.959, 140976.8
4949.887, 140910.8
4951.816, 140700.5
4953.744, 140389.7
4955.673, 140182.8
4957.601, 140038.4
4959.530, 139965.9
4961.458, 140039.6
4963.387, 140083.6
4965.315, 139993.7
4967.244, 139563.0
4969.172, 139474.7
4971.101, 139493.8
4973.029, 139036.9
4974.958, 139085.1
4976.886, 139192.6
4978.814, 138692.0
4980.743, 138639.0
4982.671, 138682.6
4984.600, 138397.2
4986.528, 138217.7
4988.457, 138145.9
4990.385, 138228.6
4992.313, 137946.3
4994.242, 137724.0
4996.170, 137802.5
4998.099, 137638.4
5000.027, 137556.5
5001.956, 137718.8
5003.884, 137235.8
5005.813, 136910.7
5007.741, 137010.9
5009.670, 136942.8
5011.598, 136784.1
5013.527, 136606.5
5015.455, 136651.0
5017.384, 136603.4
5019.312, 136425.9
5021.241, 136226.8
5023.169, 136065.0
5025.098, 135938.4
5027.026, 135843.7
5028.955, 135653.9
5030.883, 135428.6
5032.812, 135302.6
5034.740, 135025.0
5036.668, 134787.5
5038.597, 134815.4
5040.525, 134865.8
5042.454, 134817.1
5044.382, 134587.3
5046.311, 134335.2
5048.239, 134110.3
5050.167, 133936.0
5052.096, 133843.4
5054.024, 133733.8
5055.953, 133570.3
5057.881, 133289.8
5059.810, 133239.3
5061.738, 133358.2
5063.667, 132983.2
5065.595, 132905.3
5067.524, 132987.4
5069.452, 132575.4
5071.381, 132561.5
5073.309, 132635.5
5075.238, 132172.0
5077.166, 131805.9
5079.095, 131556.6
5081.023, 131411.9
5082.952, 131540.3
5084.880, 131559.8
5086.809, 131272.1
5088.737, 130728.5
5090.666, 130557.1
5092.594, 130876.6
5094.522, 131025.3
5096.451, 130737.9
5098.379, 130227.1
5100.308, 130267.8
5102.236, 130148.1
5104.165, 129891.3
5106.093, 129662.0
5108.021, 129578.5
5109.950, 129463.1
5111.878, 129145.2
5113.807, 128745.8
5115.735, 128657.2
5117.664, 128982.5
5119.592, 128499.2
5121.521, 128145.3
5123.449, 128164.1
5125.378, 128020.9
5127.306, 127664.3
5129.235, 127329.5
5131.163, 127575.0
5133.092, 127747.6
5135.020, 127733.2
5136.949, 127466.1
5138.877, 127273.0
5140.806, 127072.2
5142.734, 126797.8
5144.663, 126588.1
5146.591, 126529.2
5148.520, 126572.5
5150.448, 126297.9
5152.376, 126179.2
5154.305, 126216.6
5156.233, 126237.8
5158.162, 125931.1
5160.090, 125523.1
5162.019, 125298.9
5163.947, 125203.5
5165.875, 125145.8
5167.804, 125066.9
5169.732, 124853.3
5171.661, 124688.5
5173.589, 124627.9
5175.518, 124649.1
5177.446, 124644.1
5179.375, 124547.6
5181.303, 124273.1
5183.232, 123941.9
5185.160, 123764.7
5187.089, 123938.3
5189.017, 123945.5
5190.946, 123762.3
5192.874, 123431.7
5194.803, 123362.8
5196.731, 123129.7
5198.660, 122807.0
5200.588, 122803.5
5202.517, 122705.9
5204.445, 122656.8
5206.374, 123007.4
5208.302, 122489.3
5210.230, 122154.3
5212.159, 122404.2
5214.087, 122047.3
5216.016, 121705.1
5217.944, 121540.0
5219.873, 121640.0
5221.801, 121413.7
5223.729, 121138.5
5225.658, 121214.0
5227.586, 121155.2
5229.515, 120948.3
5231.443, 120664.6
5233.372, 120885.4
5235.300, 120766.3
5237.229, 120332.6
5239.157, 120067.4
5241.086, 119959.5
5243.014, 119842.3
5244.943, 119549.4
5246.871, 119552.3
5248.800, 119557.1
5250.728, 119396.7
5252.657, 118748.9
5254.585, 118651.5
5256.514, 118891.4
5258.442, 118807.3
5260.371, 118486.3
5262.299, 118157.7
5264.228, 117972.1
5266.156, 117858.7
5268.084, 117607.7
5270.013, 117312.8
5271.941, 117503.1
5273.870, 117557.9
5275.798, 117440.6
5277.727, 117152.5
5279.655, 117012.4
5281.583, 116815.4
5283.512, 116516.5
5285.440, 116440.5
5287.369, 116460.9
5289.297, 116402.2
5291.226, 115982.6
5293.154, 115802.5
5295.083, 115668.5
5297.011, 115429.1
5298.940, 115350.0
5300.868, 115146.9
5302.797, 114880.5
5304.725, 114882.4
5306.654, 114899.2
5308.582, 114776.9
5310.511, 114428.8
5312.439, 114279.7
5314.368, 114102.4
5316.296, 113869.1
5318.225, 113830.4
5320.153, 113606.6
5322.082, 113308.2
5324.010, 113095.6
5325.938, 112923.6
5327.867, 112845.5
5329.795, 112788.0
5331.724, 112360.2
5333.652, 111982.2
5335.581, 111763.6
5337.509, 111783.5
5339.438, 111689.0
5341.366, 111742.4
5343.294, 111907.5
5345.223, 111506.1
5347.151, 111271.7
5349.080, 111146.5
5351.008, 110929.1
5352.937, 110599.0
5354.865, 110541.5
5356.794, 110755.7
5358.722, 110436.9
5360.651, 110121.0
5362.579, 109825.2
5364.508, 109470.6
5366.436, 109320.3
5368.365, 109363.7
5370.293, 109466.3
5372.222, 109204.1
5374.150, 108863.0
5376.079, 108588.2
5378.007, 108495.3
5379.936, 108450.8
5381.864, 108152.6
5383.792, 107705.0
5385.721, 107710.0
5387.649, 107547.2
5389.578, 107388.9
5391.506, 107417.5
5393.435, 107199.6
5395.363, 107008.1
5397.292, 106909.8
5399.220, 106890.4
5401.148, 106778.1
5403.077, 106558.8
5405.005, 106269.7
5406.934, 106237.8
5408.862, 106216.6
5410.791, 106105.6
5412.719, 105841.6
5414.648, 105483.7
5416.576, 105090.4
5418.505, 104750.6
5420.433, 104820.8
5422.362, 104749.9
5424.290, 104603.1
5426.219, 104526.2
5428.147, 104514.8
5430.076, 104150.6
5432.004, 103639.1
5433.933, 103708.0
5435.861, 103805.3
5437.790, 103616.6
5439.718, 103042.3
5441.646, 102603.5
5443.575, 102669.4
5445.503, 102921.0
5447.432, 102881.5
5449.360, 102409.8
5451.289, 102165.7
5453.217, 102239.6
5455.146, 102225.9
5457.074, 101959.2
5459.002, 101682.4
5460.931, 101560.9
5462.859, 101395.5
5464.788, 101132.0
5466.716, 100830.4
5468.645, 100578.4
5470.573, 100423.5
5472.502, 100295.8
5474.430, 100140.0
5476.359, 99860.35
5478.287, 99795.67
5480.216, 99758.11
5482.144, 99592.84
5484.073, 99283.89
5486.001, 99054.22
5487.930, 98885.31
5489.858, 98682.73
5491.787, 98700.24
5493.715, 98356.03
5495.644, 97840.63
5497.572, 98025.15
5499.500, 98173.11
5501.429, 98045.08
5503.357, 97667.80
5505.286, 97505.14
5507.214, 97418.80
5509.143, 97274.91
5511.071, 96983.73
5513.000, 96545.81
5514.928, 96539.99
5516.856, 96673.18
5518.785, 96266.73
5520.713, 96215.92
5522.642, 96027.41
5524.570, 95661.03
5526.499, 95463.27
5528.427, 95393.24
5530.356, 95311.05
5532.284, 95156.79
5534.213, 95002.18
5536.141, 94798.19
5538.070, 94555.75
5539.998, 94292.42
5541.927, 94121.88
5543.855, 94107.14
5545.784, 94135.77
5547.712, 94065.34
5549.641, 93833.98
5551.569, 93471.00
5553.498, 93135.81
5555.426, 93073.95
5557.354, 92737.70
5559.283, 92613.05
5561.211, 92699.68
5563.140, 92356.95
5565.068, 92321.97
5566.997, 92258.05
5568.925, 92013.65
5570.854, 91897.78
5572.782, 91663.27
5574.710, 91403.09
5576.639, 91216.09
5578.567, 91206.60
5580.496, 90998.52
5582.424, 90680.64
5584.353, 90415.16
5586.281, 90452.09
5588.210, 90296.65
5590.138, 90017.86
5592.067, 89808.77
5593.995, 89916.48
5595.924, 89816.76
5597.852, 89480.25
5599.781, 89017.12
5601.709, 88996.72
5603.638, 88910.54
5605.566, 88696.53
5607.495, 88539.05
5609.423, 88422.26
5611.352, 88325.62
5613.280, 88189.08
5615.208, 87906.22
5617.137, 87687.51
5619.065, 87614.95
5620.994, 87568.55
5622.922, 87117.26
5624.851, 86862.11
5626.779, 86755.84
5628.708, 86684.02
5630.636, 86418.86
5632.564, 86138.26
5634.493, 85995.96
5636.421, 85983.09
5638.350, 85868.30
5640.278, 85687.26
5642.207, 85456.20
5644.135, 85203.55
5646.064, 84996.77
5647.992, 84784.01
5649.921, 84759.92
5651.849, 84878.88
5653.778, 84497.12
5655.706, 84425.66
5657.635, 84370.88
5659.563, 84137.88
5661.492, 83792.21
5663.420, 83493.57
5665.349, 83352.37
5667.277, 83361.41
5669.206, 83339.70
5671.134, 83179.85
5673.063, 82934.24
5674.991, 82710.36
5676.919, 82750.23
5678.848, 82611.25
5680.776, 82317.66
5682.705, 81958.39
5684.633, 81614.20
5686.562, 81676.77
5688.490, 81620.79
5690.418, 81318.51
5692.347, 81218.92
5694.275, 81113.73
5696.204, 80893.80
5698.132, 80607.06
5700.061, 80468.41
5701.989, 80400.40
5703.918, 80241.97
5705.846, 80025.85
5707.775, 79933.43
5709.703, 79738.80
5711.632, 79577.19
5713.560, 79442.35
5715.489, 79250.34
5717.417, 79175.71
5719.346, 79077.77
5721.274, 78908.38
5723.203, 78670.22
5725.131, 78439.95
5727.060, 78266.00
5728.988, 78144.18
5730.917, 78054.18
5732.845, 77923.13
5734.773, 77707.98
5736.702, 77531.60
5738.630, 77460.30
5740.559, 77116.65
5742.487, 77053.96
5744.416, 77128.41
5746.344, 77079.82
5748.272, 76391.98
5750.201, 76395.86
5752.129, 76329.62
5754.058, 75998.52
5755.986, 76081.74
5757.915, 75801.27
5759.843, 75512.70
5761.772, 75350.98
5763.700, 75250.95
5765.629, 75267.75
5767.557, 75119.01
5769.486, 74982.68
5771.414, 75116.30
5773.343, 74791.52
5775.271, 74575.65
5777.200, 74422.14
5779.128, 74199.55
5781.057, 73929.16
5782.985, 73930.52
5784.914, 73754.29
5786.842, 73303.05
5788.771, 73113.62
5790.699, 73133.13
5792.627, 73131.13
5794.556, 73000.88
5796.484, 72719.35
5798.413, 72658.89
5800.341, 72536.04
5802.270, 72257.86
5804.198, 71865.82
5806.126, 71758.78
5808.055, 71730.58
5809.983, 71800.95
5811.912, 71908.43
5813.840, 71671.59
5815.769, 71324.93
5817.697, 71054.20
5819.626, 70882.90
5821.554, 70699.84
5823.483, 70716.91
5825.411, 70531.41
5827.340, 70253.62
5829.268, 70126.67
5831.197, 69926.44
5833.125, 69842.21
5835.054, 69668.77
5836.982, 69361.16
5838.911, 69312.80
5840.839, 69249.92
5842.768, 69204.38
5844.696, 69031.94
5846.625, 68484.40
5848.553, 68684.45
5850.481, 68631.29
5852.410, 68349.75
5854.338, 68109.77
5856.267, 68059.80
5858.195, 67833.42
5860.124, 67710.10
5862.052, 67674.95
5863.980, 67387.50
5865.909, 67298.93
5867.837, 67256.70
5869.766, 67028.83
5871.694, 66561.58
5873.623, 66690.75
5875.551, 66655.05
5877.480, 66444.87
5879.408, 66179.44
5881.337, 65991.83
5883.265, 65920.20
5885.194, 65910.98
5887.122, 65826.23
5889.051, 65566.17
5890.979, 65284.70
5892.908, 65154.54
5894.836, 65050.22
5896.765, 64921.12
5898.693, 64845.98
5900.622, 64799.52
5902.550, 64588.10
5904.479, 64344.26
5906.407, 64245.64
5908.335, 64305.60
5910.264, 63864.91
5912.192, 63742.57
5914.121, 63888.63
5916.049, 63436.41
5917.978, 63368.27
5919.906, 63144.82
5921.834, 62992.08
5923.763, 63075.05
5925.691, 62831.47
5927.620, 62640.43
5929.548, 62483.04
5931.477, 62326.05
5933.405, 62170.47
5935.334, 62171.28
5937.262, 61934.61
5939.191, 61652.50
5941.119, 61499.45
5943.048, 61489.55
5944.976, 61263.68
5946.905, 61066.64
5948.833, 60961.19
5950.762, 60891.63
5952.690, 60634.74
5954.619, 60532.54
5956.547, 60392.07
5958.476, 60262.74
5960.404, 60292.57
5962.333, 59883.34
5964.261, 59865.52
5966.189, 59825.28
5968.118, 59590.51
5970.046, 59490.79
5971.975, 59399.07
5973.903, 59235.41
5975.832, 59116.91
5977.760, 59059.46
5979.688, 58662.14
5981.617, 58453.02
5983.545, 58294.59
5985.474, 58247.25
5987.402, 58371.43
5989.331, 58157.13
5991.259, 58047.11
5993.188, 57730.91
5995.116, 57428.61
5997.045, 57646.50
5998.973, 57310.98
6000.902, 57167.44
6002.830, 57123.93
6004.759, 57034.43
6006.687, 56830.86
6008.616, 56594.61
6010.544, 56433.37
6012.473, 56305.30
6014.401, 56199.19
6016.330, 56201.31
6018.258, 56020.61
6020.187, 55787.70
6022.115, 55639.72
6024.043, 55565.45
6025.972, 55323.73
6027.900, 55288.57
6029.829, 55091.92
6031.757, 54811.93
6033.686, 54631.14
6035.614, 54685.15
6037.542, 54615.42
6039.471, 54614.74
6041.399, 54559.32
6043.328, 54366.48
6045.256, 54338.62
6047.185, 54112.05
6049.113, 53796.35
6051.042, 53593.59
6052.970, 53567.01
6054.899, 53405.93
6056.827, 53343.32
6058.756, 53042.00
6060.684, 52866.95
6062.613, 53026.64
6064.541, 52661.07
6066.470, 52618.49
6068.398, 52617.48
6070.327, 52433.79
6072.255, 52093.35
6074.184, 52029.12
6076.112, 52121.70
6078.041, 51867.50
6079.969, 51618.47
6081.897, 51653.77
6083.826, 51598.07
6085.754, 51380.91
6087.683, 51095.91
6089.611, 50898.07
6091.540, 50829.78
6093.468, 50759.95
6095.396, 50590.95
6097.325, 50287.32
6099.253, 50186.30
6101.182, 50233.09
6103.110, 49891.39
6105.039, 49941.90
6106.967, 49814.36
6108.896, 49634.74
6110.824, 49456.66
6112.753, 49165.29
6114.681, 49065.59
6116.610, 49139.03
6118.538, 49010.97
6120.467, 48854.38
6122.395, 49016.73
6124.324, 48718.47
6126.252, 48427.07
6128.181, 48362.17
6130.109, 48288.84
6132.038, 48014.53
6133.966, 47945.95
6135.895, 47979.45
6137.823, 47648.58
6139.751, 47419.69
6141.680, 47508.21
6143.608, 47377.92
6145.537, 47226.05
6147.465, 47230.18
6149.394, 47138.30
6151.322, 46861.67
6153.250, 46510.09
6155.179, 46519.76
6157.107, 46445.98
6159.036, 46334.62
6160.964, 46140.49
6162.893, 45864.16
6164.821, 46026.42
6166.750, 45754.38
6168.678, 45684.86
6170.607, 45573.65
6172.535, 45283.55
6174.464, 45201.48
6176.392, 45211.35
6178.321, 45040.36
6180.249, 44929.69
6182.178, 44869.00
6184.106, 44693.06
6186.035, 44554.62
6187.963, 44402.05
6189.892, 44330.69
6191.820, 44228.36
6193.749, 44020.97
6195.677, 43787.12
6197.605, 43828.84
6199.534, 43737.96
6201.462, 43639.48
6203.391, 43600.73
6205.319, 43538.21
6207.248, 43134.74
6209.176, 43088.73
6211.104, 42921.04
6213.033, 42704.21
6214.961, 42566.72
6216.890, 42442.05
6218.818, 42595.61
6220.747, 42408.58
6222.675, 42270.13
6224.604, 42169.67
6226.532, 41966.69
6228.461, 41936.80
6230.389, 41762.11
6232.318, 41575.26
6234.246, 41470.11
6236.175, 41378.66
6238.103, 41194.90
6240.032, 41145.71
6241.960, 41050.28
6243.889, 40992.00
6245.817, 40852.28
6247.746, 40629.78
6249.674, 40546.64
6251.603, 40539.88
6253.531, 40306.79
6255.459, 40143.29
6257.388, 40070.20
6259.316, 39968.20
6261.245, 39793.29
6263.173, 39757.98
6265.102, 39653.12
6267.030, 39651.72
6268.958, 39605.72
6270.887, 39333.64
6272.815, 39245.63
6274.744, 39098.67
6276.672, 38884.58
6278.601, 38789.10
6280.529, 38824.56
6282.458, 38846.69
6284.386, 38637.95
6286.315, 38333.61
6288.243, 38110.26
6290.172, 38122.34
6292.100, 38072.15
6294.029, 37668.72
6295.957, 37804.88
6297.886, 37555.77
6299.814, 37570.48
6301.743, 37609.45
6303.671, 37403.57
6305.600, 37065.77
6307.528, 37180.10
6309.457, 37209.66
6311.385, 36953.13
6313.313, 36913.25
6315.242, 37005.97
6317.170, 36756.59
6319.099, 36452.31
6321.027, 36213.41
6322.956, 36140.36
6324.884, 36239.17
6326.813, 36296.21
6328.741, 36104.08
6330.669, 35821.13
6332.598, 35818.99
6334.526, 35827.84
6336.455, 35730.12
6338.383, 35470.98
6340.312, 35152.27
6342.240, 35257.18
6344.169, 35176.97
6346.097, 35091.72
6348.026, 35000.45
6349.954, 34900.15
6351.883, 34817.89
6353.811, 34778.33
6355.740, 34671.04
6357.668, 34457.05
6359.597, 34415.82
6361.525, 34403.50
6363.454, 34239.65
6365.382, 33975.75
6367.311, 33989.36
6369.239, 33912.10
6371.167, 33799.89
6373.096, 33696.26
6375.024, 33592.45
6376.953, 33489.38
6378.881, 33495.81
6380.810, 33405.36
6382.738, 33354.34
6384.667, 33190.80
6386.595, 32986.75
6388.523, 32895.78
6390.452, 32964.89
6392.380, 32779.34
6394.309, 32781.43
6396.237, 32652.30
6398.166, 32480.07
6400.094, 32347.15
6402.023, 32206.03
6403.951, 32030.72
6405.880, 32016.41
6407.808, 31894.12
6409.737, 31717.74
6411.665, 31679.87
6413.594, 31789.70
6415.522, 31801.43
6417.451, 31392.20
6419.379, 31434.45
6421.308, 31304.69
6423.236, 31157.68
6425.165, 31073.03
6427.093, 30992.09
6429.021, 31018.95
6430.950, 30930.40
6432.878, 30860.74
6434.807, 30727.90
6436.735, 30615.50
6438.664, 30514.53
6440.592, 30334.27
6442.521, 30111.69
6444.449, 30259.00
6446.377, 30079.59
6448.306, 30115.10
6450.234, 30149.69
6452.163, 29971.64
6454.091, 29748.34
6456.020, 29617.32
6457.948, 29602.51
6459.877, 29534.82
6461.805, 29482.86
6463.734, 29370.61
6465.662, 29216.18
6467.591, 29163.04
6469.519, 29181.05
6471.448, 29014.22
6473.376, 28894.62
6475.305, 28867.26
6477.233, 28884.08
6479.162, 28835.33
6481.090, 28661.40
6483.019, 28549.03
6484.947, 28359.28
6486.875, 28226.50
6488.804, 28272.67
6490.732, 28258.26
6492.661, 28122.54
6494.589, 28034.80
6496.518, 28028.38
6498.446, 27985.97
6500.375, 27948.73
6502.303, 27926.15
6504.231, 27726.37
6506.160, 27537.08
6508.088, 27548.62
6510.017, 27401.04
6511.945, 27334.01
6513.874, 27243.86
6515.802, 27268.88
6517.731, 27067.56
6519.659, 26956.20
6521.588, 27097.64
6523.516, 26935.97
6525.445, 26841.81
6527.373, 26815.80
6529.302, 26729.50
6531.230, 26547.88
6533.159, 26388.26
6535.087, 26326.68
6537.016, 26290.92
6538.944, 26129.34
6540.873, 26058.70
6542.801, 26079.70
6544.729, 26101.72
6546.658, 26032.17
6548.586, 25869.62
6550.515, 25764.35
6552.443, 25891.19
6554.372, 25658.85
6556.300, 25527.72
6558.229, 25563.04
6560.157, 25535.11
6562.085, 25366.38
6564.014, 25272.43
6565.942, 25326.57
6567.871, 25196.58
6569.799, 25049.49
6571.728, 24944.12
6573.656, 25062.87
6575.585, 24962.96
6577.513, 24756.65
6579.442, 24636.55
6581.370, 24582.12
##END=



