##NAMES=Calcioancylite-(Ce)
##RRUFFID=R130005
##IDEAL CHEMISTRY=(Ce,Ca,Sr)(CO_3_)(OH,H_2_O)
##LOCALITY=Mont Saint-Hilaire, Rouville RCM, Monteregie, Quebec, Canada
##OWNER=RRUFF
##SOURCE=Don Doell
##DESCRIPTION=Granular massive, green under sunlight, light red under microscope light, associated with albite and rhodochrosite
##STATUS=The identification of this mineral has been confirmed only by single crystal X-ray diffraction
##URL=https://www.rruff.net/odr/rruff_sample/R130005
##DIFFRACTION SAMPLE DESCRIPTION=Single crystal, powder profile is calculated
##CELL PARAMETERS=a: 4.994 b: 8.5 c: 7.264 alpha: 90 beta: 90 gamma: 90 volume: 308.33 crystal system: monoclinic
##FILETYPE=Raman Processed
##RAMAN WAVELENGTH=532

178.8949, 183.0358
180.8233, 222.1536
182.7518, 261.7890
184.6803, 308.6454
186.6087, 366.9751
188.5372, 429.0106
190.4657, 493.2067
192.3941, 561.7138
194.3226, 623.1416
196.2511, 663.6311
198.1795, 665.7714
200.1080, 668.8776
202.0365, 671.0336
203.9649, 675.7536
205.8934, 684.7441
207.8219, 698.3923
209.7503, 714.4476
211.6788, 732.8542
213.6073, 753.4910
215.5357, 775.5000
217.4642, 800.2086
219.3927, 825.0070
221.3211, 848.1584
223.2496, 870.0960
225.1781, 888.9799
227.1065, 905.1502
229.0350, 918.1849
230.9635, 927.8897
232.8919, 933.1307
234.8204, 936.3990
236.7489, 938.7030
238.6773, 940.4718
240.6058, 937.8320
242.5343, 930.1088
244.4627, 917.9529
246.3912, 900.8925
248.3197, 878.2220
250.2481, 850.2558
252.1766, 815.4719
254.1051, 774.2704
256.0335, 730.7559
257.9620, 684.6724
259.8905, 637.8135
261.8189, 593.1722
263.7474, 550.5665
265.6759, 511.0622
267.6043, 474.9012
269.5328, 441.6918
271.4613, 412.6699
273.3897, 387.8685
275.3182, 366.4689
277.2467, 348.0751
279.1751, 332.8729
281.1036, 319.2326
283.0321, 306.2569
284.9605, 293.9228
286.8890, 283.3647
288.8175, 274.9911
290.7459, 267.7968
292.6744, 261.0722
294.6029, 254.6631
296.5313, 248.7221
298.4598, 243.2622
300.3883, 238.4107
302.3167, 234.3396
304.2452, 230.8057
306.1737, 227.4501
308.1021, 224.2219
310.0306, 221.3258
311.9591, 219.3311
313.8875, 218.1846
315.8160, 217.4680
317.7445, 216.6590
319.6729, 215.7589
321.6014, 215.0340
323.5299, 214.4353
325.4583, 213.9653
327.3868, 214.4656
329.3153, 216.1317
331.2437, 218.5014
333.1722, 221.0482
335.1007, 223.4275
337.0291, 226.5173
338.9576, 230.8650
340.8861, 236.7300
342.8145, 243.6109
344.7430, 250.7827
346.6715, 258.2025
348.5999, 265.8796
350.5284, 273.8503
352.4569, 282.9536
354.3853, 294.0406
356.3138, 305.9905
358.2423, 317.3925
360.1707, 327.6122
362.0992, 336.8582
364.0277, 345.4003
365.9561, 353.2507
367.8846, 360.2156
369.8131, 367.3583
371.7415, 372.0644
373.6700, 373.4422
375.5985, 370.6872
377.5269, 364.4694
379.4554, 354.9492
381.3839, 342.9081
383.3123, 329.5233
385.2408, 314.0568
387.1693, 298.1142
389.0977, 282.4093
391.0262, 267.5792
392.9547, 253.0914
394.8831, 237.9708
396.8116, 223.5240
398.7401, 210.8278
400.6685, 200.5614
402.5970, 191.4813
404.5255, 182.8042
406.4539, 174.4058
408.3824, 167.2228
410.3109, 161.9925
412.2393, 157.5399
414.1678, 153.2177
416.0963, 148.6051
418.0247, 144.7827
419.9532, 142.1477
421.8817, 140.0627
423.8102, 137.7649
425.7386, 135.4031
427.6671, 133.3727
429.5956, 131.8291
431.5240, 130.5566
433.4525, 129.3242
435.3810, 127.6839
437.3094, 126.0152
439.2379, 124.1925
441.1664, 122.8663
443.0948, 122.1870
445.0233, 122.3801
446.9518, 122.5811
448.8802, 122.2233
450.8087, 121.2340
452.7372, 120.1953
454.6656, 119.0563
456.5941, 117.8640
458.5226, 116.8125
460.4510, 116.3373
462.3795, 115.9939
464.3080, 115.7143
466.2364, 115.4317
468.1649, 115.0932
470.0934, 114.5111
472.0218, 113.9409
473.9503, 113.6251
475.8788, 113.6672
477.8072, 113.5131
479.7357, 113.0961
481.6642, 112.5204
483.5926, 111.7749
485.5211, 110.9118
487.4496, 110.3192
489.3780, 110.1434
491.3065, 110.2104
493.2350, 110.2875
495.1634, 110.5902
497.0919, 110.6571
499.0204, 110.1899
500.9488, 109.2022
502.8773, 108.3148
504.8058, 107.5199
506.7342, 106.9747
508.6627, 106.8266
510.5912, 107.2273
512.5197, 107.6102
514.4481, 108.1528
516.3766, 108.1651
518.3051, 107.4999
520.2335, 106.0266
522.1620, 105.1283
524.0905, 105.3873
526.0189, 106.3886
527.9474, 107.1019
529.8759, 107.2883
531.8043, 107.0814
533.7328, 106.5233
535.6613, 105.8908
537.5897, 105.4559
539.5182, 105.2211
541.4467, 105.0899
543.3751, 105.1216
545.3036, 105.3039
547.2321, 105.3762
549.1605, 105.3474
551.0890, 105.2372
553.0175, 104.8481
554.9459, 103.9238
556.8744, 103.2694
558.8029, 103.2866
560.7313, 103.7597
562.6598, 104.2005
564.5883, 104.6761
566.5167, 104.9700
568.4452, 104.9298
570.3737, 104.5676
572.3021, 104.2839
574.2306, 104.0792
576.1591, 103.9254
578.0875, 103.7984
580.0160, 103.9701
581.9445, 104.0479
583.8729, 103.9912
585.8014, 103.7354
587.7299, 103.4133
589.6583, 102.9893
591.5868, 102.6206
593.5153, 102.2759
595.4437, 102.1497
597.3722, 102.2644
599.3007, 102.6310
601.2291, 102.8103
603.1576, 102.5329
605.0861, 102.1826
607.0145, 102.0784
608.9430, 102.4953
610.8715, 102.6828
612.7999, 102.3521
614.7284, 101.6266
616.6569, 101.3074
618.5853, 101.7102
620.5138, 102.1784
622.4423, 102.2965
624.3707, 102.0544
626.2992, 102.1567
628.2277, 103.2443
630.1561, 104.2209
632.0846, 104.2395
634.0131, 103.1602
635.9415, 102.5575
637.8700, 103.0275
639.7985, 103.8048
641.7269, 104.3005
643.6554, 104.3781
645.5839, 104.4603
647.5123, 104.6391
649.4408, 104.8080
651.3693, 104.7093
653.2977, 103.9976
655.2262, 103.9176
657.1547, 105.5014
659.0831, 107.9845
661.0116, 109.4629
662.9401, 108.7448
664.8685, 108.3287
666.7970, 108.7831
668.7255, 109.9474
670.6539, 111.1235
672.5824, 111.8474
674.5109, 113.2788
676.4393, 115.4035
678.3678, 118.2255
680.2963, 123.3647
682.2247, 128.8450
684.1532, 137.9956
686.0817, 152.8327
688.0101, 172.8565
689.9386, 196.6385
691.8671, 226.8794
693.7955, 258.0953
695.7240, 289.6811
697.6525, 325.4388
699.5809, 349.0866
701.5094, 358.9901
703.4379, 358.6623
705.3663, 346.0680
707.2948, 319.1371
709.2233, 296.3410
711.1517, 277.8623
713.0802, 267.5036
715.0087, 269.8375
716.9371, 289.1315
718.8656, 312.7146
720.7941, 346.5521
722.7225, 380.7879
724.6510, 408.1000
726.5795, 431.8128
728.5079, 440.0142
730.4364, 426.0995
732.3649, 396.9809
734.2933, 361.6689
736.2218, 314.3488
738.1503, 270.4295
740.0787, 232.6290
742.0072, 201.5282
743.9357, 176.8940
745.8641, 160.6776
747.7926, 148.0223
749.7211, 137.6772
751.6495, 129.5819
753.5780, 123.4361
755.5065, 119.4823
757.4349, 116.3261
759.3634, 113.7707
761.2919, 111.7506
763.2203, 110.1006
765.1488, 108.6997
767.0773, 107.8518
769.0057, 108.0041
770.9342, 108.9976
772.8627, 109.3622
774.7911, 108.8016
776.7196, 108.1016
778.6481, 107.6056
780.5765, 107.4735
782.5050, 107.4803
784.4335, 107.6101
786.3619, 107.4908
788.2904, 107.0889
790.2189, 107.1529
792.1473, 107.4854
794.0758, 107.9311
796.0043, 108.1407
797.9327, 108.3845
799.8612, 108.6109
801.7897, 108.4957
803.7181, 107.7923
805.6466, 107.2960
807.5751, 106.9237
809.5035, 106.6712
811.4320, 106.5965
813.3605, 106.6213
815.2889, 106.8932
817.2174, 107.2498
819.1459, 107.8508
821.0743, 108.1133
823.0028, 107.5954
824.9313, 107.1935
826.8597, 107.4433
828.7882, 107.9124
830.7167, 108.1237
832.6451, 108.0616
834.5736, 108.2345
836.5021, 108.7290
838.4305, 109.4674
840.3590, 110.5265
842.2875, 112.2674
844.2159, 113.9330
846.1444, 114.7972
848.0729, 114.8851
850.0013, 115.9928
851.9298, 118.8353
853.8583, 121.7423
855.7867, 123.7107
857.7152, 124.8072
859.6437, 125.1470
861.5721, 124.4300
863.5006, 122.9835
865.4291, 120.9373
867.3575, 118.6698
869.2860, 116.6240
871.2145, 115.2222
873.1429, 114.3878
875.0714, 113.9595
876.9999, 113.3962
878.9283, 112.9628
880.8568, 112.6947
882.7853, 112.2637
884.7137, 111.1957
886.6422, 110.1941
888.5707, 109.7532
890.4991, 110.0270
892.4276, 110.5225
894.3561, 111.0586
896.2845, 111.5799
898.2130, 112.1479
900.1415, 112.5552
902.0699, 113.0249
903.9984, 113.9005
905.9269, 114.9839
907.8553, 115.6419
909.7838, 115.7933
911.7123, 115.7169
913.6407, 115.4482
915.5692, 115.0244
917.4977, 114.7826
919.4261, 115.1586
921.3546, 115.8856
923.2831, 116.9320
925.2115, 117.6977
927.1400, 117.9896
929.0685, 118.0149
930.9969, 118.2790
932.9254, 119.1031
934.8539, 120.3819
936.7823, 121.7915
938.7108, 122.6303
940.6393, 123.1626
942.5677, 123.7764
944.4962, 124.9457
946.4247, 126.8091
948.3531, 128.1571
950.2816, 128.9980
952.2101, 129.7768
954.1385, 131.0934
956.0670, 132.9593
957.9955, 135.2286
959.9240, 137.5188
961.8524, 139.3770
963.7809, 141.0040
965.7094, 142.7013
967.6378, 144.7405
969.5663, 146.8919
971.4948, 149.1790
973.4232, 151.2504
975.3517, 152.9641
977.2802, 154.7652
979.2086, 156.9415
981.1371, 157.9223
983.0656, 157.7128
984.9940, 157.2648
986.9225, 157.7281
988.8510, 158.4210
990.7794, 158.2780
992.7079, 157.8083
994.6364, 157.4149
996.5648, 157.1895
998.4933, 156.7198
1000.422, 155.6740
1002.350, 154.1205
1004.279, 152.6460
1006.207, 151.6346
1008.136, 151.0002
1010.064, 150.0860
1011.993, 149.1725
1013.921, 148.3335
1015.849, 147.3186
1017.778, 146.0291
1019.706, 144.9902
1021.635, 144.1931
1023.563, 143.3069
1025.492, 142.4598
1027.420, 141.6638
1029.349, 140.8523
1031.277, 140.2130
1033.206, 139.9564
1035.134, 140.2191
1037.063, 140.8453
1038.991, 141.9158
1040.920, 144.2184
1042.848, 147.3430
1044.776, 151.4951
1046.705, 157.3249
1048.633, 165.3956
1050.562, 176.4366
1052.490, 189.6645
1054.419, 208.2715
1056.347, 233.5068
1058.276, 268.5201
1060.204, 316.3287
1062.133, 378.2419
1064.061, 457.9493
1065.990, 565.3939
1067.918, 701.5225
1069.847, 870.0252
1071.775, 1073.173
1073.703, 1293.623
1075.632, 1542.613
1077.560, 1811.203
1079.489, 2055.313
1081.417, 2263.429
1083.346, 2423.958
1085.274, 2529.521
1087.203, 2485.916
1089.131, 2272.942
1091.060, 1940.172
1092.988, 1558.102
1094.917, 1118.918
1096.845, 763.0081
1098.774, 521.9268
1100.702, 363.5139
1102.630, 261.5914
1104.559, 216.9983
1106.487, 189.8966
1108.416, 173.7561
1110.344, 163.0208
1112.273, 155.4208
1114.201, 150.4876
1116.130, 146.4554
1118.058, 142.2941
1119.987, 139.0753
1121.915, 137.9605
1123.844, 138.2405
1125.772, 138.3060
1127.701, 137.6668
1129.629, 136.9715
1131.557, 135.9900
1133.486, 135.3962
1135.414, 135.7923
1137.343, 137.2750
1139.271, 138.3570
1141.200, 138.4546
1143.128, 137.3021
1145.057, 135.8441
1146.985, 135.0362
1148.914, 135.1303
1150.842, 136.1943
1152.771, 137.1990
1154.699, 137.5260
1156.628, 137.0376
1158.556, 136.3860
1160.484, 135.7044
1162.413, 134.9850
1164.341, 133.7785
1166.270, 133.1518
1168.198, 133.5604
1170.127, 134.0896
1172.055, 133.8326
1173.984, 132.8259
1175.912, 132.3882
1177.841, 132.6832
1179.769, 132.8507
1181.698, 132.8127
1183.626, 132.6248
1185.555, 132.0134
1187.483, 130.1374
1189.411, 128.6189
1191.340, 128.6249
1193.268, 129.7012
1195.197, 130.1732
1197.125, 129.3894
1199.054, 128.7022
1200.982, 128.4713
1202.911, 128.3453
1204.839, 127.8222
1206.768, 127.0712
1208.696, 126.8903
1210.625, 127.6722
1212.553, 128.0180
1214.482, 127.6214
1216.410, 127.1959
1218.339, 126.9953
1220.267, 126.9939
1222.195, 126.6863
1224.124, 125.8642
1226.052, 125.1142
1227.981, 124.6394
1229.909, 124.3740
1231.838, 124.2705
1233.766, 124.7648
1235.695, 124.9361
1237.623, 124.2454
1239.552, 123.4944
1241.480, 123.4547
1243.409, 124.2395
1245.337, 125.0074
1247.266, 125.7905
1249.194, 125.9239
1251.122, 125.3694
1253.051, 124.6742
1254.979, 124.4664
1256.908, 124.9488
1258.836, 125.2729
1260.765, 125.1839
1262.693, 124.7650
1264.622, 124.3928
1266.550, 124.1178
1268.479, 123.9679
1270.407, 123.7225
1272.336, 123.7931
1274.264, 124.6316
1276.193, 125.6813
1278.121, 125.8664
1280.049, 124.9341
1281.978, 124.3111
1283.906, 124.1906
1285.835, 124.5639
1287.763, 125.5526
1289.692, 126.8346
1291.620, 127.8064
1293.549, 128.3987
1295.477, 128.9403
1297.406, 129.5114
1299.334, 129.9672
1301.263, 130.2155
1303.191, 130.2539
1305.120, 130.1009
1307.048, 129.3793
1308.976, 128.9801
1310.905, 129.3071
1312.833, 129.8884
1314.762, 130.3182
1316.690, 130.5568
1318.619, 130.8897
1320.547, 131.2704
1322.476, 131.8255
1324.404, 132.4704
1326.333, 133.1241
1328.261, 134.1432
1330.190, 135.7291
1332.118, 137.0701
1334.047, 137.5809
1335.975, 138.1256
1337.903, 139.3216
1339.832, 141.0865
1341.760, 142.9290
1343.689, 144.7706
1345.617, 146.8193
1347.546, 149.0950
1349.474, 151.5659
1351.403, 154.2947
1353.331, 157.3242
1355.260, 160.2590
1357.188, 162.6813
1359.117, 165.5587
1361.045, 169.5093
1362.974, 173.8024
1364.902, 177.5048
1366.830, 180.5370
1368.759, 183.3616
1370.687, 185.9588
1372.616, 188.2776
1374.544, 190.1840
1376.473, 191.8868
1378.401, 193.6368
1380.330, 195.4763
1382.258, 197.3541
1384.187, 199.0581
1386.115, 201.1357
1388.044, 203.9090
1389.972, 207.2133
1391.901, 210.8085
1393.829, 214.7422
1395.757, 218.7007
1397.686, 222.5617
1399.614, 226.4268
1401.543, 230.5594
1403.471, 234.8550
1405.400, 238.7028
1407.328, 241.6069
1409.257, 245.0361
1411.185, 249.8386
1413.114, 254.3393
1415.042, 257.0267
1416.971, 258.7895
1418.899, 262.4894
1420.828, 268.9309
1422.756, 275.1668
1424.684, 280.0408
1426.613, 285.5390
1428.541, 293.1722
1430.470, 302.2512
1432.398, 311.1135
1434.327, 319.7994
1436.255, 327.4273
1438.184, 333.2484
1440.112, 338.7143
1442.041, 345.8866
1443.969, 353.1173
1445.898, 356.2736
1447.826, 354.5250
1449.755, 351.2790
1451.683, 346.6707
1453.611, 341.5871
1455.540, 336.6515
1457.468, 331.5363
1459.397, 324.7622
1461.325, 315.3770
1463.254, 307.1490
1465.182, 301.9738
1467.111, 296.7393
1469.039, 289.3641
1470.968, 280.6958
1472.896, 273.4686
1474.825, 268.6733
1476.753, 263.2551
1478.682, 256.6252
1480.610, 250.0836
1482.538, 244.1707
1484.467, 238.8032
1486.395, 233.6329
1488.324, 228.3761
1490.252, 223.3352
1492.181, 218.0495
1494.109, 213.9221
1496.038, 212.0539
1497.966, 211.0320
1499.895, 209.1008
1501.823, 206.4338
1503.752, 204.0996
1505.680, 202.2193
1507.609, 200.5659
1509.537, 198.9315
1511.465, 197.5966
1513.394, 197.0046
1515.322, 197.1890
1517.251, 197.4215
1519.179, 197.5033
1521.108, 197.6984
1523.036, 198.2408
1524.965, 198.7959
1526.893, 198.9718
1528.822, 198.7581
1530.750, 198.7936
1532.679, 199.2542
1534.607, 199.8611
1536.536, 200.5361
1538.464, 201.4797
1540.392, 202.7634
1542.321, 204.3867
1544.249, 206.6922
1546.178, 210.2215
1548.106, 212.6636
1550.035, 212.1711
1551.963, 212.1851
1553.892, 214.1702
1555.820, 217.1966
1557.749, 219.8479
1559.677, 221.8171
1561.606, 224.2531
1563.534, 228.1953
1565.463, 231.3982
1567.391, 232.9148
1569.319, 234.0385
1571.248, 235.9936
1573.176, 238.6457
1575.105, 240.7058
1577.033, 242.0999
1578.962, 242.8479
1580.890, 242.2791
1582.819, 241.9425
1584.747, 242.9024
1586.676, 244.5927
1588.604, 245.9449
1590.533, 247.0423
1592.461, 247.5789
1594.390, 246.7286
1596.318, 246.3759
1598.246, 246.8420
1600.175, 248.1661
1602.103, 250.8383
1604.032, 254.6779
1605.960, 257.2827
1607.889, 258.0028
1609.817, 258.9331
1611.746, 260.6521
1613.674, 262.5874
1615.603, 264.4243
1617.531, 266.2304
1619.460, 268.2644
1621.388, 270.6074
1623.317, 272.6099
1625.245, 273.4138
1627.173, 275.1651
1629.102, 279.0597
1631.030, 283.9284
1632.959, 288.6306
1634.887, 293.2816
1636.816, 298.6231
1638.744, 305.1617
1640.673, 310.5501
1642.601, 313.1411
1644.530, 315.8774
1646.458, 320.6968
1648.387, 326.5839
1650.315, 331.9576
1652.244, 336.8344
1654.172, 341.6870
1656.100, 346.3387
1658.029, 351.4410
1659.957, 357.7708
1661.886, 364.0280
1663.814, 369.5782
1665.743, 374.3039
1667.671, 377.6402
1669.600, 379.4537
1671.528, 381.6761
1673.457, 384.6158
1675.385, 388.0995
1677.314, 392.7294
1679.242, 397.3348
1681.171, 400.5459
1683.099, 402.7176
1685.027, 405.4856
1686.956, 408.9506
1688.884, 412.6243
1690.813, 416.5977
1692.741, 420.4251
1694.670, 423.5368
1696.598, 426.6249
1698.527, 430.3472
1700.455, 434.7570
1702.384, 440.3742
1704.312, 447.9012
1706.241, 454.1232
1708.169, 457.6911
1710.098, 460.5144
1712.026, 463.7813
1713.954, 466.9616
1715.883, 469.2558
1717.811, 470.7110
1719.740, 471.9415
1721.668, 472.9937
1723.597, 473.7078
1725.525, 474.1937
1727.454, 473.9995
1729.382, 472.9364
1731.311, 470.8857
1733.239, 467.6083
1735.168, 463.1510
1737.096, 458.0111
1739.025, 452.0092
1740.953, 446.2123
1742.881, 441.3394
1744.810, 436.3551
1746.738, 430.0366
1748.667, 423.4874
1750.595, 418.4690
1752.524, 414.9196
1754.452, 411.6677
1756.381, 408.6776
1758.309, 405.8294
1760.238, 402.9705
1762.166, 400.3593
1764.095, 397.9631
1766.023, 395.9406
1767.952, 394.8165
1769.880, 394.4366
1771.808, 393.1544
1773.737, 390.4070
1775.665, 388.2025
1777.594, 387.2539
1779.522, 386.7626
1781.451, 386.6446
1783.379, 386.6313
1785.308, 386.1993
1787.236, 385.4564
1789.165, 385.3387
1791.093, 386.1683
1793.022, 386.5522
1794.950, 386.0648
1796.879, 385.3347
1798.807, 383.9160
1800.735, 382.9226
1802.664, 383.8549
1804.592, 386.3415
1806.521, 388.3607
1808.449, 389.5953
1810.378, 391.4663
1812.306, 394.4421
1814.235, 397.4469
1816.163, 400.4230
1818.092, 403.0418
1820.020, 405.0127
1821.949, 406.4495
1823.877, 407.5772
1825.806, 408.3234
1827.734, 409.3804
1829.662, 410.4644
1831.591, 412.4063
1833.519, 415.9928
1835.448, 419.6862
1837.376, 422.7114
1839.305, 425.3050
1841.233, 427.7560
1843.162, 430.0275
1845.090, 432.1386
1847.019, 434.1143
1848.947, 435.7806
1850.876, 436.9837
1852.804, 438.1131
1854.733, 439.5233
1856.661, 440.7425
1858.589, 441.1434
1860.518, 441.1108
1862.446, 441.6358
1864.375, 442.7151
1866.303, 444.3689
1868.232, 447.1754
1870.160, 448.8564
1872.089, 447.7222
1874.017, 446.9023
1875.946, 448.3286
1877.874, 450.6115
1879.803, 452.0347
1881.731, 454.4858
1883.660, 455.3078
1885.588, 459.1712
1887.516, 462.2686
1889.445, 464.2508
1891.373, 465.4702
1893.302, 465.4198
1895.230, 465.3711
1897.159, 466.5431
1899.087, 468.0148
1901.016, 467.7125
1902.944, 469.8217
1904.873, 471.9890
1906.801, 472.9215
1908.730, 477.1378
1910.658, 478.5482
1912.587, 480.1213
1914.515, 483.3138
1916.443, 486.2608
1918.372, 486.5305
1920.300, 486.1862
1922.229, 489.5848
1924.157, 496.7301
1926.086, 501.7761
1928.014, 503.5582
1929.943, 505.4258
1931.871, 507.3491
1933.800, 509.3834
1935.728, 511.2842
1937.657, 513.5554
1939.585, 517.0233
1941.514, 520.9340
1943.442, 524.3060
1945.371, 527.0979
1947.299, 527.4476
1949.228, 524.4915
1951.156, 523.6044
1953.084, 526.7930
1955.013, 529.3519
1956.941, 528.8305
1958.870, 528.1556
1960.798, 529.6993
1962.727, 531.9680
1964.655, 532.5904
1966.584, 534.4615
1968.512, 533.3549
1970.441, 536.6581
1972.369, 538.6890
1974.298, 538.3157
1976.226, 538.0444
1978.155, 538.3198
1980.083, 539.1141
1982.011, 541.2377
1983.940, 543.2983
1985.868, 543.1928
1987.797, 541.7341
1989.725, 541.9478
1991.654, 544.2639
1993.582, 545.5599
1995.511, 544.8957
1997.439, 544.9138
1999.368, 546.5931
2001.296, 547.9622
2003.225, 548.0085
2005.153, 548.0248
2007.082, 549.0740
2009.010, 550.7200
2010.938, 552.2975
2012.867, 553.8207
2014.795, 555.1127
2016.724, 556.1185
2018.652, 557.3681
2020.581, 558.7806
2022.509, 560.7449
2024.438, 564.1848
2026.366, 567.0408
2028.295, 568.1581
2030.223, 568.2907
2032.152, 567.2689
2034.080, 566.1309
2036.009, 567.9110
2037.937, 572.7521
2039.865, 575.7704
2041.794, 575.8658
2043.722, 576.3656
2045.651, 577.7549
2047.579, 578.8278
2049.508, 579.1658
2051.436, 579.3517
2053.365, 580.1565
2055.293, 580.5213
2057.222, 578.6983
2059.150, 575.7367
2061.079, 574.7387
2063.007, 575.4824
2064.936, 575.4572
2066.864, 574.6452
2068.792, 572.1158
2070.721, 566.3638
2072.649, 562.0927
2074.578, 562.5872
2076.506, 562.5963
2078.435, 558.7218
2080.363, 553.6644
2082.292, 549.6964
2084.220, 546.6897
2086.149, 544.7258
2088.077, 543.7877
2090.006, 541.9166
2091.934, 538.9977
2093.863, 535.7328
2095.791, 531.8163
2097.719, 528.2969
2099.648, 525.1962
2101.576, 522.6907
2103.505, 521.7722
2105.433, 520.4368
2107.362, 516.8410
2109.290, 512.3055
2111.219, 508.4362
2113.147, 505.1940
2115.076, 502.2696
2117.004, 499.6436
2118.933, 497.5073
2120.861, 496.0909
2122.790, 494.1938
2124.718, 491.3055
2126.646, 488.2692
2128.575, 485.1866
2130.503, 482.1146
2132.432, 479.3660
2134.360, 476.5731
2136.289, 473.6492
2138.217, 470.4375
2140.146, 465.9308
2142.074, 460.7238
2144.003, 458.1908
2145.931, 458.3730
2147.860, 456.7231
2149.788, 452.2348
2151.717, 448.2272
2153.645, 445.8646
2155.573, 443.0885
2157.502, 438.2841
2159.430, 434.2679
2161.359, 433.5173
2163.287, 433.2271
2165.216, 431.0796
2167.144, 427.4733
2169.073, 422.5844
2171.001, 416.7536
2172.930, 411.8776
2174.858, 407.9234
2176.787, 406.2849
2178.715, 407.6401
2180.644, 407.2519
2182.572, 403.7780
2184.500, 400.1955
2186.429, 397.3956
2188.357, 394.7234
2190.286, 391.8214
2192.214, 389.0814
2194.143, 386.4776
2196.071, 384.4375
2198.000, 383.9505
2199.928, 384.2915
2201.857, 383.4030
2203.785, 381.3602
2205.714, 380.1551
2207.642, 379.9115
2209.571, 378.9246
2211.499, 376.8642
2213.427, 375.1538
2215.356, 374.2708
2217.284, 373.2298
2219.213, 370.8759
2221.141, 369.3490
2223.070, 370.3624
2224.998, 371.6539
2226.927, 371.4416
2228.855, 370.5948
2230.784, 370.0826
2232.712, 369.8890
2234.641, 370.1397
2236.569, 370.7540
2238.498, 370.7018
2240.426, 369.9648
2242.354, 369.1767
2244.283, 368.4547
2246.211, 367.0140
2248.140, 364.2809
2250.068, 361.9605
2251.997, 360.4312
2253.925, 359.5286
2255.854, 359.9478
2257.782, 360.0714
2259.711, 358.5089
2261.639, 356.6147
2263.568, 355.8092
2265.496, 355.3819
2267.425, 354.0747
2269.353, 352.2796
2271.281, 351.5594
2273.210, 349.5707
2275.138, 347.2754
2277.067, 345.7329
2278.995, 342.3538
2280.924, 339.6962
2282.852, 337.8514
2284.781, 337.9562
2286.709, 336.9239
2288.638, 332.8075
2290.566, 329.6550
2292.495, 329.3050
2294.423, 329.4402
2296.352, 329.8589
2298.280, 329.3536
2300.208, 326.2764
2302.137, 322.3526
2304.065, 319.2860
2305.994, 317.0575
2307.922, 315.8174
2309.851, 315.3835
2311.779, 314.9538
2313.708, 314.5345
2315.636, 313.7926
2317.565, 312.7874
2319.493, 310.9590
2321.422, 307.7255
2323.350, 306.4804
2325.279, 308.9940
2327.207, 309.8486
2329.135, 306.3803
2331.064, 303.1512
2332.992, 301.8893
2334.921, 301.2944
2336.849, 301.2779
2338.778, 300.9453
2340.706, 299.3782
2342.635, 297.3144
2344.563, 295.1723
2346.492, 293.3874
2348.420, 293.1953
2350.349, 293.8650
2352.277, 293.3343
2354.206, 291.8038
2356.134, 290.3275
2358.063, 288.8380
2359.991, 288.7195
2361.919, 287.8861
2363.848, 286.8774
2365.776, 287.5853
2367.705, 285.3670
2369.633, 285.4657
2371.562, 285.5407
2373.490, 285.1991
2375.419, 284.6042
2377.347, 283.2038
2379.276, 282.5111
2381.204, 283.9217
2383.133, 285.3900
2385.061, 285.2412
2386.990, 284.9631
2388.918, 286.2610
2390.846, 287.8770
2392.775, 288.1598
2394.703, 287.6880
2396.632, 287.3517
2398.560, 287.1466
2400.489, 287.0929
2402.417, 287.1831
2404.346, 287.7198
2406.274, 288.7689
2408.203, 287.8301
2410.131, 283.8809
2412.060, 282.8328
2413.988, 285.4607
2415.917, 287.5799
2417.845, 288.7273
2419.773, 289.7090
2421.702, 290.8926
2423.630, 291.1343
2425.559, 288.5749
2427.487, 287.5334
2429.416, 290.5548
2431.344, 293.4669
2433.273, 294.2114
2435.201, 294.9521
2437.130, 297.8326
2439.058, 299.8911
2440.987, 297.8001
2442.915, 295.4475
2444.844, 296.9785
2446.772, 299.7423
2448.700, 300.6793
2450.629, 300.4435
2452.557, 299.6921
2454.486, 298.8586
2456.414, 299.2038
2458.343, 300.4785
2460.271, 301.9777
2462.200, 303.4059
2464.128, 302.8257
2466.057, 302.8259
2467.985, 301.9585
2469.914, 299.8878
2471.842, 298.9136
2473.771, 295.2076
2475.699, 292.7838
2477.627, 291.9584
2479.556, 291.5448
2481.484, 291.6817
2483.413, 291.0707
2485.341, 289.1079
2487.270, 287.2134
2489.198, 286.1257
2491.127, 284.5384
2493.055, 281.1395
2494.984, 278.7397
2496.912, 279.4979
2498.841, 279.6923
2500.769, 277.5637
2502.698, 274.9569
2504.626, 271.9546
2506.554, 269.9677
2508.483, 270.8246
2510.411, 272.1042
2512.340, 271.7660
2514.268, 270.8241
2516.197, 270.1066
2518.125, 269.6414
2520.054, 269.6342
2521.982, 269.7470
2523.911, 269.1267
2525.839, 268.4574
2527.768, 269.1305
2529.696, 270.7627
2531.625, 272.8955
2533.553, 275.0920
2535.481, 274.9088
2537.410, 276.2497
2539.338, 276.7257
2541.267, 276.5230
2543.195, 277.5275
2545.124, 276.7039
2547.052, 277.3096
2548.981, 277.0453
2550.909, 276.2816
2552.838, 276.6286
2554.766, 274.9638
2556.695, 274.9180
2558.623, 274.8505
2560.552, 274.7343
2562.480, 273.8836
2564.408, 272.0654
2566.337, 270.0628
2568.265, 267.1444
2570.194, 265.7183
2572.122, 266.3839
2574.051, 267.1955
2575.979, 268.3003
2577.908, 267.8584
2579.836, 264.0012
2581.765, 261.9553
2583.693, 265.1648
2585.622, 266.9499
2587.550, 264.6830
2589.479, 262.5041
2591.407, 261.2192
2593.335, 260.4487
2595.264, 260.7103
2597.192, 260.2255
2599.121, 256.8120
2601.049, 254.5748
2602.978, 256.5851
2604.906, 258.4667
2606.835, 258.0928
2608.763, 257.0873
2610.692, 255.9649
2612.620, 254.8687
2614.549, 253.3484
2616.477, 252.5543
2618.406, 253.7066
2620.334, 255.2717
2622.262, 256.7103
2624.191, 257.4449
2626.119, 256.5818
2628.048, 255.3736
2629.976, 254.2757
2631.905, 253.8421
2633.833, 254.9229
2635.762, 256.4765
2637.690, 258.2056
2639.619, 259.0563
2641.547, 256.8080
2643.476, 254.2126
2645.404, 254.0901
2647.333, 255.2991
2649.261, 257.5749
2651.189, 259.5359
2653.118, 259.0775
2655.046, 257.5310
2656.975, 256.0202
2658.903, 255.0881
2660.832, 256.4722
2662.760, 258.0695
2664.689, 256.6252
2666.617, 253.9853
2668.546, 252.3598
2670.474, 251.9038
2672.403, 253.8053
2674.331, 256.3420
2676.260, 256.2487
2678.188, 255.1537
2680.116, 255.6717
2682.045, 256.8406
2683.973, 257.2021
2685.902, 256.8905
2687.830, 255.3686
2689.759, 253.8752
2691.687, 255.7146
2693.616, 254.7506
2695.544, 257.8224
2697.473, 255.6322
2699.401, 255.5501
2701.330, 256.3609
2703.258, 255.3368
2705.187, 256.0363
2707.115, 254.6378
2709.043, 256.4336
2710.972, 256.9379
2712.900, 256.7014
2714.829, 256.6184
2716.757, 256.5471
2718.686, 256.0217
2720.614, 255.4899
2722.543, 256.0812
2724.471, 255.4936
2726.400, 256.3896
2728.328, 255.4216
2730.257, 255.4566
2732.185, 256.0605
2734.114, 256.9106
2736.042, 257.5959
2737.970, 257.2642
2739.899, 256.6452
2741.827, 256.9662
2743.756, 257.3100
2745.684, 255.6763
2747.613, 256.7587
2749.541, 255.3113
2751.470, 257.4833
2753.398, 258.5810
2755.327, 258.6142
2757.255, 256.5894
2759.184, 254.6143
2761.112, 255.8106
2763.041, 257.3522
2764.969, 255.6009
2766.897, 253.7305
2768.826, 254.6767
2770.754, 256.4102
2772.683, 257.4830
2774.611, 258.1436
2776.540, 258.6393
2778.468, 258.6767
2780.397, 257.7799
2782.325, 256.7251
2784.254, 255.5618
2786.182, 255.0659
2788.111, 256.4109
2790.039, 257.6667
2791.968, 257.6319
2793.896, 257.4422
2795.824, 257.4648
2797.753, 257.7376
2799.681, 258.7227
2801.610, 259.2643
2803.538, 258.1789
2805.467, 257.7160
2807.395, 259.1388
2809.324, 259.7418
2811.252, 257.4397
2813.181, 256.5675
2815.109, 259.9913
2817.038, 262.2538
2818.966, 262.2001
2820.895, 261.5746
2822.823, 260.4430
2824.751, 259.7550
2826.680, 259.6767
2828.608, 260.2859
2830.537, 260.1227
2832.465, 260.2428
2834.394, 261.1302
2836.322, 261.5620
2838.251, 262.1122
2840.179, 263.4957
2842.108, 264.6694
2844.036, 266.1646
2845.965, 268.0735
2847.893, 268.8845
2849.822, 270.0281
2851.750, 270.9871
2853.678, 271.1486
2855.607, 271.8003
2857.535, 271.4147
2859.464, 270.3203
2861.392, 268.9397
2863.321, 269.2030
2865.249, 270.6732
2867.178, 272.2530
2869.106, 273.6060
2871.035, 273.0329
2872.963, 272.0709
2874.892, 274.6837
2876.820, 278.1608
2878.749, 278.4273
2880.677, 277.5775
2882.605, 278.1700
2884.534, 279.1790
2886.462, 279.2206
2888.391, 279.6456
2890.319, 282.3125
2892.248, 284.5913
2894.176, 284.9601
2896.105, 283.9067
2898.033, 279.3467
2899.962, 277.5032
2901.890, 282.9426
2903.819, 287.3101
2905.747, 286.3353
2907.676, 285.6894
2909.604, 286.8589
2911.532, 287.7908
2913.461, 288.1187
2915.389, 288.3086
2917.318, 288.2474
2919.246, 288.7445
2921.175, 289.9078
2923.103, 291.4647
2925.032, 293.4189
2926.960, 294.5970
2928.889, 294.8965
2930.817, 296.0700
2932.746, 297.9955
2934.674, 297.9107
2936.603, 296.5221
2938.531, 297.0580
2940.459, 298.7856
2942.388, 300.0097
2944.316, 300.6364
2946.245, 299.9408
2948.173, 298.9992
2950.102, 299.4140
2952.030, 300.3326
2953.959, 301.1613
2955.887, 301.7600
2957.816, 301.5685
2959.744, 301.7257
2961.673, 302.9909
2963.601, 304.4716
2965.530, 306.0978
2967.458, 307.2230
2969.386, 308.1291
2971.315, 309.1003
2973.243, 309.6002
2975.172, 310.2173
2977.100, 310.1568
2979.029, 310.0281
2980.957, 309.7432
2982.886, 310.1613
2984.814, 311.2720
2986.743, 311.9440
2988.671, 312.2316
2990.600, 314.3508
2992.528, 315.4844
2994.457, 319.0855
2996.385, 319.3592
2998.313, 321.5092
3000.242, 324.1058
3002.170, 324.8186
3004.099, 324.5262
3006.027, 323.5226
3007.956, 323.0110
3009.884, 324.1215
3011.813, 325.7315
3013.741, 327.6000
3015.670, 328.9596
3017.598, 328.9139
3019.527, 329.7613
3021.455, 330.7703
3023.384, 331.5884
3025.312, 333.3799
3027.240, 333.6535
3029.169, 336.1815
3031.097, 336.7309
3033.026, 338.5196
3034.954, 339.8329
3036.883, 341.2219
3038.811, 342.8548
3040.740, 342.6417
3042.668, 345.3246
3044.597, 345.9070
3046.525, 349.0909
3048.454, 348.0296
3050.382, 348.1189
3052.311, 348.7556
3054.239, 349.4666
3056.167, 350.4748
3058.096, 351.7780
3060.024, 353.7067
3061.953, 356.7412
3063.881, 359.5103
3065.810, 361.9489
3067.738, 363.1056
3069.667, 361.8175
3071.595, 362.2220
3073.524, 364.4300
3075.452, 366.3359
3077.381, 367.8509
3079.309, 369.5670
3081.238, 371.3716
3083.166, 372.7070
3085.094, 373.9053
3087.023, 376.0183
3088.951, 377.9465
3090.880, 377.4838
3092.808, 377.4635
3094.737, 381.0944
3096.665, 384.3757
3098.594, 385.1569
3100.522, 385.4481
3102.451, 385.3133
3104.379, 385.9824
3106.308, 386.3038
3108.236, 388.6784
3110.165, 387.9258
3112.093, 388.5360
3114.021, 390.5362
3115.950, 393.7340
3117.878, 397.3541
3119.807, 398.7984
3121.735, 398.7507
3123.664, 397.2146
3125.592, 396.4061
3127.521, 399.4183
3129.449, 403.2206
3131.378, 406.1764
3133.306, 408.5312
3135.235, 409.8198
3137.163, 411.8795
3139.092, 413.7181
3141.020, 415.0800
3142.948, 416.7494
3144.877, 417.7803
3146.805, 419.2902
3148.734, 420.2218
3150.662, 420.9058
3152.591, 423.4179
3154.519, 426.6491
3156.448, 428.1317
3158.376, 428.8937
3160.305, 428.9862
3162.233, 430.4272
3164.162, 436.8945
3166.090, 441.0653
3168.019, 438.6745
3169.947, 438.5197
3171.875, 444.9445
3173.804, 449.0161
3175.732, 450.0761
3177.661, 450.2032
3179.589, 449.9887
3181.518, 454.2859
3183.446, 461.0062
3185.375, 462.9402
3187.303, 462.6315
3189.232, 462.3133
3191.160, 463.8576
3193.089, 470.7633
3195.017, 477.0669
3196.946, 479.5081
3198.874, 482.3619
3200.802, 486.9808
3202.731, 492.2190
3204.659, 498.0767
3206.588, 503.5695
3208.516, 508.6791
3210.445, 513.9244
3212.373, 519.1867
3214.302, 523.8339
3216.230, 528.4932
3218.159, 533.9608
3220.087, 540.1453
3222.016, 547.2917
3223.944, 554.6223
3225.873, 561.6569
3227.801, 569.1768
3229.729, 577.6586
3231.658, 585.6689
3233.586, 592.8151
3235.515, 603.4691
3237.443, 613.3732
3239.372, 627.4244
3241.300, 636.4679
3243.229, 647.1791
3245.157, 659.8973
3247.086, 678.7816
3249.014, 693.4735
3250.943, 693.2333
3252.871, 693.5165
3254.800, 698.2001
3256.728, 705.6270
3258.656, 717.2447
3260.585, 724.2020
3262.513, 726.7348
3264.442, 731.4464
3266.370, 736.6314
3268.299, 735.9690
3270.227, 739.4453
3272.156, 737.3607
3274.084, 740.3358
3276.013, 737.9484
3277.941, 734.6215
3279.870, 731.8578
3281.798, 728.9034
3283.727, 725.7579
3285.655, 722.7593
3287.583, 719.8879
3289.512, 712.9122
3291.440, 710.5587
3293.369, 702.3817
3295.297, 701.7870
3297.226, 695.2252
3299.154, 687.9402
3301.083, 682.6152
3303.011, 678.4288
3304.940, 675.9406
3306.868, 672.5177
3308.797, 670.2050
3310.725, 668.3352
3312.654, 666.2869
3314.582, 665.5739
3316.510, 664.2051
3318.439, 663.6676
3320.367, 662.6462
3322.296, 658.8835
3324.224, 655.9230
3326.153, 655.7738
3328.081, 656.0921
3330.010, 656.8499
3331.938, 655.6213
3333.867, 652.1009
3335.795, 651.2151
3337.724, 652.2564
3339.652, 654.2988
3341.581, 655.3150
3343.509, 650.6447
3345.438, 646.7962
3347.366, 648.6302
3349.294, 650.2585
3351.223, 649.3994
3353.151, 650.7920
3355.080, 651.4130
3357.008, 650.9905
3358.937, 652.7673
3360.865, 651.5231
3362.794, 651.4451
3364.722, 653.6617
3366.651, 655.1442
3368.579, 651.4567
3370.508, 650.8223
3372.436, 656.4896
3374.365, 660.0152
3376.293, 659.7071
3378.221, 660.4766
3380.150, 661.8876
3382.078, 661.8373
3384.007, 661.4132
3385.935, 662.1943
3387.864, 663.4421
3389.792, 665.1986
3391.721, 666.0632
3393.649, 664.1429
3395.578, 665.4899
3397.506, 670.2520
3399.435, 671.0264
3401.363, 668.5270
3403.292, 664.8815
3405.220, 661.2365
3407.148, 657.1880
3409.077, 656.4336
3411.005, 664.4580
3412.934, 669.8416
3414.862, 670.4131
3416.791, 668.7486
3418.719, 665.2792
3420.648, 665.3030
3422.576, 667.2227
3424.505, 668.0552
3426.433, 667.5814
3428.362, 663.8364
3430.290, 661.8303
3432.219, 664.4871
3434.147, 665.2975
3436.075, 662.6412
3438.004, 661.0618
3439.932, 660.8515
3441.861, 664.0633
3443.789, 667.6736
3445.718, 665.8612
3447.646, 664.1873
3449.575, 667.6557
3451.503, 668.6559
3453.432, 664.9738
3455.360, 662.2295
3457.289, 660.9779
3459.217, 662.3453
3461.146, 665.5532
3463.074, 670.1734
3465.002, 673.9288
3466.931, 673.8143
3468.859, 674.5775
3470.788, 677.7834
3472.716, 681.1711
3474.645, 684.4746
3476.573, 684.6493
3478.502, 688.1589
3480.430, 690.7641
3482.359, 693.1868
3484.287, 696.9485
3486.216, 700.2830
3488.144, 703.3425
3490.073, 707.8134
3492.001, 714.0208
3493.929, 721.3319
3495.858, 729.0664
3497.786, 735.5831
3499.715, 740.7241
3501.643, 747.3663
3503.572, 753.6772
3505.500, 758.2628
3507.429, 767.5341
3509.357, 772.0170
3511.286, 780.3645
3513.214, 792.0178
3515.143, 804.9865
3517.071, 816.9486
3519.000, 823.6150
3520.928, 831.1758
3522.856, 844.2017
3524.785, 855.7347
3526.713, 865.2269
3528.642, 870.6761
3530.570, 873.2847
3532.499, 877.1863
3534.427, 880.7082
3536.356, 883.3362
3538.284, 882.7704
3540.213, 877.6423
3542.141, 870.1404
3544.070, 860.4854
3545.998, 852.2566
3547.927, 843.9586
3549.855, 828.7026
3551.783, 813.0692
3553.712, 802.7008
3555.640, 794.3745
3557.569, 787.6984
3559.497, 778.6667
3561.426, 766.8930
3563.354, 754.5850
3565.283, 742.1229
3567.211, 728.6698
3569.140, 717.8083
3571.068, 714.7564
3572.997, 708.6733
3574.925, 696.4907
3576.854, 684.6254
3578.782, 673.3712
3580.710, 662.9896
3582.639, 652.5961
3584.567, 642.2660
3586.496, 633.0286
3588.424, 623.4969
3590.353, 615.3071
3592.281, 606.2111
3594.210, 598.2508
3596.138, 591.2449
3598.067, 585.3704
3599.995, 578.9822
3601.924, 570.3102
3603.852, 561.7695
3605.781, 554.5857
3607.709, 546.2285
3609.637, 536.8992
3611.566, 527.9564
3613.494, 519.1526
3615.423, 510.0157
3617.351, 500.8632
3619.280, 491.4110
3621.208, 482.8622
3623.137, 475.2796
3625.065, 470.9387
3626.994, 464.4342
3628.922, 461.8742
3630.851, 455.7472
3632.779, 451.5073
3634.708, 449.3678
3636.636, 450.0379
3638.564, 448.7881
3640.493, 446.1123
3642.421, 445.1541
3644.350, 444.1749
3646.278, 440.5074
3648.207, 437.8711
3650.135, 438.9344
3652.064, 438.1113
3653.992, 435.7049
3655.921, 435.2560
3657.849, 435.9330
3659.778, 437.0313
3661.706, 437.5601
3663.635, 437.4550
3665.563, 434.9066
3667.491, 434.5583
3669.420, 433.8697
3671.348, 431.9338
3673.277, 432.6268
3675.205, 432.2788
3677.134, 430.9456
3679.062, 428.6078
3680.991, 430.0462
3682.919, 427.2180
3684.848, 432.5363
3686.776, 436.8701
3688.705, 439.0567
3690.633, 437.0583
3692.562, 435.6007
3694.490, 435.3258
3696.418, 438.7986
3698.347, 439.2400
3700.275, 444.0709
3702.204, 443.7744
3704.132, 448.1546
3706.061, 450.3991
3707.989, 448.5472
3709.918, 448.0352
3711.846, 448.6790
3713.775, 449.4798
3715.703, 449.7493
3717.632, 448.2891
3719.560, 447.9663
3721.489, 449.7503
3723.417, 451.9761
3725.345, 453.5664
3727.274, 449.9018
3729.202, 446.2281
3731.131, 447.4290
3733.059, 448.1361
3734.988, 446.4434
3736.916, 448.2431
3738.845, 451.1419
3740.773, 445.6566
3742.702, 440.2479
3744.630, 441.8776
3746.559, 444.2296
3748.487, 446.4526
3750.416, 443.9251
3752.344, 438.5441
3754.272, 434.6913
3756.201, 432.5690
3758.129, 429.6173
3760.058, 431.7396
3761.986, 426.5388
3763.915, 424.5004
3765.843, 423.5667
3767.772, 418.6266
3769.700, 413.8566
3771.629, 411.0444
3773.557, 410.8533
3775.486, 413.4633
3777.414, 412.1187
3779.343, 408.4206
3781.271, 404.1563
3783.199, 400.1426
3785.128, 396.2266
3787.056, 395.1862
3788.985, 396.9327
3790.913, 400.7019
3792.842, 402.8613
3794.770, 397.2960
3796.699, 391.6292
3798.627, 387.6668
3800.556, 388.3196
3802.484, 391.9626
3804.413, 390.9641
3806.341, 388.6750
3808.270, 387.5302
3810.198, 386.6169
3812.126, 385.7957
3814.055, 383.8514
3815.983, 381.3653
3817.912, 379.9776
3819.840, 378.3501
3821.769, 376.8838
3823.697, 376.0220
3825.626, 374.3732
3827.554, 373.8381
3829.483, 372.3961
3831.411, 369.9339
3833.340, 368.0021
3835.268, 367.1413
3837.197, 366.7489
3839.125, 366.3437
3841.053, 364.1655
3842.982, 361.3388
3844.910, 358.5905
3846.839, 355.6348
3848.767, 352.4451
3850.696, 351.9253
3852.624, 352.1874
3854.553, 350.1325
3856.481, 347.1211
3858.410, 343.4015
3860.338, 339.7884
3862.267, 336.3887
3864.195, 332.9899
3866.124, 330.5108
3868.052, 330.2863
3869.980, 329.3503
3871.909, 326.8125
3873.837, 325.8666
3875.766, 325.0692
3877.694, 320.9229
3879.623, 317.3052
3881.551, 315.8824
3883.480, 314.3949
3885.408, 312.4954
3887.337, 309.4656
3889.265, 307.2927
3891.194, 306.0284
3893.122, 304.1657
3895.051, 304.0773
3896.979, 302.1441
3898.907, 301.6328
3900.836, 301.4975
3902.764, 300.1647
3904.693, 297.7915
3906.621, 293.9068
3908.550, 289.2118
3910.478, 291.2859
3912.407, 293.9268
3914.335, 290.2601
3916.264, 287.5112
3918.192, 287.7042
3920.121, 288.1570
3922.049, 287.2473
3923.978, 285.9644
3925.906, 285.6719
3927.834, 284.3851
3929.763, 284.1895
3931.691, 282.3271
3933.620, 282.0381
3935.548, 281.1416
3937.477, 280.3167
3939.405, 280.5851
3941.334, 279.5709
3943.262, 279.0117
3945.191, 280.3487
3947.119, 281.7139
3949.048, 280.2000
3950.976, 281.1273
3952.905, 279.1962
3954.833, 280.4212
3956.761, 280.1723
3958.690, 279.0891
3960.618, 276.4324
3962.547, 275.7823
3964.475, 276.8266
3966.404, 277.5807
3968.332, 277.2695
3970.261, 276.3997
3972.189, 275.5506
3974.118, 273.7717
3976.046, 272.5798
3977.975, 272.7656
3979.903, 274.0628
3981.832, 273.8642
3983.760, 273.7624
3985.688, 274.6832
3987.617, 274.4341
3989.545, 272.5460
3991.474, 271.4310
3993.402, 273.1151
3995.331, 274.0455
3997.259, 272.3412
3999.188, 270.3037
4001.116, 271.0222
4003.045, 272.6415
4004.973, 271.8416
4006.902, 270.1284
4008.830, 268.1664
4010.759, 267.3799
4012.687, 268.1382
4014.615, 267.6848
4016.544, 266.7314
4018.472, 267.9210
4020.401, 267.4999
4022.329, 265.6956
4024.258, 266.5786
4026.186, 265.8044
4028.115, 265.5945
4030.043, 265.8110
4031.972, 265.5293
4033.900, 266.0042
4035.829, 266.1587
4037.757, 265.8413
4039.686, 265.3120
4041.614, 265.0407
4043.542, 264.3669
4045.471, 263.4797
4047.399, 262.9100
4049.328, 262.9933
4051.256, 263.4930
4053.185, 263.7633
4055.113, 263.9172
4057.042, 264.2051
4058.970, 264.2967
4060.899, 263.8384
4062.827, 267.9167
4064.756, 271.3838
4066.684, 265.5658
4068.613, 262.6006
4070.541, 265.8920
4072.469, 265.2693
4074.398, 263.0045
4076.326, 263.5623
4078.255, 264.4178
4080.183, 264.3333
4082.112, 263.5017
4084.040, 262.9130
4085.969, 263.3159
4087.897, 266.3359
4089.826, 264.6885
4091.754, 265.4379
4093.683, 267.3793
4095.611, 266.0150
4097.540, 265.6350
4099.468, 268.3456
4101.396, 268.4753
4103.325, 267.4960
4105.253, 273.1450
4107.182, 276.9230
4109.110, 273.1145
4111.039, 272.6060
4112.967, 274.5661
4114.896, 273.1303
4116.824, 271.6673
4118.753, 272.5126
4120.681, 272.1729
4122.610, 271.7608
4124.538, 280.9803
4126.467, 288.2433
4128.395, 283.3006
4130.324, 280.3804
4132.252, 279.9099
4134.181, 279.0864
4136.109, 278.5718
4138.038, 278.1722
4139.966, 281.0533
4141.895, 280.4688
4143.823, 284.1659
4145.751, 281.8174
4147.680, 284.1091
4149.608, 285.0505
4151.537, 284.1105
4153.465, 282.9851
4155.394, 282.7390
4157.322, 284.0840
4159.250, 283.1039
4161.179, 284.8385
4163.107, 284.0387
4165.036, 287.8806
4166.964, 289.1652
4168.893, 290.9593
4170.821, 292.7101
4172.750, 292.4950
4174.678, 292.7213
4176.607, 295.0216
4178.535, 295.3788
4180.464, 294.2620
4182.392, 292.5726
4184.321, 292.3424
4186.249, 294.9835
4188.178, 297.4103
4190.106, 299.6911
4192.035, 300.7224
4193.963, 301.5235
4195.892, 302.9854
4197.820, 306.0880
4199.749, 309.1356
4201.677, 309.4432
4203.605, 308.9627
4205.534, 307.8184
4207.462, 309.3269
4209.391, 311.8786
4211.319, 311.3500
4213.248, 310.2733
4215.176, 309.5233
4217.104, 312.8558
4219.033, 316.9333
4220.961, 316.1497
4222.890, 315.3901
4224.818, 316.0385
4226.747, 318.2037
4228.675, 320.0328
4230.604, 319.8012
4232.532, 320.2530
4234.461, 321.8674
4236.389, 322.5340
4238.318, 323.5233
4240.246, 327.0907
4242.175, 328.8909
4244.103, 328.6389
4246.032, 327.9759
4247.960, 327.1930
4249.889, 326.7829
4251.817, 326.7441
4253.746, 327.2473
4255.674, 329.7726
4257.603, 332.2383
4259.531, 333.9335
4261.459, 333.1632
4263.388, 331.3479
4265.316, 331.3855
4267.245, 332.0233
4269.173, 332.8628
4271.102, 332.8530
4273.030, 333.1279
4274.958, 335.9159
4276.887, 336.9067
4278.815, 335.6859
4280.744, 343.0609
4282.672, 349.4078
4284.601, 345.6111
4286.529, 344.1166
4288.458, 345.5722
4290.386, 345.8732
4292.315, 345.8176
4294.243, 345.8001
4296.172, 345.2799
4298.100, 345.1600
4300.029, 348.5163
4301.957, 350.3786
4303.886, 349.4206
4305.814, 350.1570
4307.743, 351.4534
4309.671, 351.2576
4311.600, 353.8358
4313.528, 353.4557
4315.457, 356.5048
4317.385, 354.0810
4319.313, 355.7682
4321.242, 357.0125
4323.170, 357.4442
4325.099, 355.7626
4327.027, 357.4413
4328.956, 364.0427
4330.884, 366.3148
4332.813, 365.0431
4334.741, 360.6024
4336.669, 357.0391
4338.598, 355.2831
4340.526, 357.3903
4342.455, 360.1026
4344.383, 361.4239
4346.312, 361.6692
4348.240, 361.4526
4350.169, 361.9305
4352.097, 362.9485
4354.026, 364.4757
4355.954, 367.5107
4357.883, 368.8483
4359.811, 369.0943
4361.740, 370.4416
4363.668, 370.6180
4365.597, 370.5001
4367.525, 370.2286
4369.454, 368.7045
4371.382, 366.6240
4373.311, 365.0260
4375.239, 365.9273
4377.167, 368.4200
4379.096, 372.2717
4381.024, 371.5826
4382.953, 370.4178
4384.881, 372.1017
4386.810, 371.6452
4388.738, 370.2330
4390.667, 373.7365
4392.595, 374.4840
4394.523, 370.4100
4396.452, 368.0558
4398.380, 369.3209
4400.309, 377.9659
4402.237, 380.0270
4404.166, 376.2549
4406.094, 373.5213
4408.023, 373.7676
4409.951, 377.8351
4411.880, 377.2802
4413.808, 374.8848
4415.737, 373.9872
4417.665, 374.3242
4419.594, 375.5717
4421.522, 376.7957
4423.451, 377.0373
4425.379, 375.1873
4427.308, 374.4938
4429.236, 374.8758
4431.165, 374.5378
4433.093, 377.4520
4435.021, 375.9591
4436.950, 375.5143
4438.878, 377.0888
4440.807, 381.4551
4442.735, 382.0247
4444.664, 380.9127
4446.592, 381.2180
4448.521, 380.8801
4450.449, 380.0443
4452.377, 381.1128
4454.306, 382.0161
4456.234, 381.8314
4458.163, 380.1580
4460.091, 379.2489
4462.020, 382.5045
4463.948, 386.3270
4465.877, 389.4904
4467.805, 387.2231
4469.734, 386.6326
4471.662, 390.9454
4473.591, 393.1869
4475.519, 393.1789
4477.448, 389.7997
4479.376, 389.2300
4481.305, 391.4918
4483.233, 390.5491
4485.162, 397.8909
4487.090, 393.1974
4489.019, 392.8365
4490.947, 395.4576
4492.875, 401.8563
4494.804, 402.4048
4496.732, 399.1877
4498.661, 395.9586
4500.589, 396.0748
4502.518, 399.6303
4504.446, 398.8873
4506.375, 396.4626
4508.303, 393.5284
4510.231, 391.2682
4512.160, 389.9424
4514.088, 390.5931
4516.017, 388.6970
4517.945, 385.4257
4519.874, 387.1827
4521.802, 388.5396
4523.731, 387.3956
4525.659, 384.8995
4527.588, 382.9885
4529.516, 383.6612
4531.445, 384.3711
4533.373, 384.4301
4535.302, 382.2755
4537.230, 380.9466
4539.159, 381.0562
4541.087, 383.1942
4543.016, 385.3702
4544.944, 386.7225
4546.873, 386.6427
4548.801, 386.6077
4550.729, 388.3923
4552.658, 390.3806
4554.586, 391.6812
4556.515, 390.2124
4558.443, 387.7019
4560.372, 384.9738
4562.300, 386.8125
4564.229, 389.3780
4566.157, 390.9777
4568.085, 391.7478
4570.014, 391.2526
4571.942, 391.4244
4573.871, 390.8867
4575.799, 389.7924
4577.728, 389.1264
4579.656, 387.5917
4581.585, 385.9478
4583.513, 385.1096
4585.442, 384.2680
4587.370, 383.9113
4589.299, 383.6045
4591.227, 385.1288
4593.156, 385.5934
4595.084, 382.5395
4597.013, 379.2889
4598.941, 383.6294
4600.870, 385.2826
4602.798, 383.5018
4604.727, 381.2766
4606.655, 379.5429
4608.583, 378.5826
4610.512, 376.8429
4612.440, 378.1340
4614.369, 374.9660
4616.297, 375.2609
4618.226, 375.9631
4620.154, 372.3022
4622.083, 371.8177
4624.011, 372.6038
4625.939, 367.9138
4627.868, 364.9321
4629.796, 364.5817
4631.725, 364.7411
4633.653, 365.0630
4635.582, 365.3981
4637.510, 366.9952
4639.439, 368.3276
4641.367, 368.7076
4643.296, 363.0694
4645.224, 357.3631
4647.153, 358.9264
4649.081, 359.6721
4651.010, 359.1573
4652.938, 358.2845
4654.867, 356.9196
4656.795, 355.3557
4658.724, 356.1790
4660.652, 354.4863
4662.581, 349.4603
4664.509, 348.5179
4666.438, 348.7125
4668.366, 348.4419
4670.294, 348.9185
4672.223, 349.1928
4674.151, 348.4294
4676.080, 346.6505
4678.008, 344.5792
4679.937, 342.9565
4681.865, 342.5111
4683.793, 342.7052
4685.722, 342.4771
4687.650, 341.0360
4689.579, 339.0377
4691.507, 342.2367
4693.436, 341.5060
4695.364, 335.1823
4697.293, 336.4781
4699.221, 337.2589
4701.150, 333.5142
4703.078, 333.2263
4705.007, 333.8771
4706.935, 333.3649
4708.864, 333.4924
4710.792, 333.1400
4712.721, 330.6251
4714.649, 330.2943
4716.578, 330.7512
4718.506, 328.4606
4720.435, 328.4399
4722.363, 329.2256
4724.292, 323.6213
4726.220, 322.7930
4728.148, 326.2861
4730.077, 322.3511
4732.005, 320.5895
4733.934, 323.4374
4735.862, 325.2700
4737.791, 325.1286
4739.719, 322.7144
4741.647, 321.4800
4743.576, 322.1859
4745.504, 325.3263
4747.433, 321.4290
4749.361, 316.9862
4751.290, 317.7372
4753.218, 319.4518
4755.147, 320.3417
4757.075, 318.6677
4759.004, 316.2056
4760.932, 314.6798
4762.861, 317.5707
4764.789, 316.5638
4766.718, 313.6810
4768.646, 314.7743
4770.575, 313.4489
4772.503, 310.7625
4774.432, 311.6405
4776.360, 313.3866
4778.289, 314.6347
4780.217, 310.8883
4782.146, 310.6138
4784.074, 314.0353
4786.002, 313.0269
4787.931, 312.5799
4789.859, 313.9536
4791.788, 311.9875
4793.716, 311.3795
4795.645, 313.2613
4797.573, 311.2252
4799.501, 308.4973
4801.430, 306.6353
4803.358, 307.2770
4805.287, 308.2680
4807.215, 308.4754
4809.144, 308.5084
4811.072, 306.8543
4813.001, 301.9114
4814.929, 302.9584
4816.858, 305.6689
4818.786, 306.8080
4820.715, 304.2928
4822.643, 302.3040
4824.572, 304.9461
4826.500, 305.7152
4828.429, 304.8359
4830.357, 302.5536
4832.286, 301.3780
4834.214, 301.3416
4836.143, 302.6351
4838.071, 303.0685
4840.000, 302.8705
4841.928, 302.5741
4843.856, 301.0428
4845.785, 299.2755
4847.713, 298.9610
4849.642, 297.6984
4851.570, 296.1378
4853.499, 295.5293
4855.427, 294.4965
4857.355, 293.4692
4859.284, 293.6915
4861.212, 291.7379
4863.141, 290.0496
4865.069, 293.9766
4866.998, 294.3224
4868.926, 292.0180
4870.855, 289.2228
4872.783, 289.3492
4874.712, 290.6831
4876.640, 289.7610
4878.569, 288.6036
4880.497, 288.0609
4882.426, 289.5002
4884.354, 290.7305
4886.283, 290.3762
4888.211, 285.9532
4890.140, 283.1834
4892.068, 282.2375
4893.997, 282.1905
4895.925, 283.8489
4897.854, 285.3985
4899.782, 283.6719
4901.710, 283.4633
4903.639, 284.1525
4905.567, 284.0917
4907.496, 284.1805
4909.424, 283.1111
4911.353, 278.2968
4913.281, 277.0673
4915.209, 277.9976
4917.138, 278.6009
4919.066, 279.5984
4920.995, 279.2881
4922.923, 274.9610
4924.852, 274.0337
4926.780, 274.8436
4928.709, 275.3656
4930.637, 274.9329
4932.566, 274.0531
4934.494, 272.7765
4936.423, 274.5318
4938.351, 275.6787
4940.280, 273.3034
4942.208, 277.3369
4944.137, 279.3251
4946.065, 270.8969
4947.994, 270.2514
4949.922, 271.5235
4951.851, 271.5667
4953.779, 272.7015
4955.708, 271.7312
4957.636, 267.0656
4959.564, 269.9748
4961.493, 272.3963
4963.421, 271.3105
4965.350, 269.8312
4967.278, 268.1579
4969.207, 266.6970
4971.135, 267.8745
4973.063, 268.8068
4974.992, 268.8133
4976.920, 269.1492
4978.849, 266.7534
4980.777, 263.1458
4982.706, 264.4184
4984.634, 265.8447
4986.563, 266.7433
4988.491, 268.0116
4990.420, 266.7119
4992.348, 263.7711
4994.277, 260.4949
4996.205, 261.4943
4998.134, 263.1329
5000.062, 259.7863
5001.991, 259.4171
5003.919, 261.0567
5005.848, 263.5863
5007.776, 261.8174
5009.705, 260.3521
5011.633, 263.1991
5013.562, 261.3069
5015.490, 259.7597
5017.418, 260.6486
5019.347, 260.7494
5021.275, 257.8908
5023.204, 252.8434
5025.132, 256.0270
5027.061, 258.9317
5028.989, 258.9991
5030.917, 254.5379
5032.846, 253.8107
5034.774, 255.9680
5036.703, 256.4600
5038.631, 255.9033
5040.560, 255.1950
5042.488, 255.6427
5044.417, 254.9019
5046.345, 253.9793
5048.274, 253.9601
5050.202, 255.2223
5052.131, 255.9503
5054.059, 254.8747
5055.988, 252.5288
5057.916, 252.2531
5059.845, 254.5196
5061.773, 252.5062
5063.702, 250.7947
5065.630, 250.3875
5067.559, 248.8633
5069.487, 249.6689
5071.416, 252.2336
5073.344, 254.5971
5075.272, 252.6345
5077.201, 249.9444
5079.129, 252.7759
5081.058, 250.5948
5082.986, 248.0381
5084.915, 249.1553
5086.843, 249.1653
5088.771, 249.0437
5090.700, 249.2484
5092.628, 249.0861
5094.557, 247.9518
5096.485, 246.4122
5098.414, 248.4233
5100.342, 248.5075
5102.271, 247.4252
5104.199, 249.3124
5106.128, 248.5378
5108.056, 246.7885
5109.985, 246.9930
5111.913, 246.5297
5113.842, 245.2574
5115.770, 243.2565
5117.699, 245.1003
5119.627, 246.9636
5121.556, 247.2828
5123.484, 245.9544
5125.413, 244.8106
5127.341, 244.4326
5129.270, 245.7056
5131.198, 244.5571
5133.126, 242.7982
5135.055, 243.3535
5136.983, 244.2629
5138.912, 244.2620
5140.840, 242.3580
5142.769, 242.8874
5144.697, 241.9361
5146.625, 238.8755
5148.554, 238.8011
5150.482, 237.3787
5152.411, 235.8951
5154.339, 239.6950
5156.268, 242.1944
5158.196, 243.1813
5160.125, 243.2340
5162.053, 240.1476
5163.982, 238.4454
5165.910, 240.0040
5167.839, 238.2957
5169.767, 236.6105
5171.696, 236.9617
5173.624, 244.5423
5175.553, 246.6242
5177.481, 243.3512
5179.410, 237.1567
5181.338, 236.3498
5183.267, 237.9010
5185.195, 239.1612
5187.124, 241.7974
5189.052, 240.8013
5190.980, 236.2292
5192.909, 235.9197
5194.837, 237.6734
5196.766, 239.6120
5198.694, 239.3347
5200.623, 239.4572
5202.551, 239.9786
5204.479, 240.8153
5206.408, 241.3332
5208.336, 239.8620
5210.265, 237.1527
5212.193, 238.9146
5214.122, 241.3111
5216.050, 242.7479
5217.979, 241.2353
5219.907, 241.8652
5221.836, 241.6366
5223.764, 238.4868
5225.693, 238.3656
5227.621, 240.1181
5229.550, 242.2746
5231.478, 240.9931
5233.407, 242.5721
5235.335, 244.4266
5237.264, 240.8138
5239.192, 242.3905
5241.121, 243.8044
5243.049, 242.5787
5244.978, 245.2431
5246.906, 246.2968
5248.834, 245.1958
5250.763, 243.5384
5252.691, 243.2352
5254.620, 243.9867
5256.548, 245.4333
5258.477, 245.0924
5260.405, 244.9438
5262.333, 245.6465
5264.262, 247.4887
5266.190, 245.1589
5268.119, 241.8533
5270.047, 243.3130
5271.976, 246.5276
5273.904, 248.1195
5275.833, 246.7731
5277.761, 246.4991
5279.690, 247.7131
5281.618, 249.5314
5283.547, 250.3314
5285.475, 249.6031
5287.404, 249.3227
5289.332, 251.0883
5291.261, 249.6124
5293.189, 246.0161
5295.118, 242.6678
5297.046, 245.3510
5298.975, 246.0853
5300.903, 246.4527
5302.832, 248.9908
5304.760, 250.1961
5306.688, 250.6407
5308.617, 250.8696
5310.545, 251.8979
5312.474, 253.2869
5314.402, 253.2931
5316.331, 250.1696
5318.259, 249.2311
5320.188, 249.5743
5322.116, 250.9258
5324.044, 255.9773
5325.973, 255.6915
5327.901, 253.4983
5329.830, 255.0473
5331.758, 257.6750
5333.687, 257.7251
5335.615, 255.5598
5337.544, 260.1120
5339.472, 259.3928
5341.401, 257.2726
5343.329, 261.4443
5345.258, 261.8653
5347.186, 262.2524
5349.115, 264.0976
5351.043, 266.8582
5352.972, 269.7109
5354.900, 271.6865
5356.829, 271.8940
5358.757, 270.5013
5360.686, 271.2399
5362.614, 274.3956
5364.542, 275.9964
5366.471, 276.5565
5368.399, 277.2077
5370.328, 278.7524
5372.256, 277.7185
5374.185, 277.2414
5376.113, 278.0764
5378.042, 279.5780
5379.970, 280.0135
5381.898, 279.6131
5383.827, 278.6899
5385.755, 277.4310
5387.684, 280.3705
5389.612, 284.0449
5391.541, 280.1921
5393.469, 276.3033
5395.398, 276.4191
5397.326, 281.2917
5399.255, 281.5449
5401.183, 281.9980
5403.112, 282.4018
5405.040, 281.1644
5406.969, 280.0353
5408.897, 281.6426
5410.826, 284.1111
5412.754, 276.5310
5414.683, 276.1952
5416.611, 278.2822
5418.540, 277.2598
5420.468, 280.3678
5422.396, 280.8055
5424.325, 278.4538
5426.253, 276.4082
5428.182, 274.4419
5430.110, 275.5161
5432.039, 279.0945
5433.967, 275.0475
5435.896, 275.4349
5437.824, 277.1012
5439.752, 274.8950
5441.681, 273.0645
5443.609, 274.2222
5445.538, 276.2993
5447.466, 272.8145
5449.395, 273.4210
5451.323, 275.7650
5453.252, 277.3565
5455.180, 275.2147
5457.109, 274.4775
5459.037, 273.0337
5460.966, 267.3375
5462.894, 268.8713
5464.823, 270.7898
5466.751, 271.1549
5468.680, 270.7425
5470.608, 268.4122
5472.537, 267.2582
5474.465, 268.1031
5476.394, 267.1431
5478.322, 267.7526
5480.250, 269.2602
5482.179, 270.6709
5484.107, 267.0454
5486.036, 263.6713
5487.964, 263.0342
5489.893, 267.1924
5491.821, 262.5083
5493.750, 262.0722
5495.678, 267.4014
5497.606, 267.5611
5499.535, 266.1349
##END=



