##NAMES=Calcite
##RRUFFID=R050009
##IDEAL CHEMISTRY=Ca(CO_3_)
##LOCALITY=Amparo mine, Rodeo, Durango, Mexico
##OWNER=RRUFF
##SOURCE=Eugene Schlepp
##DESCRIPTION=Colorless cleavage rhomb
##STATUS=The identification of this mineral has been confirmed by X-ray diffraction and chemical analysis
##URL=https://www.rruff.net/odr/rruff_sample/R050009
##MEASURED CHEMISTRY=Ca_1.00_CO_3_ ; trace amounts of Mn
##DIFFRACTION SAMPLE DESCRIPTION=Powder
##CELL PARAMETERS=a: 4.9892 b: 4.9892 c: 17.062 alpha: 90 beta: 90 gamma: 120 volume: 367.81 crystal system: hexagonal
##FILETYPE=Raman RAW
##RAMAN WAVELENGTH=532

81.35571, 85.75009
83.28418, 90.38968
85.21265, 93.61052
87.14111, 94.41090
89.06958, 93.61391
90.99805, 93.18488
92.92651, 94.07112
94.85498, 94.54423
96.78345, 93.39587
98.71191, 88.87366
100.6404, 86.22521
102.5688, 87.25204
104.4973, 90.96275
106.4258, 94.47319
108.3542, 96.84914
110.2827, 99.53529
112.2112, 103.4890
114.1396, 108.4793
116.0681, 115.0380
117.9966, 123.5154
119.9250, 133.9922
121.8535, 144.1346
123.7820, 151.0564
125.7104, 159.6510
127.6389, 172.9299
129.5674, 192.0898
131.4958, 214.9798
133.4243, 242.0218
135.3528, 273.4909
137.2813, 305.9295
139.2097, 338.6841
141.1382, 372.2863
143.0667, 407.7675
144.9951, 435.9389
146.9236, 475.5453
148.8521, 538.3446
150.7805, 622.7604
152.7090, 705.2775
154.6375, 795.5009
156.5659, 878.2473
158.4944, 926.4156
160.4229, 933.5595
162.3513, 918.1221
164.2798, 885.3177
166.2083, 829.2805
168.1367, 780.4716
170.0652, 741.7199
171.9937, 711.8638
173.9221, 685.2921
175.8506, 662.0083
177.7791, 641.7271
179.7075, 624.3171
181.6360, 609.4203
183.5645, 598.0803
185.4929, 592.4955
187.4214, 590.4026
189.3499, 588.4094
191.2783, 584.5958
193.2068, 582.0748
195.1353, 582.4725
197.0637, 586.0287
198.9922, 590.2790
200.9207, 594.7727
202.8491, 599.7572
204.7776, 605.5912
206.7061, 612.4587
208.6345, 619.4063
210.5630, 626.2917
212.4915, 633.4625
214.4199, 639.9586
216.3484, 645.9865
218.2769, 651.2782
220.2053, 654.8709
222.1338, 653.0316
224.0623, 654.5484
225.9907, 663.6956
227.9192, 685.2145
229.8477, 701.4578
231.7761, 709.1769
233.7046, 712.2166
235.6331, 716.1444
237.5615, 719.2286
239.4900, 726.1779
241.4185, 739.1368
243.3469, 760.1390
245.2754, 780.1208
247.2039, 792.9698
249.1323, 807.7028
251.0608, 832.7197
252.9893, 877.6359
254.9177, 923.2594
256.8462, 963.9084
258.7747, 1000.278
260.7031, 1041.794
262.6316, 1084.557
264.5601, 1136.452
266.4885, 1204.176
268.4170, 1289.792
270.3455, 1390.627
272.2739, 1507.763
274.2024, 1640.336
276.1309, 1789.888
278.0593, 1993.838
279.9878, 2190.967
281.9163, 2350.913
283.8447, 2484.996
285.7732, 2555.278
287.7017, 2523.685
289.6301, 2417.448
291.5586, 2298.841
293.4871, 2157.918
295.4155, 2013.824
297.3440, 1871.503
299.2725, 1728.718
301.2009, 1599.148
303.1294, 1488.232
305.0579, 1391.994
306.9863, 1305.693
308.9148, 1226.199
310.8433, 1158.705
312.7717, 1106.996
314.7002, 1069.761
316.6287, 1039.807
318.5571, 1017.784
320.4856, 1001.174
322.4141, 988.2977
324.3425, 979.1232
326.2710, 971.7512
328.1995, 965.2563
330.1279, 959.8755
332.0564, 958.1518
333.9849, 960.7104
335.9133, 965.2292
337.8418, 972.1013
339.7703, 981.6623
341.6987, 989.5440
343.6272, 993.8069
345.5557, 996.3007
347.4841, 999.5451
349.4126, 1004.764
351.3411, 1009.316
353.2695, 1011.921
355.1980, 1012.401
357.1265, 1012.942
359.0549, 1011.707
360.9834, 1011.691
362.9119, 1017.595
364.8403, 1031.995
366.7688, 1044.849
368.6973, 1051.989
370.6257, 1053.808
372.5542, 1057.283
374.4827, 1063.247
376.4111, 1071.915
378.3396, 1081.141
380.2681, 1090.272
382.1965, 1097.843
384.1250, 1103.725
386.0535, 1108.649
387.9819, 1113.064
389.9104, 1113.711
391.8389, 1117.680
393.7673, 1130.556
395.6958, 1149.781
397.6243, 1162.091
399.5527, 1158.243
401.4812, 1152.339
403.4097, 1154.291
405.3381, 1165.988
407.2666, 1177.495
409.1951, 1186.234
411.1235, 1194.119
413.0520, 1202.617
414.9805, 1213.031
416.9089, 1221.115
418.8374, 1227.653
420.7659, 1235.368
422.6943, 1243.850
424.6228, 1249.344
426.5513, 1253.094
428.4797, 1259.627
430.4082, 1273.088
432.3367, 1284.839
434.2651, 1292.562
436.1936, 1296.658
438.1221, 1302.645
440.0505, 1313.910
441.9790, 1328.170
443.9075, 1338.619
445.8359, 1342.971
447.7644, 1346.482
449.6929, 1352.506
451.6213, 1359.416
453.5498, 1366.575
455.4783, 1373.945
457.4067, 1385.799
459.3352, 1402.450
461.2637, 1416.523
463.1921, 1423.567
465.1206, 1423.362
467.0491, 1427.227
468.9775, 1432.340
470.9060, 1437.844
472.8345, 1446.329
474.7629, 1462.313
476.6914, 1480.322
478.6199, 1497.646
480.5483, 1513.957
482.4768, 1523.352
484.4053, 1521.906
486.3337, 1519.095
488.2622, 1522.033
490.1907, 1530.715
492.1191, 1543.170
494.0476, 1560.795
495.9761, 1579.781
497.9045, 1594.985
499.8330, 1606.966
501.7615, 1618.729
503.6899, 1630.289
505.6184, 1641.066
507.5469, 1648.474
509.4753, 1648.757
511.4038, 1647.849
513.3323, 1651.299
515.2607, 1662.023
517.1892, 1679.560
519.1177, 1698.111
521.0461, 1710.927
522.9746, 1715.337
524.9031, 1714.989
526.8315, 1725.593
528.7600, 1747.115
530.6885, 1773.092
532.6169, 1790.148
534.5454, 1798.286
536.4739, 1804.306
538.4023, 1809.575
540.3308, 1815.235
542.2593, 1824.834
544.1877, 1843.409
546.1162, 1864.332
548.0447, 1883.395
549.9731, 1896.696
551.9016, 1904.793
553.8301, 1910.389
555.7585, 1917.034
557.6870, 1925.770
559.6155, 1933.551
561.5439, 1940.923
563.4724, 1951.167
565.4009, 1964.640
567.3293, 1979.735
569.2578, 1991.459
571.1863, 2002.572
573.1147, 2016.773
575.0432, 2034.885
576.9717, 2052.544
578.9001, 2064.553
580.8286, 2075.267
582.7571, 2086.850
584.6855, 2102.911
586.6140, 2124.005
588.5425, 2150.909
590.4709, 2172.025
592.3994, 2180.470
594.3279, 2169.182
596.2563, 2168.709
598.1848, 2184.422
600.1133, 2206.729
602.0417, 2226.167
603.9702, 2247.182
605.8987, 2269.247
607.8271, 2285.472
609.7556, 2293.317
611.6841, 2295.103
613.6125, 2300.478
615.5410, 2312.362
617.4695, 2331.081
619.3979, 2349.988
621.3264, 2368.573
623.2549, 2392.939
625.1833, 2414.640
627.1118, 2430.526
629.0403, 2442.106
630.9688, 2454.157
632.8972, 2460.807
634.8257, 2468.644
636.7542, 2481.799
638.6826, 2504.823
640.6111, 2528.389
642.5396, 2540.980
644.4680, 2548.797
646.3965, 2557.282
648.3250, 2578.708
650.2534, 2595.607
652.1819, 2594.472
654.1104, 2593.806
656.0388, 2612.571
657.9673, 2657.049
659.8958, 2690.533
661.8242, 2705.462
663.7527, 2712.658
665.6812, 2720.595
667.6096, 2731.952
669.5381, 2748.056
671.4666, 2773.308
673.3950, 2799.262
675.3235, 2823.326
677.2520, 2839.493
679.1804, 2855.269
681.1089, 2871.167
683.0374, 2893.199
684.9658, 2921.174
686.8943, 2952.928
688.8228, 2977.617
690.7512, 2985.926
692.6797, 2991.223
694.6082, 3008.969
696.5366, 3048.185
698.4651, 3087.450
700.3936, 3120.805
702.3220, 3149.567
704.2505, 3181.024
706.1790, 3215.398
708.1074, 3259.157
710.0359, 3318.052
711.9644, 3378.349
713.8928, 3434.260
715.8213, 3502.018
717.7498, 3545.928
719.6782, 3535.387
721.6067, 3491.907
723.5352, 3462.535
725.4636, 3464.058
727.3921, 3465.573
729.3206, 3449.310
731.2490, 3413.924
733.1775, 3399.340
735.1060, 3416.676
737.0344, 3440.369
738.9629, 3461.064
740.8914, 3478.921
742.8198, 3495.180
744.7483, 3511.027
746.6768, 3524.040
748.6052, 3529.747
750.5337, 3528.646
752.4622, 3539.181
754.3906, 3571.292
756.3191, 3603.032
758.2476, 3622.166
760.1760, 3630.720
762.1045, 3642.986
764.0330, 3662.710
765.9614, 3684.506
767.8899, 3706.936
769.8184, 3729.507
771.7468, 3750.045
773.6753, 3767.963
775.6038, 3784.242
777.5322, 3796.133
779.4607, 3803.623
781.3892, 3821.698
783.3176, 3865.944
785.2461, 3910.736
787.1746, 3940.907
789.1030, 3950.109
791.0315, 3967.110
792.9600, 4001.122
794.8884, 4035.571
796.8169, 4056.410
798.7454, 4062.035
800.6738, 4077.029
802.6023, 4114.323
804.5308, 4158.961
806.4592, 4200.215
808.3877, 4230.548
810.3162, 4255.295
812.2446, 4269.250
814.1731, 4283.065
816.1016, 4303.908
818.0300, 4333.852
819.9585, 4359.250
821.8870, 4368.096
823.8154, 4375.356
825.7439, 4397.017
827.6724, 4442.504
829.6008, 4475.579
831.5293, 4482.091
833.4578, 4483.494
835.3862, 4503.577
837.3147, 4546.372
839.2432, 4584.798
841.1716, 4607.722
843.1001, 4623.713
845.0286, 4645.222
846.9570, 4679.154
848.8855, 4709.595
850.8140, 4729.778
852.7424, 4746.378
854.6709, 4769.657
856.5994, 4796.914
858.5278, 4830.745
860.4563, 4882.729
862.3848, 4935.688
864.3132, 4967.596
866.2417, 4973.434
868.1702, 4987.680
870.0986, 5023.923
872.0271, 5059.463
873.9556, 5073.751
875.8840, 5080.432
877.8125, 5098.547
879.7410, 5130.244
881.6694, 5166.377
883.5979, 5212.584
885.5264, 5259.489
887.4548, 5293.188
889.3833, 5306.707
891.3118, 5324.295
893.2402, 5352.865
895.1687, 5384.606
897.0972, 5415.426
899.0256, 5447.499
900.9541, 5484.262
902.8826, 5530.015
904.8110, 5571.367
906.7395, 5600.291
908.6680, 5609.650
910.5964, 5613.757
912.5249, 5613.157
914.4534, 5630.210
916.3818, 5667.253
918.3103, 5723.657
920.2388, 5778.467
922.1672, 5824.314
924.0957, 5846.747
926.0242, 5863.404
927.9526, 5883.481
929.8811, 5912.393
931.8096, 5947.224
933.7380, 5982.054
935.6665, 6021.708
937.5950, 6062.633
939.5234, 6103.287
941.4519, 6146.690
943.3804, 6194.998
945.3088, 6221.667
947.2373, 6232.919
949.1658, 6249.160
951.0942, 6276.077
953.0227, 6299.648
954.9512, 6332.613
956.8796, 6391.457
958.8081, 6449.899
960.7366, 6491.948
962.6650, 6516.556
964.5935, 6537.864
966.5220, 6560.760
968.4504, 6590.307
970.3789, 6625.601
972.3074, 6660.563
974.2358, 6687.414
976.1643, 6718.470
978.0928, 6761.319
980.0212, 6814.750
981.9497, 6862.603
983.8782, 6890.614
985.8066, 6905.587
987.7351, 6937.325
989.6636, 6984.397
991.5920, 7031.914
993.5205, 7067.721
995.4490, 7090.756
997.3774, 7124.125
999.3059, 7177.149
1001.234, 7231.027
1003.163, 7267.726
1005.091, 7294.724
1007.020, 7328.515
1008.948, 7356.577
1010.877, 7380.099
1012.805, 7406.707
1014.734, 7442.519
1016.662, 7486.450
1018.591, 7536.084
1020.519, 7584.253
1022.448, 7630.574
1024.376, 7677.903
1026.304, 7726.279
1028.233, 7761.340
1030.161, 7785.217
1032.090, 7813.325
1034.018, 7847.628
1035.947, 7882.688
1037.875, 7920.362
1039.804, 7984.453
1041.732, 8052.113
1043.661, 8097.740
1045.589, 8120.811
1047.518, 8140.356
1049.446, 8190.702
1051.375, 8263.615
1053.303, 8342.035
1055.231, 8407.040
1057.160, 8451.824
1059.088, 8497.771
1061.017, 8539.198
1062.945, 8596.028
1064.874, 8690.505
1066.802, 8815.970
1068.731, 8944.971
1070.659, 9079.976
1072.588, 9240.479
1074.516, 9409.764
1076.445, 9576.738
1078.373, 9815.186
1080.302, 10169.42
1082.230, 10666.70
1084.158, 11303.48
1086.087, 12007.25
1088.015, 12457.13
1089.944, 12583.31
1091.872, 12404.12
1093.801, 11981.03
1095.729, 11455.14
1097.658, 10996.06
1099.586, 10628.77
1101.515, 10340.94
1103.443, 10095.16
1105.372, 9907.783
1107.300, 9780.436
1109.229, 9701.974
1111.157, 9656.943
1113.085, 9682.736
1115.014, 9726.905
1116.942, 9755.606
1118.871, 9765.146
1120.799, 9782.575
1122.728, 9815.881
1124.656, 9853.879
1126.585, 9878.556
1128.513, 9911.198
1130.442, 9968.116
1132.370, 10053.36
1134.299, 10121.45
1136.227, 10143.18
1138.156, 10159.47
1140.084, 10210.97
1142.012, 10300.64
1143.941, 10368.73
1145.869, 10381.79
1147.798, 10400.78
1149.726, 10446.91
1151.655, 10501.47
1153.583, 10555.83
1155.512, 10616.37
1157.440, 10672.31
1159.369, 10706.54
1161.297, 10739.72
1163.226, 10789.41
1165.154, 10851.56
1167.083, 10909.90
1169.011, 10961.44
1170.939, 11011.49
1172.868, 11060.70
1174.796, 11111.35
1176.725, 11165.86
1178.653, 11226.89
1180.582, 11285.59
1182.510, 11341.53
1184.439, 11402.29
1186.367, 11462.53
1188.296, 11510.23
1190.224, 11558.44
1192.153, 11611.83
1194.081, 11664.72
1196.010, 11701.98
1197.938, 11733.50
1199.866, 11784.50
1201.795, 11862.93
1203.723, 11938.42
1205.652, 12001.60
1207.580, 12059.49
1209.509, 12114.18
1211.437, 12165.15
1213.366, 12215.01
1215.294, 12259.30
1217.223, 12307.07
1219.151, 12367.29
1221.080, 12438.81
1223.008, 12503.07
1224.937, 12556.30
1226.865, 12609.94
1228.793, 12665.59
1230.722, 12722.29
1232.650, 12780.03
1234.579, 12838.97
1236.507, 12897.35
1238.436, 12953.05
1240.364, 13007.57
1242.293, 13057.82
1244.221, 13112.64
1246.150, 13185.41
1248.078, 13288.71
1250.007, 13375.19
1251.935, 13422.89
1253.864, 13462.46
1255.792, 13521.04
1257.720, 13604.85
1259.649, 13672.23
1261.577, 13704.16
1263.506, 13739.90
1265.434, 13792.86
1267.363, 13865.68
1269.291, 13945.80
1271.220, 14026.84
1273.148, 14085.91
1275.077, 14101.91
1277.005, 14125.37
1278.934, 14187.75
1280.862, 14272.00
1282.791, 14352.63
1284.719, 14435.06
1286.647, 14501.17
1288.576, 14518.12
1290.504, 14533.99
1292.433, 14599.52
1294.361, 14725.41
1296.290, 14829.42
1298.218, 14880.24
1300.147, 14928.72
1302.075, 15004.29
1304.004, 15097.15
1305.932, 15164.39
1307.861, 15172.83
1309.789, 15200.70
1311.718, 15266.21
1313.646, 15343.33
1315.574, 15406.82
1317.503, 15457.77
1319.431, 15529.46
1321.360, 15637.34
1323.288, 15733.75
1325.217, 15800.17
1327.145, 15852.11
1329.074, 15895.90
1331.002, 15923.74
1332.931, 15974.34
1334.859, 16076.65
1336.788, 16182.25
1338.716, 16267.03
1340.645, 16330.29
1342.573, 16387.15
1344.501, 16450.88
1346.430, 16524.16
1348.358, 16603.26
1350.287, 16676.25
1352.215, 16738.70
1354.144, 16798.07
1356.072, 16866.49
1358.001, 16955.06
1359.929, 17038.24
1361.858, 17108.05
1363.786, 17171.50
1365.715, 17229.54
1367.643, 17288.11
1369.572, 17379.27
1371.500, 17521.75
1373.428, 17643.45
1375.357, 17716.83
1377.285, 17773.39
1379.214, 17843.49
1381.142, 17930.66
1383.071, 18005.43
1384.999, 18040.79
1386.928, 18076.15
1388.856, 18130.19
1390.785, 18204.02
1392.713, 18302.06
1394.642, 18428.10
1396.570, 18523.76
1398.499, 18542.84
1400.427, 18573.33
1402.355, 18669.78
1404.284, 18807.89
1406.212, 18924.35
1408.141, 19000.95
1410.069, 19050.84
1411.998, 19054.67
1413.926, 19082.42
1415.855, 19179.36
1417.783, 19323.47
1419.712, 19448.88
1421.640, 19525.07
1423.569, 19607.83
1425.497, 19716.55
1427.426, 19824.04
1429.354, 19905.71
1431.282, 19965.87
1433.211, 20036.38
1435.139, 20134.58
1437.068, 20226.23
1438.996, 20284.21
1440.925, 20332.09
1442.853, 20391.28
1444.782, 20466.51
1446.710, 20549.86
1448.639, 20634.32
1450.567, 20714.78
1452.496, 20795.20
1454.424, 20876.25
1456.353, 20972.79
1458.281, 21076.07
1460.209, 21137.17
1462.138, 21124.10
1464.066, 21146.00
1465.995, 21263.66
1467.923, 21406.39
1469.852, 21536.20
1471.780, 21654.87
1473.709, 21768.06
1475.637, 21875.93
1477.566, 21964.82
1479.494, 22008.88
1481.423, 22047.88
1483.351, 22118.16
1485.280, 22218.49
1487.208, 22317.77
1489.136, 22405.80
1491.065, 22494.64
1492.993, 22587.19
1494.922, 22681.89
1496.850, 22776.00
1498.779, 22870.09
1500.707, 22974.02
1502.636, 23113.90
1504.564, 23217.41
1506.493, 23245.89
1508.421, 23282.23
1510.350, 23360.52
1512.278, 23459.06
1514.207, 23550.46
1516.135, 23636.74
1518.063, 23727.04
1519.992, 23815.76
1521.920, 23907.04
1523.849, 24009.89
1525.777, 24119.67
1527.706, 24218.14
1529.634, 24301.12
1531.563, 24405.25
1533.491, 24564.62
1535.420, 24704.09
1537.348, 24770.77
1539.277, 24814.91
1541.205, 24903.16
1543.134, 25027.35
1545.062, 25115.16
1546.990, 25136.15
1548.919, 25188.79
1550.847, 25337.93
1552.776, 25496.25
1554.704, 25584.21
1556.633, 25628.14
1558.561, 25716.11
1560.490, 25865.53
1562.418, 26003.67
1564.347, 26108.87
1566.275, 26195.77
1568.204, 26264.64
1570.132, 26339.71
1572.061, 26462.55
1573.989, 26640.81
1575.917, 26773.59
1577.846, 26806.12
1579.774, 26855.55
1581.703, 27016.63
1583.631, 27202.75
1585.560, 27300.05
1587.488, 27312.06
1589.417, 27340.47
1591.345, 27387.07
1593.274, 27467.03
1595.202, 27631.35
1597.131, 27788.78
1599.059, 27842.11
1600.988, 27825.21
1602.916, 27922.02
1604.844, 28187.01
1606.773, 28378.15
1608.701, 28372.18
1610.630, 28377.06
1612.558, 28513.92
1614.487, 28713.48
1616.415, 28838.92
1618.344, 28876.05
1620.272, 28980.60
1622.201, 29232.21
1624.129, 29436.15
1626.058, 29508.08
1627.986, 29534.98
1629.915, 29577.87
1631.843, 29637.86
1633.771, 29731.72
1635.700, 29879.32
1637.628, 30006.59
1639.557, 30073.53
1641.485, 30148.05
1643.414, 30269.02
1645.342, 30413.65
1647.271, 30540.51
1649.199, 30645.37
1651.128, 30766.96
1653.056, 30927.35
1654.985, 31071.18
1656.913, 31186.89
1658.842, 31281.00
1660.770, 31333.40
1662.698, 31362.38
1664.627, 31474.63
1666.555, 31709.63
1668.484, 31904.45
1670.412, 32029.63
1672.341, 32124.28
1674.269, 32170.88
1676.198, 32213.10
1678.126, 32313.72
1680.055, 32475.49
1681.983, 32617.64
1683.912, 32737.41
1685.840, 32841.70
1687.769, 32914.35
1689.697, 32991.09
1691.625, 33085.86
1693.554, 33199.37
1695.482, 33335.88
1697.411, 33498.83
1699.339, 33660.59
1701.268, 33834.86
1703.196, 33980.29
1705.125, 34060.51
1707.053, 34133.83
1708.982, 34241.84
1710.910, 34376.93
1712.839, 34513.14
1714.767, 34650.72
1716.696, 34788.30
1718.624, 34931.33
1720.552, 35065.36
1722.481, 35184.72
1724.409, 35293.96
1726.338, 35390.07
1728.266, 35477.84
1730.195, 35585.68
1732.123, 35718.55
1734.052, 35847.30
1735.980, 35959.49
1737.909, 36078.34
1739.837, 36225.36
1741.766, 36373.97
1743.694, 36491.80
1745.623, 36586.70
1747.551, 36703.11
1749.479, 36847.47
1751.408, 36988.20
1753.336, 37120.00
1755.265, 37246.84
1757.193, 37362.72
1759.122, 37480.63
1761.050, 37624.46
1762.979, 37783.78
1764.907, 37904.45
1766.836, 37976.50
1768.764, 38050.25
1770.693, 38121.36
1772.621, 38219.60
1774.550, 38380.59
1776.478, 38559.84
1778.406, 38719.02
1780.335, 38858.32
1782.263, 38968.13
1784.192, 39036.05
1786.120, 39151.48
1788.049, 39376.76
1789.977, 39576.88
1791.906, 39676.26
1793.834, 39739.98
1795.763, 39813.23
1797.691, 39902.87
1799.620, 40043.16
1801.548, 40248.38
1803.477, 40424.49
1805.405, 40554.75
1807.333, 40663.87
1809.262, 40738.17
1811.190, 40814.14
1813.119, 40920.89
1815.047, 41053.09
1816.976, 41202.16
1818.904, 41383.23
1820.833, 41514.04
1822.761, 41545.84
1824.690, 41599.40
1826.618, 41694.32
1828.547, 41816.75
1830.475, 41961.08
1832.404, 42125.68
1834.332, 42316.03
1836.260, 42535.44
1838.189, 42728.84
1840.117, 42886.26
1842.046, 43034.77
1843.974, 43187.35
1845.903, 43318.89
1847.831, 43391.46
1849.760, 43458.85
1851.688, 43594.25
1853.617, 43785.02
1855.545, 43933.21
1857.474, 44033.45
1859.402, 44113.97
1861.331, 44140.85
1863.259, 44219.92
1865.188, 44417.70
1867.116, 44647.13
1869.044, 44872.36
1870.973, 45078.74
1872.901, 45229.15
1874.830, 45327.20
1876.758, 45437.74
1878.687, 45570.89
1880.615, 45697.89
1882.544, 45794.43
1884.472, 45908.57
1886.401, 46092.49
1888.329, 46283.25
1890.258, 46397.33
1892.186, 46460.52
1894.115, 46572.43
1896.043, 46736.82
1897.971, 46922.89
1899.900, 47162.24
1901.828, 47367.76
1903.757, 47508.90
1905.685, 47626.70
1907.614, 47732.60
1909.542, 47837.85
1911.471, 47969.15
1913.399, 48122.61
1915.328, 48231.19
1917.256, 48250.43
1919.185, 48332.00
1921.113, 48516.97
1923.042, 48714.38
1924.970, 48927.19
1926.898, 49121.65
1928.827, 49261.86
1930.755, 49375.46
1932.684, 49508.77
1934.612, 49660.80
1936.541, 49826.74
1938.469, 50014.02
1940.398, 50170.65
1942.326, 50274.99
1944.255, 50373.79
1946.183, 50480.84
1948.112, 50593.88
1950.040, 50707.65
1951.969, 50827.68
1953.897, 50956.88
1955.825, 51097.61
1957.754, 51287.63
1959.682, 51562.66
1961.611, 51759.00
1963.539, 51781.69
1965.468, 51831.23
1967.396, 51970.64
1969.325, 52143.77
1971.253, 52339.16
1973.182, 52528.64
1975.110, 52651.09
1977.039, 52712.56
1978.967, 52813.43
1980.896, 52958.37
1982.824, 53127.71
1984.752, 53335.96
1986.681, 53539.23
1988.609, 53754.93
1990.538, 53927.36
1992.466, 53970.06
1994.395, 53997.66
1996.323, 54184.66
1998.252, 54463.52
2000.180, 54597.04
2002.109, 54574.68
2004.037, 54622.37
2005.966, 54781.24
2007.894, 54957.69
2009.823, 55122.58
2011.751, 55310.96
2013.679, 55577.84
2015.608, 55835.82
2017.536, 55988.65
2019.465, 56079.99
2021.393, 56214.73
2023.322, 56394.44
2025.250, 56509.75
2027.179, 56502.25
2029.107, 56586.04
2031.036, 56844.62
2032.964, 57074.26
2034.893, 57214.23
2036.821, 57326.53
2038.750, 57419.57
2040.678, 57519.49
2042.606, 57664.98
2044.535, 57838.69
2046.463, 57981.53
2048.392, 58094.98
2050.320, 58267.28
2052.249, 58527.78
2054.177, 58763.21
2056.106, 58950.98
2058.034, 59111.90
2059.963, 59237.83
2061.891, 59355.99
2063.820, 59478.79
2065.748, 59609.05
2067.677, 59762.07
2069.605, 59927.90
2071.533, 60045.90
2073.462, 60104.51
2075.390, 60210.75
2077.319, 60382.58
2079.247, 60552.27
2081.176, 60706.27
2083.104, 60860.55
2085.033, 61035.55
2086.961, 61194.39
2088.890, 61292.83
2090.818, 61376.48
2092.747, 61512.31
2094.675, 61678.55
2096.604, 61794.57
2098.532, 61852.46
2100.460, 61961.08
2102.389, 62157.85
2104.317, 62331.65
2106.246, 62484.29
2108.174, 62607.15
2110.103, 62639.74
2112.031, 62714.02
2113.960, 62945.01
2115.888, 63204.96
2117.817, 63366.76
2119.745, 63467.25
2121.674, 63578.16
2123.602, 63699.21
2125.531, 63821.70
2127.459, 63942.79
2129.387, 64099.84
2131.316, 64324.86
2133.244, 64518.29
2135.173, 64638.48
2137.101, 64753.47
2139.030, 64882.26
2140.958, 65019.14
2142.887, 65165.85
2144.815, 65313.11
2146.744, 65454.51
2148.672, 65584.53
2150.601, 65662.76
2152.529, 65695.65
2154.458, 65832.26
2156.386, 66097.27
2158.314, 66314.05
2160.243, 66436.09
2162.171, 66571.64
2164.100, 66780.19
2166.028, 66967.91
2167.957, 67091.05
2169.885, 67186.87
2171.814, 67249.18
2173.742, 67323.98
2175.671, 67489.94
2177.599, 67716.73
2179.528, 67902.73
2181.456, 68048.21
2183.385, 68229.54
2185.313, 68455.49
2187.241, 68655.77
2189.170, 68819.30
2191.098, 68967.84
2193.027, 69101.37
2194.955, 69230.66
2196.884, 69368.45
2198.812, 69492.77
2200.741, 69577.33
2202.669, 69653.06
2204.598, 69751.02
2206.526, 69865.09
2208.455, 69986.13
2210.383, 70113.19
2212.312, 70223.58
2214.240, 70313.80
2216.168, 70528.18
2218.097, 70914.59
2220.025, 71183.91
2221.954, 71258.31
2223.882, 71294.48
2225.811, 71313.00
2227.739, 71338.10
2229.668, 71340.29
2231.596, 71397.45
2233.525, 71612.62
2235.453, 71868.70
2237.382, 72036.17
2239.310, 72140.92
2241.239, 72206.67
2243.167, 72256.12
2245.095, 72463.66
2247.024, 72824.60
2248.952, 73040.09
2250.881, 73058.98
2252.809, 73119.70
2254.738, 73266.19
2256.666, 73438.88
2258.595, 73685.18
2260.523, 73868.88
2262.452, 73896.53
2264.380, 73910.72
2266.309, 73979.30
2268.237, 74081.73
2270.166, 74212.91
2272.094, 74357.38
2274.022, 74490.36
2275.951, 74619.14
2277.879, 74769.23
2279.808, 74936.26
2281.736, 75080.67
2283.665, 75200.91
2285.593, 75300.42
2287.522, 75308.80
2289.450, 75430.98
2291.379, 75759.94
2293.307, 76035.12
2295.236, 76224.91
2297.164, 76336.63
2299.093, 76293.52
2301.021, 76285.39
2302.949, 76460.45
2304.878, 76676.81
2306.806, 76837.05
2308.735, 76949.67
2310.663, 76995.27
2312.592, 77013.98
2314.520, 77111.77
2316.449, 77279.32
2318.377, 77442.70
2320.306, 77601.93
2322.234, 77760.94
2324.163, 77923.03
2326.091, 78040.77
2328.020, 78091.80
2329.948, 78165.42
2331.876, 78279.45
2333.805, 78418.35
2335.733, 78614.76
2337.662, 78783.00
2339.590, 78885.84
2341.519, 78960.17
2343.447, 78978.83
2345.376, 79028.34
2347.304, 79232.40
2349.233, 79462.38
2351.161, 79532.55
2353.090, 79539.18
2355.018, 79692.88
2356.947, 79938.86
2358.875, 80042.37
2360.803, 80006.23
2362.732, 80034.02
2364.660, 80129.25
2366.589, 80282.59
2368.517, 80518.46
2370.446, 80652.13
2372.374, 80620.59
2374.303, 80653.74
2376.231, 80828.89
2378.160, 81015.30
2380.088, 81194.44
2382.017, 81350.13
2383.945, 81466.88
2385.874, 81571.05
2387.802, 81675.95
2389.730, 81773.84
2391.659, 81817.17
2393.587, 81891.02
2395.516, 82140.30
2397.444, 82427.27
2399.373, 82529.73
2401.301, 82524.15
2403.230, 82588.00
2405.158, 82709.91
2407.087, 82839.87
2409.015, 82977.77
2410.944, 83049.36
2412.872, 83051.11
2414.801, 83130.20
2416.729, 83307.98
2418.657, 83425.40
2420.586, 83431.03
2422.514, 83486.40
2424.443, 83679.66
2426.371, 83817.73
2428.300, 83820.77
2430.228, 83851.98
2432.157, 83954.31
2434.085, 84078.16
2436.014, 84242.63
2437.942, 84367.15
2439.871, 84330.61
2441.799, 84329.05
2443.728, 84555.41
2445.656, 84827.70
2447.584, 84981.73
2449.513, 85069.23
2451.441, 85132.33
2453.370, 85192.93
2455.298, 85311.63
2457.227, 85450.97
2459.155, 85495.09
2461.084, 85482.84
2463.012, 85574.21
2464.941, 85764.18
2466.869, 86013.66
2468.798, 86351.41
2470.726, 86372.48
2472.655, 86020.60
2474.583, 86005.91
2476.511, 86425.15
2478.440, 86675.41
2480.368, 86620.38
2482.297, 86627.89
2484.225, 86831.45
2486.154, 86973.33
2488.082, 86940.45
2490.011, 86988.46
2491.939, 87208.86
2493.868, 87413.67
2495.796, 87538.91
2497.725, 87650.02
2499.653, 87802.04
2501.582, 87911.48
2503.510, 87896.37
2505.438, 87873.81
2507.367, 87918.14
2509.295, 87986.66
2511.224, 88021.39
2513.152, 88090.67
2515.081, 88321.78
2517.009, 88560.02
2518.938, 88603.24
2520.866, 88560.74
2522.795, 88546.68
2524.723, 88598.78
2526.652, 88879.24
2528.580, 89260.23
2530.509, 89332.05
2532.437, 89197.99
2534.365, 89178.12
2536.294, 89262.55
2538.222, 89385.98
2540.151, 89542.91
2542.079, 89649.79
2544.008, 89701.72
2545.936, 89790.75
2547.865, 89918.58
2549.793, 90042.25
2551.722, 90161.58
2553.650, 90222.06
2555.579, 90194.82
2557.507, 90236.17
2559.436, 90402.51
2561.364, 90548.17
2563.292, 90677.62
2565.221, 90769.62
2567.149, 90813.95
2569.078, 90848.88
2571.006, 90864.97
2572.935, 90921.33
2574.863, 91061.89
2576.792, 91194.61
2578.720, 91279.36
2580.649, 91395.13
2582.577, 91591.02
2584.506, 91749.94
2586.434, 91811.94
2588.363, 91871.99
2590.291, 91982.58
2592.219, 92082.18
2594.148, 92179.26
2596.076, 92209.66
2598.005, 92023.95
2599.933, 91927.77
2601.862, 92152.74
2603.790, 92393.17
2605.719, 92445.66
2607.647, 92460.21
2609.576, 92545.28
2611.504, 92630.12
2613.433, 92603.29
2615.361, 92614.64
2617.290, 92874.27
2619.218, 93139.80
2621.146, 93198.66
2623.075, 93163.33
2625.003, 93065.80
2626.932, 93020.30
2628.860, 93238.35
2630.789, 93515.07
2632.717, 93551.86
2634.646, 93519.91
2636.574, 93652.59
2638.503, 93847.45
2640.431, 93977.34
2642.360, 94058.91
2644.288, 94095.55
2646.217, 94119.72
2648.145, 94183.37
2650.073, 94283.27
2652.002, 94444.79
2653.930, 94618.74
2655.859, 94710.60
2657.787, 94744.23
2659.716, 94744.37
2661.644, 94743.87
2663.573, 94859.89
2665.501, 95032.91
2667.430, 95116.38
2669.358, 95123.56
2671.287, 95056.21
2673.215, 94957.44
2675.144, 94965.77
2677.072, 95058.09
2679.000, 95164.35
2680.929, 95279.16
2682.857, 95392.52
2684.786, 95497.09
2686.714, 95569.95
2688.643, 95615.27
2690.571, 95635.99
2692.500, 95644.79
2694.428, 95694.99
2696.357, 95786.34
2698.285, 95957.60
2700.214, 96162.98
2702.142, 96213.05
2704.071, 96142.91
2705.999, 96072.28
2707.927, 96028.08
2709.856, 96218.91
2711.784, 96546.35
2713.713, 96600.96
2715.641, 96467.97
2717.570, 96533.16
2719.498, 96733.47
2721.427, 96758.92
2723.355, 96661.01
2725.284, 96698.19
2727.212, 96825.37
2729.141, 96900.45
2731.069, 96929.30
2732.998, 96922.30
2734.926, 96894.27
2736.854, 96912.80
2738.783, 96957.62
2740.711, 96908.64
2742.640, 96840.64
2744.568, 97016.86
2746.497, 97321.76
2748.425, 97419.71
2750.354, 97369.05
2752.282, 97260.46
2754.211, 97178.44
2756.139, 97432.80
2758.068, 97826.98
2759.996, 97921.71
2761.925, 97848.23
2763.853, 97882.13
2765.781, 97974.36
2767.710, 98013.83
2769.638, 98044.48
2771.567, 98161.01
2773.495, 98303.21
2775.424, 98376.27
2777.352, 98406.05
2779.281, 98434.39
2781.209, 98445.55
2783.138, 98369.80
2785.066, 98309.15
2786.995, 98384.89
2788.923, 98546.51
2790.852, 98808.31
2792.780, 99044.98
2794.708, 99103.16
2796.637, 99081.13
2798.565, 99040.09
2800.494, 98997.17
2802.422, 98910.60
2804.351, 98899.45
2806.279, 99167.91
2808.208, 99413.99
2810.136, 99414.35
2812.065, 99358.13
2813.993, 99330.91
2815.922, 99339.82
2817.850, 99418.56
2819.779, 99491.70
2821.707, 99516.69
2823.635, 99539.27
2825.564, 99574.20
2827.492, 99620.47
2829.421, 99682.56
2831.349, 99748.72
2833.278, 99833.95
2835.206, 99880.41
2837.135, 99837.67
2839.063, 99850.00
2840.992, 100022.3
2842.920, 100142.7
2844.849, 100157.0
2846.777, 100156.4
2848.706, 100140.0
2850.634, 100163.3
2852.563, 100263.9
2854.491, 100287.8
2856.419, 100128.3
2858.348, 100148.5
2860.276, 100381.1
2862.205, 100523.2
2864.133, 100548.9
2866.062, 100576.7
2867.990, 100611.3
2869.919, 100702.1
2871.847, 100847.8
2873.776, 100856.0
2875.704, 100754.7
2877.633, 100731.7
2879.561, 100782.4
2881.490, 100894.9
2883.418, 101036.6
2885.346, 101067.2
2887.275, 101032.8
2889.203, 101049.5
2891.132, 101078.0
2893.060, 101024.1
2894.989, 100954.2
2896.917, 100971.4
2898.846, 101033.5
2900.774, 101098.5
2902.703, 101173.7
2904.631, 101294.6
2906.560, 101392.6
2908.488, 101369.8
2910.417, 101365.6
2912.345, 101493.1
2914.273, 101600.2
2916.202, 101550.6
2918.130, 101551.4
2920.059, 101800.5
2921.987, 101895.3
2923.916, 101655.0
2925.844, 101515.3
2927.773, 101669.8
2929.701, 101758.8
2931.630, 101688.3
2933.558, 101670.1
2935.487, 101725.2
2937.415, 101759.9
2939.344, 101756.1
2941.272, 101809.8
2943.200, 101925.7
2945.129, 102096.5
2947.057, 102307.3
2948.986, 102415.3
2950.914, 102429.1
2952.843, 102390.9
2954.771, 102332.1
2956.700, 102384.2
2958.628, 102472.5
2960.557, 102402.1
2962.485, 102304.7
2964.414, 102389.2
2966.342, 102510.3
2968.271, 102474.2
2970.199, 102441.4
2972.127, 102556.2
2974.056, 102677.4
2975.984, 102737.5
2977.913, 102748.8
2979.841, 102672.8
2981.770, 102631.3
2983.698, 102673.7
2985.627, 102706.0
2987.555, 102694.7
2989.484, 102681.6
2991.412, 102663.5
2993.341, 102683.8
2995.269, 102752.9
2997.198, 102729.6
2999.126, 102590.6
3001.054, 102601.4
3002.983, 102747.6
3004.911, 102874.5
3006.840, 102962.6
3008.768, 102931.1
3010.697, 102838.5
3012.625, 102800.8
3014.554, 102808.5
3016.482, 102870.3
3018.411, 102942.4
3020.339, 102992.3
3022.268, 103021.5
3024.196, 103012.5
3026.125, 103012.5
3028.053, 103061.9
3029.981, 103084.4
3031.910, 103024.7
3033.838, 102976.2
3035.767, 102938.1
3037.695, 102987.2
3039.624, 103163.9
3041.552, 103184.6
3043.481, 102955.7
3045.409, 102957.7
3047.338, 103176.9
3049.266, 103223.8
3051.195, 103139.3
3053.123, 103136.6
3055.052, 103180.9
3056.980, 103192.5
3058.908, 103176.5
3060.837, 103089.8
3062.765, 103043.2
3064.694, 103219.0
3066.622, 103377.4
3068.551, 103287.7
3070.479, 103231.6
3072.408, 103358.8
3074.336, 103454.6
3076.265, 103403.8
3078.193, 103417.5
3080.122, 103551.4
3082.050, 103518.8
3083.979, 103260.0
3085.907, 103200.3
3087.835, 103353.3
3089.764, 103429.1
3091.692, 103446.2
3093.621, 103490.2
3095.549, 103526.8
3097.478, 103459.2
3099.406, 103358.3
3101.335, 103295.1
3103.263, 103281.7
3105.192, 103341.0
3107.120, 103433.8
3109.049, 103634.9
3110.977, 103673.9
3112.906, 103389.0
3114.834, 103231.3
3116.762, 103379.9
3118.691, 103508.8
3120.619, 103616.3
3122.548, 103528.1
3124.476, 103270.6
3126.405, 103234.1
3128.333, 103348.2
3130.262, 103261.1
3132.190, 103114.4
3134.119, 103197.5
3136.047, 103366.1
3137.976, 103538.2
3139.904, 103626.4
3141.833, 103501.2
3143.761, 103403.6
3145.689, 103431.8
3147.618, 103515.2
3149.546, 103735.0
3151.475, 103711.5
3153.403, 103389.9
3155.332, 103198.5
3157.260, 103173.1
3159.189, 103194.9
3161.117, 103244.9
3163.046, 103206.6
3164.974, 103142.1
3166.903, 103167.0
3168.831, 103222.0
3170.760, 103252.9
3172.688, 103266.7
3174.616, 103230.9
3176.545, 103243.6
3178.473, 103428.9
3180.402, 103479.3
3182.330, 103316.5
3184.259, 103279.6
3186.187, 103446.2
3188.116, 103411.1
3190.044, 103196.7
3191.973, 103099.0
3193.901, 103096.4
3195.830, 103168.6
3197.758, 103249.3
3199.687, 103246.5
3201.615, 103208.9
3203.543, 103136.8
3205.472, 103102.0
3207.400, 103164.7
3209.329, 103223.6
3211.257, 103273.9
3213.186, 103242.1
3215.114, 103089.9
3217.043, 103109.6
3218.971, 103272.6
3220.900, 103211.1
3222.828, 103017.8
3224.757, 102855.3
3226.685, 102762.6
3228.614, 102864.0
3230.542, 102951.3
3232.470, 102827.4
3234.399, 102760.3
3236.327, 102957.8
3238.256, 102999.2
3240.184, 102809.9
3242.113, 102684.1
3244.041, 102654.9
3245.970, 102671.8
3247.898, 102720.7
3249.827, 102749.5
3251.755, 102748.4
3253.684, 102684.6
3255.612, 102603.1
3257.541, 102502.9
3259.469, 102474.6
3261.397, 102677.5
3263.326, 102722.5
3265.254, 102469.7
3267.183, 102339.0
3269.111, 102368.2
3271.040, 102339.6
3272.968, 102266.9
3274.897, 102314.7
3276.825, 102404.5
3278.754, 102401.3
3280.682, 102347.7
3282.611, 102307.1
3284.539, 102178.7
3286.468, 101803.5
3288.396, 101643.6
3290.324, 102075.5
3292.253, 102154.2
3294.181, 101858.9
3296.110, 101746.4
3298.038, 101789.9
3299.967, 101743.3
3301.895, 101659.0
3303.824, 101612.0
3305.752, 101603.3
3307.681, 101660.7
3309.609, 101713.4
3311.538, 101738.0
3313.466, 101745.9
3315.395, 101745.6
3317.323, 101689.0
3319.251, 101576.0
3321.180, 101484.0
3323.108, 101407.3
3325.037, 101302.8
3326.965, 101226.8
3328.894, 101282.6
3330.822, 101356.7
3332.751, 101434.1
3334.679, 101410.8
3336.608, 101221.1
3338.536, 101067.7
3340.465, 100970.0
3342.393, 100925.4
3344.322, 100919.5
3346.250, 100873.6
3348.178, 100830.6
3350.107, 100866.5
3352.035, 100914.9
3353.964, 100931.3
3355.892, 100932.1
3357.821, 100954.0
3359.749, 100831.8
3361.678, 100480.0
3363.606, 100366.8
3365.535, 100444.8
3367.463, 100425.3
3369.392, 100371.1
3371.320, 100439.8
3373.249, 100493.3
3375.177, 100401.9
3377.105, 100305.1
3379.034, 100264.8
3380.962, 100206.5
3382.891, 100122.2
3384.819, 100015.8
3386.748, 99896.94
3388.676, 99838.30
3390.605, 99804.56
3392.533, 99723.30
3394.462, 99657.09
3396.390, 99701.07
3398.319, 99688.16
3400.247, 99532.45
3402.176, 99462.97
3404.104, 99529.67
3406.032, 99492.74
3407.961, 99367.13
3409.889, 99187.11
3411.818, 99023.62
3413.746, 99011.63
3415.675, 99021.29
3417.603, 99001.05
3419.532, 98925.17
3421.460, 98766.44
3423.389, 98664.52
3425.317, 98627.69
3427.246, 98594.93
3429.174, 98543.53
3431.103, 98353.84
3433.031, 98184.77
3434.959, 98221.02
3436.888, 98280.40
3438.816, 98322.49
3440.745, 98243.73
3442.673, 97984.38
3444.602, 97889.95
3446.530, 97933.72
3448.459, 97925.48
3450.387, 97894.69
3452.316, 97922.72
3454.244, 97876.04
3456.173, 97607.89
3458.101, 97448.05
3460.030, 97617.91
3461.958, 97591.59
3463.886, 97393.61
3465.815, 97320.58
3467.743, 97309.66
3469.672, 97208.29
3471.600, 97108.08
3473.529, 97114.27
3475.457, 97075.83
3477.386, 96925.78
3479.314, 96757.92
3481.243, 96586.18
3483.171, 96623.93
3485.100, 96759.20
3487.028, 96622.07
3488.957, 96426.42
3490.885, 96342.80
3492.813, 96332.05
3494.742, 96414.20
3496.670, 96408.06
3498.599, 96275.19
3500.527, 96127.09
3502.456, 95965.14
3504.384, 95775.03
3506.313, 95597.66
3508.241, 95452.35
3510.170, 95389.08
3512.098, 95464.02
3514.027, 95450.63
3515.955, 95295.55
3517.884, 95239.12
3519.812, 95230.30
3521.740, 95104.80
3523.669, 94961.95
3525.597, 94924.80
3527.526, 94876.00
3529.454, 94735.34
3531.383, 94692.09
3533.311, 94755.92
3535.240, 94585.07
3537.168, 94294.85
3539.097, 94180.24
3541.025, 94176.45
3542.954, 94281.65
3544.882, 94342.22
3546.811, 94292.12
3548.739, 94210.96
3550.667, 94107.38
3552.596, 94057.80
3554.524, 94010.15
3556.453, 93839.19
3558.381, 93617.45
3560.310, 93278.68
3562.238, 93187.46
3564.167, 93465.84
3566.095, 93375.72
3568.024, 92958.45
3569.952, 93029.73
3571.881, 93247.95
3573.809, 93121.52
3575.738, 92954.85
3577.666, 92922.18
3579.594, 92849.66
3581.523, 92707.20
3583.451, 92624.34
3585.380, 92563.98
3587.308, 92312.27
3589.237, 92083.07
3591.165, 92163.82
3593.094, 92168.95
3595.022, 91969.53
3596.951, 91788.37
3598.879, 91650.52
3600.808, 91631.02
3602.736, 91636.47
3604.665, 91513.31
3606.593, 91346.63
3608.521, 91180.23
3610.450, 90993.34
3612.378, 90755.56
3614.307, 90687.98
3616.235, 90734.15
3618.164, 90750.34
3620.092, 90707.74
3622.021, 90531.41
3623.949, 90373.51
3625.878, 90287.13
3627.806, 90171.68
3629.735, 90037.39
3631.663, 90066.87
3633.592, 90128.84
3635.520, 90052.04
3637.448, 89890.89
3639.377, 89593.85
3641.305, 89521.57
3643.234, 89717.45
3645.162, 89684.13
3647.091, 89522.98
3649.019, 89482.46
3650.948, 89388.34
3652.876, 89064.84
3654.805, 88893.52
3656.733, 89000.70
3658.662, 89019.63
3660.590, 88937.78
3662.519, 88651.63
3664.447, 88435.35
3666.375, 88608.83
3668.304, 88699.68
3670.232, 88503.34
3672.161, 88385.16
3674.089, 88317.51
3676.018, 88153.87
3677.946, 87970.39
3679.875, 87850.67
3681.803, 87748.46
3683.732, 87634.96
3685.660, 87590.62
3687.589, 87592.15
3689.517, 87499.67
3691.446, 87349.25
3693.374, 87137.05
3695.302, 86985.18
3697.231, 86995.26
3699.159, 86941.75
3701.088, 86822.50
3703.016, 86650.73
3704.945, 86513.91
3706.873, 86648.37
3708.802, 86672.99
3710.730, 86314.45
3712.659, 86152.66
3714.587, 86182.37
3716.516, 86023.95
3718.444, 85833.54
3720.373, 85916.55
3722.301, 85941.34
3724.229, 85693.19
3726.158, 85599.75
3728.086, 85664.88
3730.015, 85773.31
3731.943, 85789.44
3733.872, 85406.38
3735.800, 85051.75
3737.729, 84926.16
3739.657, 84721.34
3741.586, 84461.20
3743.514, 84555.63
3745.443, 84701.64
3747.371, 84439.34
3749.300, 84204.54
3751.228, 84168.03
3753.156, 84111.19
3755.085, 84021.13
3757.013, 83873.59
3758.942, 83718.64
3760.870, 83589.15
3762.799, 83531.60
3764.727, 83614.38
3766.656, 83497.02
3768.584, 83222.55
3770.513, 82870.91
3772.441, 82674.33
3774.370, 82960.04
3776.298, 83165.79
3778.227, 83149.47
3780.155, 83079.68
3782.083, 82941.77
3784.012, 82641.98
3785.940, 82375.76
3787.869, 82252.09
3789.797, 82279.51
3791.726, 82473.55
3793.654, 82405.79
3795.583, 82183.20
3797.511, 81940.63
3799.440, 81749.22
3801.368, 81664.55
3803.297, 81442.37
3805.225, 81099.07
3807.154, 81063.78
3809.082, 81113.05
3811.010, 81000.98
3812.939, 80871.61
3814.867, 80761.70
3816.796, 80646.85
3818.724, 80534.86
3820.653, 80459.29
3822.581, 80404.85
3824.510, 80359.83
3826.438, 80352.17
3828.367, 80378.09
3830.295, 80270.50
3832.224, 80106.84
3834.152, 80041.26
3836.081, 79957.26
3838.009, 79778.40
3839.938, 79665.80
3841.866, 79594.84
3843.794, 79337.66
3845.723, 79114.31
3847.651, 79197.81
3849.580, 79127.66
3851.508, 78810.21
3853.437, 78712.91
3855.365, 78723.93
3857.294, 78608.13
3859.222, 78437.21
3861.151, 78222.69
3863.079, 78058.04
3865.008, 77937.74
3866.936, 77756.65
3868.865, 77608.67
3870.793, 77664.66
3872.721, 77610.07
3874.650, 77335.80
3876.578, 77169.59
3878.507, 77069.24
3880.435, 76980.61
3882.364, 76847.16
3884.292, 76629.93
3886.221, 76461.23
3888.149, 76352.23
3890.078, 76392.43
3892.006, 76363.27
3893.935, 75931.95
3895.863, 75698.87
3897.792, 75756.55
3899.720, 75703.73
3901.648, 75591.81
3903.577, 75564.41
3905.505, 75478.54
3907.434, 75241.98
3909.362, 75100.96
3911.291, 75027.09
3913.219, 74802.64
3915.148, 74568.21
3917.076, 74417.33
3919.005, 74318.53
3920.933, 74250.66
3922.862, 74054.70
3924.790, 73846.58
3926.719, 73767.94
3928.647, 73634.48
3930.575, 73367.91
3932.504, 73258.59
3934.432, 73228.78
3936.361, 73072.27
3938.289, 72976.45
3940.218, 73038.13
3942.146, 72958.96
3944.075, 72734.92
3946.003, 72506.78
3947.932, 72346.41
3949.860, 72202.01
3951.789, 72100.80
3953.717, 72076.65
3955.646, 71930.04
3957.574, 71787.44
3959.502, 71656.41
3961.431, 71489.04
3963.359, 71355.24
3965.288, 71199.87
3967.216, 71070.61
3969.145, 71060.70
3971.073, 70990.16
3973.002, 70734.63
3974.930, 70480.74
3976.859, 70301.05
3978.787, 70208.48
3980.716, 70214.66
3982.644, 70249.16
3984.573, 70178.98
3986.501, 70031.98
3988.429, 69748.77
3990.358, 69529.24
3992.286, 69518.90
3994.215, 69536.93
3996.143, 69438.19
3998.072, 69205.23
4000.000, 69008.98
4001.929, 68831.73
4003.857, 68643.45
4005.786, 68535.06
4007.714, 68542.48
4009.643, 68508.65
4011.571, 68403.83
4013.500, 68251.59
4015.428, 68123.57
4017.356, 68114.12
4019.285, 68087.38
4021.213, 67976.88
4023.142, 67751.98
4025.070, 67505.45
4026.999, 67334.57
4028.927, 67225.48
4030.856, 67207.27
4032.784, 67080.97
4034.713, 66897.38
4036.641, 66780.36
4038.570, 66690.85
4040.498, 66668.73
4042.427, 66541.34
4044.355, 66322.37
4046.283, 66189.17
4048.212, 66142.77
4050.140, 66032.05
4052.069, 65886.91
4053.997, 65823.59
4055.926, 65701.23
4057.854, 65606.73
4059.783, 65514.48
4061.711, 65362.22
4063.640, 65223.34
4065.568, 65091.14
4067.497, 64928.45
4069.425, 64783.29
4071.354, 64777.52
4073.282, 64782.36
4075.210, 64582.08
4077.139, 64400.55
4079.067, 64286.06
4080.996, 64146.17
4082.924, 64013.63
4084.853, 63777.07
4086.781, 63644.81
4088.710, 63761.38
4090.638, 63692.49
4092.567, 63500.57
4094.495, 63337.13
4096.424, 63201.30
4098.352, 63122.97
4100.280, 63052.75
4102.209, 62995.30
4104.138, 62822.51
4106.066, 62614.98
4107.994, 62508.92
4109.923, 62370.52
4111.852, 62181.94
4113.780, 62065.26
4115.708, 61995.33
4117.637, 61957.75
4119.565, 61874.86
4121.494, 61749.59
4123.422, 61687.73
4125.351, 61607.67
4127.279, 61376.64
4129.208, 61195.76
4131.136, 61112.56
4133.064, 61022.50
4134.993, 60915.38
4136.921, 60782.81
4138.850, 60661.66
4140.778, 60563.75
4142.707, 60589.72
4144.635, 60598.47
4146.563, 60387.86
4148.492, 60210.20
4150.421, 60105.03
4152.349, 59866.36
4154.277, 59680.73
4156.206, 59857.62
4158.135, 59816.07
4160.063, 59489.85
4161.991, 59333.43
4163.920, 59284.17
4165.849, 59298.78
4167.777, 59218.05
4169.705, 59040.19
4171.634, 58956.02
4173.563, 58883.57
4175.491, 58763.53
4177.419, 58545.24
4179.348, 58200.18
4181.276, 58170.11
4183.205, 58244.88
4185.133, 58075.11
4187.062, 57938.80
4188.990, 57940.66
4190.918, 57783.61
4192.847, 57607.74
4194.775, 57666.11
4196.704, 57633.22
4198.632, 57436.60
4200.561, 57254.29
4202.489, 57102.06
4204.418, 57035.14
4206.346, 56941.73
4208.274, 56786.38
4210.203, 56707.93
4212.132, 56654.18
4214.060, 56493.96
4215.988, 56366.28
4217.917, 56332.88
4219.846, 56230.32
4221.774, 56065.06
4223.702, 55814.07
4225.631, 55761.50
4227.560, 55885.55
4229.488, 55782.58
4231.416, 55632.32
4233.345, 55601.11
4235.273, 55379.19
4237.202, 55051.60
4239.130, 55105.55
4241.059, 55192.58
4242.987, 55078.90
4244.916, 55002.43
4246.844, 54939.85
4248.772, 54809.46
4250.701, 54688.53
4252.629, 54623.05
4254.558, 54562.91
4256.486, 54473.81
4258.415, 54212.71
4260.343, 54083.90
4262.271, 54233.74
4264.200, 54173.85
4266.129, 54024.29
4268.057, 53975.10
4269.985, 53837.30
4271.914, 53575.96
4273.843, 53528.86
4275.771, 53528.61
4277.699, 53400.05
4279.628, 53263.26
4281.557, 53151.94
4283.485, 53249.06
4285.413, 53306.92
4287.342, 53078.48
4289.271, 52996.91
4291.199, 53008.15
4293.127, 52862.12
4295.056, 52725.33
4296.984, 52684.47
4298.913, 52613.27
4300.841, 52515.07
4302.770, 52393.09
4304.698, 52249.73
4306.626, 52078.28
4308.555, 52081.69
4310.483, 52107.11
4312.412, 51982.12
4314.340, 51884.39
4316.269, 51820.92
4318.197, 51616.09
4320.126, 51456.51
4322.054, 51468.32
4323.982, 51451.66
4325.911, 51415.65
4327.840, 51486.99
4329.768, 51408.73
4331.696, 51093.59
4333.625, 50867.65
4335.554, 50719.07
4337.482, 50627.80
4339.410, 50578.46
4341.339, 50557.18
4343.268, 50501.45
4345.196, 50428.12
4347.124, 50346.70
4349.053, 50284.48
4350.981, 50212.33
4352.910, 49993.32
4354.838, 49880.07
4356.767, 49960.55
4358.695, 49757.66
4360.624, 49501.87
4362.552, 49560.10
4364.480, 49495.44
4366.409, 49275.34
4368.337, 49157.20
4370.266, 49143.31
4372.194, 49342.10
4374.123, 49235.33
4376.051, 48971.59
4377.979, 48961.01
4379.908, 48913.13
4381.837, 48727.93
4383.765, 48709.98
4385.693, 48692.47
4387.622, 48457.28
4389.551, 48396.56
4391.479, 48483.54
4393.407, 48416.15
4395.336, 48248.35
4397.265, 47988.07
4399.193, 47943.01
4401.121, 47989.95
4403.050, 47954.25
4404.979, 47902.00
4406.907, 47828.29
4408.835, 47564.72
4410.764, 47364.01
4412.692, 47397.07
4414.621, 47420.64
4416.549, 47392.84
4418.478, 47225.61
4420.406, 47133.55
4422.334, 47160.43
4424.263, 46974.97
4426.191, 46778.55
4428.120, 46745.31
4430.048, 46708.05
4431.977, 46656.02
4433.905, 46570.18
4435.834, 46536.54
4437.762, 46574.45
4439.690, 46489.85
4441.619, 46353.13
4443.548, 46206.68
4445.476, 46135.16
4447.404, 46111.23
4449.333, 46077.48
4451.262, 45950.13
4453.190, 45714.06
4455.118, 45658.76
4457.047, 45647.85
4458.976, 45564.56
4460.904, 45395.68
4462.832, 45205.97
4464.761, 45195.78
4466.689, 45210.40
4468.618, 45208.14
4470.546, 45134.08
4472.475, 45015.80
4474.403, 44862.61
4476.332, 44737.40
4478.260, 44639.59
4480.188, 44550.46
4482.117, 44492.98
4484.045, 44466.33
4485.974, 44394.29
4487.902, 44335.84
4489.831, 44385.69
4491.759, 44255.01
4493.688, 44055.14
4495.616, 44037.72
4497.545, 44030.23
4499.473, 43995.02
4501.401, 43856.22
4503.330, 43730.84
4505.259, 43681.08
4507.187, 43574.91
4509.115, 43492.12
4511.044, 43602.09
4512.973, 43598.82
4514.901, 43487.42
4516.829, 43507.77
4518.758, 43451.27
4520.687, 43201.65
4522.615, 43088.60
4524.543, 43023.20
4526.472, 42916.79
4528.400, 42892.21
4530.329, 42893.78
4532.257, 42720.90
4534.186, 42642.68
4536.114, 42683.43
4538.042, 42535.33
4539.971, 42376.36
4541.899, 42331.01
4543.828, 42291.44
4545.756, 42243.04
4547.685, 42185.96
4549.613, 42022.18
4551.542, 41803.56
4553.470, 41839.34
4555.398, 41771.57
4557.327, 41515.81
4559.256, 41468.32
4561.184, 41455.42
4563.112, 41324.07
4565.041, 41233.08
4566.970, 41160.92
4568.898, 41060.95
4570.826, 40937.84
4572.755, 40806.51
4574.684, 40732.22
4576.612, 40714.61
4578.540, 40743.19
4580.469, 40593.73
4582.397, 40424.29
4584.326, 40360.68
4586.254, 40370.46
4588.183, 40379.68
4590.111, 40240.20
4592.040, 40138.43
4593.968, 40074.16
4595.896, 39893.84
4597.825, 39743.50
4599.753, 39665.66
4601.682, 39622.32
4603.610, 39563.79
4605.539, 39446.32
4607.467, 39339.59
4609.396, 39260.00
4611.324, 39237.79
4613.253, 39224.82
4615.181, 39193.18
4617.109, 39072.98
4619.038, 38900.66
4620.967, 38712.70
4622.895, 38692.52
4624.823, 38720.86
4626.752, 38745.16
4628.681, 38707.45
4630.609, 38606.40
4632.537, 38423.48
4634.466, 38280.65
4636.395, 38176.25
4638.323, 38084.09
4640.251, 38038.04
4642.180, 38028.67
4644.108, 38031.72
4646.037, 37951.56
4647.965, 37759.50
4649.894, 37657.00
4651.822, 37626.92
4653.750, 37664.14
4655.679, 37622.67
4657.607, 37526.02
4659.536, 37409.09
4661.464, 37197.55
4663.393, 37010.77
4665.321, 37135.11
4667.250, 37106.96
4669.178, 36926.22
4671.106, 36829.89
4673.035, 36740.06
4674.964, 36649.89
4676.892, 36728.56
4678.820, 36703.20
4680.749, 36399.64
4682.678, 36494.12
4684.606, 36545.30
4686.534, 36218.22
4688.463, 36031.90
4690.392, 35978.58
4692.320, 36064.73
4694.248, 35960.59
4696.177, 35775.40
4698.105, 35819.46
4700.034, 35851.04
4701.962, 35806.20
4703.891, 35547.08
4705.819, 35383.25
4707.748, 35392.16
4709.676, 35462.00
4711.604, 35426.09
4713.533, 35209.39
4715.461, 35245.02
4717.390, 35236.38
4719.318, 34977.57
4721.247, 34868.48
4723.175, 34830.86
4725.104, 34759.50
4727.032, 34737.09
4728.961, 34722.01
4730.889, 34651.10
4732.817, 34513.06
4734.746, 34371.03
4736.675, 34398.65
4738.603, 34330.80
4740.531, 34165.05
4742.460, 34087.71
4744.389, 34051.82
4746.317, 34022.92
4748.245, 33881.35
4750.174, 33701.08
4752.103, 33512.07
4754.031, 33576.77
4755.959, 33571.88
4757.888, 33340.41
4759.816, 33325.76
4761.745, 33361.49
4763.673, 33304.25
4765.602, 33251.66
4767.530, 33184.85
4769.458, 33085.70
4771.387, 32906.85
4773.315, 32758.05
4775.244, 32839.88
4777.172, 32772.53
4779.101, 32606.00
4781.029, 32485.21
4782.958, 32349.83
4784.886, 32226.77
4786.814, 32201.75
4788.743, 32239.63
4790.672, 32285.74
4792.600, 32156.99
4794.528, 32032.59
4796.457, 31943.86
4798.386, 31842.94
4800.314, 31747.58
4802.242, 31668.72
4804.171, 31683.04
4806.100, 31610.46
4808.028, 31412.31
4809.956, 31399.84
4811.885, 31396.13
4813.813, 31318.54
4815.742, 31158.73
4817.670, 31102.78
4819.599, 31240.71
4821.527, 31006.95
4823.456, 30811.73
4825.384, 30958.18
4827.313, 30901.53
4829.241, 30731.56
4831.169, 30509.10
4833.098, 30457.97
4835.026, 30476.73
4836.955, 30497.62
4838.883, 30368.94
4840.812, 30235.43
4842.740, 30252.01
4844.669, 30091.78
4846.597, 29895.77
4848.525, 29857.54
4850.454, 29782.50
4852.383, 29702.32
4854.311, 29670.31
4856.239, 29615.22
4858.168, 29542.89
4860.097, 29478.62
4862.025, 29346.06
4863.953, 29227.76
4865.882, 29261.97
4867.811, 29242.86
4869.739, 29152.78
4871.667, 28952.42
4873.596, 28908.25
4875.524, 28925.64
4877.453, 28810.83
4879.381, 28767.29
4881.310, 28745.34
4883.238, 28609.69
4885.167, 28475.89
4887.095, 28377.57
4889.023, 28364.88
4890.952, 28350.09
4892.880, 28319.56
4894.809, 28275.11
4896.737, 28185.30
4898.666, 28054.40
4900.594, 27845.28
4902.522, 27811.94
4904.451, 27847.47
4906.380, 27731.92
4908.308, 27654.96
4910.236, 27624.23
4912.165, 27645.27
4914.094, 27574.19
4916.022, 27443.92
4917.950, 27306.97
4919.879, 27250.68
4921.808, 27210.64
4923.736, 27043.19
4925.664, 27047.57
4927.593, 27100.16
4929.521, 27043.79
4931.450, 26787.73
4933.378, 26561.04
4935.307, 26653.62
4937.235, 26746.06
4939.164, 26727.01
4941.092, 26448.17
4943.021, 26374.28
4944.949, 26342.31
4946.877, 26183.08
4948.806, 26227.71
4950.734, 26268.76
4952.663, 26086.59
4954.591, 25979.77
4956.520, 25900.92
4958.448, 25816.95
4960.377, 25765.46
4962.305, 25724.65
4964.233, 25680.66
4966.162, 25600.98
4968.091, 25555.10
4970.019, 25576.32
4971.947, 25451.37
4973.876, 25318.02
4975.805, 25237.75
4977.733, 25276.04
4979.661, 25249.01
4981.590, 25106.78
4983.519, 24970.70
4985.447, 24829.97
4987.375, 24724.47
4989.304, 24904.05
4991.232, 24887.00
4993.161, 24678.43
4995.089, 24627.14
4997.018, 24607.65
4998.946, 24551.03
5000.875, 24321.91
5002.803, 24253.28
5004.731, 24272.02
5006.660, 24168.44
5008.588, 24134.02
5010.517, 24114.83
5012.445, 24019.53
5014.374, 23951.89
5016.302, 23910.07
5018.230, 23890.40
5020.159, 23733.69
5022.088, 23583.62
5024.016, 23562.44
5025.944, 23465.97
5027.873, 23433.73
5029.802, 23503.88
5031.730, 23323.62
5033.658, 23173.44
5035.587, 23140.84
5037.516, 23036.70
5039.444, 23028.32
5041.372, 23092.85
5043.301, 22957.41
5045.229, 22830.89
5047.158, 22760.85
5049.086, 22796.35
5051.015, 22699.38
5052.943, 22556.77
5054.872, 22561.78
5056.800, 22435.96
5058.729, 22313.05
5060.657, 22342.97
5062.585, 22326.64
5064.514, 22257.79
5066.442, 22140.46
5068.371, 21980.62
5070.299, 21893.57
5072.228, 21913.47
5074.156, 21870.42
5076.085, 21754.90
5078.013, 21608.96
5079.941, 21594.71
5081.870, 21586.63
5083.799, 21562.56
5085.727, 21535.22
5087.655, 21491.71
5089.584, 21428.02
5091.513, 21342.17
5093.441, 21184.21
5095.369, 21082.67
5097.298, 21173.63
5099.227, 21110.36
5101.155, 20998.35
5103.083, 20896.23
5105.012, 20856.99
5106.940, 20855.94
5108.869, 20855.52
5110.797, 20723.90
5112.726, 20677.76
5114.654, 20665.20
5116.583, 20448.71
5118.511, 20381.10
5120.439, 20369.21
5122.368, 20265.83
5124.296, 20130.18
5126.225, 20067.87
5128.153, 20152.24
5130.082, 20126.50
5132.010, 20047.07
5133.938, 19951.43
5135.867, 19952.88
5137.796, 19806.71
5139.724, 19595.94
5141.652, 19653.77
5143.581, 19707.22
5145.510, 19690.05
5147.438, 19526.29
5149.366, 19506.65
5151.295, 19446.61
5153.224, 19234.09
5155.152, 19202.10
5157.080, 19201.99
5159.009, 19165.88
5160.938, 19062.09
5162.866, 19023.42
5164.794, 19030.99
5166.723, 18989.55
5168.651, 18890.00
5170.580, 18823.88
5172.508, 18890.31
5174.437, 18785.42
5176.365, 18685.33
5178.293, 18693.29
5180.222, 18628.88
5182.150, 18561.22
5184.079, 18506.19
5186.007, 18444.46
5187.936, 18397.56
5189.864, 18350.62
5191.793, 18273.65
5193.721, 18232.58
5195.649, 18186.89
5197.578, 18105.87
5199.507, 18048.99
5201.435, 18018.46
5203.363, 17994.47
5205.292, 17880.72
5207.221, 17831.56
5209.149, 17825.72
5211.077, 17795.52
5213.006, 17770.59
5214.935, 17729.19
5216.863, 17655.01
5218.791, 17493.20
5220.720, 17399.99
5222.648, 17386.33
5224.577, 17269.94
5226.505, 17295.00
5228.434, 17347.50
5230.362, 17156.22
5232.291, 17127.43
5234.219, 17118.21
5236.147, 17030.40
5238.076, 17000.97
5240.004, 16955.49
5241.933, 16893.29
5243.861, 16888.97
5245.790, 16905.72
5247.718, 16874.80
5249.646, 16695.89
5251.575, 16594.01
5253.504, 16542.80
5255.432, 16517.78
5257.360, 16477.68
5259.289, 16444.65
5261.218, 16403.60
5263.146, 16296.44
5265.074, 16221.41
5267.003, 16219.35
5268.932, 16333.45
5270.860, 16163.79
5272.788, 16015.68
5274.717, 15976.61
5276.646, 15970.61
5278.574, 15938.28
5280.502, 15858.89
5282.431, 15689.36
5284.359, 15672.25
5286.288, 15675.46
5288.216, 15630.83
5290.145, 15552.41
5292.073, 15562.56
5294.001, 15595.07
5295.930, 15485.98
5297.858, 15375.64
5299.787, 15329.04
5301.715, 15376.21
5303.644, 15287.65
5305.572, 15209.58
5307.501, 15154.44
5309.429, 15032.61
5311.357, 15000.07
5313.286, 14989.17
5315.215, 14933.36
5317.143, 14936.82
5319.071, 14895.14
5321.000, 14809.20
5322.929, 14816.63
5324.857, 14757.73
5326.785, 14673.80
5328.714, 14622.62
5330.643, 14581.12
5332.571, 14552.73
5334.499, 14520.17
5336.428, 14406.12
5338.356, 14345.72
5340.285, 14323.55
5342.213, 14320.89
5344.142, 14172.82
5346.070, 14136.83
5347.999, 14223.57
5349.927, 14107.08
5351.855, 14071.81
5353.784, 14060.30
5355.712, 13975.28
5357.641, 13859.67
5359.569, 13835.27
5361.498, 13885.28
5363.426, 13793.60
5365.354, 13726.20
5367.283, 13681.89
5369.212, 13639.08
5371.140, 13573.55
5373.068, 13502.54
5374.997, 13426.38
5376.926, 13312.48
5378.854, 13297.65
5380.782, 13301.70
5382.711, 13252.42
5384.640, 13284.64
5386.568, 13227.15
5388.496, 13123.01
5390.425, 13171.97
5392.354, 13072.07
5394.282, 12954.54
5396.210, 12910.63
5398.139, 12865.11
5400.067, 12901.04
5401.996, 12951.25
5403.924, 12897.09
5405.853, 12734.22
5407.781, 12664.62
5409.709, 12729.57
5411.638, 12717.62
5413.566, 12597.40
5415.495, 12464.95
5417.423, 12412.86
5419.352, 12378.18
5421.280, 12335.69
5423.209, 12285.29
5425.137, 12233.81
5427.065, 12273.03
5428.994, 12235.45
5430.923, 12041.24
5432.851, 12063.21
5434.779, 12049.33
5436.708, 12011.63
5438.637, 12039.49
5440.565, 11998.74
5442.493, 11922.97
5444.422, 11848.59
5446.351, 11843.43
5448.279, 11798.56
5450.207, 11714.15
5452.136, 11601.92
5454.064, 11542.23
5455.993, 11571.05
5457.921, 11592.92
5459.850, 11452.31
5461.778, 11452.95
5463.707, 11469.02
5465.635, 11429.08
5467.563, 11288.28
5469.492, 11272.29
5471.420, 11284.97
5473.349, 11236.78
5475.277, 11204.96
5477.206, 11178.40
5479.134, 11140.67
5481.063, 11070.11
5482.991, 11088.98
5484.920, 11059.78
5486.848, 10963.06
5488.776, 10885.92
5490.705, 10888.21
5492.634, 10875.91
5494.562, 10797.17
5496.490, 10744.78
5498.419, 10680.61
5500.348, 10644.76
5502.276, 10697.43
5504.204, 10624.04
5506.133, 10569.24
5508.062, 10523.26
5509.990, 10385.11
5511.918, 10433.82
5513.847, 10449.40
5515.775, 10368.62
5517.704, 10365.04
5519.632, 10278.62
5521.561, 10212.26
5523.489, 10233.20
5525.417, 10171.24
5527.346, 10170.30
5529.274, 10165.63
5531.203, 10064.39
5533.131, 10061.21
5535.060, 9989.287
5536.988, 9886.971
5538.917, 9879.949
5540.845, 9871.631
5542.773, 9832.579
5544.702, 9764.039
5546.631, 9661.094
5548.559, 9733.472
5550.487, 9758.836
5552.416, 9652.178
5554.345, 9596.713
5556.273, 9540.129
5558.201, 9511.688
5560.130, 9530.592
5562.059, 9548.323
5563.987, 9530.183
5565.915, 9482.984
5567.844, 9419.177
5569.772, 9311.473
5571.701, 9290.226
5573.629, 9309.121
5575.558, 9272.676
5577.486, 9252.919
5579.415, 9186.436
5581.343, 9090.657
5583.271, 9026.676
5585.200, 9005.813
5587.128, 9010.239
5589.057, 9004.905
5590.985, 8926.047
5592.914, 8946.015
5594.842, 8921.786
5596.771, 8829.017
5598.699, 8800.157
5600.628, 8795.432
5602.556, 8793.146
5604.484, 8772.460
5606.413, 8665.734
5608.342, 8640.251
5610.270, 8666.993
5612.198, 8697.740
5614.127, 8622.550
5616.056, 8571.142
5617.984, 8515.320
5619.912, 8433.111
5621.841, 8390.188
5623.770, 8408.410
5625.698, 8390.568
5627.626, 8290.205
5629.555, 8305.524
5631.483, 8296.934
5633.412, 8251.465
5635.340, 8184.776
5637.269, 8149.524
5639.197, 8135.391
5641.125, 8130.352
5643.054, 8125.037
5644.982, 8091.753
5646.911, 8058.594
5648.839, 8029.574
5650.768, 8000.718
5652.696, 7939.268
5654.625, 7917.046
5656.553, 7900.244
5658.481, 7854.449
5660.410, 7877.526
5662.339, 7822.511
5664.267, 7736.366
5666.195, 7687.991
5668.124, 7719.543
5670.053, 7687.025
5671.981, 7637.573
5673.909, 7629.730
5675.838, 7575.894
5677.767, 7560.524
5679.695, 7541.430
5681.623, 7479.254
5683.552, 7438.399
5685.480, 7450.522
5687.409, 7467.698
5689.337, 7446.224
5691.266, 7362.756
5693.194, 7299.252
5695.123, 7283.548
5697.051, 7295.250
5698.979, 7193.407
5700.908, 7133.668
5702.836, 7143.207
5704.765, 7183.354
5706.693, 7062.990
5708.622, 7063.876
5710.550, 7068.294
5712.479, 7034.170
5714.407, 7075.055
5716.336, 7053.516
5718.264, 6954.687
5720.192, 6845.621
5722.121, 6875.809
5724.050, 6879.561
5725.978, 6852.913
5727.906, 6807.967
5729.835, 6757.803
5731.764, 6698.893
5733.692, 6730.556
5735.620, 6763.575
5737.549, 6670.482
5739.478, 6596.007
5741.406, 6578.522
5743.334, 6605.600
5745.263, 6647.894
5747.191, 6568.492
5749.120, 6519.996
5751.048, 6491.193
5752.977, 6460.352
5754.905, 6479.290
5756.833, 6455.785
5758.762, 6396.515
5760.690, 6332.398
5762.619, 6322.695
5764.547, 6315.277
5766.476, 6327.313
5768.404, 6318.932
5770.333, 6208.126
5772.261, 6249.194
5774.189, 6258.563
5776.118, 6226.355
5778.047, 6204.086
5779.975, 6090.871
5781.903, 6084.424
5783.832, 6076.664
5785.761, 5980.713
5787.689, 5975.549
5789.617, 5979.754
5791.546, 5962.511
5793.475, 5923.423
5795.403, 5894.676
5797.331, 5849.088
5799.260, 5837.566
5801.188, 5852.721
5803.117, 5853.475
5805.045, 5795.947
5806.974, 5760.517
5808.902, 5750.266
5810.831, 5744.379
5812.759, 5712.629
5814.688, 5687.948
5816.616, 5684.490
5818.544, 5684.541
5820.473, 5618.795
5822.401, 5633.058
5824.330, 5539.792
5826.258, 5439.764
5828.187, 5573.386
5830.115, 5516.171
5832.044, 5480.952
5833.972, 5472.817
5835.900, 5447.575
5837.829, 5410.331
5839.758, 5395.957
5841.686, 5383.328
5843.614, 5353.701
5845.543, 5284.951
5847.472, 5281.064
5849.400, 5334.929
5851.328, 5362.558
5853.257, 5277.873
5855.186, 5255.918
5857.114, 5206.917
5859.042, 5126.510
5860.971, 5055.341
5862.899, 5129.403
5864.828, 5079.518
5866.756, 5025.129
5868.685, 5018.230
5870.613, 5057.393
5872.542, 5107.554
5874.470, 5041.649
5876.398, 4949.114
5878.327, 4914.580
5880.255, 4941.811
5882.184, 4869.821
5884.112, 4860.422
5886.041, 4894.283
5887.969, 4857.643
5889.897, 4779.508
5891.826, 4817.390
5893.755, 4838.508
5895.683, 4773.044
5897.611, 4760.749
5899.540, 4762.540
5901.469, 4732.584
5903.397, 4686.800
5905.325, 4663.697
5907.254, 4676.672
5909.183, 4667.797
5911.111, 4656.420
5913.039, 4654.583
5914.968, 4651.372
5916.896, 4592.585
5918.825, 4531.468
5920.753, 4481.168
5922.682, 4440.294
5924.610, 4473.653
5926.539, 4444.948
5928.467, 4406.196
5930.396, 4386.479
5932.324, 4375.286
5934.252, 4403.386
5936.181, 4405.937
5938.109, 4359.656
5940.038, 4290.370
5941.966, 4315.888
5943.895, 4340.813
5945.823, 4312.130
5947.752, 4271.032
5949.680, 4272.443
5951.608, 4139.474
5953.537, 4154.549
5955.466, 4188.606
5957.394, 4176.161
5959.322, 4153.146
5961.251, 4139.636
5963.180, 4112.997
5965.108, 4106.635
5967.036, 4115.749
5968.965, 4052.274
5970.894, 4001.207
5972.822, 3964.566
5974.750, 3983.901
5976.679, 4057.302
5978.607, 3985.556
5980.536, 3966.605
5982.464, 3970.173
5984.393, 3940.122
5986.321, 3854.799
5988.250, 3867.294
5990.178, 3865.460
5992.106, 3862.325
5994.035, 3854.877
5995.963, 3815.596
5997.892, 3763.668
5999.820, 3722.886
6001.749, 3735.973
6003.677, 3778.763
6005.605, 3755.661
6007.534, 3725.637
6009.463, 3766.544
6011.391, 3787.136
6013.319, 3737.067
6015.248, 3690.521
6017.177, 3669.861
6019.105, 3663.020
6021.033, 3660.943
6022.962, 3651.062
6024.891, 3595.932
6026.819, 3631.171
6028.747, 3610.748
6030.676, 3540.712
6032.604, 3479.100
6034.533, 3456.150
6036.461, 3455.334
6038.390, 3456.875
6040.318, 3464.096
6042.247, 3472.884
6044.175, 3396.785
6046.104, 3433.160
6048.032, 3429.940
6049.960, 3411.050
6051.889, 3436.667
6053.817, 3364.544
6055.746, 3330.251
6057.674, 3316.089
6059.603, 3301.819
6061.531, 3282.691
6063.460, 3288.638
6065.388, 3226.474
6067.316, 3218.726
6069.245, 3237.279
6071.174, 3219.993
6073.102, 3220.595
6075.030, 3149.659
6076.959, 3125.213
6078.888, 3145.683
6080.816, 3163.219
6082.744, 3138.152
6084.673, 3153.788
6086.602, 3151.228
6088.530, 3139.453
6090.458, 3129.025
6092.387, 3069.319
6094.315, 3068.901
6096.244, 3046.001
6098.172, 3010.944
6100.101, 2995.483
6102.029, 3021.874
6103.958, 2967.216
6105.886, 2981.897
6107.814, 2997.878
6109.743, 2969.164
6111.671, 2928.510
6113.600, 2956.825
6115.528, 2932.839
6117.457, 2901.613
6119.385, 2887.420
6121.313, 2875.726
6123.242, 2865.904
6125.171, 2814.057
6127.099, 2805.541
6129.027, 2816.856
6130.956, 2791.286
6132.885, 2750.456
6134.813, 2773.960
6136.741, 2769.963
6138.670, 2734.029
6140.599, 2702.342
6142.527, 2712.959
6144.455, 2689.064
6146.384, 2721.031
6148.313, 2737.297
6150.241, 2704.188
6152.169, 2663.139
6154.098, 2631.411
6156.026, 2633.205
6157.955, 2651.809
6159.883, 2658.467
6161.812, 2637.061
6163.740, 2607.624
6165.668, 2613.797
6167.597, 2584.709
6169.525, 2546.145
6171.454, 2534.329
6173.382, 2543.153
6175.311, 2510.886
6177.239, 2521.606
6179.168, 2502.921
6181.096, 2480.532
6183.024, 2521.336
6184.953, 2473.739
6186.882, 2468.604
6188.810, 2437.637
6190.738, 2407.172
6192.667, 2403.551
6194.596, 2380.656
6196.524, 2408.007
6198.452, 2388.199
6200.381, 2379.998
6202.310, 2385.480
6204.238, 2361.973
6206.166, 2367.535
6208.095, 2337.396
6210.023, 2348.377
6211.952, 2347.005
6213.880, 2302.846
6215.809, 2280.463
6217.737, 2246.281
6219.666, 2275.853
6221.594, 2294.765
6223.522, 2283.610
6225.451, 2264.633
6227.379, 2237.452
6229.308, 2225.428
6231.236, 2233.211
6233.165, 2235.457
6235.093, 2217.180
6237.021, 2183.392
6238.950, 2206.715
6240.879, 2160.175
6242.807, 2127.416
6244.735, 2122.364
6246.664, 2132.904
6248.593, 2161.534
6250.521, 2128.046
6252.449, 2098.884
6254.378, 2115.042
6256.307, 2122.599
6258.235, 2089.764
6260.163, 2097.527
6262.092, 2074.462
6264.021, 2038.291
6265.949, 2028.437
6267.877, 2034.907
6269.806, 2035.709
6271.734, 2057.344
6273.663, 2037.082
6275.591, 2011.744
6277.520, 2003.679
6279.448, 2001.905
6281.376, 1989.748
6283.305, 1994.481
6285.233, 2000.907
6287.162, 1972.335
6289.090, 1970.343
6291.019, 1960.626
6292.947, 1868.545
6294.876, 1916.839
6296.804, 1909.705
6298.732, 1908.359
6300.661, 1908.476
6302.590, 1899.275
6304.518, 1889.366
6306.446, 1915.849
6308.375, 1903.569
6310.304, 1891.439
6312.232, 1884.539
6314.160, 1874.364
6316.089, 1858.214
6318.018, 1850.833
6319.946, 1869.945
6321.874, 1859.401
6323.803, 1833.258
6325.731, 1824.624
6327.660, 1835.251
6329.588, 1798.217
6331.517, 1800.050
6333.445, 1796.206
6335.374, 1788.716
6337.302, 1797.710
6339.230, 1818.125
6341.159, 1790.744
6343.087, 1757.583
6345.016, 1764.763
6346.944, 1721.095
6348.873, 1690.987
6350.801, 1721.313
6352.729, 1706.809
6354.658, 1696.945
6356.587, 1658.083
6358.515, 1642.302
6360.443, 1625.510
6362.372, 1611.847
6364.301, 1645.204
6366.229, 1628.618
6368.157, 1601.053
6370.086, 1644.465
6372.015, 1651.767
6373.943, 1615.776
6375.871, 1594.163
6377.800, 1548.002
6379.729, 1567.131
6381.657, 1595.568
6383.585, 1584.559
6385.514, 1544.396
6387.442, 1513.718
6389.371, 1523.702
6391.299, 1529.676
6393.228, 1522.919
6395.156, 1525.662
6397.084, 1508.455
6399.013, 1465.217
6400.941, 1428.040
6402.870, 1471.326
6404.798, 1459.005
6406.727, 1410.835
6408.655, 1433.160
6410.584, 1455.904
6412.512, 1437.347
6414.440, 1440.801
6416.369, 1393.564
6418.298, 1378.092
6420.226, 1414.099
6422.154, 1410.920
6424.083, 1384.917
6426.012, 1379.387
6427.940, 1358.761
6429.868, 1432.169
6431.797, 1367.012
6433.726, 1342.573
6435.654, 1327.571
6437.582, 1326.623
6439.511, 1378.475
6441.439, 1354.945
6443.368, 1347.347
6445.296, 1302.043
6447.225, 1299.208
6449.153, 1309.142
6451.082, 1286.672
6453.010, 1249.319
6454.938, 1275.428
6456.867, 1264.822
6458.795, 1255.249
6460.724, 1246.026
6462.652, 1261.818
6464.581, 1285.332
6466.509, 1264.454
6468.438, 1211.048
6470.366, 1234.761
6472.295, 1222.163
6474.223, 1227.812
6476.151, 1223.670
6478.080, 1213.006
6480.009, 1237.022
6481.937, 1217.918
6483.865, 1189.403
6485.794, 1215.473
6487.723, 1179.216
6489.651, 1172.923
6491.579, 1200.676
6493.508, 1173.454
6495.437, 1144.494
6497.365, 1170.925
6499.293, 1176.594
6501.222, 1145.454
6503.150, 1125.413
6505.079, 1133.709
6507.007, 1142.400
6508.936, 1105.565
6510.864, 1095.531
6512.792, 1124.916
6514.721, 1154.640
6516.649, 1139.521
6518.578, 1109.605
6520.506, 1112.723
6522.435, 1136.095
6524.363, 1081.038
6526.292, 1080.694
6528.220, 1095.561
6530.148, 1085.521
6532.077, 1079.511
6534.006, 1073.183
6535.934, 1046.676
6537.862, 1060.587
6539.791, 1057.683
6541.720, 1050.717
6543.648, 1034.141
6545.576, 1035.116
6547.505, 1016.083
6549.434, 994.4905
6551.362, 1038.785
6553.290, 1034.415
6555.219, 973.6097
6557.147, 1023.378
6559.076, 1029.104
6561.004, 988.3938
6562.933, 966.7637
6564.861, 974.7874
6566.790, 964.6080
6568.718, 1010.836
6570.646, 1006.608
##END=



