##NAMES=Calderonite
##RRUFFID=R050538
##IDEAL CHEMISTRY=Pb_2_Fe^3+^(VO_4_)_2_(OH)
##LOCALITY=Tres de Mayo, Santa Cruz County, Arizona, USA
##OWNER=RRUFF
##SOURCE=Andy Anderson
##DESCRIPTION=Lathlike brown crystals.
##STATUS=The identification of this mineral is confirmed by single-crystal X-ray diffraction and chemical analysis
##URL=https://www.rruff.net/odr/rruff_sample/R050538
##MEASURED CHEMISTRY=Pb_2.00_(Fe^3+^_0.96_Mn^3+^_0.02_Mg_0.02_)(V_1.00_O_4_)_2_(OH)
##DIFFRACTION SAMPLE DESCRIPTION=Single crystal, powder profile is calculated
##CELL PARAMETERS=a: 7.636 b: 6.11 c: 8.91 alpha: 90 beta: 112.23 gamma: 90 volume: 384.8 crystal system: monoclinic
##FILETYPE=Raman RAW
##RAMAN WAVELENGTH=532

100.3281, 954.8766
102.2566, 982.9261
104.1851, 1007.672
106.1135, 1032.841
108.0420, 1070.571
109.9705, 1104.318
111.8989, 1137.222
113.8274, 1170.093
115.7559, 1196.960
117.6843, 1220.225
119.6128, 1243.388
121.5413, 1265.808
123.4697, 1287.341
125.3982, 1308.758
127.3267, 1327.571
129.2551, 1345.073
131.1836, 1367.960
133.1121, 1395.038
135.0405, 1425.955
136.9690, 1460.092
138.8975, 1499.571
140.8259, 1538.151
142.7544, 1574.013
144.6829, 1607.068
146.6113, 1639.772
148.5398, 1672.326
150.4683, 1704.638
152.3967, 1736.638
154.3252, 1769.074
156.2537, 1800.902
158.1821, 1831.754
160.1106, 1861.827
162.0391, 1891.424
163.9675, 1920.859
165.8960, 1949.461
167.8245, 1975.860
169.7529, 2000.927
171.6814, 2021.143
173.6099, 2035.706
175.5383, 2044.598
177.4668, 2044.516
179.3953, 2031.744
181.3237, 2010.031
183.2522, 1988.851
185.1807, 1966.723
187.1091, 1948.751
189.0376, 1936.940
190.9661, 1931.716
192.8945, 1935.370
194.8230, 1949.797
196.7515, 1974.206
198.6799, 2006.956
200.6084, 2051.142
202.5369, 2101.511
204.4653, 2157.942
206.3938, 2222.768
208.3223, 2284.607
210.2507, 2343.438
212.1792, 2399.073
214.1077, 2441.406
216.0361, 2477.964
217.9646, 2498.069
219.8931, 2492.917
221.8215, 2462.167
223.7500, 2414.014
225.6785, 2346.981
227.6069, 2261.550
229.5354, 2178.362
231.4639, 2093.620
233.3923, 2013.985
235.3208, 1942.531
237.2493, 1879.007
239.1777, 1825.662
241.1062, 1783.402
243.0347, 1753.108
244.9631, 1729.123
246.8916, 1712.175
248.8201, 1701.804
250.7485, 1697.074
252.6770, 1701.440
254.6055, 1707.915
256.5339, 1716.073
258.4624, 1725.856
260.3909, 1736.830
262.3193, 1748.933
264.2478, 1762.278
266.1763, 1777.111
268.1047, 1794.773
270.0332, 1812.244
271.9617, 1827.298
273.8901, 1841.346
275.8186, 1859.969
277.7471, 1881.041
279.6755, 1908.748
281.6040, 1947.077
283.5325, 1995.995
285.4609, 2053.856
287.3894, 2123.269
289.3179, 2202.199
291.2463, 2285.141
293.1748, 2378.058
295.1033, 2470.149
297.0317, 2555.687
298.9602, 2636.254
300.8887, 2706.680
302.8171, 2762.274
304.7456, 2805.957
306.6741, 2848.796
308.6025, 2884.549
310.5310, 2924.608
312.4595, 2972.327
314.3879, 3024.948
316.3164, 3095.031
318.2449, 3187.432
320.1733, 3297.271
322.1018, 3415.080
324.0303, 3551.572
325.9587, 3682.405
327.8872, 3803.768
329.8157, 3920.430
331.7441, 4005.698
333.6726, 4060.620
335.6011, 4085.711
337.5295, 4082.910
339.4580, 4052.930
341.3865, 3996.408
343.3149, 3914.022
345.2434, 3803.378
347.1719, 3675.931
349.1003, 3519.300
351.0288, 3353.801
352.9573, 3195.391
354.8857, 3040.069
356.8142, 2903.212
358.7427, 2787.831
360.6711, 2694.748
362.5996, 2615.913
364.5281, 2558.892
366.4565, 2509.663
368.3850, 2460.336
370.3135, 2411.333
372.2419, 2361.022
374.1704, 2308.350
376.0989, 2254.129
378.0273, 2200.993
379.9558, 2151.478
381.8843, 2100.028
383.8127, 2044.592
385.7412, 1984.805
387.6697, 1922.775
389.5981, 1857.526
391.5266, 1790.670
393.4551, 1724.089
395.3835, 1655.691
397.3120, 1591.332
399.2405, 1531.379
401.1689, 1475.222
403.0974, 1429.307
405.0259, 1397.869
406.9543, 1372.219
408.8828, 1346.032
410.8113, 1318.013
412.7397, 1295.487
414.6682, 1281.096
416.5967, 1273.241
418.5251, 1268.308
420.4536, 1266.517
422.3821, 1266.945
424.3105, 1269.613
426.2390, 1274.300
428.1675, 1280.434
430.0959, 1288.936
432.0244, 1298.200
433.9529, 1306.445
435.8813, 1312.615
437.8098, 1319.735
439.7383, 1328.924
441.6667, 1339.684
443.5952, 1350.914
445.5237, 1362.997
447.4521, 1375.120
449.3806, 1388.190
451.3091, 1402.982
453.2375, 1412.940
455.1660, 1416.803
457.0945, 1415.022
459.0229, 1407.787
460.9514, 1394.805
462.8799, 1375.816
464.8083, 1348.312
466.7368, 1313.350
468.6653, 1278.124
470.5938, 1241.551
472.5222, 1206.400
474.4507, 1173.949
476.3792, 1143.990
478.3076, 1117.961
480.2361, 1097.411
482.1646, 1080.546
484.0930, 1064.360
486.0215, 1048.670
487.9500, 1034.175
489.8784, 1020.721
491.8069, 1008.319
493.7354, 997.4550
495.6638, 989.4999
497.5923, 981.6583
499.5208, 972.2755
501.4492, 961.1689
503.3777, 950.4362
505.3062, 940.4736
507.2346, 931.1557
509.1631, 922.4404
511.0916, 914.5328
513.0200, 906.9257
514.9485, 899.2174
516.8770, 891.6473
518.8054, 885.2109
520.7339, 880.8619
522.6624, 876.9053
524.5908, 872.6078
526.5193, 867.8126
528.4478, 863.3715
530.3762, 858.8817
532.3047, 854.9094
534.2332, 852.0268
536.1616, 851.1819
538.0901, 849.8326
540.0186, 847.5866
541.9470, 844.6876
543.8755, 841.8201
545.8040, 838.9570
547.7324, 836.5480
549.6609, 834.7635
551.5894, 833.6524
553.5178, 833.3435
555.4463, 834.3097
557.3748, 835.5589
559.3032, 836.0488
561.2317, 835.4651
563.1602, 835.8021
565.0886, 838.0305
567.0171, 841.1055
568.9456, 843.8954
570.8740, 846.5048
572.8025, 848.7010
574.7310, 850.1000
576.6594, 851.1212
578.5879, 852.8109
580.5164, 855.7516
582.4448, 858.8214
584.3733, 861.5242
586.3018, 863.7360
588.2302, 866.2454
590.1587, 869.4284
592.0872, 872.5842
594.0156, 874.9944
595.9441, 876.4230
597.8726, 878.6418
599.8010, 882.2789
601.7295, 886.7430
603.6580, 891.3855
605.5864, 896.2735
607.5149, 901.2283
609.4434, 905.8790
611.3718, 910.6259
613.3003, 916.3400
615.2288, 924.0117
617.1572, 931.5040
619.0857, 937.4915
621.0142, 941.9053
622.9426, 948.7013
624.8711, 958.8318
626.7996, 970.4415
628.7280, 982.6064
630.6565, 995.2802
632.5850, 1008.853
634.5134, 1023.647
636.4419, 1039.217
638.3704, 1055.057
640.2988, 1070.585
642.2273, 1087.794
644.1558, 1107.253
646.0842, 1128.500
648.0127, 1150.784
649.9412, 1174.422
651.8696, 1198.551
653.7981, 1222.846
655.7266, 1247.440
657.6550, 1272.878
659.5835, 1298.178
661.5120, 1325.750
663.4404, 1357.252
665.3689, 1392.184
667.2974, 1428.507
669.2258, 1465.515
671.1543, 1504.621
673.0828, 1546.623
675.0112, 1592.024
676.9397, 1637.770
678.8682, 1686.668
680.7966, 1732.714
682.7251, 1773.353
684.6536, 1808.648
686.5820, 1836.615
688.5105, 1858.540
690.4390, 1873.539
692.3674, 1879.649
694.2959, 1876.845
696.2244, 1868.374
698.1528, 1851.104
700.0813, 1829.875
702.0098, 1810.493
703.9382, 1792.598
705.8667, 1777.682
707.7952, 1764.507
709.7236, 1754.385
711.6521, 1750.754
713.5806, 1754.769
715.5090, 1762.187
717.4375, 1772.111
719.3660, 1784.242
721.2944, 1798.298
723.2229, 1812.747
725.1514, 1830.752
727.0798, 1853.244
729.0083, 1880.373
730.9368, 1910.955
732.8652, 1946.937
734.7937, 1983.932
736.7222, 2019.165
738.6506, 2052.684
740.5791, 2089.920
742.5076, 2133.710
744.4360, 2179.458
746.3645, 2225.646
748.2930, 2272.755
750.2214, 2317.976
752.1499, 2360.725
754.0784, 2402.023
756.0068, 2442.239
757.9353, 2481.012
759.8638, 2521.504
761.7922, 2564.448
763.7207, 2608.976
765.6492, 2653.544
767.5776, 2695.743
769.5061, 2746.299
771.4346, 2805.936
773.3630, 2874.656
775.2915, 2951.186
777.2200, 3034.830
779.1484, 3128.153
781.0769, 3232.843
783.0054, 3345.782
784.9338, 3463.588
786.8623, 3585.234
788.7908, 3715.926
790.7192, 3859.232
792.6477, 4011.485
794.5762, 4167.065
796.5046, 4325.381
798.4331, 4489.145
800.3616, 4655.557
802.2900, 4827.894
804.2185, 5011.229
806.1470, 5206.280
808.0754, 5410.616
810.0039, 5620.185
811.9324, 5841.585
813.8608, 6080.396
815.7893, 6335.523
817.7178, 6610.618
819.6462, 6905.126
821.5747, 7217.815
823.5032, 7549.097
825.4316, 7910.346
827.3601, 8274.272
829.2886, 8650.147
831.2170, 9022.357
833.1455, 9375.142
835.0740, 9715.456
837.0024, 10015.42
838.9309, 10278.43
840.8594, 10495.96
842.7878, 10652.43
844.7163, 10720.81
846.6448, 10758.16
848.5732, 10758.67
850.5017, 10730.64
852.4302, 10686.66
854.3586, 10624.79
856.2871, 10555.96
858.2156, 10500.24
860.1440, 10432.67
862.0725, 10321.88
864.0010, 10168.36
865.9294, 9962.929
867.8579, 9698.861
869.7864, 9384.118
871.7148, 9022.814
873.6433, 8610.561
875.5718, 8185.577
877.5002, 7743.393
879.4287, 7301.741
881.3572, 6876.940
883.2856, 6468.562
885.2141, 6082.658
887.1426, 5716.781
889.0710, 5373.361
890.9995, 5056.087
892.9280, 4764.888
894.8564, 4491.416
896.7849, 4234.642
898.7134, 3996.363
900.6418, 3776.200
902.5703, 3575.136
904.4988, 3388.139
906.4272, 3215.218
908.3557, 3054.442
910.2842, 2906.172
912.2126, 2771.821
914.1411, 2646.352
916.0696, 2531.595
917.9980, 2425.078
919.9265, 2326.772
921.8550, 2236.332
923.7834, 2149.315
925.7119, 2066.495
927.6404, 1986.500
929.5688, 1907.891
931.4973, 1830.666
933.4258, 1760.849
935.3542, 1698.905
937.2827, 1642.710
939.2112, 1592.125
941.1396, 1547.048
943.0681, 1507.422
944.9966, 1474.350
946.9250, 1444.951
948.8535, 1418.414
950.7820, 1394.419
952.7104, 1372.255
954.6389, 1351.814
956.5674, 1333.529
958.4958, 1318.514
960.4243, 1305.520
962.3528, 1292.147
964.2813, 1277.869
966.2097, 1265.527
968.1382, 1257.442
970.0667, 1250.956
971.9951, 1243.566
973.9236, 1235.146
975.8521, 1226.002
977.7805, 1214.452
979.7090, 1203.290
981.6375, 1195.220
983.5659, 1191.035
985.4944, 1184.384
987.4229, 1172.564
989.3513, 1160.588
991.2798, 1151.251
993.2083, 1144.356
995.1367, 1138.354
997.0652, 1134.174
998.9937, 1129.849
1000.922, 1124.533
1002.851, 1118.460
1004.779, 1112.945
1006.708, 1108.168
1008.636, 1103.424
1010.564, 1097.960
1012.493, 1092.468
1014.421, 1088.219
1016.350, 1085.529
1018.278, 1082.841
1020.207, 1079.642
1022.135, 1076.384
1024.064, 1073.556
1025.992, 1071.525
1027.921, 1069.246
1029.849, 1065.645
1031.778, 1062.730
1033.706, 1062.245
1035.635, 1064.284
1037.563, 1065.451
1039.491, 1065.289
1041.420, 1064.428
1043.348, 1063.019
1045.277, 1061.045
1047.205, 1058.421
1049.134, 1054.360
1051.062, 1051.115
1052.991, 1050.159
1054.919, 1050.330
1056.848, 1049.319
1058.776, 1045.839
1060.705, 1043.652
1062.633, 1043.931
1064.562, 1044.960
1066.490, 1044.948
1068.418, 1043.793
1070.347, 1042.925
1072.275, 1042.854
1074.204, 1042.537
1076.132, 1041.403
1078.061, 1039.452
1079.989, 1037.367
1081.918, 1034.372
1083.846, 1032.222
1085.775, 1032.006
1087.703, 1032.864
1089.632, 1032.642
1091.560, 1030.988
1093.489, 1029.502
1095.417, 1029.185
1097.345, 1028.842
1099.274, 1027.245
1101.202, 1024.354
1103.131, 1022.258
1105.059, 1021.472
1106.988, 1021.452
1108.916, 1022.410
1110.845, 1024.165
1112.773, 1024.531
1114.702, 1022.388
1116.630, 1020.016
1118.559, 1016.938
1120.487, 1014.138
1122.416, 1013.853
1124.344, 1016.885
1126.272, 1018.604
1128.201, 1016.964
1130.129, 1014.624
1132.058, 1013.616
1133.986, 1014.011
1135.915, 1013.999
1137.843, 1012.987
1139.772, 1012.011
1141.700, 1011.160
1143.629, 1010.552
1145.557, 1010.720
1147.486, 1012.453
1149.414, 1013.656
1151.343, 1013.605
1153.271, 1013.172
1155.199, 1013.197
1157.128, 1013.654
1159.056, 1014.495
1160.985, 1015.666
1162.913, 1017.319
1164.842, 1020.130
1166.770, 1023.737
1168.699, 1025.592
1170.627, 1023.540
1172.556, 1023.209
1174.484, 1026.846
1176.413, 1032.027
1178.341, 1035.759
1180.270, 1037.622
1182.198, 1038.816
1184.126, 1038.197
1186.055, 1037.800
1187.983, 1039.277
1189.912, 1041.912
1191.840, 1043.202
1193.769, 1042.393
1195.697, 1042.010
1197.626, 1043.270
1199.554, 1045.459
1201.483, 1047.924
1203.411, 1050.868
1205.340, 1053.702
1207.268, 1056.169
1209.197, 1058.656
1211.125, 1061.339
1213.053, 1064.024
1214.982, 1066.126
1216.910, 1067.711
1218.839, 1068.281
1220.767, 1066.502
1222.696, 1064.389
1224.624, 1064.510
1226.553, 1066.964
1228.481, 1068.876
1230.410, 1070.392
1232.338, 1070.822
1234.267, 1069.332
1236.195, 1066.540
1238.124, 1064.440
1240.052, 1062.808
1241.980, 1062.088
1243.909, 1062.977
1245.837, 1064.107
1247.766, 1064.489
1249.694, 1064.105
1251.623, 1063.107
1253.551, 1060.125
1255.480, 1058.327
1257.408, 1060.104
1259.337, 1063.067
1261.265, 1062.887
1263.194, 1058.984
1265.122, 1056.166
1267.051, 1055.969
1268.979, 1056.448
1270.907, 1056.829
1272.836, 1057.031
1274.764, 1056.463
1276.693, 1054.494
1278.621, 1053.048
1280.550, 1052.679
1282.478, 1052.844
1284.407, 1052.939
1286.335, 1052.791
1288.264, 1053.429
1290.192, 1055.936
1292.121, 1057.818
1294.049, 1057.576
1295.978, 1056.420
1297.906, 1056.699
1299.834, 1058.630
1301.763, 1060.381
1303.691, 1062.110
1305.620, 1063.089
1307.548, 1062.464
1309.477, 1060.806
1311.405, 1059.678
1313.334, 1059.335
1315.262, 1059.058
1317.191, 1058.253
1319.119, 1057.841
1321.048, 1058.546
1322.976, 1060.397
1324.905, 1062.517
1326.833, 1065.633
1328.761, 1067.959
1330.690, 1068.647
1332.618, 1068.641
1334.547, 1069.067
1336.475, 1070.027
1338.404, 1071.102
1340.332, 1073.075
1342.261, 1074.324
1344.189, 1073.342
1346.118, 1071.608
1348.046, 1071.818
1349.975, 1074.199
1351.903, 1076.083
1353.832, 1077.027
1355.760, 1077.285
1357.688, 1076.284
1359.617, 1074.850
1361.545, 1075.305
1363.474, 1078.467
1365.402, 1080.941
1367.331, 1081.849
1369.259, 1082.083
1371.188, 1081.808
1373.116, 1081.131
1375.045, 1080.866
1376.973, 1081.001
1378.902, 1081.597
1380.830, 1082.851
1382.759, 1084.470
1384.687, 1086.493
1386.615, 1088.863
1388.544, 1090.585
1390.472, 1091.316
1392.401, 1092.106
1394.329, 1093.213
1396.258, 1094.409
1398.186, 1095.675
1400.115, 1096.880
1402.043, 1097.057
1403.972, 1095.137
1405.900, 1094.530
1407.829, 1097.433
1409.757, 1101.440
1411.686, 1104.701
1413.614, 1107.266
1415.542, 1109.079
1417.471, 1109.574
1419.399, 1110.509
1421.328, 1112.503
1423.256, 1114.952
1425.185, 1117.290
1427.113, 1119.413
1429.042, 1121.454
1430.970, 1123.489
1432.899, 1125.264
1434.827, 1127.064
1436.756, 1128.559
1438.684, 1129.313
1440.613, 1129.366
1442.541, 1129.905
1444.469, 1130.469
1446.398, 1132.217
1448.326, 1135.993
1450.255, 1140.477
1452.183, 1144.410
1454.112, 1147.649
1456.040, 1150.276
1457.969, 1151.895
1459.897, 1153.453
1461.826, 1155.395
1463.754, 1157.341
1465.683, 1158.837
1467.611, 1160.083
1469.540, 1161.993
1471.468, 1164.986
1473.396, 1167.840
1475.325, 1169.746
1477.253, 1171.691
1479.182, 1174.530
1481.110, 1178.043
1483.039, 1181.142
1484.967, 1183.803
1486.896, 1185.980
1488.824, 1187.327
1490.753, 1188.544
1492.681, 1190.035
1494.610, 1191.788
1496.538, 1193.570
1498.467, 1195.108
1500.395, 1197.221
1502.323, 1200.687
1504.252, 1203.891
1506.180, 1205.756
1508.109, 1206.779
1510.037, 1208.373
1511.966, 1211.120
1513.894, 1213.336
1515.823, 1214.183
1517.751, 1215.632
1519.680, 1218.966
1521.608, 1223.223
1523.537, 1226.669
1525.465, 1229.002
1527.394, 1231.794
1529.322, 1235.569
1531.250, 1239.037
1533.179, 1242.017
1535.107, 1244.328
1537.036, 1245.166
1538.964, 1244.766
1540.893, 1246.225
1542.821, 1250.391
1544.750, 1254.844
1546.678, 1259.577
1548.607, 1263.740
1550.535, 1266.040
1552.464, 1267.190
1554.392, 1269.746
1556.321, 1274.354
1558.249, 1277.561
1560.177, 1278.208
1562.106, 1277.938
1564.034, 1276.400
1565.963, 1275.223
1567.891, 1277.979
1569.820, 1285.059
1571.748, 1289.955
1573.677, 1290.102
1575.605, 1290.728
1577.534, 1294.344
1579.462, 1298.932
1581.391, 1302.866
1583.319, 1306.083
1585.248, 1308.008
1587.176, 1308.021
1589.104, 1308.404
1591.033, 1310.831
1592.961, 1312.802
1594.890, 1312.395
1596.818, 1310.402
1598.747, 1309.269
1600.675, 1308.888
1602.604, 1309.837
1604.532, 1313.865
1606.461, 1317.362
1608.389, 1318.892
1610.318, 1319.708
1612.246, 1321.173
1614.175, 1323.300
1616.103, 1325.978
1618.031, 1329.883
1619.960, 1332.593
1621.888, 1331.894
1623.817, 1331.263
1625.745, 1333.313
1627.674, 1337.031
1629.602, 1339.744
1631.531, 1342.332
1633.459, 1342.014
1635.388, 1335.846
1637.316, 1331.231
1639.245, 1331.907
1641.173, 1334.140
1643.102, 1333.523
1645.030, 1330.244
1646.958, 1328.732
1648.887, 1329.803
1650.815, 1331.404
1652.744, 1334.117
1654.672, 1336.520
1656.601, 1338.001
1658.529, 1338.633
1660.458, 1338.160
1662.386, 1336.010
1664.315, 1335.919
1666.243, 1339.844
1668.172, 1342.927
1670.100, 1343.593
1672.029, 1343.953
1673.957, 1345.800
1675.885, 1348.589
1677.814, 1350.445
1679.742, 1350.811
1681.671, 1351.669
1683.599, 1352.671
1685.528, 1354.463
1687.456, 1358.451
1689.385, 1362.220
1691.313, 1362.963
1693.242, 1361.149
1695.170, 1360.191
1697.099, 1360.553
1699.027, 1360.801
1700.956, 1360.990
1702.884, 1361.096
1704.813, 1361.319
1706.741, 1361.467
1708.669, 1361.044
1710.598, 1360.157
1712.526, 1360.304
1714.455, 1362.104
1716.383, 1363.751
1718.312, 1365.213
1720.240, 1366.272
1722.169, 1366.250
1724.097, 1365.940
1726.026, 1366.660
1727.954, 1368.340
1729.883, 1369.050
1731.811, 1368.164
1733.740, 1367.310
1735.668, 1367.102
1737.596, 1366.642
1739.525, 1365.398
1741.453, 1364.077
1743.382, 1363.840
1745.310, 1364.828
1747.239, 1365.139
1749.167, 1362.500
1751.096, 1362.507
1753.024, 1367.171
1754.953, 1371.903
1756.881, 1374.895
1758.810, 1376.275
1760.738, 1375.906
1762.667, 1373.818
1764.595, 1372.447
1766.523, 1372.400
1768.452, 1372.466
1770.380, 1372.548
1772.309, 1373.087
1774.237, 1374.785
1776.166, 1376.655
1778.094, 1377.306
1780.023, 1376.815
1781.951, 1376.700
1783.880, 1376.722
1785.808, 1377.567
1787.737, 1380.351
1789.665, 1382.455
1791.594, 1383.033
1793.522, 1382.572
1795.450, 1380.565
1797.379, 1377.735
1799.307, 1378.232
1801.236, 1383.461
1803.164, 1386.350
1805.093, 1385.442
1807.021, 1384.014
1808.950, 1382.016
1810.878, 1380.956
1812.807, 1382.608
1814.735, 1385.798
1816.664, 1387.378
1818.592, 1387.150
1820.521, 1387.906
1822.449, 1390.080
1824.377, 1391.986
1826.306, 1392.860
1828.234, 1393.541
1830.163, 1394.447
1832.091, 1395.453
1834.020, 1396.685
1835.948, 1398.057
1837.877, 1398.608
1839.805, 1398.279
1841.734, 1397.764
1843.662, 1396.715
1845.591, 1396.420
1847.519, 1397.962
1849.448, 1399.913
1851.376, 1401.203
1853.304, 1401.948
1855.233, 1402.211
1857.161, 1402.036
1859.090, 1402.659
1861.018, 1404.549
1862.947, 1406.754
1864.875, 1409.354
1866.804, 1411.947
1868.732, 1414.397
1870.661, 1416.501
1872.589, 1417.412
1874.518, 1417.306
1876.446, 1418.805
1878.375, 1422.538
1880.303, 1424.603
1882.231, 1422.911
1884.160, 1422.145
1886.088, 1425.373
1888.017, 1428.335
1889.945, 1428.069
1891.874, 1425.890
1893.802, 1423.596
1895.731, 1421.233
1897.659, 1420.484
1899.588, 1421.116
1901.516, 1423.415
1903.445, 1429.116
1905.373, 1433.541
1907.302, 1434.253
1909.230, 1434.033
1911.158, 1435.539
1913.087, 1437.762
1915.015, 1437.977
1916.944, 1436.241
1918.872, 1435.441
1920.801, 1435.623
1922.729, 1436.993
1924.658, 1439.629
1926.586, 1443.111
1928.515, 1449.119
1930.443, 1453.958
1932.372, 1453.744
1934.300, 1450.753
1936.229, 1449.620
1938.157, 1450.280
1940.085, 1449.880
1942.014, 1447.658
1943.942, 1446.744
1945.871, 1448.534
1947.799, 1450.448
1949.728, 1452.096
1951.656, 1452.840
1953.585, 1451.185
1955.513, 1448.682
1957.442, 1448.696
1959.370, 1451.322
1961.299, 1453.892
1963.227, 1456.433
1965.156, 1458.906
1967.084, 1461.364
1969.012, 1463.463
1970.941, 1464.111
1972.869, 1465.163
1974.798, 1468.793
1976.726, 1472.932
1978.655, 1473.978
1980.583, 1472.296
1982.512, 1472.083
1984.440, 1473.678
1986.369, 1475.945
1988.297, 1479.875
1990.226, 1482.075
1992.154, 1479.883
1994.083, 1478.097
1996.011, 1479.301
1997.939, 1481.962
1999.868, 1484.874
2001.796, 1487.883
2003.725, 1491.128
2005.653, 1494.634
2007.582, 1496.168
2009.510, 1494.743
2011.439, 1494.299
2013.367, 1495.462
2015.296, 1497.602
2017.224, 1500.832
2019.153, 1504.291
2021.081, 1507.927
2023.010, 1510.929
2024.938, 1511.885
2026.866, 1511.141
2028.795, 1510.802
2030.723, 1511.125
2032.652, 1511.892
2034.580, 1513.480
2036.509, 1515.029
2038.437, 1516.167
2040.366, 1517.323
2042.294, 1518.163
2044.223, 1519.168
2046.151, 1520.465
2048.080, 1522.187
2050.008, 1525.056
2051.937, 1528.798
2053.865, 1531.834
2055.793, 1534.249
2057.722, 1535.989
2059.650, 1537.125
2061.579, 1537.541
2063.507, 1535.566
2065.436, 1534.746
2067.364, 1537.223
2069.293, 1540.417
2071.221, 1543.136
2073.150, 1544.639
2075.078, 1542.794
2077.007, 1538.181
2078.935, 1536.279
2080.864, 1537.541
2082.792, 1539.067
2084.720, 1541.193
2086.649, 1542.261
2088.577, 1541.473
2090.506, 1540.681
2092.434, 1540.206
2094.363, 1540.557
2096.291, 1541.836
2098.220, 1544.058
2100.148, 1547.958
2102.077, 1552.554
2104.005, 1554.764
2105.934, 1554.279
2107.862, 1553.051
2109.791, 1550.263
2111.719, 1548.519
2113.647, 1548.670
2115.576, 1549.350
2117.504, 1551.797
2119.433, 1553.438
2121.361, 1552.522
2123.290, 1551.030
2125.218, 1549.885
2127.147, 1549.626
2129.075, 1551.697
2131.004, 1555.441
2132.932, 1558.411
2134.861, 1560.387
2136.789, 1562.506
2138.718, 1565.313
2140.646, 1566.560
2142.574, 1564.338
2144.503, 1562.842
2146.431, 1563.698
2148.360, 1565.138
2150.288, 1566.546
2152.217, 1567.823
2154.145, 1568.550
2156.074, 1569.206
2158.002, 1570.902
2159.931, 1573.424
2161.859, 1575.786
2163.788, 1577.979
2165.716, 1578.125
2167.645, 1575.602
2169.573, 1573.453
2171.501, 1572.055
2173.430, 1571.829
2175.358, 1574.118
2177.287, 1576.280
2179.215, 1576.287
2181.144, 1576.363
2183.072, 1578.730
2185.001, 1582.035
2186.929, 1584.111
2188.858, 1585.172
2190.786, 1586.414
2192.715, 1587.814
2194.643, 1589.626
2196.572, 1592.199
2198.500, 1593.073
2200.428, 1591.266
2202.357, 1590.464
2204.285, 1591.958
2206.214, 1593.933
2208.142, 1596.113
2210.071, 1597.884
2211.999, 1599.087
2213.928, 1599.447
2215.856, 1597.743
2217.785, 1595.661
2219.713, 1596.620
2221.642, 1600.125
2223.570, 1603.109
2225.499, 1605.560
2227.427, 1608.297
2229.355, 1611.209
2231.284, 1614.573
2233.212, 1618.823
2235.141, 1621.289
2237.069, 1620.081
2238.998, 1618.984
2240.926, 1620.381
2242.855, 1621.178
2244.783, 1618.830
2246.712, 1616.441
2248.640, 1617.289
2250.569, 1619.608
2252.497, 1620.844
2254.426, 1621.264
2256.354, 1621.409
2258.282, 1621.325
2260.211, 1621.600
2262.139, 1622.172
2264.068, 1623.565
2265.996, 1625.786
2267.925, 1628.620
2269.853, 1633.061
2271.782, 1636.201
2273.710, 1636.915
2275.639, 1637.188
2277.567, 1637.590
2279.496, 1637.956
2281.424, 1638.173
2283.353, 1638.289
2285.281, 1637.888
2287.209, 1637.672
2289.138, 1639.023
2291.066, 1641.257
2292.995, 1642.585
2294.923, 1643.304
2296.852, 1645.414
2298.780, 1649.370
2300.709, 1651.536
2302.637, 1650.440
2304.566, 1650.849
2306.494, 1653.647
2308.423, 1655.373
2310.351, 1654.154
2312.280, 1654.575
2314.208, 1658.991
2316.136, 1663.640
2318.065, 1667.550
2319.993, 1670.180
2321.922, 1669.347
2323.850, 1668.955
2325.779, 1674.359
2327.707, 1681.735
2329.636, 1685.047
2331.564, 1685.318
2333.493, 1685.374
2335.421, 1685.092
2337.350, 1684.038
2339.278, 1682.219
2341.207, 1680.727
2343.135, 1679.831
2345.063, 1677.990
2346.992, 1674.497
2348.920, 1672.461
2350.849, 1673.251
2352.777, 1674.219
2354.706, 1674.099
2356.634, 1675.080
2358.563, 1678.615
2360.491, 1681.797
2362.420, 1682.816
2364.348, 1683.575
2366.277, 1685.786
2368.205, 1688.057
2370.134, 1689.296
2372.062, 1689.744
2373.990, 1689.143
2375.919, 1688.301
2377.847, 1689.539
2379.776, 1692.299
2381.704, 1692.781
2383.633, 1691.287
2385.561, 1693.376
2387.490, 1699.165
2389.418, 1703.849
2391.347, 1706.844
2393.275, 1709.626
2395.204, 1712.779
2397.132, 1714.254
2399.061, 1710.862
2400.989, 1710.380
2402.917, 1716.831
2404.846, 1721.964
2406.774, 1723.204
2408.703, 1724.002
2410.631, 1727.063
2412.560, 1728.646
2414.488, 1724.188
2416.417, 1719.930
2418.345, 1721.199
2420.274, 1725.088
2422.202, 1729.106
2424.131, 1732.913
2426.059, 1736.396
2427.988, 1739.080
2429.916, 1738.781
2431.844, 1736.991
2433.773, 1739.468
2435.701, 1745.362
2437.630, 1748.680
2439.558, 1749.250
2441.487, 1748.586
2443.415, 1745.906
2445.344, 1745.676
2447.272, 1748.661
2449.201, 1751.000
2451.129, 1752.260
2453.058, 1753.297
2454.986, 1753.732
2456.915, 1755.629
2458.843, 1761.718
2460.771, 1765.242
2462.700, 1762.504
2464.628, 1759.818
2466.557, 1759.540
2468.485, 1759.405
2470.414, 1757.021
2472.342, 1756.388
2474.271, 1761.227
2476.199, 1766.669
2478.128, 1769.540
2480.056, 1770.890
2481.985, 1770.639
2483.913, 1770.361
2485.842, 1772.884
2487.770, 1776.045
2489.698, 1775.686
2491.627, 1773.638
2493.555, 1774.178
2495.484, 1776.315
2497.412, 1777.378
2499.341, 1777.664
2501.269, 1778.052
2503.198, 1778.601
2505.126, 1780.834
2507.055, 1784.904
2508.983, 1785.451
2510.912, 1782.222
2512.840, 1782.578
2514.769, 1787.180
2516.697, 1790.704
2518.625, 1792.777
2520.554, 1793.477
2522.482, 1791.272
2524.411, 1791.020
2526.339, 1794.171
2528.268, 1795.844
2530.196, 1794.455
2532.125, 1794.867
2534.053, 1799.554
2535.982, 1802.483
2537.910, 1800.507
2539.839, 1798.377
2541.767, 1796.451
2543.696, 1795.956
2545.624, 1798.242
2547.552, 1800.695
2549.481, 1802.362
2551.409, 1804.104
2553.338, 1807.130
2555.266, 1809.614
2557.195, 1809.886
2559.123, 1810.004
2561.052, 1811.034
2562.980, 1812.982
2564.909, 1816.473
2566.837, 1819.988
2568.766, 1821.974
2570.694, 1823.169
2572.623, 1823.974
2574.551, 1824.748
2576.479, 1825.884
2578.408, 1827.544
2580.336, 1831.167
2582.265, 1834.857
2584.193, 1833.734
2586.122, 1830.670
2588.050, 1831.409
2589.979, 1834.594
2591.907, 1837.869
2593.836, 1840.689
2595.764, 1841.094
2597.693, 1839.862
2599.621, 1840.737
2601.550, 1843.311
2603.478, 1845.889
2605.406, 1848.178
2607.335, 1847.625
2609.263, 1844.833
2611.192, 1845.713
2613.120, 1850.187
2615.049, 1853.451
2616.977, 1855.451
2618.906, 1855.965
2620.834, 1855.039
2622.763, 1854.592
2624.691, 1854.641
2626.620, 1857.293
2628.548, 1863.510
2630.477, 1865.974
2632.405, 1863.743
2634.333, 1865.309
2636.262, 1871.311
2638.190, 1874.318
2640.119, 1873.516
2642.047, 1870.990
2643.976, 1865.343
2645.904, 1863.771
2647.833, 1868.090
2649.761, 1870.619
2651.690, 1870.828
2653.618, 1872.092
2655.547, 1874.988
2657.475, 1878.036
2659.404, 1881.025
2661.332, 1883.704
2663.260, 1885.491
2665.189, 1887.843
2667.117, 1891.311
2669.046, 1891.957
2670.974, 1888.261
2672.903, 1887.451
2674.831, 1893.072
2676.760, 1895.623
2678.688, 1892.384
2680.617, 1889.739
2682.545, 1887.855
2684.474, 1887.612
2686.402, 1889.613
2688.331, 1891.382
2690.259, 1892.164
2692.188, 1893.605
2694.116, 1897.001
2696.044, 1898.709
2697.973, 1897.263
2699.901, 1898.100
2701.830, 1902.602
2703.758, 1906.462
2705.687, 1908.562
2707.615, 1910.230
2709.544, 1911.481
2711.472, 1912.340
2713.401, 1912.492
2715.329, 1913.401
2717.258, 1915.519
2719.186, 1917.785
2721.115, 1920.877
2723.043, 1922.341
2724.971, 1920.438
2726.900, 1921.073
2728.828, 1925.614
2730.757, 1928.231
2732.685, 1927.385
2734.614, 1927.239
2736.542, 1927.923
2738.471, 1930.468
2740.399, 1937.072
2742.328, 1938.315
2744.256, 1932.006
2746.185, 1931.243
2748.113, 1939.032
2750.042, 1944.647
2751.970, 1945.857
2753.898, 1947.389
2755.827, 1949.838
2757.755, 1949.810
2759.684, 1946.665
2761.612, 1947.059
2763.541, 1952.404
2765.469, 1954.820
2767.398, 1952.342
2769.326, 1952.641
2771.255, 1955.879
2773.183, 1959.814
2775.112, 1964.286
2777.040, 1966.391
2778.969, 1965.794
2780.897, 1965.239
2782.825, 1964.762
2784.754, 1965.888
2786.682, 1968.507
2788.611, 1969.420
2790.539, 1968.818
2792.468, 1969.627
2794.396, 1971.615
2796.325, 1970.962
2798.253, 1968.209
2800.182, 1968.977
2802.110, 1972.261
2804.039, 1973.990
2805.967, 1974.355
2807.896, 1974.099
2809.824, 1973.619
2811.752, 1973.647
2813.681, 1974.780
2815.609, 1980.161
2817.538, 1986.740
2819.466, 1987.678
2821.395, 1985.922
2823.323, 1987.137
2825.252, 1989.070
2827.180, 1987.098
2829.109, 1984.418
2831.037, 1985.606
2832.966, 1988.214
2834.894, 1990.107
2836.823, 1991.450
2838.751, 1991.905
2840.679, 1992.542
2842.608, 1995.256
2844.536, 1997.197
2846.465, 1995.060
2848.393, 1993.053
2850.322, 1994.658
2852.250, 1996.317
2854.179, 1995.297
2856.107, 1995.469
2858.036, 1999.562
2859.964, 2003.520
2861.893, 2004.972
2863.821, 2006.931
2865.750, 2010.783
2867.678, 2013.506
2869.606, 2013.834
2871.535, 2014.267
2873.463, 2016.422
2875.392, 2016.623
2877.320, 2012.674
2879.249, 2012.714
2881.177, 2018.332
2883.106, 2022.758
2885.034, 2025.085
2886.963, 2026.089
2888.891, 2024.736
2890.820, 2027.280
2892.748, 2033.559
2894.677, 2034.832
2896.605, 2031.449
2898.533, 2030.589
2900.462, 2032.242
2902.390, 2035.019
2904.319, 2038.460
2906.247, 2039.180
2908.176, 2038.839
2910.104, 2042.404
2912.033, 2047.137
2913.961, 2046.839
2915.890, 2044.923
2917.818, 2046.692
2919.747, 2050.077
2921.675, 2054.446
2923.604, 2057.351
2925.532, 2054.134
2927.460, 2051.703
2929.389, 2057.221
2931.317, 2062.313
2933.246, 2062.386
2935.174, 2061.692
2937.103, 2061.366
2939.031, 2062.028
2940.960, 2064.560
2942.888, 2066.067
2944.817, 2064.850
2946.745, 2066.487
2948.674, 2075.411
2950.602, 2079.725
2952.531, 2077.683
2954.459, 2077.537
2956.387, 2079.811
2958.316, 2079.347
2960.244, 2075.310
2962.173, 2077.471
2964.101, 2085.115
2966.030, 2088.818
2967.958, 2089.383
2969.887, 2088.938
2971.815, 2088.234
2973.744, 2087.747
2975.672, 2088.540
2977.601, 2093.031
2979.529, 2098.808
2981.458, 2102.963
2983.386, 2106.683
2985.314, 2113.513
2987.243, 2116.854
2989.171, 2108.698
2991.100, 2102.051
2993.028, 2104.520
2994.957, 2106.791
2996.885, 2104.372
2998.814, 2103.738
3000.742, 2107.123
3002.671, 2107.884
3004.599, 2104.144
3006.528, 2102.559
3008.456, 2104.461
3010.385, 2106.325
3012.313, 2108.102
3014.241, 2113.456
3016.170, 2121.205
3018.098, 2123.147
3020.027, 2121.025
3021.955, 2122.658
3023.884, 2125.390
3025.812, 2122.117
3027.741, 2117.899
3029.669, 2119.818
3031.598, 2123.088
3033.526, 2122.628
3035.455, 2121.936
3037.383, 2122.264
3039.312, 2123.978
3041.240, 2130.316
3043.168, 2132.440
3045.097, 2126.026
3047.025, 2122.406
3048.954, 2124.185
3050.882, 2126.705
3052.811, 2129.730
3054.739, 2131.396
3056.668, 2131.544
3058.596, 2132.370
3060.525, 2133.567
3062.453, 2133.112
3064.382, 2131.783
3066.310, 2132.367
3068.239, 2133.715
3070.167, 2133.788
3072.095, 2133.300
3074.024, 2131.465
3075.952, 2131.187
3077.881, 2137.068
3079.809, 2141.358
3081.738, 2139.607
3083.666, 2137.958
3085.595, 2139.669
3087.523, 2140.253
3089.452, 2138.854
3091.380, 2139.708
3093.309, 2143.641
3095.237, 2145.734
3097.166, 2145.410
3099.094, 2145.037
3101.022, 2144.408
3102.951, 2143.388
3104.879, 2142.507
3106.808, 2143.598
3108.736, 2145.222
3110.665, 2146.039
3112.593, 2145.739
3114.522, 2142.264
3116.450, 2140.401
3118.379, 2144.448
3120.307, 2147.581
3122.236, 2147.360
3124.164, 2148.093
3126.093, 2150.768
3128.021, 2154.405
3129.949, 2159.006
3131.878, 2161.885
3133.806, 2162.797
3135.735, 2160.470
3137.663, 2156.680
3139.592, 2157.071
3141.520, 2160.960
3143.449, 2172.036
3145.377, 2179.740
3147.306, 2168.959
3149.234, 2157.265
3151.163, 2155.386
3153.091, 2155.769
3155.020, 2156.496
3156.948, 2157.355
3158.876, 2158.161
3160.805, 2160.087
3162.733, 2163.353
3164.662, 2162.511
3166.590, 2157.832
3168.519, 2157.074
3170.447, 2159.094
3172.376, 2160.015
3174.304, 2161.019
3176.233, 2164.813
3178.161, 2168.212
3180.090, 2166.535
3182.018, 2165.805
3183.947, 2169.776
3185.875, 2172.977
3187.803, 2173.428
3189.732, 2172.446
3191.660, 2169.833
3193.589, 2169.702
3195.517, 2172.456
3197.446, 2172.061
3199.374, 2169.242
3201.303, 2169.048
3203.231, 2168.355
3205.160, 2159.537
3207.088, 2150.857
3209.017, 2152.650
3210.945, 2155.915
3212.874, 2155.316
3214.802, 2156.495
3216.730, 2163.056
3218.659, 2167.383
3220.587, 2168.304
3222.516, 2168.052
3224.444, 2166.671
3226.373, 2165.161
3228.301, 2163.689
3230.230, 2163.157
3232.158, 2162.315
3234.087, 2157.840
3236.015, 2153.718
3237.944, 2153.423
3239.872, 2154.717
3241.801, 2157.526
3243.729, 2158.698
3245.657, 2156.057
3247.586, 2154.449
3249.514, 2154.253
3251.443, 2152.401
3253.371, 2148.978
3255.300, 2144.282
3257.228, 2139.571
3259.157, 2137.311
3261.085, 2137.520
3263.014, 2143.581
3264.942, 2146.916
3266.871, 2139.643
3268.799, 2133.778
3270.728, 2132.595
3272.656, 2133.406
3274.584, 2136.554
3276.513, 2136.566
3278.441, 2133.808
3280.370, 2131.714
3282.298, 2130.223
3284.227, 2128.572
3286.155, 2127.695
3288.084, 2130.091
3290.012, 2131.168
3291.941, 2126.235
3293.869, 2122.481
3295.798, 2121.823
3297.726, 2120.856
3299.655, 2118.632
3301.583, 2118.533
3303.511, 2120.296
3305.440, 2121.757
3307.368, 2122.878
3309.297, 2124.167
3311.225, 2124.523
3313.154, 2122.548
3315.082, 2119.818
3317.011, 2116.125
3318.939, 2114.013
3320.868, 2113.475
3322.796, 2117.986
3324.725, 2127.463
3326.653, 2128.587
3328.582, 2123.382
3330.510, 2121.714
3332.438, 2121.155
3334.367, 2118.110
3336.295, 2115.360
3338.224, 2115.060
3340.152, 2115.960
3342.081, 2118.021
3344.009, 2119.546
3345.938, 2119.924
3347.866, 2120.011
3349.795, 2119.837
3351.723, 2120.468
3353.652, 2120.907
3355.580, 2118.044
3357.509, 2115.606
3359.437, 2116.340
3361.365, 2118.649
3363.294, 2123.821
3365.222, 2124.354
3367.151, 2118.413
3369.079, 2119.642
3371.008, 2127.715
3372.936, 2129.127
3374.865, 2126.463
3376.793, 2124.219
3378.722, 2122.774
3380.650, 2123.524
3382.579, 2123.362
3384.507, 2120.648
3386.436, 2118.609
3388.364, 2117.958
3390.292, 2118.268
3392.221, 2119.413
3394.149, 2120.811
3396.078, 2122.094
3398.006, 2122.275
3399.935, 2122.344
3401.863, 2123.086
3403.792, 2123.879
3405.720, 2123.962
3407.649, 2125.502
3409.577, 2128.814
3411.506, 2128.599
3413.434, 2125.683
3415.363, 2125.716
3417.291, 2127.308
3419.219, 2128.111
3421.148, 2129.294
3423.076, 2133.508
3425.005, 2133.886
3426.933, 2127.319
3428.862, 2125.448
3430.790, 2130.147
3432.719, 2131.748
3434.647, 2131.626
3436.576, 2133.513
3438.504, 2135.589
3440.433, 2135.681
3442.361, 2134.837
3444.290, 2132.586
3446.218, 2131.310
3448.146, 2131.311
3450.075, 2130.764
3452.003, 2129.967
3453.932, 2133.134
3455.860, 2136.360
3457.789, 2130.476
3459.717, 2125.362
3461.646, 2130.197
3463.574, 2132.781
3465.503, 2129.847
3467.431, 2128.432
3469.360, 2129.022
3471.288, 2127.969
3473.217, 2126.471
3475.145, 2129.644
3477.073, 2132.030
3479.002, 2127.157
3480.930, 2123.935
3482.859, 2125.786
3484.787, 2126.904
3486.716, 2126.395
3488.644, 2123.714
3490.573, 2120.617
3492.501, 2124.560
3494.430, 2128.554
3496.358, 2123.825
3498.287, 2118.782
3500.215, 2115.777
3502.144, 2117.477
3504.072, 2125.243
3506.000, 2128.708
3507.929, 2127.898
3509.857, 2120.273
3511.786, 2114.245
3513.714, 2123.428
3515.643, 2130.942
3517.571, 2126.894
3519.500, 2124.744
3521.428, 2125.841
3523.357, 2129.418
3525.285, 2133.983
3527.214, 2133.969
3529.142, 2132.254
3531.071, 2131.891
3532.999, 2131.015
3534.927, 2127.456
3536.856, 2127.550
3538.784, 2131.936
3540.713, 2132.886
3542.641, 2131.336
3544.570, 2129.613
3546.498, 2129.117
3548.427, 2132.943
3550.355, 2134.442
3552.284, 2130.753
3554.212, 2128.990
3556.141, 2130.207
3558.069, 2132.045
3559.998, 2133.623
3561.926, 2132.270
3563.854, 2130.368
3565.783, 2128.615
3567.711, 2129.346
3569.640, 2133.773
3571.568, 2134.497
3573.497, 2131.420
3575.425, 2131.989
3577.354, 2134.089
3579.282, 2135.162
3581.211, 2135.911
3583.139, 2136.875
3585.068, 2138.192
3586.996, 2140.509
3588.925, 2138.175
3590.853, 2133.671
3592.781, 2136.463
3594.710, 2141.569
3596.638, 2144.694
3598.567, 2146.036
3600.495, 2145.143
3602.424, 2144.331
3604.352, 2143.906
3606.281, 2144.548
3608.209, 2145.473
3610.138, 2146.084
3612.066, 2144.554
3613.995, 2137.204
3615.923, 2135.839
3617.852, 2144.596
3619.780, 2144.800
3621.708, 2139.642
3623.637, 2144.104
3625.565, 2150.187
3627.494, 2148.610
3629.422, 2147.468
3631.351, 2151.638
3633.279, 2151.353
3635.208, 2147.487
3637.136, 2150.392
3639.065, 2155.669
3640.993, 2155.586
3642.922, 2153.924
3644.850, 2150.575
3646.779, 2150.794
3648.707, 2154.935
3650.635, 2159.323
3652.564, 2162.688
3654.492, 2160.774
3656.421, 2158.524
3658.349, 2161.520
3660.278, 2160.499
3662.206, 2153.242
3664.135, 2151.743
3666.063, 2155.126
3667.992, 2158.088
3669.920, 2160.118
3671.849, 2160.083
3673.777, 2160.230
3675.706, 2161.342
3677.634, 2162.136
3679.563, 2162.669
3681.491, 2163.615
3683.419, 2164.018
3685.348, 2161.394
3687.276, 2159.962
3689.205, 2161.208
3691.133, 2164.910
3693.062, 2170.216
3694.990, 2169.531
3696.919, 2166.143
3698.847, 2164.147
3700.776, 2163.621
3702.704, 2165.891
3704.633, 2166.015
3706.561, 2163.912
3708.490, 2164.384
3710.418, 2166.140
3712.346, 2167.487
3714.275, 2168.048
3716.203, 2166.289
3718.132, 2167.697
3720.060, 2172.310
3721.989, 2173.438
3723.917, 2172.038
3725.846, 2167.749
3727.774, 2165.714
3729.703, 2169.397
3731.631, 2175.390
3733.560, 2182.479
3735.488, 2181.316
3737.417, 2176.111
3739.345, 2173.335
3741.273, 2172.731
3743.202, 2177.079
3745.130, 2177.225
3747.059, 2173.380
3748.987, 2170.573
3750.916, 2169.670
3752.844, 2172.316
3754.773, 2175.977
3756.701, 2179.874
3758.630, 2182.868
3760.558, 2184.470
3762.487, 2183.265
3764.415, 2180.349
3766.344, 2176.356
3768.272, 2173.374
3770.200, 2173.553
3772.129, 2172.124
3774.057, 2170.147
3775.986, 2173.832
3777.914, 2177.262
3779.843, 2171.742
3781.771, 2168.832
3783.700, 2173.378
3785.628, 2176.019
3787.557, 2176.757
3789.485, 2176.503
3791.414, 2176.425
3793.342, 2178.455
3795.271, 2177.930
3797.199, 2172.681
3799.127, 2175.423
3801.056, 2181.302
3802.984, 2178.470
3804.913, 2174.482
3806.841, 2173.216
3808.770, 2173.468
3810.698, 2174.957
3812.627, 2177.606
3814.555, 2179.652
3816.484, 2177.349
3818.412, 2175.269
3820.341, 2175.082
3822.269, 2174.958
3824.198, 2174.697
3826.126, 2173.803
3828.054, 2171.890
3829.983, 2166.902
3831.911, 2164.952
3833.840, 2167.833
3835.768, 2166.745
3837.697, 2165.077
3839.625, 2175.617
3841.554, 2183.819
3843.482, 2179.493
3845.411, 2174.773
3847.339, 2171.388
3849.268, 2173.364
3851.196, 2175.293
3853.125, 2168.480
3855.053, 2163.814
3856.981, 2164.542
3858.910, 2166.443
3860.838, 2168.888
3862.767, 2173.200
3864.695, 2174.537
3866.624, 2166.370
3868.552, 2161.341
3870.481, 2160.964
3872.409, 2166.205
3874.338, 2172.827
3876.266, 2174.513
3878.195, 2174.975
3880.123, 2175.217
3882.052, 2176.169
3883.980, 2177.312
3885.908, 2176.821
3887.837, 2175.494
3889.765, 2173.185
3891.694, 2172.950
3893.622, 2175.259
3895.551, 2177.950
3897.479, 2180.265
3899.408, 2181.518
3901.336, 2180.466
3903.265, 2175.560
3905.193, 2177.667
3907.122, 2183.350
3909.050, 2179.787
3910.979, 2176.196
3912.907, 2178.502
3914.835, 2181.298
3916.764, 2183.598
3918.692, 2181.829
3920.621, 2180.029
3922.549, 2184.171
3924.478, 2185.789
3926.406, 2183.396
3928.335, 2184.265
3930.263, 2186.604
3932.192, 2186.246
3934.120, 2184.484
3936.049, 2180.176
3937.977, 2180.067
3939.906, 2183.592
3941.834, 2189.671
3943.762, 2193.107
3945.691, 2188.756
3947.619, 2187.945
3949.548, 2191.224
3951.476, 2187.936
3953.405, 2184.660
3955.333, 2191.024
3957.262, 2195.016
3959.190, 2193.149
3961.119, 2192.401
3963.047, 2192.779
3964.976, 2195.137
3966.904, 2196.065
3968.833, 2194.144
3970.761, 2193.735
3972.689, 2194.131
3974.618, 2191.056
3976.546, 2190.034
3978.475, 2197.049
3980.403, 2195.451
3982.332, 2187.300
3984.260, 2192.301
3986.189, 2198.834
3988.117, 2197.594
3990.046, 2193.660
3991.974, 2188.578
3993.903, 2191.906
3995.831, 2196.448
3997.760, 2193.864
3999.688, 2191.716
4001.616, 2191.671
4003.545, 2194.862
4005.473, 2198.292
4007.402, 2196.770
4009.330, 2195.640
4011.259, 2196.543
4013.187, 2196.083
4015.116, 2194.683
4017.044, 2191.757
4018.973, 2191.972
4020.901, 2197.123
4022.830, 2199.876
4024.758, 2200.063
4026.687, 2198.307
4028.615, 2194.449
4030.543, 2186.532
4032.472, 2183.780
4034.400, 2185.434
4036.329, 2189.631
4038.257, 2190.532
4040.186, 2181.700
4042.114, 2184.808
4044.043, 2196.024
4045.971, 2194.466
4047.900, 2190.634
4049.828, 2191.365
4051.757, 2189.331
4053.685, 2184.760
4055.614, 2183.522
4057.542, 2183.775
4059.470, 2185.084
4061.399, 2184.553
4063.327, 2183.145
4065.256, 2190.711
4067.184, 2197.182
4069.113, 2192.190
4071.041, 2191.562
4072.970, 2194.907
4074.898, 2191.103
4076.827, 2186.139
4078.755, 2184.568
4080.684, 2183.710
4082.612, 2183.103
4084.541, 2181.560
4086.469, 2179.555
4088.397, 2176.235
4090.326, 2178.276
4092.254, 2185.149
4094.183, 2185.754
4096.111, 2184.116
4098.040, 2182.070
4099.968, 2182.795
4101.896, 2185.387
4103.825, 2183.135
4105.754, 2179.457
4107.682, 2175.531
4109.610, 2177.765
4111.539, 2184.173
4113.468, 2182.439
4115.396, 2179.818
4117.324, 2181.311
4119.253, 2180.509
4121.182, 2178.279
4123.110, 2184.003
4125.038, 2187.258
4126.967, 2179.342
4128.896, 2181.200
4130.824, 2189.828
4132.752, 2189.856
4134.681, 2187.489
4136.609, 2184.300
4138.538, 2185.598
4140.466, 2189.473
4142.395, 2191.618
4144.323, 2191.448
4146.251, 2187.917
4148.180, 2190.370
4150.108, 2195.293
4152.037, 2195.376
4153.965, 2194.419
4155.894, 2193.613
4157.822, 2197.770
4159.751, 2202.245
4161.679, 2197.536
4163.607, 2197.210
4165.536, 2203.663
4167.465, 2205.290
4169.393, 2204.300
4171.321, 2202.489
4173.250, 2202.531
4175.179, 2204.783
4177.107, 2205.489
4179.035, 2205.231
4180.964, 2202.921
4182.893, 2205.022
4184.821, 2210.579
4186.749, 2212.461
4188.678, 2212.244
4190.606, 2210.691
4192.535, 2206.295
4194.463, 2201.185
4196.392, 2202.612
4198.320, 2202.446
4200.249, 2196.676
4202.177, 2195.801
4204.105, 2197.941
4206.034, 2200.381
4207.962, 2201.913
4209.891, 2202.136
4211.819, 2197.462
4213.748, 2195.002
4215.676, 2204.772
4217.604, 2209.278
4219.533, 2207.224
4221.462, 2203.890
4223.390, 2199.756
4225.318, 2194.923
4227.247, 2191.871
4229.176, 2191.626
4231.104, 2197.180
4233.032, 2203.278
4234.961, 2207.864
4236.890, 2207.946
4238.818, 2206.770
4240.746, 2209.942
4242.675, 2207.894
##END=



