##NAMES=Carbonatecyanotrichite
##RRUFFID=R060600
##IDEAL CHEMISTRY=Cu_4_Al_2_(CO_3_)(OH)_12_·2H_2_O
##LOCALITY=Jomac mine, San Juan County, Utah, USA
##OWNER=RRUFF
##SOURCE=Michael Scott
##DESCRIPTION=Blue spherical aggregates associated with gypsum and antlerite
##STATUS=The identification of this mineral is not yet confirmed
##URL=https://www.rruff.net/odr/rruff_sample/R060600
##FILETYPE=Raman Processed
##RAMAN WAVELENGTH=780

86.27148, 7.286799
88.19995, 8.645172
90.12842, 10.32276
92.05688, 11.96280
93.98535, 13.60932
95.91382, 14.19054
97.84229, 13.52334
99.77075, 12.72719
101.6992, 12.06759
103.6277, 11.52745
105.5562, 11.01612
107.4846, 10.45919
109.4131, 9.931436
111.3416, 9.465384
113.2700, 9.044644
115.1985, 8.642069
117.1270, 8.214390
119.0554, 7.887663
120.9839, 7.744514
122.9124, 7.653000
124.8408, 7.493782
126.7693, 7.306359
128.6978, 7.326386
130.6262, 7.625931
132.5547, 7.785544
134.4832, 7.599935
136.4116, 7.324982
138.3401, 7.040553
140.2686, 6.781678
142.1970, 6.668192
144.1255, 6.731410
146.0540, 6.733593
147.9824, 6.586967
149.9109, 6.399642
151.8394, 6.172798
153.7678, 5.951894
155.6963, 5.840079
157.6248, 5.845945
159.5532, 5.822148
161.4817, 5.715091
163.4102, 5.603685
165.3386, 5.488448
167.2671, 5.396933
169.1956, 5.380401
171.1240, 5.433633
173.0525, 5.460749
174.9810, 5.432336
176.9094, 5.396323
178.8379, 5.337553
180.7664, 5.292901
182.6948, 5.321145
184.6233, 5.398565
186.5518, 5.414250
188.4802, 5.277845
190.4087, 5.224678
192.3372, 5.326715
194.2656, 5.469193
196.1941, 5.615867
198.1226, 5.741247
200.0510, 5.772650
201.9795, 5.640940
203.9080, 5.603474
205.8364, 5.745875
207.7649, 5.881773
209.6934, 5.900352
211.6218, 5.900794
213.5503, 6.000694
215.4788, 6.214286
217.4072, 6.409371
219.3357, 6.611100
221.2642, 6.753638
223.1926, 6.750264
225.1211, 6.760864
227.0496, 6.957391
228.9780, 7.260030
230.9065, 7.330854
232.8350, 7.049534
234.7634, 6.837220
236.6919, 6.757064
238.6204, 6.666110
240.5488, 6.472178
242.4773, 6.245566
244.4058, 6.058851
246.3342, 5.913496
248.2627, 5.812020
250.1912, 5.763525
252.1196, 5.724458
254.0481, 5.664775
255.9766, 5.635986
257.9050, 5.671132
259.8335, 5.757784
261.7620, 5.874104
263.6904, 6.024010
265.6189, 6.154512
267.5474, 6.248821
269.4758, 6.352525
271.4043, 6.571659
273.3328, 6.730083
275.2612, 6.645479
277.1897, 6.361496
279.1182, 6.106213
281.0466, 5.884806
282.9751, 5.634516
284.9036, 5.287433
286.8320, 4.996757
288.7605, 4.857909
290.6890, 4.775630
292.6174, 4.638684
294.5459, 4.456973
296.4744, 4.269389
298.4028, 4.056340
300.3313, 3.937221
302.2598, 3.999326
304.1882, 4.094552
306.1167, 4.206160
308.0452, 4.296370
309.9736, 4.285398
311.9021, 4.199783
313.8306, 4.151559
315.7590, 4.152791
317.6875, 4.185485
319.6160, 4.324890
321.5445, 4.398248
323.4729, 4.247445
325.4014, 4.031417
327.3299, 3.972556
329.2583, 4.045341
331.1868, 4.109128
333.1153, 4.164629
335.0437, 4.179107
336.9722, 4.122918
338.9007, 4.060051
340.8291, 4.024740
342.7576, 3.994963
344.6861, 3.938816
346.6145, 3.862632
348.5430, 3.810506
350.4715, 3.769242
352.3999, 3.788561
354.3284, 3.939588
356.2569, 4.060981
358.1853, 4.054729
360.1138, 4.016587
362.0423, 4.053823
363.9707, 4.145103
365.8992, 4.146911
367.8277, 3.996801
369.7561, 3.900575
371.6846, 3.886837
373.6131, 3.879121
375.5415, 3.842290
377.4700, 3.814533
379.3985, 3.825008
381.3269, 3.864409
383.2554, 3.918292
385.1839, 4.002347
387.1123, 4.004392
389.0408, 3.880877
390.9693, 3.788044
392.8977, 3.761041
394.8262, 3.782928
396.7547, 3.866369
398.6831, 3.973741
400.6116, 4.049409
402.5401, 4.095022
404.4685, 4.157677
406.3970, 4.240904
408.3255, 4.318697
410.2539, 4.389118
412.1824, 4.448803
414.1109, 4.473134
416.0393, 4.509394
417.9678, 4.595581
419.8963, 4.721919
421.8247, 4.863951
423.7532, 5.021461
425.6817, 5.207700
427.6101, 5.444223
429.5386, 5.624736
431.4671, 5.646568
433.3955, 5.699953
435.3240, 5.928091
437.2525, 6.174666
439.1809, 6.249180
441.1094, 6.193649
443.0379, 6.182792
444.9663, 6.217128
446.8948, 6.154348
448.8233, 5.899359
450.7517, 5.736765
452.6802, 5.841689
454.6087, 5.919898
456.5371, 5.793129
458.4656, 5.584136
460.3941, 5.414058
462.3225, 5.294043
464.2510, 5.289509
466.1795, 5.415135
468.1079, 5.447429
470.0364, 5.267932
471.9649, 5.153029
473.8933, 5.131298
475.8218, 5.202988
477.7503, 5.485605
479.6787, 5.772168
481.6072, 5.758664
483.5357, 5.580738
485.4641, 5.601781
487.3926, 5.863260
489.3211, 6.038192
491.2495, 6.027240
493.1780, 6.044008
495.1065, 6.119650
497.0349, 6.203683
498.9634, 6.252172
500.8919, 6.321939
502.8203, 6.468196
504.7488, 6.667093
506.6773, 6.884331
508.6057, 7.125503
510.5342, 7.301312
512.4626, 7.313090
514.3911, 7.461913
516.3196, 7.864928
518.2480, 8.208729
520.1765, 8.397455
522.1050, 8.494211
524.0334, 8.523480
525.9619, 8.498952
527.8904, 8.448294
529.8188, 8.360005
531.7473, 8.164226
533.6758, 7.841221
535.6042, 7.505145
537.5327, 7.157244
539.4612, 6.791492
541.3896, 6.375667
543.3181, 6.002788
545.2466, 5.700472
547.1750, 5.476177
549.1035, 5.392631
551.0320, 5.359702
552.9604, 5.204458
554.8889, 4.954442
556.8174, 4.833926
558.7458, 4.847504
560.6743, 4.784492
562.6028, 4.591837
564.5313, 4.477843
566.4598, 4.529603
568.3882, 4.612209
570.3167, 4.657667
572.2452, 4.730589
574.1736, 4.870563
576.1021, 5.068808
578.0306, 5.328707
579.9590, 5.636425
581.8875, 5.978420
583.8160, 6.342513
585.7444, 6.490416
587.6729, 6.364966
589.6014, 6.202426
591.5298, 6.043594
593.4583, 5.865375
595.3868, 5.625059
597.3152, 5.409676
599.2437, 5.265769
601.1722, 5.169447
603.1006, 5.119699
605.0291, 5.088069
606.9576, 5.014231
608.8860, 4.907717
610.8145, 4.818182
612.7430, 4.750519
614.6714, 4.677258
616.5999, 4.586432
618.5284, 4.510067
620.4568, 4.480438
622.3853, 4.423538
624.3138, 4.266637
626.2422, 4.135899
628.1707, 4.146444
630.0992, 4.192202
632.0276, 4.158895
633.9561, 4.082237
635.8846, 4.037779
637.8130, 4.019126
639.7415, 3.941277
641.6700, 3.772270
643.5984, 3.660625
645.5269, 3.628303
647.4554, 3.613432
649.3839, 3.625252
651.3123, 3.633042
653.2408, 3.623803
655.1693, 3.615542
657.0977, 3.632521
659.0262, 3.638923
660.9547, 3.589124
662.8831, 3.523775
664.8116, 3.513064
666.7401, 3.539269
668.6685, 3.528154
670.5970, 3.477359
672.5255, 3.442689
674.4539, 3.421794
676.3824, 3.428861
678.3109, 3.471604
680.2393, 3.522516
682.1678, 3.605350
684.0963, 3.621704
686.0247, 3.461224
687.9532, 3.334702
689.8817, 3.365155
691.8101, 3.447575
693.7386, 3.531330
695.6671, 3.592282
697.5955, 3.582153
699.5240, 3.525052
701.4525, 3.478543
703.3809, 3.446768
705.3094, 3.462001
707.2379, 3.523618
709.1663, 3.594621
711.0948, 3.679344
713.0233, 3.707722
714.9517, 3.643482
716.8802, 3.591130
718.8087, 3.590397
720.7371, 3.587497
722.6656, 3.577684
724.5941, 3.547611
726.5225, 3.436867
728.4510, 3.359913
730.3795, 3.467418
732.3079, 3.628159
734.2364, 3.655826
736.1649, 3.605865
738.0933, 3.597134
740.0218, 3.614157
741.9503, 3.598499
743.8787, 3.550699
745.8072, 3.500771
747.7357, 3.438588
749.6641, 3.464968
751.5926, 3.652964
753.5211, 3.776767
755.4495, 3.810986
757.3780, 3.789030
759.3065, 3.671179
761.2349, 3.564437
763.1634, 3.470601
765.0919, 3.442353
767.0203, 3.589680
768.9488, 3.724530
770.8773, 3.660257
772.8057, 3.540969
774.7342, 3.496212
776.6627, 3.510355
778.5911, 3.590256
780.5196, 3.700469
782.4481, 3.710629
784.3765, 3.630597
786.3050, 3.583394
788.2335, 3.571631
790.1619, 3.567918
792.0904, 3.570809
794.0189, 3.591392
795.9473, 3.647316
797.8758, 3.652519
799.8043, 3.564864
801.7327, 3.535285
803.6612, 3.635011
805.5897, 3.694369
807.5181, 3.616527
809.4466, 3.566692
811.3751, 3.654633
813.3035, 3.741388
815.2320, 3.744971
817.1605, 3.729446
819.0889, 3.736871
821.0174, 3.750556
822.9459, 3.746889
824.8743, 3.744347
826.8028, 3.791639
828.7313, 3.849343
830.6597, 3.824870
832.5882, 3.740152
834.5167, 3.645306
836.4451, 3.554924
838.3736, 3.572342
840.3021, 3.682131
842.2305, 3.739808
844.1590, 3.740685
846.0875, 3.753590
848.0159, 3.790556
849.9444, 3.707088
851.8729, 3.440118
853.8013, 3.319575
855.7298, 3.452091
857.6583, 3.569728
859.5867, 3.631057
861.5152, 3.655359
863.4437, 3.656614
865.3721, 3.606337
867.3006, 3.416632
869.2291, 3.295761
871.1575, 3.376178
873.0860, 3.467479
875.0145, 3.482652
876.9429, 3.466694
878.8714, 3.410954
880.7999, 3.379394
882.7283, 3.458283
884.6568, 3.549241
886.5853, 3.543578
888.5137, 3.509108
890.4422, 3.543392
892.3707, 3.581380
894.2991, 3.511189
896.2276, 3.397660
898.1561, 3.368976
900.0845, 3.389108
902.0130, 3.361955
903.9415, 3.299232
905.8699, 3.226746
907.7984, 3.157585
909.7269, 3.208972
911.6553, 3.371782
913.5838, 3.432148
915.5123, 3.384648
917.4407, 3.391085
919.3692, 3.463089
921.2977, 3.477607
923.2261, 3.414489
925.1546, 3.407566
927.0831, 3.472779
929.0115, 3.503410
930.9400, 3.492239
932.8685, 3.448366
934.7969, 3.347498
936.7254, 3.383551
938.6539, 3.631022
940.5823, 3.727741
942.5108, 3.546982
944.4393, 3.538955
946.3677, 3.850298
948.2962, 4.115240
950.2247, 4.219643
952.1531, 4.363581
954.0816, 4.604350
956.0101, 4.874277
957.9385, 5.117280
959.8670, 5.471435
961.7955, 5.988543
963.7239, 6.604457
965.6524, 7.319396
967.5809, 8.098440
969.5093, 9.129919
971.4378, 9.915124
973.3663, 10.28450
975.2947, 10.37115
977.2232, 10.18764
979.1517, 9.790209
981.0801, 9.138132
983.0086, 8.373317
984.9371, 7.456645
986.8655, 6.601054
988.7940, 5.902963
990.7225, 5.324137
992.6509, 4.853714
994.5794, 4.480981
996.5079, 4.207055
998.4363, 4.018291
1000.365, 3.965433
1002.293, 3.914834
1004.222, 3.746395
1006.150, 3.584546
1008.079, 3.520503
1010.007, 3.492152
1011.936, 3.452651
1013.864, 3.434590
1015.793, 3.507877
1017.721, 3.554833
1019.649, 3.451239
1021.578, 3.333205
1023.506, 3.296630
1025.435, 3.294290
1027.363, 3.300329
1029.292, 3.312970
1031.220, 3.340050
1033.149, 3.360772
1035.077, 3.345497
1037.006, 3.336203
1038.934, 3.429858
1040.863, 3.457571
1042.791, 3.175172
1044.719, 2.936229
1046.648, 3.054411
1048.576, 3.218067
1050.505, 3.197029
1052.433, 3.167259
1054.362, 3.297797
1056.290, 3.394400
1058.219, 3.281624
1060.147, 3.156250
1062.076, 3.193939
1064.004, 3.190872
1065.933, 2.903197
1067.861, 2.700081
1069.790, 2.883161
1071.718, 3.092683
1073.647, 3.118267
1075.575, 3.132844
1077.504, 3.269196
1079.432, 3.353906
1081.360, 3.269139
1083.289, 3.165402
1085.217, 3.059649
1087.146, 3.026062
1089.074, 3.149638
1091.003, 3.264871
1092.931, 3.325856
1094.860, 3.343820
1096.788, 3.291531
1098.717, 3.247221
1100.645, 3.232269
1102.574, 3.229635
1104.502, 3.194386
1106.431, 3.242802
1108.359, 3.518579
1110.287, 3.665273
1112.216, 3.550577
1114.144, 3.439684
1116.073, 3.353271
1118.001, 3.293927
1119.930, 3.260917
1121.858, 3.258003
1123.787, 3.307378
1125.715, 3.335399
1127.644, 3.346429
1129.572, 3.311991
1131.501, 3.202893
1133.429, 3.143136
1135.358, 3.154480
1137.286, 3.126279
1139.214, 3.043832
1141.143, 3.024410
1143.071, 3.074249
1145.000, 3.100536
1146.928, 3.103187
1148.857, 3.075348
1150.785, 3.021138
1152.714, 2.985080
1154.642, 2.962512
1156.571, 2.928472
1158.499, 2.887345
1160.428, 2.858949
1162.356, 2.832927
1164.285, 2.770876
1166.213, 2.702124
1168.141, 2.667470
1170.070, 2.675252
1171.998, 2.777247
1173.927, 2.885968
1175.855, 2.911386
1177.784, 2.877374
1179.712, 2.770284
1181.641, 2.660804
1183.569, 2.546651
1185.498, 2.526630
1187.426, 2.776490
1189.355, 2.954029
1191.283, 2.845941
1193.212, 2.738344
1195.140, 2.702095
1197.068, 2.713193
1198.997, 2.788308
1200.925, 2.851691
1202.854, 2.894393
1204.782, 2.906167
1206.711, 2.888420
1208.639, 2.806308
1210.568, 2.641696
1212.496, 2.606422
1214.425, 2.716564
1216.353, 2.760674
1218.282, 2.728786
1220.210, 2.620905
1222.139, 2.479486
1224.067, 2.546797
1225.995, 2.739370
1227.924, 2.785342
1229.852, 2.751049
1231.781, 2.764111
1233.709, 2.807776
1235.638, 2.885520
1237.566, 2.946811
1239.495, 2.929433
1241.423, 2.882763
1243.352, 2.806550
1245.280, 2.775363
1247.209, 2.883124
1249.137, 2.962984
1251.066, 2.948375
1252.994, 2.871954
1254.922, 2.653958
1256.851, 2.613371
1258.779, 2.928415
1260.708, 3.056645
1262.636, 2.867623
1264.565, 2.777369
1266.493, 2.824535
1268.422, 2.816326
1270.350, 2.754954
1272.279, 2.734765
1274.207, 2.752179
1276.136, 2.808547
1278.064, 2.875100
1279.993, 2.854039
1281.921, 2.811669
1283.849, 2.874486
1285.778, 2.954147
1287.706, 2.963791
1289.635, 2.940234
1291.563, 2.895447
1293.492, 2.847449
1295.420, 2.794820
1297.349, 2.762448
1299.277, 2.775361
1301.206, 2.740544
1303.134, 2.620183
1305.063, 2.573922
1306.991, 2.625717
1308.920, 2.669229
1310.848, 2.699985
1312.776, 2.808834
1314.705, 2.953133
1316.633, 2.860353
1318.562, 2.674923
1320.490, 2.784092
1322.419, 2.991975
1324.347, 3.035781
1326.276, 2.998017
1328.204, 2.901943
1330.133, 2.840173
1332.061, 2.912196
1333.990, 2.964768
1335.918, 2.903054
1337.847, 2.878885
1339.775, 2.962663
1341.703, 2.996854
1343.632, 2.968528
1345.560, 2.896936
1347.489, 2.780008
1349.417, 2.786508
1351.346, 2.892725
1353.274, 2.991412
1355.203, 3.055176
1357.131, 2.988248
1359.060, 2.889235
1360.988, 2.856774
1362.917, 2.864211
1364.845, 2.925149
1366.774, 2.953566
1368.702, 2.878958
1370.630, 2.855575
1372.559, 2.950762
1374.487, 3.005289
1376.416, 2.998124
1378.344, 2.915363
1380.273, 2.760388
1382.201, 2.765629
1384.130, 2.881366
1386.058, 2.904653
1387.987, 2.880569
1389.915, 2.872516
1391.844, 2.888785
1393.772, 2.990302
1395.701, 3.035977
1397.629, 2.898787
1399.557, 2.805501
1401.486, 2.832819
1403.414, 2.861282
1405.343, 2.871323
1407.271, 2.871186
1409.200, 2.859883
1411.128, 2.789900
1413.057, 2.694972
1414.985, 2.725544
1416.914, 2.808480
1418.842, 2.826363
1420.771, 2.814973
1422.699, 2.790632
1424.628, 2.780054
1426.556, 2.816934
1428.484, 2.833099
1430.413, 2.789541
1432.341, 2.790608
1434.270, 2.843653
1436.198, 3.014923
1438.127, 3.259245
1440.055, 3.176908
1441.984, 2.920751
1443.912, 2.861013
1445.841, 2.886737
1447.769, 2.898003
1449.698, 2.902994
1451.626, 2.919981
1453.555, 2.907661
1455.483, 2.805530
1457.411, 2.777397
1459.340, 2.873863
1461.268, 2.916763
1463.197, 2.909533
1465.125, 2.952131
1467.054, 3.013404
1468.982, 3.004327
1470.911, 2.959737
1472.839, 2.931242
1474.768, 2.858338
1476.696, 2.636224
1478.625, 2.569194
1480.553, 2.814891
1482.482, 2.913977
1484.410, 2.778280
1486.339, 2.785840
1488.267, 2.909299
1490.195, 2.913046
1492.124, 2.851582
1494.052, 2.815935
1495.981, 2.795216
1497.909, 2.767264
1499.838, 2.778625
1501.766, 2.881243
1503.695, 2.893661
1505.623, 2.770845
1507.552, 2.707349
1509.480, 2.713272
1511.409, 2.708618
1513.337, 2.700716
1515.266, 2.730126
1517.194, 2.748707
1519.122, 2.662829
1521.051, 2.609557
1522.979, 2.689883
1524.908, 2.766382
1526.836, 2.816688
1528.765, 2.871005
1530.693, 2.926448
1532.622, 2.886922
1534.550, 2.821958
1536.479, 2.947831
1538.407, 3.101783
1540.336, 3.133832
1542.264, 3.085438
1544.193, 2.953933
1546.121, 2.788315
1548.049, 2.530578
1549.978, 2.501748
1551.906, 2.692853
1553.835, 2.742815
1555.763, 2.705695
1557.692, 2.684193
1559.620, 2.688927
1561.549, 2.752617
1563.477, 2.795164
1565.406, 2.771320
1567.334, 2.756218
1569.263, 2.764352
1571.191, 2.756287
1573.120, 2.743988
1575.048, 2.845189
1576.976, 2.945170
1578.905, 2.821445
1580.833, 2.682285
1582.762, 2.617934
1584.690, 2.657691
1586.619, 2.838666
1588.547, 2.878656
1590.476, 2.757498
1592.404, 2.696788
1594.333, 2.675282
1596.261, 2.636682
1598.190, 2.621570
1600.118, 2.690497
1602.047, 2.750867
1603.975, 2.776172
1605.903, 2.793776
1607.832, 2.806213
1609.760, 2.774072
1611.689, 2.726773
1613.617, 2.783096
1615.546, 2.828141
1617.474, 2.677633
1619.403, 2.582649
1621.331, 2.683182
1623.260, 2.745323
1625.188, 2.745749
1627.117, 2.744692
1629.045, 2.738240
1630.974, 2.667125
1632.902, 2.629556
1634.830, 2.793598
1636.759, 2.917615
1638.687, 2.883124
1640.616, 2.786267
1642.544, 2.621250
1644.473, 2.640720
1646.401, 2.763408
1648.330, 2.712932
1650.258, 2.597357
1652.187, 2.475918
1654.115, 2.410227
1656.044, 2.444453
1657.972, 2.486223
1659.901, 2.527681
1661.829, 2.588066
1663.757, 2.644291
1665.686, 2.604321
1667.614, 2.577494
1669.543, 2.672348
1671.471, 2.720291
1673.400, 2.662181
1675.328, 2.575564
1677.257, 2.481209
1679.185, 2.557250
1681.114, 2.685970
1683.042, 2.655592
1684.971, 2.599489
1686.899, 2.576387
1688.828, 2.580942
1690.756, 2.612792
1692.684, 2.651969
1694.613, 2.679849
1696.541, 2.623370
1698.470, 2.541606
1700.398, 2.471168
1702.327, 2.456199
1704.255, 2.522796
1706.184, 2.555628
1708.112, 2.546335
1710.041, 2.532601
1711.969, 2.505952
1713.898, 2.388791
1715.826, 2.352788
1717.755, 2.601969
1719.683, 2.737596
1721.611, 2.713288
1723.540, 2.598761
1725.468, 2.454147
1727.397, 2.407958
1729.325, 2.430717
1731.254, 2.567076
1733.182, 2.617732
1735.111, 2.490439
1737.039, 2.448434
1738.968, 2.473921
1740.896, 2.388930
1742.825, 2.349718
1744.753, 2.607491
1746.682, 2.789621
1748.610, 2.707937
1750.538, 2.644816
1752.467, 2.615942
1754.395, 2.663178
1756.324, 2.713678
1758.252, 2.645398
1760.181, 2.576184
1762.109, 2.563058
1764.038, 2.520539
1765.966, 2.440850
1767.895, 2.409248
1769.823, 2.414578
1771.752, 2.436992
1773.680, 2.495159
1775.609, 2.615251
1777.537, 2.680523
1779.465, 2.673120
1781.394, 2.634910
1783.322, 2.573882
1785.251, 2.473719
1787.179, 2.413062
1789.108, 2.453193
1791.036, 2.392661
1792.965, 2.227872
1794.893, 2.321295
1796.822, 2.485527
1798.750, 2.307960
1800.679, 2.216999
1802.607, 2.515861
1804.536, 2.588833
1806.464, 2.416096
1808.392, 2.404721
1810.321, 2.461590
1812.249, 2.444594
1814.178, 2.407458
1816.106, 2.371691
1818.035, 2.314860
1819.963, 2.251024
1821.892, 2.314227
1823.820, 2.428890
1825.749, 2.556697
1827.677, 2.593841
1829.606, 2.423930
1831.534, 2.379410
1833.463, 2.429158
1835.391, 2.366463
1837.319, 2.272444
1839.248, 2.194914
1841.176, 2.172867
1843.105, 2.233065
1845.033, 2.293840
1846.962, 2.345601
1848.890, 2.364257
1850.819, 2.342329
1852.747, 2.245409
1854.676, 2.238898
1856.604, 2.356222
1858.533, 2.365640
1860.461, 2.322639
1862.390, 2.328148
1864.318, 2.307437
1866.246, 2.218663
1868.175, 2.214089
1870.103, 2.297047
1872.032, 2.444784
1873.960, 2.533814
1875.889, 2.368980
1877.817, 2.259189
1879.746, 2.262809
1881.674, 2.132853
1883.603, 1.989231
1885.531, 2.199613
1887.460, 2.394197
1889.388, 2.343767
1891.317, 2.353268
1893.245, 2.420575
1895.173, 2.290088
1897.102, 2.140582
1899.030, 2.204893
1900.959, 2.250892
1902.887, 2.219590
1904.816, 2.269804
1906.744, 2.346133
1908.673, 2.296360
1910.601, 2.240745
1912.530, 2.285452
1914.458, 2.214807
1916.387, 2.051263
1918.315, 2.125655
1920.244, 2.246845
1922.172, 2.236787
1924.100, 2.197776
1926.029, 2.149032
1927.957, 2.106230
1929.886, 2.081458
1931.814, 2.097826
1933.743, 2.144891
1935.671, 2.239867
1937.600, 2.233191
1939.528, 2.153545
1941.457, 2.145780
1943.385, 2.131777
1945.314, 2.048487
1947.242, 2.017528
1949.171, 2.056046
1951.099, 2.135469
1953.027, 2.192389
1954.956, 2.149159
1956.884, 2.059318
1958.813, 1.934373
1960.741, 1.829445
1962.670, 1.800799
1964.598, 2.033426
1966.527, 2.200132
1968.455, 2.195215
1970.384, 2.146422
1972.312, 2.083878
1974.241, 2.027520
1976.169, 2.034283
1978.098, 2.173362
1980.026, 2.207073
1981.954, 2.131426
1983.883, 1.986383
1985.811, 1.843100
1987.740, 1.705118
1989.668, 1.767925
1991.597, 1.999663
1993.525, 1.974926
1995.454, 1.907951
1997.382, 2.032036
1999.311, 2.123228
2001.239, 2.148781
2003.168, 2.106184
2005.096, 2.057147
2007.025, 2.098413
2008.953, 2.080794
2010.881, 1.950714
2012.810, 1.994371
2014.738, 2.071704
2016.667, 1.962132
2018.595, 1.863926
2020.524, 1.840104
2022.452, 1.853584
2024.381, 1.892128
2026.309, 1.969756
2028.238, 1.966235
2030.166, 1.831115
2032.095, 1.821884
2034.023, 1.891765
2035.952, 1.965133
2037.880, 1.989002
2039.808, 1.946714
2041.737, 1.805400
2043.665, 1.688441
2045.594, 1.942690
2047.522, 2.115483
2049.451, 2.062616
2051.379, 1.917834
2053.308, 1.783627
2055.236, 1.865706
2057.165, 1.968310
2059.093, 2.029951
2061.022, 2.054265
2062.950, 2.037791
2064.879, 1.956789
2066.807, 1.862881
2068.736, 1.761016
2070.664, 1.896908
2072.593, 2.082409
2074.521, 1.981111
2076.449, 1.814037
2078.378, 1.631390
2080.306, 1.655665
2082.235, 1.761807
2084.163, 1.766256
2086.092, 1.764155
2088.020, 1.783894
2089.949, 1.769852
2091.877, 1.706334
2093.806, 1.536609
2095.734, 1.449902
2097.663, 1.487213
2099.591, 1.658875
2101.520, 1.785183
2103.448, 1.658837
2105.376, 1.668348
2107.305, 1.840951
2109.233, 1.743144
2111.162, 1.624786
2113.090, 1.655921
2115.019, 1.761198
2116.947, 1.881899
2118.876, 1.768658
2120.804, 1.681329
2122.733, 1.756041
2124.661, 1.826235
2126.590, 1.860306
2128.518, 1.814614
2130.447, 1.724887
2132.375, 1.598925
2134.303, 1.725819
2136.232, 1.911084
2138.160, 1.765493
2140.089, 1.680714
2142.017, 1.728373
2143.946, 1.543463
2145.874, 1.390266
2147.803, 1.697941
2149.731, 1.722218
2151.660, 1.472483
2153.588, 1.551972
2155.517, 1.656951
2157.445, 1.542862
2159.374, 1.452877
2161.302, 1.406864
2163.230, 1.429233
2165.159, 1.486523
2167.087, 1.565489
2169.016, 1.733693
2170.944, 1.863907
2172.873, 1.750388
2174.801, 1.655302
2176.730, 1.634897
2178.658, 1.715118
2180.587, 1.702032
2182.515, 1.378281
2184.444, 1.410227
2186.372, 1.683382
2188.301, 1.530006
2190.229, 1.476270
2192.157, 1.743201
2194.086, 1.631327
2196.014, 1.404946
2197.943, 1.535750
2199.871, 1.638889
2201.800, 1.637800
2203.728, 1.505761
2205.657, 1.417469
2207.585, 1.501201
2209.514, 1.576181
2211.442, 1.617126
2213.371, 1.587562
2215.299, 1.604064
2217.228, 1.690805
2219.156, 1.458399
2221.084, 1.234568
2223.013, 1.492634
2224.941, 1.556584
2226.870, 1.435180
2228.798, 1.422426
2230.727, 1.419294
2232.655, 1.358965
2234.584, 1.493619
2236.512, 1.683588
2238.441, 1.770839
2240.369, 1.682172
2242.298, 1.456844
2244.226, 1.446414
2246.155, 1.482642
2248.083, 1.467856
2250.011, 1.503950
2251.940, 1.551636
2253.868, 1.554170
2255.797, 1.495132
2257.725, 1.383453
2259.654, 1.349225
2261.582, 1.342836
2263.511, 1.332285
2265.439, 1.389989
2267.368, 1.453764
2269.296, 1.392836
2271.225, 1.332083
2273.153, 1.293749
2275.082, 1.213671
2277.010, 1.179131
2278.938, 1.234570
2280.867, 1.332193
2282.795, 1.400362
2284.724, 1.261402
2286.652, 1.266427
2288.581, 1.406431
2290.509, 1.291097
2292.438, 1.184721
2294.366, 1.215392
2296.295, 1.324288
2298.223, 1.418296
2300.152, 1.359642
2302.080, 1.311230
2304.009, 1.277024
2305.937, 1.146415
2307.865, 1.134497
2309.794, 1.332270
2311.722, 1.313900
2313.651, 1.259273
2315.579, 1.385039
2317.508, 1.402520
2319.436, 1.352252
2321.365, 1.404875
2323.293, 1.384291
2325.222, 1.252546
2327.150, 1.083924
2329.079, 1.019636
2331.007, 1.170110
2332.936, 1.266273
2334.864, 1.347270
2336.792, 1.513763
2338.721, 1.514143
2340.649, 1.369612
2342.578, 1.284429
2344.506, 1.205498
2346.435, 1.121157
2348.363, 1.155036
2350.292, 1.206465
2352.220, 1.201131
2354.149, 1.262196
2356.077, 1.319633
2358.006, 1.221404
2359.934, 1.096731
2361.863, 0.9973295
2363.791, 1.051071
2365.719, 1.129722
2367.648, 1.186852
2369.576, 1.180260
2371.505, 1.189304
2373.433, 1.298495
2375.362, 1.220864
2377.290, 1.105552
2379.219, 1.227540
2381.147, 1.288911
2383.076, 1.272254
2385.004, 1.204167
2386.933, 1.237891
2388.861, 1.393793
2390.790, 1.222134
2392.718, 1.050446
2394.646, 1.096736
2396.575, 1.142651
2398.503, 1.153684
2400.432, 1.087077
2402.360, 1.027880
2404.289, 0.9925786
2406.217, 0.9922245
2408.146, 1.051758
2410.074, 1.139680
2412.003, 1.036259
2413.931, 1.015450
2415.860, 1.163173
2417.788, 1.221802
2419.717, 1.204974
2421.645, 1.122638
2423.573, 1.184332
2425.502, 1.224010
2427.430, 1.025662
2429.359, 1.146745
2431.287, 1.361057
2433.216, 1.052331
2435.144, 0.9786358
2437.073, 1.135773
2439.001, 1.147661
2440.930, 1.136400
2442.858, 1.132071
2444.787, 1.100875
2446.715, 1.081585
2448.644, 1.089596
2450.572, 1.100699
2452.500, 1.068779
2454.429, 0.9382655
2456.357, 0.8319908
2458.286, 0.8311684
2460.214, 1.115721
2462.143, 1.177932
2464.071, 1.072757
2466.000, 0.8994719
2467.928, 0.8366004
2469.857, 0.8684692
2471.785, 0.9042338
2473.714, 0.9802931
2475.642, 1.072408
2477.571, 0.9469227
2479.499, 0.9230033
2481.427, 1.077035
2483.356, 0.9764731
2485.284, 0.8967959
2487.213, 0.9610633
2489.141, 1.051642
2491.070, 1.124539
2492.998, 1.159556
2494.927, 1.050545
2496.855, 0.9031075
2498.784, 0.7889562
2500.712, 0.9673277
2502.641, 1.149453
2504.569, 0.9434158
2506.498, 0.7946163
2508.426, 0.7398603
2510.354, 0.8113147
2512.283, 0.8309553
2514.211, 0.7924067
2516.140, 0.6764943
2518.068, 0.7392514
2519.997, 0.9088579
2521.925, 0.8944685
2523.854, 0.8130683
2525.782, 0.7212700
2527.711, 0.7105954
2529.639, 0.7612253
2531.568, 0.8410268
2533.496, 0.7357978
2535.425, 0.7309957
2537.353, 0.8981253
2539.281, 0.8232588
2541.210, 0.8457870
2543.138, 1.094052
2545.067, 1.030570
2546.995, 0.8904122
2548.924, 0.7850407
2550.852, 0.8615224
2552.781, 0.9893521
2554.709, 1.095734
2556.638, 1.095282
2558.566, 1.104362
2560.495, 1.185173
2562.423, 0.9374716
2564.352, 0.7323038
2566.280, 0.8045663
2568.208, 0.7959613
2570.137, 0.8093067
2572.065, 0.9340039
2573.994, 0.9913404
2575.922, 1.006635
2577.851, 1.002756
2579.779, 1.069409
2581.708, 1.060215
2583.636, 0.8145960
2585.565, 0.7172883
2587.493, 0.7243563
2589.422, 0.8203790
2591.350, 0.7310544
2593.279, 0.6141329
2595.207, 0.6180651
2597.135, 0.8130301
2599.064, 0.9642045
2600.992, 0.7437953
2602.921, 0.8873010
2604.849, 1.026771
2606.778, 0.7425326
2608.706, 0.8482114
2610.635, 0.9715198
2612.563, 0.7474197
2614.492, 0.7358725
2616.420, 0.8077555
2618.349, 0.8436270
2620.277, 0.7383621
2622.206, 0.7408479
2624.134, 1.020782
2626.063, 0.9090950
2627.991, 0.7646733
2629.919, 0.8338935
2631.848, 0.9076650
2633.776, 0.8071710
2635.705, 0.4741975
2637.633, 0.5524338
2639.562, 0.6857523
2641.490, 0.6817748
2643.419, 0.7143150
2645.347, 0.7613283
2647.276, 0.7930402
2649.204, 0.5850748
2651.133, 0.4543651
2653.061, 0.5074351
2654.990, 0.6345949
2656.918, 0.6838035
2658.846, 0.6297963
2660.775, 0.5982152
2662.703, 0.5590972
2664.632, 0.5222939
2666.560, 0.5755321
2668.489, 0.7062004
2670.417, 0.8342465
2672.346, 0.6690587
2674.274, 0.5676926
2676.203, 0.5896627
2678.131, 0.7493271
2680.060, 0.8301670
2681.988, 0.8337244
2683.917, 0.8070160
2685.845, 0.7848786
2687.773, 0.7715461
2689.702, 0.7645053
2691.630, 0.8308420
2693.559, 0.8102196
2695.487, 0.5485249
2697.416, 0.5687104
2699.344, 0.6748429
2701.273, 0.7086121
2703.201, 0.5636213
2705.130, 0.5286813
2707.058, 0.6973314
2708.987, 0.6733363
2710.915, 0.5590677
2712.844, 0.4358225
2714.772, 0.4674950
2716.700, 0.5248216
2718.629, 0.5669815
2720.557, 0.6182852
2722.486, 0.4952144
2724.414, 0.3434249
2726.343, 0.5415399
2728.271, 0.6948821
2730.200, 0.7400482
2732.128, 0.6356671
2734.057, 0.5579208
2735.985, 0.5051627
2737.914, 0.4661646
2739.842, 0.4358150
2741.771, 0.4566699
2743.699, 0.5532236
2745.627, 0.5208987
2747.556, 0.5246857
2749.484, 0.6057463
2751.413, 0.6458839
2753.341, 0.5688381
2755.270, 0.4671246
2757.198, 0.7247074
2759.127, 0.6232432
2761.055, 0.3154191
2762.984, 0.1147034
2764.912, 0.4121116
2766.841, 0.7171312
2768.769, 0.6276125
2770.698, 0.5706103
2772.626, 0.5211727
2774.554, 0.4520575
2776.483, 0.2660128
2778.411, 0.4349866
2780.340, 0.8091110
2782.268, 0.3492279
2784.197, 0.3907770
2786.125, 0.6859629
2788.054, 0.2767225
2789.982, 0.3247496
2791.911, 0.4873099
2793.839, 0.2225321
2795.768, 0.4327789
2797.696, 0.6415031
2799.625, 0.5986316
2801.553, 0.5366749
2803.481, 0.4864760
2805.410, 0.4658381
2807.338, 0.5137482
2809.267, 0.5374300
2811.195, 0.5510015
2813.124, 0.5979103
2815.052, 0.5579404
2816.981, 0.5325400
2818.909, 0.5856188
2820.838, 0.5156971
2822.766, 0.3886440
2824.695, 0.2758088
2826.623, 0.3951634
2828.552, 0.4125442
2830.480, 0.3563149
2832.408, 0.4175929
2834.337, 0.4007360
2836.265, 0.4245554
2838.194, 0.5948995
2840.122, 0.5600746
2842.051, 0.4987277
2843.979, 0.4769715
2845.908, 0.4358898
2847.836, 0.3480412
2849.765, 0.2824531
2851.693, 0.3942934
2853.622, 0.3899255
2855.550, 0.3814832
2857.479, 0.4975878
2859.407, 0.5203426
2861.335, 0.5093437
2863.264, 0.4883062
2865.192, 0.4664564
2867.121, 0.3925392
2869.049, 0.2736751
2870.978, 0.1146368
2872.906, 0.1846043
2874.835, 0.3046506
2876.763, 0.3589824
2878.692, 0.5853180
2880.620, 0.4645873
2882.549, 9.5972627E-02
2884.477, 0.1424830
2886.406, 0.2371961
2888.334, 0.2733355
2890.262, 0.2032845
2892.191, 0.2010757
2894.119, 0.2528620
2896.048, 0.3199233
2897.976, 0.2965787
2899.905, 0.2857453
2901.833, 0.3051313
2903.762, 0.3579501
2905.690, 0.4195951
2907.619, 0.4059658
2909.547, 0.3094190
2911.476, 0.4122014
2913.404, 0.4477162
2915.333, 0.4131800
2917.261, 0.4072638
2919.189, 0.3678989
2921.118, 0.3681120
2923.046, 0.4546863
2924.975, 0.5198737
2926.903, 0.4687540
2928.832, 0.3615581
2930.760, 0.3707964
2932.689, 0.2276761
2934.617, 0.1837039
2936.546, 0.3882093
2938.474, 0.2976812
2940.403, 0.2698024
2942.331, 0.3452169
2944.260, 0.4064222
2946.188, 0.2827964
2948.116, 0.2081047
2950.045, 0.2971074
2951.973, 0.1474961
2953.902, 0.1501484
2955.830, 0.3064431
2957.759, 0.4424908
2959.687, 0.3850842
2961.616, 0.2800742
2963.544, 0.2237240
2965.473, 0.1878203
2967.401, 0.2595055
2969.330, 0.3609922
2971.258, 0.3447612
2973.187, 0.2342861
2975.115, 0.2342212
2977.043, 0.3881527
2978.972, 0.2220818
2980.900, 0.2874534
2982.829, 0.4350787
2984.757, 0.3872244
2986.686, 0.2504612
2988.614, 0.2261605
2990.543, 0.3242455
2992.471, 0.3161721
2994.400, 0.3329579
2996.328, 0.3430847
2998.257, 0.3127451
3000.185, 0.2623590
3002.114, 0.3472712
3004.042, 0.4437381
3005.970, 0.2290481
3007.899, 0.2700343
3009.827, 0.3533202
3011.756, 0.3475199
3013.684, 0.2617346
3015.613, 0.1266056
3017.541, 0.1342280
3019.470, 0.4670421
3021.398, 0.2875508
3023.327, 0.1739314
3025.255, 0.2173778
3027.184, 0.1894055
3029.112, 0.2532764
3031.041, 0.3493689
3032.969, 0.4179673
3034.897, 0.3158516
3036.826, 0.2904297
3038.754, 0.3191162
3040.683, 0.3330057
3042.611, 0.3759744
3044.540, 0.3906132
3046.468, 0.3920116
3048.397, 0.4500442
3050.325, 0.2634591
3052.254, 0.1836892
3054.182, 0.3043092
3056.111, 0.1693520
3058.039, 0.1916936
3059.968, 0.2239372
3061.896, 0.1411683
3063.824, 0.1653463
3065.753, 0.2636467
3067.681, 0.3487868
3069.610, 0.3258859
3071.538, 0.2611096
3073.467, 0.1939923
3075.395, 0.1919794
3077.324, 0.4351894
3079.252, 0.3849556
3081.181, 0.2413586
3083.109, 0.1792556
3085.038, 0.4783661
3086.966, 0.4288588
3088.895, 0.2378738
3090.823, 0.1434212
3092.751, 0.3261876
3094.680, 0.3226463
3096.608, 0.1902715
3098.537, 7.2366193E-02
3100.465, 0.2746028
3102.394, 0.2828127
3104.322, 0.1969554
3106.251, 0.3377919
3108.179, 0.3094178
3110.108, 0.1468906
3112.036, -1.3957790E-02
3113.965, 3.5807431E-02
3115.893, 0.3371324
3117.822, 0.4252268
3119.750, 0.2491129
3121.678, 0.2268825
3123.607, 0.2335512
3125.535, 0.2135127
3127.464, 0.1558488
3129.392, 6.4925916E-02
3131.321, 0.1553592
3133.249, 0.3010744
3135.178, 0.3958611
3137.106, 0.4477721
3139.035, 0.2064413
3140.963, 0.1158888
3142.892, 0.4621872
3144.820, 0.4039594
3146.749, 0.3233437
3148.677, 0.3317666
3150.605, 0.4354568
3152.534, 2.6516210E-02
3154.462, 4.3265220E-02
3156.391, 0.1549983
3158.319, -6.1798669E-02
3160.248, 1.0005560E-02
3162.176, 0.1902288
3164.105, 0.2836603
3166.033, 0.1731966
3167.962, 0.1101967
3169.890, 0.1957646
3171.819, 0.2325319
3173.747, 5.9447359E-02
3175.676, 0.1997448
3177.604, 0.2404953
3179.532, 0.2030440
3181.461, 0.2056830
3183.389, 0.1217916
3185.318, 0.1012218
3187.246, 0.1657666
3189.175, 0.2860974
3191.103, 0.2614585
3193.032, 0.2429499
3194.960, 0.2408101
3196.889, 0.2323756
3198.817, 0.2243212
3200.746, 0.1531443
3202.674, 0.1340907
3204.603, 0.2467855
3206.531, 0.1280630
3208.459, 0.1669455
3210.388, 0.2875631
3212.316, 0.3942326
3214.245, 0.6286476
3216.173, 0.4672863
3218.102, 0.3210343
3220.030, 0.3999283
3221.959, 0.2448698
3223.887, 0.1485289
3225.816, 0.2047687
3227.744, 0.3391823
3229.673, 0.2017896
3231.601, 0.3447843
3233.530, 0.3380212
3235.458, 0.1308243
3237.386, 5.3200029E-02
3239.315, 8.2841236E-03
3241.243, 9.2430331E-02
3243.172, 0.1853850
3245.100, 1.8369749E-02
3247.029, 0.1601793
3248.957, 0.2689111
3250.886, 0.2699893
3252.814, 0.1896793
3254.743, 7.8838229E-02
3256.671, 3.6820341E-02
3258.600, 9.9637248E-03
3260.528, -3.8000349E-02
3262.457, 0.1014185
3264.385, 7.8239180E-02
3266.313, 0.1362131
3268.242, 0.2984197
3270.170, 6.2801667E-02
3272.099, 0.1102764
3274.027, 0.1099564
3275.956, 5.2732870E-02
3277.884, 0.2357421
3279.813, 0.1342871
3281.741, 9.4244719E-02
3283.670, 0.1250332
3285.598, 0.1072496
3287.527, 0.1142508
3289.455, 0.1652415
3291.384, 0.2011512
3293.312, 0.1743580
3295.240, 5.5352569E-02
3297.169, 8.9433221E-03
3299.097, 0.1143435
3301.026, 0.2805025
3302.954, 0.2367182
3304.883, 0.3007408
3306.811, 0.4092498
3308.740, 0.3598866
3310.668, -1.4972660E-02
3312.597, 0.1075435
3314.525, 0.2819326
3316.454, 0.2362926
3318.382, 1.9581340E-02
3320.311, 0.2270086
3322.239, 0.1687850
3324.167, 0.2141136
3326.096, 0.2564289
3328.024, -6.4749897E-02
3329.953, 0.2679877
3331.881, 0.3335007
3333.810, 0.1808473
3335.738, 7.3858142E-02
3337.667, 0.1533329
3339.595, 0.1462878
3341.524, 0.1143549
3343.452, 0.1306600
3345.381, 0.2666211
3347.309, 4.1863300E-02
3349.238, 4.3686721E-03
3351.166, 0.1050849
3353.094, 0.1672187
3355.023, 8.3401904E-02
3356.951, 0.1833094
3358.880, 0.2323967
3360.808, 0.1844447
3362.737, 0.1766324
3364.665, 0.2741763
3366.594, 0.2162431
3368.522, 0.1720965
3370.451, 0.2524646
3372.379, 0.2373659
3374.308, 0.1109503
3376.236, 5.1891010E-02
3378.165, 9.1606513E-02
3380.093, 0.1595891
3382.021, 0.1092302
3383.950, 0.1582786
3385.878, 0.2486043
3387.807, 0.2825314
3389.735, 0.1735180
3391.664, -3.2602061E-02
3393.592, 8.0675818E-02
3395.521, 0.1451288
3397.449, -0.1271955
3399.378, 8.3984517E-02
3401.306, 1.1641630E-02
3403.235, 7.2628006E-02
3405.163, 0.2163579
3407.092, 9.3265273E-02
3409.020, -3.9942969E-02
3410.948, 0.1338606
3412.877, 0.2347542
3414.805, 0.1458089
3416.734, 0.1577351
3418.662, 0.1829694
3420.591, 0.2186061
3422.519, 0.2627583
3424.448, 0.2842729
3426.376, 0.1869812
3428.305, 0.2009157
3430.233, 0.1799671
3432.162, 9.8461680E-02
3434.090, 3.1967290E-02
3436.019, 0.2206058
3437.947, 0.2198938
3439.875, 6.7989342E-02
3441.804, 2.9931189E-02
3443.732, 0.2965249
3445.661, 0.2375875
3447.589, 5.9169590E-02
3449.518, 6.8270877E-02
3451.446, 0.1850187
##END=



