##NAMES=Caresite
##RRUFFID=R120028
##IDEAL CHEMISTRY=Fe^2+^_4_Al_2_(OH)_12_(CO_3_)·3H_2_O
##LOCALITY=Mont Saint-Hilaire, Rouville County, Québec, Canada
##OWNER=RRUFF
##SOURCE=Donald Doell
##DESCRIPTION=Pale yellow semicircular plates on colorless albite
##STATUS=The identification of this mineral is not yet confirmed
##URL=https://www.rruff.net/odr/rruff_sample/R120028
##FILETYPE=Raman Processed
##RAMAN WAVELENGTH=532

200.1089, 115.1388
202.0373, 115.6325
203.9658, 115.3534
205.8943, 115.0052
207.8227, 114.8697
209.7512, 115.0473
211.6797, 115.0944
213.6081, 114.8438
215.5366, 114.4189
217.4651, 114.0926
219.3935, 114.0046
221.3220, 113.8874
223.2505, 113.5654
225.1789, 112.9916
227.1074, 112.4902
229.0359, 112.1226
230.9643, 111.8689
232.8928, 111.7154
234.8213, 111.5386
236.7497, 111.5147
238.6782, 111.7683
240.6067, 112.3278
242.5351, 112.9027
244.4636, 113.4092
246.3921, 113.8403
248.3205, 114.2489
250.2490, 114.7641
252.1775, 115.1213
254.1059, 115.1891
256.0344, 114.8378
257.9629, 114.4813
259.8913, 114.0574
261.8198, 113.6693
263.7483, 113.6686
265.6767, 114.3949
267.6052, 115.2336
269.5337, 115.8215
271.4621, 115.7117
273.3906, 116.0023
275.3191, 117.0088
277.2475, 118.4910
279.1760, 119.7749
281.1045, 120.7801
283.0329, 121.5696
284.9614, 122.1893
286.8899, 122.7515
288.8183, 122.8752
290.7468, 122.2941
292.6753, 121.2268
294.6037, 120.1224
296.5322, 118.9173
298.4607, 117.7585
300.3891, 116.7189
302.3176, 115.8268
304.2461, 114.9729
306.1745, 114.1310
308.1030, 113.3276
310.0315, 112.6301
311.9599, 112.0893
313.8884, 111.6221
315.8169, 111.1849
317.7453, 110.7628
319.6738, 110.5048
321.6023, 110.4996
323.5307, 110.6473
325.4592, 110.8302
327.3877, 111.1136
329.3161, 111.3335
331.2446, 111.3732
333.1731, 111.2484
335.1015, 111.1978
337.0300, 111.3835
338.9585, 111.6251
340.8869, 111.7191
342.8154, 111.6044
344.7439, 111.5166
346.6723, 111.4238
348.6008, 111.3498
350.5292, 111.6827
352.4577, 113.0315
354.3862, 114.4261
356.3146, 114.9586
358.2431, 114.3424
360.1716, 113.9416
362.1000, 114.2489
364.0285, 115.0921
365.9570, 115.7607
367.8854, 116.1580
369.8139, 116.4492
371.7424, 116.6313
373.6708, 116.6717
375.5993, 116.8696
377.5278, 117.4653
379.4562, 118.2400
381.3847, 118.7938
383.3132, 119.1520
385.2416, 119.3373
387.1701, 119.2606
389.0986, 118.9695
391.0270, 118.8002
392.9555, 118.7941
394.8840, 118.9402
396.8124, 119.2802
398.7409, 119.9445
400.6694, 120.5238
402.5978, 120.7569
404.5263, 120.7672
406.4548, 121.0370
408.3832, 122.0391
410.3117, 122.9595
412.2402, 123.2829
414.1686, 122.8820
416.0971, 122.6472
418.0256, 122.9084
419.9540, 123.4039
421.8825, 123.7453
423.8110, 123.5729
425.7394, 123.5957
427.6679, 124.0991
429.5964, 125.0321
431.5248, 125.8737
433.4533, 126.4463
435.3818, 126.9991
437.3102, 127.6997
439.2387, 128.7750
441.1672, 129.7619
443.0956, 130.5724
445.0241, 131.2856
446.9526, 132.0768
448.8810, 133.0340
450.8095, 133.9480
452.7380, 134.7138
454.6664, 135.2570
456.5949, 135.8490
458.5234, 136.5646
460.4518, 137.2842
462.3803, 137.9049
464.3088, 138.3657
466.2372, 138.8761
468.1657, 139.4597
470.0942, 140.1361
472.0226, 140.9623
473.9511, 142.2111
475.8796, 143.3179
477.8080, 144.0493
479.7365, 144.3957
481.6650, 144.5045
483.5934, 144.3677
485.5219, 144.0496
487.4504, 143.5681
489.3788, 142.8345
491.3073, 142.1818
493.2358, 141.4393
495.1642, 140.7230
497.0927, 140.8660
499.0212, 142.0717
500.9496, 143.8931
502.8781, 146.4078
504.8066, 149.6138
506.7350, 152.7336
508.6635, 155.8874
510.5920, 158.7612
512.5204, 161.0641
514.4489, 162.4859
516.3774, 163.6247
518.3058, 164.0140
520.2343, 164.1570
522.1628, 165.1013
524.0912, 166.9263
526.0197, 169.6233
527.9482, 172.9727
529.8766, 176.9018
531.8051, 182.4219
533.7336, 189.3971
535.6620, 198.0314
537.5905, 208.5252
539.5190, 221.0623
541.4474, 234.3719
543.3759, 251.0061
545.3044, 267.8385
547.2328, 278.2376
549.1613, 282.9118
551.0898, 281.4925
553.0182, 270.8378
554.9467, 253.2058
556.8752, 235.4592
558.8036, 216.6594
560.7321, 199.3783
562.6606, 184.6435
564.5891, 172.8441
566.5175, 163.0536
568.4460, 155.9524
570.3745, 150.6359
572.3029, 146.2019
574.2314, 142.7531
576.1599, 140.0327
578.0883, 138.1745
580.0168, 136.9472
581.9453, 135.7366
583.8737, 134.4255
585.8022, 133.2850
587.7307, 132.4476
589.6591, 131.8898
591.5876, 131.4669
593.5161, 131.4093
595.4445, 131.3179
597.3729, 130.9219
599.3014, 130.1797
601.2299, 129.6511
603.1583, 129.5170
605.0868, 129.5706
607.0153, 129.6495
608.9437, 129.8494
610.8722, 129.8873
612.8007, 129.5017
614.7291, 128.9826
616.6576, 128.9235
618.5861, 129.5132
620.5145, 130.1555
622.4430, 130.6215
624.3715, 130.9323
626.2999, 131.3045
628.2284, 131.6624
630.1569, 132.1077
632.0853, 132.7488
634.0138, 133.5524
635.9423, 134.1813
637.8707, 134.4227
639.7992, 134.6088
641.7277, 134.9846
643.6561, 135.7766
645.5846, 136.2898
647.5131, 136.4222
649.4415, 136.3745
651.3700, 136.3304
653.2985, 136.2442
655.2269, 136.3959
657.1554, 137.0151
659.0839, 137.9051
661.0123, 138.6986
662.9408, 139.2305
664.8693, 139.8263
666.7977, 140.4828
668.7262, 141.2224
670.6547, 142.1337
672.5831, 143.3632
674.5116, 144.5357
676.4401, 145.4858
678.3685, 146.1870
680.2970, 146.9345
682.2255, 147.7012
684.1539, 148.5230
686.0824, 149.4615
688.0109, 150.5097
689.9393, 151.4919
691.8678, 152.5492
693.7963, 153.3885
695.7247, 153.8321
697.6532, 153.9073
699.5817, 153.4897
701.5101, 152.1917
703.4386, 150.6412
705.3671, 149.4767
707.2955, 148.7220
709.2240, 148.1832
711.1525, 147.9125
713.0809, 147.7858
715.0094, 147.6380
716.9379, 147.1900
718.8663, 147.0540
720.7948, 147.5804
722.7233, 148.4283
724.6517, 148.8299
726.5802, 148.5143
728.5087, 148.2734
730.4371, 148.4519
732.3656, 148.9490
734.2941, 149.2516
736.2225, 149.1350
738.1510, 149.0696
740.0795, 149.1975
742.0079, 149.5065
743.9364, 149.9021
745.8649, 150.4480
747.7933, 151.0177
749.7218, 151.5671
751.6503, 152.0978
753.5787, 152.6114
755.5072, 153.1587
757.4357, 153.6325
759.3641, 153.8848
761.2926, 153.9258
763.2211, 154.1146
765.1495, 154.6306
767.0780, 155.1528
769.0065, 155.4628
770.9349, 155.4324
772.8634, 155.7039
774.7919, 156.6251
776.7203, 157.5987
778.6488, 158.1417
780.5773, 158.2479
782.5057, 158.5215
784.4342, 159.1760
786.3627, 159.9204
788.2911, 160.5346
790.2196, 160.9392
792.1481, 161.3285
794.0765, 161.5547
796.0050, 161.8364
797.9335, 162.5181
799.8619, 163.7200
801.7904, 164.5289
803.7189, 164.4997
805.6473, 164.2329
807.5758, 164.2370
809.5043, 164.6512
811.4327, 164.9966
813.3612, 165.1376
815.2897, 165.2245
817.2181, 165.4313
819.1466, 165.7844
821.0751, 166.0567
823.0035, 166.2289
824.9320, 166.2900
826.8605, 166.1995
828.7889, 165.8511
830.7174, 165.7366
832.6459, 166.2121
834.5743, 166.7826
836.5028, 166.7970
838.4313, 165.9553
840.3597, 165.5180
842.2882, 165.8564
844.2167, 166.5480
846.1451, 167.2870
848.0736, 168.1734
850.0021, 168.6469
851.9305, 168.3504
853.8590, 167.7956
855.7875, 167.4812
857.7159, 167.5583
859.6444, 167.5476
861.5729, 167.4498
863.5013, 167.2536
865.4298, 166.9030
867.3583, 166.3554
869.2867, 165.9823
871.2152, 166.0018
873.1437, 166.1267
875.0721, 166.1415
877.0006, 165.9610
878.9291, 165.8586
880.8575, 165.7112
882.7860, 165.7266
884.7145, 166.1936
886.6429, 167.1173
888.5714, 167.7873
890.4999, 167.7836
892.4283, 167.7043
894.3568, 167.9168
896.2853, 168.5334
898.2137, 169.0088
900.1422, 169.2520
902.0707, 169.4351
903.9991, 169.6621
905.9276, 169.9338
907.8561, 170.1845
909.7845, 170.4478
911.7130, 170.6696
913.6415, 170.7344
915.5699, 170.6280
917.4984, 170.9143
919.4269, 171.8249
921.3553, 172.8772
923.2838, 174.0118
925.2123, 175.1719
927.1407, 176.0620
929.0692, 176.5799
930.9976, 176.9645
932.9261, 177.1911
934.8546, 177.3614
936.7830, 177.7728
938.7115, 178.5846
940.6400, 179.4745
942.5684, 180.5819
944.4969, 181.7183
946.4254, 182.3321
948.3538, 182.0896
950.2823, 181.9801
952.2108, 182.2819
954.1392, 182.7831
956.0677, 183.1604
957.9962, 183.3068
959.9246, 183.6694
961.8531, 184.4988
963.7816, 185.4899
965.7100, 186.3570
967.6385, 187.0450
969.5670, 187.6817
971.4954, 188.1445
973.4239, 188.6249
975.3524, 189.3269
977.2808, 190.2343
979.2093, 191.0471
981.1378, 191.7621
983.0662, 192.3385
984.9947, 192.6604
986.9232, 192.7188
988.8516, 193.2127
990.7801, 194.4866
992.7086, 195.8726
994.6370, 197.0522
996.5655, 198.1363
998.4940, 199.6654
1000.422, 201.8970
1002.351, 204.0015
1004.279, 205.4951
1006.208, 206.6823
1008.136, 208.0279
1010.065, 209.4770
1011.993, 211.2696
1013.922, 213.3915
1015.850, 215.9286
1017.779, 218.9891
1019.707, 222.7636
1021.636, 226.8704
1023.564, 231.8655
1025.493, 236.8170
1027.421, 241.0415
1029.349, 244.5775
1031.278, 247.7823
1033.206, 250.8053
1035.135, 253.2562
1037.063, 254.4093
1038.992, 254.4534
1040.920, 256.0476
1042.849, 259.6634
1044.777, 264.3177
1046.706, 269.5748
1048.634, 275.8062
1050.563, 283.9886
1052.491, 294.3842
1054.420, 305.5954
1056.348, 319.7528
1058.276, 332.9823
1060.205, 343.0106
1062.133, 350.5288
1064.062, 350.1704
1065.990, 337.6281
1067.919, 320.0406
1069.847, 299.3445
1071.776, 275.0768
1073.704, 254.1564
1075.633, 236.3194
1077.561, 221.5754
1079.490, 210.6132
1081.418, 202.8935
1083.347, 196.8191
1085.275, 192.6088
1087.203, 189.4111
1089.132, 187.4839
1091.060, 186.2054
1092.989, 184.9297
1094.917, 183.5136
1096.846, 182.6600
1098.774, 182.5627
1100.703, 182.8427
1102.631, 183.4324
1104.560, 184.3137
1106.488, 184.6987
1108.417, 184.0696
1110.345, 183.5513
1112.273, 183.8255
1114.202, 184.4483
1116.130, 184.5432
1118.059, 183.9221
1119.987, 183.3671
1121.916, 183.1882
1123.844, 183.1592
1125.773, 183.0325
1127.701, 182.6304
1129.630, 182.7158
1131.558, 183.7028
1133.487, 184.6963
1135.415, 185.1725
1137.344, 185.2052
1139.272, 185.4206
1141.200, 185.9095
1143.129, 186.3498
1145.057, 186.5024
1146.986, 186.5736
1148.914, 186.8836
1150.843, 187.5239
1152.771, 187.9766
1154.700, 188.1167
1156.628, 188.0778
1158.557, 187.8556
1160.485, 187.4419
1162.414, 187.2613
1164.342, 187.4786
1166.271, 187.7384
1168.199, 187.8930
1170.127, 188.0632
1172.056, 188.5246
1173.984, 189.3837
1175.913, 190.0707
1177.841, 190.4360
1179.770, 190.5935
1181.698, 190.5210
1183.627, 190.2212
1185.555, 190.1736
1187.484, 190.5177
1189.412, 190.9575
1191.341, 191.4105
1193.269, 191.8720
1195.198, 192.3515
1197.126, 192.9190
1199.054, 193.3854
1200.983, 193.9220
1202.911, 194.2417
1204.840, 193.8750
1206.768, 192.9495
1208.697, 192.6508
1210.625, 193.3660
1212.554, 194.1976
1214.482, 194.7919
1216.411, 195.2397
1218.339, 195.7191
1220.268, 196.3060
1222.196, 196.6339
1224.125, 196.3591
1226.053, 196.0846
1227.981, 196.2505
1229.910, 196.8643
1231.838, 197.2434
1233.767, 197.1715
1235.695, 197.1840
1237.624, 197.4125
1239.552, 197.7700
1241.481, 198.1661
1243.409, 198.6107
1245.338, 198.9131
1247.266, 198.8992
1249.195, 198.9053
1251.123, 199.1338
1253.052, 199.5382
1254.980, 199.9692
1256.908, 200.4157
1258.837, 200.9101
1260.765, 201.5468
1262.694, 202.1512
1264.622, 202.5464
1266.551, 202.6809
1268.479, 202.8435
1270.408, 202.9115
1272.336, 203.1678
1274.265, 203.9221
1276.193, 204.8991
1278.122, 205.5054
1280.050, 205.6857
1281.979, 205.9030
1283.907, 206.1041
1285.835, 206.4602
1287.764, 207.2739
1289.692, 208.3048
1291.621, 208.7435
1293.549, 208.2397
1295.478, 207.8850
1297.406, 207.9915
1299.335, 208.3921
1301.263, 209.0423
1303.192, 210.0167
1305.120, 210.8175
1307.049, 211.3769
1308.977, 211.8698
1310.906, 212.3363
1312.834, 212.7761
1314.762, 213.2015
1316.691, 213.6673
1318.619, 213.9328
1320.548, 213.5303
1322.476, 213.3886
1324.405, 214.2060
1326.333, 215.5820
1328.262, 216.4909
1330.190, 216.8152
1332.119, 217.1297
1334.047, 217.6014
1335.976, 218.1006
1337.904, 218.4733
1339.833, 218.7803
1341.761, 219.3848
1343.689, 220.5035
1345.618, 221.4534
1347.546, 222.0218
1349.475, 222.3792
1351.403, 222.6721
1353.332, 222.9133
1355.260, 223.0477
1357.189, 222.7626
1359.117, 222.8295
1361.046, 223.5185
1362.974, 224.5937
1364.903, 225.8147
1366.831, 227.1921
1368.760, 228.3692
1370.688, 229.3526
1372.616, 230.0345
1374.545, 230.3105
1376.473, 230.2913
1378.402, 230.2290
1380.330, 230.1817
1382.259, 229.7307
1384.187, 228.1975
1386.116, 227.2268
1388.044, 228.0371
1389.973, 229.8109
1391.901, 230.9792
1393.830, 231.3831
1395.758, 231.7602
1397.687, 232.3973
1399.615, 232.7943
1401.543, 232.4809
1403.472, 231.7853
1405.400, 231.7077
1407.329, 232.9597
1409.257, 233.4204
1411.186, 232.2849
1413.114, 231.1858
1415.043, 231.0478
1416.971, 231.6226
1418.900, 232.0802
1420.828, 232.3746
1422.757, 232.6312
1424.685, 232.7475
1426.614, 232.9167
1428.542, 233.2853
1430.470, 233.7974
1432.399, 234.2966
1434.327, 234.8104
1436.256, 235.2412
1438.184, 235.3184
1440.113, 235.6018
1442.041, 236.6204
1443.970, 238.0299
1445.898, 239.0473
1447.827, 239.5589
1449.755, 239.9519
1451.684, 240.3819
1453.612, 240.6003
1455.541, 240.3867
1457.469, 239.9146
1459.397, 239.6647
1461.326, 239.7281
1463.254, 239.8819
1465.183, 240.2783
1467.111, 240.6019
1469.040, 240.5185
1470.968, 240.2762
1472.897, 240.5169
1474.825, 241.5401
1476.754, 242.3764
1478.682, 242.7920
1480.611, 243.2944
1482.539, 244.2589
1484.468, 245.3959
1486.396, 246.1084
1488.324, 246.2121
1490.253, 246.5147
1492.181, 247.3715
1494.110, 247.9339
1496.038, 247.4712
1497.967, 246.7332
1499.895, 247.0106
1501.824, 248.3080
1503.752, 248.9831
1505.681, 248.5982
1507.609, 248.2846
1509.538, 248.5510
1511.466, 249.0812
1513.395, 249.6020
1515.323, 250.1100
1517.251, 250.5061
1519.180, 250.6392
1521.108, 250.9411
1523.037, 251.6867
1524.965, 252.4167
1526.894, 252.7008
1528.822, 252.6385
1530.751, 252.7584
1532.679, 253.1533
1534.608, 253.5790
1536.536, 254.2849
1538.465, 254.8218
1540.393, 254.7843
1542.322, 254.5110
1544.250, 254.8449
1546.178, 255.9161
1548.107, 257.0058
1550.035, 258.0879
1551.964, 258.9235
1553.892, 259.0974
1555.821, 259.0404
1557.749, 259.5083
1559.678, 260.7082
1561.606, 261.2291
1563.535, 260.3399
1565.463, 259.8651
1567.392, 260.5379
1569.320, 261.4334
1571.249, 261.6608
1573.177, 261.3038
1575.105, 261.2617
1577.034, 261.7927
1578.962, 262.1985
1580.891, 262.5399
1582.819, 262.7089
1584.748, 262.5371
1586.676, 262.2456
1588.605, 262.2755
1590.533, 262.7190
1592.462, 263.3225
1594.390, 264.2030
1596.319, 265.0525
1598.247, 265.7455
1600.176, 266.3011
1602.104, 266.6187
1604.032, 266.7021
1605.961, 267.1395
1607.889, 268.1902
1609.818, 268.9466
1611.746, 268.8994
1613.675, 268.9221
1615.603, 269.9330
1617.532, 271.3219
1619.460, 271.5355
1621.389, 270.4465
1623.317, 269.8989
1625.246, 270.4414
1627.174, 270.9415
1629.103, 270.6523
1631.031, 270.3467
1632.959, 270.9574
1634.888, 272.2465
1636.816, 273.1977
1638.745, 273.7398
1640.673, 274.0792
1642.602, 274.2574
1644.530, 274.2935
1646.459, 273.9769
1648.387, 273.6718
1650.316, 274.0285
1652.244, 275.0149
1654.173, 275.6538
1656.101, 275.6865
1658.030, 275.6813
1659.958, 275.6139
1661.886, 275.7228
1663.815, 276.3417
1665.743, 277.2482
1667.672, 277.9346
1669.600, 278.4021
1671.529, 278.8586
1673.457, 279.3593
1675.386, 279.8892
1677.314, 280.4144
1679.243, 280.9834
1681.171, 281.6954
1683.100, 282.4556
1685.028, 282.9133
1686.957, 282.9567
1688.885, 283.0138
1690.813, 283.0796
1692.742, 283.3026
1694.670, 284.1092
1696.599, 284.9006
1698.527, 284.7774
1700.456, 283.9173
1702.384, 283.6490
1704.313, 284.3036
1706.241, 284.6760
1708.170, 284.1821
1710.098, 283.7349
1712.027, 284.0017
1713.955, 284.5969
1715.884, 285.0188
1717.812, 285.2743
1719.740, 285.3331
1721.669, 284.9566
1723.597, 285.0703
1725.526, 286.2664
1727.454, 287.5437
1729.383, 288.3755
1731.311, 288.8019
1733.240, 288.7748
1735.168, 288.3403
1737.097, 288.1801
1739.025, 288.5143
1740.954, 288.7581
1742.882, 288.5298
1744.811, 288.4554
1746.739, 289.1077
1748.667, 290.0812
1750.596, 290.7586
1752.524, 291.1390
1754.453, 291.4317
1756.381, 291.6892
1758.310, 291.7529
1760.238, 291.1497
1762.167, 290.8356
1764.095, 291.6031
1766.024, 292.8564
1767.952, 293.7324
1769.880, 294.2276
1771.809, 294.4549
1773.737, 294.1703
1775.666, 294.3983
1777.594, 296.1178
1779.523, 297.5774
1781.451, 297.8916
1783.380, 297.5033
1785.308, 296.7554
1787.237, 295.7411
1789.165, 295.2078
1791.094, 295.1978
1793.022, 295.5519
1794.951, 296.9734
1796.879, 297.8232
1798.807, 296.7388
1800.736, 295.3391
1802.664, 295.4902
1804.593, 296.8964
1806.521, 298.0020
1808.450, 298.7557
1810.378, 299.3544
1812.307, 299.7645
1814.235, 300.0183
1816.164, 299.9654
1818.092, 299.8742
1820.021, 300.0015
1821.949, 300.2505
1823.878, 300.3647
1825.806, 300.3314
1827.734, 300.3988
1829.663, 300.6109
1831.591, 300.9391
1833.520, 301.4647
1835.448, 302.0321
1837.377, 302.4642
1839.305, 302.9120
1841.234, 303.7842
1843.162, 305.0086
1845.091, 305.2258
1847.019, 303.6031
1848.948, 302.9990
1850.876, 304.6775
1852.805, 306.0413
1854.733, 306.2507
1856.661, 306.0752
1858.590, 305.9120
1860.518, 305.8936
1862.447, 306.5850
1864.375, 308.0766
1866.304, 308.5984
1868.232, 307.5346
1870.161, 306.8187
1872.089, 306.9275
1874.018, 307.4488
1875.946, 308.6249
1877.875, 309.7701
1879.803, 309.9378
1881.732, 309.4190
1883.660, 309.3555
1885.589, 309.8208
1887.517, 310.1955
1889.445, 310.3061
1891.374, 310.5207
1893.302, 311.2704
1895.231, 311.8315
1897.159, 311.4108
1899.088, 310.7328
1901.016, 311.0704
1902.945, 312.2339
1904.873, 312.7191
1906.802, 312.2473
1908.730, 312.1057
1910.659, 312.6069
1912.587, 313.2129
1914.516, 313.9178
1916.444, 314.5302
1918.372, 314.8951
1920.301, 315.0977
1922.229, 315.2079
1924.158, 315.2256
1926.086, 315.5509
1928.015, 316.4639
1929.943, 317.0677
1931.872, 317.1145
1933.800, 317.1118
1935.729, 317.0869
1937.657, 317.1538
1939.586, 317.6027
1941.514, 318.1372
1943.443, 318.1249
1945.371, 317.6319
1947.299, 317.4516
1949.228, 317.6235
1951.156, 318.0287
1953.085, 318.9077
1955.013, 319.4125
1956.942, 318.9425
1958.870, 318.3740
1960.799, 317.9968
1962.727, 318.0732
1964.656, 319.3165
1966.584, 321.3460
1968.513, 322.3231
1970.441, 321.9925
1972.370, 322.1402
1974.298, 323.3191
1976.226, 324.2013
1978.155, 324.2690
1980.083, 324.2046
1982.012, 324.3097
1983.940, 324.5568
1985.869, 324.8640
1987.797, 325.2964
1989.726, 326.2320
1991.654, 327.9455
1993.583, 328.4170
1995.511, 326.6436
1997.440, 325.5029
1999.368, 325.6385
2001.297, 325.9133
2003.225, 325.8442
2005.153, 325.9734
2007.082, 327.1022
2009.010, 328.5186
2010.939, 328.8353
2012.867, 328.2671
2014.796, 327.9112
2016.724, 327.7926
2018.653, 328.0962
2020.581, 329.0140
2022.510, 329.8178
2024.438, 330.2467
2026.367, 330.5161
2028.295, 330.4967
2030.224, 330.5612
2032.152, 331.1936
2034.080, 332.1720
2036.009, 333.0658
2037.937, 333.8969
2039.866, 334.1435
2041.794, 333.2263
2043.723, 332.8969
2045.651, 333.7159
2047.580, 334.2788
2049.508, 333.9747
2051.437, 333.7681
2053.365, 334.3405
2055.294, 335.0659
2057.222, 335.2119
2059.151, 335.0202
2061.079, 335.2051
2063.008, 335.7255
2064.936, 335.9219
2066.865, 335.6519
2068.793, 336.0056
2070.721, 337.5612
2072.650, 338.8440
2074.578, 339.2636
2076.507, 339.4076
2078.435, 339.3905
2080.364, 339.3288
2082.292, 339.4532
2084.220, 339.5651
2086.149, 339.0275
2088.077, 337.8994
2090.006, 337.8743
2091.934, 339.4609
2093.863, 340.5844
2095.791, 341.0855
2097.720, 341.3563
2099.648, 341.3543
2101.577, 341.2504
2103.505, 340.8741
2105.434, 340.6570
2107.362, 340.9001
2109.291, 341.5588
2111.219, 343.0092
2113.147, 344.8286
2115.076, 345.1995
2117.004, 344.0062
2118.933, 343.7383
2120.861, 344.9205
2122.790, 345.6808
2124.718, 345.5035
2126.647, 345.2188
2128.575, 344.8221
2130.504, 344.6000
2132.432, 345.1543
2134.361, 345.6550
2136.289, 345.1715
2138.218, 344.2914
2140.146, 344.0477
2142.074, 344.3434
2144.003, 344.6394
2145.931, 344.8848
2147.860, 345.4368
2149.788, 346.3892
2151.717, 347.1503
2153.645, 347.5869
2155.574, 347.8384
2157.502, 348.0202
2159.431, 347.9913
2161.359, 347.2525
2163.288, 346.7261
2165.216, 347.5053
2167.145, 348.9321
2169.073, 349.9308
2171.001, 350.5119
2172.930, 350.6649
2174.858, 350.3549
2176.787, 350.7139
2178.715, 351.9962
2180.644, 352.5728
2182.572, 351.9296
2184.501, 351.3011
2186.429, 351.0357
2188.358, 350.9522
2190.286, 351.1048
2192.215, 351.3238
2194.143, 351.6087
2196.072, 351.7989
2198.000, 351.4269
2199.928, 350.8547
2201.857, 351.1657
2203.785, 352.3030
2205.714, 353.1641
2207.642, 353.7557
2209.571, 354.0428
2211.499, 353.9335
2213.428, 354.0640
2215.356, 354.6802
2217.285, 355.2374
2219.213, 355.3095
2221.142, 355.5570
2223.070, 356.5036
2224.999, 357.4267
2226.927, 357.8728
2228.855, 357.9072
2230.784, 357.3155
2232.712, 356.5086
2234.641, 356.6137
2236.569, 357.5396
2238.498, 358.2160
2240.426, 358.6270
2242.355, 358.9072
2244.283, 358.9874
2246.212, 359.3427
2248.140, 360.2110
2250.069, 360.9273
2251.997, 361.4537
2253.926, 361.6400
2255.854, 361.2329
2257.782, 360.7431
2259.711, 360.2120
2261.639, 359.9691
2263.568, 360.5565
2265.496, 361.4494
2267.425, 361.8393
2269.353, 361.8680
2271.282, 361.9283
2273.210, 362.0496
2275.139, 362.3344
2277.067, 362.8413
2278.996, 362.7819
2280.924, 361.8125
2282.853, 361.0893
2284.781, 360.5562
2286.709, 360.4618
2288.638, 360.9126
2290.566, 361.6456
2292.495, 363.0625
2294.423, 364.1597
2296.352, 364.3693
2298.280, 364.2073
2300.209, 363.4831
2302.137, 363.0921
2304.066, 364.6666
2305.994, 367.1078
2307.923, 368.0229
2309.851, 367.6496
2311.780, 367.2745
2313.708, 366.8706
2315.636, 366.6477
2317.565, 366.5749
2319.493, 366.9481
2321.422, 367.9547
2323.350, 368.8141
2325.279, 369.3990
2327.207, 370.0092
2329.136, 371.0012
2331.064, 371.5732
2332.993, 371.2532
2334.921, 370.6058
2336.850, 369.2799
2338.778, 368.3911
2340.707, 369.1693
2342.635, 370.4826
2344.563, 371.2543
2346.492, 371.5998
2348.420, 371.4874
2350.349, 371.2076
2352.277, 371.5942
2354.206, 372.5171
2356.134, 373.1123
2358.063, 373.3125
2359.991, 373.3593
2361.920, 373.1037
2363.848, 372.9717
2365.777, 372.9442
2367.705, 373.0851
2369.634, 373.5447
2371.562, 373.9010
2373.490, 373.9747
2375.419, 374.2583
2377.347, 375.1226
2379.276, 375.9441
2381.204, 376.7933
2383.133, 377.0162
2385.061, 375.4162
2386.990, 373.8405
2388.918, 374.1944
2390.847, 375.3184
2392.775, 375.9029
2394.704, 376.1374
2396.632, 376.0640
2398.561, 375.9790
2400.489, 377.1798
2402.417, 379.2021
2404.346, 379.0156
2406.274, 376.5565
2408.203, 375.9722
2410.131, 377.9044
2412.060, 379.1308
2413.988, 379.4505
2415.917, 380.1123
2417.845, 381.3792
2419.774, 382.0716
2421.702, 381.6307
2423.631, 381.4180
2425.559, 381.7613
2427.488, 382.4586
2429.416, 383.8813
2431.344, 385.0749
2433.273, 385.7492
2435.201, 385.9809
2437.130, 385.2675
2439.058, 384.7273
2440.987, 385.5162
2442.915, 386.3651
2444.844, 385.9254
2446.772, 385.1259
2448.701, 385.1490
2450.629, 385.6567
2452.558, 386.1574
2454.486, 386.5943
2456.415, 386.5067
2458.343, 386.1407
2460.271, 386.9699
2462.200, 388.6978
2464.128, 389.8504
2466.057, 390.3564
2467.985, 390.5274
2469.914, 390.2712
2471.842, 390.4398
2473.771, 391.5767
2475.699, 391.5945
2477.628, 390.0779
2479.556, 389.1215
2481.485, 388.9229
2483.413, 389.4184
2485.342, 390.8116
2487.270, 392.1915
2489.198, 393.7039
2491.127, 394.5053
2493.055, 394.1253
2494.984, 393.4722
2496.912, 392.0649
2498.841, 391.6445
2500.769, 393.7405
2502.698, 395.6648
2504.626, 395.6124
2506.555, 395.1112
2508.483, 395.0030
2510.412, 395.1132
2512.340, 395.5659
2514.269, 395.9702
2516.197, 395.6743
2518.125, 395.3383
2520.054, 395.8765
2521.982, 396.8192
2523.911, 397.5409
2525.839, 398.0820
2527.768, 398.6079
2529.696, 399.0165
2531.625, 398.9555
2533.553, 398.6284
2535.482, 398.8771
2537.410, 399.5735
2539.339, 399.6508
2541.267, 399.2558
2543.196, 399.2507
2545.124, 399.6385
2547.052, 401.1490
2548.981, 403.9989
2550.909, 405.1230
2552.838, 404.2595
2554.766, 403.2483
2556.695, 402.1283
2558.623, 401.4312
2560.552, 401.2541
2562.480, 401.5949
2564.409, 402.8226
2566.337, 403.5154
2568.266, 402.8940
2570.194, 403.0817
2572.123, 404.4796
2574.051, 405.7851
2575.979, 406.9539
2577.908, 407.3642
2579.836, 406.1107
2581.765, 405.8510
2583.693, 408.4641
2585.622, 410.1850
2587.550, 409.4322
2589.479, 408.7737
2591.407, 408.7458
2593.336, 408.9618
2595.264, 409.3287
2597.193, 409.8137
2599.121, 410.9358
2601.050, 411.4117
2602.978, 409.6526
2604.906, 408.6288
2606.835, 410.5680
2608.763, 412.6245
2610.692, 413.7451
2612.620, 414.1500
2614.549, 413.1432
2616.477, 412.5043
2618.406, 413.9209
2620.334, 415.4681
2622.263, 415.5956
2624.191, 415.4784
2626.120, 416.0182
2628.048, 416.7560
2629.977, 417.6625
2631.905, 418.2378
2633.833, 417.3672
2635.762, 416.5839
2637.690, 417.6818
2639.619, 419.3094
2641.547, 420.2668
2643.476, 420.8031
2645.404, 421.2640
2647.333, 421.4908
2649.261, 420.9961
2651.190, 420.4945
2653.118, 420.9702
2655.047, 421.8487
2656.975, 422.3277
2658.904, 422.6615
2660.832, 423.1635
2662.760, 423.7748
2664.689, 424.6680
2666.617, 425.4588
2668.546, 425.5316
2670.474, 425.1832
2672.403, 424.6459
2674.331, 424.2153
2676.260, 424.3464
2678.188, 424.9460
2680.117, 426.1291
2682.045, 427.4456
2683.974, 428.0854
2685.902, 428.2876
2687.831, 428.2397
2689.759, 428.2250
2691.688, 428.9816
2693.616, 430.0126
2695.544, 430.5806
2697.473, 430.8267
2699.401, 430.9197
2701.330, 430.9701
2703.258, 431.1127
2705.187, 431.3963
2707.115, 431.9173
2709.044, 432.5992
2710.972, 433.5359
2712.901, 434.3383
2714.829, 433.9053
2716.758, 433.1799
2718.686, 434.3156
2720.615, 436.0734
2722.543, 435.8702
2724.471, 435.1361
2726.400, 436.1043
2728.328, 437.9015
2730.257, 439.3774
2732.185, 440.5134
2734.114, 441.1620
2736.042, 441.5952
2737.971, 442.4139
2739.899, 443.1609
2741.828, 443.0439
2743.756, 442.6808
2745.685, 442.7122
2747.613, 443.1469
2749.542, 444.2297
2751.470, 445.4348
2753.398, 446.2658
2755.327, 446.7952
2757.255, 446.9388
2759.184, 447.0731
2761.112, 447.9989
2763.041, 448.7606
2764.969, 447.7649
2766.898, 446.8888
2768.826, 447.9577
2770.755, 449.5505
2772.683, 450.4962
2774.612, 451.2855
2776.540, 452.2769
2778.469, 453.2487
2780.397, 453.8235
2782.325, 454.5708
2784.254, 456.6413
2786.182, 457.9594
2788.111, 456.3407
2790.039, 454.8633
2791.968, 455.7768
2793.896, 456.6913
2795.825, 456.3828
2797.753, 456.2155
2799.682, 456.8182
2801.610, 457.7602
2803.539, 459.1761
2805.467, 460.2637
2807.396, 460.5175
2809.324, 460.8685
2811.252, 461.4746
2813.181, 462.4555
2815.109, 464.5684
2817.038, 465.7753
2818.966, 465.5391
2820.895, 465.0512
2822.823, 464.4382
2824.752, 464.0798
2826.680, 463.9055
2828.609, 464.4926
2830.537, 466.1696
2832.466, 467.8781
2834.394, 469.6463
2836.323, 470.4903
2838.251, 470.0766
2840.179, 470.4579
2842.108, 472.1007
2844.036, 473.3898
2845.965, 474.3304
2847.893, 474.9265
2849.822, 475.2217
2851.750, 476.3056
2853.679, 478.1202
2855.607, 478.7686
2857.536, 478.3896
2859.464, 478.7336
2861.393, 479.6476
2863.321, 480.5084
2865.250, 481.3117
2867.178, 481.9678
2869.106, 482.5076
2871.035, 482.6288
2872.963, 482.8201
2874.892, 484.2943
2876.820, 486.2677
2878.749, 487.6900
2880.677, 488.9429
2882.606, 490.8169
2884.534, 492.5094
2886.463, 493.1051
2888.391, 493.2736
2890.320, 493.1422
2892.248, 493.2670
2894.177, 494.3204
2896.105, 495.3018
2898.033, 495.2707
2899.962, 495.7444
2901.890, 497.7086
2903.819, 499.5340
2905.747, 500.5365
2907.676, 501.3603
2909.604, 502.1127
2911.533, 502.6606
2913.461, 502.7716
2915.390, 503.6592
2917.318, 506.0832
2919.247, 507.7797
2921.175, 508.4838
2923.104, 509.1848
2925.032, 509.9135
2926.960, 510.3968
2928.889, 510.5922
2930.817, 510.9633
2932.746, 511.5565
2934.674, 513.7923
2936.603, 516.8734
2938.531, 516.5272
2940.460, 514.5087
2942.388, 515.7114
2944.317, 518.6042
2946.245, 520.4048
2948.174, 521.5168
2950.102, 522.0604
2952.031, 522.7720
2953.959, 524.6994
2955.887, 526.7309
2957.816, 527.6322
2959.744, 528.6922
2961.673, 530.8913
2963.601, 532.8918
2965.530, 534.2750
2967.458, 534.9379
2969.387, 533.8555
2971.315, 534.2681
2973.244, 537.4260
2975.172, 539.4200
2977.101, 538.5737
2979.029, 539.6199
2980.958, 543.5652
2982.886, 545.5609
2984.814, 545.4662
2986.743, 546.3076
2988.671, 548.1730
2990.600, 549.9230
2992.528, 551.5438
2994.457, 553.0792
2996.385, 554.3126
2998.314, 554.2105
3000.242, 553.7962
3002.171, 554.7269
3004.099, 556.3056
3006.028, 557.8109
3007.956, 559.3452
3009.885, 560.8902
3011.813, 562.5830
3013.741, 564.5399
3015.670, 566.5755
3017.598, 568.7975
3019.527, 570.4955
3021.455, 571.1190
3023.384, 572.0477
3025.312, 574.0753
3027.241, 575.2985
3029.169, 575.5671
3031.098, 576.2839
3033.026, 577.6083
3034.955, 579.3295
3036.883, 581.3636
3038.812, 582.1932
3040.740, 582.2340
3042.668, 582.9609
3044.597, 584.0236
3046.525, 584.4283
3048.454, 585.0573
3050.382, 587.9365
3052.311, 590.5978
3054.239, 590.6063
3056.168, 590.3596
3058.096, 591.1068
3060.025, 592.3909
3061.953, 594.4073
3063.882, 595.9972
3065.810, 596.8412
3067.739, 597.2706
3069.667, 596.9431
3071.595, 597.3994
3073.524, 598.6915
3075.452, 600.2482
3077.381, 601.9564
3079.309, 602.8514
3081.238, 603.1347
3083.166, 603.6243
3085.095, 604.2930
3087.023, 605.4814
3088.952, 606.4401
3090.880, 606.0932
3092.809, 605.4442
3094.737, 605.5341
3096.666, 605.3380
3098.594, 603.8236
3100.522, 602.8467
3102.451, 602.8630
3104.379, 603.8375
3106.308, 605.9734
3108.236, 607.4125
3110.165, 607.7133
3112.093, 608.4509
3114.022, 609.6335
3115.950, 609.1635
3117.879, 607.7590
3119.807, 607.8252
3121.736, 608.6949
3123.664, 609.2916
3125.593, 609.6406
3127.521, 609.1809
3129.449, 609.2618
3131.378, 611.6042
3133.306, 613.3629
3135.235, 612.8661
3137.163, 612.5319
3139.092, 612.8566
3141.020, 613.4504
3142.949, 614.6794
3144.877, 614.3711
3146.806, 612.6554
3148.734, 612.8588
3150.663, 614.5679
3152.591, 615.8575
3154.520, 616.3305
3156.448, 614.0010
3158.376, 611.5379
3160.305, 612.1741
3162.233, 613.4234
3164.162, 613.4887
3166.090, 613.4502
3168.019, 613.3860
3169.947, 613.8610
3171.876, 615.5080
3173.804, 616.2570
3175.733, 615.9139
3177.661, 615.4490
3179.590, 615.0045
3181.518, 615.0961
3183.447, 615.5841
3185.375, 615.9161
3187.303, 616.1759
3189.232, 616.1473
3191.160, 616.4767
3193.089, 618.3732
3195.017, 619.6868
3196.946, 619.3177
3198.874, 618.6204
3200.803, 617.9257
3202.731, 617.1518
3204.660, 616.0959
3206.588, 616.5197
3208.517, 618.2925
3210.445, 619.5020
3212.374, 620.1282
3214.302, 620.0549
3216.230, 619.7714
3218.159, 620.1130
3220.087, 620.5517
3222.016, 620.4543
3223.944, 620.6560
3225.873, 621.5951
3227.801, 622.6632
3229.730, 624.1339
3231.658, 624.2758
3233.587, 622.8251
3235.515, 622.1351
3237.444, 622.3200
3239.372, 623.5839
3241.301, 625.3806
3243.229, 626.0173
3245.157, 626.7084
3247.086, 629.1439
3249.014, 631.4577
3250.943, 632.4176
3252.871, 632.7770
3254.800, 632.6436
3256.728, 632.6726
3258.657, 633.2036
3260.585, 633.5956
3262.514, 633.9432
3264.442, 635.2618
3266.371, 636.9234
3268.299, 636.8522
3270.228, 636.1220
3272.156, 635.7210
3274.084, 636.0710
3276.013, 637.7927
3277.941, 639.7947
3279.870, 642.1635
3281.798, 643.7869
3283.727, 644.5687
3285.655, 644.7089
3287.584, 644.3248
3289.512, 646.0654
3291.441, 648.9520
3293.369, 649.9784
3295.298, 650.5466
3297.226, 652.6289
3299.155, 654.6746
3301.083, 656.0911
3303.011, 656.4911
3304.940, 654.3152
3306.868, 654.5236
3308.797, 657.6366
3310.725, 660.4260
3312.654, 662.6557
3314.582, 663.6579
3316.511, 664.1641
3318.439, 665.7892
3320.368, 667.8182
3322.296, 669.6579
3324.225, 671.5201
3326.153, 673.3766
3328.082, 675.7399
3330.010, 678.9235
3331.938, 681.8624
3333.867, 684.4965
3335.795, 686.6238
3337.724, 688.4287
3339.652, 690.2970
3341.581, 692.5067
3343.509, 695.7180
3345.438, 699.1212
3347.366, 703.0888
3349.295, 705.5795
3351.223, 705.3610
3353.152, 705.7715
3355.080, 707.0749
3357.009, 709.2432
3358.937, 712.0565
3360.865, 714.6078
3362.794, 717.3031
3364.722, 720.7527
3366.651, 724.4618
3368.579, 728.1039
3370.508, 731.7740
3372.436, 735.5536
3374.365, 738.9832
3376.293, 742.0623
3378.222, 743.9914
3380.150, 745.2146
3382.079, 747.4619
3384.007, 750.3294
3385.936, 753.2748
3387.864, 756.4515
3389.792, 759.9406
3391.721, 763.6341
3393.649, 767.6433
3395.578, 771.2625
3397.506, 774.5026
3399.435, 779.9236
3401.363, 786.6152
3403.292, 791.1503
3405.220, 794.6870
3407.148, 797.8997
3409.077, 801.9537
3411.005, 808.0896
3412.934, 814.1192
3414.862, 819.6652
3416.791, 824.7784
3418.719, 829.5270
3420.648, 834.8325
3422.576, 840.1413
3424.505, 843.7697
3426.433, 847.2306
3428.362, 852.1124
3430.290, 857.1611
3432.219, 862.1171
3434.147, 866.1589
3436.075, 868.8458
3438.004, 872.4456
3439.932, 876.3292
3441.861, 877.3405
3443.789, 877.4320
3445.718, 880.5262
3447.646, 882.8779
3449.575, 881.1594
3451.503, 880.6909
3453.432, 882.9332
3455.360, 884.8506
3457.289, 886.0763
3459.217, 885.0782
3461.146, 883.5787
3463.074, 886.8031
3465.002, 890.3901
3466.931, 890.8608
3468.859, 890.5215
3470.788, 889.7563
3472.716, 890.0823
3474.645, 891.7474
3476.573, 893.6515
3478.502, 895.3986
3480.430, 895.9750
3482.359, 895.6202
3484.287, 893.5893
3486.216, 892.7686
3488.144, 894.8489
3490.073, 895.7448
3492.001, 894.2324
3493.929, 895.0154
3495.858, 896.5202
3497.786, 893.4919
3499.715, 888.5349
3501.643, 883.8378
3503.572, 880.4611
3505.500, 880.0841
3507.429, 878.1652
3509.357, 874.0807
3511.286, 869.7475
3513.214, 865.5974
3515.143, 863.8563
3517.071, 862.0052
3519.000, 856.7369
3520.928, 850.7598
3522.856, 845.4140
3524.785, 839.7790
3526.713, 833.8484
3528.642, 826.3240
3530.570, 817.8066
3532.499, 810.2145
3534.427, 803.2589
3536.356, 797.4955
3538.284, 790.3712
3540.213, 779.9783
3542.141, 771.0975
3544.070, 764.3529
3545.998, 755.9869
3547.927, 746.7021
3549.855, 738.2503
3551.783, 730.8752
3553.712, 725.5498
3555.640, 719.6381
3557.569, 712.0295
3559.497, 705.7834
3561.426, 701.1607
3563.354, 694.9569
3565.283, 688.0975
3567.211, 682.1044
3569.140, 676.7722
3571.068, 672.0811
3572.997, 667.9813
3574.925, 664.7003
3576.854, 660.5974
3578.782, 655.9576
3580.710, 653.5882
3582.639, 651.8226
3584.567, 647.7275
3586.496, 644.9003
3588.424, 645.6395
3590.353, 644.3127
3592.281, 639.5205
3594.210, 637.9491
3596.138, 637.9736
3598.067, 635.1634
3599.995, 632.0909
3601.924, 631.1211
3603.852, 630.0632
3605.781, 628.0125
3607.709, 626.5880
3609.637, 625.6439
3611.566, 623.8732
3613.494, 621.8987
3615.423, 620.8215
3617.351, 619.5356
3619.280, 617.1188
3621.208, 615.6683
3623.137, 615.4003
3625.065, 613.8900
3626.994, 611.8569
3628.922, 611.3698
3630.851, 610.8577
3632.779, 609.0402
3634.708, 607.3542
3636.636, 606.1014
3638.564, 604.9730
3640.493, 604.2269
3642.421, 605.8856
3644.350, 607.0619
3646.278, 603.9797
3648.207, 600.7614
3650.135, 598.6042
3652.064, 598.2726
3653.992, 599.4388
3655.921, 599.4171
3657.849, 598.8362
3659.778, 598.8680
3661.706, 598.6671
3663.635, 597.5320
3665.563, 596.8811
3667.491, 596.7703
3669.420, 596.2828
3671.348, 595.7724
3673.277, 596.4160
3675.205, 596.8759
3677.134, 596.1846
3679.062, 595.4517
3680.991, 594.8465
3682.919, 595.5833
3684.848, 596.8636
3686.776, 595.7736
3688.705, 595.2242
3690.633, 598.3645
3692.562, 599.7979
3694.490, 598.4146
3696.418, 597.0894
3698.347, 596.2449
3700.275, 597.1393
3702.204, 598.4261
3704.132, 599.7382
3706.061, 599.2258
3707.989, 595.9037
3709.918, 596.4125
3711.846, 599.4215
3713.775, 599.7112
3715.703, 598.9185
3717.632, 598.0047
3719.560, 597.6833
3721.489, 598.2340
3723.417, 599.2161
3725.345, 600.1000
3727.274, 598.1689
3729.202, 596.9955
3731.131, 600.5124
3733.059, 602.5280
3734.988, 600.7861
3736.916, 601.2839
3738.845, 603.2823
3740.773, 604.5026
3742.702, 604.7999
3744.630, 603.7723
3746.559, 603.1270
3748.487, 603.3450
3750.416, 603.8995
3752.344, 604.5861
3754.272, 604.6268
3756.201, 604.9376
3758.129, 606.2889
3760.058, 607.3555
3761.986, 607.9282
3763.915, 607.7076
3765.843, 607.1172
3767.772, 606.7400
3769.700, 606.9464
3771.629, 608.2748
3773.557, 608.3915
3775.486, 606.8690
3777.414, 607.5774
3779.343, 609.3807
3781.271, 610.7835
3783.199, 611.8908
3785.128, 612.9189
3787.056, 612.7332
3788.985, 611.4456
3790.913, 611.0209
3792.842, 611.3090
3794.770, 612.4235
3796.699, 613.6109
3798.627, 614.6862
3800.556, 615.3785
3802.484, 615.6762
3804.413, 614.9625
3806.341, 614.5435
3808.270, 615.8246
3810.198, 617.3537
3812.126, 618.9037
3814.055, 619.0152
3815.983, 618.3471
3817.912, 618.2657
3819.840, 618.6737
3821.769, 619.8657
3823.697, 620.4958
3825.626, 620.4962
3827.554, 620.7872
3829.483, 621.6188
3831.411, 623.8624
3833.340, 625.3282
3835.268, 625.3000
3837.197, 624.4955
3839.125, 623.3986
3841.053, 623.2219
3842.982, 623.9217
3844.910, 625.7606
3846.839, 627.8234
3848.767, 629.9054
3850.696, 630.0979
3852.624, 629.3487
3854.553, 628.9084
3856.481, 629.0995
3858.410, 630.7889
3860.338, 631.0443
3862.267, 630.2405
3864.195, 629.7983
3866.124, 630.2592
3868.052, 632.7076
3869.980, 633.7130
3871.909, 632.0458
3873.837, 632.2928
3875.766, 633.7481
3877.694, 635.7286
3879.623, 637.1695
3881.551, 637.6835
3883.480, 638.3809
3885.408, 639.1443
3887.337, 637.8463
3889.265, 636.6257
3891.194, 637.4491
3893.122, 638.6182
3895.051, 639.8343
3896.979, 640.3572
3898.907, 640.5039
3900.836, 640.6567
3902.764, 641.1301
3904.693, 642.0897
3906.621, 643.2755
3908.550, 644.3964
3910.478, 644.1183
3912.407, 644.0655
3914.335, 646.1804
3916.264, 646.2455
3918.192, 644.3915
3920.121, 645.0578
3922.049, 646.7075
3923.978, 647.8373
3925.906, 648.1765
3927.834, 647.2312
3929.763, 647.7993
3931.691, 649.2074
3933.620, 650.4988
3935.548, 651.1208
3937.477, 650.7289
3939.405, 650.5449
3941.334, 650.8037
3943.262, 652.9803
3945.191, 654.6602
3947.119, 653.5791
3949.048, 652.8340
3950.976, 652.8967
3952.905, 654.2780
3954.833, 656.4586
3956.761, 659.7161
3958.690, 661.1353
3960.618, 660.2477
3962.547, 659.4882
3964.475, 659.0666
3966.404, 659.0222
3968.332, 659.8479
3970.261, 662.4199
3972.189, 663.0235
3974.118, 662.6984
3976.046, 664.9417
3977.975, 666.1648
3979.903, 664.1867
3981.832, 663.1884
3983.760, 663.5299
3985.688, 665.9402
3987.617, 668.2476
3989.545, 668.8076
3991.474, 669.2285
3993.402, 669.7115
3995.331, 670.3606
3997.259, 670.7886
3999.188, 669.7359
4001.116, 671.1688
4003.045, 675.1942
4004.973, 675.0720
4006.902, 673.5470
4008.830, 674.1934
4010.759, 674.5977
4012.687, 674.1507
4014.615, 674.2303
4016.544, 674.5875
4018.472, 674.8060
4020.401, 675.1140
4022.329, 675.4715
4024.258, 677.1446
4026.186, 679.5530
4028.115, 682.0841
4030.043, 683.3881
4031.972, 682.8875
4033.900, 683.9543
4035.829, 685.5731
4037.757, 684.3057
4039.686, 683.1552
4041.614, 683.2703
4043.542, 685.0254
4045.471, 687.4542
4047.399, 688.0075
4049.328, 687.5998
4051.256, 686.0065
4053.185, 685.7968
4055.113, 686.9763
4057.042, 690.0827
4058.970, 691.8447
4060.899, 690.2698
4062.827, 690.0608
4064.756, 691.0847
4066.684, 691.4641
4068.613, 692.1568
4070.541, 694.1592
4072.469, 693.8256
4074.398, 691.8365
4076.326, 691.4315
4078.255, 691.9147
4080.183, 693.5183
4082.112, 693.8499
4084.040, 693.5197
4085.969, 695.2814
4087.897, 697.0333
4089.826, 697.4592
4091.754, 698.1876
4093.683, 699.1414
4095.611, 699.8255
4097.540, 700.3273
4099.468, 700.6730
4101.396, 701.9652
4103.325, 703.5109
4105.253, 702.0280
4107.182, 700.7976
4109.110, 701.2261
4111.039, 703.4492
4112.967, 706.1755
4114.896, 705.7423
4116.824, 705.1002
4118.752, 705.7264
4120.681, 706.0261
4122.609, 706.3600
4124.538, 707.6287
4126.466, 708.8368
4128.395, 709.6359
4130.323, 709.1851
4132.252, 708.8821
4134.180, 712.4318
4136.109, 713.6483
4138.037, 711.1122
4139.966, 712.2625
4141.894, 714.7780
4143.823, 715.1776
4145.751, 715.0186
4147.680, 714.6044
4149.608, 715.9975
4151.537, 717.6426
4153.465, 717.5203
4155.394, 718.0115
4157.322, 719.3887
4159.250, 719.3749
4161.179, 719.3303
4163.107, 721.1904
4165.036, 720.9890
4166.964, 719.1418
4168.893, 719.6898
4170.821, 720.8463
4172.750, 721.5989
4174.678, 721.9730
4176.606, 722.4138
4178.535, 724.4651
4180.463, 725.9924
4182.392, 725.9797
4184.320, 727.3110
4186.249, 729.1097
4188.177, 729.3275
4190.106, 729.7496
4192.034, 730.8258
4193.963, 730.9460
4195.891, 730.5228
4197.820, 729.6981
4199.748, 730.2130
4201.677, 732.1305
4203.605, 731.9034
4205.534, 731.9226
4207.462, 734.3619
4209.391, 735.5665
4211.319, 735.4448
4213.248, 735.0165
4215.176, 735.3638
4217.104, 737.3885
4219.033, 738.4239
4220.961, 738.8626
4222.890, 740.0995
4224.818, 740.3744
4226.747, 738.9852
4228.675, 738.1501
4230.604, 738.4338
4232.532, 741.4315
4234.460, 743.1533
4236.389, 743.3646
4238.317, 745.5007
4240.246, 747.5976
4242.174, 747.8555
4244.103, 747.6523
##END=



