##NAMES=Carminite
##RRUFFID=R050528
##IDEAL CHEMISTRY=PbFe^3+^_2_(AsO_4_)_2_(OH)_2_
##LOCALITY=Las Animas mine, Benjamin Hill, Sonora, Mexico
##OWNER=RRUFF
##SOURCE=University of Arizona Mineral Museum
##DESCRIPTION=Red prismatic crystals
##STATUS=The identification of this mineral is confirmed by single-crystal X-ray diffraction and chemical analysis
##URL=https://www.rruff.net/odr/rruff_sample/R050528
##MEASURED CHEMISTRY=(Pb_0.99_Cu_0.01_)(Fe^3+^_1.99_Al_0.01_)(As_1.00_O_4_)_2_(OH)_2_ ; (core) :  (Pb_0.70_Ca_0.30_)(Fe^3+^_1.99_Al_0.01_)(As_1.00_O_4_)_2_(OH)_2_ (rim)
##DIFFRACTION SAMPLE DESCRIPTION=Single crystal, powder profile is calculated
##CELL PARAMETERS=a: 16.566 b: 7.569 c: 12.276 alpha: 90 beta: 90 gamma: 90 volume: 1539 crystal system: orthorhombic
##FILETYPE=Raman Processed
##RAMAN WAVELENGTH=780

139.1821, 524.7216
141.1106, 532.8016
143.0390, 542.5775
144.9675, 551.6083
146.8960, 559.9561
148.8244, 566.9960
150.7529, 572.5321
152.6814, 576.4571
154.6098, 577.7402
156.5383, 574.8082
158.4668, 571.6481
160.3952, 567.6143
162.3237, 564.4572
164.2522, 563.7628
166.1806, 564.7311
168.1091, 565.6033
170.0376, 566.0704
171.9660, 566.9907
173.8945, 568.1703
175.8230, 569.9702
177.7514, 573.6364
179.6799, 577.5676
181.6084, 579.2177
183.5368, 577.9982
185.4653, 576.5709
187.3938, 573.7707
189.3223, 572.5966
191.2507, 573.7281
193.1792, 577.3836
195.1077, 583.9022
197.0361, 593.2979
198.9646, 604.9626
200.8931, 619.7006
202.8215, 633.9977
204.7500, 647.8231
206.6785, 660.0022
208.6069, 671.1447
210.5354, 680.2422
212.4639, 683.8284
214.3923, 681.8260
216.3208, 675.0721
218.2493, 662.5123
220.1777, 647.0202
222.1062, 627.6149
224.0347, 607.6694
225.9631, 590.6642
227.8916, 576.9078
229.8201, 567.0882
231.7485, 561.6230
233.6770, 558.7008
235.6055, 559.3221
237.5339, 560.7629
239.4624, 561.6791
241.3909, 562.2934
243.3193, 563.8473
245.2478, 566.4705
247.1763, 566.4725
249.1047, 562.9822
251.0332, 556.9505
252.9617, 548.3020
254.8901, 537.8286
256.8186, 526.4060
258.7471, 513.7925
260.6755, 499.0703
262.6040, 481.9884
264.5325, 463.6999
266.4609, 444.3071
268.3894, 423.9906
270.3179, 401.8240
272.2463, 379.2876
274.1748, 358.0093
276.1033, 338.1077
278.0317, 321.0272
279.9602, 307.6137
281.8887, 295.9741
283.8171, 286.1934
285.7456, 277.5997
287.6741, 270.0224
289.6025, 263.2726
291.5310, 257.0346
293.4595, 251.3065
295.3879, 246.4341
297.3164, 242.5674
299.2449, 239.3178
301.1733, 236.1639
303.1018, 234.0745
305.0303, 233.6761
306.9587, 234.8456
308.8872, 237.4364
310.8157, 241.1692
312.7441, 247.5769
314.6726, 257.8012
316.6011, 268.6259
318.5295, 280.2593
320.4580, 291.2749
322.3865, 301.1825
324.3149, 309.7885
326.2434, 315.9226
328.1719, 318.2511
330.1003, 322.6280
332.0288, 327.9996
333.9573, 337.2722
335.8857, 352.5881
337.8142, 370.9578
339.7427, 391.4869
341.6711, 413.0840
343.5996, 433.1284
345.5281, 451.5983
347.4565, 468.1163
349.3850, 483.3785
351.3135, 494.8255
353.2419, 501.4252
355.1704, 503.8279
357.0989, 501.8737
359.0273, 496.3797
360.9558, 487.8406
362.8843, 476.1528
364.8127, 466.8707
366.7412, 460.1685
368.6697, 455.6671
370.5981, 454.7062
372.5266, 454.1210
374.4551, 453.1134
376.3835, 451.1967
378.3120, 447.8607
380.2405, 442.9939
382.1689, 436.7209
384.0974, 429.1308
386.0259, 419.3579
387.9543, 406.1530
389.8828, 392.3392
391.8113, 378.8491
393.7397, 365.2040
395.6682, 350.2890
397.5967, 335.0270
399.5251, 321.3841
401.4536, 309.3692
403.3821, 299.6846
405.3105, 292.5320
407.2390, 287.5933
409.1675, 285.2945
411.0959, 284.3941
413.0244, 284.3658
414.9529, 285.2421
416.8813, 286.7757
418.8098, 289.1749
420.7383, 293.6448
422.6667, 300.6717
424.5952, 308.1887
426.5237, 315.6627
428.4521, 324.0118
430.3806, 334.2326
432.3091, 344.6897
434.2375, 354.3480
436.1660, 363.3095
438.0945, 371.7884
440.0229, 379.8197
441.9514, 387.1140
443.8799, 392.3500
445.8083, 399.1919
447.7368, 408.1233
449.6653, 418.1531
451.5938, 429.6906
453.5222, 441.4591
455.4507, 452.5030
457.3792, 463.0352
459.3076, 474.0156
461.2361, 485.7299
463.1646, 494.6730
465.0930, 500.8064
467.0215, 504.4620
468.9500, 505.0752
470.8784, 504.2932
472.8069, 502.9242
474.7354, 500.1754
476.6638, 495.6997
478.5923, 489.4282
480.5208, 480.6527
482.4492, 469.3597
484.3777, 458.6380
486.3062, 448.2124
488.2346, 439.5005
490.1631, 432.3836
492.0916, 427.7856
494.0200, 428.0294
495.9485, 428.8632
497.8770, 428.3112
499.8054, 426.5591
501.7339, 424.3260
503.6624, 421.3755
505.5908, 415.8424
507.5193, 407.7063
509.4478, 398.3065
511.3762, 387.4352
513.3047, 376.5314
515.2332, 365.5504
517.1616, 355.2280
519.0901, 345.3248
521.0186, 336.6578
522.9470, 329.8823
524.8755, 325.1377
526.8040, 322.5233
528.7324, 321.9927
530.6609, 323.9334
532.5894, 328.7911
534.5178, 333.9141
536.4463, 339.3043
538.3748, 344.0700
540.3032, 349.4461
542.2317, 352.4964
544.1602, 351.9266
546.0886, 347.7118
548.0171, 339.1234
549.9456, 327.0707
551.8740, 312.9067
553.8025, 296.7080
555.7310, 279.8477
557.6594, 261.8829
559.5879, 244.7296
561.5164, 227.5818
563.4448, 212.6595
565.3733, 200.7563
567.3018, 191.0261
569.2302, 183.4688
571.1587, 177.4246
573.0872, 172.2154
575.0156, 167.8790
576.9441, 164.6191
578.8726, 162.4859
580.8010, 160.7834
582.7295, 159.9498
584.6580, 158.5108
586.5864, 156.0042
588.5149, 153.8094
590.4434, 152.7453
592.3718, 151.2714
594.3003, 148.1207
596.2288, 144.7167
598.1572, 142.3351
600.0857, 140.4278
602.0142, 137.8338
603.9426, 134.7182
605.8711, 132.4501
607.7996, 131.2590
609.7280, 129.5673
611.6565, 127.1968
613.5850, 124.9857
615.5134, 122.9020
617.4419, 121.4345
619.3704, 120.8067
621.2988, 120.8276
623.2273, 122.5457
625.1558, 123.7226
627.0842, 121.4674
629.0127, 117.4852
630.9412, 115.2371
632.8696, 114.4566
634.7981, 113.3361
636.7266, 111.8948
638.6550, 110.7467
640.5835, 109.9577
642.5120, 109.3763
644.4404, 109.0791
646.3689, 108.7716
648.2974, 108.4717
650.2258, 108.0002
652.1543, 107.0548
654.0828, 106.1433
656.0112, 105.6203
657.9397, 105.4003
659.8682, 105.6540
661.7966, 106.0345
663.7251, 105.4539
665.6536, 104.1163
667.5820, 103.4620
669.5105, 103.6473
671.4390, 103.8269
673.3674, 103.8258
675.2959, 104.0359
677.2244, 104.8546
679.1528, 105.3620
681.0813, 105.0673
683.0098, 104.7846
684.9382, 104.8153
686.8667, 105.1182
688.7952, 105.6967
690.7236, 106.5010
692.6521, 107.5351
694.5806, 108.7025
696.5090, 109.6942
698.4375, 110.5569
700.3660, 111.8666
702.2944, 113.6530
704.2229, 115.8025
706.1514, 118.3125
708.0798, 121.2386
710.0083, 124.8296
711.9368, 128.3189
713.8652, 131.2466
715.7937, 134.6587
717.7222, 139.4868
719.6506, 144.1389
721.5791, 147.2140
723.5076, 150.1655
725.4360, 154.3420
727.3645, 158.9149
729.2930, 162.8468
731.2214, 166.2507
733.1499, 169.3497
735.0784, 172.1918
737.0068, 175.2916
738.9353, 178.7435
740.8638, 181.0274
742.7922, 182.0810
744.7207, 182.3309
746.6492, 181.6813
748.5776, 180.8587
750.5061, 179.9079
752.4346, 179.0741
754.3630, 178.5528
756.2915, 177.9912
758.2200, 176.1728
760.1484, 175.6650
762.0769, 178.0428
764.0054, 182.1724
765.9338, 187.0225
767.8623, 193.0596
769.7908, 200.8723
771.7192, 210.4104
773.6477, 221.9984
775.5762, 235.0612
777.5046, 247.7631
779.4331, 260.1745
781.3616, 272.5739
783.2900, 284.9494
785.2185, 297.5698
787.1470, 310.4095
789.0754, 324.0275
791.0039, 338.9248
792.9324, 353.3831
794.8608, 366.9549
796.7893, 380.2661
798.7178, 395.0097
800.6462, 407.0634
802.5747, 414.7581
804.5032, 420.0713
806.4316, 423.4807
808.3601, 425.3729
810.2886, 424.3762
812.2170, 423.7020
814.1455, 424.4415
816.0740, 428.8096
818.0024, 437.2387
819.9309, 452.2468
821.8594, 479.0828
823.7878, 515.7166
825.7163, 558.4562
827.6448, 605.7137
829.5732, 647.5727
831.5017, 684.0605
833.4302, 713.0192
835.3586, 732.5001
837.2871, 754.9970
839.2156, 779.1161
841.1440, 811.7539
843.0725, 856.2053
845.0010, 899.3192
846.9294, 944.0629
848.8579, 974.7728
850.7864, 989.8887
852.7148, 986.7936
854.6433, 963.5232
856.5718, 924.6111
858.5002, 867.9225
860.4287, 803.3649
862.3572, 731.9031
864.2856, 658.8574
866.2141, 583.1384
868.1426, 511.4310
870.0710, 446.3615
871.9995, 388.9106
873.9280, 340.2675
875.8564, 299.3336
877.7849, 265.9847
879.7134, 238.6228
881.6418, 215.7760
883.5703, 196.8392
885.4988, 181.2106
887.4272, 168.2571
889.3557, 156.6846
891.2842, 146.5237
893.2126, 138.0502
895.1411, 131.1223
897.0696, 125.1821
898.9980, 120.1219
900.9265, 115.7138
902.8550, 111.9436
904.7834, 108.3064
906.7119, 104.7925
908.6404, 102.3006
910.5688, 100.9342
912.4973, 99.27276
914.4258, 97.15855
916.3542, 95.18763
918.2827, 93.40430
920.2112, 91.77518
922.1396, 90.25517
924.0681, 88.96440
925.9966, 88.07265
927.9250, 87.13229
929.8535, 86.13903
931.7820, 85.05982
933.7104, 83.62199
935.6389, 82.54115
937.5674, 82.07635
939.4958, 81.72720
941.4243, 81.56959
943.3528, 81.25623
945.2813, 80.38441
947.2097, 79.81051
949.1382, 80.11546
951.0667, 80.33945
952.9951, 80.00876
954.9236, 79.54435
956.8521, 79.10142
958.7805, 78.70236
960.7090, 78.35098
962.6375, 78.04821
964.5659, 77.91956
966.4944, 77.71888
968.4229, 77.15622
970.3513, 76.54000
972.2798, 76.06007
974.2083, 75.73202
976.1367, 75.63503
978.0652, 75.48023
979.9937, 75.10065
981.9221, 74.59666
983.8506, 73.96080
985.7791, 73.32238
987.7075, 72.88396
989.6360, 72.40610
991.5645, 71.45129
993.4929, 70.47594
995.4214, 70.02599
997.3499, 69.87051
999.2783, 69.90065
1001.207, 69.85970
1003.135, 69.38728
1005.064, 68.75981
1006.992, 68.24004
1008.921, 67.80878
1010.849, 67.53472
1012.778, 67.32321
1014.706, 66.94387
1016.635, 66.54551
1018.563, 66.49690
1020.491, 66.45677
1022.420, 65.75628
1024.348, 64.93300
1026.277, 64.74230
1028.205, 64.86559
1030.134, 65.01088
1032.062, 65.06796
1033.991, 64.84666
1035.919, 64.48777
1037.848, 64.15584
1039.776, 63.78870
1041.705, 63.35143
1043.633, 62.94844
1045.562, 62.55161
1047.490, 62.28804
1049.418, 62.40600
1051.347, 62.54357
1053.275, 62.25974
1055.204, 61.95131
1057.132, 62.10665
1059.061, 62.31197
1060.989, 62.22661
1062.918, 62.06144
1064.846, 61.84776
1066.775, 61.59424
1068.703, 61.37909
1070.632, 61.20011
1072.560, 61.07113
1074.489, 60.95182
1076.417, 60.79548
1078.345, 60.72554
1080.274, 60.83521
1082.202, 60.83507
1084.131, 60.51836
1086.059, 60.17470
1087.988, 60.06699
1089.916, 59.87057
1091.845, 59.09344
1093.773, 58.53281
1095.702, 58.97894
1097.630, 59.39339
1099.559, 59.10183
1101.487, 58.73594
1103.416, 58.69830
1105.344, 58.62965
1107.272, 58.27010
1109.201, 57.88066
1111.129, 57.56148
1113.058, 57.28053
1114.986, 56.87727
1116.915, 56.71552
1118.843, 57.31606
1120.772, 57.81089
1122.700, 57.65653
1124.629, 57.22839
1126.557, 56.65014
1128.486, 56.27050
1130.414, 56.16166
1132.343, 56.21208
1134.271, 56.44769
1136.199, 56.45545
1138.128, 56.20163
1140.056, 56.17334
1141.985, 56.39040
1143.913, 56.37720
1145.842, 56.11238
1147.770, 55.90504
1149.699, 55.73188
1151.627, 55.72214
1153.556, 55.93899
1155.484, 55.80482
1157.413, 55.26342
1159.341, 55.18541
1161.270, 55.57681
1163.198, 55.77998
1165.126, 55.76540
1167.055, 55.50788
1168.983, 55.13555
1170.912, 55.10570
1172.840, 55.22034
1174.769, 54.99170
1176.697, 54.64397
1178.626, 54.51831
1180.554, 54.54249
1182.483, 54.74729
1184.411, 54.99846
1186.340, 55.07265
1188.268, 55.09274
1190.197, 55.15509
1192.125, 55.20964
1194.053, 55.29170
1195.982, 55.34464
1197.910, 55.21430
1199.839, 55.10160
1201.767, 55.22182
1203.696, 55.49719
1205.624, 55.80073
1207.553, 55.89071
1209.481, 55.78429
1211.410, 55.70732
1213.338, 55.71317
1215.267, 55.76248
1217.195, 55.74653
1219.124, 55.72478
1221.052, 55.81402
1222.980, 55.76946
1224.909, 55.52663
1226.837, 55.50956
1228.766, 55.73779
1230.694, 55.79506
1232.623, 55.64078
1234.551, 55.64667
1236.480, 55.82313
1238.408, 55.80362
1240.337, 55.68021
1242.265, 55.68421
1244.194, 55.72849
1246.122, 55.77216
1248.051, 55.67260
1249.979, 55.29346
1251.907, 55.06646
1253.836, 55.20803
1255.764, 55.23592
1257.693, 54.98186
1259.621, 54.83942
1261.550, 54.85844
1263.478, 54.97815
1265.407, 55.24340
1267.335, 55.30156
1269.264, 55.13524
1271.192, 55.20593
1273.121, 55.49146
1275.049, 55.58570
1276.978, 55.44988
1278.906, 55.22956
1280.834, 55.00182
1282.763, 54.84923
1284.691, 54.75450
1286.620, 54.75173
1288.548, 54.88213
1290.477, 55.08921
1292.405, 55.10756
1294.334, 54.71518
1296.262, 54.55065
1298.191, 54.97573
1300.119, 55.52184
1302.048, 56.02841
1303.976, 56.29440
1305.905, 56.28356
1307.833, 56.24398
1309.761, 56.24805
1311.690, 55.97366
1313.618, 55.40866
1315.547, 55.14328
1317.475, 55.21052
1319.404, 55.27951
1321.332, 55.18400
1323.261, 55.18539
1325.189, 55.39107
1327.118, 55.56898
1329.046, 55.64331
1330.975, 55.53595
1332.903, 55.26332
1334.832, 54.86700
1336.760, 54.70576
1338.688, 55.10944
1340.617, 55.36778
1342.545, 55.16319
1344.474, 54.88966
1346.402, 54.51809
1348.331, 54.27671
1350.259, 54.24840
1352.188, 54.43596
1354.116, 54.75425
1356.045, 54.60286
1357.973, 54.22569
1359.902, 54.23407
1361.830, 54.42234
1363.759, 54.68098
1365.687, 54.86369
1367.615, 54.90035
1369.544, 54.87166
1371.472, 54.65132
1373.401, 54.58961
1375.329, 54.98063
1377.258, 55.12577
1379.186, 54.62556
1381.115, 54.38528
1383.043, 54.69163
1384.972, 54.98392
1386.900, 55.12944
1388.829, 55.27687
1390.757, 55.50953
1392.686, 55.52406
1394.614, 55.26914
1396.542, 55.30001
1398.471, 55.48423
1400.399, 55.32350
1402.328, 55.05674
1404.256, 54.92203
1406.185, 54.86945
1408.113, 54.87173
1410.042, 55.09222
1411.970, 55.35654
1413.899, 55.31519
1415.827, 55.18565
1417.756, 55.11645
1419.684, 55.04365
1421.613, 54.93184
1423.541, 54.82954
1425.469, 54.88816
1427.398, 54.85234
1429.326, 54.50385
1431.255, 54.23720
1433.183, 54.16722
1435.112, 54.12111
1437.040, 54.00848
1438.969, 54.09562
1440.897, 54.39136
1442.826, 54.08300
1444.754, 53.52318
1446.683, 53.49890
1448.611, 53.37093
1450.540, 53.01868
1452.468, 52.83992
1454.396, 52.67559
1456.325, 52.50447
1458.253, 52.48886
1460.182, 52.61382
1462.110, 52.89388
1464.039, 52.74111
1465.967, 52.17362
1467.896, 51.79783
1469.824, 51.66174
1471.753, 51.42603
1473.681, 51.20103
1475.610, 51.63820
1477.538, 51.99660
1479.467, 51.71491
1481.395, 51.34963
1483.323, 51.02071
1485.252, 50.80141
1487.180, 50.81221
1489.109, 50.98559
1491.037, 51.17455
1492.966, 50.91892
1494.894, 50.45192
1496.823, 50.58600
1498.751, 50.95565
1500.680, 50.98455
1502.608, 50.86259
1504.537, 50.58406
1506.465, 50.40905
1508.394, 50.53465
1510.322, 50.69904
1512.250, 50.73997
1514.179, 50.62233
1516.107, 50.39658
1518.036, 50.25684
1519.964, 50.30282
1521.893, 50.59766
1523.821, 50.78052
1525.750, 50.63683
1527.678, 50.39041
1529.607, 50.02087
1531.535, 49.94098
1533.464, 50.17785
1535.392, 50.49857
1537.321, 50.70925
1539.249, 50.37514
1541.177, 50.04006
1543.106, 50.14949
1545.034, 50.15127
1546.963, 49.97933
1548.891, 49.78805
1550.820, 49.32629
1552.748, 49.09588
1554.677, 49.28206
1556.605, 49.53941
1558.534, 49.66966
1560.462, 49.44201
1562.391, 49.14667
1564.319, 49.31496
1566.248, 49.48053
1568.176, 49.05936
1570.104, 48.69956
1572.033, 48.89477
1573.961, 49.12286
1575.890, 49.12513
1577.818, 49.13356
1579.747, 49.22120
1581.675, 49.41530
1583.604, 49.50607
1585.532, 49.27873
1587.461, 49.13283
1589.389, 49.00497
1591.318, 48.78561
1593.246, 48.67855
1595.175, 48.88981
1597.103, 49.24071
1599.031, 48.99794
1600.960, 48.46924
1602.888, 47.96986
1604.817, 47.82566
1606.745, 48.33623
1608.674, 48.53040
1610.602, 48.37169
1612.531, 48.25443
1614.459, 47.92140
1616.388, 47.83632
1618.316, 48.00556
1620.245, 47.68825
1622.173, 47.35063
1624.102, 47.37575
1626.030, 47.18485
1627.958, 47.01848
1629.887, 47.08314
1631.815, 47.07121
1633.744, 46.87276
1635.672, 46.53823
1637.601, 46.37535
1639.529, 46.34326
1641.458, 46.16821
1643.386, 45.87775
1645.315, 45.43066
1647.243, 45.12094
1649.172, 45.08246
1651.100, 44.99500
1653.029, 44.92687
1654.957, 45.06334
1656.885, 45.07970
1658.814, 44.72835
1660.742, 44.51051
1662.671, 44.61326
1664.599, 44.45669
1666.528, 43.98417
1668.456, 44.00748
1670.385, 44.15960
1672.313, 44.14933
1674.242, 44.08463
1676.170, 43.68861
1678.099, 43.43734
1680.027, 43.41690
1681.956, 43.30269
1683.884, 43.23183
1685.813, 43.24340
1687.741, 43.19305
1689.669, 42.95793
1691.598, 42.69973
1693.526, 42.38256
1695.455, 42.17092
1697.383, 42.25068
1699.312, 42.38780
1701.240, 42.51332
1703.169, 42.41731
1705.097, 42.09985
1707.026, 41.77496
1708.954, 41.57982
1710.883, 41.59688
1712.811, 41.53631
1714.740, 41.41167
1716.668, 41.42288
1718.596, 41.40637
1720.525, 41.40631
1722.453, 41.37719
1724.382, 41.13691
1726.310, 40.98129
1728.239, 40.84121
1730.167, 40.28127
1732.096, 39.92296
1734.024, 40.11184
1735.953, 40.28704
1737.881, 40.31545
1739.810, 40.15774
1741.738, 39.90392
1743.667, 39.75984
1745.595, 39.86507
1747.523, 40.02213
1749.452, 39.96807
1751.380, 39.87974
1753.309, 39.86492
1755.237, 39.66414
1757.166, 39.48896
1759.094, 39.50420
1761.023, 39.28022
1762.951, 38.95469
1764.880, 38.70213
1766.808, 38.62086
1768.737, 38.59505
1770.665, 38.55995
1772.594, 38.57052
1774.522, 38.33409
1776.450, 38.05798
1778.379, 37.91114
1780.307, 37.80548
1782.236, 37.52662
1784.164, 37.25375
1786.093, 37.09880
1788.021, 36.81164
1789.950, 36.56355
1791.878, 36.47535
1793.807, 36.58006
1795.735, 36.64507
1797.664, 36.33753
1799.592, 36.00890
1801.521, 35.95488
1803.449, 35.87641
1805.377, 35.50261
1807.306, 35.37351
1809.234, 35.56026
1811.163, 35.40277
1813.091, 35.08622
1815.020, 34.95609
1816.948, 34.93888
1818.877, 34.85403
1820.805, 34.72289
1822.734, 34.64236
1824.662, 34.55751
1826.591, 34.37805
1828.519, 34.14694
1830.448, 34.01001
1832.376, 34.00755
1834.304, 33.92166
1836.233, 33.75114
1838.161, 33.56398
1840.090, 33.57090
1842.018, 33.41071
1843.947, 32.93306
1845.875, 32.81055
1847.804, 32.94566
1849.732, 33.00254
1851.661, 32.92687
1853.589, 32.73059
1855.518, 32.53955
1857.446, 32.74676
1859.375, 32.91958
1861.303, 32.58363
1863.231, 32.29760
1865.160, 32.06766
1867.088, 31.99844
1869.017, 31.98136
1870.945, 31.71769
1872.874, 31.54539
1874.802, 31.65954
1876.731, 31.74915
1878.659, 31.51450
1880.588, 31.21926
1882.516, 31.15780
1884.445, 31.31301
1886.373, 31.16584
1888.302, 31.00460
1890.230, 31.10951
1892.158, 31.02478
1894.087, 30.82218
1896.015, 30.80266
1897.944, 30.70244
1899.872, 30.37518
1901.801, 30.28458
1903.729, 30.62067
1905.658, 30.78194
1907.586, 30.69171
1909.515, 30.46127
1911.443, 30.09786
1913.372, 30.15608
1915.300, 30.33782
1917.229, 30.13153
1919.157, 29.79575
1921.085, 29.53600
1923.014, 29.71355
1924.942, 30.02413
1926.871, 29.90089
1928.799, 29.55814
1930.728, 29.52714
1932.656, 29.72791
1934.585, 29.49512
1936.513, 29.26142
1938.442, 29.39087
1940.370, 29.59524
1942.299, 29.56271
1944.227, 29.22974
1946.156, 28.96585
1948.084, 28.81266
1950.012, 28.59299
1951.941, 28.34784
1953.869, 28.36457
1955.798, 28.43301
1957.726, 28.51555
1959.655, 28.72337
1961.583, 28.71260
1963.512, 28.69258
1965.440, 28.52163
1967.369, 28.27788
1969.297, 28.15816
1971.226, 27.92538
1973.154, 27.78709
1975.083, 27.73681
1977.011, 27.49380
1978.939, 27.26593
1980.868, 27.08496
1982.796, 27.05645
1984.725, 27.38441
1986.653, 27.43667
1988.582, 27.04033
1990.510, 26.89567
1992.439, 27.08658
1994.367, 27.11642
1996.296, 26.79330
1998.224, 26.60141
2000.153, 26.72336
2002.081, 26.69613
2004.010, 26.58778
2005.938, 26.39424
2007.866, 26.31504
2009.795, 26.27906
2011.723, 25.95301
2013.652, 25.92120
2015.580, 26.09471
2017.509, 26.10452
2019.437, 25.93103
2021.366, 25.80007
2023.294, 25.85013
2025.223, 25.75935
2027.151, 25.58060
2029.080, 25.56351
2031.008, 25.76182
2032.937, 25.74356
2034.865, 25.44851
2036.793, 25.34612
2038.722, 25.44086
2040.650, 25.47248
2042.579, 25.26603
2044.507, 25.18655
2046.436, 25.02306
2048.364, 24.70977
2050.293, 24.81048
2052.221, 25.13007
2054.150, 25.08811
2056.078, 24.85616
2058.007, 24.67050
2059.935, 24.65137
2061.864, 24.47868
2063.792, 24.39700
2065.720, 24.68681
2067.649, 24.86989
2069.577, 24.71295
2071.506, 24.40580
2073.434, 24.12287
2075.363, 24.07845
2077.291, 23.96620
2079.220, 23.98337
2081.148, 24.35650
2083.077, 24.37304
2085.005, 23.96050
2086.934, 23.90376
2088.862, 24.07877
2090.791, 23.95001
2092.719, 23.80536
2094.647, 23.76572
2096.576, 23.56693
2098.504, 23.66449
2100.433, 23.73642
2102.361, 23.61076
2104.290, 23.56104
2106.218, 23.44793
2108.147, 23.42810
2110.075, 23.55882
2112.004, 23.42541
2113.932, 23.22064
2115.861, 23.23208
2117.789, 23.01462
2119.718, 22.81619
2121.646, 22.94184
2123.574, 23.14780
2125.503, 23.11465
2127.431, 22.82295
2129.360, 22.79838
2131.288, 22.79703
2133.217, 22.61206
2135.145, 22.69271
2137.074, 22.85489
2139.002, 22.82456
2140.931, 22.63709
2142.859, 22.67464
2144.788, 22.87295
2146.716, 22.81770
2148.645, 22.62182
2150.573, 22.50068
2152.501, 22.71805
2154.430, 22.78765
2156.358, 22.73613
2158.287, 22.63727
2160.215, 22.50637
2162.144, 22.41481
2164.072, 22.51891
2166.001, 22.67506
2167.929, 22.51081
2169.858, 22.25422
2171.786, 22.03923
2173.715, 22.13677
2175.643, 22.32885
2177.572, 22.18656
2179.500, 22.05301
2181.428, 22.26186
2183.357, 22.45829
2185.285, 22.44935
2187.214, 22.32561
2189.142, 22.32403
2191.071, 22.56425
2192.999, 22.63416
2194.928, 22.44915
2196.856, 22.41051
2198.785, 22.49290
2200.713, 22.45465
2202.642, 22.49580
2204.570, 22.62690
2206.499, 22.62383
2208.427, 22.63807
2210.355, 22.81695
2212.284, 22.76601
2214.212, 22.55041
2216.141, 22.39890
2218.069, 22.51211
2219.998, 22.81977
2221.926, 22.81534
2223.855, 22.69370
2225.783, 22.70658
2227.712, 22.45303
2229.640, 22.17187
2231.569, 21.96398
2233.497, 21.78014
2235.426, 21.68750
2237.354, 21.50335
2239.282, 21.29320
2241.211, 20.98451
2243.139, 20.65506
2245.068, 20.37449
2246.996, 20.06462
2248.925, 19.83707
2250.853, 19.94402
2252.782, 19.75338
2254.710, 19.25890
2256.639, 18.94132
2258.567, 18.78741
2260.496, 18.54139
2262.424, 18.50225
2264.353, 18.35966
2266.281, 17.98605
2268.209, 18.04586
2270.138, 18.15309
2272.066, 18.07254
2273.995, 17.85685
2275.923, 17.53909
2277.852, 17.42894
2279.780, 17.35335
2281.709, 17.14874
2283.637, 17.29753
2285.566, 17.58858
2287.494, 17.69000
2289.423, 17.37583
2291.351, 17.17030
2293.280, 17.18381
2295.208, 17.13670
2297.136, 17.11507
2299.065, 16.88912
2300.993, 16.72442
2302.922, 16.63907
2304.850, 16.47972
2306.779, 16.54778
2308.707, 16.53609
2310.636, 16.28391
2312.564, 16.17309
2314.493, 16.33374
2316.421, 16.40570
2318.350, 16.37908
2320.278, 16.21896
2322.207, 16.23888
2324.135, 16.54853
2326.063, 16.60569
2327.992, 16.29983
2329.920, 16.20912
2331.849, 16.13889
2333.777, 15.88310
2335.706, 15.85162
2337.634, 16.00928
2339.563, 15.87799
2341.491, 15.85561
2343.420, 16.01744
2345.348, 15.80988
2347.277, 15.59815
2349.205, 15.67234
2351.134, 15.65819
2353.062, 15.43930
2354.990, 15.22555
2356.919, 15.08167
2358.847, 15.14577
2360.776, 15.44386
2362.704, 15.66727
2364.633, 15.74376
2366.561, 15.50406
2368.490, 15.55957
2370.418, 15.60938
2372.347, 15.17287
2374.275, 14.88196
2376.204, 15.11094
2378.132, 15.25744
2380.061, 15.23393
2381.989, 14.97241
2383.917, 15.04828
2385.846, 15.34897
2387.774, 15.28916
2389.703, 15.15781
2391.631, 14.85354
2393.560, 14.73833
2395.488, 14.69217
2397.417, 14.53497
2399.345, 14.60386
2401.274, 14.69002
2403.202, 14.59982
2405.131, 14.54012
2407.059, 14.49515
2408.988, 14.55220
2410.916, 14.65721
2412.844, 14.63294
2414.773, 14.50328
2416.701, 14.50307
2418.630, 14.67630
2420.558, 14.34682
2422.487, 13.97352
2424.415, 13.97860
2426.344, 14.16658
2428.272, 14.40447
2430.201, 14.15044
2432.129, 13.92564
2434.058, 13.72763
2435.986, 13.81018
2437.915, 13.93905
2439.843, 13.62658
2441.771, 13.39932
2443.700, 13.56552
2445.628, 13.93455
2447.557, 13.72350
2449.485, 13.47167
2451.414, 13.76248
2453.342, 13.62759
2455.271, 13.27462
2457.199, 13.07736
2459.128, 13.24116
2461.056, 13.65638
2462.985, 13.47516
2464.913, 13.42559
2466.842, 13.51483
2468.770, 13.09341
2470.698, 12.96190
2472.627, 12.97578
2474.555, 12.76790
2476.484, 12.89394
2478.412, 13.08066
2480.341, 12.82115
2482.269, 12.73534
2484.198, 12.87808
2486.126, 13.10931
2488.055, 13.17495
2489.983, 12.78377
2491.912, 12.67642
2493.840, 12.83612
2495.769, 12.73599
2497.697, 12.70538
2499.625, 12.83880
2501.554, 12.71622
2503.482, 12.51858
2505.411, 12.43746
2507.339, 12.51187
2509.268, 12.67202
2511.196, 12.80055
2513.125, 12.66522
2515.053, 12.46510
2516.982, 12.13363
2518.910, 12.42274
2520.839, 12.67471
2522.767, 12.50843
2524.696, 12.56378
2526.624, 12.53452
2528.552, 12.29772
2530.481, 12.14961
2532.409, 12.13714
2534.338, 12.37107
2536.266, 12.38590
2538.195, 12.26959
2540.123, 12.23179
2542.052, 12.03750
2543.980, 11.82812
2545.909, 12.02350
2547.837, 11.96711
2549.766, 11.78750
2551.694, 12.06243
2553.623, 12.15042
2555.551, 11.90269
2557.479, 11.93963
2559.408, 11.95525
2561.336, 11.72933
2563.265, 11.58306
2565.193, 11.70014
2567.122, 11.78293
2569.050, 11.84743
2570.979, 11.80868
2572.907, 11.50662
2574.836, 11.59325
2576.764, 11.59832
2578.693, 11.32690
2580.621, 11.28284
2582.550, 11.31374
2584.478, 11.25986
2586.406, 11.43439
2588.335, 11.60405
2590.263, 11.58594
2592.192, 11.37982
2594.120, 11.21805
2596.049, 11.29536
2597.977, 11.48250
2599.906, 11.33425
2601.834, 11.03745
2603.763, 11.12445
2605.691, 11.02331
2607.620, 10.78264
2609.548, 10.78287
2611.477, 10.77164
2613.405, 10.84617
2615.333, 10.80481
2617.262, 10.73845
2619.190, 10.76308
2621.119, 10.69747
2623.047, 10.58110
2624.976, 10.53677
2626.904, 10.62689
2628.833, 10.66938
2630.761, 10.63313
2632.690, 10.30875
2634.618, 10.12059
2636.547, 10.13889
2638.475, 10.29454
2640.404, 10.32816
2642.332, 10.19882
2644.260, 10.20689
2646.189, 10.08470
2648.117, 9.951595
2650.046, 10.06651
2651.974, 10.07716
2653.903, 9.951517
2655.831, 9.754073
2657.760, 9.639426
2659.688, 9.659988
2661.617, 9.891654
2663.545, 9.734982
2665.474, 9.520343
2667.402, 9.654210
2669.331, 9.679770
2671.259, 9.648257
2673.188, 9.491391
2675.116, 9.511996
2677.044, 9.627020
2678.973, 9.431944
2680.901, 9.326131
2682.830, 9.302328
2684.758, 9.159618
2686.687, 9.162088
2688.615, 9.153902
2690.544, 9.081496
2692.472, 9.156882
2694.401, 9.166783
2696.329, 9.090394
2698.258, 9.078960
2700.186, 9.016103
2702.115, 8.859359
2704.043, 8.782232
2705.971, 8.865728
2707.900, 8.949164
2709.828, 8.710524
2711.757, 8.661103
2713.685, 8.800860
2715.614, 8.599508
2717.542, 8.630753
2719.471, 8.856684
2721.399, 8.514837
2723.328, 8.285194
2725.256, 8.433935
2727.185, 8.738999
2729.113, 8.753963
2731.042, 8.654386
2732.970, 8.450377
2734.898, 8.448468
2736.827, 8.556113
2738.755, 8.534801
2740.684, 8.476028
2742.612, 8.320877
2744.541, 8.002234
2746.469, 8.089293
2748.398, 8.191483
2750.326, 8.157484
2752.255, 8.157298
2754.183, 8.131002
2756.112, 8.066639
2758.040, 7.952198
2759.969, 8.035089
2761.897, 7.998868
2763.825, 7.706983
2765.754, 7.439832
2767.682, 7.350481
2769.611, 7.600760
2771.539, 7.810053
2773.468, 7.861178
2775.396, 7.651418
2777.325, 7.514964
2779.253, 7.512400
2781.182, 7.498177
2783.110, 7.359817
2785.039, 7.245696
2786.967, 7.242477
2788.896, 7.338476
2790.824, 7.310738
2792.752, 7.339071
2794.681, 7.616435
2796.609, 7.493478
2798.538, 7.254900
2800.466, 7.037935
2802.395, 7.003070
2804.323, 7.016260
2806.252, 7.001886
2808.180, 6.891608
2810.109, 6.867082
2812.037, 6.934168
2813.966, 6.698604
2815.894, 6.721203
2817.823, 6.840049
2819.751, 6.711696
2821.679, 6.482537
2823.608, 6.334801
2825.536, 6.430482
2827.465, 6.321930
2829.393, 6.344784
2831.322, 6.567079
2833.250, 6.705957
2835.179, 6.513712
2837.107, 6.198070
2839.036, 6.133805
2840.964, 6.269096
2842.893, 6.366884
2844.821, 6.265914
2846.750, 6.257527
2848.678, 6.155723
2850.606, 5.877106
2852.535, 5.963673
2854.463, 5.991449
2856.392, 5.945201
2858.320, 5.906799
2860.249, 5.983683
2862.177, 6.002054
2864.106, 5.720089
2866.034, 5.815455
2867.963, 5.877698
2869.891, 5.700627
2871.820, 5.639118
2873.748, 5.609767
2875.677, 5.556257
2877.605, 5.549558
2879.533, 5.532390
2881.462, 5.567389
2883.390, 5.655616
2885.319, 5.446623
2887.247, 5.285701
2889.176, 5.237314
2891.104, 5.247442
2893.033, 5.273182
2894.961, 5.243459
2896.890, 5.127684
2898.818, 5.250982
2900.747, 5.304885
2902.675, 5.219234
2904.604, 5.080743
2906.532, 5.047404
2908.460, 5.000691
2910.389, 4.754721
2912.317, 4.614691
2914.246, 4.614823
2916.174, 4.813781
2918.103, 5.021714
2920.031, 4.949997
2921.960, 4.733010
2923.888, 4.918516
2925.817, 4.810252
2927.745, 4.508041
2929.674, 4.233579
2931.602, 4.350832
2933.531, 4.495404
2935.459, 4.496602
2937.387, 4.677052
2939.316, 4.681757
2941.244, 4.629883
2943.173, 4.723306
2945.101, 4.779762
2947.030, 4.694016
2948.958, 4.468283
2950.887, 4.143012
2952.815, 5.127030
2954.744, 6.026747
2956.672, 5.668550
2958.601, 4.845202
2960.529, 4.387227
2962.458, 4.253972
2964.386, 4.218159
2966.314, 4.121148
2968.243, 4.066926
2970.171, 4.207709
2972.100, 4.163835
2974.028, 4.015391
2975.957, 3.847492
2977.885, 3.960079
2979.814, 3.867805
2981.742, 3.717294
2983.671, 3.702881
2985.599, 3.649322
2987.528, 3.654984
2989.456, 3.662042
2991.385, 3.611612
2993.313, 3.611494
2995.241, 3.727027
2997.170, 3.889849
2999.098, 3.559819
3001.027, 3.502656
3002.955, 3.669314
3004.884, 3.639821
3006.812, 3.374207
3008.741, 3.311846
3010.669, 3.556985
3012.598, 3.612435
3014.526, 3.696400
3016.455, 3.687191
3018.383, 3.349750
3020.312, 3.473704
3022.240, 3.464413
3024.168, 3.272492
3026.097, 3.468132
3028.025, 3.469972
3029.954, 3.459632
3031.882, 3.493595
3033.811, 3.270791
3035.739, 3.206264
3037.668, 3.247509
3039.596, 3.192497
3041.525, 3.082821
3043.453, 3.047477
3045.382, 3.027380
3047.310, 3.022973
3049.239, 2.966676
3051.167, 2.931575
3053.095, 2.913394
3055.024, 2.839288
3056.952, 2.853401
3058.881, 2.846930
3060.809, 2.718715
3062.738, 2.534245
3064.666, 3.359582
3066.595, 4.191670
3068.523, 4.048056
3070.452, 3.425304
3072.380, 3.159762
3074.309, 3.137388
3076.237, 2.653327
3078.166, 2.492437
3080.094, 2.591416
3082.022, 2.742881
3083.951, 2.537102
3085.879, 2.404186
3087.808, 2.383760
3089.736, 2.654661
3091.665, 2.443178
3093.593, 2.410247
3095.522, 2.664372
3097.450, 2.655139
3099.379, 2.718917
3101.307, 2.645903
3103.236, 2.460966
3105.164, 2.735164
3107.093, 2.718983
3109.021, 2.557705
3110.949, 2.378453
3112.878, 2.431012
3114.806, 2.515956
3116.735, 2.564980
3118.663, 2.585292
3120.592, 2.496248
3122.520, 2.478320
3124.449, 2.458265
3126.377, 2.094979
3128.306, 2.139069
3130.234, 2.271767
3132.163, 2.369245
3134.091, 2.228439
3136.020, 2.352338
3137.948, 2.399480
3139.876, 2.351121
3141.805, 2.397707
3143.733, 2.366916
3145.662, 2.399545
3147.590, 2.465930
3149.519, 2.271197
3151.447, 2.317406
3153.376, 2.384961
3155.304, 2.407815
3157.233, 2.386899
3159.161, 2.121215
3161.090, 1.868828
3163.018, 1.855357
3164.947, 2.198803
3166.875, 2.313285
3168.803, 2.023157
3170.732, 1.598377
3172.660, 2.103515
3174.589, 2.171683
3176.517, 2.124137
3178.446, 2.274795
3180.374, 2.169076
3182.303, 1.940446
3184.231, 1.915791
3186.160, 2.164647
3188.088, 2.120582
3190.017, 2.219018
3191.945, 2.236697
3193.874, 1.838784
3195.802, 1.936382
3197.730, 1.891854
3199.659, 1.914316
3201.587, 2.178066
3203.516, 2.029783
3205.444, 2.001047
3207.373, 2.014344
3209.301, 1.950061
3211.230, 1.939851
3213.158, 2.037187
3215.087, 2.178874
3217.015, 2.368197
3218.944, 2.248864
3220.872, 2.000987
3222.801, 1.963933
3224.729, 2.096547
3226.657, 1.910572
3228.586, 1.996058
3230.514, 1.938457
3232.443, 1.677809
3234.371, 2.006956
3236.300, 2.158142
3238.228, 2.081462
3240.157, 1.962834
3242.085, 1.874917
3244.014, 2.027024
3245.942, 2.174258
3247.871, 2.256776
3249.799, 2.244156
3251.728, 2.101182
3253.656, 1.992729
3255.584, 1.978813
3257.513, 2.050586
3259.441, 2.057522
3261.370, 2.122805
3263.298, 2.135455
3265.227, 2.106797
3267.155, 2.206463
3269.084, 1.968863
3271.012, 1.711648
3272.941, 1.725011
3274.869, 1.792106
3276.798, 2.018168
3278.726, 2.038171
3280.655, 1.739847
3282.583, 1.655304
3284.511, 1.692807
3286.440, 1.854154
3288.368, 1.989599
3290.297, 1.783579
3292.225, 1.863496
3294.154, 1.773585
3296.082, 1.705778
3298.011, 1.855296
3299.939, 1.656775
3301.868, 1.510020
3303.796, 1.709015
3305.725, 2.134653
3307.653, 2.113066
3309.582, 1.959350
3311.510, 1.867784
3313.438, 1.846970
3315.367, 1.795337
3317.295, 1.945790
3319.224, 1.784508
3321.152, 1.643191
3323.081, 2.044526
3325.009, 2.118037
3326.938, 1.755952
3328.866, 1.680284
3330.795, 2.058340
3332.723, 1.914783
3334.652, 1.831146
3336.580, 1.676519
3338.509, 1.516634
3340.437, 1.630414
3342.365, 1.472014
3344.294, 1.577771
3346.222, 1.753674
3348.151, 1.763258
3350.079, 1.619381
3352.008, 1.672092
3353.936, 1.593321
3355.865, 1.476302
3357.793, 1.598019
3359.722, 1.503223
3361.650, 1.488643
3363.579, 1.454362
3365.507, 1.351104
3367.436, 1.845517
3369.364, 1.741667
3371.292, 1.539444
3373.221, 1.468441
3375.149, 1.438204
3377.078, 1.396352
3379.006, 1.381845
3380.935, 1.411515
3382.863, 1.499565
3384.792, 1.471472
3386.720, 1.326852
3388.649, 1.355686
3390.577, 1.461073
3392.506, 1.364880
3394.434, 1.052570
3396.363, 1.008407
3398.291, 1.129878
3400.219, 1.277030
3402.148, 1.451302
3404.076, 1.297189
3406.005, 1.364465
3407.933, 1.415020
3409.862, 1.152066
3411.790, 1.226272
3413.719, 1.366300
3415.647, 1.274288
3417.576, 1.121006
3419.504, 1.274679
3421.433, 1.118960
3423.361, 1.119737
3425.290, 1.203067
3427.218, 1.229576
3429.146, 1.118923
3431.075, 1.081311
3433.003, 1.003259
3434.932, 0.9454502
3436.860, 0.9810823
3438.789, 1.036513
3440.717, 1.170168
3442.646, 1.204855
3444.574, 1.134215
3446.503, 1.040879
3448.431, 0.9995860
3450.360, 1.265156
3452.288, 1.208138
3454.217, 0.9652216
3456.145, 1.061088
3458.073, 1.160236
3460.002, 1.258203
3461.930, 1.248389
3463.859, 1.082370
3465.787, 0.7958916
3467.716, 1.028239
3469.644, 0.9405080
3471.573, 1.001977
3473.501, 1.243986
3475.430, 1.152986
3477.358, 1.262115
3479.287, 1.070056
3481.215, 0.9213698
3483.144, 0.9256655
3485.072, 0.8220529
3487.000, 1.038983
3488.929, 0.9890859
3490.857, 0.8380222
3492.786, 0.8020820
3494.714, 0.9307472
3496.643, 0.8941604
3498.571, 0.8403751
3500.500, 0.9995095
3502.428, 1.182383
3504.357, 0.7726301
3506.285, 0.5364138
3508.214, 0.7814807
3510.142, 1.045575
3512.071, 1.054902
3513.999, 0.8603411
3515.927, 0.6930928
3517.856, 1.001377
3519.784, 0.9809505
3521.713, 0.6499555
3523.641, 0.7459536
3525.570, 0.7303777
3527.498, 0.6750110
3529.427, 0.7438238
3531.355, 0.8117630
3533.284, 0.6830305
3535.212, 0.6855369
3537.141, 0.8158594
3539.069, 0.8253986
3540.998, 0.7103478
3542.926, 0.6197944
3544.854, 0.8134526
3546.783, 0.4984309
3548.711, 0.5140792
3550.640, 0.7045685
3552.568, 0.7707946
3554.497, 0.8493889
3556.425, 0.7720897
3558.354, 0.7480239
3560.282, 0.7036701
3562.211, 0.6772081
3564.139, 0.8521012
3566.068, 0.8253080
3567.996, 0.7229799
3569.925, 0.7074012
3571.853, 0.7096036
3573.781, 0.6144588
3575.710, 0.6021605
3577.638, 0.6767279
3579.567, 0.6161248
3581.495, 0.7493194
3583.424, 0.9958329
3585.352, 0.5057262
3587.281, 0.2066976
3589.209, 0.7070090
3591.138, 0.8134470
3593.066, 0.5691076
3594.995, 0.7893369
3596.923, 0.9598936
3598.852, 0.8372244
3600.780, 0.7683069
3602.708, 0.7216386
3604.637, 0.6845145
3606.565, 0.8809968
3608.494, 0.8759704
3610.422, 0.6324279
3612.351, 0.5180805
3614.279, 0.5116148
3616.208, 0.4481167
3618.136, 0.5696465
3620.065, 0.9055315
3621.993, 0.7764226
3623.922, 0.5272990
3625.850, 0.4876257
3627.779, 0.6090311
3629.707, 0.9145259
3631.635, 0.6867831
3633.564, 0.5185825
3635.492, 0.5594510
3637.421, 0.6440240
3639.349, 0.6130372
3641.278, 0.7598848
3643.206, 0.7286710
3645.135, 0.5269197
3647.063, 0.4536178
3648.992, 0.6388528
3650.920, 0.4790533
3652.849, 0.5128801
3654.777, 0.5838646
3656.706, 0.5263887
3658.634, 0.4939939
3660.563, 0.7009935
3662.491, 1.008404
3664.419, 0.3531895
3666.348, 0.5051792
3668.276, 0.6954094
3670.205, 0.5503744
3672.133, 0.5461738
3674.062, 0.6204730
3675.990, 0.5878214
3677.919, 0.6267110
3679.847, 0.6434300
3681.776, 0.6223662
3683.704, 0.6103476
3685.633, 0.1912337
3687.561, 0.5282017
3689.490, 0.4367935
3691.418, 0.4073807
3693.346, 0.5937805
3695.275, 0.5880408
3697.203, 0.5094344
3699.132, 0.5979511
3701.060, 0.8152450
3702.989, 0.7244328
3704.917, 0.5479238
3706.846, 0.6690376
3708.774, 0.5881137
3710.703, 0.4069795
3712.631, 0.5953467
3714.560, 0.7388656
3716.488, 0.6264625
3718.417, 0.4145169
3720.345, 0.4421040
3722.273, 0.4731636
3724.202, 0.5628207
3726.130, 0.4936353
3728.059, 0.4204921
3729.987, 0.4498782
3731.916, 0.4497042
3733.844, 0.4784885
3735.773, 0.5700262
3737.701, 0.4789756
3739.630, 0.4182797
3741.558, 0.5122623
3743.487, 0.6783165
3745.415, 0.7675682
3747.344, 0.5844020
3749.272, 0.1632957
3751.200, 0.3445410
3753.129, 0.6387567
3755.057, 0.5735866
3756.986, 0.5091878
3758.914, 0.3643298
3760.843, 0.3800623
3762.771, 0.5578719
3764.700, 0.3990421
3766.628, 0.2004233
3768.557, 0.4364037
3770.485, 0.6536912
3772.414, 0.1410928
3774.342, 0.2460623
3776.271, 0.2230677
3778.199, 0.2425354
3780.127, 0.4296130
3782.056, 0.5113438
3783.984, 0.7166964
3785.913, 0.7579451
3787.841, 0.7758253
3789.770, 0.5342098
3791.698, 0.4163344
3793.627, 0.5455045
3795.555, 0.4981185
3797.484, 0.2841064
3799.412, 0.4655783
3801.341, 0.3067727
3803.269, 0.3053149
3805.198, 0.3848115
3807.126, 0.3321206
3809.054, 0.2549306
3810.983, 0.2341819
3812.911, 0.3551862
3814.840, 0.4191873
3816.768, 0.6102422
3818.697, 0.6391591
3820.625, 0.3749400
3822.554, 0.1507082
3824.482, 0.4553193
3826.411, 0.3703944
3828.339, 5.2596770E-02
3830.268, 0.2128444
3832.196, 0.4737587
3834.125, 0.4415124
3836.053, 0.2685556
3837.981, 0.4116133
3839.910, 0.2513652
3841.838, 2.6724420E-02
3843.767, 0.3422565
3845.695, 0.4505596
3847.624, 0.3498084
3849.552, 0.4604764
3851.481, 0.5060285
3853.409, 0.4118791
3855.338, 0.8339269
3857.266, 0.5888857
3859.195, 0.2505914
3861.123, 0.3749347
3863.052, 0.7201719
3864.980, 0.7559373
3866.908, 0.5937027
3868.837, 0.5660390
3870.765, 0.6475299
3872.694, 0.6425273
3874.622, 0.6036671
3876.551, 0.6676055
3878.479, 0.7183985
3880.408, 0.5135195
3882.336, 0.6040664
3884.265, 0.3121356
3886.193, 0.4253613
3888.122, 0.6223485
3890.050, 0.7195500
3891.979, 0.6317011
3893.907, 0.3946634
3895.835, 0.2647454
3897.764, 0.6772841
3899.692, 0.2413719
3901.621, 0.4520836
3903.549, 0.3017661
3905.478, 9.8215699E-02
3907.406, 0.2829186
3909.335, 0.5425588
3911.263, 0.3892742
3913.192, 0.5729380
3915.120, 0.6180465
3917.049, 0.5214618
3918.977, 0.4532798
3920.906, 0.6473601
3922.834, 0.6359594
3924.762, 0.3593759
3926.691, 0.4036379
3928.619, 0.6348375
3930.548, 0.3493845
3932.476, 0.5211401
3934.405, 0.6823884
3936.333, 0.6776573
3938.262, 0.5765659
3940.190, 0.4335108
3942.119, 0.3424460
3944.047, 0.4552793
3945.976, 0.3714097
3947.904, 0.4387309
3949.833, 0.3929254
3951.761, 0.5125333
3953.689, 0.5207708
3955.618, 0.3399392
3957.546, 0.3337611
3959.475, 0.6194667
3961.403, 0.5492400
3963.332, 0.3833880
3965.260, 0.4385850
3967.189, 0.4347973
3969.117, 0.3870277
3971.046, 0.2264559
3972.974, 0.3539862
3974.903, 0.4168335
3976.831, 0.2735001
3978.760, 0.4115366
3980.688, 0.2748342
3982.616, 0.4819785
3984.545, 0.7124622
3986.473, 0.4410884
3988.402, 0.2341336
3990.330, 0.1216561
3992.259, 8.3675638E-02
3994.187, 8.3448179E-02
3996.116, 1.4349280E-02
3998.044, -9.1699474E-02
3999.973, 0.2307543
4001.901, 0.1044931
4003.830, 0.1932064
4005.758, 0.1033266
4007.687, 0.2467746
4009.615, 0.2397966
4011.543, 8.8240907E-02
4013.472, 0.1458212
4015.400, 0.2566367
4017.329, 0.2229668
4019.257, 0.1419342
4021.186, 0.1246908
4023.114, 0.1838333
4025.043, -1.6477210E-02
4026.971, 0.2581004
4028.900, 0.3498497
4030.828, 0.1303965
4032.757, 0.3606797
4034.685, 0.4695590
4036.614, 0.1361741
4038.542, -4.5100410E-02
4040.470, -0.2209593
4042.399, 1.4806280E-03
4044.327, 0.1778113
4046.256, 0.2022462
4048.184, 0.2625416
4050.113, 0.3526917
4052.041, 0.2721123
4053.970, 6.7196861E-02
4055.898, 0.2636379
4057.827, -4.1697439E-02
4059.755, -1.2975670E-03
4061.684, 0.1318952
4063.612, 0.1535641
4065.541, 0.3034226
4067.469, 0.2125303
4069.397, -8.9741267E-02
4071.326, -6.9389768E-02
4073.254, 0.1932338
4075.183, 4.5780670E-02
4077.111, 0.1997315
4079.040, 0.1700080
4080.968, 0.2953359
4082.897, 0.1743862
4084.825, 1.6679561E-02
4086.754, 7.9599902E-02
4088.682, 0.1789042
4090.611, 0.1552813
4092.539, 0.1539599
4094.468, 0.2590938
4096.396, 0.1393920
4098.324, 0.1315058
4100.253, 0.1531401
4102.181, -7.9225011E-02
4104.110, 0.2318925
4106.038, 0.1913889
4107.967, 0.2938579
4109.895, 0.2661823
4111.824, 0.1294492
4113.752, 0.1313401
4115.681, -3.4726810E-02
4117.609, 0.1221576
4119.538, 0.1277503
4121.466, 0.3142692
4123.395, 1.8421100E-02
4125.323, 3.0307610E-02
4127.251, -3.5281520E-02
4129.180, 6.6867620E-02
4131.108, 6.9791533E-02
4133.037, 0.1396698
4134.965, 0.1181634
4136.894, 2.5654780E-02
4138.822, 0.2942845
4140.750, 0.2321107
4142.679, 0.2289554
4144.607, -8.0778010E-02
4146.536, 0.2605203
4148.464, 0.1159175
4150.393, 0.2692374
4152.321, 0.1988219
4154.250, -4.8357230E-02
4156.178, -7.1959063E-02
4158.107, -2.4542890E-02
4160.035, 5.3531010E-02
4161.964, 0.3417372
4163.892, 0.4777982
4165.821, 0.1003835
4167.749, 0.1624625
4169.678, 0.4169294
4171.606, 0.4535035
4173.535, 0.4084328
4175.463, 0.1060981
4177.392, 0.1918097
4179.320, 0.2624304
4181.249, 0.2960306
4183.177, 0.3166317
4185.105, 0.2061042
4187.034, 1.2356940E-03
4188.962, -0.1437249
4190.891, -0.1831257
4192.819, -0.1319393
4194.748, 0.2032728
4196.676, 0.2285164
4198.604, 0.1427502
4200.533, 0.1624394
4202.461, 0.2951600
4204.390, -9.3023673E-02
4206.318, 7.8124493E-02
4208.247, 0.2456805
4210.175, 0.1348439
4212.104, 5.6003630E-03
4214.032, 0.2316326
4215.961, 0.1919062
4217.889, -0.1687596
4219.818, 0.1269306
4221.746, -0.1100010
4223.675, 0.1197913
4225.603, 0.2538956
4227.532, 0.4938911
4229.460, 0.2325379
4231.389, 0.1620864
4233.317, -3.2639969E-02
4235.246, 0.1664888
4237.174, 0.1147242
4239.103, 7.8223357E-03
4241.031, 1.0008260E-02
4242.959, 0.2871776
4244.888, 0.2286692
4246.816, -5.7079859E-02
4248.745, -1.9935461E-02
4250.673, 0.1166149
4252.602, 0.2381043
4254.530, 0.2133917
4256.458, -8.2075968E-02
4258.387, -0.3110518
4260.315, -0.2180636
4262.244, 0.2172990
4264.172, 0.2815975
4266.101, 0.2003956
4268.029, 0.1969004
4269.958, 5.9487302E-02
4271.886, 0.2251499
4273.815, 0.1102753
4275.743, 0.1485255
4277.672, 0.1927561
4279.600, 0.4085821
4281.529, 0.4248379
4283.457, 0.2173516
4285.386, 0.1805483
4287.314, 0.1108701
4289.243, -2.4935219E-02
4291.171, 1.0307730E-02
4293.100, 0.3089968
4295.028, -9.2811830E-02
4296.957, 0.3340878
4298.885, 0.1508885
4300.813, 0.2682464
4302.742, 0.1679023
4304.670, 0.5423231
4306.599, 5.5265479E-02
4308.527, 8.0556609E-02
4310.456, 0.2342268
4312.384, 0.3458070
4314.313, 5.3197719E-02
4316.241, 0.3536162
4318.169, 0.2797126
4320.098, 0.2347445
4322.026, 0.2183824
4323.955, -7.2385833E-02
4325.883, -1.7482881E-02
4327.812, 0.1904684
4329.740, 0.3030286
4331.669, 0.3309086
4333.597, 0.1375135
4335.526, 0.2959414
4337.454, 9.3082339E-02
4339.383, 0.4204912
4341.311, 0.4105856
4343.240, 9.7316504E-02
4345.168, 0.2371619
4347.097, -0.1660395
4349.025, -1.5954411E-02
4350.954, 5.3007072E-03
4352.882, -9.8883256E-02
4354.811, 9.3310371E-02
4356.739, 0.2551583
4358.667, 0.2794515
4360.596, 0.2938969
4362.524, 0.1750131
4364.453, 0.1030103
4366.381, 0.4299378
4368.310, 9.7950362E-02
4370.238, 4.5445330E-02
4372.167, 0.3605552
4374.095, -1.8952509E-02
4376.023, -0.2502678
4377.952, -3.4559630E-02
4379.880, -0.2936966
4381.809, -0.1965919
##END=



