##NAMES=Carnotite
##RRUFFID=R070345
##IDEAL CHEMISTRY=K_2_(UO_2_)_2_(VO_4_)_2_·3H_2_O
##LOCALITY=Pick's Delta mine, Delta, Emery County, Utah, USA
##OWNER=RRUFF
##SOURCE=Michael Scott
##DESCRIPTION=Lemon-yellow fine-grained massive
##STATUS=The identification of this mineral has been made only by X-ray diffraction
##URL=https://www.rruff.net/odr/rruff_sample/R070345
##DIFFRACTION SAMPLE DESCRIPTION=Powder
##FILETYPE=Raman RAW
##RAMAN WAVELENGTH=785

162.8289, 2073.001
164.7573, 2157.823
166.6858, 2232.553
168.6143, 2296.150
170.5427, 2351.973
172.4712, 2393.549
174.3997, 2433.752
176.3281, 2479.991
178.2566, 2531.204
180.1851, 2587.405
182.1135, 2654.471
184.0420, 2716.255
185.9705, 2768.319
187.8989, 2820.842
189.8274, 2886.323
191.7559, 2942.726
193.6843, 2963.723
195.6128, 2958.906
197.5413, 2982.931
199.4697, 3046.581
201.3982, 3092.300
203.3267, 3105.566
205.2551, 3116.338
207.1836, 3140.433
209.1121, 3167.769
211.0405, 3187.526
212.9690, 3202.192
214.8975, 3224.525
216.8259, 3255.106
218.7544, 3289.472
220.6829, 3325.631
222.6113, 3359.123
224.5398, 3390.851
226.4683, 3421.905
228.3967, 3452.629
230.3252, 3482.312
232.2537, 3507.720
234.1821, 3525.884
236.1106, 3549.998
238.0391, 3598.556
239.9675, 3635.275
241.8960, 3637.671
243.8245, 3631.250
245.7529, 3640.980
247.6814, 3664.992
249.6099, 3693.320
251.5383, 3725.422
253.4668, 3745.727
255.3953, 3745.706
257.3237, 3741.938
259.2522, 3739.752
261.1807, 3731.474
263.1091, 3705.615
265.0376, 3673.811
266.9661, 3655.631
268.8945, 3654.489
270.8230, 3639.922
272.7515, 3594.657
274.6799, 3568.194
276.6084, 3579.438
278.5369, 3592.288
280.4653, 3575.190
282.3938, 3558.787
284.3223, 3583.313
286.2507, 3642.664
288.1792, 3682.602
290.1077, 3697.565
292.0361, 3749.608
293.9646, 3852.905
295.8931, 3965.313
297.8215, 4074.978
299.7500, 4183.258
301.6785, 4298.287
303.6069, 4409.355
305.5354, 4491.093
307.4639, 4543.764
309.3923, 4575.604
311.3208, 4581.363
313.2493, 4557.597
315.1777, 4496.657
317.1062, 4424.336
319.0347, 4340.367
320.9631, 4257.002
322.8916, 4185.512
324.8201, 4131.038
326.7485, 4085.576
328.6770, 4046.493
330.6055, 4018.644
332.5340, 3994.199
334.4624, 4002.497
336.3909, 4048.133
338.3194, 4126.780
340.2478, 4246.652
342.1763, 4388.580
344.1048, 4526.673
346.0332, 4669.982
347.9617, 4852.595
349.8902, 5083.239
351.8186, 5324.318
353.7471, 5572.112
355.6756, 5834.346
357.6040, 6138.315
359.5325, 6427.349
361.4610, 6660.155
363.3894, 6858.718
365.3179, 7065.470
367.2464, 7268.573
369.1748, 7399.194
371.1033, 7450.322
373.0318, 7440.193
374.9602, 7357.607
376.8887, 7226.070
378.8172, 7045.730
380.7456, 6833.313
382.6741, 6582.354
384.6026, 6314.778
386.5310, 6032.612
388.4595, 5744.407
390.3880, 5486.331
392.3164, 5259.817
394.2449, 5050.926
396.1734, 4855.898
398.1018, 4683.256
400.0303, 4539.577
401.9588, 4418.515
403.8872, 4318.775
405.8157, 4230.167
407.7442, 4156.338
409.6726, 4091.615
411.6011, 4021.673
413.5296, 3945.385
415.4580, 3862.379
417.3865, 3772.063
419.3150, 3686.336
421.2434, 3616.426
423.1719, 3533.781
425.1004, 3416.751
427.0288, 3305.699
428.9573, 3223.170
430.8858, 3156.628
432.8142, 3093.691
434.7427, 3035.376
436.6712, 2981.508
438.5996, 2931.821
440.5281, 2898.989
442.4566, 2887.747
444.3850, 2886.746
446.3135, 2892.908
448.2420, 2912.089
450.1704, 2954.910
452.0989, 3001.199
454.0274, 3032.659
455.9558, 3064.323
457.8843, 3116.911
459.8128, 3184.497
461.7412, 3243.344
463.6697, 3293.570
465.5982, 3340.561
467.5266, 3387.694
469.4551, 3421.650
471.3836, 3439.939
473.3120, 3446.656
475.2405, 3444.463
477.1690, 3430.000
479.0974, 3397.018
481.0259, 3353.105
482.9544, 3310.164
484.8828, 3268.628
486.8113, 3219.550
488.7398, 3159.908
490.6682, 3103.458
492.5967, 3049.956
494.5252, 3011.065
496.4536, 2990.383
498.3821, 2979.587
500.3106, 2975.006
502.2390, 2980.126
504.1675, 2997.704
506.0960, 3028.794
508.0244, 3071.254
509.9529, 3122.800
511.8814, 3181.417
513.8098, 3248.408
515.7383, 3334.249
517.6667, 3439.372
519.5952, 3537.610
521.5237, 3624.375
523.4521, 3706.635
525.3806, 3794.430
527.3091, 3867.676
529.2375, 3921.879
531.1660, 3957.979
533.0945, 3980.527
535.0229, 3975.720
536.9514, 3923.002
538.8799, 3850.462
540.8083, 3790.669
542.7368, 3731.893
544.6653, 3650.350
546.5938, 3546.410
548.5222, 3443.712
550.4507, 3336.634
552.3792, 3246.514
554.3076, 3179.368
556.2361, 3135.331
558.1646, 3120.009
560.0930, 3095.328
562.0215, 3032.543
563.9500, 2979.971
565.8784, 2975.472
567.8069, 2984.422
569.7354, 2982.357
571.6638, 2972.802
573.5923, 2958.630
575.5208, 2942.415
577.4493, 2922.160
579.3777, 2896.063
581.3062, 2863.747
583.2347, 2822.961
585.1631, 2777.615
587.0916, 2732.062
589.0201, 2684.882
590.9485, 2629.147
592.8770, 2576.901
594.8055, 2542.751
596.7339, 2503.029
598.6624, 2444.031
600.5909, 2379.170
602.5193, 2315.151
604.4478, 2260.909
606.3763, 2228.941
608.3047, 2210.340
610.2332, 2182.317
612.1617, 2150.195
614.0901, 2125.219
616.0186, 2099.487
617.9471, 2074.329
619.8755, 2061.777
621.8040, 2075.183
623.7325, 2112.394
625.6609, 2136.165
627.5894, 2146.330
629.5179, 2163.676
631.4464, 2185.194
633.3748, 2211.477
635.3033, 2257.541
637.2318, 2308.194
639.1602, 2345.284
641.0887, 2375.875
643.0172, 2405.228
644.9456, 2438.399
646.8741, 2473.972
648.8026, 2499.885
650.7310, 2512.125
652.6595, 2522.044
654.5880, 2526.344
656.5164, 2513.806
658.4449, 2496.586
660.3734, 2478.899
662.3018, 2444.928
664.2303, 2396.003
666.1588, 2347.441
668.0872, 2303.491
670.0157, 2268.440
671.9442, 2244.069
673.8726, 2227.386
675.8011, 2212.290
677.7296, 2189.552
679.6580, 2165.528
681.5865, 2155.200
683.5150, 2159.392
685.4434, 2173.539
687.3719, 2195.586
689.3004, 2222.248
691.2288, 2247.985
693.1573, 2276.487
695.0858, 2322.802
697.0142, 2390.310
698.9427, 2469.047
700.8712, 2559.922
702.7996, 2673.901
704.7281, 2807.036
706.6566, 2946.021
708.5850, 3087.870
710.5135, 3258.238
712.4420, 3452.626
714.3704, 3682.534
716.2989, 3953.462
718.2274, 4248.061
720.1558, 4580.786
722.0843, 4956.971
724.0128, 5345.133
725.9412, 5727.714
727.8697, 6126.682
729.7982, 6548.417
731.7266, 6988.936
733.6551, 7413.538
735.5836, 7788.199
737.5120, 8080.880
739.4405, 8301.946
741.3690, 8478.400
743.2974, 8577.012
745.2259, 8529.993
747.1544, 8369.870
749.0828, 8202.990
751.0113, 8009.149
752.9398, 7726.946
754.8682, 7390.381
756.7967, 7033.855
758.7252, 6627.164
760.6536, 6209.593
762.5821, 5808.804
764.5106, 5422.874
766.4390, 5053.548
768.3675, 4703.014
770.2960, 4370.326
772.2244, 4066.000
774.1529, 3801.362
776.0814, 3564.992
778.0098, 3358.724
779.9383, 3165.132
781.8668, 2985.127
783.7952, 2839.036
785.7237, 2704.256
787.6522, 2574.221
789.5806, 2464.500
791.5091, 2383.963
793.4376, 2327.988
795.3660, 2273.966
797.2945, 2209.637
799.2230, 2156.509
801.1514, 2125.878
803.0799, 2104.095
805.0084, 2094.561
806.9368, 2106.754
808.8653, 2115.159
810.7938, 2113.047
812.7222, 2134.931
814.6507, 2185.575
816.5792, 2231.463
818.5076, 2269.030
820.4361, 2296.741
822.3646, 2310.588
824.2930, 2322.522
826.2215, 2339.932
828.1500, 2344.420
830.0784, 2329.998
832.0069, 2298.151
833.9354, 2245.797
835.8638, 2182.225
837.7923, 2107.347
839.7208, 2030.164
841.6492, 1953.353
843.5777, 1891.596
845.5062, 1858.102
847.4346, 1823.304
849.3631, 1763.546
851.2916, 1697.798
853.2200, 1648.459
855.1485, 1608.875
857.0770, 1568.570
859.0054, 1524.718
860.9339, 1475.707
862.8624, 1431.187
864.7908, 1400.349
866.7193, 1370.774
868.6478, 1332.701
870.5762, 1292.086
872.5047, 1254.276
874.4332, 1224.164
876.3616, 1205.136
878.2901, 1190.811
880.2186, 1172.031
882.1470, 1150.620
884.0755, 1133.134
886.0040, 1118.694
887.9324, 1103.594
889.8609, 1089.110
891.7894, 1071.577
893.7178, 1050.850
895.6463, 1043.506
897.5748, 1047.689
899.5032, 1042.038
901.4317, 1028.125
903.3602, 1019.641
905.2886, 1017.392
907.2171, 1020.143
909.1456, 1026.900
911.0740, 1025.357
913.0025, 1014.429
914.9310, 1013.257
916.8594, 1024.001
918.7879, 1029.209
920.7164, 1027.044
922.6448, 1023.811
924.5733, 1019.890
926.5018, 1027.647
928.4302, 1048.117
930.3587, 1064.889
932.2872, 1076.913
934.2156, 1095.791
936.1441, 1121.429
938.0726, 1152.273
940.0010, 1189.824
941.9295, 1226.474
943.8580, 1259.848
945.7864, 1300.894
947.7149, 1351.358
949.6434, 1403.583
951.5718, 1458.246
953.5003, 1512.046
955.4288, 1564.568
957.3572, 1616.343
959.2857, 1663.262
961.2142, 1733.162
963.1426, 1835.503
965.0711, 1914.529
966.9996, 1971.092
968.9280, 1975.373
970.8565, 1928.418
972.7850, 1872.643
974.7134, 1804.374
976.6419, 1734.201
978.5704, 1661.571
980.4988, 1594.008
982.4273, 1532.216
984.3558, 1453.732
986.2842, 1357.089
988.2127, 1270.895
990.1412, 1197.486
992.0696, 1130.078
993.9981, 1066.354
995.9266, 1009.274
997.8550, 962.4627
999.7835, 926.1926
1001.712, 896.1870
1003.640, 868.8069
1005.569, 847.5770
1007.497, 835.8854
1009.426, 830.5911
1011.354, 815.2651
1013.283, 791.3193
1015.211, 776.7607
1017.140, 773.2229
1019.068, 769.1266
1020.997, 759.3682
1022.925, 751.3712
1024.854, 751.4505
1026.782, 754.7937
1028.710, 753.5271
1030.639, 739.6831
1032.567, 721.5353
1034.496, 716.3867
1036.424, 719.7582
1038.353, 727.7089
1040.281, 738.6527
1042.210, 736.8140
1044.138, 724.6105
1046.067, 718.1120
1047.995, 718.6003
1049.924, 719.6979
1051.852, 720.1019
1053.781, 726.8715
1055.709, 735.0369
1057.637, 724.9418
1059.566, 706.6279
1061.494, 708.3587
1063.423, 720.7777
1065.351, 720.3588
1067.280, 712.6456
1069.208, 709.2042
1071.137, 706.9359
1073.065, 706.0402
1074.994, 707.5035
1076.922, 704.8792
1078.851, 702.3181
1080.779, 706.5973
1082.708, 707.9849
1084.636, 700.6944
1086.565, 695.5828
1088.493, 695.2297
1090.422, 694.7233
1092.350, 699.1818
1094.278, 702.9874
1096.207, 698.5670
1098.135, 689.0306
1100.064, 672.5533
1101.992, 666.8887
1103.921, 679.3488
1105.849, 686.9266
1107.778, 689.8052
1109.706, 687.7584
1111.635, 680.1078
1113.563, 675.3431
1115.492, 665.7358
1117.420, 658.5310
1119.349, 660.0934
1121.277, 660.3422
1123.205, 658.5366
1125.134, 662.5833
1127.062, 671.5964
1128.991, 670.2083
1130.919, 657.8446
1132.848, 649.6516
1134.776, 649.1902
1136.705, 652.6266
1138.633, 656.1185
1140.562, 659.8582
1142.490, 664.0137
1144.419, 666.7388
1146.347, 666.5150
1148.276, 665.7057
1150.204, 667.5806
1152.132, 665.5616
1154.061, 660.1279
1155.989, 658.1443
1157.918, 657.6788
1159.846, 656.6924
1161.775, 654.4861
1163.703, 651.4661
1165.632, 648.3320
1167.560, 643.1523
1169.489, 641.2936
1171.417, 640.9084
1173.346, 639.7017
1175.274, 643.7332
1177.203, 644.3277
1179.131, 640.1174
1181.059, 637.0032
1182.988, 632.0467
1184.916, 630.9169
1186.845, 633.4493
1188.773, 631.4900
1190.702, 626.4705
1192.630, 625.8216
1194.559, 630.2889
1196.487, 627.3822
1198.416, 617.6805
1200.344, 620.6304
1202.273, 628.3297
1204.201, 616.9117
1206.130, 603.7859
1208.058, 609.2173
1209.986, 619.6788
1211.915, 630.7053
1213.843, 634.7764
1215.772, 622.0660
1217.700, 612.2935
1219.629, 617.9175
1221.557, 621.9593
1223.486, 613.9896
1225.414, 609.5548
1227.343, 613.2327
1229.271, 616.4149
1231.200, 621.7736
1233.128, 621.7946
1235.057, 610.8300
1236.985, 603.4102
1238.913, 603.6937
1240.842, 602.3522
1242.770, 596.8769
1244.699, 588.0332
1246.627, 581.8225
1248.556, 586.4713
1250.484, 593.2858
1252.413, 593.5183
1254.341, 591.8926
1256.270, 589.5302
1258.198, 588.6357
1260.127, 592.6002
1262.055, 596.0036
1263.984, 599.4270
1265.912, 596.9878
1267.840, 586.2166
1269.769, 584.1752
1271.697, 591.7128
1273.626, 595.3910
1275.554, 595.1379
1277.483, 595.4636
1279.411, 598.1485
1281.340, 609.8163
1283.268, 618.6177
1285.197, 606.3187
1287.125, 591.9336
1289.054, 591.9752
1290.982, 594.3246
1292.911, 590.3604
1294.839, 588.0637
1296.767, 592.6467
1298.696, 592.7709
1300.624, 587.9925
1302.553, 581.8053
1304.481, 572.5925
1306.410, 576.5759
1308.338, 590.6299
1310.267, 595.1089
1312.195, 592.9813
1314.124, 591.9986
1316.052, 592.6994
1317.981, 592.5490
1319.909, 593.3860
1321.838, 601.5800
1323.766, 603.0964
1325.694, 588.5535
1327.623, 573.3334
1329.551, 559.2359
1331.480, 556.4777
1333.408, 567.9042
1335.337, 575.6334
1337.265, 580.1032
1339.194, 582.9449
1341.122, 583.9424
1343.051, 582.2293
1344.979, 578.9905
1346.908, 576.1628
1348.836, 572.9644
1350.765, 566.8947
1352.693, 563.8409
1354.621, 568.6414
1356.550, 567.4714
1358.478, 554.8500
1360.407, 549.9780
1362.335, 555.6241
1364.264, 569.7059
1366.192, 586.3497
1368.121, 567.1903
1370.049, 535.1109
1371.978, 541.0939
1373.906, 558.2292
1375.835, 558.8928
1377.763, 556.5798
1379.692, 558.9755
1381.620, 558.9911
1383.548, 553.4135
1385.477, 553.2274
1387.405, 560.1317
1389.334, 564.7756
1391.262, 565.7557
1393.191, 555.7022
1395.119, 541.7347
1397.048, 540.0004
1398.976, 544.1436
1400.905, 548.5977
1402.833, 553.0313
1404.762, 559.0652
1406.690, 561.5563
1408.619, 559.6718
1410.547, 551.2182
1412.475, 535.6025
1414.404, 534.3685
1416.332, 544.6359
1418.261, 546.0471
1420.189, 543.1557
1422.118, 545.9316
1424.046, 548.6174
1425.975, 545.8639
1427.903, 540.7444
1429.832, 531.8529
1431.760, 526.7053
1433.689, 525.9438
1435.617, 533.2018
1437.546, 547.9136
1439.474, 545.5134
1441.402, 532.8716
1443.331, 532.3430
1445.259, 536.0040
1447.188, 535.8324
1449.116, 533.3270
1451.045, 528.5406
1452.973, 523.3562
1454.902, 514.8485
1456.830, 515.6406
1458.759, 528.6830
1460.687, 525.3442
1462.616, 511.5913
1464.544, 517.2038
1466.473, 528.5092
1468.401, 525.2030
1470.329, 522.0935
1472.258, 533.7258
1474.186, 534.1078
1476.115, 504.8958
1478.043, 501.0303
1479.972, 530.5588
1481.900, 537.0605
1483.829, 526.4191
1485.757, 518.9634
1487.686, 513.3887
1489.614, 506.9670
1491.543, 503.5511
1493.471, 505.6430
1495.400, 510.5124
1497.328, 519.4773
1499.256, 516.5749
1501.185, 501.2234
1503.113, 494.9876
1505.042, 496.2579
1506.970, 505.1160
1508.899, 513.4990
1510.827, 512.4238
1512.756, 509.8439
1514.684, 508.6118
1516.613, 504.9680
1518.541, 498.0570
1520.470, 495.6944
1522.398, 496.8427
1524.327, 494.0278
1526.255, 491.2478
1528.183, 496.8394
1530.112, 501.2442
1532.040, 498.5352
1533.969, 493.9691
1535.897, 488.0709
1537.826, 487.6277
1539.754, 491.7704
1541.683, 488.1708
1543.611, 482.0397
1545.540, 484.4223
1547.468, 487.8354
1549.397, 486.6358
1551.325, 484.1497
1553.254, 481.0905
1555.182, 476.6956
1557.110, 471.4866
1559.039, 472.1490
1560.967, 475.5312
1562.896, 473.7992
1564.824, 472.4886
1566.753, 481.1674
1568.681, 481.6406
1570.610, 463.6180
1572.538, 457.5448
1574.467, 464.3204
1576.395, 470.7094
1578.324, 473.8167
1580.252, 465.7249
1582.181, 458.0247
1584.109, 463.9233
1586.037, 465.3826
1587.966, 453.0111
1589.894, 448.5341
1591.823, 451.9547
1593.751, 455.2744
1595.680, 456.4740
1597.608, 448.6572
1599.537, 443.5716
1601.465, 453.6974
1603.394, 459.2810
1605.322, 451.9389
1607.251, 451.4876
1609.179, 457.1534
1611.108, 465.5129
1613.036, 472.8536
1614.964, 477.2965
1616.893, 473.0402
1618.821, 451.3919
1620.750, 438.5577
1622.678, 440.5634
1624.607, 431.8358
1626.535, 419.0493
1628.464, 427.5643
1630.392, 439.0204
1632.321, 439.9194
1634.249, 434.4341
1636.178, 420.8169
1638.106, 420.3575
1640.035, 432.3659
1641.963, 433.2982
1643.891, 429.5752
1645.820, 431.3427
1647.748, 433.8229
1649.677, 436.0815
1651.605, 432.2446
1653.534, 421.0539
1655.462, 416.0962
1657.391, 416.4545
1659.319, 422.4887
1661.248, 426.3405
1663.176, 418.3235
1665.105, 416.3513
1667.033, 425.2524
1668.962, 427.0146
1670.890, 421.9895
1672.818, 418.0083
1674.747, 414.5233
1676.675, 409.9716
1678.604, 408.1705
1680.532, 411.6132
1682.461, 406.4046
1684.389, 393.7256
1686.318, 391.8300
1688.246, 394.7681
1690.175, 393.6112
1692.103, 393.7267
1694.032, 398.9057
1695.960, 400.6166
1697.889, 398.1352
1699.817, 391.0998
1701.745, 383.6722
1703.674, 383.9326
1705.602, 384.4019
1707.531, 379.7784
1709.459, 376.7813
1711.388, 375.8604
1713.316, 374.0980
1715.245, 372.0278
1717.173, 371.3403
1719.102, 369.9609
1721.030, 363.9671
1722.959, 364.9212
1724.887, 373.9163
1726.816, 368.5715
1728.744, 356.9682
1730.672, 353.1212
1732.601, 353.5584
1734.529, 356.8229
1736.458, 364.0132
1738.386, 375.6637
1740.315, 370.0999
1742.243, 359.7976
1744.172, 372.5284
1746.100, 378.6750
1748.029, 355.9758
1749.957, 344.6664
1751.886, 347.7892
1753.814, 356.2332
1755.743, 366.3619
1757.671, 376.0284
1759.599, 377.5901
1761.528, 364.9774
1763.456, 356.2314
1765.385, 352.0186
1767.313, 342.4915
1769.242, 338.1866
1771.170, 358.6005
1773.099, 365.4988
1775.027, 342.9791
1776.956, 342.3081
1778.884, 357.7905
1780.813, 360.0042
1782.741, 353.6917
1784.670, 339.4151
1786.598, 329.3568
1788.526, 326.2145
1790.455, 332.1039
1792.383, 341.0321
1794.312, 339.8203
1796.240, 335.9505
1798.169, 332.7250
1800.097, 330.0175
1802.026, 327.9381
1803.954, 327.3222
1805.883, 328.3003
1807.811, 334.3854
1809.740, 334.0776
1811.668, 323.4384
1813.597, 321.4251
1815.525, 325.5656
1817.453, 322.6965
1819.382, 319.1645
1821.310, 321.9135
1823.239, 320.4203
1825.167, 313.8969
1827.096, 310.8976
1829.024, 308.2640
1830.953, 296.3505
1832.881, 295.2446
1834.810, 315.5923
1836.738, 319.4164
1838.667, 310.9483
1840.595, 311.7539
1842.524, 312.3092
1844.452, 300.6789
1846.380, 302.0466
1848.309, 317.4714
1850.237, 311.2790
1852.166, 297.4042
1854.094, 294.5308
1856.023, 297.4498
1857.951, 306.3249
1859.880, 307.2350
1861.808, 302.6843
1863.737, 297.6867
1865.665, 294.9187
1867.594, 299.0332
1869.522, 296.1884
1871.451, 286.4632
1873.379, 293.4410
1875.307, 302.8456
1877.236, 301.5802
1879.164, 293.9457
1881.093, 278.4613
1883.021, 283.6083
1884.950, 297.5184
1886.878, 298.7943
1888.807, 296.7085
1890.735, 293.1681
1892.664, 291.8779
1894.592, 292.8358
1896.521, 298.7771
1898.449, 299.5837
1900.378, 284.1232
1902.306, 285.8396
1904.234, 304.5110
1906.163, 300.6106
1908.091, 291.0677
1910.020, 291.4500
1911.948, 291.4003
1913.877, 287.8400
1915.805, 288.2567
1917.734, 289.0303
1919.662, 285.5114
1921.591, 276.9465
1923.519, 263.5274
1925.448, 260.0785
1927.376, 261.0923
1929.305, 259.1703
1931.233, 260.2576
1933.161, 266.6859
1935.090, 267.4009
1937.018, 265.4943
1938.947, 270.8262
1940.875, 271.1885
1942.804, 261.8693
1944.732, 261.0757
1946.661, 267.0120
1948.589, 269.2961
1950.518, 266.5673
1952.446, 258.3171
1954.375, 256.3830
1956.303, 258.7265
1958.232, 254.9505
1960.160, 250.8404
1962.089, 253.0396
1964.017, 251.1215
1965.945, 245.7272
1967.874, 236.5108
1969.802, 233.6276
1971.731, 251.1459
1973.659, 258.0651
1975.588, 254.9201
1977.516, 259.4264
1979.445, 262.2171
1981.373, 253.5374
1983.302, 245.6300
1985.230, 240.1104
1987.159, 238.4645
1989.087, 237.4284
1991.016, 235.8840
1992.944, 240.4260
1994.872, 247.8884
1996.801, 250.1307
1998.729, 249.9316
2000.658, 246.7365
2002.586, 244.5597
2004.515, 243.7428
2006.443, 248.6734
2008.372, 250.1635
2010.300, 241.5230
2012.229, 238.4580
2014.157, 240.0741
2016.086, 243.4749
2018.014, 242.2177
2019.943, 230.7415
2021.871, 227.0005
2023.799, 231.0096
2025.728, 243.2437
2027.656, 247.7694
2029.585, 237.3765
2031.513, 229.3674
2033.442, 225.0917
2035.370, 226.8879
2037.299, 225.4589
2039.227, 218.5265
2041.156, 221.6954
2043.084, 226.8184
2045.013, 221.5638
2046.941, 223.6895
2048.869, 234.7078
2050.798, 226.9316
2052.726, 214.1514
2054.655, 213.1624
2056.583, 212.8180
2058.512, 211.4575
2060.440, 212.1201
2062.369, 214.5912
2064.297, 220.9633
2066.226, 219.2255
2068.154, 211.3204
2070.083, 202.6644
2072.011, 197.4647
2073.940, 199.9382
2075.868, 201.1749
2077.797, 201.2047
2079.725, 198.9348
2081.654, 196.4963
2083.582, 195.0446
2085.510, 199.9999
2087.439, 205.6927
2089.367, 202.2691
2091.296, 199.0853
2093.224, 198.1391
2095.153, 199.4738
2097.081, 200.8249
2099.010, 198.5829
2100.938, 196.0269
2102.867, 194.1952
2104.795, 194.3039
2106.724, 194.3452
2108.652, 192.7922
2110.581, 197.6970
2112.509, 204.7830
2114.438, 207.2453
2116.366, 204.5499
2118.294, 196.3384
2120.223, 184.4163
2122.151, 178.2611
2124.080, 187.4588
2126.008, 193.1907
2127.937, 193.6693
2129.865, 190.8095
2131.794, 186.7348
2133.722, 182.9285
2135.651, 178.1532
2137.579, 175.3176
2139.508, 182.9740
2141.436, 187.2202
2143.365, 185.4272
2145.293, 183.6212
2147.221, 181.8192
2149.150, 178.2543
2151.078, 174.3800
2153.007, 172.6037
2154.935, 177.3856
2156.864, 177.9221
2158.792, 171.4496
2160.721, 176.6487
2162.649, 181.6443
2164.578, 167.3840
2166.506, 165.7961
2168.435, 174.5127
2170.363, 169.4963
2172.292, 164.8949
2174.220, 165.8068
2176.148, 166.8564
2178.077, 168.6273
2180.005, 171.4562
2181.934, 169.4600
2183.862, 164.1008
2185.791, 161.2639
2187.719, 160.0001
2189.648, 161.1439
2191.576, 160.3206
2193.505, 158.7302
2195.433, 158.3164
2197.362, 159.9353
2199.290, 161.3303
2201.219, 157.7529
2203.147, 153.5848
2205.075, 147.9925
2207.004, 153.7150
2208.932, 163.3716
2210.861, 167.4217
2212.789, 167.2040
2214.718, 164.2706
2216.646, 154.9554
2218.575, 149.7075
2220.503, 155.6789
2222.432, 149.4336
2224.360, 141.9949
2226.289, 151.0272
2228.217, 153.7338
2230.146, 152.0992
2232.074, 152.9263
2234.002, 150.6967
2235.931, 151.9667
2237.859, 152.5907
2239.788, 150.2540
2241.716, 149.9036
2243.645, 147.6606
2245.573, 144.0730
2247.502, 145.2964
2249.430, 146.5132
2251.359, 150.8542
2253.287, 152.0990
2255.216, 147.1531
2257.144, 141.5583
2259.073, 141.9668
2261.001, 144.3149
2262.929, 136.8704
2264.858, 139.3754
2266.786, 150.7761
2268.715, 141.4541
2270.643, 132.1183
2272.572, 136.7381
2274.500, 138.3113
2276.429, 137.0805
2278.357, 139.9367
2280.286, 142.1521
2282.214, 140.5106
2284.143, 125.8025
2286.071, 121.1416
2288.000, 126.9604
2289.928, 126.1542
2291.856, 125.9044
2293.785, 127.2300
2295.713, 132.7551
2297.642, 139.2679
2299.570, 135.1510
2301.499, 126.2424
2303.427, 124.5246
2305.356, 130.5724
2307.284, 132.8407
2309.213, 134.1496
2311.141, 131.0082
2313.070, 125.0942
2314.998, 118.9842
2316.927, 116.9014
2318.855, 119.9699
2320.783, 124.4377
2322.712, 125.0394
2324.640, 127.4021
2326.569, 131.4678
2328.497, 129.1841
2330.426, 123.1007
2332.354, 120.2056
2334.283, 118.0514
2336.211, 115.5509
2338.140, 118.2378
2340.068, 120.9317
2341.997, 125.3503
2343.925, 121.3916
2345.854, 115.4661
2347.782, 117.6043
2349.710, 122.0891
2351.639, 119.5444
2353.567, 111.9345
2355.496, 111.0475
2357.424, 112.4608
2359.353, 112.3772
2361.281, 113.0269
2363.210, 114.0288
2365.138, 112.7885
2367.067, 108.5517
2368.995, 101.7661
2370.924, 105.8854
2372.852, 112.7148
2374.781, 111.4314
2376.709, 108.7509
2378.637, 110.2934
2380.566, 111.3246
2382.494, 115.0517
2384.423, 117.2603
2386.351, 105.6306
2388.280, 99.35115
2390.208, 102.4492
2392.137, 107.9746
2394.065, 104.2087
2395.994, 94.90218
2397.922, 95.08401
2399.851, 96.29890
2401.779, 102.1953
2403.708, 103.1173
2405.636, 102.5718
2407.564, 100.8867
2409.493, 98.78841
2411.421, 96.61909
2413.350, 93.70952
2415.278, 94.76746
2417.207, 96.80006
2419.135, 96.14589
2421.064, 93.05717
2422.992, 90.42834
2424.921, 91.71517
2426.849, 93.40869
2428.778, 95.97733
2430.706, 95.12359
2432.635, 90.81909
2434.563, 88.96755
2436.491, 91.60384
2438.420, 94.34155
2440.348, 91.76037
2442.277, 92.40049
2444.205, 95.02286
2446.134, 96.53468
2448.062, 92.39621
2449.991, 88.90961
2451.919, 89.56626
2453.848, 83.50509
2455.776, 82.50909
2457.705, 88.70010
2459.633, 85.28056
2461.562, 83.89572
2463.490, 89.03253
2465.418, 88.64411
2467.347, 88.84187
2469.275, 86.11359
2471.204, 80.58608
2473.132, 79.77875
2475.061, 88.89690
2476.989, 82.90177
2478.918, 76.19736
2480.846, 79.51202
2482.775, 75.75765
2484.703, 73.00782
2486.632, 79.65857
2488.560, 84.15134
2490.489, 84.01475
2492.417, 79.18143
2494.345, 78.57910
2496.274, 80.33810
2498.202, 76.41952
2500.131, 70.65632
2502.059, 71.12403
2503.988, 75.11663
2505.916, 75.08091
2507.845, 74.14231
2509.773, 66.76326
2511.702, 65.90970
2513.630, 72.10228
2515.559, 80.33788
2517.487, 78.49438
2519.416, 71.07862
2521.344, 68.46157
2523.272, 68.31226
2525.201, 71.77950
2527.129, 77.75005
2529.058, 74.70983
2530.986, 69.30573
2532.915, 73.07053
2534.843, 75.17800
2536.772, 73.52151
2538.700, 72.17731
2540.629, 68.42331
2542.557, 64.18494
2544.486, 69.17127
2546.414, 67.81232
2548.343, 62.35007
2550.271, 69.83015
2552.199, 74.80839
2554.128, 72.20850
2556.056, 62.47577
2557.985, 62.12651
2559.913, 65.60825
2561.842, 64.26302
2563.770, 65.84611
2565.699, 68.40769
2567.627, 61.34504
2569.556, 58.63448
2571.484, 60.88402
2573.413, 65.83329
2575.341, 62.52336
2577.270, 57.29900
2579.198, 56.55236
2581.126, 61.86230
2583.055, 66.49732
2584.983, 63.16748
2586.912, 61.66142
2588.840, 60.61594
2590.769, 57.26573
2592.697, 59.22548
2594.626, 61.99993
2596.554, 61.25577
2598.483, 63.64276
2600.411, 63.30758
2602.340, 56.74475
2604.268, 56.08096
2606.197, 56.47394
2608.125, 54.67862
2610.053, 58.80378
2611.982, 59.93905
2613.910, 54.44887
2615.839, 52.70126
2617.767, 55.50091
2619.696, 60.95048
2621.624, 56.91006
2623.553, 55.35369
2625.481, 58.26788
2627.410, 51.89479
2629.338, 52.02630
2631.267, 56.55626
2633.195, 48.78264
2635.124, 49.78867
2637.052, 56.27641
2638.980, 54.84885
2640.909, 53.53827
2642.837, 51.77217
2644.766, 51.25193
2646.694, 53.71947
2648.623, 54.42669
2650.551, 47.96929
2652.480, 47.54066
2654.408, 47.95403
2656.337, 45.59027
2658.265, 49.63913
2660.194, 49.56523
2662.122, 44.54029
2664.051, 50.06520
2665.979, 53.39396
2667.907, 55.79041
2669.836, 48.65859
2671.764, 40.92923
2673.693, 38.26082
2675.621, 42.64071
2677.550, 45.56206
2679.478, 48.07445
2681.407, 49.72519
2683.335, 45.77908
2685.264, 40.42759
2687.192, 37.13455
2689.121, 41.82306
2691.049, 50.63622
2692.978, 52.88577
2694.906, 50.38727
2696.834, 48.94175
2698.763, 42.38043
2700.691, 40.73922
2702.620, 39.76722
2704.548, 40.49026
2706.477, 42.28148
2708.405, 40.46783
2710.334, 39.10526
2712.262, 41.44675
2714.191, 38.49425
2716.119, 36.79261
2718.048, 40.27414
2719.976, 40.44575
2721.905, 40.88156
2723.833, 40.94448
2725.761, 41.39603
2727.690, 40.41540
2729.618, 45.89276
2731.547, 42.16932
2733.475, 38.28503
2735.404, 41.07485
2737.332, 46.58721
2739.261, 40.32642
2741.189, 31.91931
2743.118, 32.22076
2745.046, 27.28064
2746.975, 29.20249
2748.903, 28.38763
2750.832, 32.86329
2752.760, 34.53167
2754.688, 32.52690
2756.617, 39.02963
2758.545, 40.06711
2760.474, 33.35064
2762.402, 33.69123
2764.331, 31.58850
2766.259, 27.59507
2768.188, 25.07305
2770.116, 26.94729
2772.045, 32.14287
2773.973, 34.28632
2775.902, 32.31876
2777.830, 32.95489
2779.759, 30.40478
2781.687, 26.48959
2783.615, 28.29480
2785.544, 35.35191
2787.472, 34.93635
2789.401, 27.83507
2791.329, 21.01895
2793.258, 14.57979
2795.186, 21.19913
2797.115, 31.69478
2799.043, 30.61763
2800.972, 32.04198
2802.900, 33.53262
2804.829, 31.81373
2806.757, 29.42558
2808.686, 25.89251
2810.614, 26.31711
2812.542, 29.12236
2814.471, 31.99160
2816.399, 28.14061
2818.328, 22.42616
2820.256, 19.68486
2822.185, 23.85106
2824.113, 27.70720
2826.042, 26.67960
2827.970, 29.55932
2829.899, 31.86211
2831.827, 29.13715
2833.756, 28.95775
2835.684, 27.38394
2837.613, 22.77940
2839.541, 25.00037
2841.469, 21.98242
2843.398, 17.76871
2845.326, 24.28763
2847.255, 26.09283
2849.183, 22.73836
2851.112, 19.79361
2853.040, 18.62635
2854.969, 22.22162
2856.897, 27.42358
2858.826, 22.53384
2860.754, 19.11340
2862.683, 20.34475
2864.611, 24.19086
2866.540, 24.32951
2868.468, 19.07667
2870.396, 19.48298
2872.325, 22.60307
2874.253, 20.75822
2876.182, 17.79801
2878.110, 22.63119
2880.039, 24.84413
2881.967, 23.89832
2883.896, 23.32079
2885.824, 20.43724
2887.753, 20.95017
2889.681, 25.59677
2891.610, 23.48811
2893.538, 20.61829
2895.467, 20.35813
2897.395, 24.52797
2899.323, 23.98695
2901.252, 18.82218
2903.180, 14.59470
2905.109, 12.98601
2907.037, 18.92759
2908.966, 22.30859
2910.894, 15.87129
2912.823, 25.47498
2914.751, 31.04567
2916.680, 25.19354
2918.608, 19.25378
2920.537, 18.12927
2922.465, 21.71730
2924.394, 23.17531
2926.322, 19.63537
2928.250, 18.28383
2930.179, 14.63434
2932.107, 19.94361
2934.036, 15.95545
2935.964, 12.31532
2937.893, 20.97233
2939.821, 22.74237
2941.750, 20.58822
2943.678, 19.28183
2945.607, 16.33659
2947.535, 12.71511
2949.464, 13.22022
2951.392, 15.15519
2953.321, 16.36384
2955.249, 13.34073
2957.177, 10.18134
2959.106, 8.034702
2961.034, 12.95133
2962.963, 15.21620
2964.891, 10.49059
2966.820, 8.750441
2968.748, 11.13972
2970.677, 12.35028
2972.605, 11.62980
2974.534, 13.18020
2976.462, 12.17716
2978.391, 15.31834
2980.319, 12.22509
2982.248, 7.264397
2984.176, 9.311058
2986.104, 13.10729
2988.033, 10.17732
2989.961, 13.03259
2991.890, 14.18762
2993.818, 11.02164
2995.747, 19.78202
2997.675, 20.05289
2999.604, 15.69023
3001.532, 18.10787
3003.461, 15.87755
3005.389, 14.04907
3007.318, 15.47952
3009.246, 16.28412
3011.175, 19.23059
3013.103, 23.51198
3015.031, 24.23964
3016.960, 9.652442
3018.888, 11.71604
3020.817, 13.20500
3022.745, -9.8394133E-02
3024.674, 6.359174
3026.602, 12.11329
3028.531, 14.42620
3030.459, 13.29088
3032.388, 5.279020
3034.316, 1.714462
3036.245, 3.241742
3038.173, 9.554756
3040.102, 5.385932
3042.030, 4.995275
3043.958, 11.24368
3045.887, 7.848959
3047.815, 13.14033
3049.744, 17.18867
3051.672, 13.75950
3053.601, 14.92351
3055.529, 9.475289
3057.458, 5.861471
3059.386, 10.70526
3061.315, 4.457408
3063.243, 0.6016012
3065.172, 2.442749
3067.100, 9.443101
3069.029, 7.599986
3070.957, 11.71402
3072.885, 16.36922
3074.814, 6.713554
3076.742, 7.432005
3078.671, 7.659983
3080.599, 13.63087
3082.528, 53.73197
3084.456, 23.00297
3086.385, 0.6604730
3088.313, 4.378059
3090.242, 5.566098
3092.170, 10.06022
3094.099, 11.36316
3096.027, 8.713518
3097.956, 7.894633
3099.884, 13.22103
3101.813, 12.87747
3103.741, 6.563589
3105.669, 14.73547
3107.598, 8.467553
3109.526, 1.219455
3111.455, -0.5601135
3113.383, -3.990523
3115.312, 9.313124
3117.240, 13.88846
3119.169, 0.4466262
3121.097, 8.380201
3123.026, 6.752976
3124.954, 4.273179
3126.883, 6.250799
3128.811, 9.957561
3130.740, 10.53642
3132.668, 8.837961
3134.596, 7.038843
3136.525, 2.331233
3138.453, 6.271183
3140.382, 10.86635
3142.310, 9.468077
3144.239, 2.206304
3146.167, 2.330096
3148.096, 0.1895959
3150.024, -1.722655
3151.953, 11.85307
3153.881, 14.66765
3155.810, 9.247998
3157.738, 1.761805
3159.667, 0.1340491
3161.595, 7.671943
3163.523, 11.95027
3165.452, 8.431501
3167.380, 6.090259
3169.309, 7.102603
3171.237, 4.060952
3173.166, 0.1409271
3175.094, 6.770797
3177.023, 7.873954
3178.951, 6.843836
3180.880, 6.557885
3182.808, 6.700054
3184.737, 11.89932
3186.665, 12.28642
3188.594, 7.241170
3190.522, 2.969441
3192.450, 3.547863
3194.379, 5.522314
3196.307, 6.984573
3198.236, 8.939134
3200.164, 2.884771
3202.093, 5.869420
3204.021, 10.83571
3205.950, 16.49179
3207.878, 6.476990
3209.807, 1.378751
3211.735, 2.583712
3213.664, 2.014217
3215.592, 3.017782
3217.521, 0.1198682
3219.449, -1.706064
3221.377, -3.444097
3223.306, -2.772418
3225.234, 0.8996329
3227.163, 0.5652859
3229.091, 0.5778230
3231.020, 2.593918
3232.948, 3.016477
3234.877, 2.601013
3236.805, 1.332817
3238.734, 4.132342
3240.662, 2.995195
3242.591, 4.400675
3244.519, 3.026560
3246.448, -0.5516114
3248.376, 3.139944
3250.304, 11.71601
3252.233, 4.940307
3254.161, -4.396399
3256.090, -0.3679504
3258.018, 1.799134
3259.947, 4.042231
3261.875, 7.931509
3263.804, 12.17271
3265.732, 13.97018
3267.661, 8.981701
3269.589, 7.046543
3271.518, 9.168535
3273.446, 7.144813
3275.375, 6.142729
3277.303, 3.309765
3279.231, 7.481559
3281.160, 15.60198
3283.088, 6.781027
3285.017, 7.983813
3286.945, 14.07433
3288.874, 13.70818
3290.802, 5.290093
3292.731, -0.2599895
3294.659, -5.419331
3296.588, -3.923712
3298.516, 9.825409
3300.445, 2.933000
3302.373, 5.903594
3304.302, 10.13977
3306.230, 5.236085
3308.158, -8.465063
3310.087, -6.888531
3312.015, -1.817148
3313.944, 2.156532
3315.872, 6.785259
3317.801, -0.6376749
3319.729, -3.6638301E-02
3321.658, 8.946412
3323.586, 1.681604
3325.515, 10.36666
3327.443, 11.25708
3329.372, 5.333892
3331.300, 5.770710
3333.229, 3.367346
3335.157, 5.996663
3337.085, 5.965428
3339.014, 5.509840
3340.942, 5.938798
3342.871, 6.695722
3344.799, 9.614991
3346.728, 9.076307
3348.656, 3.466363
3350.585, -1.743742
3352.513, 9.306028
3354.442, 8.274939
3356.370, 2.676239
3358.299, 3.475435
3360.227, 10.69471
3362.156, 10.32513
3364.084, -1.234761
3366.012, -1.090258
3367.941, 1.781923
3369.869, -5.497090
3371.798, 1.711116
3373.726, 4.859559
3375.655, 6.353348
3377.583, 6.975831
3379.512, 4.191125
3381.440, -9.5343851E-02
3383.369, -1.381527
3385.297, -2.636542
3387.226, -4.857476
3389.154, -10.21567
3391.083, -1.244192
3393.011, -4.963298
3394.939, -10.30779
3396.868, -7.165833
3398.796, -6.461114
3400.725, 0.8115858
3402.653, -2.698465
3404.582, -4.482912
3406.510, 3.918044
3408.439, -1.324696
3410.367, 1.746260
3412.296, 1.649199
3414.224, -0.2920130
3416.153, 0.5129500
3418.081, 11.67306
3420.010, 9.175944
3421.938, 8.404001
3423.866, 7.512971
3425.795, 1.963124
3427.723, 10.58449
3429.652, 6.734989
3431.580, 1.204111
3433.509, 6.162086
3435.437, 21.50346
3437.366, 13.22291
3439.294, 3.972372
3441.223, 0.9758781
3443.151, 4.281721
3445.080, 8.722675
3447.008, -0.6540379
3448.937, -3.235943
3450.865, 2.107506
3452.793, 7.794885
3454.722, 7.980329
3456.650, 2.480247
3458.579, 5.322155
3460.507, 3.211447
3462.436, 6.732440
3464.364, 14.28588
3466.293, 0.6445563
3468.221, -2.796036
3470.150, 2.468616
3472.078, 6.282062
3474.007, 5.386561
3475.935, 3.868313
3477.864, 4.082102
3479.792, 1.086731
3481.720, 1.979999
3483.649, 4.391132
3485.577, 0.2609747
3487.506, -13.50595
3489.434, -4.118659
3491.363, -0.6912156
3493.291, -0.7982490
3495.220, 4.672463
3497.148, -7.010892
3499.077, 5.174742
3501.005, 9.943718
3502.934, 6.986383
3504.862, 6.679526
3506.791, 17.85082
3508.719, 8.446310
3510.647, 9.103112
3512.576, 8.912970
3514.504, 6.856225
3516.433, 12.09174
3518.361, 20.08639
3520.290, 10.95965
3522.218, 10.99501
3524.147, 18.06946
3526.075, 19.96975
3528.004, 7.960766
3529.932, 17.72294
3531.861, 19.22702
3533.789, 18.36546
3535.718, 18.05470
3537.646, 13.38087
3539.574, 13.26589
3541.503, 17.74835
3543.431, 13.91773
3545.360, 14.76273
3547.288, 21.85757
3549.217, 8.099663
3551.145, 11.73780
3553.074, 11.47502
3555.002, 7.301231
3556.931, 5.193206
3558.859, 8.255273
3560.788, 10.23075
3562.716, 1.408167
3564.645, -4.765345
3566.573, -4.460137
3568.501, -0.6729929
3570.430, 1.790205
3572.358, -1.522541
3574.287, 7.162173
3576.215, 5.916214
3578.144, 3.379696
3580.072, 7.281264
3582.001, 5.882933
3583.929, 4.600281
3585.858, 5.698641
3587.786, 9.994958
3589.715, 12.71249
3591.643, 11.28652
3593.572, 11.74360
3595.500, 5.897677
3597.428, 7.544401
3599.357, 10.23383
3601.285, 6.282767
3603.214, -3.441642
3605.142, -3.322241
3607.071, 9.432574
3608.999, 13.23094
3610.928, 3.928299
3612.856, -2.641723
3614.785, 5.506205
3616.713, 14.79941
3618.642, 7.311298
3620.570, -0.1439961
3622.499, 3.816460
3624.427, 8.259723
3626.355, 3.234725
3628.284, 3.195131
3630.212, -0.9144032
3632.141, -0.4394590
3634.069, -1.965306
3635.998, -1.525420
3637.926, 4.893211
3639.855, 9.486376
3641.783, 4.321608
3643.712, -2.245210
3645.640, -5.571181
3647.569, -2.243950
3649.497, 1.588525
3651.426, -4.804300
3653.354, 5.229820
3655.282, 7.720716
3657.211, 7.020525
3659.139, 7.373408
3661.068, 6.443987
3662.996, 2.661700
3664.925, 14.49932
3666.853, 5.761917
3668.782, 0.5438620
3670.710, 4.520689
3672.639, 5.348956
3674.567, -1.869751
3676.496, 2.981252
3678.424, 6.909487
3680.353, 6.215301
3682.281, 10.96002
3684.209, 11.08592
3686.138, 3.235991
3688.066, -2.453329
3689.995, -3.858902
3691.923, -5.039413
3693.852, 15.61342
3695.780, 3.843026
3697.709, -11.03472
3699.637, 4.618155
3701.566, 6.171224
3703.494, -4.612242
3705.423, 1.742738
3707.351, 7.074899
3709.280, 10.47110
3711.208, 8.840471
3713.136, -1.892424
3715.065, -8.854333
3716.993, 2.058666
3718.922, 4.816821
3720.850, -3.101999
3722.779, -6.022764
3724.707, -2.088773
3726.636, -9.0638921E-02
3728.564, 6.699104
3730.493, 8.269490
3732.421, 11.30396
3734.350, 5.128818
3736.278, -2.094749
3738.207, -0.4491816
3740.135, 7.512408
3742.063, 7.099241
3743.992, -7.219183
3745.920, 2.010892
3747.849, 11.18271
3749.777, 12.34715
3751.706, 5.179688
3753.634, -6.554499
3755.563, 6.207352
3757.491, 6.726449
3759.420, 11.01409
3761.348, -1.645100
3763.277, -3.338845
3765.205, 7.850517
3767.134, 9.178076
3769.062, 0.6985120
3770.990, 2.915013
3772.919, 5.511702
3774.847, 10.53043
3776.776, 5.577276
3778.704, -3.240980
3780.633, -2.420279
3782.561, 7.200049
3784.490, 2.167074
3786.418, -0.8187683
3788.347, -4.785388
3790.275, -5.099595
3792.204, -1.713590
3794.132, 5.521005
3796.061, 10.47861
3797.989, -4.858113
3799.917, 0.7334113
3801.846, 8.180627
3803.774, 7.853656
3805.703, 7.760107
3807.631, 9.744159
3809.560, 7.516809
3811.488, -1.643625
3813.417, -4.165264
3815.345, -11.36317
3817.274, -6.178411
3819.202, -2.250144
3821.131, 7.629729
3823.059, 10.86603
3824.988, 1.741675
3826.916, -0.9721555
3828.844, -3.719923
3830.773, 11.16612
3832.701, 2.034452
3834.630, -2.725906
3836.558, -8.681594
3838.487, -6.583382
3840.415, 5.144619
3842.344, 5.848678
3844.272, 4.155512
3846.201, 3.785090
3848.129, 3.136857
3850.058, 19.24784
3851.986, 15.53810
3853.915, 9.498030
3855.843, 15.37565
3857.771, 14.83344
3859.700, 7.445817
3861.628, -10.07389
3863.557, 6.472708
3865.485, 1.778078
3867.414, -9.715850
3869.342, -2.022106
3871.271, -1.475323
3873.199, -15.33128
3875.128, -0.3649446
3877.056, -5.615417
3878.985, -2.418048
3880.913, -5.380095
3882.842, 2.161567
3884.770, 5.748071
3886.698, -0.5077523
3888.627, -9.879841
3890.555, -12.03575
3892.484, 0.2993046
3894.412, -7.312352
3896.341, -3.121180
3898.269, -10.50226
3900.198, -8.000350
3902.126, 3.017027
3904.055, 8.967186
3905.983, 7.563829
3907.912, 4.702065
3909.840, 2.227691
3911.769, 3.900958
3913.697, 3.845687
3915.625, -3.139961
3917.554, -0.3391963
3919.482, 12.34590
3921.411, 8.645512
3923.339, 3.683321
3925.268, 8.316353
3927.196, -1.995804
3929.125, -7.066414
3931.053, -1.302673
3932.982, 3.405239
3934.910, 3.113421
3936.839, -0.6430756
3938.767, 1.058191
3940.696, -8.552241
3942.624, -16.29040
3944.552, -1.475426
3946.481, 10.97024
3948.409, 5.824900
3950.338, 0.8153348
3952.266, -0.2626783
3954.195, -4.522731
3956.123, -6.347105
3958.052, -4.895619
3959.980, -4.441249
3961.909, -7.927309
3963.837, -8.648618
3965.766, 1.423091
3967.694, 2.1281920E-02
3969.623, 2.203873
3971.551, 7.855771
3973.479, 12.36550
3975.408, -4.321257
3977.336, -1.840680
3979.265, 1.565404
3981.193, -2.952538
3983.122, -1.992762
3985.050, 5.192097
3986.979, 9.873618
3988.907, -5.161918
3990.836, -0.4417172
3992.764, 6.505477
3994.693, -4.755683
3996.621, 1.990757
3998.550, 1.058213
4000.478, 4.621987
4002.406, 7.420561
4004.335, 2.904020
4006.263, 3.572618
4008.192, -2.881211
4010.120, -4.681666
4012.049, -14.73288
4013.977, -10.61949
4015.906, -0.6476568
4017.834, 3.205139
4019.763, -4.344839
4021.691, -1.799599
4023.620, -1.542452
4025.548, -4.134698
4027.477, -5.209081
4029.405, -11.97156
4031.333, 3.873439
4033.262, -4.649770
4035.190, -1.272060
4037.119, -4.786725
4039.047, -1.731837
4040.976, -2.153308
4042.904, -12.26866
4044.833, 3.557047
4046.761, 4.932304
4048.690, -0.8947124
4050.618, 10.92622
4052.547, 11.52694
4054.475, 3.992733
4056.404, 17.74758
4058.332, -3.864801
4060.260, -8.920529
4062.189, 0.5985110
4064.117, -5.010071
4066.046, 12.68112
4067.974, 11.49994
4069.903, 6.201526
4071.831, 1.971849
4073.760, 6.993152
4075.688, 10.56806
4077.617, 1.296597
4079.545, 6.836842
4081.474, 3.360752
4083.402, 3.138815
4085.331, 1.920601
4087.259, 7.665389
4089.188, -13.74445
4091.116, -11.76804
4093.044, 2.531325
4094.973, 1.059890
4096.901, 5.115224
4098.830, -1.915264
4100.758, -13.87710
4102.687, -14.57217
4104.615, -5.416769
4106.544, 5.867182
4108.472, -1.767195
4110.401, 1.092907
4112.329, -4.564255
4114.258, -10.88556
4116.186, 0.7446190
4118.115, 6.942739
4120.043, -3.564301
4121.972, -4.375275
4123.900, 10.56283
4125.829, -3.476445
4127.757, -1.875617
4129.686, -3.762603
4131.614, -9.058065
4133.542, 2.511168
4135.471, 8.454081
4137.399, 3.076227
4139.328, -2.919507
4141.256, 13.40227
4143.185, 2.614085
4145.113, 11.25284
4147.042, 4.774174
4148.970, 9.334098
4150.898, 13.12610
4152.827, 6.700999
4154.755, 9.333240
4156.684, 10.53535
4158.612, -2.405898
4160.541, -5.702673
4162.469, -8.305828
4164.398, -3.752939
4166.326, 6.099957
4168.255, 5.034683
4170.183, 4.147690
4172.112, 1.249508
4174.040, -18.76377
4175.969, 1.231676
4177.897, -7.056322
4179.826, -11.59148
4181.754, -10.35781
4183.683, -2.167534
4185.611, -1.445424
4187.540, 2.350086
4189.468, 2.751717
4191.396, 7.963731
4193.325, -2.673778
4195.253, -3.642567
4197.182, 7.840599
4199.110, 4.252240
4201.039, -3.177771
4202.967, -12.05268
4204.896, -11.89136
4206.824, -0.8889360
4208.752, 5.102883
4210.681, 6.393057
4212.609, 2.571409
4214.538, -0.4244942
4216.466, 10.31317
4218.395, 2.253263
4220.323, 4.234590
4222.252, 8.484539
4224.180, 11.97255
4226.109, -1.485456
4228.037, 11.32142
4229.966, -1.398055
4231.894, 11.73224
4233.823, 9.726173
4235.751, 1.460457
4237.680, 3.421108
4239.608, -2.808722
4241.537, -6.702384
4243.465, 1.904685
4245.394, 3.621272
4247.322, -1.938441
4249.250, -10.00681
4251.179, -2.148841
4253.107, -4.083841
4255.036, -14.49976
4256.964, -7.761924
4258.893, 2.884498
4260.821, -6.711904
4262.750, -12.42278
4264.678, 1.329306
4266.606, -1.557421
4268.535, 4.795910
4270.463, 2.589320
4272.392, 8.225597
4274.320, 12.90711
4276.249, 4.838297
4278.177, -7.888008
4280.106, 0.5450971
4282.034, 5.260183
4283.963, 7.825914
4285.891, 0.5536509
4287.820, 8.9289621E-02
4289.748, 15.14918
4291.677, -3.917420
4293.605, 9.501442
4295.534, -0.6513273
4297.462, 13.87006
4299.391, 13.47493
4301.319, 0.2837152
4303.248, -0.4928694
4305.176, 7.709116
4307.104, 3.195629
4309.033, 2.222689
4310.961, -6.465456
4312.890, -4.417237
4314.818, -7.285810
4316.747, -7.821224
4318.675, -6.009352
4320.604, 5.318638
4322.532, 4.872279
4324.460, -12.16260
4326.389, -11.89555
4328.317, 0.2289488
4330.246, -1.095114
4332.174, -2.755623
4334.103, -5.285108
4336.031, -2.484053
4337.960, -4.090659
4339.888, -6.724149
4341.817, -2.923741
4343.745, 2.398855
4345.674, 3.020940
4347.602, -2.174273
4349.531, -3.006159
4351.459, -2.985003
4353.388, 4.873397
4355.316, 7.182102
4357.245, -6.324721
4359.173, -12.77169
4361.102, -2.008032
4363.030, 9.336165
4364.958, 0.3215520
4366.887, -4.776584
4368.815, -7.250715
4370.744, -5.732844
4372.672, -0.1612095
4374.601, -3.229693
4376.529, 0.4221260
4378.458, 1.057057
4380.386, -0.9876603
4382.314, -3.640540
##END=



