##NAMES=Cassiterite
##RRUFFID=R040072
##IDEAL CHEMISTRY=SnO_2_
##LOCALITY=Bolivia
##OWNER=RRUFF
##SOURCE=University of Arizona Mineral Museum
##DESCRIPTION=Black fragment
##STATUS=The identification of this mineral has been confirmed by X-ray diffraction and chemical analysis
##URL=https://www.rruff.net/odr/rruff_sample/R040072
##MEASURED CHEMISTRY=Sn_0.99_O_2_
##DIFFRACTION SAMPLE DESCRIPTION=Powder
##CELL PARAMETERS=a: 4.7376 b: 4.7376 c: 3.1865 alpha: 90 beta: 90 gamma: 90 volume: 71.523 crystal system: tetragonal
##FILETYPE=Raman RAW
##RAMAN WAVELENGTH=532

117.9119, 432.4383
119.8403, 542.8923
121.7688, 655.5523
123.6973, 779.2087
125.6257, 899.4031
127.5542, 910.5536
129.4827, 901.0815
131.4111, 888.4274
133.3396, 873.4643
135.2681, 852.2420
137.1965, 840.3063
139.1250, 840.6787
141.0535, 846.8819
142.9819, 849.5933
144.9104, 844.1951
146.8389, 838.0116
148.7673, 834.3535
150.6958, 834.6253
152.6243, 833.0266
154.5527, 827.4269
156.4812, 818.4506
158.4097, 809.0962
160.3381, 798.3951
162.2666, 787.6807
164.1951, 778.5658
166.1235, 771.7254
168.0520, 764.7927
169.9805, 755.7378
171.9089, 741.2469
173.8374, 734.4198
175.7659, 740.5228
177.6943, 753.4393
179.6228, 761.1960
181.5513, 760.1769
183.4797, 757.0315
185.4082, 754.7904
187.3367, 753.6950
189.2651, 753.2450
191.1936, 752.7372
193.1221, 752.8398
195.0505, 755.5691
196.9790, 762.3322
198.9075, 771.3171
200.8359, 781.5665
202.7644, 792.1136
204.6929, 805.1098
206.6213, 819.9867
208.5498, 836.2412
210.4783, 859.1387
212.4068, 894.5986
214.3352, 934.1702
216.2637, 968.2295
218.1922, 999.1258
220.1206, 1021.782
222.0491, 1034.725
223.9776, 1035.273
225.9060, 1034.096
227.8345, 1028.496
229.7630, 1022.278
231.6914, 1021.162
233.6199, 1026.922
235.5484, 1035.991
237.4768, 1046.920
239.4053, 1062.275
241.3338, 1074.816
243.2622, 1081.426
245.1907, 1084.956
247.1192, 1091.433
249.0476, 1107.492
250.9761, 1121.872
252.9046, 1128.371
254.8330, 1122.081
256.7615, 1118.089
258.6899, 1119.594
260.6184, 1125.238
262.5469, 1131.424
264.4753, 1142.082
266.4038, 1150.515
268.3323, 1151.152
270.2607, 1141.586
272.1892, 1131.340
274.1177, 1121.765
276.0461, 1112.752
277.9746, 1105.523
279.9031, 1097.568
281.8315, 1092.734
283.7600, 1094.900
285.6885, 1104.881
287.6169, 1118.006
289.5454, 1135.177
291.4739, 1156.765
293.4023, 1173.003
295.3308, 1181.680
297.2593, 1187.060
299.1877, 1192.705
301.1162, 1199.659
303.0447, 1203.398
304.9731, 1202.124
306.9016, 1195.434
308.8301, 1188.399
310.7585, 1177.943
312.6870, 1169.158
314.6155, 1166.053
316.5439, 1171.624
318.4724, 1176.913
320.4009, 1179.916
322.3293, 1180.713
324.2578, 1181.788
326.1863, 1184.804
328.1147, 1187.158
330.0432, 1186.397
331.9717, 1177.623
333.9002, 1175.097
335.8286, 1186.274
337.7571, 1209.457
339.6856, 1222.254
341.6140, 1216.205
343.5425, 1205.497
345.4710, 1199.049
347.3994, 1198.223
349.3279, 1200.022
351.2564, 1207.452
353.1848, 1218.350
355.1133, 1222.198
357.0418, 1212.404
358.9702, 1201.276
360.8987, 1195.784
362.8272, 1200.225
364.7556, 1204.009
366.6841, 1203.936
368.6126, 1202.579
370.5410, 1206.601
372.4695, 1220.028
374.3980, 1234.912
376.3264, 1247.777
378.2549, 1259.377
380.1834, 1267.198
382.1118, 1269.722
384.0403, 1268.503
385.9688, 1266.793
387.8972, 1264.019
389.8257, 1261.278
391.7542, 1258.862
393.6826, 1256.718
395.6111, 1255.098
397.5396, 1251.365
399.4680, 1249.731
401.3965, 1254.564
403.3250, 1270.571
405.2534, 1286.536
407.1819, 1299.753
409.1104, 1310.087
411.0388, 1318.955
412.9673, 1330.094
414.8958, 1337.105
416.8242, 1333.700
418.7527, 1310.582
420.6812, 1296.417
422.6096, 1297.991
424.5381, 1314.309
426.4666, 1334.059
428.3951, 1361.535
430.3235, 1388.111
432.2520, 1411.154
434.1805, 1432.399
436.1089, 1443.442
438.0374, 1440.350
439.9659, 1427.779
441.8943, 1415.594
443.8228, 1399.230
445.7513, 1389.639
447.6797, 1392.010
449.6082, 1406.737
451.5367, 1425.128
453.4651, 1440.495
455.3936, 1461.525
457.3221, 1496.486
459.2505, 1536.735
461.1790, 1604.331
463.1075, 1709.801
465.0359, 1848.288
466.9644, 2008.994
468.8929, 2250.498
470.8213, 2468.030
472.7498, 2606.160
474.6783, 2666.058
476.6067, 2659.618
478.5352, 2530.842
480.4637, 2344.922
482.3921, 2198.785
484.3206, 2100.726
486.2491, 2037.368
488.1775, 2020.849
490.1060, 2049.104
492.0345, 2074.132
493.9629, 2094.528
495.8914, 2108.715
497.8199, 2116.480
499.7483, 2121.077
501.6768, 2113.502
503.6053, 2090.705
505.5337, 2055.067
507.4622, 2014.568
509.3907, 1967.507
511.3191, 1917.697
513.2476, 1864.862
515.1760, 1805.745
517.1045, 1755.458
519.0330, 1709.822
520.9614, 1673.825
522.8899, 1651.448
524.8184, 1640.641
526.7468, 1645.900
528.6753, 1670.108
530.6038, 1710.819
532.5322, 1763.417
534.4607, 1849.386
536.3892, 1926.766
538.3176, 1978.855
540.2461, 2006.888
542.1746, 2021.809
544.1030, 2018.154
546.0315, 2005.152
547.9600, 1989.672
549.8884, 1977.164
551.8169, 1955.268
553.7454, 1914.943
555.6738, 1864.687
557.6023, 1825.528
559.5308, 1803.350
561.4592, 1784.917
563.3877, 1765.163
565.3162, 1743.706
567.2446, 1721.810
569.1731, 1700.287
571.1016, 1677.821
573.0300, 1651.193
574.9585, 1617.641
576.8870, 1592.229
578.8154, 1578.807
580.7440, 1575.749
582.6724, 1581.905
584.6009, 1596.984
586.5294, 1621.189
588.4578, 1655.898
590.3863, 1700.757
592.3148, 1752.424
594.2432, 1805.365
596.1717, 1871.537
598.1002, 1955.603
600.0286, 2057.234
601.9571, 2182.486
603.8856, 2302.823
605.8140, 2459.249
607.7425, 2686.679
609.6710, 2960.424
611.5994, 3359.649
613.5279, 3850.419
615.4564, 4458.167
617.3848, 5354.436
619.3133, 6388.327
621.2418, 7836.241
623.1702, 9975.567
625.0987, 12759.31
627.0272, 15583.08
628.9556, 19268.16
630.8841, 22177.25
632.8126, 23262.93
634.7410, 21801.47
636.6695, 19720.83
638.5980, 16535.73
640.5264, 13021.13
642.4549, 10242.09
644.3834, 8274.273
646.3118, 6743.667
648.2403, 5623.550
650.1688, 4845.426
652.0972, 4233.911
654.0257, 3860.583
655.9542, 3581.310
657.8826, 3375.392
659.8111, 3243.879
661.7396, 3145.504
663.6680, 3094.661
665.5965, 3063.811
667.5250, 3035.447
669.4534, 3007.854
671.3819, 2989.593
673.3104, 2989.709
675.2388, 2994.648
677.1673, 2987.047
679.0958, 2962.607
681.0242, 2940.618
682.9527, 2923.258
684.8812, 2911.677
686.8096, 2910.741
688.7381, 2948.408
690.6666, 2960.576
692.5950, 2935.762
694.5235, 2872.657
696.4520, 2776.672
698.3804, 2629.109
700.3089, 2472.400
702.2374, 2315.787
704.1658, 2159.273
706.0943, 2030.993
708.0228, 1938.127
709.9512, 1869.972
711.8797, 1826.520
713.8082, 1817.538
715.7366, 1803.900
717.6651, 1782.084
719.5936, 1756.028
721.5220, 1729.176
723.4505, 1701.343
725.3790, 1673.461
727.3074, 1643.851
729.2359, 1614.742
731.1644, 1589.632
733.0928, 1567.406
735.0213, 1549.968
736.9498, 1542.239
738.8782, 1539.066
740.8067, 1528.907
742.7352, 1501.507
744.6636, 1484.723
746.5921, 1484.486
748.5206, 1500.921
750.4490, 1535.319
752.3775, 1573.761
754.3060, 1640.894
756.2344, 1739.119
758.1629, 1871.168
760.0914, 2059.280
762.0198, 2306.882
763.9483, 2616.135
765.8768, 3005.667
767.8052, 3521.028
769.7337, 3945.849
771.6622, 4350.250
773.5906, 4630.138
775.5191, 4682.172
777.4476, 4506.027
779.3760, 4248.334
781.3045, 3857.008
783.2330, 3440.187
785.1614, 3079.686
787.0899, 2780.610
789.0184, 2529.776
790.9468, 2328.526
792.8753, 2168.178
794.8038, 2046.434
796.7322, 1970.956
798.6607, 1904.017
800.5892, 1845.683
802.5176, 1789.471
804.4461, 1726.648
806.3746, 1652.248
808.3030, 1582.215
810.2315, 1520.304
812.1600, 1464.659
814.0884, 1411.170
816.0169, 1356.817
817.9454, 1309.113
819.8738, 1272.050
821.8023, 1242.463
823.7308, 1213.847
825.6592, 1184.023
827.5877, 1158.578
829.5162, 1136.791
831.4446, 1119.468
833.3731, 1110.943
835.3016, 1113.607
837.2300, 1121.597
839.1585, 1135.420
841.0870, 1154.339
843.0154, 1175.333
844.9439, 1200.351
846.8724, 1224.802
848.8008, 1251.146
850.7293, 1277.655
852.6578, 1290.656
854.5862, 1274.371
856.5147, 1260.666
858.4432, 1261.072
860.3716, 1272.542
862.3001, 1275.426
864.2286, 1265.790
866.1570, 1253.203
868.0855, 1240.970
870.0140, 1229.213
871.9424, 1218.222
873.8709, 1213.473
875.7994, 1203.179
877.7278, 1180.923
879.6563, 1147.612
881.5848, 1117.769
883.5132, 1095.689
885.4417, 1071.960
887.3702, 1039.060
889.2986, 1001.152
891.2271, 972.6328
893.1556, 959.5400
895.0840, 949.4336
897.0125, 937.6072
898.9410, 924.4644
900.8694, 913.8857
902.7979, 907.3810
904.7264, 901.6040
906.6548, 895.4868
908.5833, 889.3519
910.5118, 884.4502
912.4402, 881.5526
914.3687, 878.8024
916.2972, 876.5884
918.2256, 874.3219
920.1541, 868.9296
922.0826, 853.8187
924.0110, 843.7554
925.9395, 844.5621
927.8680, 853.3898
929.7964, 859.3489
931.7249, 861.9149
933.6534, 862.5218
935.5818, 859.5498
937.5103, 855.2050
939.4388, 853.3145
941.3672, 853.4749
943.2957, 857.8312
945.2242, 869.2101
947.1526, 884.5490
949.0811, 897.5511
951.0096, 908.1393
952.9380, 915.9897
954.8665, 914.4689
956.7950, 912.2136
958.7234, 925.0258
960.6519, 958.2928
962.5804, 985.4031
964.5089, 997.3649
966.4373, 1000.850
968.3658, 1002.063
970.2943, 1000.146
972.2227, 998.9656
974.1512, 1005.707
976.0797, 1009.199
978.0081, 997.0420
979.9366, 961.2532
981.8651, 932.1815
983.7935, 915.5233
985.7220, 902.4485
987.6505, 885.4774
989.5789, 864.7407
991.5074, 849.3041
993.4359, 843.3986
995.3643, 840.7780
997.2928, 838.0200
999.2213, 834.7947
1001.150, 835.6976
1003.078, 842.7811
1005.007, 851.7478
1006.935, 863.1972
1008.864, 876.0016
1010.792, 882.3548
1012.721, 875.9973
1014.649, 872.4136
1016.577, 881.2355
1018.506, 896.9142
1020.434, 907.3920
1022.363, 909.5000
1024.291, 911.6720
1026.220, 917.4432
1028.148, 924.4080
1030.077, 928.2318
1032.005, 924.7896
1033.934, 924.0957
1035.862, 931.2869
1037.791, 938.6837
1039.719, 936.5630
1041.647, 924.0750
1043.576, 911.9984
1045.504, 903.1428
1047.433, 894.5669
1049.361, 883.8552
1051.290, 870.7133
1053.218, 859.4338
1055.147, 851.8141
1057.075, 844.7787
1059.004, 838.0690
1060.932, 831.5184
1062.861, 821.7090
1064.789, 802.2681
1066.718, 787.4340
1068.646, 782.7066
1070.574, 785.5636
1072.503, 790.8528
1074.432, 800.9442
1076.360, 807.1429
1078.288, 801.4635
1080.217, 792.9261
1082.145, 793.0659
1084.074, 806.9269
1086.002, 816.2153
1087.931, 813.9237
1089.859, 810.4684
1091.788, 814.2940
1093.716, 827.0900
1095.645, 837.4908
1097.573, 845.2045
1099.502, 850.5826
1101.430, 852.8309
1103.359, 852.8986
1105.287, 853.6151
1107.215, 855.4648
1109.144, 858.0731
1111.072, 861.0663
1113.001, 864.9692
1114.929, 870.8721
1116.858, 879.9965
1118.786, 888.8907
1120.715, 896.7700
1122.643, 904.2175
1124.572, 912.2266
1126.500, 921.4627
1128.429, 927.1536
1130.357, 929.3367
1132.286, 927.5531
1134.214, 918.5682
1136.142, 904.7772
1138.071, 896.1951
1139.999, 898.1100
1141.928, 897.2656
1143.856, 884.3890
1145.785, 866.6526
1147.713, 859.1665
1149.642, 869.5783
1151.570, 875.0986
1153.499, 871.0023
1155.427, 862.7281
1157.356, 854.5231
1159.284, 846.1896
1161.213, 838.9340
1163.141, 831.7728
1165.069, 826.7589
1166.998, 826.6873
1168.926, 829.7343
1170.855, 829.2616
1172.783, 821.6354
1174.712, 818.0273
1176.640, 826.0048
1178.569, 838.3746
1180.497, 846.5674
1182.426, 850.0781
1184.354, 850.6428
1186.283, 845.3293
1188.211, 840.1939
1190.140, 839.6616
1192.068, 844.0262
1193.996, 846.0734
1195.925, 843.6941
1197.853, 841.9818
1199.782, 842.7374
1201.710, 845.1167
1203.639, 846.9237
1205.567, 847.3570
1207.496, 850.8344
1209.424, 861.2839
1211.353, 872.7052
1213.281, 879.5370
1215.210, 881.7856
1217.138, 888.0360
1219.067, 902.2630
1220.995, 916.0974
1222.923, 926.4194
1224.852, 934.2067
1226.780, 942.1804
1228.709, 952.6212
1230.637, 960.1722
1232.566, 961.6208
1234.494, 962.7007
1236.423, 970.6077
1238.351, 986.0692
1240.280, 991.4648
1242.208, 973.0552
1244.137, 961.6816
1246.065, 976.4824
1247.994, 1005.205
1249.922, 1025.268
1251.850, 1034.636
1253.779, 1041.940
1255.707, 1048.250
1257.636, 1054.103
1259.564, 1058.926
1261.493, 1062.432
1263.421, 1069.498
1265.350, 1085.923
1267.278, 1098.897
1269.207, 1101.626
1271.135, 1099.881
1273.064, 1104.672
1274.992, 1120.277
1276.921, 1135.159
1278.849, 1149.450
1280.777, 1163.047
1282.706, 1176.115
1284.634, 1188.412
1286.563, 1199.005
1288.491, 1208.014
1290.420, 1214.440
1292.348, 1210.159
1294.277, 1207.439
1296.205, 1223.013
1298.134, 1258.558
1300.062, 1284.921
1301.991, 1293.747
1303.919, 1297.350
1305.848, 1301.284
1307.776, 1304.713
1309.704, 1304.413
1311.633, 1299.173
1313.561, 1293.010
1315.490, 1286.356
1317.418, 1279.286
1319.347, 1272.445
1321.275, 1265.986
1323.204, 1256.486
1325.132, 1240.454
1327.061, 1226.084
1328.989, 1216.296
1330.918, 1208.586
1332.846, 1198.632
1334.775, 1185.647
1336.703, 1176.627
1338.631, 1176.374
1340.560, 1175.082
1342.488, 1167.444
1344.417, 1155.304
1346.345, 1141.846
1348.274, 1126.929
1350.202, 1112.753
1352.131, 1097.302
1354.059, 1085.789
1355.988, 1082.751
1357.916, 1087.480
1359.845, 1090.883
1361.773, 1089.053
1363.702, 1092.395
1365.630, 1108.370
1367.558, 1126.399
1369.487, 1135.512
1371.415, 1133.981
1373.344, 1132.813
1375.272, 1133.554
1377.201, 1132.596
1379.129, 1128.472
1381.058, 1122.255
1382.986, 1115.388
1384.915, 1107.676
1386.843, 1100.808
1388.772, 1099.101
1390.700, 1093.776
1392.629, 1076.402
1394.557, 1053.636
1396.485, 1040.163
1398.414, 1037.330
1400.342, 1035.925
1402.271, 1036.019
1404.199, 1034.897
1406.128, 1028.976
1408.056, 1020.974
1409.985, 1018.899
1411.913, 1025.411
1413.842, 1030.154
1415.770, 1027.252
1417.699, 1024.865
1419.627, 1028.981
1421.556, 1038.653
1423.484, 1044.925
1425.412, 1041.627
1427.341, 1046.875
1429.269, 1071.199
1431.198, 1098.775
1433.126, 1118.630
1435.055, 1130.810
1436.983, 1136.911
1438.912, 1126.245
1440.840, 1123.797
1442.769, 1138.317
1444.697, 1158.150
1446.626, 1172.131
1448.554, 1179.880
1450.483, 1191.205
1452.411, 1213.787
1454.339, 1229.676
1456.268, 1229.339
1458.196, 1225.516
1460.125, 1231.993
1462.053, 1248.520
1463.982, 1263.161
1465.910, 1276.902
1467.839, 1286.207
1469.767, 1285.664
1471.696, 1283.001
1473.624, 1285.698
1475.553, 1293.307
1477.481, 1303.461
1479.410, 1317.380
1481.338, 1330.358
1483.266, 1338.079
1485.195, 1345.996
1487.123, 1360.321
1489.052, 1380.172
1490.980, 1396.562
1492.909, 1406.692
1494.837, 1418.476
1496.766, 1438.396
1498.694, 1458.158
1500.623, 1468.488
1502.551, 1470.427
1504.480, 1479.871
1506.408, 1501.676
1508.337, 1522.080
1510.265, 1541.895
1512.193, 1555.514
1514.122, 1557.062
1516.050, 1547.131
1517.979, 1536.957
1519.907, 1527.193
1521.836, 1515.914
1523.764, 1502.921
1525.693, 1488.426
1527.621, 1471.260
1529.550, 1452.334
1531.478, 1436.924
1533.407, 1426.989
1535.335, 1417.283
1537.264, 1408.983
1539.192, 1398.988
1541.120, 1385.557
1543.049, 1368.911
1544.977, 1349.260
1546.906, 1320.384
1548.834, 1301.625
1550.763, 1305.605
1552.691, 1305.715
1554.620, 1290.510
1556.548, 1264.127
1558.477, 1232.450
1560.405, 1193.018
1562.334, 1158.103
1564.262, 1128.727
1566.191, 1102.624
1568.119, 1081.684
1570.047, 1062.144
1571.976, 1037.867
1573.904, 1008.666
1575.833, 986.7881
1577.761, 975.6793
1579.690, 965.8969
1581.618, 954.1873
1583.547, 943.6025
1585.475, 938.6137
1587.404, 937.4413
1589.332, 930.8167
1591.261, 917.4058
1593.189, 903.1506
1595.118, 885.1811
1597.046, 871.1920
1598.974, 868.7063
1600.903, 872.4202
1602.831, 869.7944
1604.760, 859.6042
1606.688, 856.2943
1608.617, 867.2864
1610.545, 876.6877
1612.474, 879.4686
1614.402, 876.2885
1616.331, 864.7660
1618.259, 846.4847
1620.188, 835.3588
1622.116, 833.1485
1624.045, 835.8881
1625.973, 846.9215
1627.901, 858.1736
1629.830, 865.7765
1631.758, 868.7581
1633.687, 862.0532
1635.615, 843.1340
1637.544, 831.2841
1639.472, 834.0057
1641.401, 838.5125
1643.329, 837.5072
1645.258, 835.8045
1647.186, 841.5319
1649.115, 853.6028
1651.043, 857.3064
1652.972, 848.2447
1654.900, 839.0857
1656.828, 833.6039
1658.757, 829.3932
1660.685, 824.1895
1662.614, 819.0692
1664.542, 817.0224
1666.471, 818.5401
1668.399, 820.4560
1670.328, 822.9948
1672.256, 824.7587
1674.185, 826.1598
1676.113, 825.6498
1678.042, 819.2510
1679.970, 808.5107
1681.899, 804.7141
1683.827, 810.5953
1685.755, 816.4340
1687.684, 820.4159
1689.612, 822.7532
1691.541, 824.3666
1693.469, 824.0174
1695.398, 817.4702
1697.326, 804.5440
1699.255, 799.2586
1701.183, 807.1403
1703.112, 813.9880
1705.040, 812.3036
1706.969, 810.0058
1708.897, 815.6423
1710.826, 825.4794
1712.754, 828.5386
1714.682, 823.6561
1716.611, 819.4655
1718.539, 818.7372
1720.468, 816.5034
1722.396, 808.0538
1724.325, 798.8849
1726.253, 794.9415
1728.182, 795.4094
1730.110, 796.4971
1732.039, 797.8309
1733.967, 800.9952
1735.896, 807.9980
1737.824, 814.8076
1739.753, 822.4633
1741.681, 827.1756
1743.609, 820.8133
1745.538, 804.7614
1747.466, 798.0327
1749.395, 805.1964
1751.323, 811.2078
1753.252, 814.2911
1755.180, 814.6821
1757.109, 809.4242
1759.037, 802.8945
1760.966, 802.2820
1762.894, 807.6638
1764.823, 811.6339
1766.751, 813.6904
1768.680, 814.9022
1770.608, 816.4315
1772.536, 816.2404
1774.465, 811.7531
1776.393, 805.9847
1778.322, 803.9885
1780.250, 806.1506
1782.179, 807.1593
1784.107, 804.7955
1786.036, 804.5251
1787.964, 807.0581
1789.893, 811.1552
1791.821, 817.5981
1793.750, 824.4929
1795.678, 829.6178
1797.607, 833.1035
1799.535, 832.0967
1801.464, 822.4042
1803.392, 816.2702
1805.320, 816.0118
1807.249, 817.7296
1809.177, 820.5863
1811.106, 823.8809
1813.034, 827.5612
1814.963, 831.5188
1816.891, 831.4438
1818.820, 825.7937
1820.748, 821.6280
1822.677, 821.2563
1824.605, 820.7554
1826.534, 818.1937
1828.462, 815.0931
1830.391, 811.7297
1832.319, 808.9432
1834.247, 811.5738
1836.176, 820.8431
1838.104, 825.3279
1840.033, 820.6268
1841.961, 816.7017
1843.890, 817.9743
1845.818, 820.7138
1847.747, 823.2210
1849.675, 824.6777
1851.604, 822.4333
1853.532, 816.5099
1855.461, 813.8511
1857.389, 817.2930
1859.318, 818.5511
1861.246, 810.4294
1863.174, 805.3237
1865.103, 815.2280
1867.031, 829.0573
1868.960, 828.5824
1870.888, 814.9520
1872.817, 809.5877
1874.745, 815.9322
1876.674, 821.5864
1878.602, 827.2762
1880.531, 830.0927
1882.459, 828.9839
1884.388, 825.0009
1886.316, 816.9777
1888.245, 807.1844
1890.173, 803.0754
1892.101, 806.6996
1894.030, 807.2212
1895.958, 800.3759
1897.887, 797.9037
1899.815, 802.3412
1901.744, 810.3405
1903.672, 824.3297
1905.601, 837.9937
1907.529, 841.7234
1909.458, 837.3308
1911.386, 837.5834
1913.315, 844.2593
1915.243, 844.6213
1917.172, 833.1080
1919.100, 824.0884
1921.028, 825.7443
1922.957, 828.3726
1924.885, 823.2374
1926.814, 815.8557
1928.742, 815.8130
1930.671, 822.1232
1932.599, 826.4407
1934.528, 828.6715
1936.456, 827.4995
1938.385, 816.3463
1940.313, 810.2313
1942.242, 818.0339
1944.170, 828.5283
1946.099, 833.5689
1948.027, 834.7260
1949.955, 834.4965
1951.884, 832.7745
1953.812, 833.6415
1955.741, 839.0246
1957.669, 843.0427
1959.598, 843.9940
1961.526, 844.5416
1963.455, 846.6048
1965.383, 846.7770
1967.312, 839.8968
1969.240, 830.1840
1971.169, 827.8425
1973.097, 832.4064
1975.026, 834.2582
1976.954, 832.0262
1978.882, 833.7402
1980.811, 846.2108
1982.739, 853.0977
1984.668, 839.6492
1986.596, 826.1426
1988.525, 830.3101
1990.453, 842.9086
1992.382, 847.3945
1994.310, 844.1106
1996.239, 843.7250
1998.167, 847.8560
2000.096, 850.5183
2002.024, 853.3792
2003.953, 852.3156
2005.881, 839.5317
2007.809, 830.7518
2009.738, 840.1150
2011.666, 855.6192
2013.595, 861.4272
2015.523, 858.5532
2017.452, 852.2274
2019.380, 841.6292
2021.309, 836.8340
2023.237, 841.2440
2025.166, 843.8784
2027.094, 839.3362
2029.023, 836.9430
2030.951, 846.2964
2032.880, 855.4537
2034.808, 848.5177
2036.736, 834.9168
2038.665, 838.8103
2040.593, 860.2101
2042.522, 867.3242
2044.450, 852.1710
2046.379, 841.7398
2048.307, 840.7204
2050.236, 839.6931
2052.164, 833.1549
2054.093, 830.4503
2056.021, 841.8254
2057.949, 856.3076
2059.878, 859.8995
2061.807, 855.2063
2063.735, 851.8893
2065.664, 849.9178
2067.592, 849.0992
2069.521, 849.4607
2071.449, 851.0080
2073.377, 855.4996
2075.306, 857.7765
2077.234, 852.1644
2079.163, 847.6259
2081.091, 851.6088
2083.020, 858.9446
2084.948, 863.3336
2086.877, 864.8910
2088.805, 863.9206
2090.734, 859.6954
2092.662, 857.8553
2094.591, 861.0836
2096.519, 861.1813
2098.448, 854.2398
2100.376, 849.7731
2102.304, 855.7977
2104.233, 858.9509
2106.161, 843.5727
2108.090, 826.8289
2110.018, 831.6526
2111.947, 849.8350
2113.875, 859.9586
2115.804, 861.8523
2117.732, 863.8865
2119.661, 866.6283
2121.589, 869.4214
2123.518, 873.1671
2125.446, 875.8882
2127.375, 875.0948
2129.303, 875.9208
2131.231, 883.7365
2133.160, 891.4679
2135.088, 891.2289
2137.017, 886.5442
2138.945, 885.9114
2140.874, 888.0381
2142.802, 882.8104
2144.731, 869.2747
2146.659, 866.6266
2148.588, 882.3492
2150.516, 891.6885
2152.445, 883.2415
2154.373, 875.5430
2156.302, 876.6381
2158.230, 877.6137
2160.158, 871.2328
2162.087, 862.5853
2164.015, 856.2641
2165.944, 853.2328
2167.872, 858.3358
2169.801, 871.1340
2171.729, 876.4797
2173.658, 873.3940
2175.586, 869.3885
2177.515, 862.9832
2179.443, 863.2190
2181.372, 877.9631
2183.300, 889.5643
2185.229, 891.7285
2187.157, 887.1708
2189.085, 869.3192
2191.014, 853.0100
2192.942, 861.8600
2194.871, 884.3650
2196.799, 889.8673
2198.728, 879.0592
2200.656, 869.7824
2202.585, 861.2554
2204.513, 864.0206
2206.442, 884.3458
2208.370, 891.9241
2210.299, 871.3405
2212.227, 856.2623
2214.156, 864.1129
2216.084, 873.9419
2218.012, 876.2198
2219.941, 874.2721
2221.869, 869.8632
2223.798, 864.0087
2225.726, 855.3391
2227.655, 846.4824
2229.583, 853.7789
2231.512, 876.7010
2233.440, 885.6349
2235.369, 877.3798
2237.297, 871.3704
2239.226, 870.9172
2241.154, 870.5580
2243.083, 868.5257
2245.011, 866.8181
2246.939, 864.9819
2248.868, 864.8936
2250.796, 870.1065
2252.725, 875.0933
2254.653, 873.6403
2256.582, 869.1213
2258.510, 866.7369
2260.439, 866.3536
2262.367, 866.9491
2264.296, 868.7852
2266.224, 874.8426
2268.153, 886.2917
2270.081, 892.0499
2272.010, 889.4097
2273.938, 884.2983
2275.866, 872.4050
2277.795, 865.6847
2279.723, 871.8860
2281.652, 877.0966
2283.580, 875.0223
2285.509, 870.4022
2287.437, 863.3130
2289.366, 858.4492
2291.294, 864.0660
2293.223, 874.2420
2295.151, 876.9034
2297.080, 873.6406
2299.008, 873.0726
2300.937, 875.3934
2302.865, 875.1542
2304.793, 869.2333
2306.722, 870.2106
2308.650, 882.2307
2310.579, 890.2876
2312.507, 890.5519
2314.436, 890.6490
2316.364, 885.5465
2318.293, 894.4936
2320.221, 899.5359
2322.150, 900.8833
2324.078, 887.4688
2326.007, 893.1161
2327.935, 891.1244
2329.864, 888.8194
2331.792, 897.1496
2333.720, 885.8822
2335.649, 894.0438
2337.577, 894.4496
2339.506, 898.4052
2341.434, 894.6743
2343.363, 891.5837
2345.291, 895.8848
2347.220, 895.3716
2349.148, 880.5960
2351.077, 875.6755
2353.005, 891.8835
2354.934, 904.0485
2356.862, 903.7960
2358.791, 902.9670
2360.719, 908.8455
2362.647, 911.5229
2364.576, 900.2719
2366.504, 887.7103
2368.433, 885.3570
2370.361, 888.4766
2372.290, 891.7062
2374.218, 894.9877
2376.147, 901.4254
2378.075, 908.1541
2380.004, 893.4737
2381.932, 860.0337
2383.861, 847.5550
2385.789, 857.6403
2387.718, 869.5423
2389.646, 882.2264
2391.574, 891.9714
2393.503, 898.3323
2395.431, 901.5544
2397.360, 900.1010
2399.288, 897.9780
2401.217, 892.7806
2403.145, 892.2321
2405.074, 903.1485
2407.002, 913.0952
2408.931, 914.3524
2410.859, 913.2879
2412.788, 914.4811
2414.716, 915.7321
2416.645, 915.9788
2418.573, 913.7702
2420.501, 901.9042
2422.430, 887.8857
2424.358, 894.2601
2426.287, 913.8671
2428.215, 918.7703
2430.144, 911.3743
2432.072, 911.8700
2434.001, 921.8988
2435.929, 925.0645
2437.858, 920.4678
2439.786, 910.1796
2441.715, 888.5809
2443.643, 878.8793
2445.572, 886.3271
2447.500, 894.6563
2449.428, 902.2440
2451.357, 906.3777
2453.285, 902.6359
2455.214, 901.1226
2457.142, 905.3243
2459.071, 912.4989
2460.999, 929.4056
2462.928, 938.7390
2464.856, 918.6221
2466.785, 899.2596
2468.713, 906.8826
2470.642, 922.8828
2472.570, 931.5287
2474.499, 934.2714
2476.427, 931.1677
2478.355, 924.8879
2480.284, 920.0969
2482.212, 916.9636
2484.141, 916.7245
2486.069, 918.4745
2487.998, 917.2527
2489.926, 913.4761
2491.855, 911.2913
2493.783, 910.6032
2495.712, 914.0634
2497.640, 924.2486
2499.569, 926.7401
2501.497, 918.9930
2503.426, 915.0140
2505.354, 916.3250
2507.282, 920.4754
2509.211, 929.2068
2511.139, 934.4532
2513.068, 938.4489
2514.996, 932.1498
2516.925, 895.3268
2518.853, 877.5067
2520.782, 905.2135
2522.710, 928.9907
2524.639, 928.3889
2526.567, 925.6975
2528.496, 932.0435
2530.424, 939.9374
2532.353, 949.6231
2534.281, 953.7656
2536.209, 942.7365
2538.138, 928.8497
2540.066, 917.7559
2541.995, 914.5147
2543.923, 933.5845
2545.852, 954.7926
2547.780, 950.4457
2549.709, 934.2836
2551.637, 926.8180
2553.566, 925.0118
2555.494, 922.0510
2557.423, 919.5084
2559.351, 924.2149
2561.280, 932.7453
2563.208, 931.5145
2565.136, 923.9160
2567.065, 931.3318
2568.993, 951.9068
2570.922, 957.7637
2572.850, 948.1797
2574.779, 948.7319
2576.707, 959.0254
2578.636, 958.8826
2580.564, 946.7820
2582.493, 940.5195
2584.421, 942.4150
2586.350, 945.9483
2588.278, 953.9111
2590.207, 953.1943
2592.135, 940.4163
2594.063, 936.0823
2595.992, 945.0988
2597.920, 948.7041
2599.849, 938.4984
2601.777, 935.9500
2603.706, 950.4050
2605.634, 961.5330
2607.563, 968.2424
2609.491, 969.5634
2611.420, 965.1346
2613.348, 956.3215
2615.277, 938.2914
2617.205, 926.9264
2619.134, 932.2672
2621.062, 936.6978
2622.990, 931.8665
2624.919, 930.1760
2626.847, 935.3779
2628.776, 943.5024
2630.704, 956.5084
2632.633, 966.3771
2634.561, 966.7133
2636.490, 967.0977
2638.418, 974.6366
2640.347, 980.2393
2642.275, 978.3108
2644.204, 974.4591
2646.132, 967.8981
2648.061, 965.2851
2649.989, 974.4829
2651.917, 984.4977
2653.846, 988.4723
2655.774, 989.5990
2657.703, 989.9800
2659.631, 989.0378
2661.560, 985.0529
2663.488, 981.1870
2665.417, 979.0618
2667.345, 979.1869
2669.274, 983.9600
2671.202, 988.9788
2673.131, 990.9349
2675.059, 990.1359
2676.988, 984.8110
2678.916, 979.3351
2680.844, 976.9048
2682.773, 978.0276
2684.701, 987.3217
2686.630, 996.4578
2688.558, 993.2125
2690.487, 987.0441
2692.415, 986.9902
2694.344, 991.0271
2696.272, 1000.268
2698.201, 1008.798
2700.129, 1008.242
2702.058, 1003.058
2703.986, 997.3561
2705.915, 992.0908
2707.843, 987.4836
2709.771, 984.9190
2711.700, 988.0599
2713.628, 992.7381
2715.557, 992.1303
2717.485, 990.3666
2719.414, 992.9326
2721.342, 997.9800
2723.271, 1004.734
2725.199, 1011.217
2727.128, 1015.743
2729.056, 1017.662
2730.985, 1013.901
2732.913, 1008.942
2734.842, 1010.311
2736.770, 1012.323
2738.698, 1003.568
2740.627, 995.4684
2742.555, 1007.611
2744.484, 1024.513
2746.412, 1027.919
2748.341, 1022.994
2750.269, 1011.039
2752.198, 999.5378
2754.126, 1000.608
2756.055, 1003.159
2757.983, 990.4393
2759.912, 976.5957
2761.840, 978.1713
2763.769, 985.3977
2765.697, 993.9186
2767.625, 998.0138
2769.554, 984.8707
2771.482, 972.8242
2773.411, 982.3820
2775.339, 997.4384
2777.268, 1010.138
2779.196, 1015.613
2781.125, 1003.439
2783.053, 990.7722
2784.982, 995.7025
2786.910, 999.8708
2788.839, 985.5339
2790.767, 972.0536
2792.696, 970.7679
2794.624, 974.9012
2796.552, 981.2924
2798.481, 990.0040
2800.409, 1007.317
2802.338, 1016.598
2804.266, 1002.935
2806.195, 991.9186
2808.123, 999.4855
2810.052, 1008.272
2811.980, 1011.047
2813.909, 1014.189
2815.837, 1021.760
2817.766, 1026.919
2819.694, 1029.317
2821.623, 1024.978
2823.551, 1002.803
2825.479, 990.3874
2827.408, 996.6564
2829.336, 1006.368
2831.265, 1018.888
2833.193, 1026.678
2835.122, 1019.450
2837.050, 1026.727
2838.979, 1060.849
2840.907, 1089.185
2842.836, 1107.125
2844.764, 1132.000
2846.693, 1169.377
2848.621, 1198.399
2850.550, 1215.864
2852.478, 1228.206
2854.406, 1235.235
2856.335, 1237.057
2858.263, 1233.264
2860.192, 1232.222
2862.120, 1234.371
2864.049, 1234.268
2865.977, 1231.881
2867.906, 1240.973
2869.834, 1257.967
2871.763, 1255.061
2873.691, 1237.127
2875.620, 1231.094
2877.548, 1233.704
2879.477, 1231.342
2881.405, 1226.354
2883.333, 1222.188
2885.262, 1222.454
2887.190, 1238.087
2889.119, 1260.319
2891.047, 1278.563
2892.976, 1289.488
2894.904, 1281.993
2896.833, 1272.258
2898.761, 1279.003
2900.690, 1289.232
2902.618, 1294.964
2904.547, 1293.771
2906.475, 1275.221
2908.404, 1263.183
2910.332, 1277.420
2912.260, 1293.906
2914.189, 1305.172
2916.117, 1308.263
2918.046, 1297.832
2919.974, 1290.730
2921.903, 1296.703
2923.831, 1298.081
2925.760, 1281.571
2927.688, 1278.353
2929.617, 1296.161
2931.545, 1303.760
2933.474, 1294.165
2935.402, 1285.714
2937.331, 1280.857
2939.259, 1277.954
2941.188, 1277.663
2943.116, 1260.171
2945.044, 1226.690
2946.973, 1203.714
2948.901, 1190.728
2950.830, 1179.634
2952.758, 1170.500
2954.687, 1163.576
2956.615, 1158.940
2958.544, 1157.858
2960.472, 1157.889
2962.401, 1155.530
2964.329, 1150.419
2966.258, 1140.081
2968.186, 1129.004
2970.115, 1120.820
2972.043, 1114.603
2973.971, 1115.405
2975.900, 1109.568
2977.828, 1082.236
2979.757, 1064.092
2981.685, 1078.597
2983.614, 1088.452
2985.542, 1076.524
2987.471, 1071.885
2989.399, 1081.231
2991.328, 1086.652
2993.256, 1084.756
2995.185, 1076.312
2997.113, 1058.404
2999.042, 1054.681
3000.970, 1065.176
3002.898, 1070.715
3004.827, 1071.212
3006.755, 1073.822
3008.684, 1078.076
3010.612, 1082.717
3012.541, 1086.287
3014.469, 1085.968
3016.398, 1082.507
3018.326, 1076.701
3020.255, 1069.041
3022.183, 1057.506
3024.112, 1048.085
3026.040, 1048.055
3027.969, 1047.545
3029.897, 1036.224
3031.825, 1031.206
3033.754, 1040.551
3035.682, 1049.891
3037.611, 1059.704
3039.539, 1057.468
3041.468, 1037.545
3043.396, 1018.477
3045.325, 1000.190
3047.253, 1010.023
3049.182, 1052.072
3051.110, 1055.161
3053.039, 1024.805
3054.967, 1017.835
3056.896, 1026.855
3058.824, 1033.049
3060.752, 1037.176
3062.681, 1039.534
3064.609, 1041.775
3066.538, 1047.732
3068.466, 1051.529
3070.395, 1044.708
3072.323, 1039.737
3074.252, 1047.284
3076.180, 1052.289
3078.109, 1048.297
3080.037, 1047.061
3081.966, 1057.611
3083.894, 1057.746
3085.823, 1043.609
3087.751, 1039.328
3089.679, 1046.811
3091.608, 1059.490
3093.536, 1074.487
3095.465, 1052.600
3097.393, 1011.972
3099.322, 1014.722
3101.250, 1039.102
3103.179, 1060.076
3105.107, 1070.787
3107.036, 1055.789
3108.964, 1037.022
3110.893, 1021.844
3112.821, 1019.155
3114.750, 1044.633
3116.678, 1063.034
3118.606, 1065.994
3120.535, 1064.391
3122.463, 1057.476
3124.392, 1057.073
3126.320, 1064.500
3128.249, 1061.127
3130.177, 1048.538
3132.106, 1041.141
3134.034, 1038.888
3135.963, 1042.702
3137.891, 1049.480
3139.820, 1055.137
3141.748, 1059.390
3143.677, 1062.172
3145.605, 1062.425
3147.533, 1055.759
3149.462, 1052.755
3151.390, 1058.478
3153.319, 1065.457
3155.247, 1075.041
3157.176, 1076.179
3159.104, 1067.702
3161.033, 1064.252
3162.961, 1066.991
3164.890, 1079.188
3166.818, 1095.083
3168.747, 1082.742
3170.675, 1063.091
3172.604, 1076.155
3174.532, 1094.142
3176.460, 1087.703
3178.389, 1073.775
3180.317, 1050.918
3182.246, 1043.664
3184.174, 1075.750
3186.103, 1096.437
3188.031, 1098.834
3189.960, 1094.461
3191.888, 1083.375
3193.817, 1077.333
3195.745, 1076.465
3197.674, 1087.993
3199.602, 1101.459
3201.531, 1086.091
3203.459, 1066.257
3205.387, 1080.058
3207.316, 1097.215
3209.244, 1095.489
3211.173, 1092.603
3213.101, 1099.823
3215.030, 1099.740
3216.958, 1088.154
3218.887, 1078.599
3220.815, 1072.798
3222.744, 1073.765
3224.672, 1080.748
3226.601, 1083.815
3228.529, 1085.693
3230.458, 1094.170
3232.386, 1103.944
3234.314, 1109.963
3236.243, 1110.911
3238.171, 1101.548
3240.100, 1094.335
3242.028, 1089.785
3243.957, 1100.608
3245.885, 1132.455
3247.814, 1149.603
3249.742, 1146.816
3251.671, 1151.150
3253.599, 1161.510
3255.528, 1176.446
3257.456, 1189.074
3259.385, 1184.745
3261.313, 1174.935
3263.241, 1170.087
3265.170, 1164.973
3267.098, 1157.138
3269.027, 1147.941
3270.955, 1137.136
3272.884, 1126.401
3274.812, 1115.688
3276.741, 1110.464
3278.669, 1110.822
3280.598, 1120.138
3282.526, 1132.700
3284.455, 1138.522
3286.383, 1138.996
3288.312, 1131.088
3290.240, 1125.343
3292.168, 1127.198
3294.097, 1131.326
3296.025, 1136.019
3297.954, 1145.195
3299.882, 1159.555
3301.811, 1149.599
3303.739, 1121.623
3305.668, 1129.200
3307.596, 1153.452
3309.525, 1155.320
3311.453, 1150.299
3313.382, 1153.149
3315.310, 1152.158
3317.239, 1138.734
3319.167, 1130.832
3321.095, 1134.581
3323.024, 1140.586
3324.952, 1148.473
3326.881, 1151.279
3328.809, 1150.238
3330.738, 1147.635
3332.666, 1147.712
3334.595, 1162.064
3336.523, 1175.107
3338.452, 1173.103
3340.380, 1172.621
3342.309, 1184.002
3344.237, 1178.762
3346.166, 1150.303
3348.094, 1141.041
3350.022, 1150.836
3351.951, 1166.847
3353.879, 1182.237
3355.808, 1184.537
3357.736, 1179.801
3359.665, 1165.357
3361.593, 1160.850
3363.522, 1182.383
3365.450, 1193.836
3367.379, 1186.361
3369.307, 1181.673
3371.236, 1180.160
3373.164, 1175.542
3375.093, 1170.751
3377.021, 1174.909
3378.949, 1181.615
3380.878, 1185.443
3382.806, 1188.288
3384.735, 1190.007
3386.663, 1194.642
3388.592, 1204.278
3390.520, 1205.850
3392.449, 1199.100
3394.377, 1195.833
3396.306, 1195.874
3398.234, 1203.189
3400.163, 1207.236
3402.091, 1194.429
3404.020, 1178.287
3405.948, 1158.091
3407.876, 1152.751
3409.805, 1168.937
3411.733, 1169.594
3413.662, 1157.157
3415.590, 1165.261
3417.519, 1178.820
3419.447, 1159.793
3421.376, 1139.150
3423.304, 1145.902
3425.233, 1149.395
3427.161, 1137.036
3429.090, 1131.192
3431.018, 1135.514
3432.947, 1138.776
3434.875, 1140.973
3436.803, 1145.378
3438.732, 1148.786
3440.660, 1147.314
3442.589, 1142.438
3444.517, 1133.334
3446.446, 1126.904
3448.374, 1127.073
3450.303, 1122.640
3452.231, 1115.448
3454.160, 1140.389
3456.088, 1173.122
3458.017, 1149.195
3459.945, 1120.369
3461.874, 1134.174
3463.802, 1146.926
3465.730, 1138.149
3467.659, 1130.948
3469.587, 1126.674
3471.516, 1120.133
3473.444, 1113.654
3475.373, 1118.106
3477.301, 1126.040
3479.230, 1132.662
3481.158, 1133.058
3483.087, 1120.376
3485.015, 1113.708
3486.944, 1116.529
3488.872, 1124.582
3490.801, 1134.369
3492.729, 1118.691
3494.657, 1098.374
3496.586, 1104.193
3498.514, 1114.156
3500.443, 1118.489
3502.371, 1118.525
3504.300, 1114.047
3506.228, 1105.236
3508.157, 1094.403
3510.085, 1098.141
3512.014, 1105.704
3513.942, 1095.796
3515.871, 1088.074
3517.799, 1096.545
3519.728, 1103.192
3521.656, 1102.974
3523.584, 1108.695
3525.513, 1118.768
3527.441, 1119.478
3529.370, 1113.913
3531.298, 1102.272
3533.227, 1094.510
3535.155, 1097.178
3537.084, 1105.857
3539.012, 1120.864
3540.941, 1123.832
3542.869, 1118.212
3544.798, 1141.248
3546.726, 1164.880
3548.655, 1145.932
3550.583, 1123.676
3552.511, 1119.206
3554.440, 1117.895
3556.368, 1117.972
3558.297, 1119.472
3560.225, 1122.510
3562.154, 1130.475
3564.082, 1136.561
3566.011, 1131.759
3567.939, 1123.877
3569.868, 1114.435
3571.796, 1109.531
3573.725, 1110.758
3575.653, 1107.293
3577.582, 1101.229
3579.510, 1097.168
3581.438, 1094.193
3583.367, 1091.868
3585.295, 1089.279
3587.224, 1083.562
3589.152, 1089.914
3591.081, 1106.154
3593.009, 1105.460
3594.938, 1098.990
3596.866, 1106.849
3598.795, 1112.666
3600.723, 1100.786
3602.652, 1106.966
3604.580, 1141.057
3606.509, 1139.166
3608.437, 1112.616
3610.365, 1102.729
3612.294, 1099.990
3614.222, 1092.930
3616.151, 1094.073
3618.079, 1116.418
3620.008, 1123.074
3621.936, 1114.208
3623.865, 1103.163
3625.793, 1093.010
3627.722, 1089.094
3629.650, 1087.307
3631.579, 1081.169
3633.507, 1089.551
3635.436, 1114.412
3637.364, 1126.182
3639.292, 1125.975
3641.221, 1114.614
3643.149, 1100.832
3645.078, 1083.547
3647.006, 1086.230
3648.935, 1117.528
3650.863, 1124.883
3652.792, 1109.938
3654.720, 1100.680
3656.649, 1096.001
3658.577, 1096.813
3660.506, 1096.527
3662.434, 1092.110
3664.363, 1088.504
3666.291, 1086.865
3668.219, 1097.162
3670.148, 1109.849
3672.076, 1108.761
3674.005, 1104.495
3675.933, 1103.170
3677.862, 1096.716
3679.790, 1084.388
3681.719, 1078.232
3683.647, 1077.168
3685.576, 1079.967
3687.504, 1083.857
3689.433, 1087.510
3691.361, 1091.858
3693.290, 1097.043
3695.218, 1098.945
3697.146, 1096.997
3699.075, 1086.265
3701.003, 1076.791
3702.932, 1072.338
3704.860, 1083.671
3706.789, 1114.152
3708.717, 1117.802
3710.646, 1103.527
3712.574, 1102.550
3714.503, 1106.668
3716.431, 1115.172
3718.360, 1110.917
3720.288, 1088.815
3722.217, 1099.141
3724.145, 1128.748
3726.073, 1121.938
3728.002, 1109.399
3729.930, 1119.311
3731.859, 1122.715
3733.787, 1113.873
3735.716, 1106.511
3737.644, 1103.679
3739.573, 1121.240
3741.501, 1136.144
3743.430, 1127.615
3745.358, 1116.400
3747.287, 1106.146
3749.215, 1094.394
3751.144, 1084.001
3753.072, 1086.659
3755.000, 1091.375
3756.929, 1090.691
3758.857, 1088.928
3760.786, 1086.861
3762.714, 1088.057
3764.643, 1090.420
3766.571, 1082.940
3768.500, 1083.067
3770.428, 1113.575
3772.357, 1123.712
3774.285, 1109.670
3776.214, 1110.854
3778.142, 1116.649
3780.071, 1099.497
3781.999, 1087.705
3783.927, 1103.263
3785.856, 1108.386
3787.784, 1103.329
3789.713, 1112.815
3791.641, 1123.598
3793.570, 1115.668
3795.498, 1106.029
3797.427, 1100.113
3799.355, 1097.616
3801.284, 1097.694
3803.212, 1095.062
3805.141, 1094.614
3807.069, 1102.399
3808.998, 1109.029
3810.926, 1111.788
3812.854, 1119.762
3814.783, 1128.502
3816.711, 1125.713
3818.640, 1117.442
3820.568, 1103.366
3822.497, 1100.188
3824.425, 1109.060
3826.354, 1108.364
3828.282, 1105.037
3830.211, 1116.043
3832.139, 1116.820
3834.068, 1091.319
3835.996, 1085.065
3837.925, 1095.844
3839.853, 1100.814
3841.781, 1104.000
3843.710, 1109.571
3845.638, 1114.054
3847.567, 1116.986
3849.495, 1117.594
3851.424, 1116.431
3853.352, 1111.803
3855.281, 1113.451
3857.209, 1129.021
3859.138, 1134.349
3861.066, 1128.015
3862.995, 1126.858
3864.923, 1126.772
3866.852, 1122.367
3868.780, 1120.431
3870.708, 1122.654
3872.637, 1131.834
3874.565, 1139.654
3876.494, 1128.425
3878.422, 1114.374
3880.351, 1101.742
3882.279, 1102.316
3884.208, 1113.175
3886.136, 1127.961
3888.065, 1131.968
3889.993, 1098.241
3891.922, 1084.884
3893.850, 1101.973
3895.779, 1105.756
3897.707, 1105.957
3899.635, 1126.050
3901.564, 1136.719
3903.492, 1116.273
3905.421, 1108.523
3907.349, 1115.523
3909.278, 1130.060
3911.206, 1140.992
3913.135, 1132.836
3915.063, 1127.001
3916.992, 1130.316
3918.920, 1128.050
3920.849, 1124.793
3922.777, 1114.157
3924.706, 1109.341
3926.634, 1120.111
3928.563, 1123.098
3930.491, 1119.633
3932.419, 1132.497
3934.348, 1142.315
3936.276, 1137.593
3938.205, 1129.593
3940.133, 1121.808
3942.062, 1139.180
3943.990, 1153.885
3945.919, 1137.770
3947.847, 1126.164
3949.776, 1127.684
3951.704, 1136.551
3953.633, 1139.111
3955.561, 1142.979
3957.490, 1142.518
3959.418, 1130.198
3961.346, 1123.756
3963.275, 1121.603
3965.203, 1123.035
3967.132, 1122.087
3969.060, 1111.328
3970.989, 1120.465
3972.917, 1140.758
3974.846, 1127.993
3976.774, 1119.351
3978.703, 1137.661
3980.631, 1150.513
3982.560, 1148.023
3984.488, 1141.252
3986.417, 1141.814
3988.345, 1156.119
3990.273, 1160.196
3992.202, 1150.345
3994.130, 1140.893
3996.059, 1134.092
3997.987, 1134.010
3999.916, 1136.431
4001.844, 1134.371
4003.773, 1131.180
4005.701, 1133.221
4007.630, 1142.637
4009.558, 1150.047
4011.487, 1153.081
4013.415, 1153.168
4015.344, 1149.148
4017.272, 1134.672
4019.200, 1129.202
4021.129, 1139.717
4023.057, 1142.844
4024.986, 1140.102
4026.914, 1140.839
4028.843, 1139.808
4030.771, 1130.633
4032.700, 1130.634
4034.628, 1139.421
4036.557, 1147.763
4038.485, 1149.441
4040.414, 1133.991
4042.342, 1131.522
4044.271, 1142.331
4046.199, 1144.597
4048.127, 1146.339
4050.056, 1155.237
4051.984, 1159.098
4053.913, 1156.002
4055.841, 1150.094
4057.770, 1148.118
4059.698, 1155.193
4061.627, 1159.290
4063.555, 1153.448
4065.484, 1150.870
4067.412, 1154.834
4069.341, 1156.726
4071.269, 1160.630
4073.198, 1164.137
4075.126, 1158.908
4077.054, 1155.065
4078.983, 1157.911
4080.911, 1156.034
4082.840, 1143.711
4084.768, 1138.729
4086.697, 1142.222
4088.625, 1153.221
4090.554, 1166.318
4092.482, 1163.043
4094.411, 1163.234
4096.339, 1170.583
4098.268, 1165.396
4100.196, 1157.227
4102.125, 1146.712
4104.053, 1152.081
4105.981, 1170.122
4107.910, 1161.133
4109.838, 1138.383
4111.767, 1143.145
4113.695, 1161.450
4115.624, 1162.537
4117.552, 1160.931
4119.481, 1167.076
4121.409, 1170.061
4123.338, 1166.990
4125.266, 1164.789
4127.195, 1165.920
4129.123, 1164.909
4131.052, 1164.709
4132.980, 1171.201
4134.909, 1175.037
4136.837, 1175.896
4138.766, 1186.498
4140.694, 1184.322
4142.623, 1177.318
4144.551, 1186.771
4146.479, 1196.262
4148.408, 1189.371
4150.336, 1180.700
4152.265, 1178.143
4154.193, 1180.883
4156.122, 1181.651
4158.050, 1179.259
4159.979, 1186.587
4161.907, 1193.719
4163.835, 1188.674
4165.764, 1185.165
4167.692, 1187.595
4169.621, 1180.764
4171.549, 1175.403
4173.478, 1179.660
4175.406, 1181.311
4177.335, 1182.056
4179.263, 1173.570
4181.192, 1170.412
4183.120, 1203.588
4185.049, 1222.625
4186.977, 1201.564
4188.906, 1201.891
4190.834, 1213.268
4192.763, 1214.024
4194.691, 1216.581
4196.620, 1223.513
4198.548, 1220.320
4200.477, 1213.974
4202.405, 1220.689
4204.333, 1220.344
4206.262, 1206.316
4208.190, 1201.047
4210.119, 1203.466
4212.047, 1217.068
4213.976, 1218.460
4215.904, 1203.143
4217.833, 1214.502
4219.761, 1230.277
4221.689, 1217.626
4223.618, 1214.849
4225.546, 1226.345
4227.475, 1212.308
4229.403, 1202.127
4231.332, 1240.449
4233.260, 1254.721
4235.189, 1239.609
4237.117, 1239.551
4239.046, 1243.131
4240.974, 1237.133
4242.903, 1238.619
4244.831, 1247.344
4246.760, 1252.216
4248.688, 1254.625
4250.617, 1256.829
4252.545, 1250.115
4254.474, 1239.606
4256.402, 1248.170
4258.331, 1261.599
4260.259, 1273.345
4262.188, 1280.287
4264.116, 1279.023
4266.044, 1252.859
4267.973, 1235.358
4269.901, 1239.676
4271.830, 1242.411
4273.758, 1246.274
4275.687, 1259.915
4277.615, 1277.509
4279.543, 1296.784
4281.472, 1288.724
4283.400, 1272.742
4285.329, 1275.321
4287.257, 1280.380
4289.186, 1283.686
4291.114, 1262.858
4293.043, 1255.110
4294.971, 1310.994
4296.900, 1325.661
4298.828, 1301.735
4300.757, 1302.805
4302.685, 1306.043
4304.614, 1295.291
4306.542, 1291.353
4308.471, 1294.168
4310.399, 1303.221
4312.328, 1307.789
4314.256, 1303.195
4316.185, 1304.846
4318.113, 1307.177
4320.042, 1298.315
4321.970, 1292.310
4323.898, 1292.329
4325.827, 1301.189
4327.755, 1309.216
4329.684, 1305.094
4331.612, 1305.580
4333.541, 1309.031
4335.469, 1289.681
4337.397, 1281.254
4339.326, 1314.932
4341.254, 1312.206
4343.183, 1293.309
4345.111, 1319.865
4347.040, 1324.262
4348.968, 1282.118
4350.897, 1266.962
4352.825, 1284.151
4354.754, 1370.788
4356.682, 1366.429
4358.611, 1273.840
4360.539, 1298.898
4362.468, 1337.481
4364.396, 1332.026
4366.325, 1333.763
4368.253, 1336.352
4370.182, 1304.593
4372.110, 1292.721
4374.039, 1312.573
4375.967, 1324.064
4377.896, 1325.131
4379.824, 1309.132
4381.752, 1306.477
4383.681, 1316.275
4385.609, 1318.095
4387.538, 1321.797
4389.466, 1336.146
4391.395, 1328.074
4393.323, 1312.357
4395.251, 1319.006
4397.180, 1325.238
4399.108, 1325.902
4401.037, 1319.730
4402.965, 1317.881
4404.894, 1335.862
4406.822, 1334.095
4408.751, 1317.571
4410.679, 1308.002
4412.608, 1299.986
4414.536, 1291.456
4416.465, 1305.607
4418.393, 1322.664
4420.322, 1317.941
4422.250, 1327.740
4424.179, 1347.755
4426.107, 1339.177
4428.036, 1324.170
4429.964, 1312.059
4431.893, 1310.306
4433.821, 1312.478
4435.750, 1308.544
4437.678, 1306.333
4439.606, 1307.464
4441.535, 1315.305
4443.463, 1320.181
4445.392, 1315.021
4447.320, 1307.993
4449.249, 1304.748
4451.177, 1316.682
4453.105, 1329.980
4455.034, 1341.272
4456.962, 1350.272
4458.891, 1347.447
4460.819, 1325.626
4462.748, 1315.235
4464.676, 1311.386
4466.605, 1299.296
4468.533, 1292.061
4470.462, 1293.719
4472.390, 1318.821
4474.319, 1339.163
4476.247, 1330.350
4478.176, 1324.024
4480.104, 1321.645
4482.033, 1325.644
4483.961, 1333.024
4485.890, 1341.915
4487.818, 1330.758
4489.747, 1328.547
4491.675, 1353.383
4493.604, 1336.743
4495.532, 1303.577
4497.460, 1292.224
4499.389, 1297.384
4501.317, 1313.439
4503.246, 1315.363
4505.174, 1314.676
4507.103, 1318.292
4509.031, 1310.588
4510.959, 1305.028
4512.888, 1324.338
4514.816, 1322.192
4516.745, 1302.623
4518.673, 1308.309
4520.602, 1301.273
4522.530, 1272.201
4524.459, 1290.904
4526.387, 1315.981
4528.316, 1300.973
4530.244, 1302.253
4532.173, 1312.689
4534.101, 1304.279
4536.030, 1299.431
4537.958, 1303.019
4539.887, 1305.062
4541.815, 1307.019
4543.744, 1309.916
4545.672, 1315.586
4547.601, 1315.134
4549.529, 1286.890
4551.458, 1282.097
4553.386, 1298.690
4555.314, 1304.656
4557.243, 1299.253
4559.171, 1279.752
4561.100, 1272.878
4563.028, 1282.292
4564.957, 1318.717
4566.885, 1314.199
4568.813, 1284.511
4570.742, 1254.868
4572.670, 1257.054
4574.599, 1287.270
4576.527, 1296.766
4578.456, 1295.846
4580.384, 1288.746
4582.313, 1269.545
4584.241, 1258.964
4586.170, 1282.358
4588.098, 1271.636
4590.027, 1246.875
4591.955, 1264.489
4593.884, 1284.836
4595.812, 1296.061
4597.741, 1274.933
4599.669, 1251.806
4601.598, 1237.221
4603.526, 1269.424
4605.455, 1303.828
4607.383, 1302.670
4609.312, 1283.469
4611.240, 1258.817
4613.168, 1240.056
4615.097, 1245.764
4617.025, 1271.834
4618.954, 1284.454
4620.882, 1292.451
4622.811, 1299.742
4624.739, 1276.505
4626.667, 1257.070
4628.596, 1265.694
4630.524, 1279.952
4632.453, 1281.651
4634.381, 1231.967
4636.310, 1227.499
4638.238, 1258.363
4640.167, 1254.577
4642.095, 1255.905
4644.024, 1269.665
4645.952, 1271.768
4647.881, 1261.401
4649.809, 1238.126
4651.738, 1247.340
4653.666, 1260.024
4655.595, 1241.919
4657.523, 1237.894
4659.452, 1239.253
4661.380, 1225.032
4663.309, 1223.204
4665.237, 1231.976
4667.166, 1232.767
4669.094, 1237.621
4671.022, 1247.321
4672.951, 1219.224
4674.879, 1206.076
4676.808, 1233.784
4678.736, 1225.664
4680.665, 1212.053
4682.593, 1219.365
4684.521, 1227.615
4686.450, 1232.222
4688.378, 1222.830
4690.307, 1233.706
4692.235, 1252.530
4694.164, 1232.461
4696.092, 1220.124
4698.021, 1223.285
4699.949, 1238.184
4701.878, 1244.215
4703.806, 1233.542
4705.735, 1235.713
4707.663, 1240.990
4709.592, 1244.532
4711.520, 1226.108
4713.449, 1207.908
4715.377, 1213.899
4717.306, 1212.592
4719.234, 1211.202
4721.163, 1225.575
4723.091, 1226.190
4725.020, 1218.357
4726.948, 1225.197
4728.876, 1220.667
4730.805, 1206.883
4732.733, 1215.636
4734.662, 1217.410
4736.590, 1205.923
4738.519, 1224.117
4740.447, 1232.317
4742.375, 1216.159
4744.304, 1212.826
4746.232, 1217.354
4748.161, 1228.571
4750.089, 1222.579
4752.018, 1210.342
4753.946, 1200.533
4755.875, 1196.703
4757.803, 1199.799
4759.732, 1215.341
4761.660, 1219.410
4763.589, 1217.891
4765.517, 1228.727
4767.446, 1226.006
4769.374, 1214.691
4771.303, 1216.543
4773.231, 1226.400
4775.160, 1238.269
4777.088, 1224.443
4779.017, 1216.288
4780.945, 1219.636
4782.874, 1218.498
4784.802, 1212.074
4786.730, 1200.139
4788.659, 1208.363
4790.587, 1215.092
4792.516, 1210.116
4794.444, 1196.556
4796.373, 1189.898
4798.301, 1204.641
4800.229, 1220.161
4802.158, 1227.092
4804.086, 1216.207
4806.015, 1218.198
4807.943, 1223.974
4809.872, 1220.021
4811.800, 1220.044
4813.729, 1216.911
4815.657, 1195.766
4817.586, 1199.208
4819.514, 1212.866
4821.443, 1201.519
4823.371, 1208.930
4825.300, 1221.402
4827.228, 1191.955
4829.157, 1182.644
4831.085, 1189.199
4833.014, 1172.662
4834.942, 1168.009
4836.871, 1176.974
4838.799, 1183.484
4840.728, 1190.841
4842.656, 1197.079
4844.584, 1192.253
4846.513, 1181.581
4848.441, 1172.244
4850.370, 1211.898
4852.298, 1218.766
4854.227, 1184.965
4856.155, 1192.905
4858.083, 1196.116
4860.012, 1180.953
4861.940, 1187.580
4863.869, 1194.573
4865.797, 1195.114
4867.726, 1199.510
4869.654, 1199.008
4871.583, 1190.431
4873.511, 1174.061
4875.440, 1168.142
4877.368, 1179.474
4879.297, 1192.450
4881.225, 1201.855
4883.154, 1204.950
4885.082, 1188.206
4887.011, 1181.068
4888.939, 1198.648
4890.868, 1194.764
4892.796, 1187.659
4894.725, 1185.528
4896.653, 1176.832
4898.582, 1168.996
4900.510, 1165.860
4902.438, 1174.731
4904.367, 1180.947
4906.295, 1178.048
4908.224, 1169.150
4910.152, 1171.664
4912.081, 1196.635
4914.009, 1180.876
4915.938, 1164.447
4917.866, 1164.723
4919.794, 1155.013
4921.723, 1158.173
4923.651, 1184.046
4925.580, 1204.061
4927.508, 1206.767
4929.437, 1188.137
4931.365, 1177.197
4933.294, 1168.075
4935.222, 1159.647
4937.151, 1166.986
4939.079, 1177.190
4941.008, 1184.478
4942.936, 1185.709
4944.865, 1180.120
4946.793, 1170.222
4948.722, 1172.246
4950.650, 1178.382
4952.579, 1183.615
4954.507, 1166.097
4956.436, 1150.644
4958.364, 1146.349
4960.292, 1164.504
4962.221, 1181.000
4964.149, 1189.292
4966.078, 1187.292
4968.006, 1182.463
4969.935, 1177.173
4971.863, 1171.044
4973.792, 1176.009
4975.720, 1187.707
4977.648, 1194.577
4979.577, 1183.435
4981.505, 1164.231
4983.434, 1160.063
4985.362, 1163.252
4987.291, 1167.039
4989.219, 1161.590
4991.148, 1160.051
4993.076, 1160.027
4995.005, 1150.734
4996.933, 1174.590
4998.862, 1195.133
5000.790, 1169.879
5002.719, 1163.505
5004.647, 1161.934
5006.576, 1147.142
5008.504, 1157.800
5010.433, 1170.649
5012.361, 1169.115
5014.290, 1173.065
5016.218, 1171.570
5018.146, 1160.915
5020.075, 1160.940
5022.003, 1162.393
5023.932, 1161.404
5025.860, 1162.354
5027.789, 1169.748
5029.717, 1176.366
5031.646, 1126.736
5033.574, 1117.774
5035.502, 1148.891
5037.431, 1167.878
5039.359, 1164.909
5041.288, 1156.869
5043.216, 1185.392
5045.145, 1186.420
5047.073, 1171.741
5049.002, 1165.509
5050.930, 1175.353
5052.859, 1182.179
5054.787, 1159.320
5056.716, 1170.240
5058.644, 1182.275
5060.573, 1174.965
5062.501, 1171.277
5064.430, 1165.034
5066.358, 1155.423
5068.287, 1181.340
5070.215, 1186.538
5072.144, 1163.546
5074.072, 1174.518
5076.000, 1173.225
5077.929, 1159.631
5079.857, 1156.691
5081.786, 1165.134
5083.714, 1173.296
5085.643, 1156.145
5087.571, 1162.266
5089.500, 1178.385
5091.428, 1188.322
5093.356, 1189.605
5095.285, 1180.405
5097.213, 1159.506
5099.142, 1155.173
5101.070, 1160.690
5102.999, 1172.587
5104.927, 1195.459
5106.856, 1199.819
5108.784, 1187.688
5110.713, 1189.153
5112.641, 1175.005
5114.570, 1159.685
5116.498, 1183.481
5118.427, 1194.015
5120.355, 1188.114
5122.284, 1166.142
5124.212, 1168.396
5126.141, 1174.503
5128.069, 1170.727
5129.998, 1185.323
5131.926, 1191.511
5133.854, 1183.164
5135.783, 1188.128
5137.711, 1195.019
5139.640, 1193.786
5141.568, 1159.800
5143.497, 1146.441
5145.425, 1150.691
5147.354, 1165.639
5149.282, 1171.679
5151.210, 1169.479
5153.139, 1160.531
5155.067, 1173.410
5156.996, 1186.306
5158.924, 1188.999
5160.853, 1175.368
5162.781, 1163.911
5164.710, 1159.445
5166.638, 1162.847
5168.567, 1171.488
5170.495, 1176.313
5172.424, 1166.677
5174.352, 1159.782
5176.281, 1169.039
5178.209, 1200.242
5180.138, 1171.811
5182.066, 1156.958
5183.995, 1172.713
5185.923, 1174.300
5187.852, 1174.676
5189.780, 1174.214
5191.708, 1167.487
5193.637, 1173.477
5195.565, 1177.647
5197.494, 1162.703
5199.422, 1173.658
5201.351, 1178.262
5203.279, 1164.715
5205.208, 1143.095
5207.136, 1154.489
5209.064, 1184.104
5210.993, 1183.455
5212.921, 1172.730
5214.850, 1164.387
5216.778, 1171.371
5218.707, 1162.621
5220.635, 1163.667
5222.564, 1182.618
5224.492, 1191.236
5226.421, 1188.126
5228.349, 1185.366
5230.278, 1223.485
5232.206, 1206.855
5234.135, 1173.530
5236.063, 1169.600
5237.992, 1175.629
5239.920, 1190.121
5241.849, 1206.862
5243.777, 1188.588
5245.706, 1186.008
5247.634, 1195.214
5249.563, 1182.834
5251.491, 1176.442
5253.419, 1175.331
5255.348, 1176.709
5257.276, 1190.986
5259.205, 1199.844
5261.133, 1196.647
5263.062, 1180.755
5264.990, 1166.597
5266.918, 1161.349
5268.847, 1175.144
5270.775, 1187.661
5272.704, 1190.156
5274.632, 1179.929
5276.561, 1194.095
5278.489, 1198.221
5280.418, 1191.282
5282.346, 1195.686
5284.275, 1194.404
5286.203, 1189.866
5288.132, 1185.418
5290.060, 1191.792
5291.989, 1184.582
5293.917, 1161.694
5295.846, 1153.574
5297.774, 1174.022
5299.703, 1204.496
5301.631, 1219.746
5303.560, 1209.317
5305.488, 1192.472
5307.417, 1180.677
5309.345, 1173.001
5311.273, 1197.129
5313.202, 1224.527
5315.130, 1188.405
5317.059, 1180.474
5318.987, 1187.402
5320.916, 1193.047
5322.844, 1203.895
5324.772, 1194.290
5326.701, 1174.663
5328.629, 1193.499
5330.558, 1201.847
5332.486, 1198.210
5334.415, 1186.730
5336.343, 1188.777
5338.272, 1199.407
5340.200, 1209.987
5342.129, 1197.551
5344.057, 1210.685
5345.986, 1225.152
5347.914, 1214.028
5349.843, 1214.821
5351.771, 1200.094
5353.700, 1167.682
5355.628, 1129.596
5357.557, 1150.689
5359.485, 1188.772
5361.414, 1200.120
5363.342, 1208.114
5365.271, 1208.743
5367.199, 1202.866
5369.127, 1193.642
5371.056, 1203.560
5372.984, 1217.219
5374.913, 1219.527
5376.841, 1205.438
5378.770, 1201.009
5380.698, 1200.023
5382.626, 1159.024
5384.555, 1180.073
5386.483, 1205.643
5388.412, 1187.320
5390.340, 1214.078
5392.269, 1219.456
5394.197, 1203.357
5396.126, 1199.856
5398.054, 1196.254
5399.983, 1204.582
5401.911, 1225.135
5403.840, 1206.868
5405.768, 1203.595
5407.697, 1210.831
5409.625, 1207.238
5411.554, 1176.296
5413.482, 1187.350
5415.411, 1245.066
5417.339, 1224.771
5419.268, 1212.141
5421.196, 1214.399
5423.125, 1223.370
5425.053, 1213.330
5426.981, 1217.023
5428.910, 1226.599
5430.838, 1181.216
5432.767, 1185.583
5434.695, 1206.357
5436.624, 1215.596
5438.552, 1202.946
5440.480, 1209.241
5442.409, 1222.632
5444.337, 1214.239
5446.266, 1195.979
5448.194, 1193.230
5450.123, 1206.848
5452.051, 1203.917
5453.980, 1200.503
5455.908, 1201.747
5457.837, 1210.278
5459.765, 1206.245
5461.694, 1220.923
5463.622, 1245.566
5465.551, 1253.296
5467.479, 1230.210
5469.408, 1213.841
5471.336, 1214.820
5473.265, 1201.384
5475.193, 1200.943
5477.122, 1206.046
5479.050, 1207.667
5480.979, 1233.512
5482.907, 1239.268
5484.835, 1227.243
5486.764, 1219.078
5488.692, 1234.219
5490.621, 1227.275
5492.549, 1196.337
5494.478, 1199.849
5496.406, 1203.534
5498.334, 1208.702
5500.263, 1217.223
5502.191, 1199.727
5504.120, 1211.312
5506.048, 1231.030
5507.977, 1208.427
5509.905, 1233.588
5511.834, 1247.321
5513.762, 1235.698
5515.691, 1211.483
5517.619, 1218.392
5519.548, 1241.053
5521.476, 1256.979
5523.405, 1202.740
5525.333, 1213.099
5527.262, 1244.587
5529.190, 1247.774
5531.119, 1227.710
5533.047, 1223.776
5534.976, 1235.690
5536.904, 1252.848
5538.833, 1251.440
5540.761, 1246.572
5542.689, 1245.239
5544.618, 1251.752
5546.546, 1234.611
5548.475, 1222.275
5550.403, 1224.130
5552.332, 1218.886
5554.260, 1225.631
5556.188, 1231.552
5558.117, 1228.490
5560.045, 1227.732
5561.974, 1249.949
5563.902, 1268.412
5565.831, 1255.999
5567.759, 1262.021
5569.688, 1261.503
5571.616, 1252.037
5573.545, 1238.635
5575.473, 1228.503
5577.402, 1233.799
5579.330, 1245.021
5581.259, 1241.494
5583.187, 1229.682
5585.116, 1231.168
5587.044, 1241.540
5588.973, 1222.117
5590.901, 1222.334
5592.830, 1239.815
5594.758, 1259.693
5596.687, 1238.048
5598.615, 1237.778
5600.543, 1235.623
5602.472, 1222.124
5604.400, 1241.196
5606.329, 1255.771
5608.257, 1261.259
5610.186, 1258.932
5612.114, 1249.076
5614.042, 1245.657
5615.971, 1248.566
5617.899, 1255.694
5619.828, 1268.100
5621.756, 1280.859
5623.685, 1282.377
5625.613, 1262.838
5627.542, 1266.078
5629.470, 1272.555
5631.399, 1281.388
5633.327, 1295.222
5635.256, 1287.074
5637.184, 1278.851
5639.113, 1281.314
5641.041, 1297.991
5642.970, 1261.405
5644.898, 1274.674
5646.827, 1311.186
5648.755, 1299.233
5650.684, 1295.041
5652.612, 1290.799
5654.541, 1281.051
5656.469, 1259.141
5658.397, 1266.356
5660.326, 1273.579
5662.254, 1272.644
5664.183, 1265.167
5666.111, 1284.505
5668.040, 1294.208
5669.968, 1294.278
5671.896, 1299.243
5673.825, 1307.777
5675.753, 1300.733
5677.682, 1284.922
5679.610, 1275.830
5681.539, 1307.800
5683.467, 1306.891
5685.396, 1289.758
5687.324, 1308.044
5689.253, 1312.334
5691.181, 1299.670
5693.110, 1282.742
5695.038, 1276.909
5696.967, 1306.363
5698.895, 1312.291
5700.824, 1307.769
5702.752, 1319.255
5704.681, 1315.347
5706.609, 1315.147
5708.538, 1307.102
5710.466, 1284.525
5712.395, 1311.505
5714.323, 1322.767
5716.251, 1318.217
5718.180, 1310.892
5720.108, 1327.771
5722.037, 1318.873
5723.965, 1308.105
5725.894, 1312.727
5727.822, 1315.471
5729.750, 1297.015
5731.679, 1277.613
5733.607, 1276.370
5735.536, 1326.822
5737.464, 1304.087
5739.393, 1279.089
5741.321, 1285.618
5743.250, 1312.822
5745.178, 1331.054
5747.107, 1322.005
5749.035, 1301.689
5750.964, 1303.466
5752.892, 1332.991
5754.821, 1318.528
5756.749, 1284.897
5758.678, 1285.689
5760.606, 1316.564
5762.535, 1340.083
5764.463, 1346.351
5766.392, 1336.865
5768.320, 1337.000
5770.249, 1326.072
5772.177, 1329.458
5774.105, 1351.647
5776.034, 1320.011
5777.962, 1321.122
5779.891, 1332.896
5781.819, 1334.079
5783.748, 1308.943
5785.676, 1333.790
5787.604, 1332.237
5789.533, 1318.870
5791.461, 1352.872
5793.390, 1349.763
5795.318, 1333.524
5797.247, 1325.468
5799.175, 1334.529
5801.104, 1330.884
5803.032, 1335.510
5804.961, 1342.960
5806.889, 1348.749
5808.818, 1361.649
5810.746, 1350.770
5812.675, 1341.482
5814.603, 1342.588
5816.532, 1346.841
5818.460, 1353.892
5820.389, 1352.033
5822.317, 1341.350
5824.246, 1326.118
5826.174, 1315.366
5828.103, 1323.048
5830.031, 1335.565
5831.959, 1340.809
5833.888, 1332.838
5835.816, 1343.587
5837.745, 1322.996
5839.673, 1303.002
5841.602, 1374.076
5843.530, 1378.008
5845.458, 1359.468
5847.387, 1346.470
5849.315, 1351.194
5851.244, 1375.344
5853.172, 1372.819
5855.101, 1368.738
5857.029, 1369.252
5858.958, 1340.684
5860.886, 1373.002
5862.815, 1375.994
5864.743, 1360.041
5866.672, 1375.610
5868.600, 1384.989
5870.529, 1378.899
5872.457, 1380.090
5874.386, 1393.720
5876.314, 1372.495
5878.243, 1381.418
5880.171, 1370.156
5882.100, 1349.292
5884.028, 1367.678
5885.957, 1386.335
5887.885, 1397.995
5889.813, 1403.050
5891.742, 1401.035
5893.670, 1379.370
5895.599, 1368.985
5897.527, 1375.625
5899.456, 1389.486
5901.384, 1395.505
5903.313, 1405.871
5905.241, 1395.105
5907.169, 1384.339
5909.098, 1387.346
5911.026, 1389.841
5912.955, 1367.797
5914.883, 1371.394
5916.812, 1388.425
5918.740, 1385.375
5920.669, 1393.087
5922.597, 1392.432
5924.526, 1397.464
5926.454, 1402.394
5928.383, 1371.139
5930.311, 1400.708
5932.240, 1415.339
5934.168, 1411.652
5936.097, 1409.729
5938.025, 1409.781
5939.954, 1418.037
5941.882, 1424.623
5943.811, 1424.223
5945.739, 1417.303
5947.667, 1420.600
5949.596, 1436.482
5951.524, 1448.377
5953.453, 1446.017
5955.381, 1431.486
5957.310, 1403.650
5959.238, 1401.988
5961.167, 1418.605
5963.095, 1431.720
5965.023, 1433.984
5966.952, 1441.292
5968.880, 1423.370
5970.809, 1398.767
5972.737, 1419.020
5974.666, 1451.697
5976.594, 1439.174
5978.523, 1432.365
5980.451, 1454.566
5982.380, 1474.808
5984.308, 1471.892
5986.237, 1447.453
5988.165, 1435.073
5990.094, 1448.750
5992.022, 1434.049
5993.951, 1481.705
5995.879, 1480.248
5997.808, 1453.817
5999.736, 1463.728
6001.665, 1439.605
6003.593, 1455.657
6005.521, 1464.359
6007.450, 1454.053
6009.378, 1442.584
6011.307, 1455.783
6013.235, 1460.985
6015.164, 1463.544
6017.092, 1460.532
6019.021, 1438.329
6020.949, 1446.669
6022.877, 1459.137
6024.806, 1455.529
6026.734, 1440.534
6028.663, 1440.090
6030.591, 1463.807
6032.520, 1465.428
6034.448, 1461.214
6036.377, 1461.047
6038.305, 1445.247
6040.234, 1450.219
6042.162, 1463.141
6044.091, 1482.268
6046.019, 1499.455
6047.948, 1490.302
6049.876, 1499.804
6051.805, 1497.652
6053.733, 1508.319
6055.662, 1545.431
6057.590, 1576.531
6059.519, 1554.295
6061.447, 1516.477
6063.375, 1513.279
6065.304, 1544.024
6067.232, 1520.691
6069.161, 1518.774
6071.089, 1503.691
6073.018, 1491.922
6074.946, 1502.457
6076.875, 1528.742
6078.803, 1519.479
6080.731, 1501.539
6082.660, 1507.408
6084.588, 1532.713
6086.517, 1524.418
6088.445, 1523.576
6090.374, 1531.043
6092.302, 1529.558
6094.231, 1516.170
6096.159, 1508.161
6098.088, 1507.377
6100.016, 1512.281
6101.945, 1513.097
6103.873, 1510.175
6105.802, 1514.297
6107.730, 1531.921
6109.659, 1519.607
6111.587, 1511.543
6113.516, 1521.588
6115.444, 1538.263
6117.373, 1551.369
6119.301, 1550.794
6121.229, 1553.619
6123.158, 1549.649
6125.086, 1523.822
6127.015, 1515.706
6128.943, 1557.276
6130.872, 1538.783
6132.800, 1523.092
6134.729, 1570.074
6136.657, 1552.456
6138.585, 1567.633
6140.514, 1552.724
6142.442, 1534.167
6144.371, 1545.449
6146.299, 1592.360
6148.228, 1565.340
6150.156, 1528.368
6152.085, 1548.078
6154.013, 1590.955
6155.942, 1568.612
6157.870, 1553.697
6159.799, 1578.327
6161.727, 1576.304
6163.656, 1563.021
6165.584, 1572.562
6167.513, 1559.492
6169.441, 1573.042
6171.370, 1559.708
6173.298, 1556.149
6175.227, 1577.764
6177.155, 1578.279
6179.083, 1585.644
6181.012, 1589.491
6182.940, 1583.594
6184.869, 1579.157
6186.797, 1589.338
6188.726, 1583.017
6190.654, 1599.908
6192.583, 1603.274
6194.511, 1600.046
6196.439, 1602.516
6198.368, 1604.044
6200.296, 1568.274
6202.225, 1594.098
6204.153, 1602.401
6206.082, 1593.417
6208.010, 1617.382
6209.939, 1624.656
6211.867, 1598.991
6213.796, 1609.414
6215.724, 1630.960
6217.653, 1637.188
6219.581, 1643.513
6221.510, 1634.562
6223.438, 1629.329
6225.367, 1623.664
6227.295, 1616.222
6229.224, 1620.594
6231.152, 1676.425
6233.081, 1639.317
6235.009, 1627.729
6236.938, 1625.172
6238.866, 1617.734
6240.794, 1624.349
6242.723, 1601.208
6244.651, 1626.570
6246.580, 1650.415
6248.508, 1644.843
6250.437, 1626.958
6252.365, 1646.005
6254.293, 1623.044
6256.222, 1642.591
6258.150, 1648.875
6260.079, 1642.680
6262.007, 1649.537
6263.936, 1651.082
6265.864, 1646.616
6267.793, 1625.620
6269.721, 1629.488
6271.650, 1657.647
6273.578, 1678.664
6275.507, 1663.753
6277.435, 1690.293
6279.364, 1686.379
6281.292, 1678.734
6283.221, 1672.854
6285.149, 1648.209
6287.078, 1669.216
6289.006, 1652.802
6290.935, 1657.010
6292.863, 1661.579
6294.792, 1665.553
6296.720, 1690.827
6298.648, 1662.857
6300.577, 1664.763
6302.505, 1664.356
6304.434, 1657.542
6306.362, 1659.737
6308.291, 1680.819
6310.219, 1685.938
6312.147, 1685.900
6314.076, 1683.982
6316.004, 1697.508
6317.933, 1707.284
6319.861, 1673.362
6321.790, 1667.398
6323.718, 1691.759
6325.647, 1654.010
6327.575, 1644.905
6329.504, 1680.895
6331.432, 1685.164
6333.361, 1683.614
6335.289, 1663.217
6337.218, 1693.651
6339.146, 1693.669
6341.075, 1681.906
6343.003, 1721.589
6344.932, 1675.000
6346.860, 1715.706
6348.789, 1692.428
6350.717, 1682.818
6352.646, 1696.194
6354.574, 1702.404
6356.502, 1745.815
6358.431, 1700.559
6360.359, 1702.765
6362.288, 1722.942
6364.216, 1721.277
6366.145, 1702.380
6368.073, 1706.607
6370.001, 1698.016
6371.930, 1733.176
6373.858, 1726.949
6375.787, 1707.533
6377.715, 1713.146
6379.644, 1737.559
6381.572, 1716.128
6383.501, 1716.601
6385.429, 1691.253
6387.358, 1689.888
6389.286, 1725.422
6391.215, 1753.812
6393.143, 1710.963
6395.072, 1751.571
6397.000, 1732.053
6398.929, 1716.490
6400.857, 1722.865
6402.786, 1728.600
6404.714, 1721.363
6406.643, 1749.250
6408.571, 1749.583
6410.500, 1754.566
6412.428, 1750.735
6414.356, 1739.806
6416.285, 1733.542
6418.213, 1728.983
6420.142, 1749.231
6422.070, 1750.989
6423.999, 1744.545
6425.927, 1732.957
6427.855, 1729.253
6429.784, 1742.934
6431.712, 1733.563
6433.641, 1714.302
6435.569, 1723.747
6437.498, 1730.219
6439.426, 1731.676
6441.355, 1741.178
6443.283, 1759.113
6445.212, 1766.486
6447.140, 1759.744
6449.069, 1730.835
6450.997, 1728.152
6452.926, 1748.186
6454.854, 1755.423
6456.783, 1726.092
6458.711, 1771.611
6460.640, 1742.073
6462.568, 1747.668
6464.497, 1767.713
6466.425, 1768.014
6468.354, 1752.855
6470.282, 1750.272
6472.210, 1774.976
6474.139, 1747.976
6476.067, 1739.844
6477.996, 1744.520
6479.924, 1744.993
6481.853, 1745.226
6483.781, 1761.019
6485.709, 1786.320
6487.638, 1779.723
6489.566, 1767.668
6491.495, 1750.024
6493.423, 1744.817
6495.352, 1753.357
6497.280, 1744.521
6499.209, 1784.884
6501.137, 1774.127
6503.066, 1751.465
6504.994, 1764.883
6506.923, 1766.050
6508.851, 1754.762
6510.780, 1790.573
6512.708, 1765.407
6514.637, 1746.010
6516.565, 1752.829
6518.494, 1777.281
6520.422, 1771.577
6522.351, 1756.014
6524.279, 1780.568
6526.208, 1796.788
6528.136, 1783.687
6530.064, 1782.529
6531.993, 1780.901
6533.921, 1758.511
6535.850, 1747.471
6537.778, 1758.894
6539.707, 1746.415
6541.635, 1768.792
6543.563, 1770.793
6545.492, 1776.049
6547.420, 1761.124
6549.349, 1751.758
6551.277, 1770.072
6553.206, 1795.911
6555.134, 1773.544
6557.063, 1787.646
6558.991, 1794.133
6560.920, 1788.837
6562.848, 1788.639
6564.777, 1810.222
6566.705, 1820.396
6568.634, 1780.066
6570.562, 1787.067
6572.491, 1791.496
##END=



