##NAMES=Celsian
##RRUFFID=R060460
##IDEAL CHEMISTRY=Ba(Al_2_Si_2_O_8_)
##LOCALITY=Benallt mine, Rhiw, Leyen Peninsula, Caernarvonshire, Wales
##OWNER=RRUFF
##SOURCE=Michael Scott
##DESCRIPTION=White prismatic-shaped granular aggregates associated with barite and piemontite
##STATUS=The identification of this mineral has been confirmed by X-ray diffraction and chemical analysis
##URL=https://www.rruff.net/odr/rruff_sample/R060460
##MEASURED CHEMISTRY=Ba_1.00_Al_2.00_Si_2.00_O_8_
##DIFFRACTION SAMPLE DESCRIPTION=Powder
##CELL PARAMETERS=a: 8.6373 b: 13.0487 c: 14.4074 alpha: 90 beta: 115.124 gamma: 90 volume: 1470.16 crystal system: monoclinic
##FILETYPE=Raman RAW
##RAMAN WAVELENGTH=780

153.3298, 468.0573
155.2583, 465.3552
157.1868, 471.8641
159.1152, 487.3778
161.0437, 505.9355
162.9722, 531.7585
164.9006, 554.1043
166.8291, 574.7139
168.7576, 587.6303
170.6860, 586.5475
172.6145, 572.9183
174.5430, 554.8345
176.4714, 528.5559
178.3999, 503.6811
180.3284, 478.9245
182.2568, 457.7475
184.1853, 442.3466
186.1138, 432.2181
188.0422, 426.8441
189.9707, 427.0586
191.8992, 431.0524
193.8276, 442.0938
195.7561, 453.0627
197.6846, 464.0614
199.6130, 471.3063
201.5415, 466.7217
203.4700, 445.6766
205.3984, 431.7065
207.3269, 425.1004
209.2554, 424.0709
211.1838, 430.6158
213.1123, 440.6436
215.0408, 451.7293
216.9692, 463.6587
218.8977, 473.0620
220.8262, 479.8320
222.7546, 484.7233
224.6831, 486.9243
226.6116, 488.4415
228.5400, 489.0716
230.4685, 490.2551
232.3970, 494.9876
234.3254, 503.5694
236.2539, 515.3856
238.1824, 530.9000
240.1108, 548.7147
242.0393, 571.8846
243.9678, 594.0474
245.8962, 613.5062
247.8247, 628.2806
249.7532, 623.5587
251.6816, 597.3358
253.6101, 567.3925
255.5386, 535.6331
257.4670, 503.9671
259.3955, 472.4762
261.3240, 442.0829
263.2524, 413.3391
265.1809, 386.5053
267.1094, 365.7704
269.0378, 352.4441
270.9663, 342.4313
272.8948, 335.1167
274.8232, 329.8608
276.7517, 327.3909
278.6802, 326.5523
280.6086, 324.4152
282.5371, 321.0123
284.4656, 317.3258
286.3940, 312.7194
288.3225, 309.2806
290.2510, 307.2473
292.1794, 306.8136
294.1079, 308.8644
296.0364, 312.6278
297.9648, 315.7622
299.8933, 317.9604
301.8218, 321.4390
303.7502, 328.9907
305.6787, 334.7536
307.6072, 338.5569
309.5356, 338.7289
311.4641, 331.1625
313.3926, 318.6576
315.3210, 308.5054
317.2495, 301.1624
319.1780, 296.1788
321.1064, 294.5123
323.0349, 293.5850
324.9634, 293.0323
326.8918, 292.4601
328.8203, 291.5490
330.7488, 290.3196
332.6772, 288.6087
334.6057, 285.4766
336.5342, 284.4043
338.4626, 286.4112
340.3911, 289.1742
342.3196, 291.6851
344.2480, 294.8733
346.1765, 299.2601
348.1050, 304.8716
350.0334, 311.9428
351.9619, 321.0285
353.8904, 330.4462
355.8188, 342.7407
357.7473, 351.4003
359.6758, 354.8053
361.6042, 353.1237
363.5327, 345.4050
365.4612, 333.3072
367.3896, 321.3699
369.3181, 309.0504
371.2466, 299.5397
373.1750, 292.8663
375.1035, 288.7259
377.0320, 287.5243
378.9604, 288.3406
380.8889, 290.7691
382.8174, 294.5536
384.7458, 299.1665
386.6743, 304.6366
388.6028, 312.1420
390.5313, 322.7589
392.4597, 331.1188
394.3882, 336.9161
396.3167, 338.6341
398.2451, 334.4135
400.1736, 327.2033
402.1021, 318.7957
404.0305, 309.8813
405.9590, 303.8643
407.8875, 300.6354
409.8159, 300.0159
411.7444, 302.5883
413.6729, 306.3317
415.6013, 310.7289
417.5298, 315.8166
419.4583, 321.1593
421.3867, 327.4083
423.3152, 336.7106
425.2437, 348.4018
427.1721, 358.6684
429.1006, 367.8877
431.0291, 372.4308
432.9575, 369.3396
434.8860, 364.2465
436.8145, 357.4297
438.7429, 350.7287
440.6714, 345.3224
442.5999, 341.4097
444.5283, 338.9967
446.4568, 338.1298
448.3853, 339.4716
450.3137, 342.6753
452.2422, 349.4134
454.1707, 360.2629
456.0991, 373.9559
458.0276, 389.2783
459.9561, 407.8623
461.8845, 430.4707
463.8130, 457.9867
465.7415, 491.2836
467.6699, 537.4018
469.5984, 581.3792
471.5269, 651.9338
473.4553, 721.6488
475.3838, 801.8782
477.3123, 863.3536
479.2407, 891.4390
481.1692, 898.4166
483.0977, 885.1179
485.0261, 862.8218
486.9546, 850.6835
488.8831, 848.3602
490.8115, 866.2267
492.7400, 913.0028
494.6685, 967.4582
496.5969, 1036.211
498.5254, 1102.947
500.4539, 1163.186
502.3823, 1218.722
504.3108, 1282.998
506.2393, 1336.738
508.1677, 1354.136
510.0962, 1334.444
512.0247, 1260.350
513.9531, 1110.728
515.8816, 964.4246
517.8101, 814.7644
519.7385, 685.3916
521.6670, 582.9521
523.5955, 502.5781
525.5239, 446.4505
527.4524, 405.9409
529.3809, 375.3448
531.3093, 353.3593
533.2378, 336.5575
535.1663, 325.2210
537.0947, 316.9886
539.0232, 312.1971
540.9517, 308.5755
542.8801, 305.6446
544.8086, 304.0438
546.7371, 304.1758
548.6655, 305.6408
550.5940, 309.2636
552.5225, 313.3815
554.4509, 316.6093
556.3794, 318.5164
558.3079, 316.9307
560.2363, 312.1154
562.1648, 307.0022
564.0933, 301.7052
566.0217, 296.5200
567.9502, 291.2452
569.8787, 286.6281
571.8071, 282.0565
573.7356, 279.1779
575.6641, 278.9987
577.5925, 280.9664
579.5210, 284.9446
581.4495, 290.4487
583.3779, 296.6353
585.3064, 303.2354
587.2349, 308.3804
589.1633, 311.9401
591.0918, 313.9483
593.0203, 315.2084
594.9487, 313.3057
596.8772, 305.9839
598.8057, 298.0061
600.7341, 290.7435
602.6626, 284.4134
604.5911, 279.1469
606.5195, 275.0202
608.4480, 272.2900
610.3765, 270.6815
612.3049, 269.3890
614.2334, 268.4461
616.1619, 266.9664
618.0903, 265.4784
620.0188, 262.0904
621.9473, 255.1214
623.8757, 248.7611
625.8042, 243.9811
627.7327, 240.0209
629.6611, 236.5765
631.5896, 233.7050
633.5181, 231.6183
635.4465, 230.0136
637.3750, 228.0853
639.3035, 226.1241
641.2319, 226.0238
643.1604, 228.0052
645.0889, 230.5707
647.0173, 233.8006
648.9458, 237.4837
650.8743, 242.1008
652.8027, 246.1115
654.7312, 249.3267
656.6597, 251.4845
658.5881, 251.7982
660.5166, 251.7596
662.4451, 252.0212
664.3735, 252.8101
666.3020, 254.1611
668.2305, 256.3397
670.1589, 260.6367
672.0874, 266.8779
674.0159, 271.1819
675.9443, 273.3168
677.8728, 276.7928
679.8013, 282.3321
681.7297, 286.3984
683.6582, 288.6365
685.5867, 288.4035
687.5151, 284.6066
689.4436, 279.6218
691.3721, 273.4648
693.3005, 267.7516
695.2290, 263.5943
697.1575, 260.4837
699.0859, 257.7173
701.0144, 256.1807
702.9429, 255.3613
704.8713, 255.2734
706.7998, 256.2096
708.7283, 257.6521
710.6567, 260.0275
712.5852, 263.2813
714.5137, 268.6517
716.4421, 277.3896
718.3706, 284.8345
720.2991, 290.2578
722.2275, 293.7205
724.1560, 295.1210
726.0845, 294.7806
728.0129, 291.7510
729.9414, 288.2753
731.8699, 285.4395
733.7983, 283.5639
735.7268, 282.6765
737.6553, 283.2510
739.5837, 286.8264
741.5122, 292.2320
743.4407, 296.1970
745.3691, 298.7035
747.2976, 300.5682
749.2261, 301.9106
751.1545, 302.1073
753.0830, 298.5846
755.0115, 298.2860
756.9399, 287.5299
758.8684, 277.1217
760.7969, 267.7284
762.7253, 259.0718
764.6538, 250.4159
766.5823, 243.4123
768.5107, 239.3023
770.4392, 236.6304
772.3677, 234.8708
774.2961, 233.6015
776.2246, 232.6210
778.1531, 231.7102
780.0815, 230.2992
782.0100, 228.7918
783.9385, 228.5677
785.8669, 229.3263
787.7954, 228.6518
789.7239, 229.4242
791.6523, 230.0768
793.5808, 229.9202
795.5093, 231.3329
797.4377, 230.2667
799.3662, 229.6588
801.2947, 230.0179
803.2231, 229.8389
805.1516, 228.4313
807.0801, 227.6550
809.0085, 228.3965
810.9370, 229.2163
812.8655, 229.4798
814.7939, 229.7530
816.7224, 230.3824
818.6509, 231.0229
820.5793, 231.5821
822.5078, 231.9069
824.4363, 231.6415
826.3647, 231.2343
828.2932, 231.3009
830.2217, 231.2995
832.1501, 231.7477
834.0786, 231.8068
836.0071, 232.1692
837.9355, 232.7617
839.8640, 233.2720
841.7925, 233.6898
843.7209, 233.8332
845.6494, 233.7325
847.5779, 234.0486
849.5063, 234.8470
851.4348, 235.5711
853.3633, 236.2585
855.2917, 236.0964
857.2202, 234.4613
859.1487, 233.6176
861.0771, 234.5387
863.0056, 235.0662
864.9341, 234.5946
866.8625, 234.1232
868.7910, 233.9899
870.7195, 233.7024
872.6479, 233.1101
874.5764, 232.3112
876.5049, 231.0574
878.4333, 230.0027
880.3618, 229.5717
882.2903, 229.4357
884.2188, 229.7375
886.1472, 229.8076
888.0757, 228.1800
890.0042, 226.8388
891.9326, 228.6665
893.8611, 231.3643
895.7896, 232.0935
897.7180, 231.7068
899.6465, 231.5318
901.5750, 231.4467
903.5034, 230.8432
905.4319, 230.1617
907.3604, 231.0543
909.2888, 233.2715
911.2173, 235.6017
913.1458, 237.9832
915.0742, 239.4238
917.0027, 241.5400
918.9312, 243.1194
920.8596, 244.4038
922.7881, 246.0424
924.7166, 246.0955
926.6450, 247.1241
928.5735, 249.0805
930.5020, 252.4102
932.4304, 257.2014
934.3589, 262.8898
936.2874, 269.3531
938.2158, 277.2625
940.1443, 286.8416
942.0728, 297.4086
944.0012, 309.6313
945.9297, 318.5504
947.8582, 322.3325
949.7866, 326.3695
951.7151, 331.4257
953.6436, 338.4911
955.5720, 348.2246
957.5005, 358.9754
959.4290, 371.4674
961.3574, 382.1017
963.2859, 389.3083
965.2144, 395.5099
967.1428, 401.2891
969.0713, 406.3835
970.9998, 410.9699
972.9282, 414.5043
974.8567, 417.3767
976.7852, 418.3132
978.7136, 415.4395
980.6421, 412.5693
982.5706, 411.5296
984.4990, 410.5844
986.4275, 410.6373
988.3560, 408.0959
990.2844, 400.6306
992.2129, 390.7050
994.1414, 377.8039
996.0698, 365.4731
997.9983, 355.5737
999.9268, 347.2813
1001.855, 339.7488
1003.784, 334.0241
1005.712, 331.7702
1007.641, 330.2948
1009.569, 328.4739
1011.498, 325.8097
1013.426, 321.7280
1015.354, 316.9965
1017.283, 312.2859
1019.211, 307.0461
1021.140, 300.2075
1023.068, 293.5565
1024.997, 288.3241
1026.925, 283.9054
1028.854, 279.9226
1030.782, 276.4561
1032.711, 273.4999
1034.639, 271.1556
1036.568, 269.4968
1038.496, 268.4865
1040.425, 268.2347
1042.353, 268.4567
1044.281, 269.3252
1046.210, 270.1254
1048.138, 270.1297
1050.067, 270.1731
1051.995, 271.1528
1053.924, 271.9369
1055.852, 272.2971
1057.781, 271.4801
1059.709, 268.0312
1061.638, 264.5175
1063.566, 262.8679
1065.495, 261.3405
1067.423, 258.6284
1069.352, 256.0723
1071.280, 254.4594
1073.208, 253.2276
1075.137, 252.2185
1077.065, 251.2473
1078.994, 249.8114
1080.922, 248.9477
1082.851, 249.3667
1084.779, 250.1727
1086.708, 251.1406
1088.636, 252.1554
1090.565, 253.3762
1092.493, 254.3298
1094.422, 254.8234
1096.350, 255.0283
1098.279, 254.7534
1100.207, 254.5779
1102.135, 254.9822
1104.064, 254.9664
1105.992, 254.3764
1107.921, 253.1669
1109.849, 250.1535
1111.778, 248.6284
1113.706, 250.1498
1115.635, 251.4017
1117.563, 252.2314
1119.492, 252.1897
1121.420, 250.2349
1123.349, 249.5414
1125.277, 251.0079
1127.206, 252.2154
1129.134, 253.2356
1131.063, 253.4366
1132.991, 252.3840
1134.919, 251.7014
1136.848, 251.1217
1138.776, 252.2550
1140.705, 252.3596
1142.633, 252.7752
1144.562, 254.3764
1146.490, 253.9518
1148.419, 255.4893
1150.347, 256.4771
1152.276, 256.9867
1154.204, 257.9981
1156.133, 259.2961
1158.061, 259.2696
1159.990, 258.3700
1161.918, 258.2637
1163.846, 258.8175
1165.775, 260.1432
1167.703, 261.5700
1169.632, 261.3687
1171.560, 260.6906
1173.489, 261.4241
1175.417, 262.7293
1177.346, 263.5990
1179.274, 264.4470
1181.203, 266.1917
1183.131, 267.4232
1185.060, 265.8898
1186.988, 264.9713
1188.917, 267.9109
1190.845, 270.3524
1192.773, 269.7154
1194.702, 268.8992
1196.630, 268.6841
1198.559, 268.8664
1200.487, 269.5999
1202.416, 270.1694
1204.344, 270.2789
1206.273, 270.7505
1208.201, 271.8520
1210.130, 272.5350
1212.058, 272.5219
1213.987, 273.9269
1215.915, 274.6663
1217.844, 278.1640
1219.772, 277.4319
1221.700, 278.4959
1223.629, 280.9671
1225.557, 281.3354
1227.486, 280.2615
1229.414, 280.4909
1231.343, 281.4349
1233.271, 281.5699
1235.200, 281.4588
1237.128, 282.0172
1239.057, 282.8694
1240.985, 283.6084
1242.914, 284.3719
1244.842, 285.3780
1246.771, 286.2950
1248.699, 286.8167
1250.627, 287.2934
1252.556, 287.8742
1254.484, 288.4964
1256.413, 289.0959
1258.341, 289.8626
1260.270, 290.7851
1262.198, 292.1256
1264.127, 294.4329
1266.055, 295.4825
1267.984, 294.8495
1269.912, 294.3802
1271.841, 294.0627
1273.769, 293.9794
1275.698, 294.2220
1277.626, 295.8980
1279.554, 298.4393
1281.483, 300.2432
1283.411, 301.3366
1285.340, 301.3468
1287.268, 301.1650
1289.197, 301.8954
1291.125, 302.9603
1293.054, 303.7858
1294.982, 304.9890
1296.911, 307.4921
1298.839, 309.1433
1300.768, 308.8847
1302.696, 308.5905
1304.625, 308.6301
1306.553, 309.0102
1308.481, 309.7309
1310.410, 311.0564
1312.338, 312.9716
1314.267, 314.0892
1316.195, 314.5245
1318.124, 315.4517
1320.052, 316.7062
1321.981, 317.8913
1323.909, 318.7959
1325.838, 318.8044
1327.766, 318.5947
1329.695, 318.3905
1331.623, 319.0798
1333.552, 322.5912
1335.480, 325.1486
1337.408, 324.1806
1339.337, 323.4016
1341.265, 323.8274
1343.194, 324.4775
1345.122, 325.4653
1347.051, 325.7431
1348.979, 325.1888
1350.908, 325.5939
1352.836, 326.8529
1354.765, 328.0472
1356.693, 329.0971
1358.622, 329.8622
1360.550, 330.3653
1362.479, 330.1113
1364.407, 330.3555
1366.335, 333.0238
1368.264, 335.0460
1370.192, 334.2600
1372.121, 333.5252
1374.049, 333.7982
1375.978, 334.1433
1377.906, 334.3104
1379.835, 335.0020
1381.763, 335.8127
1383.692, 337.2877
1385.620, 337.9873
1387.549, 339.2912
1389.477, 340.6602
1391.406, 340.0826
1393.334, 339.5182
1395.262, 342.4689
1397.191, 344.9646
1399.119, 343.7616
1401.048, 342.6430
1402.976, 343.0143
1404.905, 343.5565
1406.833, 344.0010
1408.762, 344.5623
1410.690, 345.2752
1412.619, 344.4815
1414.547, 346.3668
1416.476, 344.9119
1418.404, 348.9015
1420.333, 350.0559
1422.261, 350.1814
1424.189, 351.4913
1426.118, 352.6844
1428.046, 352.8228
1429.975, 352.5847
1431.903, 351.5489
1433.832, 352.1856
1435.760, 355.2833
1437.689, 356.3502
1439.617, 355.2748
1441.546, 354.4889
1443.474, 354.2994
1445.403, 355.7632
1447.331, 357.6786
1449.260, 358.3153
1451.188, 358.5031
1453.116, 358.9043
1455.045, 359.0670
1456.973, 358.0583
1458.902, 358.2303
1460.830, 358.8345
1462.759, 361.9132
1464.687, 360.9080
1466.616, 361.6787
1468.544, 363.4871
1470.473, 361.9271
1472.401, 363.4776
1474.330, 361.9025
1476.258, 364.3755
1478.187, 363.9351
1480.115, 363.5727
1482.043, 364.6812
1483.972, 365.4099
1485.900, 365.2722
1487.829, 365.1611
1489.757, 365.1147
1491.686, 365.6638
1493.614, 366.3347
1495.543, 365.1796
1497.471, 363.9084
1499.400, 364.8097
1501.328, 366.1553
1503.257, 367.4435
1505.185, 367.7492
1507.114, 368.3142
1509.042, 366.4802
1510.970, 368.0001
1512.899, 367.8301
1514.827, 366.5894
1516.756, 366.9869
1518.684, 368.2674
1520.613, 369.6924
1522.541, 370.8083
1524.470, 371.4169
1526.398, 371.1961
1528.327, 369.6559
1530.255, 369.2448
1532.184, 370.2401
1534.112, 370.9025
1536.041, 371.2542
1537.969, 371.9551
1539.897, 372.5435
1541.826, 371.8993
1543.754, 371.4463
1545.683, 372.6010
1547.611, 373.4269
1549.540, 372.9906
1551.468, 373.3670
1553.397, 374.6826
1555.325, 375.2246
1557.254, 375.0905
1559.182, 374.5944
1561.111, 374.1040
1563.039, 374.0337
1564.968, 374.2028
1566.896, 374.5468
1568.824, 375.0467
1570.753, 375.8183
1572.681, 376.3970
1574.610, 376.7471
1576.538, 376.5044
1578.467, 375.8475
1580.395, 375.1173
1582.324, 374.3889
1584.252, 373.4629
1586.181, 373.2319
1588.109, 374.2003
1590.038, 375.5577
1591.966, 377.4009
1593.895, 377.0648
1595.823, 375.3734
1597.751, 375.7068
1599.680, 376.9623
1601.608, 378.2335
1603.537, 378.9318
1605.465, 379.4958
1607.394, 378.5615
1609.322, 379.3984
1611.251, 378.9398
1613.179, 377.4744
1615.108, 377.5843
1617.036, 378.2789
1618.965, 378.0035
1620.893, 377.6086
1622.822, 377.3899
1624.750, 377.8976
1626.678, 377.4887
1628.607, 379.1495
1630.535, 377.4926
1632.464, 376.8576
1634.392, 377.2743
1636.321, 379.8602
1638.249, 381.7870
1640.178, 380.3965
1642.106, 379.5535
1644.035, 379.9428
1645.963, 381.5031
1647.892, 383.6071
1649.820, 382.1813
1651.749, 383.0162
1653.677, 380.7543
1655.605, 381.8002
1657.534, 381.1595
1659.462, 379.8614
1661.391, 377.7002
1663.319, 377.5146
1665.248, 378.9121
1667.176, 380.2155
1669.105, 380.7996
1671.033, 379.3040
1672.962, 378.1797
1674.890, 378.9656
1676.819, 379.2420
1678.747, 378.6365
1680.676, 377.5069
1682.604, 376.6699
1684.532, 379.8545
1686.461, 383.0680
1688.389, 383.1937
1690.318, 382.3089
1692.246, 380.7338
1694.175, 380.5890
1696.103, 379.8721
1698.032, 381.0324
1699.960, 379.4693
1701.889, 378.2113
1703.817, 378.3902
1705.746, 381.2316
1707.674, 382.6507
1709.603, 381.8470
1711.531, 380.5837
1713.459, 379.1722
1715.388, 378.0377
1717.316, 377.3999
1719.245, 378.0549
1721.173, 377.9632
1723.102, 378.3560
1725.030, 378.9091
1726.959, 379.0489
1728.887, 379.0791
1730.816, 378.9004
1732.744, 378.6213
1734.673, 377.9032
1736.601, 377.2246
1738.530, 376.2679
1740.458, 375.0493
1742.386, 373.5492
1744.315, 372.5987
1746.243, 374.3455
1748.172, 375.9679
1750.100, 375.5725
1752.029, 374.5588
1753.957, 373.0218
1755.886, 372.6690
1757.814, 372.9848
1759.743, 372.4955
1761.671, 372.0872
1763.600, 372.8576
1765.528, 372.9457
1767.457, 371.8217
1769.385, 370.3385
1771.313, 368.9209
1773.242, 369.5702
1775.170, 370.4300
1777.099, 369.9427
1779.027, 369.6392
1780.956, 370.1678
1782.884, 369.1322
1784.813, 369.2076
1786.741, 367.5985
1788.670, 368.3892
1790.598, 368.3174
1792.527, 367.3863
1794.455, 365.4088
1796.384, 365.0560
1798.312, 365.8677
1800.240, 366.1788
1802.169, 365.9759
1804.097, 364.9743
1806.026, 364.1356
1807.954, 363.6339
1809.883, 364.8152
1811.811, 366.6622
1813.740, 365.9847
1815.668, 364.6001
1817.597, 363.9589
1819.525, 362.8409
1821.454, 361.0819
1823.382, 360.3375
1825.311, 360.4615
1827.239, 361.7142
1829.167, 362.1598
1831.096, 359.4620
1833.024, 358.2235
1834.953, 358.7433
1836.881, 358.3857
1838.810, 357.4929
1840.738, 356.0890
1842.667, 355.7941
1844.595, 358.5239
1846.524, 359.9544
1848.452, 359.8503
1850.381, 357.2296
1852.309, 354.0483
1854.238, 352.0925
1856.166, 351.2333
1858.094, 351.9764
1860.023, 352.2251
1861.951, 351.9236
1863.880, 350.2296
1865.808, 348.9042
1867.737, 349.6957
1869.665, 349.7406
1871.594, 348.4135
1873.522, 346.8596
1875.451, 345.4280
1877.379, 344.9449
1879.308, 344.6525
1881.236, 344.2257
1883.165, 344.2877
1885.093, 344.7123
1887.021, 344.2275
1888.950, 343.2846
1890.878, 342.1440
1892.807, 341.2257
1894.735, 340.6063
1896.664, 339.4800
1898.592, 338.3894
1900.521, 339.1859
1902.449, 339.5951
1904.378, 338.3495
1906.306, 338.7124
1908.235, 340.2406
1910.163, 336.9218
1912.092, 333.2025
1914.020, 334.6363
1915.948, 335.4745
1917.877, 334.6563
1919.805, 335.2445
1921.734, 336.1624
1923.662, 335.0157
1925.591, 333.3228
1927.519, 331.5309
1929.448, 330.5835
1931.376, 330.3731
1933.305, 330.5212
1935.233, 330.3975
1937.162, 329.0887
1939.090, 328.5283
1941.019, 328.8852
1942.947, 326.7774
1944.875, 324.5856
1946.804, 325.9336
1948.732, 327.1768
1950.661, 327.3851
1952.589, 325.5957
1954.518, 322.8127
1956.446, 321.4754
1958.375, 320.4893
1960.303, 319.3659
1962.232, 318.1596
1964.160, 317.1389
1966.089, 318.5396
1968.017, 319.3808
1969.946, 317.1978
1971.874, 316.2065
1973.802, 316.8869
1975.731, 315.5489
1977.659, 313.9626
1979.588, 314.5626
1981.516, 313.4987
1983.445, 313.0262
1985.373, 312.9849
1987.302, 312.0287
1989.230, 312.2335
1991.159, 311.7783
1993.087, 310.8361
1995.016, 312.7728
1996.944, 311.0262
1998.873, 312.1979
2000.801, 309.0357
2002.729, 307.7014
2004.658, 306.4583
2006.586, 305.1510
2008.515, 303.6188
2010.443, 302.3183
2012.372, 301.3662
2014.300, 301.4895
2016.229, 302.2294
2018.157, 302.0933
2020.086, 301.3304
2022.014, 300.8105
2023.943, 298.8236
2025.871, 298.4742
2027.800, 296.3716
2029.728, 294.7936
2031.656, 296.0186
2033.585, 296.8566
2035.513, 296.9173
2037.442, 294.5634
2039.370, 292.2795
2041.299, 292.3934
2043.227, 291.5283
2045.156, 289.5412
2047.084, 287.9414
2049.013, 287.0531
2050.941, 287.5091
2052.870, 286.9739
2054.798, 285.3498
2056.727, 284.3307
2058.655, 283.4526
2060.583, 282.2560
2062.512, 281.7451
2064.440, 281.7655
2066.369, 279.6589
2068.297, 278.2537
2070.226, 280.2568
2072.154, 278.8902
2074.083, 274.5386
2076.011, 275.1422
2077.940, 276.3486
2079.868, 274.8983
2081.797, 275.3636
2083.725, 274.5514
2085.654, 274.9222
2087.582, 272.3380
2089.510, 271.7310
2091.439, 269.7992
2093.367, 267.5035
2095.296, 269.6252
2097.224, 270.7945
2099.153, 267.5957
2101.081, 267.1911
2103.010, 268.4032
2104.938, 267.4487
2106.867, 266.0772
2108.795, 265.1223
2110.724, 262.3807
2112.652, 259.7435
2114.581, 261.0296
2116.509, 262.3321
2118.438, 262.4954
2120.366, 261.8856
2122.294, 260.4848
2124.223, 257.9548
2126.151, 255.7207
2128.080, 254.0874
2130.008, 253.9622
2131.937, 254.4107
2133.865, 254.7542
2135.794, 254.8034
2137.722, 254.4558
2139.651, 252.8524
2141.579, 251.1006
2143.508, 249.8250
2145.436, 248.6265
2147.365, 247.6609
2149.293, 247.9525
2151.221, 247.9848
2153.150, 247.2175
2155.078, 245.2322
2157.007, 243.1862
2158.935, 243.4500
2160.864, 243.3393
2162.792, 242.3840
2164.721, 242.5695
2166.649, 242.2849
2168.578, 241.2216
2170.506, 240.4678
2172.435, 239.1078
2174.363, 238.1845
2176.292, 236.9553
2178.220, 236.3140
2180.148, 235.6023
2182.077, 234.8056
2184.005, 233.9256
2185.934, 233.3398
2187.862, 233.1362
2189.791, 232.1721
2191.719, 230.6830
2193.648, 228.4827
2195.576, 227.2322
2197.505, 226.8649
2199.433, 226.2992
2201.362, 225.5613
2203.290, 224.5488
2205.219, 223.5375
2207.147, 222.8997
2209.075, 223.8412
2211.004, 223.7126
2212.932, 221.8095
2214.861, 220.9150
2216.789, 219.8047
2218.718, 216.9715
2220.646, 216.8339
2222.575, 218.4824
2224.503, 217.6663
2226.432, 215.9147
2228.360, 213.6791
2230.289, 213.2028
2232.217, 213.5034
2234.146, 213.4243
2236.074, 213.5616
2238.002, 213.5893
2239.931, 210.4890
2241.859, 208.3352
2243.788, 209.0572
2245.716, 208.0492
2247.645, 206.3307
2249.573, 205.8569
2251.502, 205.9471
2253.430, 206.2769
2255.359, 205.5519
2257.287, 205.0684
2259.216, 205.8854
2261.144, 204.5703
2263.073, 202.1283
2265.001, 200.0871
2266.929, 199.6219
2268.858, 198.2083
2270.786, 198.5963
2272.715, 196.9232
2274.643, 197.8052
2276.572, 197.1812
2278.500, 195.6534
2280.429, 194.1472
2282.357, 193.2010
2284.286, 192.8219
2286.214, 192.7705
2288.143, 192.0256
2290.071, 189.0974
2292.000, 191.0937
2293.928, 188.9919
2295.856, 190.0739
2297.785, 187.2302
2299.713, 186.1619
2301.642, 185.3601
2303.570, 184.3011
2305.499, 183.6869
2307.427, 182.3716
2309.356, 182.6320
2311.284, 182.7378
2313.213, 182.5664
2315.141, 181.7443
2317.070, 177.9205
2318.998, 176.0600
2320.927, 177.4621
2322.855, 179.1983
2324.783, 179.9426
2326.712, 178.7670
2328.640, 176.3676
2330.569, 174.1326
2332.497, 175.2193
2334.426, 175.1279
2336.354, 173.4254
2338.283, 172.3764
2340.211, 170.7607
2342.140, 167.9551
2344.068, 166.9227
2345.997, 166.8022
2347.925, 166.6817
2349.854, 167.0435
2351.782, 167.2780
2353.710, 165.4272
2355.639, 164.7458
2357.567, 165.6363
2359.496, 163.7482
2361.424, 161.8674
2363.353, 161.7091
2365.281, 162.0431
2367.210, 161.6574
2369.138, 158.6437
2371.067, 157.7279
2372.995, 158.6278
2374.924, 160.2184
2376.852, 160.0918
2378.781, 158.0137
2380.709, 157.7177
2382.637, 157.6003
2384.566, 156.8970
2386.494, 155.9267
2388.423, 154.5226
2390.351, 152.4138
2392.280, 150.9563
2394.208, 150.3155
2396.137, 151.1690
2398.065, 151.1451
2399.994, 150.1714
2401.922, 150.1383
2403.851, 148.7986
2405.779, 148.4796
2407.708, 146.0459
2409.636, 146.9863
2411.564, 147.2998
2413.493, 145.6753
2415.421, 143.5223
2417.350, 142.4022
2419.278, 142.1467
2421.207, 142.0503
2423.135, 140.1149
2425.064, 140.2026
2426.992, 138.8513
2428.921, 139.1179
2430.849, 137.2244
2432.778, 137.5806
2434.706, 138.2995
2436.635, 137.8190
2438.563, 134.3206
2440.491, 133.7757
2442.420, 134.1944
2444.348, 133.7126
2446.277, 133.5288
2448.205, 133.1449
2450.134, 131.6283
2452.062, 130.0783
2453.991, 128.7577
2455.919, 127.7223
2457.848, 127.9420
2459.776, 129.1494
2461.705, 128.5087
2463.633, 127.4983
2465.562, 126.6247
2467.490, 125.9280
2469.418, 124.7660
2471.347, 122.9003
2473.275, 122.6937
2475.204, 123.1610
2477.132, 123.6386
2479.061, 121.8190
2480.989, 119.5113
2482.918, 119.0115
2484.846, 118.2242
2486.775, 117.3326
2488.703, 117.1712
2490.632, 116.5324
2492.560, 115.5917
2494.489, 115.4314
2496.417, 114.1143
2498.345, 114.1296
2500.274, 112.9662
2502.202, 113.6497
2504.131, 113.4804
2506.059, 112.7678
2507.988, 111.7533
2509.916, 110.5409
2511.845, 109.9810
2513.773, 109.8305
2515.702, 110.1421
2517.630, 108.4904
2519.559, 106.8569
2521.487, 106.6551
2523.416, 106.5804
2525.344, 106.1354
2527.272, 104.9807
2529.201, 104.8601
2531.129, 104.3122
2533.058, 103.7487
2534.986, 103.8244
2536.915, 102.9284
2538.843, 102.9835
2540.772, 101.6170
2542.700, 99.91566
2544.629, 100.1853
2546.557, 99.30046
2548.486, 98.20216
2550.414, 100.4953
2552.343, 100.2361
2554.271, 98.27774
2556.199, 98.75517
2558.128, 97.81320
2560.056, 95.91209
2561.985, 96.33138
2563.913, 95.32408
2565.842, 93.47909
2567.770, 95.08138
2569.699, 95.25681
2571.627, 93.79861
2573.556, 93.54188
2575.484, 92.37624
2577.413, 91.90488
2579.341, 91.04993
2581.270, 91.23702
2583.198, 90.69369
2585.126, 90.78057
2587.055, 90.86720
2588.983, 90.52990
2590.912, 87.44968
2592.840, 85.94675
2594.769, 86.71077
2596.697, 86.88452
2598.626, 86.58862
2600.554, 85.98763
2602.483, 86.24050
2604.411, 85.50208
2606.340, 83.58073
2608.268, 81.97885
2610.197, 81.85611
2612.125, 81.01753
2614.053, 81.85084
2615.982, 81.15792
2617.910, 81.37399
2619.839, 82.14762
2621.767, 80.83308
2623.696, 77.86163
2625.624, 77.66492
2627.553, 77.63632
2629.481, 77.29589
2631.410, 77.47493
2633.338, 76.87731
2635.267, 75.67719
2637.195, 75.08561
2639.124, 75.06079
2641.052, 74.98530
2642.980, 72.96315
2644.909, 72.58057
2646.837, 72.99671
2648.766, 70.44117
2650.694, 70.30996
2652.623, 71.71555
2654.551, 71.53511
2656.480, 72.05737
2658.408, 72.39262
2660.337, 70.60017
2662.265, 69.25333
2664.194, 68.51440
2666.122, 67.42634
2668.051, 67.17647
2669.979, 66.50144
2671.907, 66.15669
2673.836, 66.66210
2675.764, 65.33955
2677.693, 66.29315
2679.621, 65.90360
2681.550, 64.56999
2683.478, 62.82979
2685.407, 63.34572
2687.335, 63.14481
2689.264, 61.07701
2691.192, 60.43362
2693.121, 59.86741
2695.049, 59.06568
2696.978, 59.71276
2698.906, 60.41004
2700.834, 60.85145
2702.763, 60.18534
2704.691, 61.19938
2706.620, 58.51833
2708.548, 57.81267
2710.477, 57.35277
2712.405, 56.86701
2714.334, 56.35905
2716.262, 56.31727
2718.191, 56.23551
2720.119, 56.14787
2722.048, 55.98950
2723.976, 55.70168
2725.905, 55.32886
2727.833, 54.88295
2729.761, 54.24558
2731.690, 53.51955
2733.618, 52.65567
2735.547, 52.75628
2737.475, 52.16532
2739.404, 51.85469
2741.332, 51.69272
2743.261, 51.33796
2745.189, 51.13155
2747.118, 51.04667
2749.046, 50.79740
2750.975, 50.62624
2752.903, 49.59901
2754.832, 49.83761
2756.760, 49.52869
2758.688, 48.30340
2760.617, 47.23508
2762.545, 46.98114
2764.474, 46.92100
2766.402, 46.64695
2768.331, 46.16438
2770.259, 46.60492
2772.188, 45.82353
2774.116, 44.31924
2776.045, 45.42460
2777.973, 45.10456
2779.902, 43.97622
2781.830, 44.16924
2783.759, 43.90021
2785.687, 43.56053
2787.615, 43.74920
2789.544, 43.37002
2791.472, 42.95436
2793.401, 42.75000
2795.329, 41.69055
2797.258, 41.20232
2799.186, 41.49044
2801.115, 42.15394
2803.043, 41.48910
2804.972, 40.16499
2806.900, 39.41501
2808.829, 39.59694
2810.757, 39.18888
2812.686, 37.25837
2814.614, 39.00803
2816.542, 39.79232
2818.471, 38.01101
2820.399, 37.22838
2822.328, 36.63764
2824.256, 36.15281
2826.185, 35.92096
2828.113, 36.76538
2830.042, 37.46531
2831.970, 36.69975
2833.899, 35.62352
2835.827, 35.24015
2837.756, 35.75481
2839.684, 35.50664
2841.613, 35.71896
2843.541, 35.98282
2845.469, 34.39510
2847.398, 32.79112
2849.326, 31.87724
2851.255, 32.54530
2853.183, 32.32046
2855.112, 32.06685
2857.040, 32.18475
2858.969, 31.38678
2860.897, 30.26774
2862.826, 29.41041
2864.754, 29.87722
2866.683, 29.93280
2868.611, 29.75556
2870.540, 29.71601
2872.468, 29.19169
2874.396, 28.73516
2876.325, 28.64569
2878.253, 29.23589
2880.182, 29.64084
2882.110, 29.63676
2884.039, 29.08937
2885.967, 28.95567
2887.896, 28.73677
2889.824, 28.04170
2891.753, 28.00306
2893.681, 26.04143
2895.610, 27.43803
2897.538, 25.96692
2899.467, 25.31293
2901.395, 25.39326
2903.323, 25.73286
2905.252, 25.39110
2907.180, 25.22579
2909.109, 25.41649
2911.037, 25.18387
2912.966, 26.02380
2914.894, 26.47219
2916.823, 26.10257
2918.751, 26.11353
2920.680, 25.01029
2922.608, 24.98236
2924.537, 23.44906
2926.465, 22.41762
2928.394, 22.38622
2930.322, 23.61777
2932.250, 23.76202
2934.179, 23.63321
2936.107, 23.71676
2938.036, 22.95935
2939.964, 21.80030
2941.893, 20.79334
2943.821, 20.61594
2945.750, 21.27182
2947.678, 22.10185
2949.607, 22.65667
2951.535, 22.42654
2953.464, 22.23644
2955.392, 21.68080
2957.321, 19.42746
2959.249, 21.74843
2961.177, 22.23118
2963.106, 18.81385
2965.034, 18.36451
2966.963, 19.55290
2968.891, 20.86905
2970.820, 20.65259
2972.748, 19.84789
2974.677, 19.21043
2976.605, 19.04349
2978.534, 18.66944
2980.462, 18.49479
2982.391, 18.45379
2984.319, 18.33251
2986.248, 18.23674
2988.176, 18.21672
2990.104, 18.48696
2992.033, 18.30831
2993.961, 18.70985
2995.890, 18.27463
2997.818, 18.30564
2999.747, 16.87676
3001.675, 17.61454
3003.604, 17.27253
3005.532, 15.99519
3007.461, 15.96214
3009.389, 16.17138
3011.318, 16.09423
3013.246, 16.39652
3015.175, 15.84515
3017.103, 15.57205
3019.031, 16.77389
3020.960, 15.25942
3022.888, 14.52437
3024.817, 15.15421
3026.745, 15.97903
3028.674, 15.16911
3030.602, 14.60547
3032.531, 15.13648
3034.459, 14.10538
3036.388, 15.72976
3038.316, 14.77670
3040.245, 15.58413
3042.173, 13.98010
3044.102, 13.38153
3046.030, 13.32845
3047.958, 12.20610
3049.887, 13.70538
3051.815, 14.91827
3053.744, 14.29881
3055.672, 13.38501
3057.601, 12.85313
3059.529, 12.49837
3061.458, 12.13867
3063.386, 11.78933
3065.315, 11.87895
3067.243, 11.33704
3069.172, 12.10145
3071.100, 12.24402
3073.029, 12.19449
3074.957, 11.89984
3076.885, 12.15976
3078.814, 11.89488
3080.742, 12.11904
3082.671, 11.78514
3084.599, 11.01899
3086.528, 11.26536
3088.456, 11.76065
3090.385, 11.68535
3092.313, 12.50342
3094.242, 11.61017
3096.170, 9.968685
3098.099, 9.672534
3100.027, 9.932770
3101.956, 10.31218
3103.884, 10.28381
3105.813, 10.21220
3107.741, 9.517958
3109.669, 10.01198
3111.598, 9.738454
3113.526, 10.23402
3115.455, 8.865955
3117.383, 8.903899
3119.312, 11.27784
3121.240, 10.43929
3123.169, 11.25551
3125.097, 11.57333
3127.026, 10.07313
3128.954, 10.87405
3130.883, 9.490582
3132.811, 8.240035
3134.740, 9.381586
3136.668, 9.887133
3138.596, 9.440190
3140.525, 8.927897
3142.453, 9.208262
3144.382, 8.556416
3146.310, 8.557351
3148.239, 8.695484
3150.167, 7.765002
3152.096, 8.719925
3154.024, 8.568816
3155.953, 8.003820
3157.881, 9.832763
3159.810, 7.655775
3161.738, 6.645857
3163.667, 7.633927
3165.595, 9.617650
3167.523, 9.555247
3169.452, 9.443050
3171.380, 9.124056
3173.309, 9.074615
3175.237, 7.779555
3177.166, 8.441794
3179.094, 8.189521
3181.023, 7.084628
3182.951, 8.548766
3184.880, 9.485409
3186.808, 8.771368
3188.737, 6.639139
3190.665, 7.384618
3192.594, 7.361479
3194.522, 6.540515
3196.450, 6.960688
3198.379, 5.598008
3200.307, 5.829030
3202.236, 6.619637
3204.164, 4.801710
3206.093, 6.262118
3208.021, 7.734196
3209.950, 8.201663
3211.878, 7.663179
3213.807, 6.979202
3215.735, 6.760936
3217.664, 6.915438
3219.592, 7.220395
3221.521, 5.750207
3223.449, 5.298164
3225.377, 6.019484
3227.306, 7.381332
3229.234, 7.737293
3231.163, 6.746055
3233.091, 5.951251
3235.020, 6.245061
3236.948, 5.578374
3238.877, 5.873756
3240.805, 5.843792
3242.734, 5.018047
3244.662, 5.157998
3246.591, 5.288402
3248.519, 4.685229
3250.448, 3.913004
3252.376, 5.202160
3254.304, 5.279790
3256.233, 4.309016
3258.161, 3.545655
3260.090, 4.873816
3262.018, 3.779766
3263.947, 4.903523
3265.875, 6.186863
3267.804, 3.854719
3269.732, 3.831277
3271.661, 4.643362
3273.589, 5.567001
3275.518, 6.185390
3277.446, 5.771428
3279.375, 4.666726
3281.303, 4.227898
3283.231, 4.924359
3285.160, 4.228019
3287.088, 5.266747
3289.017, 4.486833
3290.945, 4.606971
3292.874, 5.680054
3294.802, 7.286558
3296.731, 7.774168
3298.659, 8.054826
3300.588, 7.606619
3302.516, 7.351729
3304.445, 6.077599
3306.373, 4.651814
3308.302, 4.930645
3310.230, 4.661613
3312.158, 3.250966
3314.087, 5.362071
3316.015, 6.111451
3317.944, 6.026389
3319.872, 4.644128
3321.801, 4.605042
3323.729, 3.552787
3325.658, 2.170910
3327.586, 4.472535
3329.515, 4.798525
3331.443, 4.181840
3333.372, 3.400079
3335.300, 4.054141
3337.229, 3.684339
3339.157, 4.708043
3341.085, 4.738340
3343.014, 4.548348
3344.942, 4.168844
3346.871, 4.204629
3348.799, 4.131379
3350.728, 3.966492
3352.656, 4.110888
3354.585, 3.839919
3356.513, 3.518280
3358.442, 4.330777
3360.370, 3.328971
3362.299, 4.467845
3364.227, 2.775268
3366.156, 3.004993
3368.084, 4.553734
3370.012, 5.394621
3371.941, 4.670175
3373.869, 4.394702
3375.798, 4.299544
3377.726, 3.778992
3379.655, 3.777021
3381.583, 4.771560
3383.512, 5.136350
3385.440, 4.896779
3387.369, 5.368610
3389.297, 4.479650
3391.226, 3.417320
3393.154, 2.927657
3395.083, 2.974863
3397.011, 2.410515
3398.939, 3.388399
3400.868, 3.623967
3402.796, 2.798583
3404.725, 1.913540
3406.653, 2.119110
3408.582, 1.852022
3410.510, 2.420093
3412.439, 2.108754
3414.367, 3.050722
3416.296, 2.957526
3418.224, 2.479665
3420.153, 2.864754
3422.081, 2.935865
3424.010, 3.207592
3425.938, 3.593593
3427.866, 3.511852
3429.795, 3.793648
3431.723, 2.748290
3433.652, 3.292875
3435.580, 1.749568
3437.509, 1.757971
3439.437, 3.283287
3441.366, 4.616556
3443.294, 4.200766
3445.223, 2.678905
3447.151, 2.880714
3449.080, 4.154611
3451.008, 4.177915
3452.937, 4.161470
3454.865, 6.351529
3456.793, 4.905181
3458.722, 1.165634
##END=



