##NAMES=Celsian
##RRUFFID=R060152
##IDEAL CHEMISTRY=Ba(Al_2_Si_2_O_8_)
##LOCALITY=Benallt mine, Lleyn, Wales
##OWNER=RRUFF
##SOURCE=Marcus Origlieri
##DESCRIPTION=Colorless to white elongated prismatic crystals
##STATUS=The identification of this mineral is confirmed by single-crystal X-ray diffraction and chemical analysis
##URL=https://www.rruff.net/odr/rruff_sample/R060152
##MEASURED CHEMISTRY=(Ba_0.98_K_0.02_[box]_0.02_)Al_2.00_Si_2.00_O_8_
##DIFFRACTION SAMPLE DESCRIPTION=Single crystal, powder profile is calculated
##CELL PARAMETERS=a: 8.633 b: 13.058 c: 14.43 alpha: 90 beta: 114.96 gamma: 90 volume: 1474.8 crystal system: monoclinic
##FILETYPE=Raman Processed
##RAMAN WAVELENGTH=532

159.2715, 425.0479
161.2000, 435.4817
163.1284, 446.3816
165.0569, 459.8780
166.9854, 468.6059
168.9138, 472.4133
170.8423, 472.2881
172.7708, 464.1763
174.6992, 443.3774
176.6277, 419.7239
178.5562, 398.4385
180.4846, 378.1174
182.4131, 362.3933
184.3416, 351.5375
186.2701, 345.4384
188.1985, 342.2964
190.1270, 344.7220
192.0555, 347.7209
193.9839, 348.7218
195.9124, 348.0882
197.8409, 344.7382
199.7693, 336.8362
201.6978, 325.3764
203.6263, 314.4706
205.5547, 302.8673
207.4832, 292.7927
209.4117, 285.8629
211.3401, 281.8304
213.2686, 281.6372
215.1971, 287.6816
217.1255, 297.9450
219.0540, 307.7056
220.9825, 318.2337
222.9109, 327.2550
224.8394, 332.1034
226.7679, 331.8530
228.6963, 332.9701
230.6248, 336.5428
232.5533, 342.3886
234.4817, 351.2368
236.4102, 364.3139
238.3387, 378.7589
240.2671, 394.7042
242.1956, 413.3025
244.1241, 428.4571
246.0525, 439.5272
247.9810, 446.6345
249.9095, 449.0841
251.8379, 446.3743
253.7664, 439.1097
255.6949, 428.7331
257.6233, 414.3119
259.5518, 398.5990
261.4803, 380.3162
263.4087, 361.4272
265.3372, 344.6641
267.2657, 330.0470
269.1941, 317.6600
271.1226, 307.9687
273.0511, 301.6214
274.9795, 296.0991
276.9080, 291.7216
278.8365, 288.2563
280.7649, 285.1903
282.6934, 282.5724
284.6219, 280.4911
286.5503, 278.5692
288.4788, 276.9996
290.4073, 276.5289
292.3357, 277.1353
294.2642, 278.8115
296.1927, 281.7565
298.1211, 287.6027
300.0496, 292.8818
301.9781, 297.8970
303.9065, 302.1727
305.8350, 304.4810
307.7635, 303.6820
309.6919, 301.3910
311.6204, 297.4383
313.5489, 291.3168
315.4773, 285.0161
317.4058, 278.9449
319.3343, 273.4184
321.2627, 268.9736
323.1912, 265.1745
325.1197, 262.8362
327.0481, 263.0575
328.9766, 265.5061
330.9051, 267.8991
332.8336, 270.3770
334.7620, 272.6789
336.6905, 274.1974
338.6190, 273.5107
340.5474, 274.1389
342.4759, 277.0110
344.4044, 281.7642
346.3328, 287.6281
348.2613, 295.5910
350.1898, 303.5975
352.1182, 311.0689
354.0467, 318.1773
355.9752, 323.3236
357.9036, 324.9977
359.8321, 324.4377
361.7606, 322.6583
363.6890, 319.2013
365.6175, 314.1714
367.5460, 307.6411
369.4744, 300.1548
371.4029, 293.3969
373.3314, 288.4944
375.2598, 284.9882
377.1883, 282.5732
379.1168, 280.9709
381.0452, 280.8329
382.9737, 282.7562
384.9022, 285.9185
386.8306, 289.0672
388.7591, 292.3153
390.6876, 295.1626
392.6160, 296.9418
394.5445, 297.4665
396.4730, 297.5162
398.4014, 296.6065
400.3299, 295.3239
402.2584, 294.4205
404.1868, 296.4113
406.1153, 297.2007
408.0438, 295.8908
409.9722, 293.8934
411.9007, 293.4499
413.8292, 294.4229
415.7576, 297.1903
417.6861, 301.8354
419.6146, 308.5063
421.5430, 315.7459
423.4715, 323.9043
425.4000, 332.4077
427.3284, 340.6242
429.2569, 347.4001
431.1854, 353.1839
433.1138, 358.0625
435.0423, 361.8893
436.9708, 364.8069
438.8992, 368.5904
440.8277, 372.0415
442.7562, 374.2009
444.6846, 374.7780
446.6131, 378.8276
448.5416, 386.8931
450.4700, 398.0836
452.3985, 411.9986
454.3270, 429.3488
456.2554, 449.1369
458.1839, 472.8637
460.1124, 498.8116
462.0408, 525.3595
463.9693, 547.4059
465.8978, 565.8695
467.8262, 576.9024
469.7547, 579.5852
471.6832, 581.5273
473.6116, 580.0443
475.5401, 582.6526
477.4686, 595.6872
479.3970, 624.0452
481.3255, 652.8184
483.2540, 691.5992
485.1824, 731.7418
487.1109, 762.4125
489.0394, 763.0558
490.9678, 774.9606
492.8963, 796.3781
494.8248, 829.6757
496.7532, 883.0778
498.6817, 971.4019
500.6102, 1063.111
502.5386, 1153.384
504.4671, 1244.772
506.3956, 1314.503
508.3240, 1350.626
510.2525, 1349.688
512.1810, 1314.524
514.1094, 1232.549
516.0379, 1126.317
517.9664, 1005.652
519.8948, 890.3061
521.8233, 784.8207
523.7518, 693.8365
525.6802, 620.4578
527.6087, 567.3428
529.5372, 528.8289
531.4656, 498.6264
533.3941, 475.0471
535.3226, 452.6860
537.2510, 429.3389
539.1795, 405.1508
541.1080, 385.0438
543.0364, 370.2213
544.9649, 359.6837
546.8934, 353.3875
548.8218, 352.7211
550.7503, 352.3487
552.6788, 352.9838
554.6072, 352.9253
556.5357, 351.5521
558.4642, 347.0255
560.3926, 341.2020
562.3211, 334.6922
564.2496, 328.5107
566.1780, 322.2664
568.1065, 316.2313
570.0350, 311.3019
571.9634, 307.8227
573.8919, 305.5553
575.8204, 304.4379
577.7488, 304.3092
579.6773, 304.5331
581.6058, 304.8387
583.5342, 305.2638
585.4627, 306.6982
587.3912, 310.1913
589.3196, 313.9010
591.2481, 316.7745
593.1766, 318.5655
595.1050, 319.7198
597.0335, 319.9975
598.9620, 319.2931
600.8904, 317.4422
602.8189, 314.9705
604.7474, 313.3709
606.6758, 313.1264
608.6043, 313.7617
610.5328, 314.7456
612.4612, 316.4949
614.3897, 318.0485
616.3182, 319.9145
618.2466, 320.7012
620.1751, 319.5580
622.1036, 316.1615
624.0320, 312.2792
625.9605, 307.9745
627.8890, 303.3499
629.8174, 299.1340
631.7459, 295.3319
633.6744, 292.6493
635.6028, 291.3883
637.5313, 291.1381
639.4598, 291.4915
641.3882, 292.5084
643.3167, 293.4930
645.2452, 294.1029
647.1736, 294.5869
649.1021, 295.6224
651.0306, 297.4044
652.9590, 299.5424
654.8875, 301.8422
656.8160, 304.6479
658.7444, 307.4247
660.6729, 310.0809
662.6014, 312.9240
664.5298, 316.0739
666.4583, 319.1217
668.3868, 322.5582
670.3152, 326.4897
672.2437, 331.0879
674.1722, 336.4040
676.1006, 343.5437
678.0291, 350.0772
679.9576, 356.3839
681.8860, 361.4074
683.8145, 364.7897
685.7430, 366.5380
687.6714, 366.0744
689.5999, 362.5501
691.5284, 357.3618
693.4568, 352.3370
695.3853, 347.1483
697.3138, 342.8832
699.2422, 339.5801
701.1707, 337.5990
703.0992, 336.9023
705.0276, 337.9992
706.9561, 339.4586
708.8846, 341.2296
710.8130, 343.3939
712.7415, 346.0620
714.6700, 349.4148
716.5984, 352.2325
718.5269, 353.9809
720.4554, 355.1884
722.3839, 356.2737
724.3123, 357.3439
726.2408, 358.1228
728.1693, 358.3673
730.0977, 357.9217
732.0262, 356.8636
733.9547, 354.1996
735.8831, 352.1297
737.8116, 351.6317
739.7401, 352.6383
741.6685, 354.5117
743.5970, 358.0417
745.5255, 361.7244
747.4539, 365.3963
749.3824, 368.9520
751.3109, 371.0138
753.2393, 371.8107
755.1678, 370.3695
757.0963, 366.1326
759.0247, 359.0007
760.9532, 351.6336
762.8817, 343.4135
764.8101, 335.6541
766.7386, 328.5818
768.6671, 322.2865
770.5955, 317.5386
772.5240, 315.1634
774.4525, 313.6476
776.3809, 312.2370
778.3094, 310.9275
780.2379, 309.7216
782.1663, 308.5309
784.0948, 307.4384
786.0233, 306.4536
787.9517, 305.5937
789.8802, 304.9225
791.8087, 304.5413
793.7371, 304.2370
795.6656, 303.9849
797.5941, 303.8499
799.5225, 303.6614
801.4510, 303.2740
803.3795, 303.0065
805.3079, 303.0590
807.2364, 303.4552
809.1649, 303.8958
811.0933, 304.2726
813.0218, 304.6716
814.9503, 305.1442
816.8787, 305.6150
818.8072, 306.1143
820.7357, 306.9067
822.6641, 307.5925
824.5926, 307.7629
826.5211, 307.3763
828.4495, 307.0964
830.3780, 307.0018
832.3065, 307.1172
834.2349, 307.5497
836.1634, 308.2450
838.0919, 308.5210
840.0203, 307.7376
841.9488, 307.1861
843.8773, 307.6011
845.8057, 308.9315
847.7342, 309.7987
849.6627, 309.8314
851.5911, 309.7017
853.5196, 309.6710
855.4481, 309.8987
857.3765, 310.2955
859.3050, 310.9036
861.2335, 311.4533
863.1619, 312.1778
865.0904, 313.1996
867.0189, 313.8262
868.9473, 313.7251
870.8758, 313.6355
872.8043, 314.0153
874.7327, 314.7128
876.6612, 315.2682
878.5897, 315.4380
880.5181, 315.7454
882.4466, 316.6026
884.3751, 317.4696
886.3035, 317.4334
888.2320, 316.2213
890.1605, 315.6608
892.0889, 316.6592
894.0174, 318.2411
895.9459, 319.7581
897.8743, 321.3695
899.8028, 323.0619
901.7313, 324.6928
903.6597, 325.8547
905.5882, 326.8863
907.5167, 327.9489
909.4451, 329.4047
911.3736, 331.5726
913.3021, 333.6814
915.2305, 335.0459
917.1590, 335.8271
919.0875, 337.5812
921.0159, 341.2604
922.9444, 344.9222
924.8729, 348.0094
926.8013, 350.7252
928.7298, 354.3256
930.6583, 359.0918
932.5867, 364.3794
934.5152, 369.3580
936.4437, 374.6949
938.3721, 381.1056
940.3006, 389.2188
942.2291, 397.1338
944.1575, 404.7574
946.0860, 412.4253
948.0145, 419.1998
949.9429, 425.0241
951.8714, 430.2202
953.7999, 434.2193
955.7283, 438.0943
957.6568, 443.4232
959.5853, 449.4136
961.5137, 456.7493
963.4422, 467.7116
965.3707, 479.6844
967.2991, 490.7431
969.2276, 502.0547
971.1561, 514.0845
973.0845, 526.3831
975.0130, 538.7158
976.9415, 551.0752
978.8699, 563.5014
980.7984, 573.9258
982.7269, 582.1559
984.6553, 586.9374
986.5838, 589.2391
988.5123, 589.6487
990.4407, 585.1100
992.3692, 573.0385
994.2977, 557.6938
996.2261, 543.3314
998.1546, 530.3655
1000.083, 518.8865
1002.012, 509.4108
1003.940, 502.3744
1005.868, 497.4367
1007.797, 493.5342
1009.725, 492.4372
1011.654, 494.3764
1013.582, 495.2545
1015.511, 494.0364
1017.439, 491.9544
1019.368, 486.8221
1021.296, 477.5302
1023.225, 466.6484
1025.153, 454.3503
1027.082, 441.7784
1029.010, 432.1705
1030.939, 425.8421
1032.867, 421.1025
1034.796, 417.1789
1036.724, 413.5186
1038.652, 410.9128
1040.581, 410.0532
1042.509, 409.2842
1044.438, 408.4052
1046.366, 408.5927
1048.295, 410.7635
1050.223, 414.9455
1052.152, 419.6136
1054.080, 423.3068
1056.009, 424.6125
1057.937, 422.9962
1059.866, 420.3831
1061.794, 417.1367
1063.723, 413.0707
1065.651, 408.0155
1067.579, 401.5065
1069.508, 394.2939
1071.436, 388.0991
1073.365, 383.6597
1075.293, 380.2183
1077.222, 377.5154
1079.150, 375.4952
1081.079, 374.3194
1083.007, 372.8121
1084.936, 370.9859
1086.864, 370.1743
1088.793, 370.4397
1090.721, 371.2151
1092.650, 371.6773
1094.578, 371.8961
1096.506, 372.0730
1098.435, 372.1166
1100.363, 372.0406
1102.292, 371.6461
1104.220, 370.2874
1106.149, 367.4570
1108.077, 365.1972
1110.006, 364.1095
1111.934, 363.5450
1113.863, 362.4774
1115.791, 360.7464
1117.720, 359.3563
1119.648, 359.0499
1121.577, 359.2382
1123.505, 358.9887
1125.433, 358.1008
1127.362, 357.5354
1129.290, 357.6099
1131.219, 357.7318
1133.147, 358.0730
1135.076, 358.6010
1137.004, 358.8087
1138.933, 358.0645
1140.861, 357.2621
1142.790, 357.1238
1144.718, 357.8844
1146.647, 358.7301
1148.575, 358.6644
1150.504, 357.8551
1152.432, 357.6703
1154.360, 357.9467
1156.289, 357.7402
1158.217, 357.0776
1160.146, 356.8494
1162.074, 357.4152
1164.003, 357.6393
1165.931, 357.8222
1167.860, 358.0364
1169.788, 358.3858
1171.717, 359.0576
1173.645, 360.4626
1175.574, 360.8329
1177.502, 359.8855
1179.431, 359.4048
1181.359, 360.0782
1183.287, 361.0111
1185.216, 361.6420
1187.144, 362.0238
1189.073, 362.1199
1191.001, 362.1688
1192.930, 362.5122
1194.858, 363.2084
1196.787, 363.9975
1198.715, 365.0644
1200.644, 366.1331
1202.572, 366.7336
1204.501, 366.8418
1206.429, 366.9200
1208.358, 367.3565
1210.286, 367.1861
1212.214, 365.9276
1214.143, 364.6768
1216.071, 364.9365
1218.000, 366.8211
1219.928, 368.3453
1221.857, 368.4404
1223.785, 368.5584
1225.714, 369.7978
1227.642, 371.6629
1229.571, 372.9117
1231.499, 373.6338
1233.428, 374.0698
1235.356, 373.4781
1237.285, 372.3766
1239.213, 371.8725
1241.141, 372.3160
1243.070, 372.9732
1244.998, 373.6227
1246.927, 374.0643
1248.855, 374.4854
1250.784, 374.8762
1252.712, 375.3189
1254.641, 375.8939
1256.569, 376.8771
1258.498, 378.2148
1260.426, 379.2409
1262.355, 379.5639
1264.283, 379.1720
1266.212, 379.3712
1268.140, 381.0479
1270.068, 382.3577
1271.997, 382.2518
1273.925, 381.6293
1275.854, 381.3172
1277.782, 381.2745
1279.711, 381.5564
1281.639, 382.3725
1283.568, 383.3915
1285.496, 384.7713
1287.425, 386.2822
1289.353, 386.9701
1291.282, 386.3714
1293.210, 386.0006
1295.139, 386.2184
1297.067, 387.1305
1298.995, 388.8523
1300.924, 391.0675
1302.852, 391.7377
1304.781, 389.8851
1306.709, 388.1029
1308.638, 387.3010
1310.566, 387.4591
1312.495, 388.5953
1314.423, 390.8675
1316.352, 392.7464
1318.280, 394.2726
1320.209, 395.3002
1322.137, 395.2053
1324.066, 394.5472
1325.994, 394.6383
1327.922, 396.0939
1329.851, 396.9372
1331.779, 396.6948
1333.708, 396.5141
1335.636, 396.7280
1337.565, 397.2367
1339.493, 397.9616
1341.422, 398.9999
1343.350, 399.7505
1345.279, 399.7202
1347.207, 399.7389
1349.136, 400.4535
1351.064, 401.6582
1352.993, 402.4679
1354.921, 402.7823
1356.849, 403.0599
1358.778, 403.1328
1360.706, 403.2107
1362.635, 403.9269
1364.563, 405.4368
1366.492, 406.4607
1368.420, 406.5909
1370.349, 406.8145
1372.277, 406.9813
1374.206, 407.0673
1376.134, 407.5178
1378.063, 408.4488
1379.991, 409.4951
1381.920, 410.8877
1383.848, 412.0081
1385.776, 412.6861
1387.705, 413.0258
1389.633, 413.2342
1391.562, 413.3482
1393.490, 413.2034
1395.419, 412.3864
1397.347, 411.9876
1399.276, 413.0996
1401.204, 414.7518
1403.133, 415.0031
1405.061, 413.4206
1406.990, 413.0602
1408.918, 415.6232
1410.847, 417.9879
1412.775, 418.4110
1414.703, 417.7457
1416.632, 417.9128
1418.560, 419.3703
1420.489, 420.3746
1422.417, 420.4417
1424.346, 420.5285
1426.274, 421.2752
1428.203, 422.2714
1430.131, 422.4516
1432.060, 420.9854
1433.988, 420.4938
1435.917, 421.8812
1437.845, 423.2386
1439.774, 423.3655
1441.702, 422.8541
1443.630, 423.1963
1445.559, 424.5392
1447.487, 425.8636
1449.416, 427.1330
1451.344, 428.2515
1453.273, 429.4576
1455.201, 430.3637
1457.130, 430.1631
1459.058, 428.7565
1460.987, 427.8769
1462.915, 427.6693
1464.844, 428.1129
1466.772, 429.9594
1468.701, 432.1375
1470.629, 432.6977
1472.557, 431.4117
1474.486, 430.6628
1476.414, 431.3325
1478.343, 431.8901
1480.271, 431.5008
1482.200, 430.8498
1484.128, 430.8783
1486.057, 431.6130
1487.985, 432.5713
1489.914, 434.2350
1491.842, 435.3532
1493.771, 435.3014
1495.699, 434.7158
1497.628, 434.2632
1499.556, 433.9667
1501.484, 433.8283
1503.413, 433.8550
1505.341, 434.0786
1507.270, 434.6147
1509.198, 435.3938
1511.127, 436.3457
1513.055, 437.2785
1514.984, 438.0806
1516.912, 438.8728
1518.841, 439.5767
1520.769, 439.9748
1522.698, 440.2533
1524.626, 440.7181
1526.555, 441.3897
1528.483, 441.7060
1530.411, 441.4759
1532.340, 441.2972
1534.268, 441.3587
1536.197, 441.5371
1538.125, 441.7130
1540.054, 441.9408
1541.982, 442.2575
1543.911, 442.6069
1545.839, 443.3626
1547.768, 445.1577
1549.696, 446.4274
1551.625, 445.9565
1553.553, 444.8825
1555.482, 444.2553
1557.410, 444.1022
1559.339, 444.9467
1561.267, 447.5921
1563.195, 449.3910
1565.124, 449.0001
1567.052, 448.0351
1568.981, 447.3891
1570.909, 447.0736
1572.838, 446.9607
1574.766, 446.9299
1576.695, 447.3775
1578.623, 449.4044
1580.552, 450.8256
1582.480, 450.0927
1584.409, 448.4211
1586.337, 447.9595
1588.266, 448.9482
1590.194, 449.7849
1592.122, 450.5450
1594.051, 450.9453
1595.979, 450.3209
1597.908, 449.7763
1599.836, 450.7616
1601.765, 453.0396
1603.693, 453.9055
1605.622, 452.0580
1607.550, 451.0430
1609.479, 451.7968
1611.407, 452.5143
1613.336, 452.3458
1615.264, 451.5540
1617.193, 450.4108
1619.121, 448.5870
1621.049, 447.7642
1622.978, 448.3445
1624.906, 449.2970
1626.835, 450.6715
1628.763, 452.0693
1630.692, 453.2757
1632.620, 454.2462
1634.549, 454.5643
1636.477, 453.9106
1638.406, 453.4667
1640.334, 453.3042
1642.263, 453.4709
1644.191, 453.9735
1646.120, 454.6898
1648.048, 455.4843
1649.976, 456.3012
1651.905, 456.9887
1653.833, 457.3075
1655.762, 457.7809
1657.690, 459.1248
1659.619, 460.1095
1661.547, 459.6309
1663.476, 458.2768
1665.404, 457.5553
1667.333, 457.5797
1669.261, 457.8372
1671.190, 458.6579
1673.118, 459.2194
1675.047, 458.9754
1676.975, 458.5410
1678.903, 458.1991
1680.832, 458.0811
1682.760, 459.0540
1684.689, 461.4493
1686.617, 463.4456
1688.546, 465.0635
1690.474, 465.7868
1692.403, 464.3849
1694.331, 462.6364
1696.260, 463.2846
1698.188, 466.0029
1700.117, 467.1190
1702.045, 465.9823
1703.974, 465.1602
1705.902, 465.0579
1707.830, 465.4933
1709.759, 466.9490
1711.687, 468.5147
1713.616, 468.4271
1715.544, 466.7794
1717.473, 466.4351
1719.401, 468.0442
1721.330, 469.6270
1723.258, 471.2210
1725.187, 472.2428
1727.115, 472.1930
1729.044, 471.4857
1730.972, 470.7051
1732.901, 469.8500
1734.829, 469.0344
1736.757, 467.8922
1738.686, 467.5536
1740.614, 468.9699
1742.543, 470.4588
1744.471, 470.9929
1746.400, 470.9878
1748.328, 471.2046
1750.257, 471.6674
1752.185, 471.7979
1754.114, 471.1126
1756.042, 471.1261
1757.971, 472.6821
1759.899, 474.3766
1761.828, 475.4865
1763.756, 476.1865
1765.684, 476.7866
1767.613, 477.2707
1769.541, 477.2642
1771.470, 476.1889
1773.398, 475.7411
1775.327, 476.4396
1777.255, 477.4779
1779.184, 478.8160
1781.112, 480.0484
1783.041, 480.5617
1784.969, 480.3640
1786.898, 480.0158
1788.826, 479.3104
1790.755, 478.8401
1792.683, 478.7164
1794.611, 478.8024
1796.540, 479.6034
1798.468, 480.2790
1800.397, 479.4460
1802.325, 477.5371
1804.254, 477.1827
1806.182, 479.2916
1808.111, 480.8340
1810.039, 481.1071
1811.968, 481.6493
1813.896, 483.4711
1815.825, 485.0277
1817.753, 484.4852
1819.682, 482.9014
1821.610, 483.4239
1823.538, 486.8371
1825.467, 488.7072
1827.395, 488.4953
1829.324, 487.6395
1831.252, 485.0606
1833.181, 483.3531
1835.109, 484.2680
1837.038, 486.5151
1838.966, 488.5929
1840.895, 490.4595
1842.823, 491.2765
1844.752, 490.7632
1846.680, 490.3668
1848.609, 490.2444
1850.537, 490.4185
1852.465, 491.0038
1854.394, 491.7375
1856.322, 492.7355
1858.251, 493.6095
1860.179, 493.2949
1862.108, 491.7931
1864.036, 490.1516
1865.965, 488.2051
1867.893, 487.2649
1869.822, 488.5206
1871.750, 489.8882
1873.679, 490.1422
1875.607, 489.9012
1877.536, 489.5469
1879.464, 489.2347
1881.392, 489.9295
1883.321, 491.7710
1885.249, 493.3802
1887.178, 494.5932
1889.106, 495.4362
1891.035, 495.9721
1892.963, 496.1257
1894.892, 495.4912
1896.820, 494.6824
1898.749, 494.9664
1900.677, 496.3344
1902.606, 496.7682
1904.534, 495.3399
1906.463, 495.0147
1908.391, 496.7827
1910.319, 498.4413
1912.248, 499.3189
1914.176, 499.8608
1916.105, 500.4867
1918.033, 500.9564
1919.962, 500.4812
1921.890, 498.8766
1923.819, 498.7667
1925.747, 500.9609
1927.676, 502.4242
1929.604, 502.9698
1931.533, 502.5345
1933.461, 499.6985
1935.390, 497.4297
1937.318, 498.7079
1939.246, 501.7722
1941.175, 502.7571
1943.103, 501.9259
1945.032, 502.2431
1946.960, 504.2421
1948.889, 505.1962
1950.817, 503.7457
1952.746, 502.8108
1954.674, 504.3424
1956.603, 505.9806
1958.531, 505.4811
1960.460, 504.2491
1962.388, 504.9736
1964.317, 507.3836
1966.245, 508.6112
1968.173, 508.4077
1970.102, 507.9894
1972.030, 506.8773
1973.959, 506.5173
1975.887, 507.7637
1977.816, 509.2381
1979.744, 510.4044
1981.673, 511.0519
1983.601, 510.4399
1985.530, 508.9041
1987.458, 508.6680
1989.387, 510.0331
1991.315, 511.0658
1993.244, 511.6879
1995.172, 512.0812
1997.100, 512.2659
1999.029, 512.4065
2000.957, 512.8575
2002.886, 513.1437
2004.814, 512.5865
2006.743, 511.7299
2008.671, 511.6670
2010.600, 512.3018
2012.528, 512.7953
2014.457, 512.9481
2016.385, 513.6311
2018.314, 515.5110
2020.242, 516.7870
2022.171, 516.1483
2024.099, 515.5911
2026.027, 516.4473
2027.956, 517.9017
2029.884, 519.4117
2031.813, 520.7065
2033.741, 520.4327
2035.670, 518.1900
2037.598, 517.2870
2039.527, 518.3309
2041.455, 519.4034
2043.384, 520.8162
2045.312, 521.4798
2047.241, 520.1537
2049.169, 519.0286
2051.098, 520.0093
2053.026, 521.5034
2054.955, 521.1096
2056.883, 519.5880
2058.812, 519.4645
2060.740, 520.7563
2062.668, 521.5401
2064.597, 521.3683
2066.525, 521.8044
2068.454, 523.9579
2070.382, 525.4697
2072.311, 525.3785
2074.239, 524.6522
2076.168, 523.0638
2078.096, 521.8494
2080.025, 523.0952
2081.953, 525.9916
2083.882, 527.6793
2085.810, 528.0547
2087.739, 528.1645
2089.667, 528.0013
2091.595, 527.4069
2093.524, 525.4860
2095.452, 524.9103
2097.381, 527.8605
2099.309, 530.2227
2101.238, 529.2228
2103.166, 527.1849
2105.095, 525.9102
2107.023, 525.3769
2108.952, 525.7980
2110.880, 527.0548
2112.809, 527.6308
2114.737, 527.2539
2116.666, 527.3170
2118.594, 527.6835
2120.522, 528.6129
2122.451, 530.8145
2124.379, 532.5284
2126.308, 533.2635
2128.236, 533.3206
2130.165, 532.3332
2132.093, 531.2630
2134.022, 531.3707
2135.950, 532.2608
2137.879, 533.1005
2139.807, 533.7593
2141.736, 533.0814
2143.664, 530.6710
2145.593, 530.1832
2147.521, 533.1181
2149.449, 535.7044
2151.378, 537.3619
2153.306, 538.3365
2155.235, 538.3234
2157.163, 538.0641
2159.092, 537.8768
2161.020, 537.6714
2162.949, 537.0625
2164.877, 536.3239
2166.806, 536.6824
2168.734, 538.0289
2170.663, 538.7108
2172.591, 538.7492
2174.520, 538.6309
2176.448, 538.2656
2178.376, 538.7955
2180.305, 541.4242
2182.233, 543.1991
2184.162, 541.8435
2186.090, 540.6962
2188.019, 542.3909
2189.947, 544.4884
2191.876, 544.3480
2193.804, 543.0953
2195.733, 542.7374
2197.661, 543.1834
2199.590, 543.8784
2201.518, 544.7983
2203.447, 545.3002
2205.375, 545.2165
2207.303, 545.1945
2209.232, 545.2704
2211.160, 545.6295
2213.089, 546.9807
2215.017, 547.7062
2216.946, 546.3130
2218.874, 545.1669
2220.803, 546.2689
2222.731, 547.8898
2224.660, 547.9990
2226.588, 547.2756
2228.517, 546.8322
2230.445, 546.7786
2232.374, 548.5054
2234.302, 552.0289
2236.230, 553.0579
2238.159, 551.0905
2240.087, 549.1810
2242.016, 547.3636
2243.944, 546.8954
2245.873, 548.7627
2247.801, 550.8604
2249.730, 553.3006
2251.658, 554.7243
2253.587, 553.7570
2255.515, 552.1739
2257.444, 551.1395
2259.372, 550.7361
2261.301, 551.3768
2263.229, 552.6455
2265.157, 553.3735
2267.086, 553.6045
2269.014, 553.5712
2270.943, 553.2833
2272.871, 553.3373
2274.800, 553.8391
2276.728, 554.5239
2278.657, 555.3405
2280.585, 556.3497
2282.514, 558.1628
2284.442, 559.1960
2286.371, 558.5018
2288.299, 557.4607
2290.228, 556.4703
2292.156, 555.7646
2294.084, 555.4173
2296.013, 555.6057
2297.941, 556.9980
2299.870, 558.8539
2301.798, 559.4435
2303.727, 559.0831
2305.655, 559.5757
2307.584, 560.9940
2309.512, 561.7739
2311.441, 561.7899
2313.369, 561.6245
2315.298, 561.0215
2317.226, 561.3278
2319.155, 563.3430
2321.083, 564.4834
2323.011, 563.1847
2324.940, 562.4005
2326.868, 564.0115
2328.797, 565.5931
2330.725, 565.6570
2332.654, 565.3567
2334.582, 566.0578
2336.511, 566.6921
2338.439, 565.4823
2340.368, 563.4816
2342.296, 562.9568
2344.225, 563.4149
2346.153, 563.0085
2348.082, 561.8723
2350.010, 561.1018
2351.938, 560.7270
2353.867, 560.9400
2355.795, 561.9039
2357.724, 562.9486
2359.652, 564.3616
2361.581, 565.2667
2363.509, 565.6555
2365.438, 565.3811
2367.366, 563.7847
2369.295, 562.6435
2371.223, 562.3135
2373.152, 563.1034
2375.080, 567.0335
2377.009, 570.0287
2378.937, 567.7795
2380.865, 564.3197
2382.794, 564.3077
2384.722, 565.6193
2386.651, 564.4142
2388.579, 562.0637
2390.508, 562.5346
2392.436, 564.9670
2394.365, 565.8627
2396.293, 565.3275
2398.222, 564.5286
2400.150, 563.4147
2402.079, 563.8243
2404.007, 566.9045
2405.936, 568.3871
2407.864, 567.1557
2409.792, 566.8620
2411.721, 568.2578
2413.649, 569.2540
2415.578, 569.2357
2417.506, 569.2129
2419.435, 569.2751
2421.363, 569.8199
2423.292, 572.0444
2425.220, 573.4757
2427.149, 572.0342
2429.077, 570.1914
2431.006, 569.5702
2432.934, 569.6384
2434.863, 570.1444
2436.791, 570.8221
2438.719, 571.4120
2440.648, 571.8825
2442.576, 572.3054
2444.505, 572.5426
2446.433, 571.8220
2448.362, 570.5314
2450.290, 571.0678
2452.219, 573.3646
2454.147, 574.5028
2456.076, 574.4660
2458.004, 573.1803
2459.933, 570.4841
2461.861, 570.3672
2463.790, 573.9955
2465.718, 575.7512
2467.646, 573.6139
2469.575, 572.4387
2471.503, 573.4320
2473.432, 574.0696
2475.360, 573.9847
2477.289, 573.9898
2479.217, 574.4464
2481.146, 574.7070
2483.074, 574.0215
2485.003, 573.7050
2486.931, 574.3781
2488.860, 575.3676
2490.788, 576.8250
2492.717, 577.7792
2494.645, 577.4647
2496.573, 576.5784
2498.502, 575.3391
2500.430, 574.2691
2502.359, 574.0497
2504.287, 574.1103
2506.216, 573.5084
2508.144, 572.7623
2510.073, 573.1116
2512.001, 573.8738
2513.930, 573.3925
2515.858, 571.9948
2517.787, 570.4066
2519.715, 568.9399
2521.644, 568.7817
2523.572, 569.8464
2525.500, 571.3723
2527.429, 573.3484
2529.357, 574.2672
2531.286, 573.9236
2533.214, 574.0774
2535.143, 574.8008
2537.071, 574.5876
2539.000, 573.1776
2540.928, 573.0575
2542.857, 575.2722
2544.785, 575.4625
2546.714, 570.9611
2548.642, 568.6291
2550.571, 569.4230
2552.499, 570.4943
2554.427, 571.7355
2556.356, 572.4730
2558.284, 572.0966
2560.213, 572.4136
2562.141, 574.9954
2564.070, 576.6467
2565.998, 575.7375
2567.927, 575.0135
2569.855, 575.0678
2571.784, 575.8591
2573.712, 578.5533
2575.641, 579.8458
2577.569, 576.2090
2579.498, 573.3464
2581.426, 575.1045
2583.354, 577.3697
2585.283, 578.0435
2587.211, 578.0189
2589.140, 577.6610
2591.068, 577.2883
2592.997, 576.8796
2594.925, 576.8702
2596.854, 577.9564
2598.782, 579.0990
2600.711, 578.9960
2602.639, 578.5367
2604.568, 578.4749
2606.496, 578.7970
2608.425, 580.0192
2610.353, 581.2890
2612.281, 581.6713
2614.210, 581.5106
2616.138, 581.1377
2618.067, 580.6189
2619.995, 579.5578
2621.924, 578.6491
2623.852, 579.5812
2625.781, 581.4588
2627.709, 582.9800
2629.638, 583.9131
2631.566, 583.3355
2633.495, 582.0068
2635.423, 581.8528
2637.352, 582.5497
2639.280, 583.2126
2641.208, 583.7580
2643.137, 583.8486
2645.065, 583.6804
2646.994, 584.1212
2648.922, 584.9153
2650.851, 584.6967
2652.779, 583.8292
2654.708, 584.8058
2656.636, 586.9848
2658.565, 585.9859
2660.493, 582.7615
2662.422, 582.5172
2664.350, 584.7170
2666.279, 584.8852
2668.207, 583.2480
2670.135, 582.7557
2672.064, 583.3066
2673.992, 584.3948
2675.921, 585.8477
2677.849, 586.3214
2679.778, 585.9349
2681.706, 586.6237
2683.635, 588.3542
2685.563, 588.9247
2687.492, 588.3935
2689.420, 587.5548
2691.349, 586.4618
2693.277, 585.6810
2695.206, 585.2053
2697.134, 584.5010
2699.063, 583.5938
2700.991, 584.8329
2702.919, 588.1159
2704.848, 590.7656
2706.776, 592.6290
2708.705, 591.8444
2710.633, 588.5834
2712.562, 588.8577
2714.490, 592.5390
2716.419, 594.1384
2718.347, 593.7832
2720.276, 593.7543
2722.204, 593.9681
2724.133, 592.9833
2726.061, 591.0124
2727.990, 591.3481
2729.918, 593.7669
2731.846, 594.0143
2733.775, 592.4368
2735.703, 592.0615
2737.632, 592.8098
2739.560, 594.5417
2741.489, 596.8139
2743.417, 596.0869
2745.346, 592.9702
2747.274, 592.2741
2749.203, 593.3050
2751.131, 592.2745
2753.060, 589.9254
2754.988, 589.7062
2756.917, 591.0733
2758.845, 591.8834
2760.773, 592.2421
2762.702, 592.0661
2764.630, 591.8832
2766.559, 593.6332
2768.487, 596.4738
2770.416, 598.5695
2772.344, 599.7239
2774.273, 598.7874
2776.201, 596.9197
2778.130, 597.2601
2780.058, 598.5789
2781.987, 598.5667
2783.915, 597.9650
2785.844, 598.3707
2787.772, 598.8866
2789.700, 597.1354
2791.629, 595.2156
2793.557, 596.7917
2795.486, 599.4532
2797.414, 600.8113
2799.343, 601.0391
2801.271, 599.5389
2803.200, 597.8371
2805.128, 597.4637
2807.057, 597.9182
2808.985, 599.5548
2810.914, 600.9037
2812.842, 600.5545
2814.771, 599.7372
2816.699, 599.0501
2818.627, 598.7680
2820.556, 598.8190
2822.484, 599.6297
2824.413, 602.1160
2826.341, 604.3527
2828.270, 604.8476
2830.198, 605.3820
2832.127, 606.8224
2834.055, 608.0510
2835.984, 608.7895
2837.912, 609.0483
2839.841, 608.7151
2841.769, 608.2991
2843.698, 608.2245
2845.626, 607.4430
2847.554, 604.9503
2849.483, 604.6680
2851.411, 608.8122
2853.340, 611.7197
2855.268, 612.1995
2857.197, 611.8848
2859.125, 610.3040
2861.054, 611.7640
2862.982, 617.3854
2864.911, 620.7132
2866.839, 621.0521
2868.768, 619.0766
2870.696, 614.5298
2872.625, 612.5023
2874.553, 613.0081
2876.481, 615.4697
2878.410, 619.3477
2880.338, 619.3043
2882.267, 616.2238
2884.195, 616.2038
2886.124, 618.2533
2888.052, 619.5349
2889.981, 620.0582
2891.909, 619.3712
2893.838, 618.2628
2895.766, 618.0627
2897.695, 618.5396
2899.623, 619.5545
2901.552, 620.7198
2903.480, 622.2702
2905.408, 622.9288
2907.337, 620.1064
2909.265, 617.6848
2911.194, 618.4509
2913.122, 620.6841
2915.051, 625.1832
2916.979, 628.1510
2918.908, 626.6022
2920.836, 624.8290
2922.765, 623.2697
2924.693, 623.8313
2926.622, 628.8105
2928.550, 631.8546
2930.479, 630.6014
2932.407, 628.7809
2934.335, 626.2980
2936.264, 625.0757
2938.192, 625.4289
2940.121, 626.1649
2942.049, 627.2841
2943.978, 628.0570
2945.906, 628.4948
2947.835, 627.7631
2949.763, 626.1895
2951.692, 625.4056
2953.620, 625.5844
2955.549, 628.1808
2957.477, 631.6920
2959.406, 631.6527
2961.334, 629.7318
2963.262, 627.8137
2965.191, 626.6262
2967.119, 628.2274
2969.048, 629.7953
2970.976, 628.0216
2972.905, 625.9888
2974.833, 625.3847
2976.762, 625.8118
2978.690, 628.1047
2980.619, 629.6115
2982.547, 628.8809
2984.476, 628.8348
2986.404, 631.0702
2988.333, 632.0069
2990.261, 629.9401
2992.189, 628.5553
2994.118, 628.0363
2996.046, 628.1711
2997.975, 629.0560
2999.903, 628.8621
3001.832, 627.6122
3003.760, 624.9982
3005.689, 621.7979
3007.617, 622.2874
3009.546, 625.2366
3011.474, 627.7678
3013.403, 629.7969
3015.331, 631.1003
3017.260, 631.8801
3019.188, 632.4460
3021.116, 632.6334
3023.045, 632.7625
3024.973, 631.9174
3026.902, 628.1519
3028.830, 625.6247
3030.759, 626.3065
3032.687, 627.4451
3034.616, 628.3400
3036.544, 629.1502
3038.473, 629.7694
3040.401, 631.0334
3042.330, 633.2300
3044.258, 633.2529
3046.187, 630.6152
3048.115, 630.6544
3050.043, 632.8035
3051.972, 633.0352
3053.900, 632.0034
3055.829, 631.7641
3057.757, 631.9498
3059.686, 631.9615
3061.614, 631.8715
3063.543, 631.4661
3065.471, 631.3803
3067.400, 632.6410
3069.328, 633.4319
3071.257, 631.9042
3073.185, 631.3499
3075.114, 633.5425
3077.042, 634.8723
3078.970, 633.4211
3080.899, 633.3122
3082.827, 634.8926
3084.756, 636.5880
3086.684, 638.2753
3088.613, 637.6212
3090.541, 635.1141
3092.470, 635.4927
3094.398, 637.1052
3096.327, 634.5948
3098.255, 631.1591
3100.184, 631.9469
3102.112, 634.0811
3104.041, 634.6035
3105.969, 635.4061
3107.897, 638.6017
3109.826, 640.8240
3111.754, 639.6798
3113.683, 639.3073
3115.611, 640.8392
3117.540, 640.6104
3119.468, 636.9680
3121.397, 636.2844
3123.325, 638.8941
3125.254, 639.2838
3127.182, 638.1360
3129.111, 638.9343
3131.039, 640.9266
3132.968, 642.3004
3134.896, 643.4507
3136.824, 645.6303
3138.753, 646.7886
3140.681, 643.6497
3142.610, 641.3878
3144.538, 643.7802
3146.467, 644.9368
3148.395, 642.3925
3150.324, 641.1328
3152.252, 643.1223
3154.181, 643.5792
3156.109, 642.4950
3158.038, 640.7195
3159.966, 638.8256
3161.895, 640.2592
3163.823, 643.4940
3165.751, 644.6605
3167.680, 644.6706
3169.608, 643.8674
3171.537, 643.4971
3173.465, 645.5800
3175.394, 646.6378
3177.322, 644.5231
3179.251, 643.2225
3181.179, 645.0703
3183.108, 645.6619
3185.036, 644.6500
3186.965, 644.2390
3188.893, 644.5107
3190.822, 644.1131
3192.750, 643.4412
3194.678, 645.0318
3196.607, 646.8683
3198.535, 645.4902
3200.464, 643.3393
3202.392, 642.2567
3204.321, 642.2786
3206.249, 644.1357
3208.178, 645.3275
3210.106, 644.1025
3212.035, 643.8535
3213.963, 644.8215
3215.892, 646.1995
3217.820, 647.7499
3219.749, 647.5521
3221.677, 646.0898
3223.605, 644.7374
3225.534, 644.0322
3227.462, 645.5142
3229.391, 646.8561
3231.319, 645.6713
3233.248, 644.1252
3235.176, 643.0343
3237.105, 642.0817
3239.033, 640.5243
3240.962, 641.2025
3242.890, 644.5218
3244.819, 644.7618
3246.747, 642.3162
3248.676, 642.0384
3250.604, 643.2673
3252.532, 645.0419
3254.461, 646.3868
3256.389, 645.9005
3258.318, 645.0204
3260.246, 644.3609
3262.175, 644.0820
3264.103, 644.2816
3266.032, 644.8151
3267.960, 646.2599
3269.889, 645.5338
3271.817, 643.0989
3273.746, 643.9701
3275.674, 646.6752
3277.603, 647.6789
3279.531, 647.0311
3281.459, 642.9716
3283.388, 640.1498
3285.316, 642.7623
3287.245, 645.4505
3289.173, 646.7485
3291.102, 647.4864
3293.030, 647.6602
3294.959, 648.1409
3296.887, 648.8705
3298.816, 648.1539
3300.744, 646.8014
3302.673, 647.0856
3304.601, 647.5396
3306.530, 645.8172
3308.458, 644.4391
3310.386, 644.6000
3312.315, 645.5494
3314.243, 648.1436
3316.172, 647.9064
3318.100, 644.5126
3320.029, 643.1618
3321.957, 643.9679
3323.886, 647.1175
3325.814, 650.2972
3327.743, 647.8461
3329.671, 644.9866
3331.600, 646.7457
3333.528, 648.2770
3335.457, 647.6083
3337.385, 646.8769
3339.313, 646.9563
3341.242, 645.2084
3343.170, 641.8854
3345.099, 640.3271
3347.027, 640.2387
3348.956, 641.2656
3350.884, 642.4567
3352.813, 642.4480
3354.741, 642.6890
3356.670, 644.8546
3358.598, 645.4133
3360.527, 643.3115
3362.455, 642.3250
3364.384, 642.7828
3366.312, 642.8835
3368.240, 642.7017
3370.169, 642.5837
3372.097, 642.4609
3374.026, 641.9982
3375.954, 642.0137
3377.883, 643.6569
3379.811, 644.0941
3381.740, 642.1435
3383.668, 640.2109
3385.597, 638.4252
3387.525, 641.0987
3389.454, 646.0583
3391.382, 647.0824
3393.311, 645.9986
3395.239, 643.8957
3397.167, 642.5573
3399.096, 643.5614
3401.024, 644.3752
3402.953, 644.5618
3404.881, 644.5256
3406.810, 644.2488
3408.738, 643.2717
3410.667, 641.9772
3412.595, 641.4750
3414.524, 641.2601
3416.452, 641.0302
3418.381, 640.6561
3420.309, 639.6438
3422.238, 640.4891
3424.166, 644.5369
3426.094, 644.8043
3428.023, 641.9631
3429.951, 643.0107
3431.880, 645.2859
3433.808, 643.9832
3435.737, 642.4200
3437.665, 643.2277
3439.594, 643.6240
3441.522, 642.1633
3443.451, 641.6106
3445.379, 642.0828
3447.308, 641.3097
3449.236, 640.0321
3451.165, 641.2741
3453.093, 642.2809
3455.021, 638.5146
3456.950, 636.2338
3458.878, 640.5555
3460.807, 642.1707
3462.735, 639.9496
3464.664, 637.9545
3466.592, 636.4421
3468.521, 634.4495
3470.449, 633.6085
3472.378, 637.3320
3474.306, 640.8348
3476.235, 640.9199
3478.163, 639.8533
3480.092, 637.3995
3482.020, 637.9713
3483.948, 641.3622
3485.877, 641.9405
3487.805, 640.2878
3489.734, 635.8660
3491.662, 632.7023
3493.591, 634.6884
3495.519, 636.4776
3497.448, 636.4859
3499.376, 635.5822
3501.305, 633.9527
3503.233, 634.5270
3505.162, 635.9413
3507.090, 634.8682
3509.019, 633.9441
3510.947, 635.9875
3512.875, 636.9055
3514.804, 634.5901
3516.732, 633.7000
3518.661, 634.3387
3520.589, 633.8337
3522.518, 633.3947
3524.446, 637.5995
3526.375, 640.8771
3528.303, 637.6782
3530.232, 634.6637
3532.160, 633.3892
3534.089, 633.7558
3536.017, 635.6544
3537.946, 635.7850
3539.874, 635.2664
3541.802, 636.5291
3543.731, 637.9166
3545.659, 638.5096
3547.588, 638.0234
3549.516, 636.1002
3551.445, 635.9848
3553.373, 637.6415
3555.302, 639.2546
3557.230, 639.7988
3559.159, 635.8528
3561.087, 633.6545
3563.016, 637.8698
3564.944, 640.8077
3566.873, 640.5371
3568.801, 639.2053
3570.729, 637.6675
3572.658, 640.9949
3574.586, 644.6878
3576.515, 642.3974
3578.443, 640.3105
3580.372, 641.1910
3582.300, 640.9969
3584.229, 639.1033
3586.157, 638.3431
3588.086, 638.2257
3590.014, 637.9416
3591.943, 636.9979
3593.871, 633.8672
3595.800, 633.0115
3597.728, 637.4764
3599.656, 640.7598
3601.585, 642.7051
3603.513, 642.7815
3605.442, 641.5172
3607.370, 638.1405
3609.299, 636.3271
3611.227, 639.3688
3613.156, 641.1036
3615.084, 640.9853
3617.013, 639.8970
3618.941, 638.3254
3620.870, 636.8085
3622.798, 636.2025
3624.727, 637.1663
3626.655, 639.2061
3628.583, 642.9715
3630.512, 642.3842
3632.440, 638.4345
3634.369, 639.4352
3636.297, 641.9975
3638.226, 642.1367
3640.154, 641.3273
3642.083, 640.2875
3644.011, 637.8085
3645.940, 634.1808
3647.868, 634.4050
3649.797, 636.4774
3651.725, 635.8680
3653.654, 635.4550
3655.582, 637.5823
3657.510, 638.7332
3659.439, 638.4324
3661.367, 639.9909
3663.296, 642.3127
3665.224, 641.2662
3667.153, 639.5759
3669.081, 638.9316
3671.010, 639.5936
3672.938, 641.8234
3674.867, 641.1935
3676.795, 638.5851
3678.724, 639.4434
3680.652, 641.4286
3682.581, 643.1055
3684.509, 642.8753
3686.438, 639.5555
3688.366, 639.3049
3690.294, 641.8258
3692.223, 640.9770
3694.151, 640.0518
3696.080, 645.0894
3698.008, 647.2516
3699.937, 641.8370
3701.865, 638.9534
3703.794, 639.4958
3705.722, 642.8975
3707.651, 646.2471
3709.579, 644.7321
3711.508, 642.9662
3713.436, 643.2402
3715.365, 642.4694
3717.293, 640.6143
3719.221, 640.1384
3721.150, 640.3136
3723.078, 639.5555
3725.007, 639.6883
3726.935, 642.1848
3728.864, 643.7217
3730.792, 644.0326
3732.721, 643.6089
3734.649, 643.0383
3736.578, 643.2810
3738.506, 643.7215
3740.435, 644.6204
3742.363, 643.5771
3744.292, 641.0275
3746.220, 642.9216
3748.148, 646.0045
3750.077, 645.3194
3752.005, 644.6483
3753.934, 646.2291
3755.862, 645.4877
3757.791, 642.9148
3759.719, 643.4609
3761.648, 645.4545
3763.576, 647.9792
3765.505, 648.3691
3767.433, 644.5031
3769.362, 643.1432
3771.290, 643.9545
3773.219, 643.4645
3775.147, 642.9450
3777.075, 643.5004
3779.004, 644.7208
3780.932, 646.7561
3782.861, 646.9412
3784.789, 646.2296
3786.718, 649.1182
3788.646, 651.0901
3790.575, 648.2709
3792.503, 645.7462
3794.432, 644.3660
3796.360, 648.0760
3798.289, 653.4441
3800.217, 652.3010
3802.146, 650.4153
3804.074, 650.9554
3806.002, 650.9986
3807.931, 650.2156
3809.859, 650.6459
3811.788, 651.4127
3813.716, 651.4388
3815.645, 650.8773
3817.573, 649.4662
3819.502, 649.3597
3821.430, 650.4089
3823.359, 651.3582
3825.287, 652.0489
3827.216, 652.0079
3829.144, 652.4954
3831.073, 654.1027
3833.001, 652.8067
3834.929, 650.1774
3836.858, 649.8859
3838.786, 650.8513
3840.715, 652.9406
3842.643, 653.9625
3844.572, 653.7081
3846.500, 655.0294
3848.429, 656.0193
3850.357, 653.0996
3852.286, 651.8325
3854.214, 653.9160
3856.143, 655.8057
3858.071, 656.9799
3860.000, 656.2869
3861.928, 654.9606
3863.856, 653.7203
3865.785, 652.2945
3867.713, 650.8698
3869.642, 653.0545
3871.570, 656.0116
3873.499, 654.6148
3875.427, 653.3423
3877.356, 653.7365
3879.284, 655.5946
3881.213, 658.2311
3883.141, 659.3420
3885.070, 659.5939
3886.998, 659.6260
3888.927, 658.4657
3890.855, 656.2243
3892.783, 657.2485
3894.712, 659.3844
3896.640, 659.6485
3898.569, 660.1390
3900.497, 661.5377
3902.426, 659.4506
3904.354, 655.9865
3906.283, 657.0706
3908.211, 659.1099
3910.140, 660.7556
3912.068, 661.3021
3913.997, 660.1801
3915.925, 660.7450
3917.854, 661.6830
3919.782, 661.9571
3921.710, 663.0469
3923.639, 664.1551
3925.567, 662.9376
3927.496, 661.0208
3929.424, 661.4115
3931.353, 662.6669
3933.281, 662.8861
3935.210, 662.4734
3937.138, 662.6716
3939.067, 664.2151
3940.995, 666.3253
3942.924, 669.1750
3944.852, 669.1054
3946.781, 666.6160
3948.709, 664.5479
3950.637, 663.5087
3952.566, 664.1952
3954.494, 664.2769
3956.423, 663.6387
3958.351, 663.0583
3960.280, 662.5204
3962.208, 662.8810
3964.137, 663.3868
3966.065, 662.8175
3967.994, 663.9318
3969.922, 665.6132
3971.851, 664.8557
3973.779, 664.4495
3975.708, 665.2708
3977.636, 665.3231
3979.564, 665.3546
3981.493, 666.7986
3983.421, 667.2440
3985.350, 664.9579
3987.278, 665.4642
3989.207, 668.5318
3991.135, 668.5873
3993.064, 668.2961
3994.992, 669.4294
3996.921, 669.0051
3998.849, 668.1197
4000.778, 668.1774
4002.706, 668.7488
4004.635, 669.6472
4006.563, 670.7780
4008.491, 671.5485
4010.420, 671.5631
4012.348, 671.5844
4014.277, 669.9587
4016.205, 669.9103
4018.134, 672.3172
4020.062, 670.7253
4021.991, 667.8727
4023.919, 668.3572
4025.848, 669.7081
4027.776, 670.1360
4029.705, 670.2629
4031.633, 670.7043
4033.562, 670.6733
4035.490, 670.7191
4037.418, 671.3495
4039.347, 672.3868
4041.275, 673.1681
4043.204, 670.9381
4045.132, 669.4374
4047.061, 670.6946
4048.989, 672.2595
4050.918, 673.6323
4052.846, 672.4606
4054.775, 670.5241
4056.703, 668.7930
4058.632, 668.8091
4060.560, 669.9960
4062.489, 670.4062
4064.417, 671.1491
4066.345, 673.3026
4068.274, 673.3536
4070.202, 671.8652
4072.131, 675.1046
4074.059, 676.9261
4075.988, 671.2268
4077.916, 669.3139
4079.845, 672.0647
4081.773, 672.6750
4083.702, 672.1522
4085.630, 671.1487
4087.559, 669.8145
4089.487, 668.3201
4091.416, 667.9973
4093.344, 668.7895
4095.272, 671.6786
4097.201, 672.2465
4099.129, 669.9387
4101.058, 670.7170
4102.986, 672.3818
4104.915, 671.5328
4106.843, 671.6466
4108.772, 673.4367
4110.700, 673.7266
4112.629, 673.0775
4114.557, 671.1796
4116.486, 671.1280
4118.414, 673.7200
4120.343, 672.7017
4122.271, 670.7230
4124.200, 671.5950
4126.128, 672.4201
4128.057, 672.5408
4129.985, 672.1005
4131.914, 670.9911
4133.842, 669.0836
4135.771, 667.5862
4137.699, 666.5915
4139.627, 667.9636
4141.556, 669.9854
4143.484, 668.7780
4145.413, 668.3269
4147.341, 670.1429
4149.270, 671.6199
4151.198, 672.0679
4153.126, 669.8214
4155.055, 669.4410
4156.983, 672.0998
4158.912, 671.0016
4160.840, 668.1458
4162.769, 665.9336
4164.697, 665.2982
4166.626, 666.0421
4168.554, 669.2363
4170.483, 672.2506
4172.411, 667.3728
4174.340, 663.7298
4176.268, 664.9783
4178.197, 665.8184
4180.125, 665.6096
4182.054, 665.0029
4183.982, 665.0985
4185.911, 666.0370
4187.839, 664.8968
4189.768, 663.6840
4191.696, 664.6954
4193.625, 664.4279
4195.553, 662.3656
4197.481, 663.6093
4199.410, 665.5204
4201.338, 664.7389
4203.267, 663.8147
4205.195, 663.2692
4207.124, 664.2244
4209.052, 665.5448
4210.980, 664.9797
4212.909, 662.5638
4214.837, 659.4922
4216.766, 659.6471
4218.694, 661.1611
4220.623, 664.0046
4222.551, 663.3747
4224.480, 659.7337
4226.408, 657.3762
4228.337, 655.9045
4230.265, 655.4828
4232.194, 657.6640
4234.122, 660.5531
4236.051, 658.7676
4237.979, 657.1825
4239.908, 658.1152
4241.836, 658.3618
4243.765, 658.0223
4245.693, 657.7280
4247.622, 656.6572
4249.550, 654.5040
4251.479, 653.1525
4253.407, 653.5413
4255.335, 659.2180
4257.264, 660.2638
4259.192, 655.3786
4261.121, 653.8431
4263.049, 653.6619
4264.978, 652.3312
4266.906, 651.3419
4268.834, 651.0980
4270.763, 654.1389
4272.691, 656.2819
4274.620, 654.7350
4276.548, 652.4449
4278.477, 650.5602
4280.405, 651.7426
4282.334, 653.3382
4284.262, 654.3037
4286.191, 652.7908
4288.119, 650.3196
4290.048, 649.3953
4291.976, 649.9363
4293.905, 651.6879
4295.833, 648.3772
4297.762, 644.8941
4299.690, 646.6961
4301.619, 647.8908
4303.547, 647.8685
4305.476, 648.7030
4307.404, 647.8184
4309.333, 642.5467
4311.261, 643.2479
4313.189, 647.1339
4315.118, 646.3630
4317.046, 645.0149
4318.975, 644.3568
4320.903, 644.3339
4322.832, 644.6418
4324.760, 645.3914
4326.688, 645.0287
4328.617, 643.3006
4330.545, 639.3593
4332.474, 636.7758
4334.402, 639.2117
4336.331, 640.6230
4338.259, 640.7396
4340.188, 638.9929
4342.116, 637.5501
4344.045, 637.1718
4345.973, 636.9266
4347.902, 637.2860
4349.830, 639.7684
4351.759, 640.6274
4353.687, 639.5719
4355.616, 637.2098
4357.544, 635.7427
4359.473, 636.9896
4361.401, 636.3154
4363.330, 634.4621
4365.258, 632.9142
4367.187, 632.5237
4369.115, 633.5419
4371.043, 632.2615
4372.972, 631.2211
4374.900, 632.7723
4376.829, 633.4429
4378.757, 632.9194
4380.686, 630.5036
4382.614, 630.1656
4384.542, 633.2566
4386.471, 634.1267
4388.399, 633.3660
4390.328, 631.1974
4392.256, 630.7142
4394.185, 631.5823
4396.113, 630.6335
4398.042, 628.9039
4399.970, 626.5885
4401.899, 627.1074
4403.827, 628.7082
4405.756, 628.1416
4407.684, 628.3077
4409.613, 629.5062
4411.541, 629.0104
4413.470, 628.7633
4415.398, 630.7921
4417.327, 629.6483
4419.255, 627.3177
4421.184, 628.8700
4423.112, 628.1437
4425.041, 624.0596
4426.969, 624.5397
4428.897, 626.1971
4430.826, 627.3375
4432.754, 625.0676
4434.683, 621.4265
4436.611, 620.5461
4438.540, 620.0638
4440.468, 619.7050
4442.396, 623.2112
4444.325, 625.6472
4446.253, 622.9006
4448.182, 621.6166
4450.110, 621.0330
4452.039, 618.2334
4453.967, 617.2393
4455.896, 618.8317
4457.824, 621.2177
4459.753, 621.6298
4461.681, 617.2725
4463.610, 615.5909
4465.538, 616.6492
4467.467, 621.7404
4469.395, 623.1744
4471.324, 620.4223
4473.252, 619.5530
4475.181, 618.2606
4477.109, 615.1944
4479.038, 617.0219
4480.966, 619.5237
4482.895, 616.0452
4484.823, 613.5369
4486.751, 612.8010
4488.680, 612.3953
4490.608, 613.3868
4492.537, 616.9854
4494.465, 615.7686
4496.394, 613.2672
4498.322, 612.6351
4500.250, 613.7138
4502.179, 615.6578
4504.107, 616.5735
4506.036, 616.9821
4507.964, 616.9832
4509.893, 615.7946
4511.821, 614.3776
4513.750, 613.1317
4515.678, 613.5406
4517.607, 614.6051
4519.535, 615.1005
4521.464, 613.5168
4523.392, 610.5419
4525.321, 612.4277
4527.249, 613.0530
4529.178, 610.0219
4531.106, 611.4694
4533.035, 614.2462
4534.963, 615.8873
4536.892, 614.3475
4538.820, 611.6760
4540.749, 612.4008
4542.677, 613.7294
4544.605, 614.7058
4546.534, 612.8420
4548.462, 611.6949
4550.391, 613.5884
4552.319, 614.2231
4554.248, 612.7943
4556.176, 606.9567
4558.104, 608.4590
4560.033, 614.2361
4561.961, 614.3840
4563.890, 612.6690
4565.818, 610.4843
4567.747, 611.2542
4569.675, 611.9280
4571.604, 610.1214
4573.532, 611.2452
4575.461, 613.0760
4577.389, 613.8873
4579.318, 610.8544
4581.246, 606.3527
4583.175, 605.6239
4585.103, 607.1617
4587.032, 609.8005
4588.960, 609.6667
4590.889, 608.5289
4592.817, 606.9025
4594.746, 607.6562
4596.674, 609.1961
4598.603, 610.6344
4600.531, 608.7449
4602.459, 605.9833
4604.388, 606.7913
4606.316, 608.4756
4608.245, 610.0560
4610.173, 610.2751
4612.102, 608.6964
4614.030, 605.2311
4615.958, 604.5911
4617.887, 604.4193
4619.815, 603.2786
4621.744, 604.6722
4623.672, 605.9089
4625.601, 603.4733
4627.529, 602.0963
4629.458, 602.2319
4631.386, 604.5703
4633.315, 605.1212
4635.243, 604.1266
4637.172, 607.5324
4639.100, 610.0025
4641.029, 609.9363
4642.957, 608.5671
4644.886, 606.5148
4646.814, 603.8439
4648.743, 605.2238
4650.671, 607.4238
4652.600, 606.4827
4654.528, 605.1379
4656.457, 604.2048
4658.385, 605.2108
4660.313, 605.4700
4662.242, 605.2763
4664.170, 607.7429
4666.099, 608.2879
4668.027, 605.9515
4669.956, 604.0427
4671.884, 602.9271
4673.813, 602.7524
4675.741, 603.9758
4677.669, 603.7606
4679.598, 599.7421
4681.526, 600.0264
4683.455, 602.0314
4685.383, 601.6423
4687.312, 603.0934
4689.240, 605.4238
4691.169, 606.7147
4693.097, 604.6263
4695.026, 600.8690
4696.954, 602.5673
4698.883, 603.2224
4700.811, 601.6952
4702.740, 602.4026
4704.668, 602.2475
4706.597, 600.0947
4708.525, 601.0732
4710.454, 601.0959
4712.382, 597.7257
4714.311, 599.6580
4716.239, 603.0251
4718.167, 604.0750
4720.096, 604.6970
4722.024, 603.9047
4723.953, 599.3439
4725.881, 600.4374
4727.810, 604.2714
4729.738, 604.4174
4731.667, 601.8677
4733.595, 598.5795
4735.523, 600.0233
4737.452, 601.9070
4739.380, 602.9717
4741.309, 601.1843
4743.237, 599.9524
4745.166, 600.1625
4747.094, 600.0946
4749.023, 600.4717
4750.951, 601.6337
4752.880, 602.5514
4754.808, 602.3522
4756.737, 600.6297
4758.665, 602.0932
4760.594, 603.1379
4762.522, 600.0438
4764.451, 600.6228
4766.379, 601.6096
4768.308, 599.6788
4770.236, 596.8264
4772.165, 595.4456
4774.093, 599.8385
4776.021, 600.4168
4777.950, 599.5322
4779.878, 602.7519
4781.807, 603.5877
4783.735, 602.3743
4785.664, 601.0167
4787.592, 600.0803
4789.521, 599.9362
4791.449, 602.7543
4793.377, 602.1884
4795.306, 598.5743
4797.234, 596.4588
4799.163, 596.0380
4801.091, 596.9852
4803.020, 597.4939
4804.948, 596.8400
4806.877, 595.5104
4808.805, 599.1225
4810.734, 600.2562
4812.662, 596.7358
4814.591, 597.1971
4816.519, 597.5311
4818.448, 596.3864
4820.376, 598.1366
4822.305, 599.9013
4824.233, 600.2564
4826.162, 597.7109
4828.090, 595.8357
4830.019, 596.4452
4831.947, 594.6293
4833.875, 593.7145
4835.804, 595.8260
4837.732, 597.6027
4839.661, 597.8971
4841.589, 595.9778
4843.518, 596.4531
4845.446, 596.7198
4847.375, 594.6656
4849.303, 593.0959
4851.231, 593.9958
4853.160, 599.1396
4855.088, 596.1766
4857.017, 592.5173
4858.945, 595.6019
4860.874, 592.8729
4862.802, 589.5203
4864.731, 590.1357
4866.659, 592.5514
4868.588, 594.7501
4870.516, 595.2811
4872.445, 594.2047
4874.373, 592.6200
4876.302, 591.5707
4878.230, 586.7488
4880.159, 583.1849
4882.087, 586.9046
4884.016, 588.7731
4885.944, 588.7643
4887.873, 586.8163
4889.801, 587.9942
4891.729, 588.8206
4893.658, 584.8507
4895.586, 583.5166
4897.515, 584.2457
4899.443, 586.6300
4901.372, 588.5948
4903.300, 588.9223
4905.229, 585.8008
4907.157, 587.6191
4909.085, 589.8694
4911.014, 589.3235
4912.942, 587.7457
4914.871, 587.9490
4916.799, 592.4135
4918.728, 588.6994
4920.656, 584.6387
4922.585, 585.0164
4924.513, 584.2845
4926.442, 583.9460
4928.370, 584.8781
4930.299, 584.9122
4932.227, 584.5759
4934.156, 584.1052
4936.084, 584.0749
4938.013, 583.8057
4939.941, 583.0676
4941.870, 581.8883
4943.798, 580.5850
4945.727, 579.4333
4947.655, 580.5446
4949.583, 579.9232
4951.512, 577.2421
4953.440, 577.0771
4955.369, 578.3994
4957.297, 580.1081
4959.226, 577.7448
4961.154, 578.0638
4963.083, 580.1627
4965.011, 573.8382
4966.939, 573.0984
4968.868, 576.8526
4970.796, 576.4238
4972.725, 573.4698
4974.653, 570.6758
4976.582, 573.2176
4978.510, 573.4492
4980.439, 572.5831
4982.367, 574.2023
4984.296, 574.3454
4986.224, 572.8389
4988.153, 569.4171
4990.081, 571.1066
4992.010, 573.7127
4993.938, 573.0333
4995.867, 570.7416
4997.795, 568.9011
4999.724, 568.7109
5001.652, 569.8514
5003.581, 570.3961
5005.509, 569.4745
5007.438, 567.8157
5009.366, 568.4363
5011.294, 571.5881
5013.223, 566.3651
5015.151, 563.9782
5017.080, 565.6667
5019.008, 564.1161
5020.937, 562.4838
5022.865, 561.2385
5024.793, 558.8724
5026.722, 560.8658
5028.650, 564.4426
5030.579, 563.3713
5032.507, 564.5997
5034.436, 565.1482
5036.364, 558.7668
5038.293, 558.6733
5040.221, 560.3788
5042.150, 560.1298
5044.078, 557.9209
5046.007, 555.7416
5047.935, 554.6399
5049.864, 553.8987
5051.792, 554.0547
5053.721, 555.1215
5055.649, 556.6596
5057.578, 554.6503
5059.506, 550.5059
5061.435, 550.9198
5063.363, 553.0870
5065.292, 554.3748
5067.220, 549.6608
5069.148, 548.0322
5071.077, 547.3721
5073.005, 544.0155
5074.934, 544.9392
5076.862, 547.2661
5078.791, 548.5717
5080.719, 548.3257
5082.647, 546.6812
5084.576, 544.1146
5086.504, 544.6552
5088.433, 544.4632
5090.361, 543.2910
5092.290, 545.4205
5094.218, 543.9811
5096.147, 540.3224
5098.075, 539.5408
5100.004, 538.5578
5101.932, 538.1522
5103.861, 539.7579
5105.789, 541.5311
5107.718, 541.2233
5109.646, 537.0153
5111.575, 537.1684
5113.503, 539.6223
5115.432, 542.3466
5117.360, 537.6544
5119.289, 537.5213
5121.217, 541.0464
5123.146, 537.6959
5125.074, 536.6686
5127.002, 537.3332
5128.931, 537.3909
5130.859, 536.0486
5132.788, 533.9625
5134.716, 531.7151
5136.645, 531.1333
5138.573, 529.8688
5140.501, 527.5699
5142.430, 529.9598
5144.358, 531.1184
5146.287, 530.8546
5148.215, 532.4374
5150.144, 532.6601
5152.072, 532.0353
5154.001, 531.9814
5155.929, 528.7072
5157.858, 527.7379
5159.786, 531.5267
5161.715, 525.9335
5163.643, 522.8919
5165.572, 524.9812
5167.500, 524.7831
5169.429, 526.7033
5171.357, 528.0848
5173.286, 522.2797
5175.214, 522.0328
5177.143, 523.0057
5179.071, 520.7219
5181.000, 521.4320
5182.928, 521.6110
5184.856, 520.2141
5186.785, 523.3967
5188.713, 521.4557
5190.642, 517.0189
5192.570, 520.3118
5194.499, 520.4222
5196.427, 519.3788
5198.355, 520.6744
5200.284, 518.0842
5202.212, 515.6007
5204.141, 514.9825
5206.069, 515.2390
5207.998, 513.7163
5209.926, 511.7994
5211.855, 514.4241
5213.783, 514.1058
5215.712, 512.6695
5217.640, 512.3824
5219.569, 512.2713
5221.497, 511.4020
5223.426, 509.6981
5225.354, 508.7121
5227.283, 508.4555
5229.211, 507.9160
5231.140, 504.5602
5233.068, 504.1316
5234.997, 504.5680
5236.925, 504.0292
5238.854, 503.6147
5240.782, 503.8066
5242.710, 504.1952
5244.639, 502.7491
5246.567, 501.5138
5248.496, 500.6991
5250.424, 500.2730
5252.353, 499.5119
5254.281, 498.8902
5256.209, 498.4990
5258.138, 496.4830
5260.066, 496.4165
5261.995, 498.0881
5263.923, 499.8633
5265.852, 498.6494
5267.780, 496.8613
5269.709, 496.6777
5271.637, 495.5062
5273.566, 495.5858
5275.494, 497.0777
5277.423, 498.9773
5279.351, 495.4978
5281.280, 491.1350
5283.208, 492.8044
5285.137, 492.3626
5287.065, 491.4646
5288.994, 490.9169
5290.922, 490.0924
5292.851, 491.6714
5294.779, 492.7668
5296.708, 487.5231
5298.636, 485.2753
5300.564, 485.8712
5302.493, 488.5502
5304.421, 488.8624
5306.350, 487.7004
5308.278, 485.5796
5310.207, 482.4138
5312.135, 486.0277
5314.063, 487.2263
5315.992, 479.9241
5317.920, 480.6147
5319.849, 483.8292
5321.777, 485.9769
5323.706, 482.6874
5325.634, 480.0503
5327.563, 479.5532
5329.491, 481.1635
5331.420, 477.7409
5333.348, 476.4789
5335.277, 477.1953
5337.205, 473.0893
5339.134, 474.1283
5341.062, 476.7492
5342.991, 477.6322
5344.919, 476.9517
5346.848, 473.5923
5348.776, 470.1998
5350.705, 473.9477
5352.633, 472.7135
5354.562, 471.7448
5356.490, 475.0555
5358.418, 473.8943
5360.347, 472.0675
5362.275, 470.3921
5364.204, 468.4251
5366.132, 465.5156
5368.061, 465.9512
5369.989, 470.9799
5371.917, 470.1698
5373.846, 468.8394
5375.774, 468.4794
5377.703, 469.9305
5379.631, 466.5215
5381.560, 464.8606
5383.488, 466.6845
5385.417, 463.5861
5387.345, 463.2719
5389.274, 463.4846
5391.202, 460.0413
5393.131, 461.0538
5395.059, 461.9131
5396.988, 461.6020
5398.916, 463.4246
5400.845, 463.2699
5402.773, 461.6444
5404.702, 459.5842
5406.630, 458.5728
5408.559, 458.8988
5410.487, 460.1378
5412.416, 461.7751
5414.344, 463.2857
5416.272, 460.9800
5418.201, 454.3913
5420.129, 451.5103
5422.058, 453.4298
5423.986, 456.3837
5425.915, 456.1939
5427.843, 453.4359
5429.771, 454.1991
5431.700, 457.8961
5433.628, 456.8045
5435.557, 457.0757
5437.485, 456.7147
5439.414, 454.3647
5441.342, 453.5258
5443.271, 452.0554
5445.199, 450.9554
5447.128, 451.9859
5449.056, 449.2576
5450.985, 449.0604
5452.913, 451.6925
5454.842, 449.7770
5456.770, 448.5458
5458.699, 449.1555
5460.627, 451.4803
5462.556, 450.3961
5464.484, 446.3643
5466.413, 443.6630
5468.341, 447.0779
5470.270, 449.8576
5472.198, 446.5558
5474.126, 440.5415
5476.055, 446.3873
5477.983, 446.9112
5479.912, 445.6797
5481.840, 445.5605
5483.769, 446.1370
5485.697, 446.4867
5487.625, 445.7592
5489.554, 443.5099
5491.482, 443.0972
5493.411, 442.9144
5495.339, 443.0097
5497.268, 445.3571
5499.196, 441.2104
5501.125, 439.8378
5503.053, 442.7507
5504.982, 440.3852
5506.910, 440.5640
5508.839, 441.2391
5510.767, 440.5652
5512.696, 439.1831
5514.624, 440.4347
5516.553, 442.0182
5518.481, 441.1782
5520.410, 437.8666
5522.338, 438.1423
5524.267, 440.1210
5526.195, 437.5420
5528.124, 437.4225
5530.052, 437.3524
5531.980, 436.8217
5533.909, 437.2352
5535.837, 436.3913
5537.766, 436.7353
5539.694, 438.7795
5541.623, 439.0072
5543.551, 437.0062
5545.479, 434.8594
5547.408, 434.1107
5549.336, 436.4975
5551.265, 435.0537
5553.193, 432.1508
5555.122, 431.5605
5557.050, 431.5402
5558.979, 431.6182
5560.907, 431.1595
5562.836, 429.5103
5564.764, 431.2151
5566.693, 432.8709
5568.621, 433.0742
5570.550, 431.4459
5572.478, 429.0185
5574.407, 429.2702
5576.335, 431.1529
5578.264, 427.8011
5580.192, 427.0558
5582.121, 427.4584
5584.049, 428.0192
5585.978, 429.5618
5587.906, 430.4371
5589.834, 429.4525
5591.763, 426.8396
5593.691, 425.8845
5595.620, 426.1715
5597.548, 426.1291
5599.477, 424.9740
5601.405, 425.4850
5603.333, 423.5614
5605.262, 422.4855
5607.190, 424.9604
5609.119, 425.6896
5611.047, 422.9373
5612.976, 420.6664
5614.904, 422.0739
5616.833, 420.9859
5618.761, 422.9138
5620.690, 425.1865
5622.618, 424.1697
5624.547, 424.1339
5626.475, 423.1506
5628.404, 422.0639
5630.332, 422.4632
5632.261, 416.1134
5634.189, 415.0620
5636.118, 416.8820
5638.046, 415.7403
5639.975, 418.5955
5641.903, 420.9452
5643.832, 420.1987
5645.760, 415.3441
5647.688, 416.3706
5649.617, 416.9531
5651.545, 417.0094
5653.474, 418.5792
5655.402, 419.6994
5657.331, 416.9948
5659.259, 413.5591
5661.188, 413.9249
5663.116, 414.5854
5665.044, 413.5686
5666.973, 412.9928
5668.901, 414.9712
5670.830, 409.4604
5672.758, 410.4400
5674.687, 414.4082
5676.615, 414.8211
5678.544, 412.1235
5680.472, 410.3942
5682.401, 409.4446
5684.329, 408.5215
5686.258, 413.9855
5688.186, 413.3436
5690.115, 410.7642
5692.043, 411.0402
5693.972, 407.0358
5695.900, 408.5717
5697.829, 410.9697
5699.757, 410.0049
5701.686, 407.5699
5703.614, 407.6419
5705.542, 406.0132
5707.471, 402.0252
5709.399, 404.2794
5711.328, 407.5707
5713.256, 407.5595
5715.185, 404.3246
5717.113, 404.2883
5719.042, 403.5483
5720.970, 405.0256
5722.898, 407.2473
5724.827, 403.7258
5726.755, 401.4569
5728.684, 401.9565
5730.612, 402.7553
5732.541, 399.8200
5734.469, 401.0547
5736.398, 400.9288
5738.326, 398.7682
5740.255, 396.0657
5742.183, 398.1743
5744.112, 396.4176
5746.040, 394.7704
5747.969, 397.4971
5749.897, 401.7136
5751.826, 398.7093
5753.754, 396.4601
5755.683, 398.6157
5757.611, 395.5345
5759.540, 395.8238
5761.468, 394.4321
5763.396, 390.4100
5765.325, 387.4691
5767.253, 390.5984
5769.182, 392.3033
5771.110, 391.9219
5773.039, 392.2326
5774.967, 392.9464
5776.896, 390.8696
5778.824, 389.2276
5780.752, 390.8505
5782.681, 389.7514
5784.609, 387.7636
5786.538, 386.5193
5788.466, 386.3629
5790.395, 385.1170
5792.323, 386.0338
5794.252, 386.7998
5796.180, 386.2251
5798.109, 383.8569
5800.037, 384.1041
5801.966, 383.0969
5803.894, 382.3465
5805.823, 384.4618
5807.751, 382.9666
5809.680, 383.0228
5811.608, 382.3867
5813.537, 380.1147
5815.465, 381.3199
5817.394, 381.9913
5819.322, 380.6197
5821.250, 378.7863
5823.179, 379.8793
5825.107, 379.1106
5827.036, 377.2816
5828.964, 375.3359
5830.893, 374.0450
5832.821, 375.7180
5834.750, 376.7457
5836.678, 376.8726
5838.606, 376.6252
5840.535, 377.3882
5842.463, 376.2449
5844.392, 374.6111
5846.320, 373.0892
5848.249, 371.6776
5850.177, 369.9675
5852.106, 367.3840
5854.034, 367.1077
5855.963, 370.0625
5857.891, 370.5073
5859.820, 368.4130
5861.748, 368.5371
5863.677, 369.8110
5865.605, 367.8510
5867.534, 365.3886
5869.462, 364.8885
5871.391, 366.4301
5873.319, 368.4995
5875.248, 365.4796
5877.176, 363.7112
5879.104, 364.6156
5881.033, 366.3227
5882.961, 365.2637
5884.890, 364.8765
5886.818, 365.4705
5888.747, 365.5121
5890.675, 363.8575
5892.604, 359.9228
5894.532, 359.3508
5896.460, 358.6260
5898.389, 357.9952
5900.317, 360.3159
5902.246, 360.1188
5904.174, 358.3424
5906.103, 355.9808
5908.031, 354.2655
5909.960, 355.3239
5911.888, 355.4372
5913.817, 355.9492
5915.745, 356.9403
5917.674, 357.4433
5919.602, 353.9590
5921.531, 352.7088
5923.459, 351.3860
5925.388, 349.4510
5927.316, 349.4311
5929.245, 353.3397
5931.173, 353.6248
5933.102, 350.8040
5935.030, 347.9168
5936.958, 349.9366
5938.887, 349.7455
5940.815, 347.5160
5942.744, 345.2441
5944.672, 344.7359
5946.601, 342.5764
5948.529, 343.8348
5950.458, 346.7707
5952.386, 348.1999
5954.314, 342.5795
5956.243, 342.6904
5958.171, 345.9211
5960.100, 347.3718
5962.028, 347.1391
5963.957, 340.1785
5965.885, 341.9055
5967.814, 340.1505
5969.742, 338.2532
5971.671, 341.2024
5973.599, 335.2207
5975.528, 338.0930
5977.456, 337.4311
5979.385, 338.3866
5981.313, 335.8395
5983.242, 334.3739
5985.170, 336.4128
5987.099, 336.5110
5989.027, 333.5609
5990.956, 334.6190
5992.884, 328.5151
5994.813, 328.6960
5996.741, 331.5890
5998.669, 328.8150
6000.598, 329.9371
6002.526, 329.5758
6004.455, 322.4692
6006.383, 325.4318
6008.312, 326.0222
6010.240, 325.7446
6012.168, 324.7644
6014.097, 323.0629
6016.025, 322.0215
6017.954, 322.3408
6019.882, 321.4671
6021.811, 322.7034
6023.739, 321.7555
6025.668, 320.9856
6027.596, 323.0569
6029.525, 319.1305
6031.453, 320.8179
6033.382, 319.1204
6035.310, 316.2319
6037.239, 317.8712
6039.167, 316.2928
6041.096, 316.3726
6043.024, 316.3149
6044.953, 314.8878
6046.881, 312.5527
6048.810, 316.0423
6050.738, 315.3079
6052.667, 314.2665
6054.595, 314.0428
6056.523, 313.4931
6058.452, 313.1072
6060.380, 311.5020
6062.309, 311.2666
6064.237, 310.1437
6066.166, 305.5719
6068.094, 310.9725
6070.022, 307.7248
6071.951, 304.7792
6073.879, 305.4803
6075.808, 307.9425
6077.736, 305.9755
6079.665, 304.2887
6081.593, 304.3174
6083.522, 303.3945
6085.450, 300.0481
6087.379, 301.3796
6089.307, 300.3018
6091.236, 300.1428
6093.164, 301.1857
6095.093, 301.8976
6097.021, 298.9850
6098.950, 299.4008
6100.878, 299.5301
6102.807, 298.6720
6104.735, 297.4829
6106.664, 296.7935
6108.592, 296.7888
6110.521, 299.1045
6112.449, 297.6729
6114.377, 292.7560
6116.306, 291.6488
6118.234, 289.3852
6120.163, 291.5151
6122.091, 291.3685
6124.020, 288.9370
6125.948, 288.8179
6127.876, 288.8912
6129.805, 288.6214
6131.733, 287.3322
6133.662, 285.3479
6135.590, 283.7654
6137.519, 285.7714
6139.447, 283.6088
6141.376, 281.6277
6143.304, 283.5139
6145.233, 287.6029
6147.161, 286.2234
6149.090, 284.9736
6151.018, 282.4680
6152.947, 283.2968
6154.875, 284.2237
6156.804, 277.9433
6158.732, 280.6655
6160.661, 281.2796
6162.589, 280.9572
6164.518, 279.4720
6166.446, 277.0621
6168.375, 278.6546
6170.303, 279.0321
6172.231, 277.5468
6174.160, 275.1326
6176.088, 273.5421
6178.017, 274.9502
6179.945, 273.4663
6181.874, 271.7626
6183.802, 272.0765
6185.730, 273.2381
6187.659, 273.1078
6189.587, 269.9149
6191.516, 273.2148
6193.444, 272.7478
6195.373, 268.9388
6197.301, 266.2467
6199.230, 268.6580
6201.158, 265.0126
6203.087, 266.4625
6205.015, 266.8624
6206.944, 266.4955
6208.872, 267.2191
6210.801, 263.7477
6212.729, 263.3692
6214.658, 265.1125
6216.586, 264.8493
6218.515, 263.2269
6220.443, 263.6344
6222.372, 262.6797
6224.300, 261.2524
6226.229, 261.5498
6228.157, 262.3888
6230.085, 262.3701
6232.014, 261.5136
6233.942, 258.1541
6235.871, 259.7856
6237.799, 260.9341
6239.728, 259.3232
6241.656, 256.9791
6243.584, 258.1438
6245.513, 259.2956
6247.441, 258.4137
6249.370, 256.2413
6251.298, 254.6995
6253.227, 255.0464
6255.155, 255.7895
6257.084, 254.9346
6259.012, 253.4243
6260.941, 253.1693
6262.869, 253.4589
6264.798, 252.1667
6266.726, 252.6272
6268.655, 251.1938
6270.583, 252.0476
6272.512, 252.1342
6274.440, 250.4915
6276.369, 250.8976
6278.297, 249.4498
6280.226, 250.8029
6282.154, 247.7920
6284.083, 245.2874
6286.011, 246.7431
6287.939, 247.4279
6289.868, 248.2108
6291.796, 248.2490
6293.725, 248.7471
6295.653, 248.0471
6297.582, 245.9432
6299.510, 245.6305
6301.438, 246.1031
6303.367, 242.1184
6305.295, 242.7967
6307.224, 244.7828
6309.152, 243.7238
6311.081, 242.1514
6313.009, 253.0978
6314.938, 248.7748
6316.866, 244.1539
6318.795, 241.6401
6320.723, 239.5893
6322.652, 240.0172
6324.580, 240.0649
6326.509, 240.3540
6328.437, 239.5764
6330.366, 237.9011
6332.294, 237.8155
6334.223, 240.7462
6336.151, 237.5941
6338.080, 237.2078
6340.008, 237.3066
6341.937, 236.5886
6343.865, 235.8476
6345.793, 235.8396
6347.722, 233.9646
6349.650, 236.8758
6351.579, 234.0219
6353.507, 232.8514
6355.436, 234.4848
6357.364, 234.9691
6359.292, 233.2984
6361.221, 233.4701
6363.149, 232.1539
6365.078, 233.1159
6367.006, 233.6717
6368.935, 231.9025
6370.863, 230.5717
6372.792, 231.0412
6374.720, 230.2778
6376.649, 228.1120
6378.577, 228.6531
6380.506, 231.0303
6382.434, 231.3522
6384.363, 230.3183
6386.291, 228.9897
6388.220, 226.0580
6390.148, 227.2160
6392.077, 229.0203
6394.005, 228.5450
6395.934, 229.7234
6397.862, 227.5244
6399.791, 226.6852
6401.719, 225.2638
6403.647, 224.3145
6405.576, 224.0264
6407.504, 224.0412
6409.433, 227.1400
6411.361, 224.8134
6413.290, 224.6916
6415.218, 223.3108
6417.146, 223.3619
6419.075, 225.2621
6421.003, 224.4120
6422.932, 225.8439
6424.860, 224.5392
6426.789, 223.4769
6428.717, 224.2860
6430.646, 226.0362
6432.574, 225.6740
6434.503, 221.1196
6436.431, 225.1531
6438.360, 225.7107
6440.288, 223.3641
6442.217, 221.3634
6444.145, 219.7871
6446.074, 218.6985
6448.002, 221.7944
6449.931, 218.9322
6451.859, 217.5872
6453.788, 219.0302
6455.716, 219.8673
6457.645, 219.1571
6459.573, 218.4515
6461.501, 218.7769
6463.430, 215.6188
6465.358, 219.6764
6467.287, 218.4122
6469.215, 216.1152
6471.144, 215.8695
6473.072, 215.3809
6475.000, 215.3947
6476.929, 216.2531
6478.857, 213.8614
6480.786, 215.2011
6482.714, 215.8954
6484.643, 216.0472
6486.571, 217.3379
6488.500, 212.6506
6490.428, 214.9887
6492.357, 213.6990
6494.285, 212.3030
6496.214, 213.8861
6498.142, 214.6100
6500.071, 212.1140
6501.999, 211.3150
6503.928, 210.8129
6505.856, 214.5191
6507.785, 213.4189
6509.713, 210.0996
6511.642, 209.2811
6513.570, 210.7322
6515.499, 210.2733
6517.427, 207.6905
6519.355, 209.1053
6521.284, 210.3202
6523.212, 209.3552
6525.141, 206.7957
6527.069, 205.5666
6528.998, 207.1294
6530.926, 207.0806
6532.854, 207.0040
6534.783, 207.5591
6536.711, 206.1853
6538.640, 205.9857
6540.568, 206.7710
6542.497, 206.2619
6544.425, 204.3965
6546.354, 204.2066
6548.282, 206.3781
6550.211, 207.5613
6552.139, 206.0829
6554.068, 203.4282
6555.996, 203.6295
6557.925, 206.8477
6559.853, 205.1991
6561.782, 204.3189
6563.710, 202.5714
6565.639, 203.6327
6567.567, 204.7456
6569.496, 204.8104
6571.424, 204.9008
6573.353, 205.4554
6575.281, 204.6554
6577.209, 201.6047
6579.138, 202.5987
6581.066, 203.1969
6582.995, 203.0255
6584.923, 201.9340
6586.852, 200.7711
6588.780, 200.8930
6590.708, 201.4982
6592.637, 198.9466
6594.565, 201.2212
6596.494, 199.4811
6598.422, 199.0437
6600.351, 200.4256
6602.279, 200.2338
6604.208, 198.1159
6606.136, 197.9459
6608.065, 197.4208
6609.993, 195.3015
6611.922, 196.1976
6613.850, 196.2443
6615.779, 197.9666
6617.707, 199.7658
6619.636, 198.1530
6621.564, 196.7325
6623.493, 197.5343
6625.421, 196.7603
6627.350, 194.0466
6629.278, 194.7750
##END=



