##NAMES=Cerianite-(Ce)
##RRUFFID=R050379
##IDEAL CHEMISTRY=CeO_2_
##LOCALITY=Sierra de Bermejillo, Durango, Mexico
##OWNER=RRUFF
##SOURCE=University of Arizona Mineral Museum
##DESCRIPTION=Black crystals or grains, exhibiting a greasy luster
##STATUS=The identification of this mineral has been confirmed by single-crystal X-ray diffraction
##URL=https://www.rruff.net/odr/rruff_sample/R050379
##DIFFRACTION SAMPLE DESCRIPTION=Single crystal, powder profile is calculated
##CELL PARAMETERS=a: 5.4111 b: 5.4111 c: 5.4111 alpha: 90 beta: 90 gamma: 90 volume: 158.437 crystal system: cubic
##FILETYPE=Raman RAW
##RAMAN WAVELENGTH=780

83.81592, 228.2433
85.74438, 243.8356
87.67285, 265.8973
89.60132, 287.7765
91.52979, 309.0733
93.45825, 321.6367
95.38672, 309.5003
97.31519, 299.6915
99.24365, 292.5298
101.1721, 286.3859
103.1006, 280.1687
105.0291, 274.2733
106.9575, 269.6685
108.8860, 266.4094
110.8145, 263.0229
112.7429, 258.2151
114.6714, 253.8679
116.5999, 251.2908
118.5283, 249.6875
120.4568, 247.6664
122.3853, 244.9248
124.3137, 242.0833
126.2422, 238.7493
128.1707, 235.6588
130.0991, 233.1790
132.0276, 231.1668
133.9561, 229.4560
135.8845, 228.0070
137.8130, 226.8558
139.7415, 226.0315
141.6699, 225.3879
143.5984, 224.9661
145.5269, 224.6416
147.4553, 224.1942
149.3838, 223.4706
151.3123, 223.1479
153.2407, 223.0982
155.1692, 223.5845
157.0977, 225.1850
159.0261, 227.1076
160.9546, 228.3376
162.8831, 228.6543
164.8115, 229.4984
166.7400, 231.2641
168.6685, 232.7636
170.5969, 233.4802
172.5254, 233.8853
174.4539, 234.4517
176.3823, 235.1735
178.3108, 235.3073
180.2393, 234.4424
182.1677, 234.2530
184.0962, 235.5049
186.0247, 237.1403
187.9531, 238.3650
189.8816, 239.4013
191.8101, 241.1984
193.7385, 243.8834
195.6670, 246.4895
197.5955, 248.5921
199.5239, 251.0773
201.4524, 254.7768
203.3809, 258.8336
205.3093, 261.9421
207.2378, 264.0610
209.1663, 265.4905
211.0947, 265.9542
213.0232, 266.4501
214.9517, 267.3112
216.8801, 268.3867
218.8086, 269.5369
220.7371, 270.8023
222.6655, 272.4402
224.5940, 274.5702
226.5225, 276.3204
228.4509, 276.8441
230.3794, 277.6298
232.3079, 279.5745
234.2363, 282.0654
236.1648, 284.0454
238.0933, 285.5645
240.0217, 286.8400
241.9502, 288.0198
243.8787, 288.6814
245.8071, 288.6070
247.7356, 288.1134
249.6641, 287.4007
251.5925, 286.4636
253.5210, 285.1940
255.4495, 283.4282
257.3779, 282.2109
259.3064, 281.7845
261.2349, 281.8505
263.1633, 282.5449
265.0918, 283.5546
267.0203, 284.6059
268.9487, 285.6627
270.8772, 286.4159
272.8057, 286.4275
274.7341, 286.9756
276.6626, 288.3192
278.5911, 290.0917
280.5195, 291.8633
282.4480, 294.0771
284.3765, 297.5148
286.3049, 302.3118
288.2334, 306.9175
290.1619, 311.7404
292.0903, 315.6569
294.0188, 318.3365
295.9473, 320.1878
297.8757, 321.8557
299.8042, 322.8416
301.7327, 321.7751
303.6611, 318.0928
305.5896, 314.0529
307.5181, 309.7081
309.4465, 304.9323
311.3750, 298.9685
313.3035, 293.3133
315.2319, 288.9210
317.1604, 285.6356
319.0889, 282.9640
321.0173, 280.9321
322.9458, 279.5705
324.8743, 278.9241
326.8027, 278.8440
328.7312, 279.1556
330.6597, 280.2072
332.5882, 282.3167
334.5166, 285.3544
336.4451, 288.9066
338.3736, 292.9883
340.3020, 297.6105
342.2305, 302.8032
344.1590, 308.4628
346.0874, 314.3549
348.0159, 320.9255
349.9444, 328.6469
351.8728, 337.2453
353.8013, 346.0990
355.7298, 355.2085
357.6582, 364.7306
359.5867, 374.7190
361.5152, 384.9884
363.4436, 395.1797
365.3721, 405.9726
367.3006, 418.0141
369.2290, 430.7793
371.1575, 443.5142
373.0860, 456.1697
375.0144, 468.1472
376.9429, 479.1812
378.8714, 490.5184
380.7998, 503.4282
382.7283, 515.5712
384.6568, 525.8236
386.5852, 535.0278
388.5137, 544.7865
390.4422, 554.3682
392.3706, 561.2720
394.2991, 565.3014
396.2276, 567.3597
398.1560, 566.8763
400.0845, 565.2980
402.0130, 562.1793
403.9414, 558.8373
405.8699, 556.2782
407.7984, 554.2611
409.7268, 551.7060
411.6553, 548.7455
413.5838, 548.7573
415.5122, 552.3511
417.4407, 558.6119
419.3692, 568.0822
421.2976, 579.1238
423.2261, 591.0447
425.1546, 604.1833
427.0830, 618.8425
429.0115, 634.9337
430.9400, 652.3859
432.8684, 671.6248
434.7969, 690.6893
436.7254, 708.2747
438.6538, 727.5829
440.5823, 749.3398
442.5108, 772.7704
444.4392, 798.4200
446.3677, 824.7823
448.2962, 850.6806
450.2246, 875.8838
452.1531, 898.6945
454.0816, 920.8926
456.0100, 935.7283
457.9385, 944.3597
459.8670, 943.6193
461.7954, 931.6260
463.7239, 910.8112
465.6524, 881.5527
467.5808, 845.8260
469.5093, 804.6878
471.4378, 758.6393
473.3662, 713.8879
475.2947, 670.1639
477.2232, 628.7503
479.1516, 589.5233
481.0801, 553.2864
483.0086, 520.2142
484.9370, 490.4635
486.8655, 464.3052
488.7940, 441.0802
490.7224, 420.0928
492.6509, 401.2466
494.5794, 384.0868
496.5078, 368.4860
498.4363, 355.0092
500.3648, 344.0352
502.2932, 334.1776
504.2217, 325.3764
506.1502, 317.1767
508.0786, 309.2032
510.0071, 301.8742
511.9356, 295.4131
513.8640, 289.9415
515.7925, 286.1837
517.7209, 283.8804
519.6494, 281.1203
521.5779, 277.4967
523.5063, 275.1090
525.4348, 275.1494
527.3633, 275.2631
529.2917, 274.7540
531.2202, 274.1761
533.1487, 273.8413
535.0771, 273.6681
537.0056, 273.4628
538.9341, 273.3410
540.8625, 273.7974
542.7910, 274.8475
544.7195, 275.3910
546.6479, 275.3081
548.5764, 274.6991
550.5049, 273.8414
552.4333, 272.1681
554.3618, 269.4666
556.2903, 265.9327
558.2188, 261.3369
560.1472, 256.2303
562.0757, 251.3437
564.0042, 246.5892
565.9326, 241.5832
567.8611, 236.2233
569.7896, 231.2183
571.7180, 226.5350
573.6465, 222.3338
575.5750, 218.9247
577.5034, 215.5570
579.4319, 211.7990
581.3604, 208.2381
583.2889, 205.2829
585.2173, 202.7459
587.1458, 200.4560
589.0743, 198.4223
591.0027, 196.7516
592.9312, 195.5133
594.8597, 193.8671
596.7881, 191.3780
598.7166, 189.7777
600.6451, 189.6355
602.5735, 189.2543
604.5020, 188.0057
606.4305, 186.6696
608.3589, 185.4256
610.2874, 184.5275
612.2159, 184.2619
614.1443, 184.4311
616.0728, 184.8269
618.0013, 185.3708
619.9297, 185.5443
621.8582, 185.3009
623.7867, 185.1566
625.7151, 185.1476
627.6436, 185.0538
629.5721, 184.7001
631.5005, 184.6544
633.4290, 185.6387
635.3575, 186.2531
637.2859, 185.5719
639.2144, 184.5816
641.1429, 184.0684
643.0714, 183.8282
644.9998, 183.6099
646.9283, 183.3625
648.8568, 182.8240
650.7852, 182.0297
652.7137, 181.4525
654.6422, 181.1493
656.5706, 180.7751
658.4991, 180.4662
660.4276, 179.5361
662.3560, 177.1830
664.2845, 175.0845
666.2130, 174.0748
668.1414, 173.1248
670.0699, 171.6757
671.9984, 169.8781
673.9268, 167.8013
675.8553, 165.5425
677.7838, 163.3572
679.7122, 161.1365
681.6407, 158.4126
683.5692, 155.1690
685.4976, 152.1385
687.4261, 149.4608
689.3546, 146.6389
691.2830, 143.3803
693.2115, 140.3477
695.1400, 137.6725
697.0684, 135.1346
698.9969, 132.4025
700.9254, 130.1233
702.8538, 129.1133
704.7823, 128.3042
706.7108, 126.6906
708.6392, 124.7004
710.5677, 122.7895
712.4962, 120.9835
714.4246, 119.4040
716.3531, 118.0475
718.2816, 116.5144
720.2100, 114.6671
722.1385, 113.2548
724.0670, 112.3946
725.9954, 111.6670
727.9239, 111.1515
729.8524, 110.5163
731.7808, 109.6163
733.7093, 108.7115
735.6378, 107.6618
737.5662, 106.9969
739.4947, 107.5232
741.4232, 108.0253
743.3516, 107.3531
745.2801, 106.3650
747.2086, 106.0422
749.1370, 106.2696
751.0655, 106.9843
752.9940, 108.0380
754.9224, 108.5603
756.8509, 108.5493
758.7794, 108.7890
760.7078, 109.2872
762.6363, 109.8806
764.5648, 110.5740
766.4932, 111.2683
768.4217, 112.0247
770.3502, 112.4544
772.2786, 112.0243
774.2071, 112.1504
776.1356, 113.9210
778.0640, 115.5318
779.9925, 116.1951
781.9210, 116.5594
783.8494, 116.9770
785.7779, 117.3601
787.7064, 117.8230
789.6348, 118.0504
791.5633, 117.2769
793.4918, 116.0883
795.4202, 116.0218
797.3487, 116.5141
799.2772, 115.7753
801.2056, 114.0253
803.1341, 112.6428
805.0626, 111.6783
806.9910, 110.5947
808.9195, 109.3100
810.8480, 108.2345
812.7764, 107.4844
814.7049, 106.7389
816.6334, 106.0849
818.5618, 105.2165
820.4903, 103.8899
822.4188, 102.6803
824.3472, 101.7101
826.2757, 100.8935
828.2042, 100.3822
830.1326, 99.76768
832.0611, 98.57950
833.9896, 97.51107
835.9180, 97.21438
837.8465, 97.11643
839.7750, 96.70262
841.7034, 96.17903
843.6319, 95.77342
845.5604, 95.42101
847.4888, 95.03748
849.4173, 94.60727
851.3458, 94.07881
853.2742, 93.46479
855.2027, 92.75349
857.1312, 91.96732
859.0596, 91.70281
860.9881, 92.03417
862.9166, 91.74950
864.8450, 90.67281
866.7735, 89.97173
868.7020, 89.80007
870.6304, 89.11027
872.5589, 87.62674
874.4874, 86.72971
876.4158, 86.80305
878.3443, 86.61681
880.2728, 85.81898
882.2012, 85.06929
884.1297, 84.48119
886.0582, 84.14931
887.9866, 84.35857
889.9151, 84.30395
891.8436, 83.33964
893.7720, 82.56491
895.7005, 82.49873
897.6290, 82.64555
899.5574, 82.91166
901.4859, 83.11468
903.4144, 83.17897
905.3428, 83.07568
907.2713, 82.65777
909.1998, 82.18667
911.1282, 81.78538
913.0567, 81.59949
914.9852, 82.02968
916.9136, 82.59701
918.8421, 82.58100
920.7706, 82.27876
922.6990, 82.13805
924.6275, 82.10987
926.5560, 81.97254
928.4844, 81.92281
930.4129, 82.58760
932.3414, 83.63766
934.2698, 84.19535
936.1983, 84.34009
938.1268, 84.34066
940.0552, 84.25382
941.9837, 84.37778
943.9122, 84.67170
945.8406, 84.64571
947.7691, 84.31337
949.6976, 84.23211
951.6260, 84.42297
953.5545, 84.91624
955.4830, 85.79203
957.4114, 86.30733
959.3399, 86.31799
961.2684, 86.55228
963.1968, 87.12556
965.1253, 87.52172
967.0538, 87.51852
968.9822, 87.98318
970.9107, 89.25860
972.8392, 90.05856
974.7676, 90.15627
976.6961, 90.39805
978.6246, 90.88911
980.5530, 91.31706
982.4815, 91.60940
984.4100, 92.01868
986.3384, 92.65402
988.2669, 93.09998
990.1954, 93.16622
992.1238, 93.54771
994.0523, 94.42298
995.9808, 95.47258
997.9092, 96.81628
999.8377, 97.53636
1001.766, 97.16987
1003.695, 97.18421
1005.623, 98.10466
1007.552, 98.77215
1009.480, 98.75481
1011.409, 98.98600
1013.337, 99.87542
1015.265, 100.4590
1017.194, 100.2445
1019.122, 100.4439
1021.051, 101.6875
1022.979, 102.5001
1024.908, 102.2899
1026.836, 102.1293
1028.765, 102.2996
1030.693, 102.5276
1032.622, 102.7069
1034.550, 103.0469
1036.479, 103.8447
1038.407, 104.3102
1040.335, 104.0501
1042.264, 103.8581
1044.192, 103.7823
1046.121, 103.9784
1048.049, 104.5811
1049.978, 105.2685
1051.906, 106.4324
1053.835, 106.8871
1055.763, 105.7605
1057.692, 105.1317
1059.620, 105.7537
1061.549, 106.1441
1063.477, 105.6839
1065.406, 105.7023
1067.334, 106.7607
1069.262, 107.5959
1071.191, 107.7969
1073.120, 108.2422
1075.048, 109.3226
1076.976, 110.0986
1078.905, 110.0342
1080.833, 110.5692
1082.762, 112.4468
1084.690, 113.5209
1086.619, 113.0981
1088.547, 113.2372
1090.476, 114.4165
1092.404, 115.0951
1094.333, 114.8468
1096.261, 115.2041
1098.190, 116.4408
1100.118, 117.5050
1102.047, 118.3078
1103.975, 119.2417
1105.903, 120.3585
1107.832, 121.3806
1109.760, 122.2962
1111.689, 123.0875
1113.617, 123.7425
1115.546, 124.6517
1117.474, 125.8122
1119.403, 127.0707
1121.331, 128.4127
1123.260, 129.8360
1125.188, 131.3447
1127.117, 132.4837
1129.045, 133.3283
1130.974, 134.6151
1132.902, 136.2271
1134.830, 137.5967
1136.759, 138.8022
1138.687, 140.1055
1140.616, 141.5049
1142.544, 143.1551
1144.473, 144.7844
1146.401, 145.6120
1148.330, 146.1681
1150.258, 147.2608
1152.187, 148.7718
1154.115, 150.9494
1156.044, 153.0784
1157.972, 153.9141
1159.901, 154.7486
1161.829, 157.0857
1163.757, 159.5189
1165.686, 160.9187
1167.614, 162.0606
1169.543, 163.0484
1171.471, 164.4940
1173.400, 167.2005
1175.328, 169.7464
1177.257, 171.6871
1179.185, 173.1083
1181.114, 173.4614
1183.042, 174.2387
1184.971, 176.3009
1186.899, 178.0241
1188.828, 178.4660
1190.756, 179.8083
1192.684, 182.8223
1194.613, 185.6032
1196.541, 188.0610
1198.470, 190.1194
1200.398, 191.7119
1202.327, 193.4291
1204.255, 195.2562
1206.184, 197.3856
1208.112, 199.8462
1210.041, 202.4638
1211.969, 205.1969
1213.898, 207.9316
1215.826, 210.6017
1217.755, 212.7032
1219.683, 214.7308
1221.611, 218.0464
1223.540, 221.7878
1225.468, 224.4937
1227.397, 227.0098
1229.325, 230.4820
1231.254, 233.9304
1233.182, 236.2745
1235.111, 238.7983
1237.039, 242.3255
1238.968, 246.2458
1240.896, 250.5564
1242.825, 254.1724
1244.753, 256.5214
1246.682, 259.5003
1248.610, 263.7109
1250.538, 267.2932
1252.467, 269.8263
1254.395, 273.1055
1256.324, 277.3305
1258.252, 281.0258
1260.181, 284.1228
1262.109, 287.0434
1264.038, 289.9774
1265.966, 293.4983
1267.895, 297.4292
1269.823, 301.2495
1271.752, 305.2118
1273.680, 310.0775
1275.609, 315.1864
1277.537, 319.4858
1279.465, 323.6334
1281.394, 327.9426
1283.322, 333.0820
1285.251, 340.1259
1287.179, 346.8668
1289.108, 352.2489
1291.036, 357.0928
1292.965, 360.9300
1294.893, 366.1076
1296.822, 373.7575
1298.750, 380.5612
1300.679, 386.3542
1302.607, 391.5249
1304.536, 396.1373
1306.464, 401.4214
1308.392, 407.1252
1310.321, 412.5930
1312.249, 417.8893
1314.178, 422.3980
1316.106, 426.1534
1318.035, 429.8309
1319.963, 433.4372
1321.892, 435.9826
1323.820, 438.9714
1325.749, 444.3890
1327.677, 448.2981
1329.606, 448.1761
1331.534, 449.7511
1333.463, 455.0991
1335.391, 459.3351
1337.319, 461.4469
1339.248, 464.4033
1341.176, 468.5431
1343.105, 473.2603
1345.033, 478.3839
1346.962, 483.7799
1348.890, 489.7549
1350.819, 497.0135
1352.747, 504.3883
1354.676, 509.6292
1356.604, 514.9758
1358.533, 522.5561
1360.461, 531.3616
1362.390, 541.5262
1364.318, 551.0286
1366.246, 559.0424
1368.175, 566.9844
1370.103, 575.0649
1372.032, 584.9875
1373.960, 596.5881
1375.889, 606.8054
1377.817, 616.0292
1379.746, 626.2076
1381.674, 636.7853
1383.603, 646.4404
1385.531, 655.1638
1387.460, 662.5555
1389.388, 670.4977
1391.317, 680.3461
1393.245, 690.3355
1395.173, 700.3570
1397.102, 710.9083
1399.030, 721.2811
1400.959, 732.9299
1402.887, 746.5316
1404.816, 758.2401
1406.744, 768.2081
1408.673, 780.8275
1410.601, 795.1076
1412.530, 808.0265
1414.458, 821.0748
1416.387, 836.4599
1418.315, 851.6740
1420.244, 864.5428
1422.172, 878.1638
1424.100, 894.6398
1426.029, 909.6170
1427.957, 921.8740
1429.886, 932.2938
1431.814, 941.4443
1433.743, 945.0592
1435.671, 943.6500
1437.600, 942.2917
1439.528, 939.3827
1441.457, 933.2439
1443.385, 925.4343
1445.314, 915.7377
1447.242, 905.1569
1449.171, 893.9124
1451.099, 884.0217
1453.027, 877.2089
1454.956, 869.5159
1456.884, 859.8043
1458.813, 853.1210
1460.741, 849.7000
1462.670, 845.3839
1464.598, 840.5638
1466.527, 836.7644
1468.455, 834.1852
1470.384, 833.0387
1472.312, 831.8679
1474.241, 830.0875
1476.169, 826.8215
1478.098, 821.9412
1480.026, 816.8622
1481.954, 811.4211
1483.883, 802.9045
1485.811, 792.1787
1487.740, 783.4798
1489.668, 775.7596
1491.597, 767.2325
1493.525, 757.9633
1495.454, 747.0588
1497.382, 737.2349
1499.311, 730.9584
1501.239, 724.3277
1503.168, 715.5651
1505.096, 709.0978
1507.025, 705.4267
1508.953, 701.3946
1510.881, 696.9408
1512.810, 693.5432
1514.738, 691.9667
1516.667, 691.9220
1518.595, 692.4594
1520.524, 694.0256
1522.452, 696.3459
1524.381, 698.1548
1526.309, 701.4880
1528.238, 707.4639
1530.166, 711.5582
1532.095, 713.9970
1534.023, 718.5698
1535.952, 724.3355
1537.880, 729.7458
1539.808, 736.2933
1541.737, 745.1091
1543.665, 753.4395
1545.594, 759.7737
1547.522, 764.4689
1549.451, 768.2369
1551.379, 775.2062
1553.308, 783.8839
1555.236, 788.8544
1557.165, 792.2228
1559.093, 797.7028
1561.022, 803.4052
1562.950, 807.2318
1564.879, 813.1188
1566.807, 821.9775
1568.735, 831.0895
1570.664, 841.1251
1572.592, 851.8954
1574.521, 862.7906
1576.449, 875.9337
1578.378, 890.7144
1580.306, 905.3586
1582.235, 919.6465
1584.163, 933.8644
1586.092, 949.7607
1588.020, 967.2665
1589.949, 983.1917
1591.877, 997.1039
1593.806, 1008.330
1595.734, 1017.179
1597.662, 1023.812
1599.591, 1026.400
1601.519, 1024.511
1603.448, 1019.011
1605.376, 1008.257
1607.305, 995.9671
1609.233, 982.5989
1611.162, 964.8490
1613.090, 945.6747
1615.019, 930.1624
1616.947, 915.3297
1618.876, 898.2468
1620.804, 882.5475
1622.733, 869.8806
1624.661, 858.2998
1626.589, 848.0028
1628.518, 840.2488
1630.446, 834.6677
1632.375, 830.7195
1634.303, 827.0281
1636.232, 823.7849
1638.160, 821.4534
1640.089, 819.7189
1642.017, 817.0462
1643.946, 813.7986
1645.874, 810.9691
1647.803, 807.4783
1649.731, 801.9016
1651.660, 795.9261
1653.588, 790.5164
1655.516, 783.7894
1657.445, 776.3082
1659.373, 769.4902
1661.302, 762.1458
1663.230, 754.6012
1665.159, 748.0053
1667.087, 742.7809
1669.016, 737.3046
1670.944, 730.6853
1672.873, 724.8615
1674.801, 719.9901
1676.730, 715.1525
1678.658, 711.2816
1680.587, 711.5869
1682.515, 712.7595
1684.443, 711.0640
1686.372, 711.1484
1688.300, 714.8530
1690.229, 718.1169
1692.157, 721.4001
1694.086, 727.2894
1696.014, 733.6811
1697.943, 737.5389
1699.871, 741.5993
1701.800, 747.6900
1703.728, 753.6384
1705.657, 759.5178
1707.585, 764.2248
1709.514, 766.8229
1711.442, 769.5392
1713.370, 772.0645
1715.299, 771.7055
1717.227, 769.2553
1719.156, 765.8884
1721.084, 761.5819
1723.013, 755.5995
1724.941, 748.3407
1726.870, 739.5095
1728.798, 727.1553
1730.727, 714.8482
1732.655, 704.4966
1734.584, 691.9544
1736.512, 676.7604
1738.441, 663.6306
1740.369, 651.5834
1742.297, 640.4972
1744.226, 630.3200
1746.154, 618.8725
1748.083, 608.8309
1750.011, 600.8422
1751.940, 592.1416
1753.868, 582.8990
1755.797, 574.1986
1757.725, 566.8098
1759.654, 561.2659
1761.582, 556.1661
1763.511, 551.0564
1765.439, 546.0568
1767.368, 541.6238
1769.296, 537.8582
1771.224, 533.6769
1773.153, 529.5804
1775.081, 526.1527
1777.010, 522.8293
1778.938, 519.2366
1780.867, 515.7514
1782.795, 513.8588
1784.724, 511.9908
1786.652, 508.4400
1788.581, 504.5213
1790.509, 502.2503
1792.438, 500.6227
1794.366, 497.6478
1796.295, 494.6234
1798.223, 492.6004
1800.151, 490.5914
1802.080, 488.2132
1804.008, 485.3301
1805.937, 482.7666
1807.865, 481.6529
1809.794, 480.7184
1811.722, 479.1594
1813.651, 478.0601
1815.579, 476.4094
1817.508, 474.1862
1819.436, 473.2710
1821.365, 472.9631
1823.293, 472.4120
1825.222, 471.7607
1827.150, 471.4076
1829.078, 470.8679
1831.007, 469.7227
1832.935, 469.6117
1834.864, 469.8668
1836.792, 468.8495
1838.721, 467.8376
1840.649, 467.0592
1842.578, 467.3539
1844.506, 468.5492
1846.435, 468.1333
1848.363, 467.0299
1850.292, 466.3920
1852.220, 466.0157
1854.149, 465.8038
1856.077, 465.2363
1858.005, 464.7632
1859.934, 463.6409
1861.862, 461.9008
1863.791, 460.8039
1865.719, 459.6643
1867.648, 457.8598
1869.576, 456.1586
1871.505, 454.9248
1873.433, 454.3481
1875.362, 453.7104
1877.290, 449.5092
1879.219, 444.8657
1881.147, 444.0585
1883.076, 442.6197
1885.004, 439.5982
1886.932, 437.7049
1888.861, 436.0506
1890.789, 434.3860
1892.718, 432.2395
1894.646, 428.2740
1896.575, 425.6712
1898.503, 424.5804
1900.432, 423.8711
1902.360, 422.8325
1904.289, 420.0117
1906.217, 418.2007
1908.146, 417.4671
1910.074, 416.3690
1912.003, 414.4753
1913.931, 411.4756
1915.859, 410.0453
1917.788, 410.3698
1919.716, 411.4370
1921.645, 411.8525
1923.573, 410.2293
1925.502, 408.3456
1927.430, 406.4852
1929.359, 405.3984
1931.287, 405.5490
1933.216, 404.9278
1935.144, 403.3739
1937.073, 402.8509
1939.001, 402.0867
1940.930, 400.9835
1942.858, 402.3616
1944.786, 402.9906
1946.715, 400.4104
1948.643, 399.1189
1950.572, 398.9899
1952.500, 398.4045
1954.429, 398.1861
1956.357, 397.8462
1958.286, 396.3314
1960.214, 395.2236
1962.143, 396.5659
1964.071, 397.8844
1966.000, 397.1760
1967.928, 397.0868
1969.857, 397.5414
1971.785, 397.2293
1973.714, 397.8945
1975.642, 398.6796
1977.570, 398.8556
1979.499, 400.2313
1981.427, 399.9308
1983.356, 399.1337
1985.284, 401.4246
1987.213, 402.6675
1989.141, 401.7870
1991.070, 402.2414
1992.998, 402.5005
1994.927, 402.2130
1996.855, 402.4180
1998.784, 402.1016
2000.712, 401.0085
2002.641, 400.0371
2004.569, 399.6646
2006.497, 398.6349
2008.426, 395.8395
2010.354, 392.6937
2012.283, 390.1876
2014.211, 387.7811
2016.140, 384.7150
2018.068, 381.4851
2019.997, 378.4695
2021.925, 374.9979
2023.854, 370.7328
2025.782, 366.2094
2027.711, 363.1723
2029.639, 360.3740
2031.568, 356.9312
2033.496, 352.6337
2035.424, 348.7247
2037.353, 345.7104
2039.281, 341.9645
2041.210, 338.0949
2043.138, 334.9000
2045.067, 331.0832
2046.995, 326.5241
2048.924, 322.4703
2050.852, 319.2636
2052.781, 315.6790
2054.709, 312.1301
2056.637, 308.4460
2058.566, 304.2646
2060.495, 301.4692
2062.423, 298.2398
2064.352, 293.7223
2066.280, 290.0236
2068.208, 286.9759
2070.137, 282.8074
2072.065, 277.5797
2073.994, 273.0855
2075.922, 269.0324
2077.851, 265.1529
2079.779, 261.8729
2081.708, 257.7170
2083.636, 253.4532
2085.565, 250.0714
2087.493, 246.8509
2089.422, 243.9051
2091.350, 240.6757
2093.279, 236.3636
2095.207, 231.1253
2097.135, 227.9521
2099.064, 226.5683
2100.992, 223.7546
2102.921, 220.7569
2104.849, 217.6750
2106.778, 215.1469
2108.706, 212.7110
2110.635, 210.5164
2112.563, 208.7459
2114.492, 205.9788
2116.420, 203.6973
2118.349, 201.6313
2120.277, 199.6958
2122.206, 198.0471
2124.134, 196.0470
2126.063, 194.3466
2127.991, 192.6659
2129.919, 189.9943
2131.848, 187.8257
2133.776, 187.3205
2135.705, 186.4168
2137.633, 184.6732
2139.562, 182.2553
2141.490, 180.7170
2143.419, 180.3224
2145.347, 179.3076
2147.276, 177.8889
2149.204, 176.2359
2151.133, 174.3975
2153.061, 173.0926
2154.990, 172.3190
2156.918, 171.3255
2158.846, 170.5648
2160.775, 169.3961
2162.703, 168.1104
2164.632, 167.5045
2166.560, 166.8566
2168.489, 165.7642
2170.417, 165.4981
2172.346, 166.3817
2174.274, 165.6555
2176.203, 164.4660
2178.131, 163.3904
2180.060, 162.1237
2181.988, 161.0063
2183.917, 160.3896
2185.845, 160.0934
2187.773, 159.4914
2189.702, 158.1484
2191.630, 157.3779
2193.559, 157.5960
2195.487, 157.6782
2197.416, 156.6151
2199.344, 155.2623
2201.273, 154.4524
2203.201, 153.5389
2205.130, 152.9707
2207.058, 152.0931
2208.987, 150.8145
2210.915, 150.0042
2212.844, 148.9049
2214.772, 146.7540
2216.700, 145.5393
2218.629, 144.3544
2220.557, 143.0903
2222.486, 142.4891
2224.414, 140.8826
2226.343, 139.2077
2228.271, 138.0443
2230.200, 136.3301
2232.128, 135.2795
2234.057, 134.4339
2235.985, 133.2345
2237.914, 132.3949
2239.842, 131.6168
2241.771, 131.0434
2243.699, 130.8164
2245.627, 130.3230
2247.556, 130.2236
2249.484, 130.6543
2251.413, 130.3683
2253.341, 129.9953
2255.270, 130.2910
2257.198, 129.6697
2259.127, 129.2226
2261.055, 128.8209
2262.984, 127.9605
2264.912, 127.3690
2266.841, 126.0731
2268.769, 125.0934
2270.698, 124.2859
2272.626, 123.3181
2274.554, 122.2460
2276.483, 120.6014
2278.411, 119.1472
2280.340, 117.6169
2282.268, 115.7678
2284.197, 114.5865
2286.125, 114.8633
2288.054, 114.0169
2289.982, 112.5228
2291.911, 111.9794
2293.839, 111.3719
2295.768, 111.4382
2297.696, 111.2916
2299.625, 111.2671
2301.553, 112.2790
2303.481, 112.5522
2305.410, 112.4124
2307.338, 113.1078
2309.267, 113.8480
2311.195, 114.4814
2313.124, 114.7216
2315.052, 115.2303
2316.981, 115.8794
2318.909, 115.4657
2320.838, 115.2306
2322.766, 115.6676
2324.695, 115.4654
2326.623, 114.3674
2328.552, 112.8744
2330.480, 111.0937
2332.408, 109.2839
2334.337, 107.7347
2336.265, 106.1617
2338.194, 103.4994
2340.122, 100.8557
2342.051, 98.22888
2343.979, 95.27024
2345.908, 92.55302
2347.836, 89.41798
2349.765, 86.37455
2351.693, 83.65221
2353.622, 80.54964
2355.550, 77.80542
2357.479, 75.78432
2359.407, 73.79543
2361.335, 72.03132
2363.264, 70.44624
2365.192, 68.29836
2367.121, 66.48966
2369.049, 65.68008
2370.978, 64.52389
2372.906, 62.96142
2374.835, 61.64215
2376.763, 60.33040
2378.692, 58.90685
2380.620, 57.61967
2382.549, 56.70363
2384.477, 55.82043
2386.406, 54.50309
2388.334, 53.33048
2390.262, 52.40376
2392.191, 51.96339
2394.119, 51.50050
2396.048, 50.68424
2397.976, 50.06753
2399.905, 49.61879
2401.833, 48.91217
2403.762, 48.35689
2405.690, 48.09121
2407.619, 47.54252
2409.547, 47.17540
2411.476, 47.61652
2413.404, 47.74105
2415.333, 47.66490
2417.261, 47.80889
2419.189, 47.93204
2421.118, 47.93293
2423.046, 48.07927
2424.975, 48.31593
2426.903, 48.61900
2428.832, 48.98373
2430.760, 49.45347
2432.689, 49.95469
2434.617, 50.11296
2436.546, 50.38132
2438.474, 51.01204
2440.403, 51.30068
2442.331, 51.46370
2444.260, 51.76003
2446.188, 52.18097
2448.116, 52.92619
2450.045, 53.95141
2451.973, 54.47824
2453.902, 54.59907
2455.830, 54.76838
2457.759, 55.23351
2459.687, 55.89063
2461.616, 56.91594
2463.544, 57.41540
2465.473, 57.88632
2467.401, 58.73090
2469.330, 59.30703
2471.258, 59.71112
2473.187, 60.60019
2475.115, 61.05964
2477.043, 61.61005
2478.972, 61.89933
2480.900, 61.56707
2482.829, 61.06926
2484.757, 60.31361
2486.686, 59.25522
2488.614, 58.23717
2490.543, 57.71955
2492.471, 56.66056
2494.400, 54.86825
2496.328, 53.63721
2498.257, 52.33122
2500.185, 50.81218
2502.114, 49.79548
2504.042, 49.04189
2505.970, 48.24593
2507.899, 47.12043
2509.827, 45.89400
2511.756, 45.52101
2513.684, 44.84292
2515.613, 44.22011
2517.541, 43.95829
2519.470, 43.45378
2521.398, 42.88948
2523.327, 42.20888
2525.255, 41.62976
2527.184, 41.59408
2529.112, 41.23416
2531.041, 40.79026
2532.969, 40.56201
2534.897, 40.49782
2536.826, 40.45514
2538.754, 40.82132
2540.683, 40.93083
2542.611, 40.64499
2544.540, 40.11483
2546.468, 40.52901
2548.397, 40.93176
2550.325, 40.66805
2552.254, 41.32665
2554.182, 41.96209
2556.111, 42.17907
2558.039, 42.52578
2559.968, 42.75225
2561.896, 42.77274
2563.824, 42.97210
2565.753, 43.24012
2567.681, 44.37506
2569.610, 44.75657
2571.538, 44.93480
2573.467, 45.53730
2575.395, 45.59961
2577.324, 45.64798
2579.252, 46.05622
2581.181, 45.80931
2583.109, 45.24863
2585.038, 45.09941
2586.966, 44.90066
2588.895, 44.50145
2590.823, 43.80537
2592.751, 42.68252
2594.680, 41.67290
2596.608, 41.42981
2598.537, 40.93970
2600.465, 40.10805
2602.394, 39.30800
2604.322, 38.34608
2606.251, 37.24516
2608.179, 36.92421
2610.108, 36.85324
2612.036, 36.65277
2613.965, 35.81219
2615.893, 34.91600
2617.822, 34.29496
2619.750, 33.89602
2621.678, 33.62082
2623.607, 33.50048
2625.535, 33.46093
2627.464, 32.82552
2629.392, 32.04504
2631.321, 32.01346
2633.249, 31.89663
2635.178, 31.56662
2637.106, 30.99399
2639.035, 30.62306
2640.963, 30.32388
2642.892, 30.25863
2644.820, 30.28346
2646.749, 30.20762
2648.677, 29.74588
2650.605, 29.62612
2652.534, 29.50258
2654.462, 29.22663
2656.391, 28.92923
2658.319, 28.45143
2660.248, 28.12880
2662.176, 27.89916
2664.105, 27.66408
2666.033, 27.42122
2667.962, 27.03797
2669.890, 26.55280
2671.819, 26.14915
2673.747, 25.75783
2675.676, 25.25591
2677.604, 24.74373
2679.532, 24.46564
2681.461, 24.08548
2683.389, 23.50203
2685.318, 23.07460
2687.246, 22.82367
2689.175, 22.81759
2691.103, 22.45258
2693.032, 22.23477
2694.960, 22.17850
2696.889, 21.52936
2698.817, 21.01450
2700.746, 20.87216
2702.674, 20.89902
2704.603, 20.30158
2706.531, 19.61527
2708.459, 19.57648
2710.388, 19.57678
2712.316, 19.54624
2714.245, 19.42180
2716.173, 18.96943
2718.102, 18.53335
2720.030, 18.44493
2721.959, 18.49859
2723.887, 18.41929
2725.816, 18.08341
2727.744, 17.54867
2729.673, 17.25360
2731.601, 17.42981
2733.530, 17.34360
2735.458, 17.04902
2737.386, 16.80777
2739.315, 16.45755
2741.243, 16.20010
2743.172, 16.08334
2745.100, 15.53625
2747.029, 15.34349
2748.957, 15.37770
2750.886, 15.36309
2752.814, 15.16664
2754.743, 14.89805
2756.671, 14.80247
2758.600, 14.96298
2760.528, 14.89840
2762.457, 14.45234
2764.385, 14.41266
2766.313, 14.24915
2768.242, 13.80698
2770.170, 14.00847
2772.099, 14.01367
2774.027, 13.65296
2775.956, 13.31077
2777.884, 12.95134
2779.813, 12.78865
2781.741, 13.00420
2783.670, 12.94075
2785.598, 12.72945
2787.527, 12.43802
2789.455, 12.60941
2791.384, 12.59260
2793.312, 12.18089
2795.240, 12.22310
2797.169, 12.29974
2799.097, 12.28558
2801.026, 11.98042
2802.954, 11.81003
2804.883, 11.80509
2806.811, 11.87960
2808.740, 11.72591
2810.668, 11.47871
2812.597, 11.20300
2814.525, 11.03204
2816.454, 10.98062
2818.382, 11.01032
2820.311, 10.65199
2822.239, 10.78050
2824.167, 11.16611
2826.096, 10.40278
2828.024, 11.51832
2829.953, 12.60623
2831.881, 10.97755
2833.810, 10.33927
2835.738, 10.16991
2837.667, 9.905265
2839.595, 10.03375
2841.524, 10.09709
2843.452, 9.962896
2845.381, 9.845343
2847.309, 9.824862
2849.238, 9.772739
2851.166, 9.475677
2853.094, 9.339972
2855.023, 9.320723
2856.951, 9.376553
2858.880, 9.259818
2860.808, 9.315347
2862.737, 9.504319
2864.665, 9.142972
2866.594, 9.148095
2868.522, 9.331694
2870.451, 9.081776
2872.379, 9.020494
2874.308, 9.051984
2876.236, 9.099929
2878.165, 9.046451
2880.093, 8.971133
2882.021, 8.908874
2883.950, 8.881193
2885.878, 9.114761
2887.807, 9.269509
2889.735, 8.849942
2891.664, 8.734370
2893.592, 8.791302
2895.521, 8.919049
2897.449, 8.813155
2899.378, 8.766080
2901.306, 8.800775
2903.235, 8.846151
2905.163, 8.843771
2907.092, 8.778808
2909.020, 8.656608
2910.948, 8.664875
2912.877, 8.614305
2914.805, 8.513123
2916.734, 8.615811
2918.662, 8.649150
2920.591, 8.685668
2922.519, 8.819264
2924.448, 8.788512
2926.376, 8.710697
2928.305, 8.657085
2930.233, 8.682227
2932.162, 8.668694
2934.090, 8.621723
2936.019, 8.556909
2937.947, 8.713650
2939.875, 8.537160
2941.804, 8.036777
2943.732, 8.521132
2945.661, 8.784402
2947.589, 8.741675
2949.518, 8.595507
2951.446, 8.648172
2953.375, 8.591329
2955.303, 8.337046
2957.232, 8.291981
2959.160, 8.214255
2961.089, 8.193506
2963.017, 8.469567
2964.946, 8.411048
2966.874, 8.260246
2968.802, 8.185284
2970.731, 8.227331
2972.659, 8.297812
2974.588, 8.335827
2976.516, 8.337350
2978.445, 8.442976
2980.373, 8.348759
2982.302, 8.021085
2984.230, 7.786354
2986.159, 7.835959
2988.087, 8.074939
2990.016, 8.395743
2991.944, 8.335834
2993.873, 8.308183
2995.801, 8.382833
2997.729, 8.150653
2999.658, 8.343228
3001.586, 8.474916
3003.515, 8.245076
3005.443, 8.327271
3007.372, 8.552730
3009.300, 8.700582
3011.229, 8.358251
3013.157, 8.419938
3015.086, 8.541352
3017.014, 8.537738
3018.943, 8.731715
3020.871, 8.736036
3022.800, 8.666698
3024.728, 8.684379
3026.656, 8.682479
3028.585, 8.707306
3030.513, 8.781520
3032.442, 8.859867
3034.370, 8.753455
3036.299, 8.732060
3038.227, 8.984870
3040.156, 8.958495
3042.084, 8.741699
3044.013, 8.635499
3045.941, 8.908833
3047.870, 8.967466
3049.798, 8.933712
3051.727, 8.910504
3053.655, 9.312048
3055.583, 9.425949
3057.512, 9.203353
3059.440, 8.774265
3061.369, 8.943780
3063.297, 9.202775
3065.226, 9.341092
3067.154, 9.291768
3069.083, 9.474509
3071.011, 9.382456
3072.940, 9.212560
3074.868, 9.770915
3076.797, 9.843435
3078.725, 9.761922
3080.654, 9.775425
3082.582, 10.02289
3084.510, 10.26032
3086.439, 10.21540
3088.367, 9.982158
3090.296, 10.05841
3092.224, 10.24175
3094.153, 10.39746
3096.081, 10.37813
3098.010, 10.50992
3099.938, 10.55871
3101.867, 10.50764
3103.795, 10.46998
3105.724, 10.70513
3107.652, 10.79694
3109.581, 10.76446
3111.509, 11.10740
3113.438, 11.46846
3115.366, 11.50983
3117.294, 11.22572
3119.223, 11.43324
3121.151, 11.42937
3123.080, 11.44081
3125.008, 11.80467
3126.937, 11.58065
3128.865, 11.74800
3130.794, 12.15287
3132.722, 12.38279
3134.651, 12.43292
3136.579, 12.48114
3138.508, 12.56554
3140.436, 12.64575
3142.365, 12.48915
3144.293, 12.46245
3146.221, 12.60173
3148.150, 12.47104
3150.078, 12.67675
3152.007, 12.71757
3153.935, 12.62506
3155.864, 12.81795
3157.792, 13.36248
3159.721, 13.32184
3161.649, 12.73327
3163.578, 13.02106
3165.506, 13.04240
3167.435, 12.98052
3169.363, 13.12238
3171.292, 13.64793
3173.220, 13.22495
3175.148, 13.15576
3177.077, 13.76967
3179.005, 13.25633
3180.934, 13.32975
3182.862, 13.49765
3184.791, 13.39776
3186.719, 13.44845
3188.648, 13.52707
3190.576, 13.68122
3192.505, 13.78372
3194.433, 13.71938
3196.362, 13.83419
3198.290, 13.82642
3200.219, 13.79825
3202.147, 13.89501
3204.075, 13.92747
3206.004, 14.01796
3207.932, 14.08394
3209.861, 13.95676
3211.789, 13.93003
3213.718, 14.13110
3215.646, 14.43599
3217.575, 14.41068
3219.503, 14.00075
3221.432, 13.92174
3223.360, 14.26502
3225.289, 14.25848
3227.217, 14.83035
3229.146, 14.93486
3231.074, 14.54863
3233.002, 14.55981
3234.931, 14.91420
3236.859, 14.81528
3238.788, 14.32338
3240.716, 14.28638
3242.645, 14.47988
3244.573, 14.91465
3246.502, 15.25793
3248.430, 15.15853
3250.359, 15.00271
3252.287, 15.18218
3254.216, 15.62530
3256.144, 15.97429
3258.073, 16.29455
3260.001, 16.38989
3261.929, 16.69643
3263.858, 17.32071
3265.786, 17.39437
3267.715, 17.99633
3269.643, 18.46662
3271.572, 18.59121
3273.500, 19.14670
3275.429, 19.50553
3277.357, 20.27755
3279.286, 21.14274
3281.214, 20.90288
3283.143, 20.84448
3285.071, 21.13186
3287.000, 21.59805
3288.928, 21.98593
3290.856, 22.16653
3292.785, 21.69190
3294.713, 21.29017
3296.642, 21.44490
3298.570, 20.52957
3300.499, 20.22221
3302.427, 19.90010
3304.356, 19.28040
3306.284, 18.92839
3308.213, 18.52522
3310.141, 18.54648
3312.070, 18.71482
3313.998, 17.99175
3315.927, 17.99236
3317.855, 17.74441
3319.783, 17.45330
3321.712, 17.22457
3323.640, 16.90528
3325.569, 17.20280
3327.497, 17.80643
3329.426, 18.34314
3331.354, 18.50142
3333.283, 18.63239
3335.211, 18.40786
3337.140, 18.11600
3339.068, 18.20951
3340.997, 19.02842
3342.925, 19.38306
3344.854, 19.38764
3346.782, 19.43181
3348.710, 19.60417
3350.639, 20.45056
3352.567, 21.00875
3354.496, 21.16805
3356.424, 21.39521
3358.353, 21.78981
3360.281, 22.49700
3362.210, 22.88696
3364.138, 22.77155
3366.067, 23.72587
3367.995, 24.31661
3369.924, 24.45735
3371.852, 24.49384
3373.781, 24.91461
3375.709, 25.02725
3377.637, 25.38062
3379.566, 25.80673
3381.494, 25.98464
3383.423, 26.01553
3385.351, 26.75879
3387.280, 27.55753
3389.208, 28.07612
3391.137, 28.20309
3393.065, 29.92672
3394.994, 30.93182
3396.922, 31.53697
3398.851, 32.31515
3400.779, 32.92356
3402.708, 34.18685
3404.636, 35.07694
3406.564, 35.48430
3408.493, 35.73073
3410.421, 35.21030
3412.350, 35.27268
3414.278, 35.14348
3416.207, 34.45161
3418.135, 33.33874
3420.064, 31.93769
3421.992, 31.12354
3423.921, 30.60278
3425.849, 29.87145
3427.778, 28.58473
3429.706, 27.11957
3431.635, 26.15488
3433.563, 25.37774
3435.491, 24.43145
3437.420, 24.31687
3439.348, 22.67083
3441.277, 21.71462
3443.205, 21.69177
3445.134, 21.52128
3447.062, 20.65304
3448.991, 20.13281
3450.919, 19.50332
3452.848, 18.87619
3454.776, 19.27310
3456.705, 19.16475
3458.633, 18.52705
3460.562, 17.93227
3462.490, 17.74948
3464.418, 17.97164
3466.347, 17.91757
3468.275, 17.67765
3470.204, 16.94810
3472.132, 16.00083
3474.061, 16.31855
3475.989, 16.51866
3477.918, 15.61487
3479.846, 16.86996
3481.775, 20.29115
3483.703, 16.28904
3485.632, 15.59608
3487.560, 15.21885
3489.489, 14.54149
3491.417, 14.21156
3493.345, 14.53632
3495.274, 14.20942
3497.202, 14.50435
3499.131, 14.86188
3501.059, 14.56764
3502.988, 14.18392
3504.916, 14.16337
3506.845, 14.49833
3508.773, 14.83443
3510.702, 14.89657
3512.630, 14.57185
3514.559, 15.59653
3516.487, 15.92434
3518.416, 16.05891
3520.344, 16.50006
3522.272, 15.92599
3524.201, 15.86794
3526.129, 15.67624
3528.058, 15.51029
3529.986, 15.64466
3531.915, 16.12656
3533.843, 15.54364
3535.772, 15.03613
3537.700, 14.69458
3539.629, 14.36516
3541.557, 13.95246
3543.486, 13.52051
3545.414, 12.96444
3547.343, 12.92025
3549.271, 12.65047
3551.199, 11.20940
3553.128, 11.76999
3555.056, 11.34714
3556.985, 10.71694
3558.913, 10.46438
3560.842, 10.60208
3562.770, 10.70933
3564.699, 10.41899
3566.627, 9.796015
3568.556, 9.460912
3570.484, 9.618250
3572.413, 9.698741
3574.341, 9.878595
3576.270, 9.482029
3578.198, 9.133007
3580.126, 9.132043
3582.055, 9.286767
3583.983, 9.347640
3585.912, 9.384449
3587.840, 9.117670
3589.769, 8.892661
3591.697, 8.971992
3593.626, 8.873384
3595.554, 8.616070
3597.483, 8.378177
3599.411, 8.240719
3601.340, 8.273631
3603.268, 8.465263
3605.197, 8.094568
3607.125, 7.582645
3609.053, 7.909671
3610.982, 8.227943
3612.910, 7.852432
3614.839, 8.090693
3616.767, 7.820562
3618.696, 7.372590
3620.624, 7.218145
3622.553, 7.308741
3624.481, 7.270484
3626.410, 6.741300
3628.338, 6.649475
3630.267, 6.933875
3632.195, 7.008135
3634.124, 6.727002
3636.052, 6.650943
3637.980, 6.576674
3639.909, 6.653184
3641.837, 6.326591
3643.766, 6.348173
3645.694, 7.143876
3647.623, 6.861873
3649.551, 6.965978
3651.480, 7.016243
3653.408, 7.091615
3655.337, 7.227805
3657.265, 7.279516
3659.194, 6.923874
3661.122, 7.004428
3663.051, 7.208174
3664.979, 6.714178
3666.907, 6.167764
3668.836, 6.688470
3670.764, 6.727717
3672.693, 6.273059
3674.621, 6.038492
3676.550, 6.000953
3678.478, 5.958555
3680.407, 5.847907
3682.335, 5.814227
3684.264, 5.927617
3686.192, 5.930467
3688.121, 5.937411
3690.049, 5.866931
3691.978, 5.554557
3693.906, 5.740441
3695.834, 5.613164
3697.763, 5.812904
3699.691, 5.558430
3701.620, 5.178289
3703.548, 5.647969
3705.477, 5.581172
3707.405, 5.351834
3709.334, 5.515759
3711.262, 5.503866
3713.191, 5.338341
3715.119, 5.308825
3717.048, 4.798135
3718.976, 5.411864
3720.905, 5.330221
3722.833, 5.064862
3724.761, 5.095030
3726.690, 5.345254
3728.618, 5.427188
3730.547, 5.170172
3732.475, 5.033403
3734.404, 5.405509
3736.332, 5.543555
3738.261, 5.175430
3740.189, 4.967826
3742.118, 5.445416
3744.046, 5.046862
3745.975, 4.737111
3747.903, 5.064353
3749.832, 5.379018
3751.760, 5.039914
3753.688, 4.785345
3755.617, 5.095837
3757.545, 4.584752
3759.474, 4.497521
3761.402, 4.842479
3763.331, 5.045932
3765.259, 4.835710
3767.188, 4.585961
3769.116, 5.219113
3771.045, 5.003736
3772.973, 4.849595
3774.902, 4.934961
3776.830, 4.927275
3778.759, 5.303854
3780.687, 5.030141
3782.615, 5.075000
3784.544, 5.240735
3786.472, 5.176851
3788.401, 5.098144
3790.329, 5.261287
3792.258, 5.030509
3794.186, 5.332870
3796.115, 5.257074
3798.043, 4.890884
3799.972, 4.715136
3801.900, 4.758630
3803.829, 4.698214
3805.757, 4.581176
3807.686, 4.238085
3809.614, 4.670130
3811.542, 4.742409
3813.471, 4.366647
3815.399, 3.947056
3817.328, 3.741428
3819.256, 4.193142
3821.185, 3.582956
3823.113, 3.776750
3825.042, 3.761440
3826.970, 3.708528
3828.899, 3.759559
3830.827, 3.695731
3832.756, 4.011650
3834.684, 3.814081
3836.613, 3.601058
3838.541, 3.661316
3840.469, 3.799083
3842.398, 3.892767
3844.326, 3.884271
3846.255, 3.638662
3848.183, 3.939007
3850.112, 3.785534
3852.040, 3.710540
3853.969, 3.606532
3855.897, 3.350318
3857.826, 3.251512
3859.754, 3.638203
3861.683, 3.595576
3863.611, 3.826344
3865.540, 3.462705
3867.468, 3.192425
3869.396, 3.155406
3871.325, 3.293925
3873.253, 3.489430
3875.182, 3.259746
3877.110, 3.308109
3879.039, 3.310387
3880.967, 2.977852
3882.896, 2.733158
3884.824, 2.933768
3886.753, 3.129287
3888.681, 2.753998
3890.610, 2.589197
3892.538, 2.301893
3894.467, 2.384007
3896.395, 2.796621
3898.323, 2.620991
3900.252, 2.392114
3902.180, 2.378670
3904.109, 1.995828
3906.037, 1.811560
3907.966, 2.286543
3909.894, 2.147369
3911.823, 2.182214
3913.751, 2.198909
3915.680, 2.133778
3917.608, 2.000241
3919.537, 1.774431
3921.465, 1.807254
3923.394, 2.110089
3925.322, 1.917605
3927.250, 2.006894
3929.179, 2.131801
3931.107, 1.956231
3933.036, 1.694575
3934.964, 1.682867
3936.893, 1.818284
3938.821, 2.018491
3940.750, 1.913997
3942.678, 1.421256
3944.607, 1.635488
3946.535, 1.670580
3948.464, 1.650539
3950.392, 1.694134
3952.321, 1.259358
3954.249, 1.373203
3956.177, 1.456404
3958.106, 1.790895
3960.034, 1.586810
3961.963, 1.344186
3963.891, 1.367263
3965.820, 1.463947
3967.748, 1.436465
3969.677, 1.335895
3971.605, 1.249867
3973.534, 1.065707
3975.462, 1.466733
3977.391, 1.418899
3979.319, 1.233543
3981.248, 0.9638633
3983.176, 1.018250
3985.104, 1.256663
3987.033, 1.096435
3988.961, 0.9081578
3990.890, 0.8393385
3992.818, 0.9340202
3994.747, 0.8588058
3996.675, 0.7086740
3998.604, 0.7154000
4000.532, 0.8857155
4002.461, 0.8851930
4004.389, 0.7112362
4006.318, 0.9612866
4008.246, 1.039508
4010.175, 0.6091031
4012.103, 0.3990461
4014.031, 0.4650468
4015.960, 0.4440423
4017.888, 0.6052090
4019.817, 0.7947141
4021.745, 0.7408346
4023.674, 0.7343107
4025.602, 1.008787
4027.531, 0.7474511
4029.459, 0.8938984
4031.388, 0.6589448
4033.316, 0.2878829
4035.245, 0.3681563
4037.173, 0.5751912
4039.102, 0.6834329
4041.030, 0.6709661
4042.958, 0.3429597
4044.887, 0.6585627
4046.815, 0.5599324
4048.744, 0.6570501
4050.672, 0.6564886
4052.601, 0.6030492
4054.529, 0.6669632
4056.458, 0.5695994
4058.386, 0.4625988
4060.315, 0.5425891
4062.243, 0.5265546
4064.172, 0.6731990
4066.100, 0.4441066
4068.029, 0.5572286
4069.957, 0.6661119
4071.885, 0.6976382
4073.814, 0.4305537
4075.742, 0.4049672
4077.671, 0.4822093
4079.599, 0.4324827
4081.528, 0.4876385
4083.456, 0.5461627
4085.385, 0.3933994
4087.313, 0.4243782
4089.242, 0.8830854
4091.170, 0.6923437
4093.099, 0.6541975
4095.027, 0.4914128
4096.956, 0.5865569
4098.884, 0.6254934
4100.813, 0.6217718
4102.741, 0.8826279
4104.669, 0.6824723
4106.598, 0.3970590
4108.526, 0.6106097
4110.455, 0.1880312
4112.383, 0.3055057
4114.312, 0.5302032
4116.240, 0.4059009
4118.169, 0.4589103
4120.097, 0.5577082
4122.026, 0.4574381
4123.954, 0.4518773
4125.883, 0.6286532
4127.811, 0.4373319
4129.740, 0.6114022
4131.668, 0.1098382
4133.597, 0.5633451
4135.525, 0.5574428
4137.454, 0.4551433
4139.382, 0.7252285
4141.311, 0.4412341
4143.239, 0.5364158
4145.167, 0.8790585
4147.096, 0.6581387
4149.024, 0.4078579
4150.953, 0.6716320
4152.881, 0.4060567
4154.810, 0.2692760
4156.738, 0.3475532
4158.667, 0.2186724
4160.595, 0.4096456
4162.523, 0.5153602
4164.452, 0.4928333
4166.380, 0.5398626
4168.309, 0.3498002
4170.237, 0.3357294
4172.166, 0.6020371
4174.094, 0.6373054
4176.023, 0.5240808
4177.951, 0.4346255
4179.880, 0.3082725
4181.808, 0.4198746
4183.737, 0.5061783
4185.665, 0.6473538
4187.594, 0.2243217
4189.522, 0.3388413
4191.451, 0.4185224
4193.379, 0.5450341
4195.308, 0.6132469
4197.236, 0.3607962
4199.165, 0.2868501
4201.093, 0.5207040
4203.021, 0.4779826
4204.950, 0.4429115
4206.878, 0.4841875
4208.807, 0.5000305
4210.735, 0.1628355
4212.664, 0.2294270
4214.592, 0.3710200
4216.521, 0.7431139
4218.449, 0.5158870
4220.377, 0.6650226
4222.306, 0.6334767
4224.234, 0.5097356
4226.163, 0.5161241
4228.091, 0.3483553
4230.020, 0.3661469
4231.948, 0.6741807
4233.877, 0.6189517
4235.805, 0.7022257
4237.734, 0.2566772
4239.662, 0.4718748
4241.591, 0.4487263
4243.519, 0.4857713
4245.448, -4.7195051E-02
4247.376, 0.3823132
4249.305, 0.3060932
4251.233, 0.6795861
4253.162, 0.4111120
4255.090, 0.2375951
4257.019, 0.4812320
4258.947, 0.5856357
4260.875, 0.6467048
4262.804, 0.7708973
4264.732, 0.8303940
4266.661, 0.8268672
4268.589, 0.6475548
4270.518, 0.4359073
4272.446, 0.3201939
4274.375, 0.4863255
4276.303, 0.5014090
4278.231, 0.3495016
4280.160, 2.8868470E-02
4282.088, 0.6313065
4284.017, 0.4737159
4285.945, 0.7280835
4287.874, 0.4792321
4289.802, 0.3599440
4291.731, 0.3601069
4293.659, 0.3178005
4295.588, 0.5929633
4297.516, 0.5214083
4299.445, 0.3723814
4301.373, 0.3266538
4303.302, 0.2490221
4305.230, 0.4237036
4307.159, 0.5578070
4309.087, 0.5465997
4311.016, 0.6714240
4312.944, 0.3118209
4314.873, 0.5631456
4316.801, 0.2864368
4318.729, 0.2667427
4320.658, 0.5403988
4322.586, 0.2607925
4324.515, 0.2397502
4326.443, 0.5212460
4328.372, 0.7255455
4330.300, 0.5231506
4332.229, 0.4105573
4334.157, 0.4304358
4336.085, 0.7619763
4338.014, 0.7774991
4339.942, 0.5267661
4341.871, 0.5735716
4343.799, 0.5668281
4345.728, 0.5216259
4347.656, 0.4266954
4349.585, 0.3101549
4351.513, 0.2495120
4353.442, 9.4281472E-02
4355.370, 0.3184575
4357.299, 0.7003214
4359.227, 0.3045847
4361.156, -5.2348580E-02
4363.084, -0.1165417
4365.013, 0.3569807
4366.941, 0.3281326
4368.870, 0.5033628
4370.798, 0.2361609
4372.727, 8.9126527E-02
4374.655, 0.6962221
4376.583, 0.7122992
4378.512, 0.1329607
4380.440, 0.3620658
4382.369, 0.7040051
##END=



