##NAMES=Cernyite
##RRUFFID=R070179
##IDEAL CHEMISTRY=Cu_2_CdSnS_4_
##LOCALITY=Hugo mine, Keystone, Keystone District, Pennington County, South Dakota, USA
##OWNER=RRUFF
##SOURCE=Michael Scott
##DESCRIPTION=Gray metallic massive
##STATUS=The identification of this mineral has been confirmed by single-crystal X-ray diffraction
##URL=https://www.rruff.net/odr/rruff_sample/R070179
##DIFFRACTION SAMPLE DESCRIPTION=Single crystal, powder profile is calculated
##CELL PARAMETERS=a: 5.471 b: 5.471 c: 10.829 alpha: 90 beta: 90 gamma: 90 volume: 324.1 crystal system: tetragonal
##FILETYPE=Raman RAW
##RAMAN WAVELENGTH=532

134.5063, 573.7193
136.4348, 621.5031
138.3633, 668.7756
140.2917, 720.5952
142.2202, 767.9609
144.1487, 806.2569
146.0771, 829.3788
148.0056, 853.7175
149.9341, 884.1227
151.8625, 920.7776
153.7910, 952.7876
155.7195, 979.4865
157.6479, 1001.146
159.5764, 1017.727
161.5049, 1026.391
163.4333, 1032.320
165.3618, 1034.791
167.2903, 1033.561
169.2187, 1034.863
171.1472, 1040.727
173.0757, 1049.923
175.0041, 1060.048
176.9326, 1068.965
178.8611, 1080.304
180.7895, 1096.713
182.7180, 1120.089
184.6465, 1141.937
186.5749, 1159.869
188.5034, 1174.075
190.4319, 1189.855
192.3603, 1211.577
194.2888, 1232.007
196.2173, 1246.219
198.1457, 1247.513
200.0742, 1250.822
202.0027, 1258.634
203.9311, 1271.272
205.8596, 1287.373
207.7881, 1313.211
209.7165, 1340.449
211.6450, 1359.290
213.5735, 1355.658
215.5019, 1356.297
217.4304, 1372.498
219.3589, 1404.201
221.2873, 1431.320
223.2158, 1444.713
225.1443, 1451.325
227.0727, 1465.601
229.0012, 1487.915
230.9297, 1516.443
232.8581, 1552.217
234.7866, 1596.489
236.7151, 1640.163
238.6435, 1679.363
240.5720, 1716.283
242.5005, 1759.088
244.4289, 1813.203
246.3574, 1867.997
248.2859, 1920.467
250.2143, 1975.146
252.1428, 2015.456
254.0713, 2035.804
255.9997, 2037.841
257.9282, 2037.672
259.8567, 2027.248
261.7851, 2021.589
263.7136, 2028.792
265.6421, 2054.403
267.5705, 2087.703
269.4990, 2128.443
271.4275, 2176.953
273.3559, 2230.927
275.2844, 2287.328
277.2129, 2352.154
279.1413, 2429.312
281.0698, 2513.638
282.9983, 2617.575
284.9267, 2754.244
286.8552, 2916.103
288.7837, 3073.380
290.7121, 3223.585
292.6406, 3366.703
294.5691, 3501.091
296.4975, 3617.119
298.4260, 3737.576
300.3545, 3860.276
302.2829, 3987.316
304.2114, 4138.446
306.1399, 4320.998
308.0683, 4524.780
309.9968, 4739.692
311.9253, 4936.914
313.8537, 5197.653
315.7822, 5549.655
317.7107, 5982.119
319.6391, 6483.458
321.5676, 7144.381
323.4961, 7816.659
325.4245, 8415.568
327.3530, 9018.368
329.2815, 9384.226
331.2099, 9435.342
333.1384, 9200.095
335.0669, 8731.067
336.9953, 7884.023
338.9238, 6929.028
340.8523, 6002.510
342.7807, 5065.116
344.7092, 4277.339
346.6377, 3703.051
348.5661, 3316.317
350.4946, 3001.903
352.4231, 2787.186
354.3515, 2611.371
356.2800, 2445.005
358.2085, 2286.196
360.1369, 2139.557
362.0654, 2007.475
363.9939, 1887.624
365.9223, 1774.215
367.8508, 1660.798
369.7793, 1558.433
371.7077, 1473.055
373.6362, 1404.791
375.5647, 1344.506
377.4931, 1287.930
379.4216, 1237.510
381.3501, 1200.287
383.2785, 1180.865
385.2070, 1166.696
387.1355, 1153.415
389.0639, 1140.686
390.9924, 1132.018
392.9209, 1129.688
394.8493, 1130.563
396.7778, 1131.391
398.7063, 1133.757
400.6347, 1133.563
402.5632, 1127.184
404.4917, 1115.218
406.4201, 1107.996
408.3486, 1112.679
410.2771, 1118.139
412.2055, 1113.973
414.1340, 1096.589
416.0625, 1082.400
417.9909, 1078.759
419.9194, 1082.721
421.8479, 1081.716
423.7763, 1071.805
425.7048, 1060.318
427.6333, 1050.105
429.5617, 1041.042
431.4902, 1033.222
433.4187, 1026.895
435.3471, 1021.817
437.2756, 1017.953
439.2041, 1013.227
441.1325, 1011.806
443.0610, 1018.437
444.9895, 1031.976
446.9179, 1038.887
448.8464, 1029.480
450.7749, 1017.241
452.7033, 1012.057
454.6318, 1025.625
456.5603, 1033.526
458.4887, 1029.155
460.4172, 1017.418
462.3457, 1012.592
464.2741, 1020.979
466.2026, 1030.934
468.1311, 1037.571
470.0595, 1040.774
471.9880, 1040.067
473.9164, 1032.315
475.8449, 1021.773
477.7734, 1013.583
479.7018, 1007.582
481.6303, 1004.553
483.5588, 1005.262
485.4872, 1009.902
487.4157, 1013.902
489.3442, 1019.783
491.2726, 1023.186
493.2011, 1020.121
495.1296, 1008.864
497.0580, 1000.303
498.9865, 996.9495
500.9150, 997.5650
502.8434, 999.9828
504.7719, 1007.838
506.7004, 1013.609
508.6288, 1013.813
510.5573, 1009.391
512.4858, 1005.194
514.4142, 1001.785
516.3427, 998.8944
518.2712, 996.4352
520.1996, 994.4758
522.1281, 992.8254
524.0566, 991.0720
525.9850, 989.7353
527.9135, 989.3908
529.8420, 988.1761
531.7704, 990.7003
533.6989, 1000.178
535.6274, 1018.000
537.5558, 1031.523
539.4843, 1041.919
541.4128, 1046.946
543.3412, 1043.902
545.2697, 1028.685
547.1982, 1018.929
549.1266, 1019.319
551.0551, 1026.711
552.9836, 1034.031
554.9120, 1040.110
556.8405, 1047.521
558.7690, 1058.671
560.6974, 1072.757
562.6259, 1084.132
564.5544, 1091.424
566.4828, 1096.354
568.4113, 1099.351
570.3398, 1099.705
572.2682, 1099.938
574.1967, 1097.795
576.1252, 1096.667
578.0536, 1100.870
579.9821, 1115.019
581.9106, 1127.245
583.8391, 1133.916
585.7675, 1135.578
587.6960, 1138.329
589.6245, 1141.244
591.5529, 1146.060
593.4814, 1155.007
595.4099, 1168.500
597.3383, 1178.406
599.2668, 1180.044
601.1953, 1179.755
603.1237, 1183.390
605.0522, 1193.241
606.9807, 1202.120
608.9091, 1207.049
610.8376, 1210.715
612.7661, 1217.664
614.6945, 1230.431
616.6230, 1243.515
618.5515, 1255.572
620.4799, 1266.550
622.4084, 1276.880
624.3369, 1286.507
626.2653, 1295.544
628.1938, 1304.160
630.1223, 1312.490
632.0507, 1319.680
633.9792, 1321.445
635.9077, 1324.188
637.8361, 1334.770
639.7646, 1358.364
641.6931, 1380.390
643.6215, 1399.303
645.5500, 1415.325
647.4785, 1429.318
649.4069, 1442.164
651.3354, 1451.069
653.2639, 1455.976
655.1923, 1456.680
657.1208, 1451.944
659.0493, 1437.875
660.9777, 1422.480
662.9062, 1409.927
664.8347, 1399.969
666.7631, 1388.068
668.6916, 1372.898
670.6201, 1355.818
672.5485, 1337.292
674.4770, 1314.707
676.4055, 1295.093
678.3339, 1278.757
680.2624, 1265.601
682.1909, 1255.833
684.1193, 1251.762
686.0478, 1245.008
687.9763, 1230.279
689.9047, 1211.047
691.8332, 1197.811
693.7617, 1196.099
695.6901, 1193.965
697.6186, 1190.031
699.5471, 1183.551
701.4755, 1171.298
703.4040, 1146.059
705.3325, 1123.320
707.2609, 1110.733
709.1894, 1111.000
711.1179, 1109.240
713.0463, 1103.774
714.9748, 1097.763
716.9033, 1093.125
718.8317, 1089.693
720.7602, 1087.893
722.6887, 1090.855
724.6171, 1093.702
726.5456, 1091.595
728.4741, 1078.247
730.4025, 1071.085
732.3310, 1076.651
734.2595, 1087.387
736.1879, 1090.531
738.1164, 1082.598
740.0449, 1076.891
741.9733, 1079.495
743.9018, 1087.129
745.8303, 1092.854
747.7587, 1098.840
749.6872, 1099.963
751.6157, 1091.609
753.5441, 1076.130
755.4726, 1066.400
757.4011, 1063.733
759.3295, 1064.857
761.2580, 1070.875
763.1865, 1080.706
765.1149, 1086.310
767.0434, 1084.528
768.9719, 1080.441
770.9003, 1074.758
772.8288, 1066.964
774.7573, 1062.129
776.6857, 1059.289
778.6142, 1060.247
780.5427, 1069.802
782.4711, 1088.582
784.3996, 1096.870
786.3281, 1079.476
788.2565, 1058.992
790.1850, 1049.616
792.1135, 1057.510
794.0419, 1063.488
795.9704, 1065.393
797.8989, 1066.684
799.8273, 1071.575
801.7558, 1081.287
803.6843, 1086.734
805.6127, 1079.104
807.5412, 1069.714
809.4697, 1069.510
811.3981, 1090.586
813.3266, 1102.983
815.2551, 1098.909
817.1835, 1088.608
819.1120, 1086.455
821.0405, 1094.817
822.9689, 1101.670
824.8974, 1102.022
826.8259, 1099.477
828.7543, 1098.493
830.6828, 1099.991
832.6113, 1101.698
834.5397, 1102.659
836.4682, 1103.776
838.3967, 1107.255
840.3251, 1114.864
842.2536, 1120.514
844.1820, 1119.822
846.1105, 1116.813
848.0389, 1118.251
849.9674, 1127.738
851.8959, 1135.300
853.8243, 1138.518
855.7528, 1138.476
857.6813, 1137.436
859.6097, 1133.501
861.5382, 1131.447
863.4667, 1134.172
865.3951, 1138.987
867.3236, 1140.657
869.2521, 1136.272
871.1805, 1134.993
873.1090, 1142.482
875.0375, 1154.491
876.9659, 1161.047
878.8944, 1155.165
880.8229, 1152.241
882.7513, 1155.877
884.6798, 1163.618
886.6083, 1170.450
888.5367, 1176.907
890.4652, 1181.268
892.3937, 1180.392
894.3221, 1177.529
896.2506, 1178.823
898.1791, 1186.690
900.1075, 1195.338
902.0360, 1207.723
903.9645, 1219.612
905.8929, 1220.326
907.8214, 1201.950
909.7499, 1191.617
911.6783, 1201.831
913.6068, 1221.689
915.5353, 1237.666
917.4637, 1250.407
919.3922, 1256.519
921.3207, 1251.643
923.2491, 1241.772
925.1776, 1234.924
927.1061, 1232.040
929.0345, 1230.970
930.9630, 1231.964
932.8915, 1234.665
934.8199, 1238.601
936.7484, 1243.720
938.6769, 1250.085
940.6053, 1262.380
942.5338, 1272.855
944.4623, 1273.077
946.3907, 1255.606
948.3192, 1247.828
950.2477, 1257.755
952.1761, 1272.612
954.1046, 1282.131
956.0331, 1285.296
957.9615, 1289.402
959.8900, 1294.487
961.8185, 1301.271
963.7469, 1312.092
965.6754, 1327.020
967.6039, 1336.098
969.5323, 1333.432
971.4608, 1328.519
973.3893, 1324.234
975.3177, 1320.361
977.2462, 1320.492
979.1747, 1328.231
981.1031, 1335.813
983.0316, 1339.494
984.9601, 1340.243
986.8885, 1342.369
988.8170, 1346.945
990.7455, 1351.424
992.6740, 1355.690
994.6024, 1359.213
996.5309, 1359.746
998.4594, 1353.204
1000.388, 1349.272
1002.316, 1353.015
1004.245, 1359.889
1006.173, 1359.317
1008.102, 1345.881
1010.030, 1337.796
1011.959, 1345.050
1013.887, 1355.805
1015.816, 1356.938
1017.744, 1346.637
1019.672, 1336.354
1021.601, 1323.070
1023.529, 1314.857
1025.458, 1319.690
1027.386, 1345.331
1029.315, 1360.832
1031.243, 1362.200
1033.172, 1358.267
1035.100, 1351.692
1037.029, 1342.802
1038.957, 1337.948
1040.886, 1339.693
1042.814, 1342.424
1044.743, 1341.922
1046.671, 1340.175
1048.599, 1344.335
1050.528, 1359.490
1052.456, 1372.642
1054.385, 1380.824
1056.313, 1384.788
1058.242, 1385.893
1060.170, 1379.336
1062.099, 1376.753
1064.027, 1383.705
1065.956, 1392.168
1067.884, 1391.320
1069.813, 1380.061
1071.741, 1374.528
1073.670, 1382.741
1075.598, 1392.619
1077.526, 1396.745
1079.455, 1395.034
1081.383, 1392.617
1083.312, 1389.426
1085.240, 1385.984
1087.169, 1381.344
1089.097, 1376.179
1091.026, 1374.543
1092.954, 1377.712
1094.883, 1382.212
1096.811, 1387.431
1098.740, 1393.651
1100.668, 1402.609
1102.597, 1416.099
1104.525, 1423.510
1106.453, 1415.126
1108.382, 1405.086
1110.310, 1405.135
1112.239, 1417.221
1114.167, 1426.392
1116.096, 1432.578
1118.024, 1434.748
1119.953, 1430.088
1121.881, 1419.571
1123.810, 1413.104
1125.738, 1410.923
1127.667, 1411.970
1129.595, 1418.519
1131.524, 1427.366
1133.452, 1433.669
1135.380, 1437.472
1137.309, 1438.564
1139.237, 1434.390
1141.166, 1429.409
1143.094, 1426.207
1145.023, 1424.496
1146.951, 1427.009
1148.880, 1437.596
1150.808, 1448.595
1152.737, 1459.210
1154.665, 1468.531
1156.594, 1470.867
1158.522, 1458.856
1160.451, 1451.249
1162.379, 1454.040
1164.307, 1461.939
1166.236, 1468.323
1168.164, 1473.091
1170.093, 1477.429
1172.021, 1481.029
1173.950, 1484.827
1175.878, 1488.584
1177.807, 1492.460
1179.735, 1499.933
1181.664, 1518.037
1183.592, 1530.580
1185.521, 1528.917
1187.449, 1519.692
1189.378, 1517.036
1191.306, 1527.738
1193.234, 1533.865
1195.163, 1530.518
1197.091, 1525.560
1199.020, 1524.867
1200.948, 1528.289
1202.877, 1534.550
1204.805, 1544.766
1206.734, 1555.995
1208.662, 1568.855
1210.591, 1581.415
1212.519, 1589.956
1214.448, 1595.115
1216.376, 1593.986
1218.305, 1576.283
1220.233, 1559.532
1222.161, 1559.330
1224.090, 1579.850
1226.018, 1595.055
1227.947, 1604.803
1229.875, 1609.975
1231.804, 1606.731
1233.732, 1599.294
1235.661, 1599.726
1237.589, 1610.196
1239.518, 1621.406
1241.446, 1633.755
1243.375, 1644.521
1245.303, 1650.972
1247.232, 1653.541
1249.160, 1656.060
1251.089, 1660.359
1253.017, 1662.269
1254.945, 1655.676
1256.874, 1646.674
1258.802, 1648.986
1260.731, 1668.284
1262.659, 1684.739
1264.588, 1697.502
1266.516, 1705.697
1268.445, 1706.443
1270.373, 1699.616
1272.302, 1697.905
1274.230, 1707.603
1276.159, 1713.896
1278.087, 1708.762
1280.016, 1700.430
1281.944, 1701.847
1283.872, 1713.845
1285.801, 1725.356
1287.729, 1734.883
1289.658, 1743.429
1291.586, 1750.728
1293.515, 1757.503
1295.443, 1766.425
1297.372, 1779.655
1299.300, 1789.332
1301.229, 1790.575
1303.157, 1789.435
1305.086, 1790.688
1307.014, 1794.766
1308.943, 1798.038
1310.871, 1802.468
1312.799, 1803.633
1314.728, 1795.410
1316.656, 1784.724
1318.585, 1784.753
1320.513, 1801.969
1322.442, 1814.634
1324.370, 1819.279
1326.299, 1822.308
1328.227, 1827.336
1330.156, 1833.590
1332.084, 1837.970
1334.013, 1839.820
1335.941, 1841.653
1337.870, 1843.186
1339.798, 1845.741
1341.726, 1849.759
1343.655, 1855.376
1345.583, 1864.984
1347.512, 1883.836
1349.440, 1896.935
1351.369, 1894.455
1353.297, 1886.195
1355.226, 1885.020
1357.154, 1893.328
1359.083, 1896.725
1361.011, 1882.134
1362.940, 1876.284
1364.868, 1899.957
1366.797, 1936.830
1368.725, 1948.968
1370.653, 1914.820
1372.582, 1894.430
1374.510, 1896.910
1376.439, 1904.011
1378.367, 1907.447
1380.296, 1907.400
1382.224, 1903.561
1384.153, 1890.644
1386.081, 1887.613
1388.010, 1908.792
1389.938, 1932.258
1391.867, 1941.448
1393.795, 1938.869
1395.724, 1932.476
1397.652, 1919.300
1399.580, 1911.482
1401.509, 1918.070
1403.437, 1927.741
1405.366, 1929.455
1407.294, 1924.106
1409.223, 1924.822
1411.151, 1938.041
1413.080, 1947.067
1415.008, 1941.339
1416.937, 1932.719
1418.865, 1934.810
1420.794, 1949.745
1422.722, 1960.520
1424.651, 1963.629
1426.579, 1966.184
1428.507, 1968.246
1430.436, 1971.439
1432.364, 1979.742
1434.293, 1997.195
1436.221, 2002.888
1438.150, 1984.697
1440.078, 1970.576
1442.007, 1970.295
1443.935, 1978.594
1445.864, 1989.703
1447.792, 2005.694
1449.721, 2012.614
1451.649, 1999.316
1453.578, 1989.619
1455.506, 1996.027
1457.434, 2009.154
1459.363, 2013.183
1461.291, 2007.519
1463.220, 2006.764
1465.148, 2014.736
1467.077, 2024.696
1469.005, 2036.169
1470.934, 2046.622
1472.862, 2052.426
1474.791, 2053.484
1476.719, 2053.114
1478.648, 2051.931
1480.576, 2049.104
1482.505, 2037.510
1484.433, 2027.668
1486.361, 2039.612
1488.290, 2075.660
1490.218, 2090.598
1492.147, 2062.947
1494.075, 2040.435
1496.004, 2041.844
1497.932, 2055.229
1499.861, 2067.298
1501.789, 2078.119
1503.718, 2086.732
1505.646, 2091.998
1507.575, 2096.531
1509.503, 2097.943
1511.432, 2100.989
1513.360, 2112.986
1515.288, 2135.473
1517.217, 2149.221
1519.145, 2151.111
1521.074, 2148.197
1523.002, 2134.298
1524.931, 2121.694
1526.859, 2123.067
1528.788, 2137.773
1530.716, 2148.977
1532.645, 2152.929
1534.573, 2159.035
1536.502, 2172.440
1538.430, 2184.240
1540.359, 2185.639
1542.287, 2179.465
1544.215, 2179.721
1546.144, 2187.718
1548.072, 2198.423
1550.001, 2213.573
1551.929, 2228.939
1553.858, 2243.955
1555.786, 2257.261
1557.715, 2264.510
1559.643, 2264.255
1561.572, 2267.109
1563.500, 2276.257
1565.429, 2286.069
1567.357, 2297.410
1569.286, 2306.604
1571.214, 2307.115
1573.142, 2299.292
1575.071, 2290.968
1576.999, 2276.520
1578.928, 2274.034
1580.856, 2304.223
1582.785, 2337.550
1584.713, 2343.131
1586.642, 2327.891
1588.570, 2320.840
1590.499, 2325.237
1592.427, 2330.837
1594.355, 2334.467
1596.284, 2339.206
1598.212, 2347.312
1600.141, 2357.829
1602.069, 2370.517
1603.998, 2386.182
1605.926, 2394.346
1607.855, 2389.316
1609.783, 2383.149
1611.712, 2380.239
1613.640, 2379.828
1615.569, 2382.620
1617.497, 2387.963
1619.426, 2387.622
1621.354, 2376.192
1623.282, 2372.510
1625.211, 2394.000
1627.139, 2413.161
1629.068, 2407.592
1630.996, 2385.599
1632.925, 2368.327
1634.853, 2355.618
1636.782, 2353.198
1638.710, 2370.386
1640.639, 2385.134
1642.567, 2384.242
1644.496, 2376.852
1646.424, 2374.454
1648.353, 2376.407
1650.281, 2372.440
1652.209, 2357.493
1654.138, 2348.519
1656.066, 2357.202
1657.995, 2366.215
1659.923, 2362.199
1661.852, 2350.593
1663.780, 2345.123
1665.709, 2346.345
1667.637, 2350.608
1669.566, 2358.773
1671.494, 2367.452
1673.423, 2378.237
1675.351, 2386.558
1677.280, 2385.054
1679.208, 2376.157
1681.136, 2375.682
1683.065, 2387.609
1684.993, 2395.473
1686.922, 2392.419
1688.850, 2388.512
1690.779, 2386.363
1692.707, 2388.086
1694.636, 2401.838
1696.564, 2426.868
1698.493, 2434.266
1700.421, 2412.755
1702.350, 2396.443
1704.278, 2400.686
1706.207, 2408.415
1708.135, 2406.358
1710.063, 2399.894
1711.992, 2401.791
1713.920, 2412.845
1715.849, 2422.017
1717.777, 2427.019
1719.706, 2431.658
1721.634, 2436.489
1723.563, 2442.385
1725.491, 2452.906
1727.420, 2464.781
1729.348, 2466.652
1731.277, 2456.544
1733.205, 2449.866
1735.134, 2448.102
1737.062, 2452.158
1738.990, 2466.098
1740.919, 2483.205
1742.847, 2500.336
1744.776, 2515.354
1746.704, 2518.702
1748.633, 2507.830
1750.561, 2497.666
1752.490, 2487.535
1754.418, 2483.807
1756.347, 2497.653
1758.275, 2513.231
1760.204, 2507.732
1762.132, 2487.789
1764.061, 2487.438
1765.989, 2514.306
1767.917, 2531.135
1769.846, 2520.298
1771.774, 2513.554
1773.703, 2528.630
1775.631, 2550.208
1777.560, 2562.597
1779.488, 2566.595
1781.417, 2567.794
1783.345, 2565.154
1785.274, 2563.206
1787.202, 2553.958
1789.131, 2556.448
1791.059, 2590.520
1792.988, 2628.830
1794.916, 2643.325
1796.844, 2637.437
1798.773, 2627.965
1800.701, 2608.327
1802.630, 2601.297
1804.558, 2618.310
1806.487, 2632.430
1808.415, 2632.701
1810.344, 2630.500
1812.272, 2637.431
1814.201, 2649.691
1816.129, 2653.208
1818.058, 2642.407
1819.986, 2640.823
1821.915, 2660.918
1823.843, 2671.934
1825.771, 2656.906
1827.700, 2643.426
1829.628, 2654.601
1831.557, 2677.584
1833.485, 2683.744
1835.414, 2671.480
1837.342, 2670.183
1839.271, 2686.015
1841.199, 2699.392
1843.128, 2703.031
1845.056, 2707.463
1846.985, 2720.281
1848.913, 2734.636
1850.842, 2741.467
1852.770, 2742.191
1854.698, 2743.923
1856.627, 2746.663
1858.555, 2753.031
1860.484, 2768.273
1862.412, 2777.895
1864.341, 2767.966
1866.269, 2757.323
1868.198, 2761.275
1870.126, 2775.900
1872.055, 2797.219
1873.983, 2825.583
1875.912, 2832.620
1877.840, 2801.173
1879.769, 2783.957
1881.697, 2803.638
1883.625, 2828.038
1885.554, 2844.182
1887.482, 2853.426
1889.411, 2856.220
1891.339, 2853.145
1893.268, 2848.237
1895.196, 2836.311
1897.125, 2834.948
1899.053, 2851.409
1900.982, 2868.060
1902.910, 2885.413
1904.839, 2896.828
1906.767, 2894.013
1908.696, 2883.650
1910.624, 2877.278
1912.552, 2874.825
1914.481, 2879.135
1916.409, 2893.461
1918.338, 2904.286
1920.266, 2907.651
1922.195, 2910.416
1924.123, 2912.338
1926.052, 2917.450
1927.980, 2934.958
1929.909, 2955.845
1931.837, 2956.240
1933.766, 2937.681
1935.694, 2933.169
1937.623, 2949.677
1939.551, 2963.663
1941.479, 2968.820
1943.408, 2971.760
1945.336, 2974.829
1947.265, 2977.457
1949.193, 2980.249
1951.122, 2981.961
1953.050, 2975.822
1954.979, 2958.778
1956.907, 2961.224
1958.836, 3002.333
1960.764, 3031.152
1962.693, 3044.395
1964.621, 3045.471
1966.550, 3023.522
1968.478, 3001.144
1970.406, 2998.954
1972.335, 3011.264
1974.263, 3026.389
1976.192, 3044.651
1978.120, 3053.799
1980.049, 3049.402
1981.977, 3052.000
1983.906, 3072.365
1985.834, 3086.610
1987.763, 3077.484
1989.691, 3067.089
1991.620, 3073.557
1993.548, 3088.681
1995.477, 3100.065
1997.405, 3108.050
1999.333, 3115.245
2001.262, 3121.671
2003.190, 3127.571
2005.119, 3133.790
2007.047, 3138.198
2008.976, 3137.020
2010.904, 3137.775
2012.833, 3150.797
2014.761, 3163.761
2016.690, 3154.034
2018.618, 3129.799
2020.547, 3133.105
2022.475, 3171.118
2024.404, 3190.408
2026.332, 3182.606
2028.260, 3174.097
2030.189, 3167.184
2032.117, 3164.494
2034.046, 3165.434
2035.974, 3172.765
2037.903, 3198.585
2039.831, 3226.890
2041.760, 3225.940
2043.688, 3201.912
2045.617, 3195.059
2047.545, 3209.805
2049.474, 3223.304
2051.402, 3233.560
2053.331, 3242.026
2055.259, 3245.325
2057.188, 3251.529
2059.116, 3270.723
2061.044, 3288.779
2062.973, 3289.791
2064.901, 3280.073
2066.830, 3273.593
2068.758, 3270.375
2070.687, 3270.602
2072.615, 3274.540
2074.544, 3280.755
2076.472, 3290.530
2078.401, 3298.998
2080.329, 3308.674
2082.258, 3310.816
2084.186, 3283.922
2086.115, 3262.570
2088.043, 3292.377
2089.971, 3347.048
2091.900, 3368.333
2093.828, 3357.646
2095.757, 3354.432
2097.685, 3365.333
2099.614, 3366.627
2101.542, 3346.594
2103.471, 3335.658
2105.399, 3341.335
2107.328, 3351.922
2109.256, 3368.402
2111.185, 3382.621
2113.113, 3386.330
2115.042, 3384.808
2116.970, 3383.223
2118.898, 3383.790
2120.827, 3402.191
2122.755, 3440.552
2124.684, 3445.200
2126.612, 3391.251
2128.541, 3360.540
2130.469, 3382.168
2132.398, 3405.338
2134.326, 3418.981
2136.255, 3426.096
2138.183, 3422.275
2140.112, 3418.093
2142.040, 3427.294
2143.969, 3444.891
2145.897, 3458.822
2147.825, 3469.088
2149.754, 3474.325
2151.682, 3473.973
2153.611, 3474.970
2155.539, 3477.883
2157.468, 3483.201
2159.396, 3493.698
2161.325, 3502.673
2163.253, 3508.059
2165.182, 3510.734
2167.110, 3507.272
2169.039, 3504.659
2170.967, 3517.949
2172.896, 3537.474
2174.824, 3528.215
2176.752, 3491.886
2178.681, 3492.232
2180.609, 3535.202
2182.538, 3562.715
2184.466, 3564.137
2186.395, 3566.205
2188.323, 3576.795
2190.252, 3586.006
2192.180, 3592.111
2194.109, 3593.177
2196.037, 3577.331
2197.966, 3565.628
2199.894, 3592.255
2201.823, 3633.376
2203.751, 3635.398
2205.679, 3604.103
2207.608, 3587.978
2209.536, 3587.536
2211.465, 3593.246
2213.393, 3606.158
2215.322, 3615.828
2217.250, 3619.434
2219.179, 3622.494
2221.107, 3626.780
2223.036, 3630.748
2224.964, 3632.189
2226.893, 3634.857
2228.821, 3639.506
2230.750, 3648.496
2232.678, 3672.024
2234.606, 3699.592
2236.535, 3700.020
2238.463, 3677.857
2240.392, 3671.074
2242.320, 3680.345
2244.249, 3692.982
2246.177, 3710.183
2248.106, 3717.409
2250.034, 3706.982
2251.963, 3697.714
2253.891, 3694.620
2255.820, 3693.095
2257.748, 3683.386
2259.677, 3684.286
2261.605, 3723.212
2263.533, 3764.467
2265.462, 3766.462
2267.390, 3747.545
2269.319, 3737.609
2271.247, 3735.979
2273.176, 3743.059
2275.104, 3757.865
2277.033, 3766.865
2278.961, 3768.014
2280.890, 3770.730
2282.818, 3778.190
2284.747, 3782.781
2286.675, 3778.566
2288.604, 3780.027
2290.532, 3796.333
2292.460, 3809.889
2294.389, 3810.805
2296.317, 3810.831
2298.246, 3817.800
2300.174, 3827.455
2302.103, 3837.903
2304.031, 3846.605
2305.960, 3847.682
2307.888, 3827.743
2309.817, 3852.235
2311.745, 3867.539
2313.674, 3874.151
2315.602, 3846.034
2317.531, 3862.763
2319.459, 3861.519
2321.387, 3859.538
2323.316, 3882.578
2325.244, 3859.512
2327.173, 3882.156
2329.101, 3886.552
2331.030, 3899.301
2332.958, 3893.965
2334.887, 3894.216
2336.815, 3912.554
2338.744, 3920.878
2340.672, 3913.461
2342.601, 3926.740
2344.529, 3903.043
2346.458, 3911.793
2348.386, 3934.541
2350.314, 3928.033
2352.243, 3941.643
2354.171, 3947.589
2356.100, 3918.721
2358.028, 3950.401
2359.957, 3955.897
2361.885, 3934.503
2363.814, 3964.111
2365.742, 3946.424
2367.671, 3945.619
2369.599, 3964.937
2371.528, 3991.255
2373.456, 4004.241
2375.385, 3978.640
2377.313, 3955.021
2379.241, 3955.815
2381.170, 3966.574
2383.098, 3981.876
2385.027, 3995.750
2386.955, 3998.416
2388.884, 3997.345
2390.812, 4004.212
2392.741, 4017.089
2394.669, 4036.502
2396.598, 4058.216
2398.526, 4058.518
2400.455, 4037.013
2402.383, 4024.385
2404.312, 4022.729
2406.240, 4021.184
2408.168, 4019.772
2410.097, 4017.222
2412.025, 4010.453
2413.954, 4015.068
2415.882, 4037.407
2417.811, 4062.847
2419.739, 4101.650
2421.668, 4120.475
2423.596, 4092.232
2425.525, 4064.751
2427.453, 4055.220
2429.382, 4058.629
2431.310, 4086.867
2433.239, 4110.385
2435.167, 4097.121
2437.095, 4076.185
2439.024, 4079.900
2440.952, 4095.899
2442.881, 4104.472
2444.809, 4110.266
2446.738, 4129.912
2448.666, 4156.887
2450.595, 4154.253
2452.523, 4128.283
2454.452, 4130.119
2456.380, 4158.309
2458.309, 4166.854
2460.237, 4149.561
2462.166, 4146.416
2464.094, 4171.039
2466.022, 4180.639
2467.951, 4165.368
2469.879, 4161.585
2471.808, 4178.189
2473.736, 4188.719
2475.665, 4184.330
2477.593, 4181.949
2479.522, 4187.620
2481.450, 4195.298
2483.379, 4204.491
2485.307, 4213.068
2487.236, 4224.541
2489.164, 4229.339
2491.093, 4211.461
2493.021, 4198.004
2494.949, 4210.061
2496.878, 4230.604
2498.806, 4244.668
2500.735, 4259.104
2502.663, 4294.091
2504.592, 4324.889
2506.520, 4300.862
2508.449, 4252.570
2510.377, 4246.856
2512.306, 4264.574
2514.234, 4251.841
2516.163, 4221.592
2518.091, 4224.497
2520.020, 4254.765
2521.948, 4266.456
2523.876, 4259.468
2525.805, 4270.796
2527.733, 4301.222
2529.662, 4315.256
2531.590, 4311.321
2533.519, 4310.792
2535.447, 4316.525
2537.376, 4317.988
2539.304, 4314.153
2541.233, 4305.091
2543.161, 4283.349
2545.090, 4276.557
2547.018, 4289.984
2548.947, 4310.027
2550.875, 4341.304
2552.803, 4357.339
2554.732, 4334.092
2556.660, 4324.533
2558.589, 4354.666
2560.517, 4379.240
2562.446, 4380.196
2564.374, 4383.125
2566.303, 4402.847
2568.231, 4413.969
2570.160, 4390.807
2572.088, 4374.928
2574.017, 4394.460
2575.945, 4419.383
2577.874, 4438.740
2579.802, 4447.885
2581.730, 4432.682
2583.659, 4419.000
2585.587, 4430.707
2587.516, 4446.434
2589.444, 4447.620
2591.373, 4442.882
2593.301, 4437.909
2595.230, 4435.292
2597.158, 4436.046
2599.087, 4442.897
2601.015, 4470.825
2602.944, 4498.100
2604.872, 4484.068
2606.801, 4455.845
2608.729, 4467.635
2610.657, 4496.456
2612.586, 4488.439
2614.514, 4460.971
2616.443, 4456.185
2618.371, 4468.735
2620.300, 4492.723
2622.228, 4520.424
2624.157, 4523.553
2626.085, 4510.140
2628.014, 4517.112
2629.942, 4539.947
2631.871, 4550.436
2633.799, 4551.014
2635.728, 4554.603
2637.656, 4559.996
2639.584, 4552.513
2641.513, 4534.113
2643.441, 4544.181
2645.370, 4582.879
2647.298, 4579.621
2649.227, 4539.687
2651.155, 4532.526
2653.084, 4559.317
2655.012, 4584.223
2656.941, 4606.701
2658.869, 4612.189
2660.798, 4598.062
2662.726, 4588.727
2664.655, 4584.371
2666.583, 4597.013
2668.511, 4628.061
2670.440, 4642.816
2672.368, 4634.497
2674.297, 4638.665
2676.225, 4660.062
2678.154, 4665.259
2680.082, 4652.662
2682.011, 4640.753
2683.939, 4630.145
2685.868, 4633.691
2687.796, 4659.418
2689.725, 4671.266
2691.653, 4666.794
2693.582, 4657.135
2695.510, 4640.874
2697.438, 4645.031
2699.367, 4674.904
2701.295, 4698.850
2703.224, 4717.381
2705.152, 4714.150
2707.081, 4680.293
2709.009, 4672.377
2710.938, 4695.482
2712.866, 4711.640
2714.795, 4716.231
2716.723, 4721.537
2718.652, 4729.971
2720.580, 4733.602
2722.509, 4731.272
2724.437, 4731.609
2726.365, 4735.293
2728.294, 4737.017
2730.222, 4735.116
2732.151, 4741.183
2734.079, 4760.959
2736.008, 4765.603
2737.936, 4753.008
2739.865, 4747.724
2741.793, 4751.381
2743.722, 4751.906
2745.650, 4746.472
2747.579, 4753.997
2749.507, 4778.007
2751.436, 4796.267
2753.364, 4808.727
2755.292, 4820.853
2757.221, 4832.845
2759.149, 4837.903
2761.078, 4835.173
2763.006, 4834.559
2764.935, 4836.176
2766.863, 4837.334
2768.792, 4838.252
2770.720, 4840.009
2772.649, 4843.506
2774.577, 4863.568
2776.506, 4898.513
2778.434, 4912.160
2780.363, 4905.998
2782.291, 4892.205
2784.219, 4873.095
2786.148, 4858.906
2788.076, 4849.655
2790.005, 4844.514
2791.933, 4844.125
2793.862, 4852.825
2795.790, 4868.728
2797.719, 4887.468
2799.647, 4907.072
2801.576, 4922.636
2803.504, 4934.880
2805.433, 4950.727
2807.361, 4961.912
2809.290, 4938.953
2811.218, 4905.470
2813.146, 4900.976
2815.075, 4913.871
2817.003, 4932.227
2818.932, 4949.821
2820.860, 4953.419
2822.789, 4954.637
2824.717, 4973.088
2826.646, 4990.352
2828.574, 4978.851
2830.503, 4965.348
2832.431, 4979.030
2834.360, 4999.723
2836.288, 5016.936
2838.217, 5026.333
2840.145, 5014.837
2842.073, 5008.152
2844.002, 5033.062
2845.930, 5053.588
2847.859, 5042.954
2849.787, 5035.725
2851.716, 5048.423
2853.644, 5066.011
2855.573, 5092.678
2857.501, 5105.239
2859.430, 5089.204
2861.358, 5072.901
2863.287, 5060.832
2865.215, 5054.892
2867.144, 5053.077
2869.072, 5063.609
2871.000, 5098.618
2872.929, 5116.634
2874.857, 5112.033
2876.786, 5098.508
2878.714, 5071.997
2880.643, 5068.464
2882.571, 5099.300
2884.500, 5118.128
2886.428, 5124.535
2888.357, 5135.496
2890.285, 5151.075
2892.214, 5148.429
2894.142, 5128.701
2896.071, 5114.482
2897.999, 5107.957
2899.927, 5135.001
2901.856, 5179.624
2903.784, 5188.366
2905.713, 5174.756
2907.641, 5167.899
2909.570, 5168.047
2911.498, 5182.260
2913.427, 5197.660
2915.355, 5191.912
2917.284, 5183.926
2919.212, 5199.256
2921.141, 5218.278
2923.069, 5225.770
2924.998, 5225.691
2926.926, 5209.887
2928.854, 5203.139
2930.783, 5228.248
2932.711, 5252.958
2934.640, 5270.810
2936.568, 5271.528
2938.497, 5241.526
2940.425, 5218.972
2942.354, 5215.102
2944.282, 5221.678
2946.211, 5242.521
2948.139, 5252.709
2950.068, 5246.082
2951.996, 5254.833
2953.925, 5289.796
2955.853, 5305.070
2957.781, 5299.824
2959.710, 5303.654
2961.638, 5315.230
2963.567, 5318.707
2965.495, 5315.535
2967.424, 5311.922
2969.352, 5308.859
2971.281, 5307.737
2973.209, 5310.685
2975.138, 5320.544
2977.066, 5336.660
2978.995, 5370.501
2980.923, 5395.667
2982.852, 5374.692
2984.780, 5349.943
2986.708, 5345.776
2988.637, 5353.211
2990.565, 5375.472
2992.494, 5395.074
2994.422, 5408.540
2996.351, 5413.205
2998.279, 5402.995
3000.208, 5396.717
3002.136, 5400.013
3004.065, 5399.564
3005.993, 5393.805
3007.922, 5392.521
3009.850, 5396.521
3011.779, 5413.466
3013.707, 5442.782
3015.635, 5459.684
3017.564, 5467.333
3019.492, 5480.045
3021.421, 5492.447
3023.349, 5487.441
3025.278, 5476.918
3027.206, 5487.278
3029.135, 5495.247
3031.063, 5467.217
3032.992, 5441.155
3034.920, 5448.570
3036.849, 5464.891
3038.777, 5481.347
3040.706, 5496.799
3042.634, 5510.215
3044.563, 5523.896
3046.491, 5540.573
3048.419, 5553.969
3050.348, 5565.643
3052.276, 5552.869
3054.205, 5508.259
3056.133, 5489.653
3058.062, 5497.262
3059.990, 5504.396
3061.919, 5513.039
3063.847, 5535.998
3065.775, 5561.970
3067.704, 5560.834
3069.632, 5551.972
3071.561, 5561.566
3073.489, 5579.317
3075.418, 5603.585
3077.346, 5622.849
3079.275, 5629.247
3081.203, 5628.339
3083.132, 5614.974
3085.060, 5613.853
3086.989, 5642.074
3088.917, 5662.239
3090.845, 5669.774
3092.774, 5683.753
3094.702, 5705.289
3096.631, 5709.147
3098.559, 5697.668
3100.488, 5701.887
3102.416, 5713.704
3104.345, 5696.715
3106.273, 5676.148
3108.202, 5700.292
3110.130, 5731.970
3112.059, 5729.262
3113.987, 5720.068
3115.916, 5726.197
3117.844, 5723.171
3119.772, 5685.624
3121.701, 5664.604
3123.629, 5666.625
3125.558, 5700.884
3127.486, 5783.649
3129.415, 5807.907
3131.343, 5764.273
3133.272, 5759.824
3135.200, 5784.071
3137.129, 5784.661
3139.057, 5774.982
3140.986, 5794.300
3142.914, 5816.391
3144.843, 5795.746
3146.771, 5776.691
3148.699, 5801.433
3150.628, 5825.710
3152.556, 5829.271
3154.485, 5824.721
3156.413, 5807.365
3158.342, 5809.833
3160.270, 5850.669
3162.199, 5868.594
3164.127, 5864.337
3166.056, 5868.890
3167.984, 5880.877
3169.913, 5890.162
3171.841, 5894.421
3173.770, 5873.596
3175.698, 5861.898
3177.626, 5918.654
3179.555, 5968.324
3181.483, 5945.587
3183.412, 5916.942
3185.340, 5895.948
3187.269, 5896.824
3189.197, 5943.293
3191.126, 5967.043
3193.054, 5966.012
3194.983, 5958.750
3196.911, 5948.260
3198.840, 5948.901
3200.768, 5958.751
3202.697, 5979.949
3204.625, 5998.551
3206.553, 5994.916
3208.482, 5984.698
3210.410, 5973.565
3212.339, 5971.850
3214.267, 5989.487
3216.196, 5999.459
3218.124, 5979.144
3220.053, 5991.183
3221.981, 6038.287
3223.910, 6050.291
3225.838, 6031.464
3227.767, 6038.998
3229.695, 6059.592
3231.624, 6060.081
3233.552, 6054.021
3235.480, 6051.012
3237.409, 6055.187
3239.337, 6078.914
3241.266, 6093.099
3243.194, 6086.916
3245.123, 6077.730
3247.051, 6057.408
3248.980, 6083.533
3250.908, 6150.616
3252.837, 6172.021
3254.765, 6158.542
3256.694, 6146.546
3258.622, 6135.862
3260.551, 6121.066
3262.479, 6114.933
3264.407, 6132.761
3266.336, 6154.551
3268.264, 6183.386
3270.193, 6178.848
3272.121, 6116.832
3274.050, 6101.178
3275.978, 6140.625
3277.907, 6144.327
3279.835, 6131.136
3281.764, 6179.625
3283.692, 6243.375
3285.621, 6243.606
3287.549, 6226.286
3289.478, 6220.121
3291.406, 6217.869
3293.334, 6210.087
3295.263, 6225.197
3297.191, 6273.191
3299.120, 6276.011
3301.048, 6227.587
3302.977, 6224.074
3304.905, 6250.223
3306.834, 6258.045
3308.762, 6259.259
3310.691, 6266.679
3312.619, 6276.633
3314.548, 6291.251
3316.476, 6297.340
3318.405, 6291.073
3320.333, 6265.444
3322.261, 6215.670
3324.190, 6228.843
3326.118, 6296.376
3328.047, 6335.114
3329.975, 6351.864
3331.904, 6351.744
3333.832, 6348.698
3335.761, 6357.869
3337.689, 6361.905
3339.618, 6347.289
3341.546, 6345.848
3343.475, 6367.207
3345.403, 6382.590
3347.332, 6390.490
3349.260, 6386.890
3351.188, 6377.750
3353.117, 6379.809
3355.045, 6382.474
3356.974, 6364.001
3358.902, 6356.873
3360.831, 6389.845
3362.759, 6410.413
3364.688, 6403.856
3366.616, 6405.438
3368.545, 6415.982
3370.473, 6410.647
3372.402, 6396.464
3374.330, 6388.966
3376.259, 6396.200
3378.187, 6446.485
3380.115, 6480.403
3382.044, 6451.043
3383.972, 6428.498
3385.901, 6424.670
3387.829, 6441.014
3389.758, 6476.917
3391.686, 6490.954
3393.615, 6492.234
3395.543, 6506.974
3397.472, 6518.850
3399.400, 6498.756
3401.329, 6487.702
3403.257, 6514.651
3405.186, 6525.926
3407.114, 6506.960
3409.042, 6518.035
3410.971, 6553.306
3412.899, 6537.908
3414.828, 6506.658
3416.756, 6546.629
3418.685, 6592.242
3420.613, 6588.114
3422.542, 6580.779
3424.470, 6583.368
3426.399, 6595.388
3428.327, 6618.356
3430.256, 6609.476
3432.184, 6584.271
3434.113, 6645.450
3436.041, 6708.634
3437.969, 6635.197
3439.898, 6576.422
3441.826, 6621.181
3443.755, 6668.919
3445.683, 6702.755
3447.612, 6692.508
3449.540, 6645.769
3451.469, 6644.372
3453.397, 6664.289
3455.326, 6659.278
3457.254, 6649.879
3459.183, 6642.958
3461.111, 6654.610
3463.040, 6712.550
3464.968, 6736.988
3466.896, 6726.093
3468.825, 6707.300
3470.753, 6689.915
3472.682, 6702.137
3474.610, 6721.733
3476.539, 6737.909
3478.467, 6733.128
3480.396, 6683.815
3482.324, 6664.722
3484.253, 6685.939
3486.181, 6690.688
3488.110, 6686.164
3490.038, 6718.093
3491.967, 6754.388
3493.895, 6754.593
3495.823, 6755.376
3497.752, 6777.363
3499.680, 6781.267
3501.609, 6750.100
3503.537, 6768.836
3505.466, 6817.643
3507.394, 6806.881
3509.323, 6776.937
3511.251, 6771.226
3513.180, 6773.197
3515.108, 6774.089
3517.037, 6787.051
3518.965, 6817.400
3520.894, 6843.885
3522.822, 6858.806
3524.750, 6821.779
3526.679, 6783.788
3528.607, 6826.597
3530.536, 6855.733
3532.464, 6806.369
3534.393, 6790.111
3536.321, 6816.161
3538.250, 6847.793
3540.178, 6876.753
3542.107, 6873.336
3544.035, 6871.174
3545.964, 6911.785
3547.892, 6944.360
3549.821, 6948.347
3551.749, 6941.224
3553.677, 6925.517
3555.606, 6925.912
3557.534, 6936.406
3559.463, 6944.683
3561.391, 6950.593
3563.320, 6953.214
3565.248, 6954.971
3567.177, 6956.814
3569.105, 6953.184
3571.034, 6945.359
3572.962, 6948.605
3574.891, 6957.849
3576.819, 6963.620
3578.748, 6974.844
3580.676, 7003.039
3582.604, 7019.096
3584.533, 7017.451
3586.461, 7016.345
3588.390, 7014.741
3590.318, 7002.577
3592.247, 6990.927
3594.175, 6992.694
3596.104, 6994.498
3598.032, 6993.391
3599.961, 6980.689
3601.889, 6958.223
3603.818, 7003.084
3605.746, 7060.141
3607.675, 7024.916
3609.603, 6990.832
3611.531, 7013.870
3613.460, 7033.645
3615.388, 7038.018
3617.317, 7030.323
3619.245, 7015.910
3621.174, 7004.441
3623.102, 7005.210
3625.031, 7043.371
3626.959, 7062.803
3628.888, 7036.690
3630.816, 7049.993
3632.745, 7098.145
3634.673, 7122.456
3636.602, 7126.127
3638.530, 7090.079
3640.458, 7076.905
3642.387, 7122.565
3644.315, 7153.343
3646.244, 7161.375
3648.172, 7128.620
3650.101, 7090.611
3652.029, 7127.449
3653.958, 7164.744
3655.886, 7159.212
3657.815, 7151.343
3659.743, 7147.038
3661.672, 7166.429
3663.600, 7194.019
3665.529, 7192.182
3667.457, 7174.842
3669.385, 7146.083
3671.314, 7124.987
3673.242, 7116.456
3675.171, 7120.127
3677.099, 7135.397
3679.028, 7167.118
3680.956, 7194.737
3682.885, 7198.861
3684.813, 7191.105
3686.742, 7169.458
3688.670, 7146.989
3690.599, 7131.659
3692.527, 7167.483
3694.456, 7214.014
3696.384, 7236.872
3698.313, 7230.241
3700.241, 7170.641
3702.169, 7165.653
3704.098, 7206.386
3706.026, 7239.413
3707.955, 7250.098
3709.883, 7192.204
3711.812, 7161.449
3713.740, 7202.039
3715.669, 7215.428
3717.597, 7204.325
3719.526, 7221.183
3721.454, 7239.589
3723.383, 7216.828
3725.311, 7208.760
3727.240, 7240.313
3729.168, 7246.334
3731.096, 7232.853
3733.025, 7266.076
3734.953, 7302.338
3736.882, 7284.246
3738.810, 7273.457
3740.739, 7292.778
3742.667, 7277.944
3744.596, 7239.926
3746.524, 7250.046
3748.453, 7275.618
3750.381, 7294.337
3752.310, 7299.035
3754.238, 7283.809
3756.167, 7290.912
3758.095, 7313.143
3760.023, 7322.186
3761.952, 7323.206
3763.880, 7312.959
3765.809, 7311.373
3767.737, 7322.677
3769.666, 7337.765
3771.594, 7353.769
3773.523, 7373.675
3775.451, 7374.515
3777.380, 7322.151
3779.308, 7306.574
3781.237, 7340.692
3783.165, 7340.064
3785.094, 7334.898
3787.022, 7393.783
3788.950, 7433.056
3790.879, 7410.034
3792.807, 7382.236
3794.736, 7357.619
3796.664, 7353.250
3798.593, 7362.788
3800.521, 7388.210
3802.450, 7400.551
3804.378, 7390.835
3806.307, 7379.143
3808.235, 7372.159
3810.164, 7397.379
3812.092, 7421.470
3814.021, 7413.384
3815.949, 7416.314
3817.877, 7435.397
3819.806, 7392.611
3821.734, 7335.017
3823.663, 7360.910
3825.591, 7399.745
3827.520, 7426.415
3829.448, 7434.733
3831.377, 7426.592
3833.305, 7405.764
3835.234, 7389.774
3837.162, 7398.396
3839.091, 7415.648
3841.019, 7442.182
3842.948, 7450.638
3844.876, 7448.780
3846.804, 7447.572
3848.733, 7464.367
3850.661, 7521.699
3852.590, 7519.422
3854.518, 7452.811
3856.447, 7461.688
3858.375, 7490.317
3860.304, 7460.346
3862.232, 7461.225
3864.161, 7521.196
3866.089, 7500.679
3868.018, 7433.773
3869.946, 7430.311
3871.875, 7441.910
3873.803, 7447.501
3875.731, 7439.461
3877.660, 7419.123
3879.588, 7424.318
3881.517, 7435.400
3883.445, 7423.515
3885.374, 7405.396
3887.302, 7389.179
3889.231, 7374.096
3891.159, 7360.951
3893.088, 7344.086
3895.016, 7345.878
3896.945, 7395.352
3898.873, 7404.928
3900.802, 7380.535
3902.730, 7373.263
3904.658, 7370.971
3906.587, 7371.597
3908.515, 7368.873
3910.444, 7357.290
3912.372, 7334.954
3914.301, 7310.926
3916.229, 7314.679
3918.158, 7318.797
3920.086, 7309.247
3922.015, 7309.510
3923.943, 7309.685
3925.872, 7288.070
3927.800, 7278.688
3929.729, 7305.926
3931.657, 7320.541
3933.585, 7321.104
3935.514, 7304.286
3937.442, 7284.337
3939.371, 7288.891
3941.299, 7300.871
3943.228, 7305.805
3945.156, 7280.738
3947.085, 7253.373
3949.013, 7241.308
3950.942, 7250.290
3952.870, 7277.893
3954.799, 7303.610
3956.727, 7325.130
3958.656, 7302.947
3960.584, 7267.379
3962.512, 7257.693
3964.441, 7275.286
3966.369, 7278.016
3968.298, 7260.661
3970.226, 7262.262
3972.155, 7283.209
3974.083, 7281.517
3976.012, 7282.428
3977.940, 7295.747
3979.869, 7277.938
3981.797, 7245.812
3983.726, 7244.325
3985.654, 7255.341
3987.583, 7246.405
3989.511, 7239.723
3991.439, 7218.522
3993.368, 7196.200
3995.296, 7206.310
3997.225, 7219.453
3999.153, 7222.733
4001.082, 7223.639
4003.010, 7230.759
4004.939, 7213.701
4006.867, 7239.122
4008.796, 7272.114
4010.724, 7205.078
4012.653, 7180.602
4014.581, 7215.543
4016.510, 7215.643
4018.438, 7209.302
4020.366, 7198.124
4022.295, 7185.856
4024.223, 7195.582
4026.152, 7203.225
4028.080, 7206.139
4030.009, 7209.216
4031.937, 7191.398
4033.866, 7148.029
4035.794, 7166.839
4037.723, 7201.890
4039.651, 7188.139
4041.580, 7170.470
4043.508, 7170.085
4045.437, 7166.104
4047.365, 7151.090
4049.293, 7165.692
4051.222, 7177.367
4053.150, 7166.804
4055.079, 7151.930
4057.007, 7138.111
4058.936, 7142.607
4060.864, 7140.043
4062.793, 7122.405
4064.721, 7129.150
4066.650, 7152.182
4068.578, 7167.740
4070.507, 7165.984
4072.435, 7135.379
4074.364, 7124.461
4076.292, 7133.979
4078.220, 7150.328
4080.149, 7159.183
4082.077, 7144.036
4084.006, 7122.438
4085.934, 7101.649
4087.863, 7112.849
4089.791, 7130.703
4091.720, 7131.730
4093.648, 7124.444
4095.577, 7112.117
4097.505, 7131.477
4099.434, 7145.996
4101.362, 7113.362
4103.291, 7090.181
4105.219, 7087.308
4107.147, 7088.181
4109.076, 7092.636
4111.004, 7108.239
4112.933, 7114.829
4114.861, 7117.174
4116.790, 7104.847
4118.718, 7079.413
4120.646, 7094.368
4122.575, 7110.247
4124.503, 7088.931
4126.432, 7089.146
4128.360, 7105.445
4130.289, 7101.937
4132.217, 7104.118
4134.146, 7115.059
4136.074, 7106.527
4138.003, 7079.312
4139.931, 7043.235
4141.860, 7043.245
4143.788, 7099.963
4145.717, 7112.159
4147.645, 7112.083
4149.574, 7129.867
4151.502, 7131.133
4153.431, 7117.248
4155.359, 7097.356
4157.288, 7078.333
4159.216, 7068.487
4161.145, 7061.404
4163.073, 7045.701
4165.001, 7051.839
4166.930, 7078.476
4168.858, 7078.263
4170.787, 7054.458
4172.715, 7031.769
4174.644, 7056.025
4176.572, 7090.309
4178.500, 7071.655
4180.429, 7061.115
4182.357, 7084.993
4184.286, 7105.720
4186.214, 7117.624
4188.143, 7087.555
4190.071, 7080.103
4192.000, 7130.286
4193.928, 7141.401
4195.857, 7119.421
4197.785, 7134.973
4199.714, 7139.047
4201.642, 7095.184
4203.571, 7078.348
4205.499, 7095.381
4207.428, 7137.727
4209.356, 7153.323
4211.285, 7098.510
4213.213, 7095.051
4215.142, 7135.789
4217.070, 7132.014
4218.999, 7109.247
4220.927, 7074.324
4222.855, 7071.222
4224.784, 7096.366
4226.712, 7134.736
4228.641, 7154.280
4230.569, 7141.003
4232.498, 7106.719
4234.426, 7074.763
4236.354, 7130.415
4238.283, 7166.511
4240.211, 7131.460
4242.140, 7110.548
4244.068, 7102.173
4245.997, 7106.450
4247.925, 7121.627
4249.854, 7146.741
4251.782, 7175.619
4253.711, 7192.464
4255.639, 7159.316
4257.568, 7145.765
4259.496, 7164.640
4261.425, 7194.692
4263.353, 7218.829
4265.282, 7210.258
4267.210, 7220.256
4269.139, 7247.730
4271.067, 7227.619
4272.996, 7211.995
4274.924, 7253.698
4276.853, 7243.415
4278.781, 7200.512
4280.709, 7229.633
4282.638, 7262.305
4284.566, 7264.993
4286.495, 7269.891
4288.423, 7273.772
4290.352, 7251.495
4292.280, 7265.012
4294.208, 7345.318
4296.137, 7322.256
4298.065, 7280.798
4299.994, 7342.670
4301.922, 7391.677
4303.851, 7406.821
4305.779, 7364.566
4307.708, 7336.171
4309.636, 7393.484
4311.565, 7391.822
4313.493, 7343.559
4315.422, 7358.657
4317.350, 7405.770
4319.279, 7482.316
4321.207, 7450.827
4323.136, 7381.477
4325.064, 7425.158
4326.993, 7476.577
4328.921, 7507.708
4330.850, 7465.635
4332.778, 7411.036
4334.707, 7395.513
4336.635, 7443.981
4338.563, 7531.125
4340.492, 7510.858
4342.420, 7486.131
4344.349, 7517.664
4346.277, 7543.736
4348.206, 7550.536
4350.134, 7495.528
4352.063, 7486.085
4353.991, 7552.762
4355.919, 7568.987
4357.848, 7560.317
4359.776, 7549.172
4361.705, 7569.090
4363.633, 7610.058
4365.562, 7572.488
4367.490, 7544.978
4369.419, 7599.692
4371.347, 7641.061
4373.276, 7655.325
4375.204, 7581.338
4377.133, 7565.218
4379.061, 7652.790
4380.990, 7679.589
4382.918, 7681.534
4384.847, 7687.775
4386.775, 7695.965
4388.704, 7697.952
4390.632, 7631.883
4392.561, 7616.850
4394.489, 7705.082
4396.417, 7712.148
4398.346, 7692.311
4400.274, 7750.206
4402.203, 7756.490
4404.131, 7706.805
4406.060, 7689.959
4407.988, 7697.426
4409.917, 7727.893
4411.845, 7754.199
4413.773, 7760.683
4415.702, 7693.573
4417.630, 7681.748
4419.559, 7755.857
4421.487, 7752.846
4423.416, 7752.163
4425.344, 7848.753
4427.273, 7844.075
4429.201, 7778.166
4431.130, 7792.151
4433.058, 7826.003
4434.987, 7862.250
4436.915, 7858.320
4438.844, 7836.849
4440.772, 7810.050
4442.701, 7812.362
4444.629, 7842.353
4446.558, 7900.206
4448.486, 7944.255
4450.415, 7960.252
4452.343, 7884.680
4454.271, 7819.586
4456.200, 7899.188
4458.128, 7933.056
4460.057, 7922.445
4461.985, 7933.691
4463.914, 7932.604
4465.842, 7900.862
4467.771, 7974.667
4469.699, 8032.721
4471.627, 7943.028
4473.556, 7898.257
4475.484, 7904.620
4477.413, 7924.974
4479.341, 7945.097
4481.270, 7961.293
4483.198, 7990.821
4485.127, 8019.935
4487.055, 8045.857
4488.984, 8024.841
4490.912, 7978.982
4492.841, 7963.441
4494.769, 7973.618
4496.698, 8008.653
4498.626, 7992.833
4500.555, 7982.677
4502.483, 8018.189
4504.412, 8042.401
4506.340, 8056.228
4508.269, 8077.017
4510.197, 8065.937
4512.125, 8028.977
4514.054, 8049.267
4515.982, 8070.652
4517.911, 8058.704
4519.839, 8025.700
4521.768, 8007.046
4523.696, 8063.391
4525.625, 8102.666
4527.553, 8116.458
4529.481, 8113.262
4531.410, 8109.211
4533.338, 8110.376
4535.267, 8143.378
4537.195, 8169.841
4539.124, 8144.804
4541.052, 8161.568
4542.981, 8192.253
4544.909, 8158.936
4546.838, 8141.088
4548.766, 8150.070
4550.695, 8134.160
4552.623, 8132.750
4554.552, 8164.430
4556.480, 8177.602
4558.409, 8176.244
4560.337, 8156.724
4562.266, 8168.542
4564.194, 8202.773
4566.123, 8234.139
4568.051, 8236.407
4569.979, 8206.513
4571.908, 8243.076
4573.836, 8277.615
4575.765, 8273.090
4577.693, 8270.629
4579.622, 8265.288
4581.550, 8238.703
4583.479, 8241.398
4585.407, 8263.063
4587.335, 8255.386
4589.264, 8261.285
4591.192, 8290.357
4593.121, 8285.938
4595.049, 8281.768
4596.978, 8296.531
4598.906, 8276.954
4600.835, 8252.419
4602.763, 8259.882
4604.692, 8269.989
4606.620, 8280.616
4608.549, 8300.680
4610.477, 8298.304
4612.406, 8273.742
4614.334, 8315.092
4616.263, 8342.991
4618.191, 8324.993
4620.120, 8292.154
4622.048, 8281.848
4623.977, 8339.281
4625.905, 8373.462
4627.833, 8387.306
4629.762, 8388.007
4631.690, 8402.680
4633.619, 8422.555
4635.547, 8384.291
4637.476, 8357.732
4639.404, 8359.254
4641.333, 8349.060
4643.261, 8342.725
4645.189, 8348.083
4647.118, 8388.805
4649.046, 8422.034
4650.975, 8396.069
4652.903, 8402.555
4654.832, 8422.674
4656.760, 8398.231
4658.689, 8388.974
4660.617, 8401.106
4662.546, 8421.235
4664.474, 8435.330
4666.403, 8438.938
4668.331, 8425.890
4670.260, 8424.816
4672.188, 8449.946
4674.117, 8445.297
4676.045, 8435.639
4677.974, 8450.033
4679.902, 8461.653
4681.831, 8464.800
4683.759, 8452.468
4685.688, 8418.463
4687.616, 8389.854
4689.544, 8455.976
4691.473, 8519.950
4693.401, 8550.433
4695.330, 8483.943
4697.258, 8439.902
4699.187, 8462.527
4701.115, 8490.827
4703.043, 8517.147
4704.972, 8538.938
4706.900, 8520.162
4708.829, 8493.907
4710.757, 8488.958
4712.686, 8529.686
4714.614, 8566.000
4716.543, 8508.278
4718.471, 8513.683
4720.400, 8556.579
4722.328, 8534.591
4724.257, 8494.312
4726.185, 8460.665
4728.114, 8526.011
4730.042, 8554.728
4731.971, 8519.352
4733.899, 8480.121
4735.828, 8473.867
4737.756, 8518.408
4739.685, 8596.846
4741.613, 8644.354
4743.542, 8619.356
4745.470, 8566.963
4747.398, 8527.527
4749.327, 8537.227
4751.255, 8547.371
4753.184, 8551.365
4755.112, 8541.903
4757.041, 8533.905
4758.969, 8538.467
4760.897, 8593.167
4762.826, 8590.089
4764.754, 8546.378
4766.683, 8541.258
4768.611, 8559.927
4770.540, 8589.430
4772.468, 8571.510
4774.397, 8602.958
4776.325, 8683.384
4778.254, 8644.916
4780.182, 8610.616
4782.111, 8626.570
4784.039, 8591.588
4785.968, 8568.280
4787.896, 8582.692
4789.825, 8590.180
4791.753, 8619.904
4793.682, 8706.838
4795.610, 8663.984
4797.539, 8605.258
4799.467, 8616.376
4801.396, 8589.764
4803.324, 8569.646
4805.252, 8619.026
4807.181, 8650.421
4809.109, 8652.266
4811.038, 8606.724
4812.966, 8592.426
4814.895, 8601.462
4816.823, 8613.949
4818.751, 8625.161
4820.680, 8632.473
4822.608, 8629.237
4824.537, 8633.572
4826.465, 8642.036
4828.394, 8642.674
4830.322, 8635.735
4832.251, 8628.819
4834.179, 8648.478
4836.108, 8648.978
4838.036, 8640.896
4839.965, 8704.116
4841.893, 8715.021
4843.822, 8664.594
4845.750, 8610.952
4847.679, 8587.617
4849.607, 8599.730
4851.536, 8648.831
4853.464, 8657.092
4855.393, 8621.366
4857.321, 8683.465
4859.250, 8686.196
4861.178, 8606.583
4863.106, 8626.439
4865.035, 8678.825
4866.963, 8729.644
4868.892, 8681.443
4870.820, 8631.398
4872.749, 8613.373
4874.677, 8595.893
4876.605, 8613.064
4878.534, 8663.321
4880.462, 8626.011
4882.391, 8615.697
4884.319, 8671.728
4886.248, 8638.239
4888.176, 8623.593
4890.105, 8657.881
4892.033, 8659.054
4893.962, 8671.547
4895.890, 8711.908
4897.819, 8708.569
4899.747, 8703.357
4901.676, 8707.227
4903.604, 8668.014
4905.533, 8650.619
4907.461, 8677.538
4909.390, 8680.999
4911.318, 8672.146
4913.247, 8657.698
4915.175, 8663.042
4917.104, 8658.132
4919.032, 8635.896
4920.960, 8618.179
4922.889, 8633.511
4924.817, 8680.223
4926.746, 8661.023
4928.674, 8592.472
4930.603, 8514.068
4932.531, 8639.080
4934.459, 8683.479
4936.388, 8600.068
4938.316, 8628.037
4940.245, 8679.547
4942.173, 8718.982
4944.102, 8696.062
4946.030, 8674.766
4947.959, 8670.333
4949.887, 8688.387
4951.816, 8689.415
4953.744, 8674.218
4955.673, 8660.027
4957.601, 8697.204
4959.530, 8750.837
4961.458, 8707.785
4963.387, 8683.061
4965.315, 8673.284
4967.244, 8617.808
4969.172, 8663.276
4971.101, 8743.372
4973.029, 8705.462
4974.958, 8662.857
4976.886, 8651.243
4978.814, 8726.497
4980.743, 8723.603
4982.671, 8680.946
4984.600, 8647.291
4986.528, 8714.527
4988.457, 8776.214
4990.385, 8702.857
4992.313, 8711.690
4994.242, 8715.813
4996.170, 8656.002
4998.099, 8661.510
5000.027, 8687.972
5001.956, 8705.903
5003.884, 8646.199
5005.813, 8625.640
5007.741, 8688.924
5009.670, 8706.762
5011.598, 8685.252
5013.527, 8645.397
5015.455, 8691.323
5017.384, 8703.658
5019.312, 8671.634
5021.241, 8682.230
5023.169, 8698.645
5025.098, 8702.783
5027.026, 8660.875
5028.955, 8635.004
5030.883, 8636.504
5032.812, 8683.050
5034.740, 8701.799
5036.668, 8701.686
5038.597, 8701.038
5040.525, 8670.345
5042.454, 8654.283
5044.382, 8695.804
5046.311, 8685.861
5048.239, 8680.364
5050.167, 8718.456
5052.096, 8638.924
5054.024, 8617.745
5055.953, 8697.201
5057.881, 8696.126
5059.810, 8681.544
5061.738, 8677.636
5063.667, 8697.898
5065.595, 8707.449
5067.524, 8709.455
5069.452, 8733.232
5071.381, 8725.250
5073.309, 8696.983
5075.238, 8657.316
5077.166, 8711.211
5079.095, 8756.852
5081.023, 8691.543
5082.952, 8678.126
5084.880, 8688.866
5086.809, 8701.754
5088.737, 8697.500
5090.666, 8719.503
5092.594, 8768.267
5094.522, 8679.011
5096.451, 8658.697
5098.379, 8708.752
5100.308, 8668.386
5102.236, 8676.366
5104.165, 8703.335
5106.093, 8663.024
5108.021, 8621.565
5109.950, 8608.737
5111.878, 8655.692
5113.807, 8604.085
5115.735, 8601.992
5117.664, 8716.353
5119.592, 8664.578
5121.521, 8614.516
5123.449, 8625.178
5125.378, 8659.060
5127.306, 8670.110
5129.235, 8664.323
5131.163, 8681.008
5133.092, 8678.911
5135.020, 8659.082
5136.949, 8623.980
5138.877, 8607.654
5140.806, 8614.378
5142.734, 8647.575
5144.663, 8652.220
5146.591, 8651.483
5148.520, 8656.856
5150.448, 8688.851
5152.376, 8681.875
5154.305, 8653.246
5156.233, 8693.254
5158.162, 8677.316
5160.090, 8640.035
5162.019, 8637.513
5163.947, 8640.312
5165.875, 8647.278
5167.804, 8658.378
5169.732, 8663.020
5171.661, 8657.905
5173.589, 8648.336
5175.518, 8671.296
5177.446, 8667.892
5179.375, 8641.592
5181.303, 8614.711
5183.232, 8603.977
5185.160, 8601.895
5187.089, 8599.559
5189.017, 8621.072
5190.946, 8637.729
5192.874, 8641.356
5194.803, 8682.968
5196.731, 8689.128
5198.660, 8673.485
5200.588, 8707.025
5202.517, 8740.346
5204.445, 8745.796
5206.374, 8687.636
5208.302, 8652.656
5210.230, 8644.996
5212.159, 8661.066
5214.087, 8658.151
5216.016, 8654.320
5217.944, 8655.317
5219.873, 8667.096
5221.801, 8664.471
5223.729, 8659.345
5225.658, 8666.787
5227.586, 8679.247
5229.515, 8700.328
5231.443, 8726.779
5233.372, 8727.636
5235.300, 8715.352
5237.229, 8699.231
5239.157, 8688.161
5241.086, 8701.377
5243.014, 8706.690
5244.943, 8671.332
5246.871, 8681.048
5248.800, 8704.510
5250.728, 8724.675
5252.657, 8744.730
5254.585, 8701.302
5256.514, 8633.766
5258.442, 8628.393
5260.371, 8605.863
5262.299, 8620.510
5264.228, 8705.500
5266.156, 8716.364
5268.084, 8693.493
5270.013, 8662.629
5271.941, 8659.728
5273.870, 8626.695
5275.798, 8606.005
5277.727, 8664.244
5279.655, 8693.575
5281.583, 8680.086
5283.512, 8636.750
5285.440, 8672.164
5287.369, 8710.602
5289.297, 8714.169
5291.226, 8630.900
5293.154, 8656.177
5295.083, 8696.609
5297.011, 8687.942
5298.940, 8654.231
5300.868, 8683.539
5302.797, 8739.058
5304.725, 8691.713
5306.654, 8622.262
5308.582, 8595.661
5310.511, 8649.413
5312.439, 8636.640
5314.368, 8621.973
5316.296, 8625.605
5318.225, 8635.870
5320.153, 8656.427
5322.082, 8678.739
5324.010, 8692.630
5325.938, 8609.173
5327.867, 8581.225
5329.795, 8638.217
5331.724, 8695.207
5333.652, 8684.160
5335.581, 8653.569
5337.509, 8665.218
5339.438, 8679.570
5341.366, 8636.385
5343.294, 8557.855
5345.223, 8611.831
5347.151, 8669.588
5349.080, 8704.396
5351.008, 8708.653
5352.937, 8701.907
5354.865, 8714.929
5356.794, 8742.705
5358.722, 8718.356
5360.651, 8668.702
5362.579, 8642.438
5364.508, 8679.346
5366.436, 8646.119
5368.365, 8612.519
5370.293, 8601.128
5372.222, 8580.448
5374.150, 8611.549
5376.079, 8647.003
5378.007, 8636.129
5379.936, 8630.821
5381.864, 8648.444
5383.792, 8664.086
5385.721, 8593.750
5387.649, 8605.653
5389.578, 8651.898
5391.506, 8677.405
5393.435, 8603.120
5395.363, 8573.028
5397.292, 8589.574
5399.220, 8572.260
5401.148, 8629.747
5403.077, 8660.131
5405.005, 8618.575
5406.934, 8617.556
5408.862, 8609.638
5410.791, 8597.063
5412.719, 8595.875
5414.648, 8551.358
5416.576, 8538.309
5418.505, 8565.223
5420.433, 8520.938
5422.362, 8573.777
5424.290, 8636.808
5426.219, 8621.431
5428.147, 8618.401
5430.076, 8609.183
5432.004, 8593.196
5433.933, 8574.704
5435.861, 8623.912
5437.790, 8628.826
5439.718, 8544.823
5441.646, 8512.537
5443.575, 8556.434
5445.503, 8586.115
5447.432, 8500.464
5449.360, 8521.288
5451.289, 8507.747
5453.217, 8465.317
5455.146, 8531.211
5457.074, 8542.527
5459.002, 8547.255
5460.931, 8578.701
5462.859, 8572.091
5464.788, 8548.883
5466.716, 8530.006
5468.645, 8536.127
5470.573, 8490.329
5472.502, 8512.260
5474.430, 8576.193
5476.359, 8530.781
5478.287, 8515.986
5480.216, 8528.666
5482.144, 8548.000
5484.073, 8507.589
5486.001, 8526.965
5487.930, 8550.873
5489.858, 8495.934
5491.787, 8450.503
5493.715, 8497.512
5495.644, 8564.274
5497.572, 8474.021
5499.500, 8479.717
5501.429, 8506.955
5503.357, 8516.672
5505.286, 8549.460
5507.214, 8515.354
5509.143, 8499.633
5511.071, 8563.123
5513.000, 8524.412
5514.928, 8464.795
5516.856, 8434.668
5518.785, 8472.906
5520.713, 8448.492
5522.642, 8468.259
5524.570, 8505.168
5526.499, 8437.322
5528.427, 8511.899
5530.356, 8541.088
5532.284, 8473.895
5534.213, 8488.475
5536.141, 8474.744
5538.070, 8479.489
5539.998, 8529.551
5541.927, 8497.183
5543.855, 8464.110
5545.784, 8458.186
5547.712, 8486.565
5549.641, 8475.888
5551.569, 8426.461
5553.498, 8393.477
5555.426, 8446.862
5557.354, 8390.012
5559.283, 8403.866
5561.211, 8478.639
5563.140, 8437.745
5565.068, 8427.923
5566.997, 8418.257
5568.925, 8396.751
5570.854, 8374.889
5572.782, 8397.475
5574.710, 8431.780
5576.639, 8448.496
5578.567, 8416.221
5580.496, 8369.616
5582.424, 8345.497
5584.353, 8359.381
5586.281, 8364.738
5588.210, 8392.840
5590.138, 8388.383
5592.067, 8302.906
5593.995, 8370.403
5595.924, 8364.557
5597.852, 8319.480
5599.781, 8336.823
5601.709, 8384.341
5603.638, 8365.709
5605.566, 8310.308
5607.495, 8291.381
5609.423, 8304.749
5611.352, 8316.662
5613.280, 8313.767
5615.208, 8291.399
5617.137, 8287.271
5619.065, 8331.283
5620.994, 8384.163
5622.922, 8339.654
5624.851, 8310.729
5626.779, 8333.115
5628.708, 8365.908
5630.636, 8273.339
5632.564, 8311.709
5634.493, 8320.042
5636.421, 8286.533
5638.350, 8358.992
5640.278, 8336.117
5642.207, 8278.659
5644.135, 8245.650
5646.064, 8291.539
5647.992, 8291.299
5649.921, 8302.311
5651.849, 8327.337
5653.778, 8268.133
5655.706, 8265.271
5657.635, 8271.986
5659.563, 8261.021
5661.492, 8211.430
5663.420, 8299.284
5665.349, 8303.750
5667.277, 8217.558
5669.206, 8297.798
5671.134, 8232.146
5673.063, 8213.804
5674.991, 8302.016
5676.919, 8410.898
5678.848, 8309.245
5680.776, 8210.368
5682.705, 8200.956
5684.633, 8255.983
5686.562, 8221.331
5688.490, 8213.054
5690.418, 8241.753
5692.347, 8216.208
5694.275, 8222.440
5696.204, 8269.867
5698.132, 8301.895
5700.061, 8209.174
5701.989, 8224.067
5703.918, 8221.488
5705.846, 8202.166
5707.775, 8225.206
5709.703, 8216.614
5711.632, 8224.124
5713.560, 8240.766
5715.489, 8246.754
5717.417, 8332.221
5719.346, 8330.318
5721.274, 8252.098
5723.203, 8156.987
5725.131, 8184.047
5727.060, 8239.850
5728.988, 8250.681
5730.917, 8189.945
5732.845, 8169.690
5734.773, 8212.442
5736.702, 8236.973
5738.630, 8207.399
5740.559, 8182.458
5742.487, 8246.162
5744.416, 8273.156
5746.344, 8237.979
5748.272, 8249.780
5750.201, 8252.672
5752.129, 8213.681
5754.058, 8174.527
5755.986, 8220.160
5757.915, 8183.581
5759.843, 8159.107
5761.772, 8154.024
5763.700, 8138.209
5765.629, 8155.255
5767.557, 8176.836
5769.486, 8176.423
5771.414, 8143.299
5773.343, 8140.103
5775.271, 8122.633
5777.200, 8116.307
5779.128, 8127.721
5781.057, 8094.718
5782.985, 8127.489
5784.914, 8133.880
5786.842, 8103.095
5788.771, 8104.128
5790.699, 8129.601
5792.627, 8156.477
5794.556, 8157.691
5796.484, 8117.031
5798.413, 8134.705
5800.341, 8123.973
5802.270, 8119.055
5804.198, 8143.418
5806.126, 8084.358
5808.055, 8102.831
5809.983, 8128.253
5811.912, 8124.467
5813.840, 8119.036
5815.769, 8201.152
5817.697, 8171.569
5819.626, 8086.699
5821.554, 8132.435
5823.483, 8125.389
5825.411, 8142.358
5827.340, 8118.391
5829.268, 8019.652
5831.197, 8040.906
5833.125, 8098.075
5835.054, 8092.552
5836.982, 8046.559
5838.911, 8099.105
5840.839, 8124.475
5842.768, 8053.006
5844.696, 7994.554
5846.625, 8069.281
5848.553, 8065.383
5850.481, 8095.810
5852.410, 8117.787
5854.338, 8085.257
5856.267, 7982.932
5858.195, 7960.026
5860.124, 7970.208
5862.052, 7967.195
5863.980, 7929.049
5865.909, 7977.376
5867.837, 8056.545
5869.766, 8075.486
5871.694, 8010.086
5873.623, 7997.920
5875.551, 8005.682
5877.480, 7999.938
5879.408, 7998.087
5881.337, 8057.388
5883.265, 8027.943
5885.194, 8014.293
5887.122, 8010.566
5889.051, 7990.495
5890.979, 7924.051
5892.908, 7959.821
5894.836, 8007.546
5896.765, 8017.048
5898.693, 7978.855
5900.622, 7964.847
5902.550, 7990.172
5904.479, 8025.979
5906.407, 8045.601
5908.335, 8041.119
5910.264, 7976.762
5912.192, 7947.890
5914.121, 7979.369
5916.049, 8040.837
5917.978, 7961.793
5919.906, 7874.560
5921.834, 7895.335
5923.763, 7982.607
5925.691, 7917.344
5927.620, 7894.252
5929.548, 7900.181
5931.477, 7911.968
5933.405, 7922.910
5935.334, 7976.592
5937.262, 7989.504
5939.191, 7952.825
5941.119, 7887.612
5943.048, 7828.562
5944.976, 7928.839
5946.905, 7914.284
5948.833, 7868.528
5950.762, 7864.290
5952.690, 7832.220
5954.619, 7914.325
5956.547, 7868.346
5958.476, 7781.200
5960.404, 7800.397
5962.333, 7896.177
5964.261, 7861.298
5966.189, 7865.877
5968.118, 7909.602
5970.046, 7869.364
5971.975, 7922.460
5973.903, 7905.219
5975.832, 7849.103
5977.760, 7808.739
5979.688, 7830.979
5981.617, 7874.465
5983.545, 7893.262
5985.474, 7883.458
5987.402, 7864.526
5989.331, 7897.463
5991.259, 7771.690
5993.188, 7777.343
5995.116, 7822.020
5997.045, 7766.960
5998.973, 7862.436
6000.902, 7857.524
6002.830, 7846.991
6004.759, 7836.491
6006.687, 7789.401
6008.616, 7840.252
6010.544, 7783.897
6012.473, 7766.816
6014.401, 7802.644
6016.330, 7800.815
6018.258, 7768.758
6020.187, 7836.700
6022.115, 7843.236
6024.043, 7774.400
6025.972, 7760.293
6027.900, 7821.971
6029.829, 7782.862
6031.757, 7724.480
6033.686, 7698.802
6035.614, 7680.206
6037.542, 7781.956
6039.471, 7730.916
6041.399, 7678.506
6043.328, 7710.161
6045.256, 7734.661
6047.185, 7770.759
6049.113, 7778.859
6051.042, 7741.838
6052.970, 7693.049
6054.898, 7706.614
6056.827, 7697.692
6058.755, 7704.422
6060.684, 7714.385
6062.612, 7741.384
6064.541, 7832.581
6066.469, 7797.555
6068.398, 7716.484
6070.326, 7707.079
6072.255, 7747.070
6074.183, 7686.040
6076.112, 7684.398
6078.040, 7693.938
6079.969, 7673.813
6081.897, 7629.781
6083.826, 7601.699
6085.754, 7588.819
6087.683, 7587.923
6089.611, 7638.009
6091.540, 7677.564
6093.468, 7610.673
6095.396, 7710.251
6097.325, 7651.960
6099.253, 7600.929
6101.182, 7587.910
6103.110, 7539.857
6105.039, 7582.252
6106.967, 7581.841
6108.896, 7590.151
6110.824, 7599.517
6112.752, 7569.808
6114.681, 7483.933
6116.609, 7588.940
6118.538, 7537.593
6120.466, 7458.900
6122.395, 7518.266
6124.323, 7548.447
6126.252, 7520.443
6128.180, 7525.668
6130.109, 7560.916
6132.037, 7566.787
6133.966, 7472.657
6135.894, 7452.477
6137.823, 7469.625
6139.751, 7503.057
6141.680, 7506.326
6143.608, 7438.501
6145.537, 7415.394
6147.465, 7490.090
6149.394, 7517.065
6151.322, 7497.655
6153.250, 7485.342
6155.179, 7444.286
6157.107, 7413.666
6159.036, 7479.363
6160.964, 7497.937
6162.893, 7416.547
6164.821, 7380.229
6166.750, 7361.854
6168.678, 7352.542
6170.606, 7335.559
6172.535, 7324.167
6174.463, 7342.500
6176.392, 7347.858
6178.320, 7379.856
6180.249, 7322.919
6182.177, 7271.513
6184.106, 7304.008
6186.034, 7329.188
6187.963, 7235.829
6189.891, 7221.272
6191.820, 7262.255
6193.748, 7272.136
6195.677, 7189.213
6197.605, 7179.509
6199.534, 7222.066
6201.462, 7228.440
6203.391, 7203.130
6205.319, 7182.219
6207.248, 7188.302
6209.176, 7206.789
6211.104, 7172.813
6213.033, 7180.284
6214.961, 7215.153
6216.890, 7199.200
6218.818, 7179.664
6220.747, 7138.396
6222.675, 7088.563
6224.604, 7083.229
6226.532, 7128.879
6228.460, 7168.412
6230.389, 7172.534
6232.317, 7141.116
6234.246, 7074.399
6236.174, 7024.196
6238.103, 7019.810
6240.031, 7005.591
6241.960, 7010.342
6243.888, 7041.013
6245.817, 7034.351
6247.745, 6987.865
6249.674, 6956.297
6251.602, 7009.063
6253.531, 6994.648
6255.459, 6940.960
6257.388, 6941.201
6259.316, 6953.299
6261.245, 6860.157
6263.173, 6884.373
6265.102, 6887.031
6267.030, 6863.440
6268.958, 6838.140
6270.887, 6830.217
6272.815, 6845.534
6274.744, 6841.237
6276.672, 6802.479
6278.601, 6819.046
6280.529, 6800.468
6282.458, 6729.600
6284.386, 6828.750
6286.314, 6716.638
6288.243, 6667.458
6290.171, 6689.583
6292.100, 6704.363
6294.028, 6690.730
6295.957, 6750.368
6297.885, 6695.345
6299.814, 6720.429
6301.742, 6696.839
6303.671, 6642.358
6305.599, 6638.117
6307.528, 6693.768
6309.456, 6652.848
6311.385, 6640.586
6313.313, 6657.529
6315.242, 6633.466
6317.170, 6572.166
6319.099, 6591.350
6321.027, 6589.792
6322.956, 6522.636
6324.884, 6472.195
6326.813, 6498.565
6328.741, 6547.436
6330.669, 6480.241
6332.598, 6495.982
6334.526, 6408.115
6336.455, 6420.422
6338.383, 6437.870
6340.312, 6392.941
6342.240, 6376.444
6344.168, 6420.960
6346.097, 6421.760
6348.025, 6345.846
6349.954, 6291.713
6351.882, 6288.217
6353.811, 6295.304
6355.739, 6379.974
6357.668, 6244.266
6359.596, 6243.544
6361.525, 6264.421
6363.453, 6292.229
6365.382, 6333.387
6367.310, 6204.035
6369.239, 6169.259
6371.167, 6209.512
6373.096, 6198.866
6375.024, 6153.980
6376.953, 6138.989
6378.881, 6171.589
6380.810, 6169.949
6382.738, 6117.664
6384.667, 6150.915
6386.595, 6099.728
6388.523, 6025.963
6390.452, 6085.657
6392.380, 6008.099
6394.309, 6021.261
6396.237, 6000.312
6398.166, 5969.245
6400.094, 5985.709
6402.022, 6020.938
6403.951, 5969.783
6405.879, 5886.998
6407.808, 5972.356
6409.736, 5941.150
6411.665, 5848.135
6413.593, 5828.435
6415.522, 5887.440
6417.450, 5854.423
6419.379, 5818.346
6421.307, 5804.116
6423.236, 5783.001
6425.164, 5808.058
6427.093, 5840.879
6429.021, 5774.548
6430.950, 5682.934
6432.878, 5706.386
6434.807, 5699.507
6436.735, 5692.081
6438.664, 5680.440
6440.592, 5651.264
6442.521, 5622.197
6444.449, 5597.426
6446.377, 5624.938
6448.306, 5591.649
6450.234, 5571.766
6452.163, 5567.922
6454.091, 5553.413
6456.020, 5553.628
6457.948, 5558.098
6459.876, 5527.076
6461.805, 5463.481
6463.733, 5497.323
6465.662, 5561.637
6467.590, 5542.352
6469.519, 5453.372
6471.447, 5363.964
6473.376, 5390.750
6475.304, 5427.443
6477.233, 5463.623
6479.161, 5444.572
6481.090, 5373.182
6483.018, 5363.454
6484.947, 5345.185
6486.875, 5392.736
6488.804, 5345.540
6490.732, 5296.561
6492.661, 5268.500
6494.589, 5258.178
6496.518, 5298.368
6498.446, 5279.104
6500.375, 5199.441
6502.303, 5197.842
6504.231, 5208.461
6506.160, 5230.649
6508.088, 5252.231
6510.017, 5223.200
6511.945, 5169.067
6513.874, 5180.730
6515.802, 5147.462
6517.730, 5140.519
6519.659, 5158.723
6521.587, 5144.247
6523.516, 5091.606
6525.444, 5091.876
6527.373, 5011.261
6529.301, 5110.455
6531.230, 5091.036
6533.158, 5050.521
6535.087, 5033.497
6537.015, 5020.294
6538.944, 5025.956
6540.872, 5015.785
6542.801, 5010.887
6544.729, 4945.632
6546.658, 4972.004
6548.586, 4998.425
6550.515, 4962.694
6552.443, 4921.627
6554.372, 4934.152
6556.300, 4891.616
6558.229, 4852.688
6560.157, 4911.255
6562.085, 4899.666
6564.014, 4855.477
6565.942, 4848.167
6567.871, 4849.146
6569.799, 4808.150
6571.728, 4803.006
6573.656, 4806.317
6575.584, 4784.168
6577.513, 4776.503
6579.441, 4777.280
6581.370, 4756.156
6583.298, 4716.327
6585.227, 4717.901
6587.155, 4684.907
6589.084, 4649.335
6591.012, 4640.767
6592.941, 4670.155
##END=



