##NAMES=Cerussite
##RRUFFID=R050011
##IDEAL CHEMISTRY=Pb(CO_3_)
##LOCALITY=Daoping Lead and Zinc mine, Gongcheng, Guangxi, China
##OWNER=RRUFF
##SOURCE=Eugene Schlepp
##DESCRIPTION=Colorless hexagonal bipyramidal crystals
##STATUS=The identification of this mineral has been confirmed by X-ray diffraction and chemical analysis
##URL=https://www.rruff.net/odr/rruff_sample/R050011
##MEASURED CHEMISTRY=Pb_1.00_CO_3_ ; CO_2_ not measured but estimated by difference and stoichiometry
##DIFFRACTION SAMPLE DESCRIPTION=Powder
##CELL PARAMETERS=a: 5.1836 b: 8.4978 c: 6.1453 alpha: 90 beta: 90 gamma: 90 volume: 270.7 crystal system: orthorhombic
##FILETYPE=Raman Processed
##RAMAN WAVELENGTH=785

128.1162, 651.3724
130.0447, 712.1127
131.9731, 764.4034
133.9016, 807.1425
135.8301, 837.3433
137.7585, 876.8029
139.6870, 929.8217
141.6155, 986.0052
143.5439, 1051.414
145.4724, 1111.895
147.4009, 1155.317
149.3293, 1183.129
151.2578, 1212.775
153.1863, 1248.134
155.1147, 1279.400
157.0432, 1302.242
158.9717, 1325.221
160.9001, 1354.267
162.8286, 1386.294
164.7571, 1415.020
166.6855, 1437.976
168.6140, 1465.600
170.5425, 1497.447
172.4709, 1534.191
174.3994, 1581.506
176.3279, 1629.488
178.2563, 1668.958
180.1848, 1700.279
182.1133, 1731.876
184.0417, 1764.767
185.9702, 1795.787
187.8987, 1824.519
189.8271, 1851.311
191.7556, 1870.887
193.6841, 1890.975
195.6125, 1927.029
197.5410, 1983.427
199.4695, 2034.644
201.3979, 2078.719
203.3264, 2121.841
205.2549, 2162.990
207.1833, 2207.050
209.1118, 2255.761
211.0403, 2309.987
212.9688, 2376.881
214.8972, 2465.598
216.8257, 2533.011
218.7542, 2571.049
220.6826, 2596.876
222.6111, 2622.884
224.5396, 2636.870
226.4680, 2623.450
228.3965, 2583.841
230.3250, 2538.322
232.2534, 2486.458
234.1819, 2431.137
236.1104, 2363.696
238.0388, 2307.754
239.9673, 2279.119
241.8958, 2264.769
243.8242, 2247.382
245.7527, 2226.976
247.6812, 2214.549
249.6096, 2212.672
251.5381, 2208.764
253.4666, 2204.940
255.3950, 2190.358
257.3235, 2160.619
259.2520, 2117.098
261.1804, 2060.221
263.1089, 1989.193
265.0374, 1912.871
266.9658, 1829.157
268.8943, 1747.599
270.8228, 1667.932
272.7512, 1595.014
274.6797, 1528.123
276.6082, 1470.787
278.5366, 1431.760
280.4651, 1410.767
282.3936, 1387.165
284.3220, 1359.656
286.2505, 1333.689
288.1790, 1309.162
290.1074, 1288.997
292.0359, 1275.895
293.9644, 1266.996
295.8928, 1257.953
297.8213, 1249.307
299.7498, 1243.925
301.6782, 1240.944
303.6067, 1246.721
305.5352, 1268.116
307.4636, 1291.017
309.3921, 1304.715
311.3206, 1321.300
313.2490, 1358.112
315.1775, 1410.007
317.1060, 1450.568
319.0344, 1478.247
320.9629, 1517.476
322.8914, 1582.851
324.8198, 1641.053
326.7483, 1678.100
328.6768, 1708.729
330.6052, 1746.687
332.5337, 1785.667
334.4622, 1809.477
336.3906, 1819.399
338.3191, 1829.637
340.2476, 1842.975
342.1760, 1853.167
344.1045, 1857.732
346.0330, 1860.139
347.9614, 1859.770
349.8899, 1859.530
351.8184, 1870.333
353.7468, 1884.801
355.6753, 1873.038
357.6038, 1829.816
359.5322, 1790.048
361.4607, 1771.707
363.3892, 1739.688
365.3176, 1679.250
367.2461, 1609.048
369.1746, 1538.180
371.1030, 1468.837
373.0315, 1405.933
374.9600, 1348.604
376.8884, 1289.239
378.8169, 1223.933
380.7454, 1167.286
382.6738, 1124.746
384.6023, 1086.243
386.5308, 1047.421
388.4592, 1012.136
390.3877, 985.3488
392.3162, 964.4105
394.2446, 944.7521
396.1731, 926.3094
398.1016, 907.6155
400.0300, 885.9110
401.9585, 869.8181
403.8870, 862.5709
405.8154, 857.6775
407.7439, 854.7422
409.6724, 851.2139
411.6008, 843.8906
413.5293, 834.4655
415.4578, 824.7903
417.3862, 814.7894
419.3147, 811.4804
421.2432, 819.8346
423.1716, 826.4115
425.1001, 829.2903
427.0286, 831.5638
428.9570, 835.4861
430.8855, 838.1469
432.8140, 833.0388
434.7424, 826.9653
436.6709, 833.7537
438.5994, 853.2507
440.5278, 866.1418
442.4563, 869.2573
444.3848, 870.9810
446.3132, 869.0076
448.2417, 869.4720
450.1702, 877.1873
452.0986, 884.2783
454.0271, 885.4402
455.9556, 883.1434
457.8840, 879.7507
459.8125, 875.3895
461.7410, 871.1169
463.6694, 867.7485
465.5979, 861.4075
467.5264, 850.1201
469.4548, 840.0889
471.3833, 838.2646
473.3118, 828.6221
475.2402, 793.7444
477.1687, 758.9243
479.0972, 747.0787
481.0256, 746.9996
482.9541, 736.7849
484.8826, 716.7899
486.8110, 700.9188
488.7395, 691.6540
490.6680, 679.3325
492.5964, 660.8885
494.5249, 646.3830
496.4534, 639.8523
498.3818, 635.2756
500.3103, 630.7761
502.2388, 625.5546
504.1672, 617.8871
506.0957, 609.4764
508.0242, 604.7201
509.9526, 603.3771
511.8811, 598.3727
513.8096, 589.0297
515.7380, 578.8705
517.6665, 567.0840
519.5950, 557.4234
521.5234, 552.7066
523.4519, 546.9062
525.3804, 533.2776
527.3088, 521.3719
529.2373, 520.5065
531.1658, 524.0645
533.0942, 521.0950
535.0227, 512.8526
536.9512, 506.9886
538.8796, 503.8787
540.8081, 497.9568
542.7366, 487.8950
544.6650, 480.9741
546.5935, 479.6357
548.5220, 478.9322
550.4504, 477.3525
552.3789, 475.4136
554.3074, 470.6630
556.2358, 468.2259
558.1643, 475.9423
560.0928, 488.5020
562.0212, 494.3117
563.9497, 494.0710
565.8782, 494.2147
567.8066, 494.7766
569.7351, 493.8890
571.6636, 490.7319
573.5920, 489.6258
575.5205, 492.1967
577.4490, 495.4813
579.3774, 499.4747
581.3059, 502.5659
583.2344, 503.4715
585.1628, 503.6284
587.0913, 504.6009
589.0198, 505.6338
590.9482, 505.3551
592.8767, 503.8993
594.8052, 501.1245
596.7336, 497.3291
598.6621, 498.1170
600.5906, 504.9498
602.5190, 506.9561
604.4475, 500.7087
606.3760, 493.6590
608.3044, 485.2695
610.2329, 480.0079
612.1614, 481.7215
614.0898, 484.1408
616.0183, 483.2295
617.9468, 480.9014
619.8752, 477.6451
621.8037, 475.2980
623.7322, 479.3638
625.6606, 487.4072
627.5891, 488.8777
629.5176, 484.5790
631.4460, 492.9299
633.3745, 518.2982
635.3030, 536.8281
637.2314, 541.4802
639.1599, 547.3730
641.0884, 557.1600
643.0168, 568.6951
644.9453, 580.3508
646.8738, 594.9567
648.8022, 617.5533
650.7307, 640.1106
652.6592, 651.2994
654.5876, 661.1329
656.5161, 687.4337
658.4446, 721.4862
660.3730, 745.1781
662.3015, 760.1995
664.2300, 775.5593
666.1584, 791.6149
668.0869, 811.2864
670.0154, 840.9699
671.9438, 851.4170
673.8723, 834.4291
675.8008, 806.9951
677.7292, 765.9722
679.6577, 722.0330
681.5862, 673.4650
683.5146, 628.7488
685.4431, 590.2693
687.3716, 558.8756
689.3000, 535.9631
691.2285, 519.7288
693.1570, 511.0830
695.0854, 505.9621
697.0139, 497.5287
698.9424, 488.0057
700.8708, 484.6048
702.7993, 486.8316
704.7278, 488.2325
706.6563, 488.9358
708.5847, 487.1743
710.5132, 480.7627
712.4417, 477.3774
714.3701, 478.3626
716.2986, 479.7093
718.2271, 482.2221
720.1555, 483.2037
722.0840, 482.5017
724.0125, 479.4327
725.9409, 471.4182
727.8694, 464.4138
729.7979, 461.4773
731.7263, 460.9985
733.6548, 465.2443
735.5833, 467.9511
737.5117, 459.4919
739.4402, 448.6633
741.3687, 449.4874
743.2971, 457.4568
745.2256, 462.0363
747.1541, 463.7449
749.0825, 464.2598
751.0110, 463.6863
752.9395, 468.8121
754.8679, 481.2412
756.7964, 487.1688
758.7249, 485.0402
760.6533, 484.3600
762.5818, 485.8770
764.5103, 487.8141
766.4387, 491.3809
768.3672, 489.7680
770.2957, 477.6259
772.2241, 471.0810
774.1526, 479.1683
776.0811, 485.2450
778.0095, 479.2961
779.9380, 474.5195
781.8665, 479.2557
783.7949, 485.5226
785.7234, 490.4345
787.6519, 493.0470
789.5803, 488.9599
791.5088, 485.6737
793.4373, 494.9958
795.3657, 507.7282
797.2942, 507.1797
799.2227, 501.2317
801.1511, 508.6509
803.0796, 524.0883
805.0081, 529.6346
806.9365, 527.7872
808.8650, 532.2596
810.7935, 542.3560
812.7219, 550.4479
814.6504, 556.5795
816.5789, 560.7606
818.5073, 563.0268
820.4358, 572.1656
822.3643, 589.2291
824.2927, 606.1771
826.2212, 621.9387
828.1497, 638.7279
830.0781, 657.2003
832.0066, 675.3249
833.9351, 693.0679
835.8635, 709.2513
837.7920, 723.0255
839.7205, 736.7509
841.6489, 754.6526
843.5774, 766.0753
845.5059, 760.9651
847.4343, 760.0017
849.3628, 773.3428
851.2913, 786.8499
853.2197, 794.1551
855.1482, 800.7421
857.0767, 806.3638
859.0051, 816.3046
860.9336, 836.0217
862.8621, 858.8060
864.7905, 886.6071
866.7190, 907.0923
868.6475, 901.0829
870.5759, 890.8957
872.5044, 902.9880
874.4329, 920.3413
876.3613, 922.7142
878.2898, 918.2986
880.2183, 915.0627
882.1467, 914.5939
884.0752, 924.1665
886.0037, 934.9358
887.9321, 926.7775
889.8606, 911.6824
891.7891, 912.0656
893.7175, 923.4938
895.6460, 938.8856
897.5745, 955.7319
899.5029, 966.9455
901.4314, 974.3442
903.3599, 982.8680
905.2883, 993.3845
907.2168, 1011.167
909.1453, 1034.002
911.0737, 1048.559
913.0022, 1055.701
914.9307, 1062.170
916.8591, 1068.961
918.7876, 1091.817
920.7161, 1130.361
922.6445, 1149.022
924.5730, 1146.312
926.5015, 1159.916
928.4299, 1192.172
930.3584, 1214.786
932.2869, 1226.399
934.2153, 1237.146
936.1438, 1244.994
938.0723, 1268.329
940.0007, 1312.720
941.9292, 1338.392
943.8577, 1339.697
945.7861, 1351.765
947.7146, 1377.269
949.6431, 1400.432
951.5715, 1418.969
953.5000, 1446.470
955.4285, 1486.402
957.3569, 1519.759
959.2854, 1543.396
961.2139, 1574.454
963.1423, 1617.269
965.0708, 1647.780
966.9993, 1660.025
968.9277, 1687.764
970.8562, 1734.863
972.7847, 1780.661
974.7131, 1825.527
976.6416, 1863.376
978.5701, 1890.945
980.4985, 1931.828
982.4270, 1989.210
984.3555, 2043.407
986.2839, 2093.734
988.2124, 2139.602
990.1409, 2179.840
992.0693, 2226.537
993.9978, 2280.744
995.9263, 2334.223
997.8547, 2386.313
999.7832, 2444.029
1001.712, 2508.062
1003.640, 2566.850
1005.569, 2619.659
1007.497, 2683.078
1009.426, 2757.658
1011.354, 2826.500
1013.282, 2888.986
1015.211, 2936.697
1017.139, 2971.838
1019.068, 3045.604
1020.996, 3158.456
1022.925, 3306.595
1024.853, 3485.756
1026.782, 3661.856
1028.710, 3831.950
1030.639, 3965.187
1032.567, 4073.385
1034.496, 4228.304
1036.424, 4424.639
1038.353, 4632.527
1040.281, 4857.039
1042.209, 5088.175
1044.138, 5363.324
1046.066, 5861.379
1047.995, 6477.233
1049.923, 6995.296
1051.852, 7368.394
1053.780, 7445.922
1055.709, 7325.283
1057.637, 7188.431
1059.566, 6995.540
1061.494, 6615.542
1063.423, 6193.284
1065.351, 5894.312
1067.280, 5729.238
1069.208, 5755.137
1071.136, 5875.763
1073.065, 6003.781
1074.993, 6150.234
1076.922, 6328.827
1078.850, 6527.037
1080.779, 6741.400
1082.707, 6961.878
1084.636, 7194.350
1086.564, 7411.486
1088.493, 7580.515
1090.421, 7754.408
1092.350, 7963.829
1094.278, 8177.682
1096.207, 8397.964
1098.135, 8595.403
1100.063, 8769.383
1101.992, 8903.694
1103.920, 8961.407
1105.849, 9040.110
1107.777, 9190.239
1109.706, 9297.099
1111.634, 9332.650
1113.563, 9357.404
1115.491, 9373.021
1117.420, 9377.901
1119.348, 9368.430
1121.277, 9360.084
1123.205, 9350.343
1125.134, 9359.729
1127.062, 9389.208
1128.990, 9417.382
1130.919, 9446.059
1132.847, 9509.039
1134.776, 9600.537
1136.704, 9682.875
1138.633, 9768.148
1140.561, 9888.026
1142.490, 10043.84
1144.418, 10256.96
1146.347, 10491.13
1148.275, 10683.00
1150.204, 10875.64
1152.132, 11119.09
1154.061, 11381.79
1155.989, 11633.52
1157.917, 11903.71
1159.846, 12208.27
1161.774, 12540.97
1163.703, 12910.75
1165.631, 13281.45
1167.560, 13639.95
1169.488, 13994.61
1171.417, 14345.67
1173.345, 14700.88
1175.274, 15061.88
1177.202, 15426.37
1179.131, 15795.81
1181.059, 16161.67
1182.988, 16527.55
1184.916, 16817.90
1186.844, 17032.63
1188.773, 17286.61
1190.701, 17559.17
1192.630, 17700.59
1194.558, 17759.57
1196.487, 17888.74
1198.415, 18044.81
1200.344, 18144.87
1202.272, 18219.37
1204.201, 18313.77
1206.129, 18395.34
1208.058, 18448.73
1209.986, 18456.96
1211.915, 18360.32
1213.843, 18296.38
1215.771, 18341.68
1217.700, 18370.75
1219.628, 18332.95
1221.557, 18336.67
1223.485, 18401.53
1225.414, 18513.45
1227.342, 18670.81
1229.271, 18876.38
1231.199, 19128.20
1233.128, 19394.67
1235.056, 19678.56
1236.985, 20000.45
1238.913, 20358.70
1240.842, 20787.50
1242.770, 21213.11
1244.698, 21535.38
1246.627, 21754.97
1248.555, 21914.07
1250.484, 21911.30
1252.412, 21644.21
1254.341, 21232.28
1256.269, 20710.56
1258.198, 20094.50
1260.126, 19327.20
1262.055, 18585.88
1263.983, 17880.73
1265.912, 17230.52
1267.840, 16634.94
1269.769, 16138.43
1271.697, 15743.14
1273.625, 15446.54
1275.554, 15249.35
1277.482, 15152.28
1279.411, 15158.58
1281.339, 15275.16
1283.268, 15490.26
1285.196, 15787.57
1287.125, 16185.57
1289.053, 16672.10
1290.982, 17307.06
1292.910, 18144.90
1294.839, 19086.22
1296.767, 20068.85
1298.696, 21235.78
1300.624, 22610.59
1302.552, 24110.64
1304.481, 25734.26
1306.409, 27577.54
1308.338, 29606.25
1310.266, 31610.87
1312.195, 33653.48
1314.123, 35944.10
1316.052, 38254.50
1317.980, 40384.86
1319.909, 42375.48
1321.837, 44366.09
1323.766, 45972.73
1325.694, 47070.07
1327.623, 47658.67
1329.551, 47712.01
1331.479, 47344.25
1333.408, 46532.29
1335.336, 45436.27
1337.265, 44079.49
1339.193, 42684.43
1341.122, 41257.37
1343.050, 39781.02
1344.979, 38323.99
1346.907, 36991.90
1348.836, 35697.55
1350.764, 34407.86
1352.693, 33089.14
1354.621, 31739.96
1356.550, 30312.07
1358.478, 28783.05
1360.406, 27242.70
1362.335, 25701.02
1364.263, 24185.84
1366.192, 22706.97
1368.120, 21303.74
1370.049, 19987.14
1371.977, 18786.38
1373.906, 17677.39
1375.834, 16630.41
1377.763, 15676.40
1379.691, 14831.82
1381.620, 14086.00
1383.548, 13450.01
1385.477, 12846.42
1387.405, 12263.39
1389.333, 11750.63
1391.262, 11308.07
1393.190, 10922.83
1395.119, 10579.41
1397.047, 10242.49
1398.976, 9934.270
1400.904, 9690.222
1402.833, 9471.383
1404.761, 9250.884
1406.690, 9059.010
1408.618, 8912.505
1410.547, 8751.471
1412.475, 8568.452
1414.404, 8430.404
1416.332, 8329.941
1418.260, 8212.102
1420.189, 8088.262
1422.117, 7976.635
1424.046, 7878.212
1425.974, 7797.803
1427.903, 7724.528
1429.831, 7649.522
1431.760, 7587.950
1433.688, 7542.645
1435.617, 7511.385
1437.545, 7492.948
1439.474, 7443.142
1441.402, 7383.950
1443.331, 7397.850
1445.259, 7430.274
1447.188, 7416.250
1449.116, 7393.465
1451.044, 7371.473
1452.973, 7373.783
1454.901, 7411.600
1456.830, 7467.972
1458.758, 7545.419
1460.687, 7612.483
1462.615, 7670.114
1464.544, 7708.564
1466.472, 7755.999
1468.401, 7859.950
1470.329, 7973.326
1472.258, 8060.124
1474.186, 8166.127
1476.115, 8315.947
1478.043, 8450.048
1479.971, 8560.829
1481.900, 8684.497
1483.828, 8825.492
1485.757, 9016.860
1487.685, 9220.045
1489.614, 9387.571
1491.542, 9537.825
1493.471, 9666.120
1495.399, 9827.207
1497.328, 10052.91
1499.256, 10197.60
1501.185, 10252.13
1503.113, 10333.29
1505.042, 10413.83
1506.970, 10418.47
1508.898, 10388.70
1510.827, 10371.84
1512.755, 10320.71
1514.684, 10215.57
1516.612, 10094.67
1518.541, 9966.679
1520.469, 9730.936
1522.398, 9414.820
1524.326, 9167.751
1526.255, 8934.535
1528.183, 8615.219
1530.112, 8302.256
1532.040, 8055.890
1533.969, 7809.213
1535.897, 7547.539
1537.825, 7295.194
1539.754, 7055.446
1541.682, 6833.949
1543.611, 6627.108
1545.539, 6427.125
1547.468, 6240.344
1549.396, 6077.949
1551.325, 5916.261
1553.253, 5744.419
1555.182, 5609.013
1557.110, 5507.750
1559.039, 5367.106
1560.967, 5216.412
1562.896, 5121.615
1564.824, 5049.817
1566.752, 4979.798
1568.681, 4910.630
1570.609, 4840.333
1572.538, 4772.965
1574.466, 4711.692
1576.395, 4708.527
1578.323, 4727.149
1580.252, 4685.141
1582.180, 4636.047
1584.109, 4631.792
1586.037, 4616.021
1587.966, 4555.146
1589.894, 4535.463
1591.823, 4556.858
1593.751, 4586.759
1595.679, 4615.470
1597.608, 4623.659
1599.536, 4629.767
1601.465, 4630.717
1603.393, 4666.112
1605.322, 4766.035
1607.250, 4833.704
1609.179, 4874.788
1611.107, 4924.654
1613.036, 4988.831
1614.964, 5075.436
1616.893, 5175.214
1618.821, 5289.916
1620.750, 5393.697
1622.678, 5474.372
1624.606, 5628.390
1626.535, 5831.988
1628.463, 6000.823
1630.392, 6187.979
1632.320, 6447.830
1634.249, 6704.029
1636.177, 6926.822
1638.106, 7173.800
1640.034, 7446.625
1641.963, 7725.136
1643.891, 7998.065
1645.820, 8248.005
1647.748, 8484.094
1649.677, 8723.514
1651.605, 8894.044
1653.533, 8980.917
1655.462, 9028.336
1657.390, 9039.930
1659.319, 9031.322
1661.247, 8967.916
1663.176, 8809.194
1665.104, 8620.688
1667.033, 8415.197
1668.961, 8199.184
1670.890, 7978.808
1672.818, 7772.073
1674.747, 7580.587
1676.675, 7415.112
1678.604, 7244.723
1680.532, 7051.645
1682.460, 6914.262
1684.389, 6831.462
1686.317, 6728.301
1688.246, 6638.399
1690.174, 6618.469
1692.103, 6624.887
1694.031, 6644.042
1695.960, 6661.074
1697.888, 6675.791
1699.817, 6702.756
1701.745, 6738.044
1703.674, 6783.880
1705.602, 6818.718
1707.531, 6812.797
1709.459, 6843.369
1711.387, 6912.821
1713.316, 6929.039
1715.244, 6889.799
1717.173, 6770.073
1719.101, 6657.458
1721.030, 6646.873
1722.958, 6548.353
1724.887, 6344.235
1726.815, 6177.169
1728.744, 6025.390
1730.672, 5847.218
1732.601, 5654.936
1734.529, 5443.772
1736.458, 5249.110
1738.386, 5074.564
1740.314, 4898.018
1742.243, 4722.539
1744.171, 4547.735
1746.100, 4385.610
1748.028, 4239.965
1749.957, 4118.687
1751.885, 4020.800
1753.814, 3921.840
1755.742, 3834.776
1757.671, 3786.310
1759.599, 3738.849
1761.528, 3675.829
1763.456, 3616.051
1765.385, 3560.751
1767.313, 3502.118
1769.241, 3453.209
1771.170, 3431.680
1773.098, 3415.406
1775.027, 3397.238
1776.955, 3390.536
1778.884, 3390.554
1780.812, 3365.049
1782.741, 3354.984
1784.669, 3403.130
1786.598, 3432.827
1788.526, 3427.239
1790.455, 3437.480
1792.383, 3464.002
1794.312, 3511.380
1796.240, 3559.982
1798.168, 3597.715
1800.097, 3649.455
1802.025, 3716.186
1803.954, 3773.740
1805.882, 3831.201
1807.811, 3898.161
1809.739, 3975.068
1811.668, 4060.877
1813.596, 4169.677
1815.525, 4294.603
1817.453, 4402.337
1819.382, 4523.710
1821.310, 4686.497
1823.239, 4854.922
1825.167, 5030.185
1827.095, 5290.639
1829.024, 5594.010
1830.952, 5873.104
1832.881, 6171.256
1834.809, 6490.335
1836.738, 6924.953
1838.666, 7443.631
1840.595, 7901.498
1842.523, 8390.287
1844.452, 9011.382
1846.380, 9614.755
1848.309, 10185.62
1850.237, 10805.80
1852.166, 11397.24
1854.094, 11876.18
1856.022, 12258.16
1857.951, 12556.11
1859.879, 12714.53
1861.808, 12726.85
1863.736, 12574.74
1865.665, 12278.96
1867.593, 11819.06
1869.522, 11291.48
1871.450, 10710.85
1873.379, 10039.87
1875.307, 9368.701
1877.236, 8789.284
1879.164, 8230.669
1881.093, 7671.928
1883.021, 7126.529
1884.949, 6616.798
1886.878, 6163.292
1888.806, 5780.266
1890.735, 5488.749
1892.663, 5193.245
1894.592, 4905.465
1896.520, 4680.818
1898.449, 4483.572
1900.377, 4299.717
1902.306, 4140.572
1904.234, 4001.416
1906.163, 3850.710
1908.091, 3706.031
1910.020, 3580.821
1911.948, 3456.563
1913.876, 3332.963
1915.805, 3209.580
1917.733, 3098.357
1919.662, 3024.182
1921.590, 2940.294
1923.519, 2839.077
1925.447, 2740.580
1927.376, 2644.380
1929.304, 2533.280
1931.233, 2452.367
1933.161, 2414.580
1935.090, 2346.790
1937.018, 2260.621
1938.947, 2192.207
1940.875, 2128.357
1942.803, 2058.508
1944.732, 1994.080
1946.660, 1937.515
1948.589, 1904.118
1950.517, 1869.475
1952.446, 1809.889
1954.374, 1757.504
1956.303, 1714.800
1958.231, 1674.285
1960.160, 1631.836
1962.088, 1579.282
1964.017, 1541.735
1965.945, 1515.352
1967.874, 1480.353
1969.802, 1442.021
1971.730, 1405.131
1973.659, 1369.715
1975.587, 1336.067
1977.516, 1307.401
1979.444, 1279.563
1981.373, 1255.308
1983.301, 1229.839
1985.230, 1203.032
1987.158, 1189.724
1989.087, 1176.706
1991.015, 1153.920
1992.944, 1134.392
1994.872, 1117.228
1996.801, 1092.109
1998.729, 1072.506
2000.657, 1071.093
2002.586, 1057.311
2004.514, 1033.764
2006.443, 1024.094
2008.371, 1018.078
2010.300, 1013.673
2012.228, 1008.651
2014.157, 999.5236
2016.085, 987.8775
2018.014, 976.6783
2019.942, 964.8248
2021.871, 956.5346
2023.799, 949.7526
2025.728, 938.8854
2027.656, 932.9800
2029.584, 935.6442
2031.513, 922.3339
2033.441, 900.7543
2035.370, 888.7989
2037.298, 881.6129
2039.227, 875.7975
2041.155, 873.0904
2043.084, 866.8946
2045.012, 842.5140
2046.941, 824.1362
2048.869, 815.2776
2050.798, 814.0023
2052.726, 811.7207
2054.655, 796.9611
2056.583, 784.7247
2058.511, 775.2555
2060.440, 758.4279
2062.368, 739.8923
2064.297, 722.4078
2066.225, 707.6189
2068.154, 695.6901
2070.082, 686.8984
2072.011, 678.2855
2073.939, 667.3586
2075.868, 663.1478
2077.796, 657.8940
2079.725, 632.8900
2081.653, 615.3832
2083.582, 615.6033
2085.510, 605.7156
2087.438, 595.7228
2089.367, 601.5118
2091.295, 599.1305
2093.224, 585.9950
2095.152, 574.3635
2097.081, 567.3466
2099.009, 573.0949
2100.938, 564.0385
2102.866, 543.8410
2104.795, 534.0306
2106.723, 526.3253
2108.652, 518.4955
2110.580, 506.9676
2112.509, 496.8593
2114.437, 502.3514
2116.365, 496.3656
2118.294, 471.5736
2120.222, 465.0424
2122.151, 464.0180
2124.079, 457.8152
2126.008, 451.5012
2127.936, 444.5132
2129.865, 428.0634
2131.793, 415.8268
2133.722, 414.0927
2135.650, 407.9038
2137.579, 399.4576
2139.507, 393.9010
2141.436, 386.3950
2143.364, 377.1457
2145.292, 380.0597
2147.221, 381.3338
2149.149, 368.8054
2151.078, 359.9516
2153.006, 356.6461
2154.935, 359.9473
2156.863, 355.6369
2158.792, 340.7518
2160.720, 326.7316
2162.649, 316.3961
2164.577, 316.6030
2166.506, 313.9289
2168.434, 307.1176
2170.363, 302.3379
2172.291, 296.0842
2174.219, 284.8575
2176.148, 281.6043
2178.076, 280.9301
2180.005, 275.8646
2181.933, 270.9462
2183.862, 266.8112
2185.790, 262.2755
2187.719, 257.0309
2189.647, 249.7350
2191.576, 251.4221
2193.504, 257.2022
2195.433, 258.1895
2197.361, 255.0947
2199.290, 250.1065
2201.218, 239.7635
2203.146, 230.3211
2205.075, 226.1716
2207.003, 224.6473
2208.932, 225.1456
2210.860, 220.0085
2212.789, 219.1415
2214.717, 223.5661
2216.646, 227.1422
2218.574, 227.4084
2220.503, 220.9592
2222.431, 219.5428
2224.360, 219.4134
2226.288, 212.5478
2228.217, 213.0254
2230.145, 220.8724
2232.073, 224.5619
2234.002, 224.9284
2235.930, 218.8151
2237.859, 221.5236
2239.787, 226.5437
2241.716, 218.2607
2243.644, 211.9955
2245.573, 211.4583
2247.501, 207.8290
2249.430, 205.3915
2251.358, 202.6655
2253.287, 197.8369
2255.215, 196.8467
2257.144, 191.4489
2259.072, 185.9571
2261.000, 184.1378
2262.929, 182.0216
2264.857, 179.6366
2266.786, 177.0736
2268.714, 174.3120
2270.643, 168.6182
2272.571, 161.5307
2274.500, 163.1573
2276.428, 165.9696
2278.357, 160.3958
2280.285, 156.8349
2282.214, 156.0443
2284.142, 158.0349
2286.071, 161.6192
2287.999, 165.2868
2289.927, 168.0813
2291.856, 169.7672
2293.784, 167.9920
2295.713, 168.6252
2297.641, 165.9234
2299.570, 163.1475
2301.498, 164.4426
2303.427, 165.5342
2305.355, 160.8918
2307.284, 156.2295
2309.212, 157.1550
2311.141, 158.1836
2313.069, 159.5263
2314.998, 156.5884
2316.926, 150.2295
2318.854, 148.7280
2320.783, 147.8560
2322.711, 145.8521
2324.640, 146.0752
2326.568, 144.9069
2328.497, 146.0594
2330.425, 150.5530
2332.354, 144.2445
2334.282, 142.0795
2336.211, 151.6933
2338.139, 145.5436
2340.068, 137.9679
2341.996, 138.5627
2343.925, 142.6204
2345.853, 144.7394
2347.781, 140.1895
2349.710, 133.8903
2351.638, 133.0060
2353.567, 140.4569
2355.495, 141.1024
2357.424, 135.8152
2359.352, 135.6547
2361.281, 137.9639
2363.209, 138.4624
2365.138, 134.8413
2367.066, 128.8521
2368.995, 126.7626
2370.923, 124.8112
2372.852, 124.9685
2374.780, 129.7783
2376.708, 126.2009
2378.637, 120.7862
2380.565, 122.0507
2382.494, 126.6528
2384.422, 129.1876
2386.351, 126.8733
2388.279, 124.1223
2390.208, 121.9394
2392.136, 121.7379
2394.065, 121.9831
2395.993, 122.2923
2397.922, 124.5347
2399.850, 125.9243
2401.779, 129.4246
2403.707, 122.3481
2405.635, 118.7488
2407.564, 123.4151
2409.492, 124.4496
2411.421, 124.7690
2413.349, 124.0270
2415.278, 120.2342
2417.206, 119.3137
2419.135, 118.8471
2421.063, 114.2785
2422.992, 112.3604
2424.920, 114.0647
2426.849, 115.4197
2428.777, 115.2855
2430.706, 112.9923
2432.634, 109.5580
2434.563, 109.1910
2436.491, 110.3608
2438.419, 109.5768
2440.348, 108.3422
2442.276, 110.2113
2444.205, 109.1539
2446.133, 103.0967
2448.062, 99.59511
2449.990, 99.87350
2451.919, 101.4532
2453.847, 106.6336
2455.776, 106.9767
2457.704, 104.3779
2459.633, 103.9017
2461.561, 103.8681
2463.490, 104.5484
2465.418, 104.2055
2467.346, 103.2420
2469.275, 103.2185
2471.203, 100.6895
2473.132, 99.73940
2475.060, 103.1896
2476.989, 103.1077
2478.917, 101.9267
2480.846, 98.51190
2482.774, 100.1233
2484.703, 103.0464
2486.631, 101.1357
2488.560, 98.52718
2490.488, 98.35846
2492.417, 95.46552
2494.345, 91.55867
2496.273, 91.40224
2498.202, 95.26202
2500.130, 95.65101
2502.059, 95.04607
2503.987, 96.32500
2505.916, 95.91158
2507.844, 95.40305
2509.773, 98.61955
2511.701, 98.68235
2513.630, 95.47063
2515.558, 93.81050
2517.487, 94.73690
2519.415, 96.54018
2521.344, 97.57483
2523.272, 93.99506
2525.200, 90.35539
2527.129, 97.11664
2529.057, 98.33652
2530.986, 94.47277
2532.914, 94.31966
2534.843, 96.16626
2536.771, 96.65760
2538.700, 92.15116
2540.628, 93.57494
2542.557, 98.35104
2544.485, 98.54708
2546.414, 96.89683
2548.342, 94.58113
2550.271, 91.28951
2552.199, 89.97770
2554.127, 89.11715
2556.056, 90.12685
2557.984, 90.43472
2559.913, 89.48099
2561.841, 89.33379
2563.770, 91.62178
2565.698, 93.32169
2567.627, 90.20815
2569.555, 88.21342
2571.484, 87.09357
2573.412, 83.22398
2575.341, 82.59621
2577.269, 84.45208
2579.198, 87.24271
2581.126, 84.56421
2583.054, 82.07159
2584.983, 86.66466
2586.911, 87.64862
2588.840, 86.71127
2590.768, 85.19806
2592.697, 85.90278
2594.625, 86.56410
2596.554, 85.28310
2598.482, 82.11614
2600.411, 81.69918
2602.339, 86.40729
2604.268, 84.74791
2606.196, 84.71500
2608.125, 89.78071
2610.053, 87.22583
2611.981, 85.93938
2613.910, 89.46143
2615.838, 88.13595
2617.767, 85.54263
2619.695, 83.19110
2621.624, 78.19498
2623.552, 76.02255
2625.481, 77.29276
2627.409, 79.35136
2629.338, 80.02811
2631.266, 76.98123
2633.195, 70.12582
2635.123, 67.55077
2637.052, 68.33545
2638.980, 69.85902
2640.908, 68.32051
2642.837, 67.05229
2644.765, 68.20364
2646.694, 69.34783
2648.622, 69.93926
2650.551, 64.91911
2652.479, 62.70320
2654.408, 64.33618
2656.336, 68.33962
2658.265, 68.61550
2660.193, 67.06438
2662.122, 65.30769
2664.050, 67.30379
2665.979, 68.85223
2667.907, 68.02073
2669.835, 67.38406
2671.764, 66.44507
2673.692, 63.20671
2675.621, 63.74080
2677.549, 61.97668
2679.478, 61.02781
2681.406, 64.81728
2683.335, 67.43406
2685.263, 68.54175
2687.192, 67.65185
2689.120, 68.22654
2691.049, 68.67250
2692.977, 65.61723
2694.906, 64.53457
2696.834, 62.61997
2698.762, 62.19043
2700.691, 67.22044
2702.619, 70.07792
2704.548, 63.44691
2706.476, 66.11583
2708.405, 67.06274
2710.333, 66.43950
2712.262, 64.45062
2714.190, 62.32707
2716.119, 62.67753
2718.047, 65.60294
2719.976, 68.19746
2721.904, 67.77515
2723.833, 64.30120
2725.761, 63.61187
2727.689, 64.20589
2729.618, 62.61506
2731.546, 60.43281
2733.475, 58.90683
2735.403, 56.07756
2737.332, 55.97147
2739.260, 59.22309
2741.189, 59.92195
2743.117, 60.15566
2745.046, 60.53621
2746.974, 58.23737
2748.903, 57.08171
2750.831, 55.05323
2752.760, 52.06893
2754.688, 53.75901
2756.616, 52.93312
2758.545, 52.87665
2760.473, 54.70594
2762.402, 51.15390
2764.330, 50.37259
2766.259, 53.88584
2768.187, 53.40356
2770.116, 53.47524
2772.044, 53.52064
2773.973, 52.93242
2775.901, 52.87534
2777.830, 52.53484
2779.758, 50.82111
2781.687, 49.02957
2783.615, 51.17175
2785.543, 52.67472
2787.472, 51.97252
2789.400, 52.00336
2791.329, 50.72064
2793.257, 51.30795
2795.186, 53.26950
2797.114, 54.04206
2799.043, 54.88818
2800.971, 54.35617
2802.900, 53.05863
2804.828, 52.43652
2806.757, 52.44246
2808.685, 50.02569
2810.614, 51.86221
2812.542, 56.18141
2814.470, 54.69479
2816.399, 51.14751
2818.327, 56.19792
2820.256, 55.55910
2822.184, 51.91349
2824.113, 54.32836
2826.041, 56.05326
2827.970, 58.95051
2829.898, 58.62010
2831.827, 51.62392
2833.755, 52.29298
2835.684, 58.11986
2837.612, 59.84010
2839.541, 57.16296
2841.469, 57.38650
2843.397, 61.01619
2845.326, 58.21422
2847.254, 59.52530
2849.183, 58.01775
2851.111, 59.27164
2853.040, 61.29097
2854.968, 62.98215
2856.897, 65.06556
2858.825, 66.06140
2860.754, 66.15546
2862.682, 65.96397
2864.611, 68.32697
2866.539, 70.34991
2868.468, 69.26122
2870.396, 68.67754
2872.324, 67.39740
2874.253, 66.99809
2876.181, 69.38657
2878.110, 69.84221
2880.038, 70.07483
2881.967, 74.88125
2883.895, 75.72171
2885.824, 76.88259
2887.752, 75.11768
2889.681, 75.95792
2891.609, 80.88786
2893.538, 76.96584
2895.466, 73.61306
2897.395, 81.86687
2899.323, 81.88498
2901.251, 80.36623
2903.180, 80.61072
2905.108, 80.06557
2907.037, 82.38766
2908.965, 83.88916
2910.894, 84.01423
2912.822, 88.06364
2914.751, 93.78272
2916.679, 93.79234
2918.608, 90.71885
2920.536, 89.89058
2922.465, 88.40981
2924.393, 87.27483
2926.322, 93.85952
2928.250, 100.4833
2930.178, 100.8098
2932.107, 100.6051
2934.035, 101.1144
2935.964, 98.11977
2937.892, 96.47275
2939.821, 102.3225
2941.749, 105.5822
2943.678, 106.1462
2945.606, 105.9356
2947.535, 103.1798
2949.463, 105.8819
2951.392, 115.2701
2953.320, 114.7104
2955.249, 116.8611
2957.177, 117.4544
2959.105, 119.9219
2961.034, 123.7892
2962.962, 121.2652
2964.891, 119.2846
2966.819, 132.6927
2968.748, 137.9523
2970.676, 135.2480
2972.605, 135.3453
2974.533, 135.9683
2976.462, 141.0665
2978.390, 144.2530
2980.319, 137.9771
2982.247, 142.5138
2984.176, 151.4942
2986.104, 159.8449
2988.032, 159.1225
2989.961, 157.0358
2991.889, 161.4403
2993.818, 168.4369
2995.746, 171.0768
2997.675, 176.3424
2999.603, 178.2734
3001.532, 174.0877
3003.460, 182.4226
3005.389, 183.4082
3007.317, 180.3756
3009.246, 191.0049
3011.174, 198.9553
3013.103, 204.3866
3015.031, 208.9555
3016.959, 209.6739
3018.888, 214.4778
3020.816, 218.4742
3022.745, 219.0195
3024.673, 230.1805
3026.602, 237.5102
3028.530, 240.8751
3030.459, 243.6627
3032.387, 249.1096
3034.316, 256.1319
3036.244, 263.1129
3038.173, 274.1667
3040.101, 278.7420
3042.030, 280.1552
3043.958, 283.3586
3045.886, 290.4770
3047.815, 298.9615
3049.743, 304.6992
3051.672, 307.8676
3053.600, 318.2129
3055.529, 328.2196
3057.457, 336.7049
3059.386, 344.0404
3061.314, 352.6758
3063.243, 360.7498
3065.171, 369.5412
3067.100, 380.1987
3069.028, 392.0578
3070.957, 407.9788
3072.885, 420.3535
3074.813, 414.6463
3076.742, 427.0651
3078.670, 437.2455
3080.599, 443.0548
3082.527, 452.7431
3084.456, 458.6031
3086.384, 470.2174
3088.313, 482.8602
3090.241, 476.6987
3092.170, 473.8510
3094.098, 473.9382
3096.027, 473.9670
3097.955, 468.2627
3099.884, 469.5257
3101.812, 462.6903
3103.740, 445.5435
3105.669, 438.9021
3107.597, 436.4312
3109.526, 427.8477
3111.454, 410.4519
3113.383, 392.1144
3115.311, 390.3641
3117.240, 395.7407
3119.168, 395.2296
3121.097, 376.4886
3123.025, 361.1689
3124.954, 359.5551
3126.882, 370.4513
3128.811, 369.3822
3130.739, 367.4423
3132.667, 369.6031
3134.596, 373.4562
3136.524, 365.7810
3138.453, 372.7296
3140.381, 378.6084
3142.310, 373.5225
3144.238, 373.5857
3146.167, 379.4641
3148.095, 383.1382
3150.024, 384.2224
3151.952, 389.2448
3153.881, 384.3732
3155.809, 387.9821
3157.738, 396.6409
3159.666, 382.3074
3161.594, 389.5811
3163.523, 393.3698
3165.451, 391.3361
3167.380, 406.4746
3169.308, 400.3984
3171.237, 400.0952
3173.165, 409.0220
3175.094, 402.3501
3177.022, 407.5852
3178.951, 419.0928
3180.879, 427.6673
3182.808, 448.2001
3184.736, 444.0175
3186.665, 453.6115
3188.593, 472.7794
3190.521, 474.9310
3192.450, 475.9091
3194.378, 495.6912
3196.307, 516.9572
3198.235, 525.3167
3200.164, 550.5659
3202.092, 566.0122
3204.021, 584.6407
3205.949, 616.6320
3207.878, 639.8218
3209.806, 681.1097
3211.735, 723.8369
3213.663, 755.9182
3215.592, 781.4645
3217.520, 852.2529
3219.448, 919.9374
3221.377, 969.3801
3223.305, 1014.986
3225.234, 1079.405
3227.162, 1156.566
3229.091, 1234.570
3231.019, 1286.190
3232.948, 1311.471
3234.876, 1308.070
3236.805, 1288.381
3238.733, 1268.907
3240.662, 1232.226
3242.590, 1162.611
3244.519, 1081.686
3246.447, 1006.335
3248.375, 932.4304
3250.304, 854.5639
3252.232, 780.1164
3254.161, 718.5412
3256.089, 665.0761
3258.018, 602.8324
3259.946, 557.3994
3261.875, 514.9858
3263.803, 476.1102
3265.732, 460.7632
3267.660, 438.4017
3269.589, 422.4402
3271.517, 405.3686
3273.446, 375.2499
3275.374, 367.0566
3277.302, 360.6193
3279.231, 354.8389
3281.159, 350.6643
3283.088, 343.0122
3285.016, 335.5103
3286.945, 325.4352
3288.873, 321.2395
3290.802, 330.9343
3292.730, 330.4792
3294.659, 319.6184
3296.587, 308.3778
3298.516, 309.8698
3300.444, 294.6577
3302.373, 281.0051
3304.301, 270.1100
3306.229, 262.9150
3308.158, 257.1796
3310.086, 249.5136
3312.015, 234.3450
3313.943, 223.6076
3315.872, 224.6408
3317.800, 210.3587
3319.729, 212.4068
3321.657, 206.7317
3323.586, 193.5154
3325.514, 201.8106
3327.443, 194.8240
3329.371, 182.1991
3331.300, 177.2103
3333.228, 182.4235
3335.156, 167.8220
3337.085, 159.1399
3339.013, 173.4630
3340.942, 185.6908
3342.870, 158.0322
3344.799, 158.8090
3346.727, 152.2947
3348.656, 152.4555
3350.584, 159.8360
3352.513, 153.6085
3354.441, 143.4164
3356.370, 144.8481
3358.298, 145.3898
3360.227, 135.8584
3362.155, 138.4622
3364.083, 140.0506
3366.012, 142.0661
3367.940, 138.4504
3369.869, 126.2724
3371.797, 127.4936
3373.726, 130.3519
3375.654, 132.7935
3377.583, 135.3193
3379.511, 138.4608
3381.440, 132.6546
3383.368, 134.0910
3385.297, 135.4677
3387.225, 132.5553
3389.154, 127.9454
3391.082, 134.3840
3393.010, 133.6223
3394.939, 130.5637
3396.867, 131.6775
3398.796, 134.8739
3400.724, 137.6088
3402.653, 137.0885
3404.581, 142.0686
3406.510, 153.3157
3408.438, 142.7468
3410.367, 147.4896
3412.295, 148.0499
3414.224, 144.6833
3416.152, 144.8249
3418.081, 156.3205
3420.009, 142.3318
3421.938, 142.8393
3423.866, 152.4217
3425.794, 154.4895
3427.723, 149.1933
3429.651, 160.7247
3431.580, 154.1147
3433.508, 148.1056
3435.437, 161.5248
3437.365, 147.8575
3439.294, 156.7893
3441.222, 156.9342
3443.151, 156.3201
3445.079, 165.9831
3447.008, 161.7218
3448.936, 160.1425
3450.865, 157.1900
3452.793, 155.9990
3454.721, 159.1660
3456.650, 163.0906
3458.578, 171.8049
3460.507, 165.7175
3462.435, 153.6988
3464.364, 146.0375
3466.292, 143.4716
3468.221, 144.6208
3470.149, 142.5024
3472.078, 142.2144
3474.006, 141.4614
3475.935, 130.5288
3477.863, 118.5934
3479.792, 123.0480
3481.720, 121.9130
3483.648, 114.7201
3485.577, 114.6165
3487.505, 109.2832
3489.434, 109.1670
3491.362, 103.9210
3493.291, 98.46759
3495.219, 98.17842
3497.148, 88.47541
3499.076, 83.81906
3501.005, 87.86373
3502.933, 87.00304
3504.862, 80.23428
3506.790, 88.33702
3508.719, 85.35180
3510.647, 76.75895
3512.575, 77.30493
3514.504, 80.38428
3516.432, 70.75283
3518.361, 68.67310
3520.289, 68.74095
3522.218, 72.66277
3524.146, 74.20903
3526.075, 70.13917
3528.003, 67.95446
3529.932, 66.00964
3531.860, 62.63530
3533.789, 61.83428
3535.717, 61.81117
3537.646, 57.50402
3539.574, 59.47622
3541.502, 58.75499
3543.431, 54.88802
3545.359, 52.26293
3547.288, 51.70586
3549.216, 48.06633
3551.145, 54.55128
3553.073, 53.70588
3555.002, 48.49462
3556.930, 47.11325
3558.859, 50.79140
3560.787, 38.90038
3562.716, 36.38174
3564.644, 43.43450
3566.573, 43.95113
3568.501, 40.44511
3570.429, 48.84433
3572.358, 50.53692
3574.286, 44.91614
3576.215, 40.90236
3578.143, 41.66159
3580.072, 44.38153
3582.000, 43.32962
3583.929, 44.42981
3585.857, 44.14444
3587.786, 41.46180
3589.714, 42.50140
3591.643, 48.53104
3593.571, 46.62863
3595.500, 42.10859
3597.428, 48.41663
3599.356, 47.33203
3601.285, 45.02860
3603.213, 52.40484
3605.142, 52.81909
3607.070, 51.91759
3608.999, 50.84162
3610.927, 49.89788
3612.856, 48.28341
3614.784, 46.40934
3616.713, 48.75851
3618.641, 47.55252
3620.570, 42.31902
3622.498, 45.47077
3624.427, 46.45333
3626.355, 36.46520
3628.283, 38.18768
3630.212, 38.16843
3632.140, 33.49997
3634.069, 29.26151
3635.997, 27.74574
3637.926, 29.77831
3639.854, 35.86156
3641.783, 27.64294
3643.711, 24.00731
3645.640, 30.53350
3647.568, 35.07538
3649.497, 31.90121
3651.425, 29.63989
3653.354, 27.54375
3655.282, 23.52096
3657.210, 24.84620
3659.139, 27.14970
3661.067, 23.59813
3662.996, 14.90180
3664.924, 21.26069
3666.853, 24.77996
3668.781, 25.60455
3670.710, 20.25040
3672.638, 17.51447
3674.567, 22.69988
3676.495, 21.14225
3678.424, 26.93217
3680.352, 26.40240
3682.281, 26.63618
3684.209, 21.63411
3686.137, 15.57279
3688.066, 22.37375
3689.994, 20.78067
3691.923, 18.05490
3693.851, 18.08696
3695.780, 19.09356
3697.708, 20.68021
3699.637, 22.94972
3701.565, 24.25715
3703.494, 22.45585
3705.422, 18.48012
3707.351, 19.09821
3709.279, 19.62808
3711.208, 19.24787
3713.136, 20.14456
3715.064, 18.03266
3716.993, 15.45135
3718.921, 15.49599
3720.850, 11.05186
3722.778, 13.30134
3724.707, 17.07821
3726.635, 9.840556
3728.564, 14.02691
3730.492, 17.43941
3732.421, 13.76479
3734.349, 19.86676
3736.278, 21.30869
3738.206, 15.47568
3740.135, 16.38289
3742.063, 10.96005
3743.991, 17.28208
3745.920, 18.64877
3747.848, 15.37573
3749.777, 14.13694
3751.705, 17.11237
3753.634, 20.36965
3755.562, 15.59330
3757.491, 14.85492
3759.419, 15.90860
3761.348, 16.98446
3763.276, 13.06105
3765.205, 13.70014
3767.133, 24.00996
3769.062, 19.73409
3770.990, 18.78226
3772.918, 10.99356
3774.847, 14.87662
3776.775, 15.62115
3778.704, 11.70256
3780.632, 11.21063
3782.561, 14.81829
3784.489, 20.22950
3786.418, 15.95084
3788.346, 17.70340
3790.275, 19.87016
3792.203, 17.84524
3794.132, 12.22643
3796.060, 8.904604
3797.989, 17.12693
3799.917, 16.88409
3801.845, 15.53808
3803.774, 15.48112
3805.702, 14.36167
3807.631, 10.06127
3809.559, 10.47151
3811.488, 21.87272
3813.416, 15.84527
3815.345, 16.71593
3817.273, 13.24551
3819.202, 15.10988
3821.130, 15.13659
3823.059, 15.07365
3824.987, 15.70761
3826.916, 9.990679
3828.844, 17.32716
3830.772, 14.43578
3832.701, 15.94298
3834.629, 15.37475
3836.558, 18.11457
3838.486, 16.63914
3840.415, 9.982694
3842.343, 10.91630
3844.272, 8.410924
3846.200, 10.46631
3848.129, 11.45741
3850.057, 16.47562
3851.986, 15.48045
3853.914, 12.76401
3855.843, 11.82269
3857.771, 10.14515
3859.699, 13.72832
3861.628, 12.77103
3863.556, 11.62106
3865.485, 18.78956
3867.413, 17.41394
3869.342, 13.02419
3871.270, 13.86211
3873.199, 16.45248
3875.127, 14.10372
3877.056, 12.83198
3878.984, 10.61208
3880.913, 17.70887
3882.841, 16.85657
3884.770, 17.19053
3886.698, 12.73700
3888.626, 7.721398
3890.555, 13.21644
3892.483, 20.69853
3894.412, 17.62861
3896.340, 13.88364
3898.269, 9.487712
3900.197, 9.297927
3902.126, 9.541354
3904.054, 11.01350
3905.983, 12.45622
3907.911, 11.01076
3909.840, 9.920135
3911.768, 13.32511
3913.697, 19.26046
3915.625, 15.09575
3917.553, 17.14469
3919.482, 17.38220
3921.410, 13.84482
3923.339, 11.21187
3925.267, 11.33438
3927.196, 13.05669
3929.124, 17.10631
3931.053, 9.034705
3932.981, 15.50865
3934.910, 15.06152
3936.838, 14.36477
3938.767, 13.35745
3940.695, 13.30131
3942.624, 14.30143
3944.552, 13.98575
3946.480, 12.79292
3948.409, 15.41576
3950.337, 15.78214
3952.266, 14.56387
3954.194, 14.91899
3956.123, 10.71405
3958.051, 8.776224
3959.980, 12.14694
3961.908, 12.67500
3963.837, 9.014881
3965.765, 11.12182
3967.694, 8.678214
3969.622, 10.74528
3971.551, 15.28518
3973.479, 11.77556
3975.407, 16.62890
3977.336, 15.71934
3979.264, 12.13231
3981.193, 12.03402
3983.121, 12.61292
3985.050, 11.29877
3986.978, 11.55172
3988.907, 16.98087
3990.835, 13.67857
3992.764, 11.03096
3994.692, 17.05917
3996.621, 16.70747
3998.549, 11.18517
4000.478, 8.665432
4002.406, 11.82971
4004.334, 16.30314
4006.263, 17.19363
4008.191, 14.49308
4010.120, 9.064905
4012.048, 8.119017
4013.977, 14.64231
4015.905, 14.67035
4017.834, 15.41647
4019.762, 16.41288
4021.691, 13.00263
4023.619, 15.23864
4025.548, 16.29278
4027.476, 10.24521
4029.405, 12.09316
4031.333, 14.06598
4033.261, 7.464645
4035.190, 11.86500
4037.118, 18.59814
4039.047, 12.20960
4040.975, 11.48066
4042.904, 9.566559
4044.832, 9.870013
4046.761, 13.28063
4048.689, 13.28509
4050.618, 9.498618
4052.546, 9.524254
4054.475, 14.54408
4056.403, 14.71432
4058.332, 10.54643
4060.260, 11.22323
4062.188, 14.45064
4064.117, 11.56470
4066.045, 8.372223
4067.974, 13.62519
4069.902, 14.34207
4071.831, 9.344280
4073.759, 8.822304
4075.688, 11.71970
4077.616, 11.40068
4079.545, 12.80289
4081.473, 18.00870
4083.402, 5.143046
4085.330, 14.97729
4087.259, 15.42782
4089.187, 9.925644
4091.115, 9.382511
4093.044, 13.21394
4094.972, 14.54106
4096.901, 15.67747
4098.829, 15.69908
4100.758, 14.06061
4102.687, 14.16315
4104.615, 13.41793
4106.543, 9.050191
4108.472, 10.38899
4110.400, 11.79881
4112.329, 10.38626
4114.257, 11.75568
4116.186, 10.30583
4118.114, 13.58254
4120.042, 5.979878
4121.971, 9.853768
4123.899, 9.828603
4125.828, 9.886234
4127.756, 8.991772
4129.685, 12.23525
4131.613, 12.13313
4133.542, 7.505059
4135.470, 9.779209
4137.398, 13.33372
4139.327, 13.14177
4141.256, 13.82555
4143.184, 20.74794
4145.112, 9.852859
4147.041, 11.96126
4148.970, 6.727171
4150.898, 7.988534
4152.826, 10.97599
4154.755, 13.46941
4156.684, 10.06684
4158.612, 11.39183
4160.540, 14.73733
4162.469, 12.73061
4164.397, 11.21282
4166.326, 12.01551
4168.254, 8.548542
4170.183, 5.379331
4172.111, 8.935106
4174.040, 9.202458
4175.968, 10.09320
4177.896, 4.988691
4179.825, 11.48205
4181.753, 6.052624
4183.682, 14.21862
4185.610, 11.26823
4187.539, 10.52490
4189.467, 10.20037
4191.396, 13.59028
4193.324, 8.461316
4195.253, 5.144223
4197.181, 10.44709
4199.109, 13.75131
4201.038, 13.00364
4202.967, 11.56717
4204.895, 9.984444
4206.823, 8.392245
4208.752, 11.84492
4210.681, 14.45709
4212.609, 10.15124
4214.537, 15.11900
4216.466, 15.13786
4218.395, 15.15542
4220.323, 15.11707
4222.251, 13.71615
4224.180, 16.51298
4226.108, 15.55970
4228.037, 10.81915
4229.965, 14.36541
4231.894, 16.99123
4233.822, 12.07327
4235.750, 9.816368
4237.679, 5.993493
4239.607, 11.40076
4241.536, 13.52724
4243.464, 15.38151
4245.393, 11.43074
4247.321, 10.00842
4249.250, 10.31584
4251.178, 12.51598
4253.106, 11.88652
4255.035, 12.42780
4256.964, 16.87376
4258.892, 13.02634
4260.820, 6.460737
4262.749, 7.832012
4264.678, 10.03641
4266.606, 11.48280
4268.534, 9.900237
4270.463, 13.77938
4272.392, 11.90740
4274.320, 7.824091
4276.248, 9.337071
4278.177, 10.41456
4280.105, 6.572668
4282.034, 11.92925
4283.962, 6.420688
4285.891, 10.57887
4287.819, 7.906373
4289.748, 8.742242
4291.676, 13.24416
4293.604, 13.99998
4295.533, 13.14311
4297.461, 6.841229
4299.390, 9.744973
4301.318, 11.53579
4303.247, 16.89820
4305.175, 9.240399
4307.104, 13.20289
4309.032, 17.44502
4310.961, 11.45359
4312.889, 9.979797
4314.817, 13.29625
4316.746, 11.74531
4318.675, 11.64774
4320.603, 13.91389
4322.531, 11.19667
4324.460, 9.136945
4326.389, 9.476397
4328.317, 14.65554
4330.245, 15.25656
4332.174, 15.36729
##END=



