##NAMES=Chabazite-K
##RRUFFID=R120032
##IDEAL CHEMISTRY=(K_2_NaCa_0.5_)[Al_4_Si_8_O_24_]·11H_2_O
##LOCALITY=Kirovskii mine, Rasvumchorr Mt, Khibiny Massif, Kola Peninsula, Murmanskaja Oblast, Northern Region, Russia
##OWNER=RRUFF
##SOURCE=Donald Doell
##DESCRIPTION=Druse of colorless rhombohedral crystals
##STATUS=The identification of this mineral has been confirmed only by single crystal X-ray diffraction
##URL=https://www.rruff.net/odr/rruff_sample/R120032
##DIFFRACTION SAMPLE DESCRIPTION=Single crystal, powder profile is calculated
##CELL PARAMETERS=a: 13.811 b: 13.811 c: 15.051 alpha: 90 beta: 90 gamma: 120 volume: 2486 crystal system: hexagonal
##FILETYPE=Raman Processed
##RAMAN WAVELENGTH=532

200.3092, 12592.47
202.2376, 12725.74
204.1661, 12840.29
206.0946, 12931.01
208.0230, 13018.38
209.9515, 13106.09
211.8800, 13194.73
213.8084, 13276.00
215.7369, 13346.71
217.6654, 13410.12
219.5938, 13472.26
221.5223, 13533.11
223.4508, 13592.72
225.3792, 13650.33
227.3077, 13705.63
229.2362, 13763.20
231.1646, 13816.37
233.0931, 13872.31
235.0216, 13934.37
236.9500, 14005.99
238.8785, 14069.94
240.8070, 14121.06
242.7354, 14160.86
244.6639, 14203.31
246.5924, 14249.47
248.5208, 14296.59
250.4493, 14343.08
252.3778, 14388.79
254.3062, 14434.24
256.2347, 14484.83
258.1632, 14536.54
260.0916, 14578.63
262.0201, 14594.40
263.9486, 14610.74
265.8770, 14645.13
267.8055, 14705.72
269.7340, 14761.65
271.6624, 14803.10
273.5909, 14837.30
275.5194, 14874.71
277.4478, 14919.89
279.3763, 14961.92
281.3048, 14996.64
283.2332, 15024.99
285.1617, 15059.39
287.0902, 15105.32
289.0186, 15155.40
290.9471, 15202.97
292.8756, 15248.19
294.8040, 15292.14
296.7325, 15330.03
298.6610, 15362.49
300.5894, 15399.91
302.5179, 15453.06
304.4464, 15512.60
306.3748, 15566.35
308.3033, 15609.46
310.2318, 15651.13
312.1602, 15699.09
314.0887, 15752.39
316.0172, 15804.67
317.9456, 15859.31
319.8741, 15908.73
321.8026, 15947.52
323.7310, 15975.97
325.6595, 16008.94
327.5880, 16051.31
329.5164, 16099.08
331.4449, 16145.12
333.3734, 16184.47
335.3018, 16226.38
337.2303, 16277.68
339.1588, 16338.55
341.0872, 16391.81
343.0157, 16426.96
344.9442, 16455.30
346.8727, 16488.96
348.8011, 16532.90
350.7296, 16577.48
352.6581, 16613.03
354.5865, 16641.04
356.5150, 16672.71
358.4435, 16715.39
360.3719, 16763.68
362.3004, 16818.25
364.2289, 16878.21
366.1573, 16922.07
368.0858, 16935.72
370.0143, 16939.89
371.9427, 16961.60
373.8712, 17005.36
375.7997, 17044.60
377.7281, 17071.03
379.6566, 17087.54
381.5851, 17107.99
383.5135, 17139.25
385.4420, 17171.18
387.3705, 17195.33
389.2989, 17210.57
391.2274, 17239.14
393.1559, 17291.71
395.0843, 17354.29
397.0128, 17405.98
398.9413, 17447.13
400.8697, 17493.52
402.7982, 17545.93
404.7267, 17598.66
406.6551, 17648.28
408.5836, 17699.61
410.5121, 17751.59
412.4405, 17803.96
414.3690, 17852.32
416.2975, 17892.08
418.2259, 17915.01
420.1544, 17936.07
422.0829, 17975.30
424.0113, 18048.35
425.9398, 18117.92
427.8683, 18175.93
429.7967, 18228.80
431.7252, 18287.47
433.6537, 18351.42
435.5821, 18421.16
437.5106, 18496.64
439.4391, 18580.47
441.3675, 18668.30
443.2960, 18756.18
445.2245, 18842.11
447.1529, 18928.67
449.0814, 19031.49
451.0099, 19116.72
452.9383, 19169.28
454.8668, 19195.74
456.7953, 19237.50
458.7237, 19297.09
460.6522, 19368.34
462.5807, 19449.24
464.5091, 19541.85
466.4376, 19623.70
468.3661, 19691.86
470.2945, 19755.11
472.2230, 19823.26
474.1515, 19889.15
476.0799, 19937.16
478.0084, 19965.23
479.9369, 19976.38
481.8653, 19972.55
483.7938, 19955.15
485.7223, 19932.29
487.6507, 19902.91
489.5792, 19870.75
491.5077, 19840.42
493.4361, 19809.68
495.3646, 19783.38
497.2931, 19764.62
499.2215, 19756.34
501.1500, 19749.19
503.0785, 19737.97
505.0069, 19725.50
506.9354, 19720.36
508.8639, 19731.21
510.7923, 19747.58
512.7208, 19770.82
514.6493, 19799.60
516.5778, 19827.00
518.5062, 19848.13
520.4347, 19868.62
522.3632, 19892.11
524.2916, 19920.82
526.2201, 19947.04
528.1486, 19966.87
530.0770, 19988.97
532.0055, 20019.66
533.9340, 20057.98
535.8624, 20101.37
537.7909, 20153.49
539.7194, 20210.47
541.6478, 20263.82
543.5763, 20305.04
545.5048, 20345.97
547.4332, 20392.37
549.3617, 20440.81
551.2902, 20476.21
553.2186, 20479.36
555.1471, 20485.13
557.0756, 20507.03
559.0040, 20545.20
560.9325, 20577.25
562.8610, 20602.18
564.7894, 20625.34
566.7179, 20648.95
568.6464, 20676.97
570.5748, 20709.85
572.5033, 20742.22
574.4318, 20777.99
576.3602, 20825.32
578.2887, 20885.17
580.2172, 20943.73
582.1456, 20997.61
584.0741, 21046.61
586.0026, 21086.54
587.9310, 21105.79
589.8595, 21128.88
591.7880, 21166.39
593.7164, 21208.61
595.6449, 21240.49
597.5734, 21257.22
599.5018, 21272.96
601.4303, 21288.07
603.3588, 21303.53
605.2872, 21328.99
607.2157, 21369.33
609.1442, 21412.66
611.0726, 21454.79
613.0011, 21494.75
614.9296, 21527.46
616.8580, 21544.20
618.7865, 21558.15
620.7150, 21578.93
622.6434, 21609.40
624.5719, 21635.29
626.5004, 21651.93
628.4288, 21669.51
630.3573, 21695.51
632.2858, 21734.15
634.2142, 21776.32
636.1427, 21822.83
638.0712, 21872.08
639.9996, 21919.06
641.9281, 21961.39
643.8566, 22000.23
645.7850, 22035.08
647.7135, 22065.12
649.6420, 22090.16
651.5704, 22104.21
653.4989, 22122.95
655.4274, 22156.44
657.3558, 22200.72
659.2843, 22238.91
661.2128, 22264.20
663.1412, 22293.64
665.0697, 22332.71
666.9982, 22381.20
668.9266, 22432.37
670.8551, 22489.57
672.7836, 22542.14
674.7120, 22582.64
676.6405, 22612.20
678.5690, 22642.00
680.4974, 22679.21
682.4259, 22713.89
684.3544, 22737.85
686.2828, 22744.67
688.2113, 22766.90
690.1398, 22821.48
692.0682, 22880.31
693.9967, 22920.51
695.9252, 22938.21
697.8536, 22961.53
699.7821, 23003.17
701.7106, 23045.25
703.6390, 23072.22
705.5675, 23080.27
707.4960, 23096.73
709.4244, 23131.55
711.3529, 23172.95
713.2814, 23212.29
715.2098, 23249.71
717.1383, 23288.23
719.0668, 23326.70
720.9952, 23364.27
722.9237, 23403.83
724.8522, 23445.98
726.7806, 23489.37
728.7091, 23529.28
730.6376, 23568.85
732.5660, 23615.38
734.4945, 23677.67
736.4230, 23731.69
738.3514, 23768.85
740.2799, 23794.96
742.2084, 23824.94
744.1368, 23861.50
746.0653, 23891.07
747.9938, 23902.44
749.9222, 23911.03
751.8507, 23930.29
753.7792, 23970.92
755.7076, 24007.74
757.6361, 24043.49
759.5646, 24082.23
761.4930, 24113.70
763.4215, 24130.01
765.3500, 24148.94
767.2784, 24187.15
769.2069, 24241.14
771.1354, 24291.72
773.0638, 24329.19
774.9923, 24368.34
776.9208, 24415.65
778.8492, 24462.91
780.7777, 24501.50
782.7062, 24527.46
784.6346, 24555.62
786.5631, 24595.14
788.4916, 24637.07
790.4200, 24668.34
792.3485, 24686.49
794.2770, 24705.06
796.2054, 24719.86
798.1339, 24724.94
800.0624, 24737.45
801.9908, 24759.81
803.9193, 24791.32
805.8478, 24830.02
807.7762, 24885.07
809.7047, 24944.09
811.6332, 25003.21
813.5616, 25038.62
815.4901, 25051.74
817.4186, 25064.63
819.3470, 25086.44
821.2755, 25118.76
823.2040, 25142.03
825.1324, 25154.20
827.0609, 25162.18
828.9894, 25167.99
830.9178, 25168.29
832.8463, 25180.62
834.7748, 25214.80
836.7032, 25261.00
838.6317, 25307.51
840.5602, 25353.57
842.4886, 25405.48
844.4171, 25462.88
846.3456, 25508.26
848.2740, 25544.07
850.2025, 25569.88
852.1310, 25597.03
854.0594, 25622.27
855.9879, 25651.51
857.9164, 25685.19
859.8448, 25720.82
861.7733, 25748.61
863.7018, 25769.88
865.6302, 25790.81
867.5587, 25807.55
869.4872, 25818.15
871.4156, 25829.35
873.3441, 25846.43
875.2726, 25868.35
877.2010, 25892.07
879.1295, 25916.40
881.0580, 25941.18
882.9865, 25967.41
884.9149, 25993.85
886.8434, 26030.08
888.7719, 26081.62
890.7003, 26140.47
892.6288, 26191.51
894.5573, 26230.41
896.4857, 26266.01
898.4142, 26300.79
900.3427, 26338.42
902.2711, 26383.15
904.1996, 26445.45
906.1281, 26512.59
908.0565, 26575.85
909.9850, 26627.20
911.9135, 26658.68
913.8419, 26671.54
915.7704, 26690.61
917.6989, 26726.38
919.6273, 26765.72
921.5558, 26795.18
923.4843, 26812.62
925.4127, 26819.37
927.3412, 26827.51
929.2697, 26851.02
931.1981, 26897.35
933.1266, 26959.74
935.0551, 27025.86
936.9835, 27089.39
938.9120, 27143.04
940.8405, 27196.87
942.7689, 27235.88
944.6974, 27289.28
946.6259, 27332.72
948.5543, 27370.44
950.4828, 27411.24
952.4113, 27463.77
954.3397, 27502.04
956.2682, 27525.70
958.1967, 27545.38
960.1251, 27567.47
962.0536, 27595.49
963.9821, 27635.02
965.9105, 27680.67
967.8390, 27726.92
969.7675, 27772.80
971.6959, 27816.25
973.6244, 27849.21
975.5529, 27870.83
977.4813, 27877.07
979.4098, 27863.88
981.3383, 27840.13
983.2667, 27832.59
985.1952, 27853.65
987.1237, 27878.94
989.0521, 27900.77
990.9806, 27924.69
992.9091, 27959.63
994.8375, 28008.39
996.7660, 28073.61
998.6945, 28137.42
1000.623, 28187.77
1002.551, 28228.43
1004.480, 28262.80
1006.408, 28303.77
1008.337, 28348.29
1010.265, 28387.78
1012.194, 28420.38
1014.122, 28448.10
1016.051, 28480.84
1017.979, 28528.55
1019.908, 28593.52
1021.836, 28653.12
1023.765, 28702.56
1025.693, 28744.21
1027.621, 28781.43
1029.550, 28806.69
1031.478, 28825.00
1033.407, 28845.74
1035.335, 28877.29
1037.264, 28920.24
1039.192, 28959.81
1041.121, 28993.43
1043.049, 29034.26
1044.978, 29080.85
1046.906, 29129.09
1048.835, 29169.02
1050.763, 29206.45
1052.692, 29240.16
1054.620, 29273.71
1056.548, 29314.86
1058.477, 29363.45
1060.405, 29409.27
1062.334, 29440.98
1064.262, 29478.61
1066.191, 29531.25
1068.119, 29584.80
1070.048, 29627.22
1071.976, 29662.68
1073.905, 29705.21
1075.833, 29757.48
1077.762, 29805.62
1079.690, 29845.36
1081.619, 29874.11
1083.547, 29897.18
1085.475, 29929.58
1087.404, 29970.47
1089.332, 30020.04
1091.261, 30062.63
1093.189, 30095.00
1095.118, 30128.98
1097.046, 30170.89
1098.975, 30214.04
1100.903, 30251.82
1102.832, 30285.27
1104.760, 30318.83
1106.689, 30339.27
1108.617, 30347.36
1110.546, 30374.19
1112.474, 30449.40
1114.402, 30519.24
1116.331, 30556.05
1118.259, 30567.29
1120.188, 30588.07
1122.116, 30622.94
1124.045, 30661.07
1125.973, 30698.26
1127.902, 30733.64
1129.830, 30769.03
1131.759, 30804.79
1133.687, 30835.27
1135.616, 30860.42
1137.544, 30881.50
1139.473, 30898.04
1141.401, 30910.48
1143.329, 30926.93
1145.258, 30952.73
1147.186, 30978.48
1149.115, 31001.52
1151.043, 31030.26
1152.972, 31062.88
1154.900, 31086.06
1156.829, 31099.91
1158.757, 31097.54
1160.686, 31099.99
1162.614, 31114.09
1164.543, 31138.47
1166.471, 31172.80
1168.400, 31223.84
1170.328, 31268.50
1172.256, 31292.51
1174.185, 31318.94
1176.113, 31363.60
1178.042, 31428.25
1179.970, 31477.51
1181.899, 31490.93
1183.827, 31506.50
1185.756, 31546.41
1187.684, 31599.61
1189.613, 31631.55
1191.541, 31637.87
1193.470, 31647.94
1195.398, 31674.76
1197.327, 31711.79
1199.255, 31750.50
1201.183, 31789.85
1203.112, 31835.07
1205.040, 31887.89
1206.969, 31936.80
1208.897, 31972.15
1210.826, 31995.16
1212.754, 32019.42
1214.683, 32053.27
1216.611, 32081.26
1218.540, 32108.20
1220.468, 32134.82
1222.397, 32157.69
1224.325, 32179.87
1226.254, 32225.92
1228.182, 32306.38
1230.110, 32392.88
1232.039, 32466.92
1233.967, 32530.42
1235.896, 32590.76
1237.824, 32643.99
1239.753, 32692.26
1241.681, 32747.11
1243.610, 32786.98
1245.538, 32799.65
1247.467, 32787.52
1249.395, 32778.95
1251.324, 32779.22
1253.252, 32790.48
1255.181, 32816.95
1257.109, 32850.82
1259.037, 32890.72
1260.966, 32939.91
1262.894, 32979.32
1264.823, 32988.86
1266.751, 33003.79
1268.680, 33050.86
1270.608, 33113.63
1272.537, 33159.02
1274.465, 33181.09
1276.394, 33213.54
1278.322, 33273.46
1280.251, 33335.00
1282.179, 33389.59
1284.108, 33440.93
1286.036, 33496.99
1287.964, 33563.24
1289.893, 33629.33
1291.821, 33688.16
1293.750, 33740.55
1295.678, 33796.55
1297.607, 33858.80
1299.535, 33923.75
1301.464, 34002.46
1303.392, 34073.66
1305.321, 34124.53
1307.249, 34154.94
1309.178, 34183.47
1311.106, 34214.85
1313.035, 34250.43
1314.963, 34290.22
1316.891, 34334.24
1318.820, 34384.30
1320.748, 34436.13
1322.677, 34485.04
1324.605, 34532.22
1326.534, 34576.51
1328.462, 34611.86
1330.391, 34645.12
1332.319, 34685.87
1334.248, 34737.05
1336.176, 34775.18
1338.105, 34796.22
1340.033, 34810.68
1341.962, 34818.75
1343.890, 34833.02
1345.818, 34864.70
1347.747, 34912.58
1349.675, 34963.67
1351.604, 35013.93
1353.532, 35059.96
1355.461, 35092.51
1357.389, 35120.84
1359.318, 35161.87
1361.246, 35218.02
1363.175, 35260.10
1365.103, 35282.11
1367.032, 35298.02
1368.960, 35311.09
1370.889, 35324.71
1372.817, 35354.65
1374.745, 35409.43
1376.674, 35457.99
1378.602, 35483.35
1380.531, 35503.02
1382.459, 35532.09
1384.388, 35566.99
1386.316, 35592.25
1388.245, 35600.73
1390.173, 35624.93
1392.102, 35691.27
1394.030, 35761.43
1395.959, 35790.04
1397.887, 35779.15
1399.816, 35794.20
1401.744, 35839.26
1403.672, 35885.75
1405.601, 35929.58
1407.529, 35966.39
1409.458, 35991.63
1411.386, 36016.23
1413.315, 36041.85
1415.243, 36056.85
1417.172, 36077.84
1419.100, 36122.07
1421.029, 36151.07
1422.957, 36193.31
1424.886, 36241.17
1426.814, 36284.89
1428.743, 36349.14
1430.671, 36403.77
1432.599, 36448.05
1434.528, 36491.34
1436.456, 36537.45
1438.385, 36590.11
1440.313, 36630.04
1442.242, 36628.74
1444.170, 36626.95
1446.099, 36634.39
1448.027, 36652.86
1449.956, 36683.54
1451.884, 36736.23
1453.813, 36783.72
1455.741, 36818.98
1457.670, 36846.49
1459.598, 36858.23
1461.526, 36868.30
1463.455, 36899.29
1465.383, 36960.57
1467.312, 37014.73
1469.240, 37038.18
1471.169, 37063.64
1473.097, 37104.38
1475.026, 37143.64
1476.954, 37167.73
1478.883, 37186.86
1480.811, 37213.43
1482.740, 37242.36
1484.668, 37273.31
1486.597, 37317.57
1488.525, 37369.96
1490.453, 37419.23
1492.382, 37469.83
1494.310, 37546.92
1496.239, 37654.45
1498.167, 37757.70
1500.096, 37844.76
1502.024, 37905.46
1503.953, 37919.56
1505.881, 37892.99
1507.810, 37892.32
1509.738, 37958.00
1511.667, 37993.14
1513.595, 37955.60
1515.524, 37916.31
1517.452, 37917.62
1519.380, 37956.76
1521.309, 38011.06
1523.237, 38080.64
1525.166, 38135.83
1527.094, 38155.32
1529.023, 38175.54
1530.951, 38219.74
1532.880, 38274.01
1534.808, 38311.35
1536.737, 38328.86
1538.665, 38349.05
1540.594, 38375.10
1542.522, 38401.66
1544.451, 38431.57
1546.379, 38466.09
1548.307, 38502.04
1550.236, 38536.55
1552.164, 38574.98
1554.093, 38618.46
1556.021, 38662.94
1557.950, 38706.96
1559.878, 38744.23
1561.807, 38771.39
1563.735, 38792.28
1565.664, 38817.94
1567.592, 38850.52
1569.521, 38875.67
1571.449, 38885.93
1573.378, 38892.58
1575.306, 38905.64
1577.234, 38921.43
1579.163, 38931.07
1581.091, 38935.26
1583.020, 38945.55
1584.948, 38967.43
1586.877, 38989.49
1588.805, 39002.05
1590.734, 39024.08
1592.662, 39073.49
1594.591, 39145.57
1596.519, 39215.10
1598.448, 39278.01
1600.376, 39335.12
1602.305, 39378.49
1604.233, 39415.94
1606.161, 39450.52
1608.090, 39480.15
1610.018, 39505.49
1611.947, 39528.10
1613.875, 39528.70
1615.804, 39500.77
1617.732, 39475.63
1619.661, 39472.21
1621.589, 39482.07
1623.518, 39495.46
1625.446, 39515.20
1627.375, 39554.09
1629.303, 39610.15
1631.232, 39679.23
1633.160, 39759.43
1635.089, 39834.36
1637.017, 39891.90
1638.945, 39934.65
1640.874, 39976.97
1642.802, 40022.20
1644.731, 40040.74
1646.659, 40017.30
1648.588, 40006.37
1650.516, 40038.61
1652.445, 40082.53
1654.373, 40103.89
1656.302, 40106.49
1658.230, 40131.43
1660.159, 40183.12
1662.087, 40231.71
1664.016, 40278.16
1665.944, 40311.39
1667.872, 40323.13
1669.801, 40322.52
1671.729, 40317.90
1673.658, 40309.10
1675.586, 40326.54
1677.515, 40398.65
1679.443, 40448.18
1681.372, 40438.39
1683.300, 40433.30
1685.229, 40473.30
1687.157, 40538.98
1689.086, 40588.25
1691.014, 40611.98
1692.943, 40643.07
1694.871, 40694.06
1696.799, 40725.23
1698.728, 40722.93
1700.656, 40707.09
1702.585, 40688.69
1704.513, 40673.98
1706.442, 40677.41
1708.370, 40708.99
1710.299, 40732.99
1712.227, 40733.52
1714.156, 40743.70
1716.084, 40778.73
1718.013, 40814.29
1719.941, 40822.54
1721.870, 40810.88
1723.798, 40823.04
1725.726, 40872.05
1727.655, 40904.73
1729.583, 40910.42
1731.512, 40911.37
1733.440, 40911.32
1735.369, 40913.73
1737.297, 40919.92
1739.226, 40932.18
1741.154, 40959.71
1743.083, 41006.70
1745.011, 41055.13
1746.940, 41103.87
1748.868, 41148.74
1750.797, 41175.94
1752.725, 41201.82
1754.653, 41246.14
1756.582, 41299.88
1758.510, 41327.29
1760.439, 41325.42
1762.367, 41310.91
1764.296, 41287.50
1766.224, 41257.64
1768.153, 41220.82
1770.081, 41188.99
1772.010, 41171.52
1773.938, 41169.56
1775.867, 41182.86
1777.795, 41212.84
1779.724, 41243.23
1781.652, 41269.38
1783.580, 41294.79
1785.509, 41304.80
1787.437, 41323.80
1789.366, 41378.52
1791.294, 41448.97
1793.223, 41489.90
1795.151, 41499.72
1797.080, 41508.03
1799.008, 41524.24
1800.937, 41526.07
1802.865, 41494.14
1804.794, 41467.87
1806.722, 41475.32
1808.651, 41505.50
1810.579, 41548.38
1812.507, 41600.57
1814.436, 41630.80
1816.364, 41626.55
1818.293, 41627.42
1820.221, 41642.93
1822.150, 41659.30
1824.078, 41680.04
1826.007, 41692.80
1827.935, 41676.90
1829.864, 41644.75
1831.792, 41637.75
1833.721, 41662.13
1835.649, 41696.86
1837.578, 41747.29
1839.506, 41792.21
1841.434, 41814.01
1843.363, 41830.90
1845.291, 41850.71
1847.220, 41874.10
1849.148, 41912.80
1851.077, 41971.09
1853.005, 41996.23
1854.934, 41966.73
1856.862, 41945.00
1858.791, 41940.29
1860.719, 41945.91
1862.648, 41973.57
1864.576, 42000.44
1866.505, 41992.96
1868.433, 41957.52
1870.361, 41935.74
1872.290, 41930.70
1874.218, 41932.81
1876.147, 41950.20
1878.075, 41966.66
1880.004, 41984.58
1881.932, 41998.18
1883.861, 41993.30
1885.789, 41985.21
1887.718, 42000.84
1889.646, 42036.59
1891.575, 42069.34
1893.503, 42094.48
1895.432, 42112.05
1897.360, 42130.32
1899.288, 42129.47
1901.217, 42097.76
1903.145, 42063.15
1905.074, 42053.36
1907.002, 42061.68
1908.931, 42060.66
1910.859, 42052.45
1912.788, 42077.55
1914.716, 42141.59
1916.645, 42194.71
1918.573, 42210.70
1920.502, 42221.14
1922.430, 42248.20
1924.359, 42267.55
1926.287, 42254.51
1928.215, 42223.86
1930.144, 42207.91
1932.072, 42210.29
1934.001, 42218.55
1935.929, 42239.74
1937.858, 42254.41
1939.786, 42250.41
1941.715, 42250.69
1943.643, 42268.63
1945.572, 42287.52
1947.500, 42287.36
1949.429, 42295.67
1951.357, 42299.43
1953.286, 42291.18
1955.214, 42292.46
1957.143, 42279.63
1959.071, 42255.49
1961.000, 42201.78
1962.928, 42168.99
1964.856, 42201.26
1966.785, 42236.99
1968.713, 42227.32
1970.642, 42197.53
1972.570, 42184.33
1974.499, 42189.00
1976.427, 42230.98
1978.356, 42318.54
1980.284, 42371.24
1982.213, 42351.98
1984.141, 42344.59
1986.070, 42380.83
1987.998, 42429.04
1989.927, 42480.44
1991.855, 42524.10
1993.783, 42543.51
1995.712, 42543.30
1997.640, 42545.71
1999.569, 42557.09
2001.497, 42552.08
2003.426, 42510.71
2005.354, 42488.63
2007.283, 42509.37
2009.211, 42523.10
2011.140, 42508.65
2013.068, 42480.21
2014.997, 42438.02
2016.925, 42396.88
2018.854, 42392.05
2020.782, 42423.59
2022.710, 42451.31
2024.639, 42476.71
2026.567, 42496.80
2028.496, 42508.82
2030.424, 42517.31
2032.353, 42516.48
2034.281, 42517.18
2036.210, 42530.61
2038.138, 42542.26
2040.067, 42529.54
2041.995, 42505.98
2043.924, 42511.05
2045.852, 42544.20
2047.781, 42550.84
2049.709, 42515.61
2051.637, 42491.55
2053.566, 42493.77
2055.494, 42488.43
2057.423, 42469.93
2059.351, 42444.83
2061.280, 42420.00
2063.208, 42395.90
2065.137, 42364.69
2067.065, 42339.75
2068.994, 42356.18
2070.922, 42412.14
2072.851, 42468.23
2074.779, 42516.18
2076.708, 42565.73
2078.636, 42618.16
2080.564, 42645.12
2082.493, 42628.16
2084.421, 42591.70
2086.350, 42544.28
2088.278, 42497.87
2090.207, 42468.89
2092.135, 42456.19
2094.064, 42456.66
2095.992, 42470.29
2097.921, 42462.34
2099.849, 42452.16
2101.778, 42447.50
2103.706, 42410.99
2105.635, 42415.50
2107.563, 42380.39
2109.491, 42346.29
2111.420, 42340.51
2113.348, 42333.85
2115.277, 42305.44
2117.205, 42274.57
2119.134, 42260.11
2121.062, 42262.40
2122.991, 42282.98
2124.919, 42317.64
2126.848, 42346.62
2128.776, 42362.86
2130.705, 42375.95
2132.633, 42381.91
2134.562, 42387.21
2136.490, 42393.35
2138.418, 42401.35
2140.347, 42436.10
2142.275, 42452.99
2144.204, 42391.54
2146.132, 42308.63
2148.061, 42299.24
2149.989, 42347.50
2151.918, 42376.96
2153.846, 42388.29
2155.775, 42407.34
2157.703, 42434.38
2159.632, 42460.20
2161.560, 42478.52
2163.489, 42492.32
2165.417, 42503.07
2167.345, 42501.61
2169.274, 42482.30
2171.202, 42453.35
2173.131, 42422.33
2175.059, 42390.59
2176.988, 42357.13
2178.916, 42328.12
2180.845, 42318.68
2182.773, 42329.55
2184.702, 42330.27
2186.630, 42314.07
2188.559, 42331.86
2190.487, 42399.69
2192.416, 42444.87
2194.344, 42437.89
2196.272, 42424.57
2198.201, 42423.38
2200.129, 42420.49
2202.058, 42408.87
2203.986, 42395.25
2205.915, 42388.49
2207.843, 42383.06
2209.772, 42369.14
2211.700, 42347.87
2213.629, 42323.11
2215.557, 42296.13
2217.486, 42271.42
2219.414, 42251.13
2221.343, 42234.28
2223.271, 42218.06
2225.199, 42215.62
2227.128, 42235.49
2229.056, 42252.27
2230.985, 42236.17
2232.913, 42234.98
2234.842, 42304.86
2236.770, 42371.80
2238.699, 42344.68
2240.627, 42291.16
2242.556, 42328.80
2244.484, 42427.18
2246.413, 42480.52
2248.341, 42490.21
2250.270, 42469.57
2252.198, 42414.71
2254.126, 42414.31
2256.055, 42491.97
2257.983, 42548.73
2259.912, 42561.61
2261.840, 42555.85
2263.769, 42518.07
2265.697, 42487.21
2267.626, 42499.21
2269.554, 42498.37
2271.483, 42437.95
2273.411, 42367.23
2275.340, 42344.54
2277.268, 42345.57
2279.197, 42326.44
2281.125, 42297.01
2283.053, 42278.22
2284.982, 42267.97
2286.910, 42253.85
2288.839, 42225.38
2290.767, 42228.35
2292.696, 42284.24
2294.624, 42319.37
2296.553, 42321.69
2298.481, 42321.66
2300.410, 42341.61
2302.338, 42335.19
2304.267, 42273.13
2306.195, 42211.53
2308.124, 42172.56
2310.052, 42157.90
2311.980, 42179.91
2313.909, 42216.44
2315.837, 42243.73
2317.766, 42262.26
2319.694, 42268.00
2321.623, 42263.70
2323.551, 42270.24
2325.480, 42285.59
2327.408, 42312.22
2329.337, 42352.52
2331.265, 42347.79
2333.194, 42284.20
2335.122, 42246.59
2337.051, 42264.71
2338.979, 42268.70
2340.907, 42237.54
2342.836, 42210.82
2344.764, 42211.97
2346.693, 42208.62
2348.621, 42157.55
2350.550, 42128.38
2352.478, 42173.52
2354.407, 42233.81
2356.335, 42261.83
2358.264, 42262.60
2360.192, 42247.52
2362.121, 42216.36
2364.049, 42172.26
2365.978, 42120.21
2367.906, 42050.62
2369.834, 41970.79
2371.763, 41928.65
2373.691, 41927.43
2375.620, 41931.76
2377.548, 41933.27
2379.477, 41941.84
2381.405, 41955.82
2383.334, 41958.22
2385.262, 41942.65
2387.191, 41927.28
2389.119, 41918.39
2391.048, 41920.95
2392.976, 41967.89
2394.905, 41992.68
2396.833, 41939.98
2398.761, 41887.29
2400.690, 41867.29
2402.618, 41871.99
2404.547, 41915.31
2406.475, 41956.51
2408.404, 41945.34
2410.332, 41908.24
2412.261, 41891.28
2414.189, 41885.63
2416.118, 41862.05
2418.046, 41827.40
2419.975, 41808.26
2421.903, 41804.22
2423.832, 41803.91
2425.760, 41805.91
2427.688, 41808.41
2429.617, 41809.59
2431.545, 41808.88
2433.474, 41805.38
2435.402, 41799.59
2437.331, 41777.99
2439.259, 41788.88
2441.188, 41729.09
2443.116, 41683.97
2445.045, 41662.94
2446.973, 41665.57
2448.902, 41708.10
2450.830, 41741.43
2452.759, 41728.26
2454.687, 41710.06
2456.615, 41701.69
2458.544, 41704.38
2460.472, 41737.52
2462.401, 41767.56
2464.329, 41758.85
2466.258, 41739.48
2468.186, 41735.85
2470.115, 41746.81
2472.043, 41774.07
2473.972, 41805.15
2475.900, 41814.54
2477.829, 41804.25
2479.757, 41795.92
2481.686, 41785.17
2483.614, 41741.79
2485.542, 41673.30
2487.471, 41633.91
2489.399, 41626.91
2491.328, 41603.19
2493.256, 41558.85
2495.185, 41545.77
2497.113, 41573.44
2499.042, 41602.66
2500.970, 41632.08
2502.899, 41643.43
2504.827, 41650.57
2506.756, 41654.05
2508.684, 41633.16
2510.613, 41631.86
2512.541, 41595.70
2514.469, 41556.23
2516.398, 41519.74
2518.326, 41494.16
2520.255, 41488.13
2522.183, 41485.88
2524.112, 41477.68
2526.040, 41473.09
2527.969, 41475.71
2529.897, 41479.63
2531.826, 41489.61
2533.754, 41492.46
2535.683, 41468.23
2537.611, 41449.66
2539.540, 41468.68
2541.468, 41499.23
2543.396, 41515.32
2545.325, 41525.62
2547.253, 41543.39
2549.182, 41550.82
2551.110, 41517.06
2553.039, 41468.43
2554.967, 41453.41
2556.896, 41454.15
2558.824, 41437.20
2560.753, 41411.71
2562.681, 41382.73
2564.610, 41363.72
2566.538, 41396.32
2568.467, 41391.25
2570.395, 41468.18
2572.323, 41434.46
2574.252, 41437.24
2576.180, 41468.01
2578.109, 41454.50
2580.037, 41450.91
2581.966, 41388.73
2583.894, 41410.98
2585.823, 41403.08
2587.751, 41362.30
2589.680, 41371.61
2591.608, 41443.00
2593.537, 41486.99
2595.465, 41494.15
2597.394, 41507.84
2599.322, 41525.04
2601.250, 41556.70
2603.179, 41606.29
2605.107, 41639.80
2607.036, 41651.13
2608.964, 41658.75
2610.893, 41672.57
2612.821, 41668.88
2614.750, 41647.82
2616.678, 41611.33
2618.607, 41549.09
2620.535, 41516.13
2622.464, 41533.84
2624.392, 41547.90
2626.321, 41556.15
2628.249, 41546.73
2630.177, 41515.84
2632.106, 41479.17
2634.034, 41434.61
2635.963, 41412.13
2637.891, 41436.64
2639.820, 41450.68
2641.748, 41431.57
2643.677, 41414.49
2645.605, 41394.98
2647.534, 41396.17
2649.462, 41428.95
2651.391, 41460.22
2653.319, 41487.81
2655.248, 41487.96
2657.176, 41420.86
2659.104, 41373.87
2661.033, 41393.14
2662.961, 41405.31
2664.890, 41403.69
2666.818, 41380.60
2668.747, 41323.46
2670.675, 41273.71
2672.604, 41242.18
2674.532, 41230.52
2676.461, 41243.62
2678.389, 41262.80
2680.318, 41272.90
2682.246, 41293.59
2684.175, 41341.19
2686.103, 41376.18
2688.031, 41393.85
2689.960, 41381.12
2691.888, 41312.84
2693.817, 41257.04
2695.745, 41242.01
2697.674, 41242.84
2699.602, 41259.18
2701.531, 41274.12
2703.459, 41266.13
2705.388, 41272.10
2707.316, 41316.68
2709.245, 41352.95
2711.173, 41365.52
2713.102, 41361.38
2715.030, 41325.34
2716.958, 41303.66
2718.887, 41331.50
2720.815, 41350.45
2722.744, 41345.74
2724.672, 41324.38
2726.601, 41271.85
2728.529, 41249.62
2730.458, 41299.39
2732.386, 41342.55
2734.315, 41341.95
2736.243, 41339.62
2738.172, 41349.54
2740.100, 41346.48
2742.029, 41321.31
2743.957, 41292.99
2745.885, 41266.14
2747.814, 41252.16
2749.742, 41262.19
2751.671, 41282.87
2753.599, 41314.29
2755.528, 41352.24
2757.456, 41394.81
2759.385, 41432.23
2761.313, 41455.01
2763.242, 41471.09
2765.170, 41483.00
2767.099, 41487.64
2769.027, 41481.21
2770.956, 41474.93
2772.884, 41455.77
2774.813, 41422.99
2776.741, 41377.52
2778.669, 41336.88
2780.598, 41317.14
2782.526, 41272.74
2784.455, 41261.77
2786.383, 41261.80
2788.312, 41235.66
2790.240, 41273.49
2792.169, 41260.19
2794.097, 41247.05
2796.026, 41231.84
2797.954, 41212.67
2799.883, 41190.46
2801.811, 41148.50
2803.740, 41139.66
2805.668, 41131.16
2807.596, 41111.96
2809.525, 41128.20
2811.453, 41123.88
2813.382, 41109.40
2815.310, 41087.02
2817.239, 41076.57
2819.167, 41073.99
2821.096, 41048.70
2823.024, 41009.18
2824.953, 40992.34
2826.881, 40993.08
2828.810, 41000.96
2830.738, 41012.43
2832.667, 41029.29
2834.595, 41040.84
2836.523, 41020.88
2838.452, 40989.34
2840.380, 40980.42
2842.309, 40983.18
2844.237, 40984.59
2846.166, 40985.48
2848.094, 40980.46
2850.023, 40978.20
2851.951, 40996.46
2853.880, 41006.70
2855.808, 40980.41
2857.737, 40948.59
2859.665, 40929.10
2861.594, 40922.85
2863.522, 40943.98
2865.450, 40960.04
2867.379, 40947.55
2869.307, 40943.91
2871.236, 40969.08
2873.164, 40995.47
2875.093, 41020.14
2877.021, 41027.52
2878.950, 41003.71
2880.878, 41000.48
2882.807, 41046.00
2884.735, 41063.89
2886.664, 41013.55
2888.592, 40992.52
2890.521, 41010.29
2892.449, 41013.26
2894.377, 40994.09
2896.306, 40998.95
2898.234, 41037.06
2900.163, 41043.36
2902.091, 41017.84
2904.020, 40991.98
2905.948, 40969.71
2907.877, 40967.85
2909.805, 40983.36
2911.734, 41001.25
2913.662, 41018.87
2915.591, 41024.85
2917.519, 41026.36
2919.448, 41052.55
2921.376, 41071.15
2923.304, 41020.45
2925.233, 40956.16
2927.161, 40954.54
2929.090, 40962.93
2931.018, 40934.59
2932.947, 40904.91
2934.875, 40902.69
2936.804, 40900.30
2938.732, 40891.83
2940.661, 40860.13
2942.589, 40782.85
2944.518, 40721.90
2946.446, 40708.97
2948.375, 40700.78
2950.303, 40692.45
2952.231, 40685.71
2954.160, 40681.85
2956.088, 40666.63
2958.017, 40663.98
2959.945, 40656.66
2961.874, 40643.56
2963.802, 40638.07
2965.731, 40608.66
2967.659, 40580.81
2969.588, 40558.42
2971.516, 40546.59
2973.445, 40541.00
2975.373, 40514.18
2977.302, 40513.82
2979.230, 40487.98
2981.158, 40502.68
2983.087, 40512.45
2985.015, 40507.73
2986.944, 40465.66
2988.872, 40433.02
2990.801, 40460.63
2992.729, 40477.36
2994.658, 40430.57
2996.586, 40390.26
2998.515, 40369.88
3000.443, 40372.29
3002.372, 40408.14
3004.300, 40417.37
3006.229, 40389.85
3008.157, 40327.97
3010.085, 40226.64
3012.014, 40158.11
3013.942, 40125.78
3015.871, 40122.89
3017.799, 40144.24
3019.728, 40170.91
3021.656, 40193.77
3023.585, 40171.59
3025.513, 40131.04
3027.442, 40099.96
3029.370, 40095.45
3031.299, 40161.81
3033.227, 40232.03
3035.156, 40256.10
3037.084, 40249.82
3039.012, 40197.22
3040.941, 40158.89
3042.869, 40183.65
3044.798, 40189.49
3046.726, 40155.75
3048.655, 40134.16
3050.583, 40142.25
3052.512, 40130.50
3054.440, 40090.73
3056.369, 40075.67
3058.297, 40085.47
3060.226, 40115.70
3062.154, 40154.41
3064.083, 40137.02
3066.011, 40151.98
3067.939, 40106.90
3069.868, 40134.00
3071.796, 40125.77
3073.725, 40103.52
3075.653, 40105.68
3077.582, 40079.91
3079.510, 39982.00
3081.439, 39900.43
3083.367, 39870.27
3085.296, 39875.38
3087.224, 39929.27
3089.153, 39954.06
3091.081, 39934.38
3093.010, 39938.05
3094.938, 39972.80
3096.866, 39959.01
3098.795, 39959.20
3100.723, 39955.36
3102.652, 39932.09
3104.580, 39927.14
3106.509, 39906.58
3108.437, 39889.54
3110.366, 39875.57
3112.294, 39869.91
3114.223, 39858.70
3116.151, 39835.08
3118.080, 39807.45
3120.008, 39780.12
3121.937, 39758.07
3123.865, 39737.93
3125.793, 39721.90
3127.722, 39708.47
3129.650, 39697.52
3131.579, 39693.71
3133.507, 39684.72
3135.436, 39670.64
3137.364, 39653.39
3139.293, 39640.42
3141.221, 39651.58
3143.150, 39670.50
3145.078, 39679.51
3147.007, 39689.52
3148.935, 39686.40
3150.864, 39671.43
3152.792, 39671.16
3154.720, 39631.70
3156.649, 39621.24
3158.577, 39614.34
3160.506, 39615.62
3162.434, 39591.09
3164.363, 39545.32
3166.291, 39490.22
3168.220, 39439.30
3170.148, 39434.59
3172.077, 39454.93
3174.005, 39479.14
3175.934, 39499.11
3177.862, 39511.82
3179.791, 39517.35
3181.719, 39510.48
3183.647, 39519.01
3185.576, 39553.64
3187.504, 39588.22
3189.433, 39611.00
3191.361, 39624.30
3193.290, 39621.77
3195.218, 39611.36
3197.147, 39586.77
3199.075, 39518.54
3201.004, 39440.07
3202.932, 39419.62
3204.861, 39411.96
3206.789, 39366.36
3208.718, 39342.86
3210.646, 39378.62
3212.574, 39403.87
3214.503, 39379.39
3216.431, 39389.41
3218.360, 39456.63
3220.288, 39477.65
3222.217, 39456.95
3224.145, 39426.21
3226.074, 39396.24
3228.002, 39400.52
3229.931, 39405.36
3231.859, 39343.77
3233.788, 39286.78
3235.716, 39283.11
3237.645, 39297.46
3239.573, 39325.20
3241.501, 39334.01
3243.430, 39344.49
3245.358, 39361.80
3247.287, 39355.60
3249.215, 39379.47
3251.144, 39385.67
3253.072, 39377.34
3255.001, 39360.08
3256.929, 39341.42
3258.858, 39322.10
3260.786, 39296.98
3262.715, 39281.54
3264.643, 39292.59
3266.572, 39289.43
3268.500, 39256.14
3270.428, 39268.93
3272.357, 39338.29
3274.285, 39348.86
3276.214, 39312.22
3278.142, 39281.59
3280.071, 39258.23
3281.999, 39234.37
3283.928, 39227.26
3285.856, 39282.41
3287.785, 39309.78
3289.713, 39267.91
3291.642, 39228.80
3293.570, 39217.60
3295.499, 39189.47
3297.427, 39146.63
3299.355, 39152.29
3301.284, 39184.53
3303.212, 39183.30
3305.141, 39156.98
3307.069, 39113.93
3308.998, 39064.13
3310.926, 39015.25
3312.855, 38969.91
3314.783, 38932.45
3316.712, 38898.76
3318.640, 38865.52
3320.569, 38873.24
3322.497, 38915.24
3324.426, 38948.13
3326.354, 38964.68
3328.282, 38946.76
3330.211, 38917.21
3332.139, 38902.88
3334.068, 38880.26
3335.996, 38834.29
3337.925, 38801.46
3339.853, 38788.46
3341.782, 38810.89
3343.710, 38794.78
3345.639, 38852.11
3347.567, 38811.64
3349.496, 38831.67
3351.424, 38863.78
3353.353, 38865.57
3355.281, 38848.61
3357.209, 38818.96
3359.138, 38775.29
3361.066, 38717.42
3362.995, 38672.22
3364.923, 38645.99
3366.852, 38667.08
3368.780, 38715.35
3370.709, 38751.26
3372.637, 38757.80
3374.566, 38669.71
3376.494, 38616.63
3378.423, 38670.79
3380.351, 38728.35
3382.280, 38772.88
3384.208, 38781.35
3386.136, 38757.46
3388.065, 38739.39
3389.993, 38730.58
3391.922, 38737.01
3393.850, 38759.40
3395.779, 38743.52
3397.707, 38728.45
3399.636, 38744.73
3401.564, 38730.23
3403.493, 38718.52
3405.421, 38735.64
3407.350, 38735.59
3409.278, 38760.96
3411.207, 38786.93
3413.135, 38771.73
3415.063, 38739.20
3416.992, 38687.34
3418.920, 38666.11
3420.849, 38697.23
3422.777, 38720.87
3424.706, 38727.64
3426.634, 38739.14
3428.563, 38747.98
3430.491, 38725.83
3432.420, 38737.21
3434.348, 38718.39
3436.277, 38732.99
3438.205, 38724.86
3440.134, 38715.80
3442.062, 38714.12
3443.990, 38686.31
3445.919, 38673.25
3447.847, 38625.65
3449.776, 38622.17
3451.704, 38583.76
3453.633, 38540.29
3455.561, 38516.19
3457.490, 38486.27
3459.418, 38447.65
3461.347, 38401.85
3463.275, 38351.71
3465.204, 38315.14
3467.132, 38282.46
3469.061, 38213.01
3470.989, 38155.13
3472.917, 38158.22
3474.846, 38166.91
3476.774, 38161.18
3478.703, 38156.29
3480.631, 38150.26
3482.560, 38114.08
3484.488, 38062.82
3486.417, 38049.50
3488.345, 38050.96
3490.274, 38056.89
3492.202, 38058.71
3494.131, 38049.82
3496.059, 38054.83
3497.988, 38074.36
3499.916, 38072.32
3501.844, 38052.52
3503.773, 38042.04
3505.701, 38023.63
3507.630, 37977.29
3509.558, 37928.60
3511.487, 37887.52
3513.415, 37861.33
3515.344, 37820.73
3517.272, 37816.21
3519.201, 37769.23
3521.129, 37757.66
3523.058, 37762.43
3524.986, 37779.37
3526.915, 37774.21
3528.843, 37774.80
3530.771, 37753.03
3532.700, 37733.33
3534.628, 37692.23
3536.557, 37603.61
3538.485, 37562.55
3540.414, 37530.00
3542.342, 37475.29
3544.271, 37430.19
3546.199, 37409.84
3548.128, 37371.55
3550.056, 37317.30
3551.985, 37297.50
3553.913, 37298.25
3555.842, 37317.11
3557.770, 37311.00
3559.698, 37231.77
3561.627, 37171.05
3563.555, 37144.33
3565.484, 37106.65
3567.412, 37059.82
3569.341, 37038.48
3571.269, 37021.38
3573.198, 36990.07
3575.126, 36949.02
3577.055, 36903.98
3578.983, 36854.34
3580.912, 36803.90
3582.840, 36769.67
3584.769, 36746.65
3586.697, 36720.09
3588.625, 36689.85
3590.554, 36674.01
3592.482, 36613.50
3594.411, 36634.05
3596.339, 36632.16
3598.268, 36600.74
3600.196, 36509.52
3602.125, 36406.61
3604.053, 36355.32
3605.982, 36317.28
3607.910, 36286.60
3609.839, 36231.96
3611.767, 36193.94
3613.696, 36112.32
3615.624, 36096.95
3617.552, 36034.55
3619.481, 35971.09
3621.409, 35947.05
3623.338, 35916.59
3625.266, 35869.44
3627.195, 35856.38
3629.123, 35860.49
3631.052, 35767.82
3632.980, 35671.68
3634.909, 35688.75
3636.837, 35679.62
3638.766, 35597.38
3640.694, 35535.09
3642.623, 35500.23
3644.551, 35471.76
3646.479, 35429.38
3648.408, 35314.24
3650.336, 35229.49
3652.265, 35219.35
3654.193, 35221.43
3656.122, 35225.86
3658.050, 35150.34
3659.979, 35052.35
3661.907, 35041.44
3663.836, 35044.34
3665.764, 35023.95
3667.693, 34991.97
3669.621, 34949.24
3671.550, 34906.06
3673.478, 34869.98
3675.406, 34870.63
3677.335, 34863.68
3679.263, 34803.14
3681.192, 34749.59
3683.120, 34713.56
3685.049, 34697.60
3686.977, 34690.02
3688.906, 34651.90
3690.834, 34601.79
3692.763, 34537.46
3694.691, 34509.36
3696.620, 34531.41
3698.548, 34537.86
3700.477, 34532.70
3702.405, 34547.63
3704.333, 34565.74
3706.262, 34578.15
3708.190, 34570.58
3710.119, 34538.06
3712.047, 34474.63
3713.976, 34395.18
3715.904, 34357.70
3717.833, 34336.69
3719.761, 34326.36
3721.690, 34305.98
3723.618, 34272.79
3725.547, 34234.73
3727.475, 34195.95
3729.404, 34167.23
3731.332, 34150.35
3733.260, 34157.03
3735.189, 34151.90
3737.117, 34130.06
3739.046, 34111.89
3740.974, 34090.68
3742.903, 34025.52
3744.831, 33962.95
3746.760, 33931.04
3748.688, 33922.49
3750.617, 33886.04
3752.545, 33905.83
3754.474, 33860.63
3756.402, 33862.52
3758.331, 33874.82
3760.259, 33873.73
3762.188, 33883.82
3764.116, 33882.71
3766.044, 33895.13
3767.973, 33876.07
3769.901, 33877.16
3771.830, 33865.91
3773.758, 33832.18
3775.687, 33774.21
3777.615, 33704.88
3779.544, 33686.77
3781.472, 33689.15
3783.401, 33675.36
3785.329, 33653.56
3787.258, 33616.34
3789.186, 33592.27
3791.115, 33576.48
3793.043, 33561.14
3794.971, 33533.59
3796.900, 33526.11
3798.828, 33444.15
3800.757, 33492.52
3802.685, 33476.13
3804.614, 33433.41
3806.542, 33458.50
3808.471, 33466.45
3810.399, 33402.97
3812.328, 33339.25
3814.256, 33286.24
3816.185, 33325.17
3818.113, 33261.59
3820.042, 33284.66
3821.970, 33215.68
3823.898, 33207.42
3825.827, 33204.73
3827.755, 33203.25
3829.684, 33222.03
3831.612, 33218.73
3833.541, 33128.54
3835.469, 33077.64
3837.398, 33080.76
3839.326, 33037.97
3841.255, 32979.46
3843.183, 32963.91
3845.112, 32958.93
3847.040, 32956.72
3848.969, 32943.55
3850.897, 32916.52
3852.825, 32858.86
3854.754, 32807.57
3856.682, 32792.11
3858.611, 32804.18
3860.539, 32781.49
3862.468, 32824.58
3864.396, 32779.77
3866.325, 32798.08
3868.253, 32801.42
3870.182, 32748.35
3872.110, 32702.43
3874.039, 32686.44
3875.967, 32754.40
3877.896, 32820.09
3879.824, 32815.21
3881.752, 32808.85
3883.681, 32811.54
3885.609, 32816.04
3887.538, 32828.54
3889.466, 32866.92
3891.395, 32894.81
3893.323, 32896.80
3895.252, 32879.77
3897.180, 32854.57
3899.109, 32846.24
3901.037, 32857.96
3902.966, 32903.78
3904.894, 32935.50
3906.823, 32950.41
3908.751, 32976.18
3910.679, 32999.74
3912.608, 32996.23
3914.536, 33001.31
3916.465, 33025.61
3918.393, 33020.24
3920.322, 33013.89
3922.250, 33072.00
3924.179, 33105.40
3926.107, 33076.99
3928.036, 33079.99
3929.964, 33107.42
3931.893, 33115.95
3933.821, 33110.21
3935.750, 33086.95
3937.678, 33073.16
3939.606, 33073.37
3941.535, 33080.04
3943.463, 33092.29
3945.392, 33114.45
3947.320, 33127.99
3949.249, 33126.66
3951.177, 33128.64
3953.106, 33130.02
3955.034, 33135.20
3956.963, 33140.90
3958.891, 33147.66
3960.820, 33158.48
3962.748, 33164.02
3964.677, 33178.27
3966.605, 33195.20
3968.533, 33216.02
3970.462, 33200.24
3972.390, 33156.88
3974.319, 33145.09
3976.247, 33147.75
3978.176, 33161.57
3980.104, 33181.10
3982.033, 33197.91
3983.961, 33230.03
3985.890, 33263.96
3987.818, 33284.59
3989.747, 33277.56
3991.675, 33247.60
3993.604, 33241.42
3995.532, 33246.56
3997.460, 33266.34
3999.389, 33293.18
4001.317, 33291.04
4003.246, 33316.44
4005.174, 33294.31
4007.103, 33298.54
4009.031, 33296.13
4010.960, 33286.44
4012.888, 33292.46
4014.817, 33282.20
4016.745, 33272.56
4018.674, 33289.38
4020.602, 33319.90
4022.531, 33343.92
4024.459, 33356.11
4026.387, 33351.09
4028.316, 33341.59
4030.244, 33354.82
4032.173, 33352.22
4034.101, 33330.36
4036.030, 33344.93
4037.958, 33379.77
4039.887, 33380.70
4041.815, 33365.95
4043.744, 33351.04
4045.672, 33349.95
4047.601, 33353.93
4049.529, 33357.28
4051.458, 33361.88
4053.386, 33360.94
4055.314, 33362.08
4057.243, 33357.71
4059.171, 33359.13
4061.100, 33355.99
4063.028, 33351.92
4064.957, 33362.04
4066.885, 33366.65
4068.814, 33380.86
4070.742, 33415.08
4072.671, 33455.66
4074.599, 33455.52
4076.528, 33447.48
4078.456, 33398.39
4080.385, 33371.66
4082.313, 33407.37
4084.241, 33397.32
4086.170, 33385.93
4088.098, 33384.50
4090.027, 33368.26
4091.955, 33388.70
4093.884, 33405.23
4095.812, 33396.34
4097.741, 33373.43
4099.669, 33370.46
4101.598, 33299.12
4103.526, 33336.74
4105.455, 33328.02
4107.383, 33307.51
4109.312, 33347.50
4111.240, 33387.68
4113.168, 33407.93
4115.097, 33417.38
4117.025, 33410.19
4118.954, 33400.35
4120.882, 33392.41
4122.811, 33364.90
4124.739, 33363.98
4126.668, 33341.09
4128.596, 33327.60
4130.525, 33315.78
4132.453, 33306.52
4134.382, 33295.40
4136.310, 33299.12
4138.239, 33327.00
4140.167, 33345.07
4142.096, 33352.20
4144.024, 33346.21
4145.953, 33360.40
4147.881, 33358.18
4149.810, 33353.71
4151.738, 33356.75
4153.667, 33340.05
4155.595, 33328.91
4157.523, 33318.77
4159.452, 33308.87
4161.380, 33320.31
4163.309, 33364.82
4165.237, 33386.53
4167.166, 33375.65
4169.094, 33380.50
4171.022, 33379.60
4172.951, 33363.89
4174.879, 33342.23
4176.808, 33314.68
4178.736, 33301.55
4180.665, 33308.40
4182.593, 33317.25
4184.522, 33328.44
4186.450, 33347.30
4188.379, 33346.00
4190.307, 33327.19
4192.236, 33294.38
4194.164, 33271.35
4196.093, 33266.20
4198.021, 33255.87
4199.950, 33244.70
4201.878, 33235.28
4203.807, 33236.88
4205.735, 33243.06
4207.664, 33229.23
4209.592, 33203.58
4211.521, 33171.09
4213.449, 33147.09
4215.377, 33134.98
4217.306, 33152.44
4219.234, 33154.43
4221.163, 33145.55
4223.091, 33085.34
4225.020, 33120.08
4226.948, 33079.90
4228.876, 33044.45
4230.805, 33064.82
4232.733, 33074.98
4234.662, 33067.90
4236.590, 33070.68
4238.519, 33068.16
4240.447, 33051.28
4242.376, 33056.27
4244.304, 33040.10
4246.233, 33024.89
4248.161, 32994.34
4250.090, 32936.75
4252.018, 32879.36
4253.947, 32826.39
4255.875, 32781.42
4257.804, 32754.77
4259.732, 32750.71
4261.661, 32731.13
4263.589, 32687.41
4265.518, 32674.35
4267.446, 32648.10
4269.375, 32614.62
4271.303, 32595.56
4273.231, 32551.14
4275.160, 32499.13
4277.088, 32495.18
4279.017, 32517.81
4280.945, 32499.54
4282.874, 32446.79
4284.802, 32353.59
4286.730, 32297.20
4288.659, 32272.46
4290.587, 32290.86
4292.516, 32280.04
4294.444, 32225.65
4296.373, 32166.31
4298.301, 32118.01
4300.230, 32095.24
4302.158, 32082.41
4304.087, 32072.72
4306.015, 32050.53
4307.944, 32028.47
4309.872, 32017.12
4311.801, 31969.43
4313.729, 31910.72
4315.658, 31915.08
4317.586, 31907.08
4319.515, 31867.58
4321.443, 31781.18
4323.372, 31697.77
4325.300, 31676.79
4327.229, 31649.54
4329.157, 31609.11
4331.085, 31595.81
4333.014, 31589.96
4334.942, 31583.92
4336.871, 31551.82
4338.799, 31499.63
4340.728, 31478.66
4342.656, 31392.96
4344.584, 31398.31
4346.513, 31342.08
4348.441, 31280.83
4350.370, 31288.45
4352.298, 31263.93
4354.227, 31206.99
4356.155, 31193.88
4358.084, 31170.22
4360.012, 31103.47
4361.941, 31053.11
4363.869, 31019.01
4365.798, 30994.07
4367.726, 30973.83
4369.655, 30954.72
4371.583, 30939.94
4373.512, 30912.95
4375.440, 30846.15
4377.369, 30819.21
4379.297, 30811.68
4381.226, 30725.81
4383.154, 30650.41
4385.083, 30617.96
4387.011, 30595.62
4388.939, 30577.19
4390.868, 30558.12
4392.796, 30544.10
4394.725, 30528.82
4396.653, 30456.28
4398.582, 30392.31
4400.510, 30366.23
4402.438, 30338.31
4404.367, 30316.53
4406.295, 30327.37
4408.224, 30310.04
4410.152, 30264.26
4412.081, 30269.29
4414.009, 30241.87
4415.938, 30122.78
4417.866, 30052.86
4419.795, 30019.65
4421.723, 29997.88
4423.652, 29963.05
4425.580, 29911.78
4427.509, 29855.10
4429.437, 29811.68
4431.366, 29793.53
4433.294, 29797.89
4435.223, 29797.97
4437.151, 29739.24
4439.080, 29665.94
4441.008, 29592.06
4442.937, 29580.68
4444.865, 29592.54
4446.793, 29606.48
4448.722, 29578.20
4450.650, 29523.85
4452.579, 29479.89
4454.507, 29424.99
4456.436, 29382.35
4458.364, 29331.10
4460.292, 29303.94
4462.221, 29260.24
4464.149, 29237.45
4466.078, 29222.60
4468.006, 29182.97
4469.935, 29156.75
4471.863, 29143.21
4473.792, 29108.49
4475.720, 29064.48
4477.649, 29020.12
4479.577, 28991.57
4481.506, 28973.68
4483.434, 28930.79
4485.363, 28944.79
4487.291, 28915.55
4489.220, 28875.19
4491.148, 28822.17
4493.077, 28758.74
4495.005, 28719.20
4496.934, 28671.38
4498.862, 28622.34
4500.791, 28599.07
4502.719, 28541.71
4504.647, 28522.57
4506.576, 28506.85
4508.504, 28484.95
4510.433, 28431.94
4512.361, 28370.21
4514.290, 28312.13
4516.218, 28293.25
4518.146, 28295.14
4520.075, 28296.96
4522.003, 28255.81
4523.932, 28184.09
4525.860, 28184.82
4527.789, 28157.57
4529.717, 28046.72
4531.646, 28058.40
4533.574, 28081.78
4535.503, 28013.69
4537.431, 27959.51
4539.360, 27927.82
4541.288, 27919.31
4543.217, 27912.34
4545.145, 27897.43
4547.074, 27860.96
4549.002, 27816.37
4550.931, 27769.53
4552.859, 27755.98
4554.788, 27738.03
4556.716, 27660.70
4558.645, 27614.35
4560.573, 27590.95
4562.501, 27555.14
4564.430, 27515.39
4566.358, 27475.29
4568.287, 27438.93
4570.215, 27413.07
4572.144, 27400.83
4574.072, 27389.07
4576.000, 27372.63
4577.929, 27343.68
4579.857, 27304.57
4581.786, 27265.27
4583.714, 27262.59
4585.643, 27228.65
4587.571, 27161.21
4589.500, 27112.41
4591.428, 27082.83
4593.357, 27072.69
4595.285, 27054.56
4597.214, 27011.44
4599.142, 26897.94
4601.071, 26860.24
4602.999, 26857.88
4604.928, 26814.63
4606.856, 26788.41
4608.785, 26777.05
4610.713, 26729.50
4612.642, 26695.21
4614.570, 26685.92
4616.499, 26652.79
4618.427, 26620.54
4620.355, 26612.96
4622.284, 26564.27
4624.212, 26503.40
4626.141, 26455.96
4628.069, 26437.60
4629.998, 26432.47
4631.926, 26403.66
4633.854, 26391.04
4635.783, 26390.51
4637.711, 26368.21
4639.640, 26319.92
4641.568, 26246.93
4643.497, 26149.71
4645.425, 26099.26
4647.354, 26135.66
4649.282, 26150.61
4651.211, 26134.91
4653.139, 26063.87
4655.068, 26051.66
4656.996, 26053.88
4658.925, 25961.37
4660.853, 25929.46
4662.782, 25945.44
4664.710, 25876.71
4666.639, 25799.77
4668.567, 25739.48
4670.496, 25741.96
4672.424, 25735.94
4674.353, 25684.86
4676.281, 25647.72
4678.209, 25632.51
4680.138, 25650.29
4682.066, 25607.46
4683.995, 25537.06
4685.923, 25462.95
4687.852, 25454.39
4689.780, 25471.23
4691.708, 25437.81
4693.637, 25363.81
4695.565, 25279.63
4697.494, 25294.58
4699.422, 25278.08
4701.351, 25212.44
4703.279, 25148.83
4705.208, 25109.94
4707.136, 25103.58
4709.065, 25107.28
4710.993, 25084.93
4712.922, 25015.85
4714.850, 24993.99
4716.779, 24981.30
4718.707, 24939.75
4720.636, 24916.23
4722.564, 24889.21
4724.493, 24818.66
4726.421, 24793.06
4728.350, 24793.32
4730.278, 24782.59
4732.207, 24733.42
4734.135, 24672.79
4736.063, 24699.81
4737.992, 24679.14
4739.920, 24599.81
4741.849, 24546.13
4743.777, 24475.07
4745.706, 24389.61
4747.634, 24382.31
4749.563, 24381.84
4751.491, 24356.15
4753.419, 24338.67
4755.348, 24321.21
4757.276, 24298.20
4759.205, 24225.46
4761.133, 24160.14
4763.062, 24156.98
4764.990, 24137.93
4766.919, 24102.37
4768.847, 24048.57
4770.776, 23987.93
4772.704, 23936.32
4774.633, 23920.55
4776.561, 23871.66
4778.490, 23819.59
4780.418, 23827.36
4782.347, 23833.10
4784.275, 23830.67
4786.204, 23826.75
4788.132, 23783.38
4790.061, 23717.05
4791.989, 23699.53
4793.917, 23666.21
4795.846, 23611.29
4797.774, 23544.20
4799.703, 23502.21
4801.631, 23488.71
4803.560, 23478.83
4805.488, 23443.20
4807.417, 23377.61
4809.345, 23341.05
4811.273, 23305.22
4813.202, 23268.60
4815.130, 23278.12
4817.059, 23291.81
4818.987, 23290.11
4820.916, 23229.24
4822.844, 23171.65
4824.773, 23138.73
4826.701, 23058.12
4828.630, 22997.20
4830.558, 22997.70
4832.487, 22976.48
4834.415, 22947.18
4836.344, 22916.27
4838.272, 22893.43
4840.201, 22859.73
4842.129, 22799.63
4844.058, 22769.65
4845.986, 22745.67
4847.915, 22710.81
4849.843, 22691.37
4851.771, 22674.02
4853.700, 22650.01
4855.628, 22617.62
4857.557, 22569.36
4859.485, 22495.73
4861.414, 22469.82
4863.342, 22458.62
4865.271, 22432.99
4867.199, 22398.54
4869.127, 22360.93
4871.056, 22322.61
4872.984, 22325.04
4874.913, 22320.28
4876.841, 22258.91
4878.770, 22250.82
4880.698, 22232.84
4882.627, 22142.02
4884.555, 22099.19
4886.484, 22058.78
4888.412, 21975.05
4890.341, 21973.81
4892.269, 21975.12
4894.198, 21896.28
4896.126, 21898.38
4898.055, 21899.21
4899.983, 21829.13
4901.912, 21801.36
4903.840, 21793.53
4905.769, 21792.08
4907.697, 21746.29
4909.625, 21700.15
4911.554, 21683.13
4913.482, 21616.57
4915.411, 21559.21
4917.339, 21560.34
4919.268, 21545.15
4921.196, 21507.94
4923.125, 21446.84
4925.053, 21410.29
4926.981, 21386.26
4928.910, 21368.72
4930.838, 21326.06
4932.767, 21256.40
4934.695, 21167.02
4936.624, 21156.89
4938.552, 21161.73
4940.481, 21150.42
4942.409, 21090.24
4944.338, 21054.52
4946.266, 21060.67
4948.195, 21012.81
4950.123, 20981.08
4952.052, 20972.91
4953.980, 20908.84
4955.909, 20866.58
4957.837, 20848.96
4959.766, 20751.93
4961.694, 20721.02
4963.623, 20744.70
4965.551, 20708.35
4967.479, 20652.32
4969.408, 20596.39
4971.336, 20563.15
4973.265, 20562.85
4975.193, 20567.63
4977.122, 20520.03
4979.050, 20498.94
4980.979, 20476.32
4982.907, 20386.22
4984.835, 20353.43
4986.764, 20345.15
4988.692, 20316.54
4990.621, 20317.40
4992.549, 20310.31
4994.478, 20250.95
4996.406, 20213.35
4998.335, 20194.57
5000.263, 20191.00
5002.192, 20166.85
5004.120, 20121.38
5006.049, 20060.12
5007.977, 20055.11
5009.906, 20009.34
5011.834, 19909.59
5013.763, 19959.47
5015.691, 19960.90
5017.620, 19892.63
5019.548, 19857.00
5021.477, 19806.19
5023.405, 19753.99
5025.333, 19766.68
5027.262, 19756.13
5029.190, 19721.81
5031.119, 19679.47
5033.047, 19628.66
5034.976, 19591.38
5036.904, 19610.07
5038.833, 19570.29
5040.761, 19510.73
5042.689, 19461.69
5044.618, 19424.68
5046.546, 19397.92
5048.475, 19379.25
5050.403, 19355.84
5052.332, 19333.07
5054.260, 19307.24
5056.189, 19221.38
5058.117, 19184.80
5060.046, 19188.77
5061.974, 19136.30
5063.903, 19111.75
5065.831, 19109.60
5067.760, 19108.16
5069.688, 19038.67
5071.617, 18960.06
5073.545, 18943.67
5075.474, 18911.22
5077.402, 18882.41
5079.331, 18878.78
5081.259, 18840.49
5083.188, 18795.62
5085.116, 18762.68
5087.044, 18818.21
5088.973, 18812.73
5090.901, 18734.98
5092.830, 18689.10
5094.758, 18658.22
5096.687, 18627.54
5098.615, 18568.82
5100.543, 18566.58
5102.472, 18582.60
5104.400, 18565.23
5106.329, 18566.34
5108.257, 18539.56
5110.186, 18453.05
5112.114, 18446.58
5114.043, 18424.42
5115.971, 18368.40
5117.900, 18347.46
5119.828, 18311.40
5121.757, 18269.66
5123.685, 18268.97
5125.614, 18268.00
5127.542, 18256.44
5129.471, 18228.50
5131.399, 18205.76
5133.328, 18167.66
5135.256, 18100.40
5137.185, 18084.88
5139.113, 18056.20
5141.042, 17998.06
5142.970, 17960.09
5144.898, 17942.45
5146.827, 17934.50
5148.755, 17917.76
5150.684, 17892.90
5152.612, 17857.26
5154.541, 17797.82
5156.469, 17792.09
5158.397, 17786.27
5160.326, 17752.41
5162.254, 17728.82
5164.183, 17680.77
5166.111, 17613.67
5168.040, 17580.64
5169.968, 17554.82
5171.897, 17541.67
5173.825, 17562.55
5175.754, 17516.17
5177.682, 17465.34
5179.611, 17462.95
5181.539, 17425.82
5183.468, 17391.15
5185.396, 17371.08
5187.325, 17342.82
5189.253, 17323.23
5191.182, 17297.59
5193.110, 17227.43
5195.039, 17211.77
5196.967, 17205.35
5198.896, 17157.31
5200.824, 17125.96
5202.752, 17120.48
5204.681, 17133.40
5206.609, 17117.98
5208.538, 17068.89
5210.466, 17008.10
5212.395, 16975.59
5214.323, 16949.55
5216.251, 16919.67
5218.180, 16875.34
5220.108, 16886.00
5222.037, 16860.52
5223.965, 16786.22
5225.894, 16749.54
5227.822, 16721.08
5229.751, 16693.13
5231.679, 16658.19
5233.608, 16639.77
5235.536, 16631.93
5237.465, 16627.14
5239.393, 16572.08
5241.322, 16515.54
5243.250, 16480.59
5245.179, 16499.82
5247.107, 16489.07
5249.036, 16450.49
5250.964, 16392.14
5252.893, 16365.22
5254.821, 16348.43
5256.750, 16327.34
5258.678, 16278.86
5260.606, 16262.83
5262.535, 16262.40
5264.463, 16213.36
5266.392, 16190.34
5268.320, 16171.93
5270.249, 16138.03
5272.177, 16075.45
5274.105, 16039.07
5276.034, 16029.88
5277.962, 16004.00
5279.891, 15972.67
5281.819, 15937.52
5283.748, 15891.82
5285.676, 15890.46
5287.605, 15869.82
5289.533, 15816.89
5291.462, 15785.14
5293.390, 15767.85
5295.319, 15747.04
5297.247, 15698.67
5299.176, 15652.09
5301.104, 15616.25
5303.033, 15595.75
5304.961, 15613.97
5306.890, 15599.76
5308.818, 15561.91
5310.747, 15539.82
5312.675, 15492.43
5314.604, 15454.66
5316.532, 15446.37
5318.460, 15409.41
5320.389, 15382.96
5322.317, 15362.59
5324.246, 15320.91
5326.174, 15270.68
5328.103, 15236.02
5330.031, 15223.28
5331.959, 15164.33
5333.888, 15138.50
5335.816, 15134.60
5337.745, 15087.66
5339.673, 15041.43
5341.602, 15007.48
5343.530, 14988.19
5345.459, 14966.68
5347.387, 14943.92
5349.316, 14918.14
5351.244, 14883.58
5353.173, 14861.83
5355.101, 14840.76
5357.030, 14812.75
5358.958, 14781.35
5360.887, 14760.43
5362.815, 14743.15
5364.744, 14714.19
5366.672, 14694.12
5368.601, 14674.35
5370.529, 14650.67
5372.458, 14636.85
5374.386, 14597.28
5376.314, 14545.35
5378.243, 14504.81
5380.171, 14479.88
5382.100, 14445.57
5384.028, 14395.17
5385.957, 14329.10
5387.885, 14330.36
5389.813, 14345.09
5391.742, 14312.39
5393.670, 14276.09
5395.599, 14273.42
5397.527, 14281.41
5399.456, 14209.02
5401.384, 14207.26
5403.313, 14188.65
5405.241, 14101.66
5407.170, 14082.00
5409.098, 14072.06
5411.027, 14049.08
5412.955, 13994.12
5414.884, 13961.85
5416.812, 13938.40
5418.741, 13915.65
5420.669, 13897.88
5422.598, 13827.38
5424.526, 13776.68
5426.455, 13808.48
5428.383, 13761.24
5430.312, 13705.53
5432.240, 13673.82
5434.168, 13698.37
5436.097, 13646.11
5438.025, 13597.13
5439.954, 13590.65
5441.882, 13583.74
5443.811, 13562.56
5445.739, 13533.81
5447.667, 13507.20
5449.596, 13478.55
5451.524, 13456.30
5453.453, 13432.57
5455.381, 13376.94
5457.310, 13356.45
5459.238, 13323.07
5461.167, 13261.95
5463.095, 13260.09
5465.024, 13265.03
5466.952, 13259.79
5468.881, 13236.59
5470.809, 13158.54
5472.738, 13131.08
5474.666, 13138.15
5476.595, 13077.60
5478.523, 13055.98
5480.452, 13053.20
5482.380, 13044.53
5484.309, 12975.28
5486.237, 12947.06
5488.166, 12937.76
5490.094, 12917.71
5492.022, 12874.06
5493.951, 12842.28
5495.879, 12819.98
5497.808, 12791.95
5499.736, 12778.08
##END=



