##NAMES=Chabazite-Ca
##RRUFFID=R061096
##IDEAL CHEMISTRY=Ca_2_[Al_4_Si_8_O_24_]·13H_2_O
##LOCALITY=Tyul'bnyunuai Valley, Lovosero, Kola Pen, Russia
##OWNER=RRUFF
##SOURCE=Michael Scott
##DESCRIPTION=Colorless rhombohedral crystals associated with aegirine
##STATUS=The identification of this mineral is confirmed by single-crystal X-ray diffraction and chemical analysis
##URL=https://www.rruff.net/odr/rruff_sample/R061096
##MEASURED CHEMISTRY=(Ca_0.58_K_0.23_Na_0.03_)(Si_4.58_Al_1.42_)O_12_·4.74H_2_O
##DIFFRACTION SAMPLE DESCRIPTION=Single crystal, powder profile is calculated
##CELL PARAMETERS=a: 13.735 b: 13.735 c: 14.933 alpha: 90 beta: 90 gamma: 120 volume: 2439.9 crystal system: hexagonal
##FILETYPE=Raman RAW
##RAMAN WAVELENGTH=785

127.3806, 921.4841
129.3091, 1290.914
131.2375, 1665.980
133.1660, 1969.588
135.0945, 2205.595
137.0229, 2391.043
138.9514, 2502.706
140.8799, 2686.002
142.8083, 3005.618
144.7368, 3382.422
146.6653, 3844.530
148.5938, 4128.959
150.5222, 4129.449
152.4507, 4003.761
154.3792, 3834.268
156.3076, 3589.118
158.2361, 3383.480
160.1646, 3238.871
162.0930, 3140.523
164.0215, 3081.739
165.9500, 3056.781
167.8784, 3038.014
169.8069, 3031.596
171.7354, 3008.411
173.6638, 2954.719
175.5923, 2888.708
177.5208, 2816.691
179.4492, 2740.055
181.3777, 2662.844
183.3062, 2582.469
185.2346, 2512.442
187.1631, 2462.690
189.0916, 2410.685
191.0200, 2346.020
192.9485, 2275.694
194.8770, 2209.627
196.8054, 2147.738
198.7339, 2084.573
200.6624, 2017.586
202.5908, 1956.881
204.5193, 1906.588
206.4478, 1861.238
208.3762, 1815.673
210.3047, 1772.583
212.2332, 1741.849
214.1616, 1723.605
216.0901, 1700.915
218.0186, 1665.368
219.9470, 1634.761
221.8755, 1623.173
223.8040, 1612.802
225.7324, 1579.959
227.6609, 1530.925
229.5894, 1496.067
231.5178, 1477.467
233.4463, 1464.576
235.3748, 1454.225
237.3032, 1449.869
239.2317, 1458.595
241.1602, 1471.181
243.0886, 1472.259
245.0171, 1463.792
246.9456, 1456.693
248.8740, 1451.604
250.8025, 1448.578
252.7310, 1445.671
254.6594, 1446.814
256.5879, 1460.151
258.5164, 1476.728
260.4448, 1473.983
262.3733, 1454.974
264.3018, 1454.462
266.2302, 1487.487
268.1587, 1512.545
270.0872, 1511.568
272.0156, 1508.664
273.9441, 1517.951
275.8726, 1536.358
277.8010, 1558.161
279.7295, 1583.160
281.6580, 1608.167
283.5864, 1632.299
285.5149, 1657.775
287.4434, 1687.144
289.3718, 1715.839
291.3003, 1743.363
293.2288, 1766.947
295.1572, 1777.806
297.0857, 1777.222
299.0142, 1787.572
300.9426, 1817.921
302.8711, 1845.119
304.7996, 1857.604
306.7280, 1873.240
308.6565, 1905.543
310.5850, 1946.517
312.5134, 1981.280
314.4419, 2011.212
316.3704, 2048.987
318.2988, 2102.911
320.2273, 2145.063
322.1558, 2176.070
324.0842, 2188.630
326.0127, 2169.311
327.9412, 2135.932
329.8697, 2118.793
331.7981, 2109.292
333.7266, 2068.505
335.6551, 1985.110
337.5835, 1907.043
339.5120, 1843.513
341.4405, 1784.334
343.3689, 1729.533
345.2974, 1675.083
347.2259, 1612.920
349.1543, 1549.285
351.0828, 1499.722
353.0113, 1465.698
354.9397, 1430.949
356.8682, 1386.901
358.7967, 1352.830
360.7251, 1335.479
362.6536, 1324.722
364.5821, 1318.387
366.5105, 1312.492
368.4390, 1298.323
370.3675, 1278.548
372.2959, 1270.265
374.2244, 1278.360
376.1529, 1286.978
378.0813, 1295.855
380.0098, 1302.802
381.9383, 1307.619
383.8667, 1309.774
385.7952, 1306.239
387.7237, 1300.523
389.6521, 1301.117
391.5806, 1308.287
393.5091, 1307.475
395.4375, 1291.748
397.3660, 1278.565
399.2945, 1266.407
401.2229, 1261.365
403.1514, 1268.880
405.0799, 1282.590
407.0083, 1297.551
408.9368, 1313.192
410.8653, 1327.223
412.7937, 1338.884
414.7222, 1355.635
416.6507, 1373.877
418.5791, 1404.529
420.5076, 1450.921
422.4361, 1507.151
424.3645, 1568.597
426.2930, 1640.383
428.2215, 1725.991
430.1499, 1825.527
432.0784, 1938.716
434.0069, 2063.975
435.9353, 2213.680
437.8638, 2379.398
439.7923, 2586.313
441.7207, 2861.667
443.6492, 3145.837
445.5777, 3416.563
447.5061, 3682.930
449.4346, 3962.219
451.3631, 4240.669
453.2915, 4497.844
455.2200, 4736.142
457.1485, 4898.136
459.0769, 4962.162
461.0054, 4979.741
462.9339, 4912.271
464.8623, 4855.913
466.7908, 4852.514
468.7193, 4856.689
470.6477, 4829.421
472.5762, 4794.425
474.5047, 4803.254
476.4331, 4843.478
478.3616, 4798.667
480.2901, 4661.286
482.2185, 4454.782
484.1470, 4153.603
486.0755, 3834.171
488.0039, 3479.424
489.9324, 3144.708
491.8609, 2857.998
493.7893, 2600.878
495.7178, 2352.264
497.6463, 2121.147
499.5747, 1927.367
501.5032, 1771.553
503.4317, 1638.207
505.3601, 1530.576
507.2886, 1440.097
509.2171, 1372.140
511.1455, 1311.225
513.0740, 1254.588
515.0024, 1203.406
516.9309, 1159.701
518.8594, 1120.638
520.7878, 1083.642
522.7163, 1049.384
524.6448, 1019.611
526.5732, 994.2927
528.5017, 971.3546
530.4302, 948.5638
532.3586, 935.6339
534.2871, 937.8958
536.2156, 938.3087
538.1440, 933.2599
540.0725, 925.4404
542.0010, 913.6384
543.9294, 902.2934
545.8579, 897.8174
547.7864, 894.0680
549.7148, 878.3898
551.6433, 853.3621
553.5718, 837.4341
555.5002, 832.4990
557.4287, 827.3932
559.3572, 822.7971
561.2856, 815.9411
563.2141, 805.5662
565.1426, 794.6580
567.0710, 780.8081
568.9995, 771.8130
570.9280, 777.3199
572.8564, 784.8988
574.7849, 782.5493
576.7134, 773.8762
578.6419, 764.4194
580.5704, 754.8986
582.4988, 756.2369
584.4273, 771.8928
586.3558, 777.3022
588.2842, 769.7578
590.2127, 760.6237
592.1412, 751.7759
594.0696, 741.5596
595.9981, 724.7770
597.9266, 713.2825
599.8550, 719.4921
601.7835, 727.4377
603.7120, 719.5765
605.6404, 706.0888
607.5689, 709.6272
609.4974, 724.6910
611.4258, 718.4898
613.3543, 688.6921
615.2828, 673.5684
617.2112, 675.1859
619.1397, 679.1212
621.0682, 684.7095
622.9966, 688.1682
624.9251, 686.3873
626.8536, 686.2527
628.7820, 695.5817
630.7105, 701.8069
632.6390, 695.3012
634.5674, 684.6996
636.4959, 677.0842
638.4244, 672.7864
640.3528, 673.9730
642.2813, 679.3079
644.2098, 682.3583
646.1382, 683.1080
648.0667, 677.6409
649.9952, 664.7875
651.9236, 657.8932
653.8521, 660.8499
655.7806, 661.0418
657.7090, 653.9075
659.6375, 646.5827
661.5660, 640.7411
663.4944, 636.5997
665.4229, 635.5218
667.3514, 634.7650
669.2798, 632.1330
671.2083, 628.5609
673.1368, 624.0175
675.0652, 620.0052
676.9937, 622.3269
678.9222, 628.9509
680.8506, 626.4784
682.7791, 615.7161
684.7076, 611.1752
686.6360, 614.3882
688.5645, 613.5614
690.4930, 605.9808
692.4214, 598.9566
694.3499, 594.4432
696.2784, 589.9726
698.2068, 582.7260
700.1353, 578.3564
702.0638, 578.9055
703.9922, 583.0001
705.9207, 594.1094
707.8492, 603.9938
709.7776, 604.5355
711.7061, 598.7687
713.6346, 587.2646
715.5630, 574.4697
717.4915, 572.8675
719.4200, 579.8460
721.3484, 586.7437
723.2769, 593.1024
725.2054, 596.3896
727.1339, 596.4460
729.0623, 592.6718
730.9908, 583.9318
732.9193, 576.9683
734.8477, 574.2029
736.7762, 569.9633
738.7047, 557.4700
740.6331, 552.0993
742.5616, 563.7817
744.4901, 574.3251
746.4185, 572.6729
748.3470, 572.0335
750.2755, 583.9122
752.2039, 597.1030
754.1324, 597.8948
756.0609, 597.2593
757.9893, 613.2800
759.9178, 634.9781
761.8463, 641.3762
763.7747, 638.4206
765.7032, 639.6517
767.6317, 644.0408
769.5601, 646.6926
771.4886, 647.5784
773.4171, 648.6609
775.3455, 650.1409
777.2740, 648.6537
779.2025, 642.8019
781.1309, 639.9155
783.0594, 644.2766
784.9879, 642.3726
786.9163, 626.3217
788.8448, 614.6459
790.7733, 615.8048
792.7017, 611.7849
794.6302, 592.6415
796.5587, 575.9706
798.4871, 572.9893
800.4156, 567.8331
802.3441, 550.2919
804.2725, 529.8089
806.2010, 508.9723
808.1295, 492.3954
810.0579, 487.2652
811.9864, 485.7071
813.9149, 478.6586
815.8433, 470.0150
817.7718, 464.6974
819.7003, 461.7630
821.6287, 461.8712
823.5572, 462.0899
825.4857, 451.8499
827.4141, 434.8084
829.3426, 428.9489
831.2711, 433.2035
833.1995, 432.6811
835.1280, 426.9185
837.0565, 421.8239
838.9849, 415.8462
840.9134, 423.5000
842.8419, 454.6825
844.7703, 466.0370
846.6988, 446.1013
848.6273, 431.1675
850.5557, 421.0522
852.4842, 416.9048
854.4127, 422.9954
856.3411, 427.1673
858.2696, 427.2688
860.1981, 427.0540
862.1265, 425.3307
864.0550, 426.7766
865.9835, 435.8469
867.9119, 442.4087
869.8404, 443.2729
871.7689, 440.7574
873.6973, 433.9244
875.6258, 426.9815
877.5543, 421.2754
879.4827, 417.1266
881.4112, 415.1066
883.3397, 414.1990
885.2681, 414.0858
887.1966, 414.3924
889.1251, 413.2324
891.0535, 414.2859
892.9820, 426.5050
894.9105, 435.6096
896.8389, 423.1097
898.7674, 406.9889
900.6959, 406.1155
902.6243, 412.1629
904.5528, 417.7061
906.4813, 421.6439
908.4097, 421.9882
910.3382, 420.0231
912.2667, 416.2328
914.1951, 412.7046
916.1236, 414.7340
918.0521, 419.2922
919.9805, 418.5559
921.9090, 415.5344
923.8375, 419.0962
925.7659, 426.4483
927.6944, 429.4778
929.6229, 429.0021
931.5513, 426.1368
933.4798, 422.5209
935.4083, 425.9683
937.3367, 434.7926
939.2652, 440.7652
941.1937, 444.4619
943.1221, 450.9024
945.0506, 458.5949
946.9791, 454.8330
948.9075, 441.6057
950.8360, 435.6121
952.7645, 436.5035
954.6929, 441.7957
956.6214, 451.0043
958.5499, 457.1406
960.4783, 460.6058
962.4068, 469.0034
964.3353, 481.6483
966.2637, 482.8953
968.1922, 473.6811
970.1207, 477.8631
972.0491, 494.1817
973.9776, 496.0541
975.9061, 484.4521
977.8345, 480.7377
979.7630, 484.4000
981.6915, 481.9265
983.6199, 474.0095
985.5484, 474.6898
987.4769, 483.3661
989.4053, 488.1895
991.3338, 489.4379
993.2623, 494.8707
995.1907, 503.7244
997.1192, 503.7374
999.0477, 496.6244
1000.976, 504.3630
1002.905, 524.2421
1004.833, 525.8127
1006.762, 512.2410
1008.690, 515.1090
1010.618, 531.8007
1012.547, 539.3280
1014.475, 538.8240
1016.404, 540.2133
1018.332, 543.2983
1020.261, 545.9525
1022.189, 548.1597
1024.118, 549.6136
1026.046, 550.7922
1027.975, 553.3544
1029.903, 557.4562
1031.832, 565.9999
1033.760, 575.8948
1035.688, 573.4243
1037.617, 564.4672
1039.545, 570.4750
1041.474, 583.3675
1043.402, 578.2325
1045.331, 564.5282
1047.259, 565.1278
1049.188, 573.7369
1051.116, 578.4100
1053.045, 580.6547
1054.973, 583.5083
1056.902, 585.7023
1058.830, 582.4388
1060.759, 579.4881
1062.687, 586.8867
1064.615, 598.3340
1066.544, 606.3528
1068.472, 612.7896
1070.401, 618.2144
1072.329, 624.9698
1074.258, 636.8553
1076.186, 649.6069
1078.115, 658.0375
1080.043, 667.3005
1081.972, 685.5670
1083.900, 700.7808
1085.829, 702.1094
1087.757, 700.9061
1089.686, 701.8173
1091.614, 705.5353
1093.543, 712.7955
1095.471, 722.4110
1097.400, 739.8964
1099.328, 749.6877
1101.256, 738.9451
1103.185, 732.5190
1105.113, 740.9707
1107.042, 747.8455
1108.970, 749.5928
1110.899, 749.7989
1112.827, 746.3343
1114.756, 746.4642
1116.684, 755.5032
1118.613, 757.9971
1120.541, 749.8132
1122.470, 745.7602
1124.398, 748.0087
1126.327, 746.2591
1128.255, 739.6837
1130.183, 734.9896
1132.112, 732.3839
1134.040, 726.8432
1135.969, 718.5657
1137.897, 710.5423
1139.826, 702.1860
1141.754, 687.5404
1143.683, 671.1453
1145.611, 671.2968
1147.540, 677.9819
1149.468, 668.2531
1151.397, 652.3937
1153.325, 649.2741
1155.254, 645.6692
1157.182, 620.9799
1159.110, 595.8492
1161.039, 589.9888
1162.967, 585.5195
1164.896, 568.8773
1166.824, 553.4111
1168.753, 546.3271
1170.681, 541.9645
1172.610, 541.1346
1174.538, 533.7320
1176.467, 512.0723
1178.395, 499.1187
1180.324, 504.6581
1182.252, 499.3311
1184.181, 474.2054
1186.109, 462.7852
1188.037, 470.7083
1189.966, 472.1877
1191.894, 466.0043
1193.823, 458.3490
1195.751, 449.5357
1197.680, 443.9610
1199.608, 440.0666
1201.537, 427.6914
1203.465, 413.9137
1205.394, 419.4958
1207.322, 431.9068
1209.251, 431.3345
1211.179, 426.3502
1213.108, 425.4328
1215.036, 425.4819
1216.964, 425.9589
1218.893, 423.8458
1220.821, 416.4427
1222.750, 408.4012
1224.678, 398.5976
1226.607, 397.1922
1228.535, 410.1672
1230.464, 414.5046
1232.392, 404.4988
1234.321, 403.0918
1236.249, 413.0663
1238.178, 407.9540
1240.106, 388.4313
1242.035, 384.5156
1243.963, 393.3687
1245.891, 399.8312
1247.820, 404.0559
1249.748, 405.3844
1251.677, 405.6899
1253.605, 409.1829
1255.534, 411.5235
1257.462, 406.7638
1259.391, 401.2466
1261.319, 397.0181
1263.248, 396.8707
1265.176, 406.9204
1267.105, 411.3564
1269.033, 403.3257
1270.962, 402.9123
1272.890, 414.9812
1274.818, 417.8642
1276.747, 409.7760
1278.675, 405.0172
1280.604, 403.9483
1282.532, 401.6344
1284.461, 400.6826
1286.389, 415.0493
1288.318, 430.5142
1290.246, 418.3738
1292.175, 400.9038
1294.103, 400.6385
1296.032, 406.2924
1297.960, 413.9912
1299.889, 418.9829
1301.817, 418.5623
1303.745, 416.2558
1305.674, 410.4366
1307.602, 409.9658
1309.531, 416.8267
1311.459, 418.7200
1313.388, 415.4650
1315.316, 413.7708
1317.245, 413.3892
1319.173, 412.1125
1321.102, 411.3029
1323.030, 414.2636
1324.959, 417.9853
1326.887, 420.8135
1328.816, 420.9703
1330.744, 415.7820
1332.672, 410.2830
1334.601, 404.7530
1336.529, 402.5252
1338.458, 404.1603
1340.386, 410.2365
1342.315, 422.5375
1344.243, 425.9351
1346.172, 421.4005
1348.100, 420.7608
1350.029, 421.7558
1351.957, 416.2036
1353.886, 410.9874
1355.814, 417.1710
1357.743, 422.7325
1359.671, 419.4047
1361.599, 412.5650
1363.528, 399.4973
1365.456, 396.2038
1367.385, 413.2699
1369.313, 415.9016
1371.242, 399.4073
1373.170, 397.4652
1375.099, 407.6738
1377.027, 416.0776
1378.956, 420.6326
1380.884, 411.8721
1382.813, 402.8949
1384.741, 411.2712
1386.670, 416.8739
1388.598, 407.4582
1390.526, 397.0410
1392.455, 388.5846
1394.383, 385.9224
1396.312, 390.2161
1398.240, 397.7016
1400.169, 407.4776
1402.097, 410.1750
1404.026, 408.1323
1405.954, 408.5687
1407.883, 407.1682
1409.811, 393.2324
1411.740, 384.1837
1413.668, 392.9977
1415.597, 399.0542
1417.525, 394.6138
1419.453, 396.6466
1421.382, 408.7351
1423.310, 404.4541
1425.239, 386.9008
1427.167, 395.0838
1429.096, 414.1357
1431.024, 408.6457
1432.953, 397.7720
1434.881, 404.9019
1436.810, 408.3947
1438.738, 395.6038
1440.667, 385.8536
1442.595, 382.9388
1444.524, 388.3517
1446.452, 401.4579
1448.380, 407.5656
1450.309, 408.9514
1452.237, 419.8131
1454.166, 427.2923
1456.094, 405.1494
1458.023, 383.0613
1459.951, 382.9288
1461.880, 386.3975
1463.808, 389.1953
1465.737, 394.6363
1467.665, 402.9509
1469.594, 404.0419
1471.522, 399.5265
1473.451, 399.1195
1475.379, 399.2628
1477.307, 393.4177
1479.236, 386.7630
1481.164, 382.3272
1483.093, 380.1712
1485.021, 381.8263
1486.950, 380.1052
1488.878, 374.2897
1490.807, 370.5287
1492.735, 370.4022
1494.664, 384.9403
1496.592, 399.0186
1498.521, 385.9496
1500.449, 372.4133
1502.378, 378.9616
1504.306, 385.4153
1506.234, 387.0587
1508.163, 385.2898
1510.091, 380.3255
1512.020, 382.7977
1513.948, 388.4251
1515.877, 381.1352
1517.805, 373.5158
1519.734, 382.4683
1521.662, 389.4178
1523.591, 381.3874
1525.519, 377.2669
1527.448, 381.7874
1529.376, 381.6242
1531.305, 377.2268
1533.233, 371.4644
1535.161, 368.0083
1537.090, 374.5813
1539.018, 383.3220
1540.947, 391.6838
1542.875, 394.7503
1544.804, 387.3630
1546.732, 386.5967
1548.661, 393.2049
1550.589, 382.0089
1552.518, 363.6436
1554.446, 366.0690
1556.375, 374.3424
1558.303, 376.0430
1560.232, 381.3533
1562.160, 398.4449
1564.089, 401.9798
1566.017, 387.8655
1567.945, 384.7187
1569.874, 388.3904
1571.802, 386.4201
1573.731, 383.3967
1575.659, 383.8649
1577.588, 384.1982
1579.516, 383.2431
1581.445, 381.0898
1583.373, 377.6743
1585.302, 372.5860
1587.230, 368.2983
1589.159, 374.3811
1591.087, 382.6769
1593.016, 383.2020
1594.944, 388.9142
1596.872, 406.5299
1598.801, 414.9219
1600.729, 411.0996
1602.658, 399.8687
1604.586, 386.6009
1606.515, 381.8470
1608.443, 385.1496
1610.372, 401.3606
1612.300, 413.6373
1614.229, 417.1136
1616.157, 425.0799
1618.086, 436.4873
1620.014, 425.1144
1621.943, 409.1358
1623.871, 425.6591
1625.799, 444.1132
1627.728, 443.8597
1629.656, 447.6656
1631.585, 459.8083
1633.513, 454.3640
1635.442, 437.2035
1637.370, 439.1747
1639.299, 446.7527
1641.227, 444.8459
1643.156, 441.5471
1645.084, 439.8081
1647.013, 436.5903
1648.941, 431.9767
1650.870, 431.1457
1652.798, 432.0993
1654.726, 434.2798
1656.655, 430.6489
1658.583, 408.3730
1660.512, 397.0988
1662.440, 402.4406
1664.369, 404.0332
1666.297, 401.1039
1668.226, 392.0692
1670.154, 384.1693
1672.083, 388.5788
1674.011, 388.4894
1675.940, 372.8034
1677.868, 374.1975
1679.797, 389.6819
1681.725, 384.5898
1683.653, 369.0469
1685.582, 352.0750
1687.510, 341.2641
1689.439, 342.2090
1691.367, 348.0542
1693.296, 358.3357
1695.224, 349.2396
1697.153, 334.7324
1699.081, 348.7729
1701.010, 356.9943
1702.938, 329.0607
1704.867, 313.6587
1706.795, 318.9915
1708.724, 324.3206
1710.652, 329.1079
1712.580, 331.7371
1714.509, 333.4781
1716.437, 336.2444
1718.366, 335.1724
1720.294, 329.0557
1722.223, 315.7835
1724.151, 301.3458
1726.080, 307.9663
1728.008, 316.2054
1729.937, 312.7157
1731.865, 307.6873
1733.794, 302.4484
1735.722, 311.5618
1737.651, 325.9013
1739.579, 310.6510
1741.507, 298.7180
1743.436, 316.3916
1745.364, 323.2472
1747.293, 308.8541
1749.221, 313.2703
1751.150, 326.7143
1753.078, 321.7410
1755.007, 310.3831
1756.935, 298.3564
1758.864, 287.4620
1760.792, 278.4149
1762.721, 293.3102
1764.649, 314.9092
1766.578, 300.0930
1768.506, 287.0183
1770.434, 296.0064
1772.363, 301.7074
1774.291, 300.6779
1776.220, 297.1757
1778.148, 293.8704
1780.077, 294.3218
1782.005, 297.4847
1783.934, 304.0109
1785.862, 306.9710
1787.791, 305.5216
1789.719, 297.3564
1791.648, 291.2659
1793.576, 303.3870
1795.505, 304.6914
1797.433, 286.7635
1799.361, 291.2019
1801.290, 307.7387
1803.218, 290.4404
1805.147, 273.9420
1807.075, 293.5169
1809.004, 301.8784
1810.932, 293.6595
1812.861, 288.9596
1814.789, 285.9560
1816.718, 276.2275
1818.646, 271.6744
1820.575, 282.6203
1822.503, 283.3854
1824.432, 276.0419
1826.360, 287.4196
1828.288, 297.5727
1830.217, 278.7344
1832.145, 268.6869
1834.074, 277.1614
1836.002, 277.6794
1837.931, 273.2290
1839.859, 266.5059
1841.788, 263.0788
1843.716, 270.3731
1845.645, 277.1646
1847.573, 281.0784
1849.502, 274.8446
1851.430, 268.2670
1853.359, 271.1324
1855.287, 272.4183
1857.215, 268.4069
1859.144, 278.6288
1861.072, 290.3402
1863.001, 274.8983
1864.929, 262.8017
1866.858, 270.2897
1868.786, 268.4525
1870.715, 257.5022
1872.643, 251.9727
1874.572, 252.0921
1876.500, 257.8135
1878.429, 260.7636
1880.357, 260.4077
1882.286, 261.4047
1884.214, 261.2836
1886.142, 257.9557
1888.071, 255.7332
1889.999, 253.3053
1891.928, 246.9229
1893.856, 241.8079
1895.785, 254.3116
1897.713, 259.8408
1899.642, 246.6985
1901.570, 241.4038
1903.499, 244.1569
1905.427, 252.3654
1907.356, 254.7543
1909.284, 240.7063
1911.213, 234.5486
1913.141, 238.6632
1915.069, 243.5932
1916.998, 247.8777
1918.926, 248.5232
1920.855, 251.4584
1922.783, 257.1671
1924.712, 251.4479
1926.640, 241.8400
1928.569, 240.9127
1930.497, 240.2983
1932.426, 236.7709
1934.354, 237.6782
1936.283, 242.4145
1938.211, 243.0869
1940.140, 238.4744
1942.068, 230.4985
1943.996, 231.9242
1945.925, 237.7506
1947.853, 239.9096
1949.782, 237.2415
1951.710, 224.2790
1953.639, 223.5004
1955.567, 229.4098
1957.496, 226.3507
1959.424, 224.7150
1961.353, 229.4930
1963.281, 226.8000
1965.210, 220.5961
1967.138, 230.9533
1969.067, 239.1556
1970.995, 230.3542
1972.923, 216.6312
1974.852, 202.6007
1976.780, 210.8664
1978.709, 223.8659
1980.637, 229.3807
1982.566, 226.1721
1984.494, 216.0281
1986.423, 213.1226
1988.351, 213.8237
1990.280, 214.5579
1992.208, 215.5481
1994.137, 217.1621
1996.065, 212.5270
1997.994, 209.2119
1999.922, 215.1591
2001.850, 216.9801
2003.779, 212.8669
2005.707, 205.1778
2007.636, 200.2566
2009.564, 207.1126
2011.493, 212.4129
2013.421, 212.6738
2015.350, 207.1244
2017.278, 204.7799
2019.207, 214.3303
2021.135, 218.6057
2023.064, 214.4864
2024.992, 207.4422
2026.921, 204.0650
2028.849, 207.7326
2030.777, 210.5697
2032.706, 212.1455
2034.634, 211.7233
2036.563, 210.2176
2038.491, 210.4407
2040.420, 205.2211
2042.348, 197.1134
2044.277, 195.7630
2046.205, 196.4384
2048.134, 197.5555
2050.062, 196.7541
2051.990, 194.8768
2053.919, 190.7634
2055.848, 189.6220
2057.776, 192.7223
2059.705, 198.4271
2061.633, 202.8149
2063.562, 193.7458
2065.490, 191.4225
2067.418, 200.1754
2069.347, 192.2460
2071.275, 183.2596
2073.204, 196.7069
2075.132, 198.3059
2077.061, 188.4698
2078.989, 185.7804
2080.918, 185.3072
2082.846, 185.5641
2084.775, 185.0153
2086.703, 184.5072
2088.632, 182.0443
2090.560, 180.4017
2092.489, 185.0701
2094.417, 182.7217
2096.345, 178.7496
2098.274, 190.7761
2100.202, 189.8897
2102.131, 167.0666
2104.059, 166.2651
2105.988, 174.5987
2107.916, 178.7485
2109.845, 182.2581
2111.773, 185.7520
2113.702, 181.9843
2115.630, 181.2269
2117.559, 193.8423
2119.487, 191.2962
2121.416, 179.1862
2123.344, 177.9210
2125.272, 177.6561
2127.201, 173.7581
2129.129, 173.9802
2131.058, 175.7007
2132.986, 175.7529
2134.915, 172.9968
2136.843, 167.8263
2138.772, 163.3008
2140.700, 163.6994
2142.629, 171.9818
2144.557, 176.3630
2146.486, 176.3200
2148.414, 169.6858
2150.343, 165.9307
2152.271, 167.4961
2154.199, 165.0003
2156.128, 163.2055
2158.056, 168.8224
2159.985, 168.6353
2161.913, 162.9118
2163.842, 160.5570
2165.770, 160.2019
2167.699, 161.1764
2169.627, 164.1666
2171.556, 166.6046
2173.484, 163.0751
2175.413, 159.5912
2177.341, 158.2488
2179.270, 159.8993
2181.198, 161.0956
2183.126, 159.4825
2185.055, 160.0564
2186.983, 160.8092
2188.912, 154.3940
2190.840, 149.1492
2192.769, 147.5000
2194.697, 148.2680
2196.626, 151.8501
2198.554, 160.6369
2200.483, 166.3688
2202.411, 166.7386
2204.340, 148.4558
2206.268, 135.4348
2208.197, 134.1692
2210.125, 137.7257
2212.053, 142.1458
2213.982, 137.5750
2215.910, 140.7410
2217.839, 151.1640
2219.767, 154.7184
2221.696, 154.5151
2223.624, 152.9057
2225.553, 151.2103
2227.481, 150.6181
2229.410, 151.3806
2231.338, 149.7940
2233.267, 146.6226
2235.195, 139.0121
2237.124, 132.5847
2239.052, 128.8204
2240.980, 132.0384
2242.909, 136.5625
2244.837, 142.1171
2246.766, 138.7427
2248.694, 131.2515
2250.623, 128.7106
2252.551, 124.7788
2254.480, 121.3218
2256.408, 129.6571
2258.337, 136.1118
2260.265, 127.6708
2262.194, 128.2066
2264.122, 130.1351
2266.051, 129.2352
2267.979, 128.6596
2269.907, 126.1961
2271.836, 127.5779
2273.764, 125.5595
2275.693, 118.5453
2277.621, 123.4468
2279.550, 126.5474
2281.478, 114.2870
2283.407, 110.8528
2285.335, 117.0857
2287.264, 117.5354
2289.192, 108.9439
2291.121, 104.5472
2293.049, 120.4219
2294.978, 125.7692
2296.906, 119.4623
2298.834, 112.0701
2300.763, 108.0230
2302.691, 107.9427
2304.620, 113.2437
2306.548, 119.6593
2308.477, 119.8721
2310.405, 114.6883
2312.334, 108.6497
2314.262, 118.0615
2316.191, 127.8456
2318.119, 127.2306
2320.048, 115.5804
2321.976, 105.7821
2323.905, 103.2368
2325.833, 109.1490
2327.761, 114.0622
2329.690, 110.1954
2331.618, 110.8277
2333.547, 112.3022
2335.475, 111.0414
2337.404, 108.1061
2339.332, 101.4253
2341.261, 102.9089
2343.189, 101.3077
2345.118, 90.02798
2347.046, 99.11176
2348.975, 116.4804
2350.903, 113.0395
2352.832, 110.0761
2354.760, 109.4931
2356.688, 101.7987
2358.617, 92.57427
2360.545, 85.97363
2362.474, 94.96078
2364.402, 98.81766
2366.331, 94.27232
2368.259, 91.70517
2370.188, 89.46777
2372.116, 92.85396
2374.045, 98.27338
2375.973, 97.50765
2377.902, 94.98912
2379.830, 88.79719
2381.759, 85.17220
2383.687, 92.85337
2385.615, 100.8709
2387.544, 105.5248
2389.472, 96.71304
2391.401, 91.76392
2393.329, 92.78841
2395.258, 81.38201
2397.186, 81.53354
2399.115, 85.68946
2401.043, 87.62077
2402.972, 91.50930
2404.900, 86.60959
2406.829, 87.79343
2408.757, 89.20340
2410.686, 90.58552
2412.614, 94.59833
2414.542, 92.40837
2416.471, 79.67651
2418.399, 78.94873
2420.328, 86.96830
2422.256, 88.86627
2424.185, 85.41373
2426.113, 89.03725
2428.042, 82.99049
2429.970, 72.03619
2431.899, 69.96771
2433.827, 70.01807
2435.756, 80.09801
2437.684, 84.32775
2439.613, 77.67257
2441.541, 77.34305
2443.469, 81.49244
2445.398, 73.76616
2447.326, 71.15203
2449.255, 72.79568
2451.183, 81.73053
2453.112, 80.74648
2455.040, 75.56657
2456.969, 74.76086
2458.897, 73.02699
2460.826, 72.88953
2462.754, 71.89801
2464.683, 70.10287
2466.611, 65.11649
2468.540, 67.90645
2470.468, 78.28522
2472.396, 81.11459
2474.325, 70.93221
2476.253, 69.66843
2478.182, 74.28329
2480.110, 69.93322
2482.039, 64.32819
2483.967, 63.87894
2485.896, 69.00377
2487.824, 71.27814
2489.753, 57.11747
2491.681, 63.83553
2493.610, 74.94424
2495.538, 63.51762
2497.467, 64.47456
2499.395, 73.51192
2501.323, 72.85986
2503.252, 65.75427
2505.180, 63.35143
2507.109, 60.15668
2509.037, 61.27260
2510.966, 65.84478
2512.894, 61.62182
2514.823, 62.06156
2516.751, 67.66440
2518.680, 63.31951
2520.608, 57.66945
2522.537, 55.76724
2524.465, 58.24208
2526.394, 63.81293
2528.322, 64.56940
2530.250, 64.31103
2532.179, 59.83356
2534.107, 53.65008
2536.036, 56.41959
2537.964, 59.55643
2539.893, 61.54670
2541.821, 58.97433
2543.750, 56.79704
2545.678, 54.57116
2547.607, 57.55790
2549.535, 61.47698
2551.464, 58.33809
2553.392, 46.91972
2555.321, 42.81537
2557.249, 45.83732
2559.177, 48.72915
2561.106, 44.26626
2563.034, 41.59544
2564.963, 53.28219
2566.891, 61.55329
2568.820, 61.74017
2570.748, 56.46407
2572.677, 53.29905
2574.605, 50.24864
2576.534, 55.18925
2578.462, 50.68199
2580.391, 44.87906
2582.319, 48.79938
2584.248, 52.78731
2586.176, 54.79930
2588.104, 56.35836
2590.033, 57.30870
2591.961, 56.84681
2593.890, 50.22920
2595.818, 43.52728
2597.747, 42.76159
2599.675, 47.82753
2601.604, 51.79140
2603.532, 51.42197
2605.461, 39.61552
2607.389, 48.24616
2609.318, 52.37185
2611.246, 40.65588
2613.175, 43.76986
2615.103, 45.98730
2617.031, 44.13070
2618.960, 40.52023
2620.888, 38.52085
2622.817, 39.25070
2624.745, 37.84892
2626.674, 38.41484
2628.602, 39.80696
2630.531, 39.74377
2632.459, 38.89425
2634.388, 41.09733
2636.316, 58.47354
2638.245, 53.19178
2640.173, 36.04308
2642.102, 33.66483
2644.030, 45.02843
2645.958, 54.38771
2647.887, 42.37062
2649.815, 46.09201
2651.744, 49.41951
2653.672, 36.25246
2655.601, 27.32615
2657.529, 25.37983
2659.458, 30.22982
2661.386, 35.44756
2663.315, 38.92443
2665.243, 39.93576
2667.172, 36.20975
2669.100, 35.58815
2671.029, 39.62834
2672.957, 42.48254
2674.885, 41.83227
2676.814, 38.99121
2678.742, 35.52643
2680.671, 36.84555
2682.599, 39.57158
2684.528, 36.25106
2686.456, 35.48545
2688.385, 37.10018
2690.313, 41.51512
2692.242, 35.88158
2694.170, 30.32197
2696.099, 32.33033
2698.027, 30.71534
2699.956, 30.28256
2701.884, 32.30857
2703.813, 40.41576
2705.741, 42.11851
2707.669, 35.84907
2709.598, 40.90643
2711.526, 38.76468
2713.455, 30.77296
2715.383, 25.88182
2717.312, 26.82151
2719.240, 31.44537
2721.169, 29.98378
2723.097, 33.29162
2725.026, 36.51003
2726.954, 34.55097
2728.883, 29.44453
2730.811, 28.79640
2732.740, 33.79793
2734.668, 28.82144
2736.596, 27.24847
2738.525, 34.30779
2740.453, 35.07518
2742.382, 35.04401
2744.310, 36.42789
2746.239, 32.55183
2748.167, 36.54141
2750.096, 34.82128
2752.024, 30.10101
2753.953, 27.74627
2755.881, 31.52178
2757.810, 37.56898
2759.738, 21.93028
2761.667, 18.01128
2763.595, 18.33303
2765.523, 26.95072
2767.452, 21.41905
2769.380, 15.26917
2771.309, 28.24410
2773.237, 27.05788
2775.166, 21.99437
2777.094, 22.81425
2779.023, 31.32048
2780.951, 35.00594
2782.880, 31.38610
2784.808, 29.52816
2786.737, 21.66851
2788.665, 21.96191
2790.594, 28.46507
2792.522, 29.16903
2794.450, 26.76023
2796.379, 18.49776
2798.307, 28.65972
2800.236, 32.47162
2802.164, 17.56201
2804.093, 22.74849
2806.021, 29.06704
2807.950, 21.32728
2809.878, 16.78197
2811.807, 29.57401
2813.735, 38.13413
2815.664, 34.33131
2817.592, 34.30788
2819.521, 36.99541
2821.449, 24.49523
2823.377, 25.21449
2825.306, 27.74203
2827.234, 25.15522
2829.163, 29.79482
2831.091, 29.28727
2833.020, 26.03918
2834.948, 30.95657
2836.877, 24.94274
2838.805, 19.37011
2840.734, 19.92469
2842.662, 18.66553
2844.591, 20.97031
2846.519, 27.11700
2848.448, 24.68173
2850.376, 12.55160
2852.304, 17.65804
2854.233, 23.16995
2856.161, 25.64783
2858.090, 21.04967
2860.018, 15.55642
2861.947, 18.57927
2863.875, 25.31349
2865.804, 30.94263
2867.732, 32.46071
2869.661, 21.66913
2871.589, 15.47395
2873.518, 26.28439
2875.446, 27.62707
2877.375, 22.14751
2879.303, 15.91028
2881.231, 16.57915
2883.160, 17.23029
2885.088, 13.08953
2887.017, 12.79377
2888.945, 5.001947
2890.874, 14.27696
2892.802, 26.28542
2894.731, 13.11230
2896.659, 9.120657
2898.588, 16.95985
2900.516, 26.14411
2902.445, 20.53332
2904.373, 22.26331
2906.302, 22.84462
2908.230, 19.15960
2910.158, 23.37368
2912.087, 23.48025
2914.015, 23.86813
2915.944, 19.22096
2917.872, 18.72359
2919.801, 20.48148
2921.729, 20.24085
2923.658, 22.11266
2925.586, 12.01437
2927.515, 8.194436
2929.443, 29.41336
2931.372, 25.82350
2933.300, 17.31074
2935.229, 20.05564
2937.157, 13.48914
2939.085, 17.86351
2941.014, 20.48402
2942.942, 28.04869
2944.871, 23.66453
2946.799, 16.95079
2948.728, 11.09218
2950.656, 17.99601
2952.585, 15.60571
2954.513, 9.158068
2956.442, 19.20785
2958.370, 15.50364
2960.299, 14.66360
2962.227, 16.21160
2964.156, 11.57648
2966.084, 11.76280
2968.012, 11.47339
2969.941, 1.044046
2971.869, -1.378113
2973.798, 11.11667
2975.726, 20.05404
2977.655, 10.28215
2979.583, 8.501310
2981.512, 8.124053
2983.440, 8.763906
2985.369, 11.18750
2987.297, 15.34507
2989.226, 14.87084
2991.154, 4.037553
2993.083, 20.04931
2995.011, 28.52549
2996.939, 16.75064
2998.868, 10.33461
3000.796, 19.28324
3002.725, 23.89512
3004.653, 24.52265
3006.582, 19.20472
3008.510, 18.31766
3010.439, 19.75686
3012.367, 11.00652
3014.296, 13.76915
3016.224, 16.43830
3018.153, 11.53392
3020.081, 11.43641
3022.010, 17.73450
3023.938, 26.12775
3025.866, 26.43907
3027.795, 2.810447
3029.723, 1.845474
3031.652, 12.87023
3033.580, 19.95178
3035.509, 9.496502
3037.437, 17.79245
3039.366, 29.73997
3041.294, 13.12062
3043.223, 12.94169
3045.151, 12.96118
3047.080, 13.11948
3049.008, 30.35491
3050.937, 23.92896
3052.865, 13.59541
3054.793, 4.334056
3056.722, 1.915823
3058.650, 15.64511
3060.579, 22.93940
3062.507, 14.90831
3064.436, 18.50687
3066.364, 10.20784
3068.293, 6.578240
3070.221, 22.26730
3072.150, 13.33791
3074.078, 16.93743
3076.007, 23.78037
3077.935, 15.64650
3079.864, 9.368851
3081.792, 14.81797
3083.720, 30.02469
3085.649, 23.17817
3087.577, 26.72191
3089.506, 22.82501
3091.434, 13.90630
3093.363, 25.99103
3095.291, 17.64250
3097.220, 13.73695
3099.148, 17.83378
3101.077, 9.841928
3103.005, 20.11460
3104.934, 27.18922
3106.862, 23.22462
3108.791, 27.23723
3110.719, 17.20456
3112.647, 12.24827
3114.576, 18.99882
3116.504, 17.05629
3118.433, 10.10748
3120.361, 9.413755
3122.290, 18.70790
3124.218, 19.43260
3126.147, 6.638275
3128.075, 2.156217
3130.004, 17.25505
3131.932, 24.21316
3133.861, 20.57707
3135.789, 19.97468
3137.718, 27.04480
3139.646, 21.48435
3141.574, 5.262439
3143.503, 5.609041
3145.431, 27.65811
3147.360, 13.23361
3149.288, 14.97180
3151.217, 22.34615
3153.145, 25.76909
3155.074, 24.38905
3157.002, 14.00025
3158.931, 8.618714
3160.859, 13.82001
3162.788, 24.86481
3164.716, 23.09844
3166.645, 13.91552
3168.573, 7.115576
3170.501, 19.39473
3172.430, 21.44246
3174.358, 16.93843
3176.287, 14.76909
3178.215, 22.61053
3180.144, 15.02782
3182.072, 18.05706
3184.001, 26.56327
3185.929, 13.17300
3187.858, 7.709567
3189.786, 8.347159
3191.715, 15.69970
3193.643, 27.08693
3195.572, 21.95134
3197.500, 16.15412
3199.428, 12.08317
3201.357, 9.734471
3203.285, 32.10051
3205.214, 31.62739
3207.142, 21.33991
3209.071, 22.61572
3210.999, 15.59395
3212.928, 15.75505
3214.856, 11.68490
3216.785, 4.671380
3218.713, 21.70621
3220.642, 14.72855
3222.570, 8.108626
3224.499, 13.09196
3226.427, 26.98532
3228.355, 26.12263
3230.284, 22.98421
3232.212, 17.89022
3234.141, 12.49875
3236.069, 9.598731
3237.998, 10.41992
3239.926, 10.35591
3241.855, 9.783828
3243.783, 19.03730
3245.712, 18.16602
3247.640, 13.00960
3249.569, 8.071987
3251.497, 8.784478
3253.426, 12.17740
3255.354, 20.70084
3257.282, 30.80979
3259.211, 31.12441
3261.139, 32.60852
3263.068, 23.85027
3264.996, 17.34952
3266.925, 23.65046
3268.853, 21.03448
3270.782, 15.43367
3272.710, 13.87800
3274.639, 14.93807
3276.567, 5.491832
3278.496, 19.04458
3280.424, 29.82691
3282.353, 27.13142
3284.281, 11.13365
3286.209, 2.736360
3288.138, 7.633021
3290.066, 19.37392
3291.995, 26.33212
3293.923, 6.699445
3295.852, 20.74022
3297.780, 26.39700
3299.709, 21.58395
3301.637, 25.21042
3303.566, 7.232487
3305.494, 20.37451
3307.423, 30.23614
3309.351, 13.52090
3311.280, -0.5433413
3313.208, 17.35596
3315.136, 12.07300
3317.065, -0.5757748
3318.993, 16.44115
3320.922, 24.46261
3322.850, 11.46454
3324.779, 0.8631878
3326.707, 9.473948
3328.636, 20.41607
3330.564, 14.03798
3332.493, 14.09285
3334.421, 21.56568
3336.350, 27.68023
3338.278, 30.92158
3340.207, 24.02014
3342.135, 17.79885
3344.063, 15.25525
3345.992, 17.77792
3347.920, 23.66324
3349.849, 19.14393
3351.777, 10.85386
3353.706, 6.274603
3355.634, 5.599277
3357.563, 23.65091
3359.491, 23.56949
3361.420, 11.26192
3363.348, 15.56100
3365.277, 13.61900
3367.205, 20.61636
3369.134, 23.06472
3371.062, 17.16611
3372.990, 12.25776
3374.919, 26.06675
3376.847, 30.29410
3378.776, 24.43705
3380.704, 17.32856
3382.633, 30.09142
3384.561, 24.42319
3386.490, 14.73325
3388.418, 10.34224
3390.347, 12.76076
3392.275, 10.27085
3394.204, 9.760161
3396.132, 3.443724
3398.061, 1.325281
3399.989, 13.17959
3401.917, 24.93230
3403.846, 28.58088
3405.774, 12.86759
3407.703, 3.215815
3409.631, 26.58949
3411.560, 24.88725
3413.488, 32.41808
3415.417, 32.92666
3417.345, 26.75946
3419.274, 24.76575
3421.202, 12.14391
3423.131, 26.03815
3425.059, 30.02796
3426.988, 21.13715
3428.916, 24.17359
3430.844, 16.17324
3432.773, 21.81804
3434.701, 27.07897
3436.630, 23.43423
3438.558, 12.54212
3440.487, 17.16810
3442.415, 20.81987
3444.344, 16.87640
3446.272, 8.322663
3448.201, 2.394922
3450.129, 18.69744
3452.058, 6.595969
3453.986, 14.50459
3455.915, 35.24745
3457.843, 25.36834
3459.771, 2.029220
3461.700, 17.20971
3463.628, 25.25901
3465.557, 12.34459
3467.485, -6.278970
3469.414, -0.6711209
3471.342, 13.82610
3473.271, 24.62321
3475.199, 25.83169
3477.128, 17.21464
3479.056, 4.544763
3480.985, -5.549229
3482.913, 11.02775
3484.842, 30.59270
3486.770, 29.21252
3488.698, 8.343261
3490.627, 17.70774
3492.555, 30.38621
3494.484, 30.60129
3496.412, 18.24284
3498.341, 3.454205
3500.269, 7.358411
3502.198, 10.09570
3504.126, 18.17618
3506.055, 23.73067
3507.983, 16.82709
3509.912, 20.82851
3511.840, 30.22246
3513.769, 16.16970
3515.697, 8.526901
3517.625, 23.56905
3519.554, 15.62109
3521.482, 23.37570
3523.411, 15.70665
3525.339, 2.936522
3527.268, -1.597381
3529.196, 5.093333
3531.125, 12.34513
3533.053, 11.32281
3534.982, 19.79727
3536.910, 23.15655
3538.839, 11.63975
3540.767, 22.86274
3542.696, 7.066100
3544.624, 13.04244
3546.552, 22.74051
3548.481, 20.91112
3550.409, 12.69870
3552.338, 31.55763
3554.266, 9.762458
3556.195, 5.044881
3558.123, 17.19959
3560.052, 22.74101
3561.980, 12.36090
3563.909, -3.870632
3565.837, 6.258364
3567.766, 16.62817
3569.694, 16.14099
3571.623, 11.94886
3573.551, 14.41078
3575.479, 17.11012
3577.408, 13.32848
3579.336, 2.871433
3581.265, -3.582101
3583.193, 5.562160
3585.122, 13.98254
3587.050, 16.88795
3588.979, 10.76030
3590.907, 6.891102
3592.836, 4.291345
3594.764, -10.86392
3596.693, 2.103158
3598.621, 6.945562
3600.550, 10.47044
3602.478, 11.98420
3604.406, 8.082127
3606.335, 0.5807223
3608.263, -4.695179
3610.192, -6.003834
3612.120, 6.609297
3614.049, 22.33540
3615.977, 25.97770
3617.906, 7.625504
3619.834, 17.06452
3621.763, 7.146406
3623.691, -4.268508
3625.620, -2.686413
3627.548, 4.775606
3629.477, -10.50348
3631.405, 17.76432
3633.333, 4.672075
3635.262, 3.501959
3637.190, 8.215892
3639.119, 3.236378
3641.047, 6.196963
3642.976, -0.3322946
3644.904, 8.837409
3646.833, -0.2878616
3648.761, -4.039788
3650.690, 6.760635
3652.618, 6.933881
3654.547, 3.663750
3656.475, 7.849625
3658.404, 3.1591289E-02
3660.332, -6.355662
3662.260, -1.212881
3664.189, 8.378750
3666.117, 0.7171256
3668.046, 5.887559
3669.974, 7.324820
3671.903, 5.792002
3673.831, 2.992034
3675.760, -2.789552
3677.688, -12.56366
3679.617, 3.285984
3681.545, -3.248327
3683.474, -8.218071
3685.402, -13.30820
3687.331, -14.33890
3689.259, 0.4986126
3691.188, -0.6191561
3693.116, 8.559026
3695.044, -1.936384
3696.973, 5.966879
3698.901, 13.04955
3700.830, -2.678439
3702.758, 0.9272064
3704.687, -11.56372
3706.615, 10.82352
3708.544, 17.16166
3710.472, 3.671652
3712.401, -11.91190
3714.329, -15.35223
3716.258, 0.6291914
3718.186, -2.919895
3720.115, -18.36073
3722.043, -1.352539
3723.971, 4.432282
3725.900, -11.59849
3727.828, -6.069194
3729.757, -6.557910
3731.685, -3.170922
3733.614, -1.371763
3735.542, -6.128962
3737.471, -4.214252
3739.399, -1.702632
3741.328, -16.53596
3743.256, -5.634534
3745.185, 14.85219
3747.113, -3.914208
3749.042, -13.96671
3750.970, -3.779061
3752.898, 11.27760
3754.827, 15.89611
3756.755, -21.47251
3758.684, -21.67815
3760.612, -21.32077
3762.541, -15.65466
3764.469, -4.821794
3766.398, -0.9435435
3768.326, -10.62585
3770.255, -15.50052
3772.183, 2.867842
3774.112, 1.668588
3776.040, 10.87581
3777.969, 5.726320
3779.897, -11.64211
3781.825, -11.31514
3783.754, 17.10324
3785.682, 5.030637
3787.611, -1.939652
3789.539, -13.37861
3791.468, -1.988674
3793.396, 6.641764
3795.325, -4.974741
3797.253, -6.176183
3799.182, 8.598223
3801.110, 17.34943
3803.039, 15.90066
3804.967, -0.7701907
3806.896, -4.838744
3808.824, 1.827703
3810.752, 1.831991
3812.681, 5.310751
3814.609, 23.66399
3816.538, 15.91348
3818.466, 11.19688
3820.395, 3.203189
3822.323, -2.284859
3824.252, -2.244715
3826.180, 4.621146
3828.109, 29.98117
3830.037, 11.19224
3831.966, -2.469482
3833.894, 16.40005
3835.823, 3.364770
3837.751, -9.508246
3839.679, 4.162068
3841.608, 13.77834
3843.536, -13.83601
3845.465, -11.93037
3847.393, -4.825042
3849.322, -3.215510
3851.250, 2.658547
3853.179, 1.751207
3855.107, -9.339601
3857.036, -15.30400
3858.964, 0.4968269
3860.893, 2.255185
3862.821, 29.50262
3864.750, 13.42986
3866.678, -4.777534
3868.606, -6.908485
3870.535, -12.52698
3872.463, -19.53459
3874.392, -3.310932
3876.320, -0.1481706
3878.249, -13.17584
3880.177, 14.25957
3882.106, -3.213010
3884.034, -4.588110
3885.963, 5.986380
3887.891, 2.936393
3889.820, -3.625577
3891.748, 5.765660
3893.677, 12.20656
3895.605, -2.939147
3897.533, -0.9689801
3899.462, 2.729491
3901.390, 7.504344
3903.319, 9.306561
3905.247, 6.032776
3907.176, 2.731915
3909.104, 4.454492
3911.033, 6.202697
3912.961, 20.84651
3914.890, -12.36856
3916.818, -10.73808
3918.747, -8.8631511E-02
3920.675, 4.096728
3922.604, 3.706122
3924.532, -1.558489
3926.460, -4.724568
3928.389, 19.20696
3930.317, 0.2844757
3932.246, -12.12950
3934.174, -11.82681
3936.103, 3.699849
3938.031, 8.238288
3939.960, 12.00561
3941.888, 7.635180
3943.817, -17.69089
3945.745, -11.40703
3947.674, -9.673146
3949.602, -0.9832649
3951.531, 0.3025290
3953.459, -0.9677209
3955.387, -1.430163
3957.316, 5.067422
3959.244, -1.235195
3961.173, -5.673758
3963.101, 15.51438
3965.030, 10.62945
3966.958, 5.988976
3968.887, 8.922841
3970.815, 2.653385
3972.744, 14.45992
3974.672, -0.7250746
3976.601, -5.832681
3978.529, 0.5827832
3980.458, 1.663425
3982.386, -1.954265
3984.314, -9.961495
3986.243, 12.05692
3988.171, 20.63371
3990.100, 5.543990
3992.028, 16.48367
3993.957, 9.791956
3995.885, -1.211725
3997.814, -3.599586
3999.742, -5.175494
4001.671, 4.070392
4003.599, 21.49708
4005.528, 3.581105
4007.456, -14.48205
4009.385, -14.13468
4011.313, -13.20839
4013.241, 11.01750
4015.170, 5.455007
4017.098, -4.571783
4019.027, -11.02345
4020.955, -11.58356
4022.884, 0.1954146
4024.812, 5.933022
4026.741, -12.02406
4028.669, -10.17541
4030.598, 5.996734
4032.526, -4.934087
4034.455, -1.237259
4036.383, 7.590720
4038.312, 7.121357
4040.240, -0.4708261
4042.168, -3.205417
4044.097, 8.9068927E-02
4046.025, 1.918514
4047.954, -2.096567
4049.882, -6.134016
4051.811, 1.891485
4053.739, -1.035809
4055.668, -14.48409
4057.596, -1.774123
4059.525, -0.6665559
4061.453, 11.87833
4063.382, -2.328131
4065.310, -1.136087
4067.239, -6.912981
4069.167, -2.138591
4071.095, 10.67872
4073.024, 1.365016
4074.952, 1.563042
4076.881, 9.422315
4078.809, -5.652987
4080.738, -3.884217
4082.666, 0.6236697
4084.595, -6.896130
4086.523, 3.540070
4088.452, 2.399372
4090.380, -5.171288
4092.309, 5.827067
4094.237, 13.08864
4096.166, 9.650369
4098.094, 4.383533
4100.022, 0.2147422
4101.951, 6.882924
4103.879, 5.789778
4105.808, 7.260834
4107.736, 15.05597
4109.665, -14.49719
4111.593, -1.877099
4113.522, 6.344976
4115.450, 2.705508
4117.379, 2.738955
4119.307, -1.839322
4121.236, -7.280017
4123.164, -0.7428786
4125.093, 3.447812
4127.021, 5.595371
4128.950, 11.32867
4130.878, 4.689678
4132.807, 2.603733
4134.735, -8.114687
4136.664, -17.88071
4138.592, -6.477098
4140.521, -2.922127
4142.449, -8.556424
4144.377, -2.752539
4146.306, 6.282692
4148.234, -5.662100
4150.163, -3.127217
4152.091, -9.056726
4154.020, 1.415338
4155.948, 3.606619
4157.876, -6.166721
4159.805, 0.2312394
4161.733, 13.66946
4163.662, 16.95152
4165.590, -7.488279
4167.519, -14.62315
4169.447, 1.401526
4171.376, -18.71000
4173.304, -5.166736
4175.233, -3.554933
4177.161, 5.792815
4179.090, 0.1367945
4181.018, 0.9361934
4182.947, -1.987407
4184.875, 8.126731
4186.804, 5.049573
4188.732, 5.449461
4190.661, -3.564178
4192.589, -4.515755
4194.518, 3.179607
4196.446, -5.348153
4198.375, -4.614393
4200.303, 9.715133
4202.231, -3.480501
4204.160, -3.016649
4206.088, 9.067305
4208.017, -0.8114274
4209.945, -2.956950
4211.874, -9.413331
4213.802, 11.37277
4215.730, -7.080029
4217.659, 6.418295
4219.587, 2.647754
4221.516, -8.165474
4223.444, -4.141104
4225.373, 11.86705
4227.301, 4.243545
4229.230, -6.587937
4231.158, -2.120720
4233.087, -10.14708
4235.015, -6.006469
4236.944, -0.8587536
4238.872, -7.614265
4240.801, 2.413182
4242.729, 3.413531
4244.658, -1.692517
4246.586, -1.007374
4248.515, -26.29504
4250.443, 8.359154
4252.372, 16.53023
4254.300, 8.163627
4256.229, 3.708911
4258.157, -0.3358126
4260.085, -1.030314
4262.014, -12.55897
4263.942, 2.576886
4265.871, 16.91567
4267.799, -0.8004916
4269.728, -1.685140
4271.656, 11.84748
4273.584, 26.48000
4275.513, -0.9329539
4277.441, 5.774697
4279.370, -1.623330
4281.298, 3.365016
4283.227, -13.57185
4285.155, 0.6672423
4287.084, 0.5304086
4289.012, -5.1600080E-02
4290.941, -12.03735
4292.869, 3.680192
##END=



