##NAMES=Chabazite-Ca
##RRUFFID=R061096
##IDEAL CHEMISTRY=Ca_2_[Al_4_Si_8_O_24_]·13H_2_O
##LOCALITY=Tyul'bnyunuai Valley, Lovosero, Kola Pen, Russia
##OWNER=RRUFF
##SOURCE=Michael Scott
##DESCRIPTION=Colorless rhombohedral crystals associated with aegirine
##STATUS=The identification of this mineral is confirmed by single-crystal X-ray diffraction and chemical analysis
##URL=https://www.rruff.net/odr/rruff_sample/R061096
##MEASURED CHEMISTRY=(Ca_0.58_K_0.23_Na_0.03_)(Si_4.58_Al_1.42_)O_12_·4.74H_2_O
##DIFFRACTION SAMPLE DESCRIPTION=Single crystal, powder profile is calculated
##CELL PARAMETERS=a: 13.735 b: 13.735 c: 14.933 alpha: 90 beta: 90 gamma: 120 volume: 2439.9 crystal system: hexagonal
##FILETYPE=Raman RAW
##RAMAN WAVELENGTH=532

123.6973, 3134.680
125.6257, 3824.056
127.5542, 4020.048
129.4827, 4093.981
131.4111, 4124.480
133.3396, 4129.233
135.2681, 4103.028
137.1965, 4086.743
139.1250, 4083.751
141.0535, 4085.439
142.9819, 4080.303
144.9104, 4061.359
146.8389, 4036.300
148.7673, 4005.245
150.6958, 3958.598
152.6243, 3918.435
154.5527, 3888.657
156.4812, 3866.245
158.4097, 3844.752
160.3382, 3823.079
162.2666, 3801.092
164.1951, 3778.285
166.1236, 3752.352
168.0520, 3729.068
169.9805, 3709.611
171.9090, 3693.615
173.8374, 3682.052
175.7659, 3683.313
177.6944, 3686.462
179.6228, 3673.538
181.5513, 3631.959
183.4798, 3584.615
185.4082, 3542.083
187.3367, 3509.953
189.2652, 3474.976
191.1936, 3433.343
193.1221, 3388.312
195.0506, 3348.836
196.9790, 3317.606
198.9075, 3291.812
200.8360, 3270.642
202.7644, 3253.823
204.6929, 3240.342
206.6214, 3231.311
208.5498, 3226.077
210.4783, 3217.909
212.4068, 3208.568
214.3352, 3195.008
216.2637, 3171.631
218.1922, 3129.405
220.1206, 3094.547
222.0491, 3078.549
223.9776, 3091.699
225.9060, 3095.427
227.8345, 3079.768
229.7630, 3056.955
231.6914, 3046.642
233.6199, 3054.703
235.5484, 3068.660
237.4768, 3083.308
239.4053, 3100.770
241.3338, 3113.433
243.2622, 3114.448
245.1907, 3110.112
247.1192, 3113.244
249.0476, 3133.249
250.9761, 3155.102
252.9046, 3172.223
254.8330, 3183.512
256.7615, 3193.683
258.6900, 3201.685
260.6184, 3209.056
262.5469, 3220.232
264.4754, 3234.058
266.4038, 3252.570
268.3323, 3280.051
270.2608, 3321.199
272.1892, 3355.903
274.1177, 3372.568
276.0462, 3373.700
277.9746, 3385.556
279.9031, 3417.628
281.8316, 3454.377
283.7600, 3484.734
285.6885, 3508.423
287.6170, 3530.575
289.5454, 3551.107
291.4739, 3570.243
293.4024, 3596.579
295.3308, 3637.235
297.2593, 3679.810
299.1878, 3712.081
301.1162, 3727.042
303.0447, 3747.985
304.9732, 3780.170
306.9016, 3823.545
308.8301, 3870.280
310.7586, 3928.670
312.6870, 3984.213
314.6155, 4027.237
316.5440, 4054.416
318.4724, 4077.504
320.4009, 4104.048
322.3294, 4133.820
324.2578, 4148.962
326.1863, 4147.493
328.1148, 4133.125
330.0432, 4109.270
331.9717, 4069.744
333.9002, 4030.895
335.8286, 3996.135
337.7571, 3964.923
339.6856, 3931.957
341.6140, 3897.035
343.5425, 3859.603
345.4710, 3818.793
347.3994, 3768.871
349.3279, 3725.412
351.2564, 3693.384
353.1848, 3671.389
355.1133, 3647.348
357.0418, 3613.470
358.9702, 3585.584
360.8987, 3572.447
362.8272, 3585.919
364.7556, 3596.570
366.6841, 3598.911
368.6126, 3596.523
370.5410, 3600.020
372.4695, 3615.742
374.3980, 3630.688
376.3264, 3638.503
378.2549, 3631.966
380.1834, 3630.124
382.1118, 3635.531
384.0403, 3645.343
385.9688, 3653.589
387.8972, 3656.433
389.8257, 3662.165
391.7542, 3675.498
393.6826, 3702.225
395.6111, 3719.214
397.5396, 3718.294
399.4680, 3711.776
401.3965, 3714.073
403.3250, 3731.815
405.2534, 3750.339
407.1819, 3762.455
409.1104, 3766.805
411.0388, 3785.927
412.9673, 3824.958
414.8958, 3875.810
416.8242, 3929.962
418.7527, 3983.772
420.6812, 4046.870
422.6096, 4118.384
424.5381, 4198.443
426.4666, 4289.307
428.3951, 4378.113
430.3235, 4487.088
432.2520, 4625.544
434.1805, 4794.534
436.1089, 4987.054
438.0374, 5197.148
439.9659, 5428.259
441.8943, 5690.179
443.8228, 6002.056
445.7513, 6317.130
447.6797, 6628.512
449.6082, 6942.672
451.5367, 7211.909
453.4651, 7440.754
455.3936, 7627.043
457.3221, 7754.413
459.2505, 7805.927
461.1790, 7851.568
463.1075, 7904.781
465.0359, 7964.654
466.9644, 8038.002
468.8929, 8147.898
470.8214, 8250.430
472.7498, 8334.743
474.6783, 8412.727
476.6068, 8412.819
478.5352, 8304.863
480.4637, 8109.486
482.3922, 7845.671
484.3206, 7448.122
486.2491, 7042.438
488.1776, 6642.450
490.1060, 6251.415
492.0345, 5895.310
493.9630, 5581.135
495.8914, 5305.160
497.8199, 5064.158
499.7484, 4867.967
501.6768, 4698.635
503.6053, 4556.569
505.5338, 4442.713
507.4622, 4349.938
509.3907, 4283.370
511.3192, 4232.208
513.2476, 4192.129
515.1761, 4166.393
517.1046, 4138.079
519.0330, 4100.925
520.9615, 4063.601
522.8900, 4033.589
524.8184, 4009.614
526.7469, 3994.648
528.6754, 3995.368
530.6038, 4007.073
532.5323, 4011.770
534.4608, 4004.980
536.3892, 3995.845
538.3177, 3987.605
540.2462, 3980.206
542.1746, 3970.960
544.1031, 3954.940
546.0316, 3939.632
547.9600, 3931.134
549.8885, 3937.260
551.8170, 3942.199
553.7454, 3946.375
555.6739, 3949.014
557.6024, 3948.211
559.5308, 3940.445
561.4593, 3933.697
563.3878, 3930.644
565.3162, 3931.610
567.2447, 3934.495
569.1732, 3939.319
571.1016, 3945.658
573.0301, 3954.722
574.9586, 3968.425
576.8870, 3976.712
578.8155, 3971.907
580.7440, 3960.411
582.6724, 3955.341
584.6009, 3960.677
586.5294, 3967.615
588.4578, 3974.714
590.3863, 3981.706
592.3148, 3987.922
594.2432, 3994.251
596.1717, 3999.190
598.1002, 4001.660
600.0286, 3999.084
601.9571, 4000.630
603.8856, 4011.839
605.8140, 4025.368
607.7425, 4030.264
609.6710, 4021.296
611.5994, 4017.584
613.5279, 4028.283
615.4564, 4049.582
617.3848, 4065.573
619.3133, 4071.002
621.2418, 4076.141
623.1702, 4084.390
625.0987, 4095.507
627.0272, 4107.110
628.9556, 4116.247
630.8841, 4127.331
632.8126, 4144.459
634.7410, 4175.814
636.6695, 4195.152
638.5980, 4195.569
640.5264, 4185.617
642.4549, 4178.106
644.3834, 4174.737
646.3118, 4171.543
648.2403, 4165.954
650.1688, 4159.794
652.0972, 4160.213
654.0257, 4176.521
655.9542, 4190.399
657.8826, 4193.618
659.8111, 4186.154
661.7396, 4182.421
663.6680, 4187.227
665.5965, 4191.949
667.5250, 4189.614
669.4534, 4174.738
671.3819, 4170.895
673.3104, 4186.747
675.2388, 4210.388
677.1673, 4228.209
679.0958, 4240.244
681.0242, 4247.997
682.9527, 4247.578
684.8812, 4243.240
686.8096, 4242.807
688.7381, 4248.726
690.6666, 4256.078
692.5950, 4263.000
694.5235, 4270.306
696.4520, 4282.700
698.3804, 4309.148
700.3089, 4331.025
702.2374, 4335.704
704.1658, 4324.048
706.0943, 4321.466
708.0228, 4344.057
709.9512, 4365.765
711.8797, 4368.731
713.8082, 4341.985
715.7366, 4329.826
717.6651, 4345.625
719.5936, 4370.691
721.5220, 4388.147
723.4505, 4394.930
725.3790, 4404.550
727.3074, 4423.286
729.2359, 4445.112
731.1644, 4459.993
733.0928, 4458.926
735.0213, 4461.886
736.9498, 4479.147
738.8782, 4501.488
740.8067, 4510.159
742.7352, 4496.716
744.6636, 4483.060
746.5921, 4474.504
748.5206, 4471.612
750.4490, 4477.814
752.3775, 4503.518
754.3060, 4527.250
756.2344, 4538.120
758.1629, 4537.591
760.0914, 4538.126
762.0198, 4538.431
763.9483, 4542.062
765.8768, 4551.972
767.8052, 4571.398
769.7337, 4586.782
771.6622, 4598.369
773.5906, 4607.853
775.5191, 4615.983
777.4476, 4623.092
779.3760, 4633.027
781.3045, 4651.783
783.2330, 4670.003
785.1614, 4677.672
787.0899, 4665.112
789.0184, 4664.040
790.9468, 4690.436
792.8753, 4722.255
794.8038, 4727.166
796.7322, 4691.863
798.6607, 4668.278
800.5892, 4683.045
802.5176, 4709.891
804.4461, 4713.691
806.3746, 4680.776
808.3030, 4653.164
810.2315, 4644.413
812.1600, 4646.805
814.0884, 4642.869
816.0169, 4627.928
817.9454, 4616.204
819.8738, 4611.191
821.8023, 4611.665
823.7308, 4613.846
825.6593, 4613.221
827.5878, 4621.107
829.5162, 4648.924
831.4447, 4688.079
833.3732, 4703.735
835.3016, 4672.043
837.2301, 4644.580
839.1586, 4637.015
841.0870, 4644.841
843.0155, 4650.162
844.9440, 4650.599
846.8724, 4655.328
848.8009, 4671.576
850.7294, 4697.302
852.6578, 4715.459
854.5863, 4715.712
856.5148, 4717.138
858.4432, 4723.514
860.3717, 4734.241
862.3002, 4747.622
864.2286, 4768.060
866.1571, 4785.040
868.0856, 4790.991
870.0140, 4789.701
871.9425, 4796.160
873.8710, 4820.244
875.7994, 4843.347
877.7279, 4857.634
879.6564, 4863.276
881.5848, 4871.695
883.5133, 4888.785
885.4418, 4900.381
887.3702, 4895.124
889.2987, 4878.765
891.2272, 4872.325
893.1556, 4884.154
895.0841, 4898.451
897.0126, 4912.929
898.9410, 4927.329
900.8695, 4932.561
902.7980, 4915.478
904.7264, 4904.160
906.6549, 4910.038
908.5834, 4929.917
910.5118, 4946.876
912.4403, 4962.423
914.3688, 4973.014
916.2972, 4975.186
918.2257, 4971.621
920.1542, 4971.144
922.0826, 4973.619
924.0111, 4980.257
925.9396, 4991.721
927.8680, 5006.834
929.7965, 5022.289
931.7250, 5036.998
933.6534, 5051.736
935.5819, 5064.606
937.5104, 5078.020
939.4388, 5097.934
941.3673, 5130.804
943.2958, 5158.356
945.2242, 5173.132
947.1527, 5180.032
949.0812, 5188.957
951.0096, 5194.512
952.9381, 5207.416
954.8666, 5236.964
956.7950, 5270.577
958.7235, 5286.822
960.6520, 5280.889
962.5804, 5277.303
964.5089, 5287.773
966.4374, 5303.079
968.3658, 5311.931
970.2943, 5310.083
972.2228, 5317.054
974.1512, 5338.311
976.0797, 5366.842
978.0082, 5397.933
979.9366, 5435.975
981.8651, 5459.725
983.7936, 5453.671
985.7220, 5441.302
987.6505, 5438.697
989.5790, 5445.203
991.5074, 5457.145
993.4359, 5479.122
995.3644, 5502.349
997.2928, 5524.649
999.2213, 5547.993
1001.150, 5562.853
1003.078, 5562.302
1005.007, 5562.745
1006.935, 5568.513
1008.864, 5580.169
1010.792, 5600.524
1012.721, 5636.808
1014.649, 5668.823
1016.578, 5683.276
1018.506, 5686.900
1020.434, 5695.729
1022.363, 5715.355
1024.291, 5731.929
1026.220, 5742.767
1028.148, 5749.696
1030.077, 5755.418
1032.005, 5746.902
1033.934, 5755.846
1035.862, 5799.594
1037.791, 5852.320
1039.719, 5882.793
1041.648, 5888.908
1043.576, 5892.183
1045.505, 5894.392
1047.433, 5896.669
1049.361, 5901.865
1051.290, 5911.058
1053.218, 5911.476
1055.147, 5888.505
1057.075, 5869.887
1059.004, 5869.195
1060.932, 5885.970
1062.861, 5901.624
1064.789, 5914.812
1066.718, 5929.544
1068.646, 5950.413
1070.575, 5974.796
1072.503, 5994.192
1074.432, 6003.870
1076.360, 6023.319
1078.288, 6066.566
1080.217, 6120.126
1082.145, 6167.723
1084.074, 6206.704
1086.002, 6243.424
1087.931, 6271.479
1089.859, 6299.708
1091.788, 6336.252
1093.716, 6383.009
1095.645, 6420.659
1097.573, 6443.752
1099.502, 6461.675
1101.430, 6485.242
1103.359, 6509.854
1105.287, 6512.416
1107.215, 6478.156
1109.144, 6451.822
1111.072, 6451.686
1113.001, 6471.177
1114.929, 6497.961
1116.858, 6541.785
1118.786, 6574.114
1120.715, 6584.472
1122.643, 6584.518
1124.572, 6583.105
1126.500, 6576.338
1128.429, 6579.073
1130.357, 6604.033
1132.286, 6626.743
1134.214, 6632.455
1136.142, 6624.593
1138.071, 6614.028
1139.999, 6599.447
1141.928, 6588.531
1143.856, 6588.781
1145.785, 6594.468
1147.713, 6592.364
1149.642, 6577.754
1151.570, 6564.465
1153.499, 6554.415
1155.427, 6545.315
1157.356, 6535.688
1159.284, 6525.977
1161.213, 6512.315
1163.141, 6490.233
1165.069, 6469.170
1166.998, 6454.071
1168.926, 6444.119
1170.855, 6436.091
1172.783, 6430.055
1174.712, 6424.711
1176.640, 6417.403
1178.569, 6410.210
1180.497, 6407.428
1182.426, 6412.051
1184.354, 6409.578
1186.283, 6395.834
1188.211, 6377.696
1190.140, 6356.098
1192.068, 6330.719
1193.996, 6319.910
1195.925, 6340.521
1197.853, 6355.918
1199.782, 6350.964
1201.710, 6335.457
1203.639, 6328.470
1205.567, 6330.834
1207.496, 6339.152
1209.424, 6351.544
1211.353, 6370.439
1213.281, 6401.815
1215.210, 6444.413
1217.138, 6469.940
1219.067, 6459.616
1220.995, 6448.258
1222.923, 6445.389
1224.852, 6450.310
1226.780, 6462.093
1228.709, 6500.526
1230.637, 6519.312
1232.566, 6501.843
1234.494, 6476.946
1236.423, 6468.264
1238.351, 6477.206
1240.280, 6494.066
1242.208, 6526.438
1244.137, 6556.146
1246.065, 6573.844
1247.994, 6583.527
1249.922, 6592.647
1251.850, 6600.763
1253.779, 6611.081
1255.707, 6629.265
1257.636, 6645.647
1259.564, 6648.971
1261.493, 6637.310
1263.421, 6639.225
1265.350, 6675.019
1267.278, 6700.659
1269.207, 6697.021
1271.135, 6678.027
1273.064, 6671.295
1274.992, 6685.773
1276.921, 6700.745
1278.849, 6715.327
1280.777, 6732.572
1282.706, 6758.388
1284.634, 6790.141
1286.563, 6808.514
1288.491, 6804.340
1290.420, 6800.492
1292.348, 6798.314
1294.277, 6802.287
1296.205, 6820.600
1298.134, 6854.529
1300.062, 6880.918
1301.991, 6895.616
1303.919, 6902.985
1305.848, 6903.314
1307.776, 6899.155
1309.704, 6898.789
1311.633, 6908.302
1313.561, 6912.174
1315.490, 6899.961
1317.418, 6889.784
1319.347, 6898.576
1321.275, 6928.329
1323.204, 6951.300
1325.132, 6966.187
1327.061, 6977.250
1328.989, 6982.304
1330.918, 6984.576
1332.846, 6985.985
1334.775, 6983.562
1336.703, 6993.177
1338.631, 7025.159
1340.560, 7057.374
1342.488, 7081.607
1344.417, 7097.189
1346.345, 7101.752
1348.274, 7094.785
1350.202, 7083.814
1352.131, 7059.417
1354.059, 7045.210
1355.988, 7062.549
1357.916, 7108.611
1359.845, 7142.383
1361.773, 7154.604
1363.702, 7167.075
1365.630, 7183.960
1367.558, 7202.554
1369.487, 7221.728
1371.415, 7243.122
1373.344, 7253.139
1375.272, 7236.961
1377.201, 7227.392
1379.129, 7234.072
1381.058, 7253.283
1382.986, 7283.695
1384.915, 7334.316
1386.843, 7362.969
1388.772, 7347.922
1390.700, 7332.246
1392.629, 7331.573
1394.557, 7344.642
1396.485, 7371.919
1398.414, 7419.221
1400.342, 7447.884
1402.271, 7440.877
1404.199, 7422.529
1406.128, 7402.738
1408.056, 7385.391
1409.985, 7381.067
1411.913, 7393.877
1413.842, 7411.882
1415.770, 7436.956
1417.699, 7461.338
1419.627, 7480.597
1421.556, 7493.641
1423.484, 7496.620
1425.412, 7475.612
1427.341, 7469.155
1429.269, 7492.857
1431.198, 7527.087
1433.126, 7558.270
1435.055, 7586.959
1436.983, 7612.859
1438.912, 7634.983
1440.840, 7654.664
1442.769, 7669.270
1444.697, 7681.469
1446.626, 7694.588
1448.554, 7708.524
1450.483, 7716.943
1452.411, 7724.792
1454.339, 7723.218
1456.268, 7692.336
1458.196, 7665.270
1460.125, 7688.381
1462.053, 7761.171
1463.982, 7800.291
1465.910, 7781.407
1467.839, 7766.002
1469.767, 7772.332
1471.696, 7791.299
1473.624, 7819.443
1475.553, 7854.698
1477.481, 7873.524
1479.410, 7862.942
1481.338, 7857.850
1483.266, 7881.315
1485.195, 7907.760
1487.123, 7910.271
1489.052, 7891.875
1490.980, 7883.786
1492.909, 7891.228
1494.837, 7905.557
1496.766, 7939.089
1498.694, 7967.189
1500.623, 7959.124
1502.551, 7918.007
1504.480, 7901.677
1506.408, 7921.074
1508.337, 7948.080
1510.265, 7986.310
1512.193, 8020.114
1514.122, 8033.665
1516.050, 8027.946
1517.979, 8030.997
1519.907, 8052.225
1521.836, 8064.887
1523.764, 8055.058
1525.693, 8045.392
1527.621, 8051.838
1529.550, 8073.194
1531.478, 8098.800
1533.407, 8134.881
1535.335, 8164.282
1537.264, 8180.187
1539.192, 8193.078
1541.120, 8207.128
1543.049, 8221.730
1544.977, 8237.082
1546.906, 8256.428
1548.834, 8270.232
1550.763, 8278.989
1552.691, 8284.005
1554.620, 8282.577
1556.548, 8279.961
1558.477, 8286.583
1560.405, 8305.993
1562.334, 8321.651
1564.262, 8319.334
1566.191, 8330.545
1568.119, 8382.061
1570.048, 8442.878
1571.976, 8470.051
1573.905, 8461.229
1575.833, 8460.604
1577.761, 8473.431
1579.690, 8484.173
1581.618, 8486.843
1583.547, 8485.448
1585.475, 8477.492
1587.404, 8466.887
1589.332, 8478.414
1591.261, 8523.923
1593.189, 8559.800
1595.118, 8576.938
1597.046, 8585.180
1598.975, 8584.257
1600.903, 8580.515
1602.832, 8586.783
1604.760, 8603.229
1606.688, 8625.396
1608.617, 8655.274
1610.545, 8686.116
1612.474, 8721.668
1614.402, 8752.630
1616.331, 8762.252
1618.259, 8754.033
1620.188, 8761.990
1622.116, 8793.977
1624.045, 8828.517
1625.973, 8861.825
1627.902, 8891.448
1629.830, 8912.190
1631.759, 8926.778
1633.687, 8943.458
1635.615, 8962.005
1637.544, 8982.729
1639.472, 9018.316
1641.401, 9039.562
1643.329, 9019.170
1645.258, 8985.733
1647.186, 8977.402
1649.115, 8992.634
1651.043, 9002.744
1652.972, 9003.192
1654.900, 9001.906
1656.829, 9008.183
1658.757, 9005.647
1660.686, 8963.497
1662.614, 8906.459
1664.542, 8910.487
1666.471, 8991.486
1668.399, 9030.341
1670.328, 8973.499
1672.256, 8925.360
1674.185, 8951.012
1676.113, 8999.438
1678.042, 9011.314
1679.970, 8990.582
1681.899, 8971.524
1683.827, 8952.790
1685.756, 8945.005
1687.684, 8953.494
1689.613, 8971.020
1691.541, 8998.309
1693.469, 9029.614
1695.398, 9052.999
1697.326, 9067.888
1699.255, 9089.710
1701.183, 9131.385
1703.112, 9155.755
1705.040, 9140.865
1706.969, 9111.978
1708.897, 9079.659
1710.826, 9052.237
1712.754, 9059.802
1714.683, 9112.021
1716.611, 9140.581
1718.540, 9114.019
1720.468, 9092.237
1722.396, 9104.357
1724.325, 9129.546
1726.253, 9147.473
1728.182, 9158.838
1730.110, 9167.187
1732.039, 9171.553
1733.967, 9178.027
1735.896, 9183.405
1737.824, 9196.531
1739.753, 9230.148
1741.681, 9268.487
1743.610, 9289.549
1745.538, 9294.643
1747.467, 9301.644
1749.395, 9315.397
1751.323, 9324.447
1753.252, 9315.832
1755.180, 9315.331
1757.109, 9336.166
1759.037, 9371.313
1760.966, 9413.663
1762.894, 9461.731
1764.823, 9492.215
1766.751, 9489.773
1768.680, 9492.953
1770.608, 9524.891
1772.537, 9546.525
1774.465, 9533.665
1776.394, 9502.264
1778.322, 9471.385
1780.250, 9440.015
1782.179, 9436.928
1784.107, 9486.213
1786.036, 9523.611
1787.964, 9542.894
1789.893, 9547.690
1791.821, 9525.085
1793.750, 9497.100
1795.678, 9502.128
1797.607, 9543.188
1799.535, 9577.806
1801.464, 9610.476
1803.392, 9628.140
1805.321, 9602.284
1807.249, 9591.859
1809.177, 9638.585
1811.106, 9703.819
1813.034, 9738.539
1814.963, 9743.706
1816.891, 9743.176
1818.820, 9738.603
1820.748, 9726.773
1822.677, 9687.024
1824.605, 9670.714
1826.534, 9719.530
1828.462, 9782.270
1830.391, 9807.249
1832.319, 9801.534
1834.248, 9794.183
1836.176, 9784.856
1838.104, 9782.327
1840.033, 9789.934
1841.961, 9800.677
1843.890, 9813.561
1845.818, 9826.051
1847.747, 9833.869
1849.675, 9839.922
1851.604, 9851.853
1853.532, 9870.226
1855.461, 9888.284
1857.389, 9909.297
1859.318, 9924.009
1861.246, 9921.759
1863.175, 9923.350
1865.103, 9943.199
1867.031, 9971.275
1868.960, 9992.744
1870.888, 10006.49
1872.817, 10017.54
1874.745, 10022.24
1876.674, 10030.00
1878.602, 10046.17
1880.531, 10060.39
1882.459, 10074.78
1884.388, 10084.05
1886.316, 10077.71
1888.245, 10064.23
1890.173, 10070.36
1892.102, 10103.50
1894.030, 10129.57
1895.958, 10140.18
1897.887, 10156.63
1899.815, 10190.60
1901.744, 10216.95
1903.672, 10213.15
1905.601, 10197.73
1907.529, 10196.02
1909.458, 10205.58
1911.386, 10214.86
1913.315, 10225.54
1915.243, 10229.57
1917.172, 10224.88
1919.100, 10221.17
1921.029, 10231.08
1922.957, 10236.08
1924.885, 10210.50
1926.814, 10178.05
1928.742, 10182.35
1930.671, 10218.95
1932.599, 10242.83
1934.528, 10248.01
1936.456, 10250.00
1938.385, 10246.66
1940.313, 10243.29
1942.242, 10231.58
1944.170, 10230.03
1946.099, 10270.65
1948.027, 10330.17
1949.956, 10347.47
1951.884, 10318.26
1953.813, 10321.44
1955.741, 10380.03
1957.669, 10424.45
1959.598, 10426.42
1961.526, 10435.38
1963.455, 10473.76
1965.383, 10510.09
1967.312, 10519.27
1969.240, 10507.94
1971.169, 10488.17
1973.097, 10463.68
1975.026, 10461.06
1976.954, 10494.61
1978.883, 10506.83
1980.811, 10469.15
1982.740, 10446.80
1984.668, 10471.91
1986.596, 10514.82
1988.525, 10561.78
1990.453, 10602.56
1992.382, 10611.23
1994.310, 10587.78
1996.239, 10594.07
1998.167, 10651.12
2000.096, 10684.12
2002.024, 10672.74
2003.953, 10666.88
2005.881, 10683.12
2007.810, 10706.08
2009.738, 10735.54
2011.667, 10759.84
2013.595, 10754.26
2015.523, 10724.61
2017.452, 10721.93
2019.380, 10749.84
2021.309, 10759.35
2023.237, 10738.35
2025.166, 10724.65
2027.094, 10732.79
2029.023, 10747.73
2030.951, 10761.47
2032.880, 10780.15
2034.808, 10811.04
2036.737, 10848.72
2038.665, 10880.66
2040.594, 10904.49
2042.522, 10930.90
2044.450, 10965.37
2046.379, 10984.74
2048.307, 10986.15
2050.236, 10977.33
2052.164, 10955.67
2054.093, 10934.50
2056.021, 10916.34
2057.950, 10909.20
2059.878, 10926.80
2061.807, 10963.27
2063.735, 10998.11
2065.664, 11030.79
2067.592, 11044.56
2069.521, 11032.55
2071.449, 11025.91
2073.377, 11027.20
2075.306, 11042.66
2077.234, 11086.26
2079.163, 11130.77
2081.091, 11155.43
2083.020, 11168.14
2084.948, 11181.22
2086.877, 11191.52
2088.805, 11187.41
2090.734, 11166.95
2092.662, 11148.30
2094.591, 11131.44
2096.519, 11125.89
2098.448, 11139.88
2100.376, 11160.65
2102.304, 11189.74
2104.233, 11217.94
2106.161, 11231.54
2108.090, 11242.36
2110.018, 11264.10
2111.947, 11291.74
2113.875, 11314.34
2115.804, 11331.10
2117.732, 11355.97
2119.661, 11395.97
2121.589, 11431.63
2123.518, 11458.42
2125.446, 11490.06
2127.375, 11538.92
2129.303, 11582.43
2131.231, 11614.32
2133.160, 11629.11
2135.088, 11606.54
2137.017, 11568.24
2138.945, 11568.30
2140.874, 11599.91
2142.802, 11620.82
2144.731, 11632.27
2146.659, 11619.90
2148.588, 11569.12
2150.516, 11541.28
2152.445, 11565.59
2154.373, 11590.73
2156.302, 11598.08
2158.230, 11595.91
2160.158, 11586.42
2162.087, 11570.80
2164.015, 11552.40
2165.944, 11532.56
2167.872, 11509.26
2169.801, 11486.42
2171.729, 11487.02
2173.658, 11516.06
2175.586, 11540.95
2177.515, 11550.95
2179.443, 11567.89
2181.372, 11592.85
2183.300, 11620.21
2185.229, 11657.36
2187.157, 11680.13
2189.085, 11662.93
2191.014, 11634.65
2192.942, 11637.09
2194.871, 11657.60
2196.799, 11657.79
2198.728, 11638.96
2200.656, 11608.69
2202.585, 11560.90
2204.513, 11552.92
2206.442, 11604.29
2208.370, 11626.23
2210.299, 11579.35
2212.227, 11543.53
2214.156, 11559.70
2216.084, 11583.24
2218.012, 11600.96
2219.941, 11606.90
2221.869, 11582.16
2223.798, 11549.28
2225.726, 11550.37
2227.655, 11577.75
2229.583, 11595.40
2231.512, 11603.09
2233.440, 11609.98
2235.369, 11616.05
2237.297, 11618.64
2239.226, 11609.52
2241.154, 11619.28
2243.083, 11675.73
2245.011, 11720.81
2246.939, 11724.40
2248.868, 11721.92
2250.796, 11742.48
2252.725, 11757.93
2254.653, 11736.00
2256.582, 11694.81
2258.510, 11657.08
2260.439, 11629.55
2262.367, 11641.74
2264.296, 11690.07
2266.224, 11718.98
2268.153, 11723.97
2270.081, 11720.86
2272.010, 11698.39
2273.938, 11693.23
2275.866, 11732.31
2277.795, 11751.29
2279.723, 11720.33
2281.652, 11684.34
2283.580, 11651.90
2285.509, 11636.92
2287.437, 11666.45
2289.366, 11707.62
2291.294, 11720.75
2293.223, 11719.77
2295.151, 11724.22
2297.080, 11735.94
2299.008, 11773.03
2300.937, 11837.17
2302.865, 11879.36
2304.793, 11892.36
2306.722, 11897.64
2308.650, 11891.15
2310.579, 11892.50
2312.507, 11914.04
2314.436, 11927.24
2316.364, 11913.83
2318.293, 11907.89
2320.221, 11923.11
2322.150, 11953.66
2324.078, 12009.63
2326.007, 12063.87
2327.935, 12086.41
2329.864, 12087.36
2331.792, 12078.80
2333.720, 12065.09
2335.649, 12070.77
2337.577, 12089.70
2339.506, 12069.41
2341.434, 12008.21
2343.363, 11964.02
2345.291, 11941.74
2347.220, 11939.63
2349.148, 11970.06
2351.077, 12000.96
2353.005, 12039.59
2354.934, 12062.46
2356.862, 12045.13
2358.791, 12038.37
2360.719, 12074.25
2362.647, 12107.23
2364.576, 12110.12
2366.504, 12094.50
2368.433, 12059.15
2370.361, 12022.47
2372.290, 12012.75
2374.218, 12021.88
2376.147, 12029.26
2378.075, 12036.97
2380.004, 12057.31
2381.932, 12088.07
2383.861, 12098.79
2385.789, 12086.76
2387.718, 12086.61
2389.646, 12102.07
2391.574, 12122.03
2393.503, 12155.38
2395.431, 12173.22
2397.360, 12165.74
2399.288, 12153.98
2401.217, 12138.07
2403.145, 12126.04
2405.074, 12120.87
2407.002, 12121.81
2408.931, 12129.71
2410.859, 12143.43
2412.788, 12171.73
2414.716, 12195.65
2416.645, 12183.41
2418.573, 12160.75
2420.501, 12173.79
2422.430, 12203.72
2424.358, 12195.60
2426.287, 12166.13
2428.215, 12192.71
2430.144, 12263.62
2432.072, 12277.47
2434.001, 12226.25
2435.929, 12204.46
2437.858, 12230.96
2439.786, 12227.78
2441.715, 12176.64
2443.643, 12146.21
2445.572, 12142.25
2447.500, 12158.64
2449.428, 12208.62
2451.357, 12244.57
2453.285, 12256.66
2455.214, 12248.27
2457.142, 12193.25
2459.071, 12157.39
2460.999, 12188.40
2462.928, 12224.19
2464.856, 12219.89
2466.785, 12209.85
2468.713, 12221.33
2470.642, 12237.26
2472.570, 12233.15
2474.499, 12229.16
2476.427, 12268.33
2478.355, 12323.15
2480.284, 12330.58
2482.212, 12306.70
2484.141, 12298.65
2486.069, 12305.74
2487.998, 12323.54
2489.926, 12349.88
2491.855, 12378.84
2493.783, 12409.09
2495.712, 12416.46
2497.640, 12389.63
2499.569, 12378.32
2501.497, 12391.83
2503.426, 12378.31
2505.354, 12326.90
2507.282, 12299.33
2509.211, 12313.29
2511.139, 12336.92
2513.068, 12384.98
2514.996, 12408.00
2516.925, 12376.01
2518.853, 12347.40
2520.782, 12315.41
2522.710, 12317.46
2524.639, 12392.42
2526.567, 12455.09
2528.496, 12451.02
2530.424, 12435.48
2532.353, 12445.84
2534.281, 12454.32
2536.209, 12444.21
2538.138, 12423.80
2540.066, 12383.70
2541.995, 12354.67
2543.923, 12380.01
2545.852, 12422.00
2547.780, 12431.89
2549.709, 12429.76
2551.637, 12446.90
2553.566, 12476.05
2555.494, 12508.61
2557.423, 12538.19
2559.351, 12543.48
2561.280, 12530.98
2563.208, 12522.09
2565.136, 12516.04
2567.065, 12507.23
2568.993, 12497.87
2570.922, 12509.56
2572.850, 12544.90
2574.779, 12551.79
2576.707, 12531.42
2578.636, 12520.79
2580.564, 12521.27
2582.493, 12538.54
2584.421, 12579.78
2586.350, 12601.37
2588.278, 12597.60
2590.207, 12592.98
2592.135, 12589.53
2594.063, 12584.33
2595.992, 12576.06
2597.920, 12569.76
2599.849, 12557.27
2601.777, 12565.06
2603.706, 12614.73
2605.634, 12646.02
2607.563, 12649.10
2609.491, 12642.14
2611.420, 12625.86
2613.348, 12618.38
2615.277, 12646.34
2617.205, 12651.27
2619.134, 12588.89
2621.062, 12547.37
2622.990, 12559.55
2624.919, 12581.65
2626.847, 12602.12
2628.776, 12621.89
2630.704, 12636.42
2632.633, 12657.20
2634.561, 12708.80
2636.490, 12742.83
2638.418, 12714.01
2640.347, 12691.85
2642.275, 12701.82
2644.204, 12737.29
2646.132, 12823.11
2648.061, 12889.98
2649.989, 12884.41
2651.917, 12855.23
2653.846, 12817.96
2655.774, 12796.73
2657.703, 12836.87
2659.631, 12871.14
2661.560, 12824.55
2663.488, 12785.81
2665.417, 12854.81
2667.345, 12931.65
2669.274, 12910.86
2671.202, 12869.66
2673.131, 12882.43
2675.059, 12909.54
2676.988, 12920.00
2678.916, 12922.88
2680.844, 12920.62
2682.773, 12923.19
2684.701, 12948.01
2686.630, 12976.89
2688.558, 12984.40
2690.487, 12988.87
2692.415, 13007.39
2694.344, 13036.18
2696.272, 13085.37
2698.201, 13127.26
2700.129, 13119.85
2702.058, 13089.75
2703.986, 13054.15
2705.915, 13032.94
2707.843, 13066.64
2709.771, 13112.53
2711.700, 13110.46
2713.628, 13092.39
2715.557, 13103.66
2717.485, 13123.60
2719.414, 13122.72
2721.342, 13114.39
2723.271, 13115.64
2725.199, 13119.88
2727.128, 13123.69
2729.056, 13122.91
2730.985, 13101.69
2732.913, 13082.33
2734.842, 13095.20
2736.770, 13123.38
2738.698, 13155.15
2740.627, 13178.35
2742.555, 13183.14
2744.484, 13162.09
2746.412, 13089.34
2748.341, 13003.06
2750.269, 12952.09
2752.198, 12908.39
2754.126, 12831.88
2756.055, 12757.78
2757.983, 12727.19
2759.912, 12719.26
2761.840, 12720.39
2763.769, 12722.67
2765.697, 12711.16
2767.625, 12705.43
2769.554, 12736.06
2771.482, 12767.21
2773.411, 12755.53
2775.339, 12740.09
2777.268, 12767.63
2779.196, 12785.21
2781.125, 12728.45
2783.053, 12675.05
2784.982, 12694.12
2786.910, 12731.56
2788.839, 12763.70
2790.767, 12786.29
2792.696, 12787.50
2794.624, 12792.64
2796.552, 12827.51
2798.481, 12851.14
2800.409, 12823.07
2802.338, 12789.92
2804.266, 12751.34
2806.195, 12742.19
2808.123, 12823.11
2810.052, 12873.33
2811.980, 12825.78
2813.909, 12774.67
2815.837, 12748.26
2817.766, 12739.37
2819.694, 12759.22
2821.623, 12769.23
2823.551, 12733.16
2825.479, 12722.50
2827.408, 12769.09
2829.336, 12797.71
2831.265, 12791.18
2833.193, 12770.13
2835.122, 12711.08
2837.050, 12703.85
2838.979, 12799.11
2840.907, 12851.97
2842.836, 12850.82
2844.764, 12810.86
2846.693, 12721.92
2848.621, 12681.99
2850.550, 12724.53
2852.478, 12758.96
2854.406, 12784.29
2856.335, 12804.31
2858.263, 12815.89
2860.192, 12823.31
2862.120, 12824.24
2864.049, 12789.63
2865.977, 12719.56
2867.906, 12700.10
2869.834, 12726.44
2871.763, 12747.98
2873.691, 12774.67
2875.620, 12878.76
2877.548, 13017.83
2879.477, 13005.84
2881.405, 12901.30
2883.333, 12852.37
2885.262, 12832.30
2887.190, 12787.17
2889.119, 12741.49
2891.047, 12742.85
2892.976, 12764.27
2894.904, 12774.87
2896.833, 12783.04
2898.761, 12813.93
2900.690, 12828.49
2902.618, 12765.89
2904.547, 12708.47
2906.475, 12719.95
2908.404, 12742.53
2910.332, 12744.14
2912.260, 12744.44
2914.189, 12762.58
2916.117, 12764.01
2918.046, 12719.33
2919.974, 12706.82
2921.903, 12774.21
2923.831, 12828.24
2925.760, 12831.53
2927.688, 12843.82
2929.617, 12874.09
2931.545, 12875.37
2933.474, 12829.52
2935.402, 12810.12
2937.331, 12836.75
2939.259, 12847.89
2941.188, 12846.20
2943.116, 12817.11
2945.044, 12767.64
2946.973, 12766.51
2948.901, 12806.46
2950.830, 12816.99
2952.758, 12808.10
2954.687, 12818.91
2956.615, 12842.39
2958.544, 12858.77
2960.472, 12878.49
2962.401, 12931.98
2964.329, 12985.15
2966.258, 12991.12
2968.186, 12976.64
2970.115, 12960.33
2972.043, 12942.83
2973.971, 12927.08
2975.900, 12914.76
2977.828, 12910.79
2979.757, 12912.32
2981.685, 12921.08
2983.614, 12932.73
2985.542, 12938.15
2987.471, 12960.75
2989.399, 13014.33
2991.328, 13017.25
2993.256, 12926.69
2995.185, 12881.41
2997.113, 12894.12
2999.042, 12930.92
3000.970, 12990.08
3002.898, 13002.51
3004.827, 12975.24
3006.755, 12981.23
3008.684, 13010.84
3010.612, 13009.81
3012.541, 13005.57
3014.469, 13070.65
3016.398, 13153.83
3018.326, 13185.33
3020.255, 13188.73
3022.183, 13182.29
3024.112, 13172.50
3026.040, 13165.93
3027.969, 13156.57
3029.897, 13140.27
3031.825, 13119.00
3033.754, 13081.67
3035.682, 13073.17
3037.611, 13133.39
3039.539, 13160.87
3041.468, 13125.53
3043.396, 13132.59
3045.325, 13190.24
3047.253, 13216.46
3049.182, 13201.38
3051.110, 13217.38
3053.039, 13256.15
3054.967, 13246.33
3056.896, 13211.83
3058.824, 13211.12
3060.753, 13231.64
3062.681, 13261.02
3064.610, 13284.84
3066.538, 13268.10
3068.467, 13258.17
3070.395, 13299.73
3072.323, 13343.58
3074.252, 13364.83
3076.180, 13381.73
3078.109, 13399.17
3080.037, 13416.20
3081.966, 13440.60
3083.894, 13445.35
3085.823, 13422.84
3087.751, 13427.56
3089.680, 13462.92
3091.608, 13533.45
3093.537, 13627.33
3095.465, 13616.56
3097.394, 13552.59
3099.322, 13604.28
3101.250, 13707.60
3103.179, 13787.69
3105.107, 13837.67
3107.036, 13834.84
3108.964, 13818.98
3110.893, 13813.42
3112.821, 13808.79
3114.750, 13777.61
3116.678, 13801.44
3118.607, 13919.20
3120.535, 13996.46
3122.464, 13990.03
3124.392, 13998.22
3126.321, 14023.33
3128.249, 14035.81
3130.177, 14034.31
3132.106, 14011.96
3134.034, 13989.34
3135.963, 14039.09
3137.891, 14116.74
3139.820, 14156.79
3141.748, 14180.96
3143.677, 14198.59
3145.605, 14216.14
3147.534, 14219.30
3149.462, 14247.99
3151.391, 14325.98
3153.319, 14398.21
3155.248, 14444.91
3157.176, 14513.27
3159.104, 14608.93
3161.033, 14675.76
3162.961, 14714.22
3164.890, 14776.97
3166.818, 14850.91
3168.747, 14884.96
3170.675, 14895.76
3172.604, 14890.89
3174.532, 14901.38
3176.461, 14968.53
3178.389, 15051.18
3180.318, 15145.48
3182.246, 15215.72
3184.175, 15235.40
3186.103, 15251.01
3188.031, 15260.44
3189.960, 15320.74
3191.888, 15444.77
3193.817, 15487.88
3195.745, 15466.46
3197.674, 15550.69
3199.602, 15675.32
3201.531, 15694.71
3203.459, 15680.91
3205.388, 15721.12
3207.316, 15775.77
3209.245, 15823.61
3211.173, 15869.28
3213.102, 15924.04
3215.030, 15958.13
3216.958, 15964.33
3218.887, 15979.41
3220.815, 16007.49
3222.744, 16096.71
3224.672, 16236.49
3226.601, 16296.37
3228.529, 16325.69
3230.458, 16441.52
3232.386, 16578.02
3234.315, 16649.19
3236.243, 16708.59
3238.172, 16802.05
3240.100, 16868.17
3242.029, 16855.49
3243.957, 16869.56
3245.885, 16926.31
3247.814, 16990.55
3249.742, 17062.20
3251.671, 17096.31
3253.599, 17104.51
3255.528, 17119.15
3257.456, 17158.35
3259.385, 17276.46
3261.313, 17401.06
3263.242, 17477.03
3265.170, 17518.76
3267.099, 17504.44
3269.027, 17512.66
3270.956, 17564.31
3272.884, 17612.18
3274.813, 17651.34
3276.741, 17696.16
3278.669, 17741.53
3280.598, 17726.13
3282.526, 17698.35
3284.455, 17756.26
3286.383, 17838.17
3288.312, 17881.00
3290.240, 17925.04
3292.169, 17984.66
3294.097, 18053.84
3296.026, 18179.13
3297.954, 18171.51
3299.883, 18023.31
3301.811, 17997.53
3303.740, 18084.15
3305.668, 18190.63
3307.596, 18285.46
3309.525, 18286.83
3311.453, 18271.16
3313.382, 18292.50
3315.310, 18339.51
3317.239, 18428.47
3319.167, 18472.06
3321.096, 18421.12
3323.024, 18455.61
3324.953, 18584.61
3326.881, 18679.04
3328.810, 18744.94
3330.738, 18780.67
3332.667, 18835.09
3334.595, 19009.93
3336.523, 19187.19
3338.452, 19290.90
3340.380, 19374.89
3342.309, 19460.25
3344.237, 19506.96
3346.166, 19508.44
3348.094, 19542.30
3350.023, 19613.70
3351.951, 19763.32
3353.880, 19921.97
3355.808, 19940.67
3357.737, 19949.63
3359.665, 20065.89
3361.594, 20213.77
3363.522, 20397.69
3365.450, 20516.46
3367.379, 20531.13
3369.307, 20627.64
3371.236, 20792.28
3373.164, 20862.56
3375.093, 20897.82
3377.021, 21073.10
3378.950, 21239.49
3380.878, 21230.48
3382.807, 21230.93
3384.735, 21332.42
3386.664, 21451.02
3388.592, 21580.12
3390.521, 21686.96
3392.449, 21772.81
3394.377, 21877.89
3396.306, 22001.70
3398.234, 22164.83
3400.163, 22314.80
3402.091, 22384.38
3404.020, 22457.19
3405.948, 22581.74
3407.877, 22654.40
3409.805, 22641.14
3411.734, 22712.10
3413.662, 22852.40
3415.591, 22961.33
3417.519, 23049.57
3419.448, 23156.60
3421.376, 23234.32
3423.304, 23224.16
3425.233, 23226.90
3427.161, 23263.87
3429.090, 23365.36
3431.018, 23537.43
3432.947, 23646.01
3434.875, 23705.25
3436.804, 23803.84
3438.732, 23891.13
3440.661, 23888.63
3442.589, 23886.23
3444.518, 23953.19
3446.446, 23968.57
3448.375, 23871.18
3450.303, 23873.08
3452.231, 23966.21
3454.160, 24005.85
3456.088, 24015.44
3458.017, 24016.71
3459.945, 24044.00
3461.874, 24132.83
3463.802, 24215.42
3465.731, 24274.06
3467.659, 24289.01
3469.588, 24261.38
3471.516, 24241.85
3473.445, 24228.47
3475.373, 24204.19
3477.302, 24178.76
3479.230, 24172.60
3481.158, 24150.25
3483.087, 24068.93
3485.015, 24056.55
3486.944, 24135.53
3488.872, 24182.90
3490.801, 24198.84
3492.729, 24213.37
3494.658, 24218.65
3496.586, 24192.57
3498.515, 24180.53
3500.443, 24224.49
3502.372, 24227.09
3504.300, 24148.28
3506.229, 24124.84
3508.157, 24150.66
3510.085, 24170.36
3512.014, 24208.47
3513.942, 24339.02
3515.871, 24429.01
3517.799, 24368.30
3519.728, 24356.73
3521.656, 24448.16
3523.585, 24526.52
3525.513, 24577.80
3527.442, 24526.43
3529.370, 24448.90
3531.299, 24459.29
3533.227, 24485.19
3535.156, 24502.64
3537.084, 24489.35
3539.012, 24442.17
3540.941, 24408.49
3542.869, 24384.69
3544.798, 24328.53
3546.726, 24267.87
3548.655, 24233.62
3550.583, 24210.79
3552.512, 24214.90
3554.440, 24171.93
3556.369, 24073.77
3558.297, 23907.57
3560.226, 23717.36
3562.154, 23694.92
3564.083, 23698.67
3566.011, 23591.90
3567.939, 23446.11
3569.868, 23273.86
3571.796, 23129.88
3573.725, 23023.89
3575.653, 22841.80
3577.582, 22625.68
3579.510, 22472.46
3581.439, 22320.35
3583.367, 22114.15
3585.296, 21911.43
3587.224, 21723.30
3589.153, 21573.72
3591.081, 21455.46
3593.010, 21310.52
3594.938, 21147.08
3596.866, 20973.27
3598.795, 20782.33
3600.723, 20549.60
3602.652, 20366.63
3604.580, 20253.54
3606.509, 20102.97
3608.437, 19914.28
3610.366, 19666.87
3612.294, 19421.29
3614.223, 19225.21
3616.151, 19051.24
3618.080, 18903.31
3620.008, 18734.89
3621.937, 18539.89
3623.865, 18282.02
3625.793, 18010.70
3627.722, 17805.18
3629.650, 17612.24
3631.579, 17413.84
3633.507, 17202.96
3635.436, 16979.19
3637.364, 16768.67
3639.293, 16557.01
3641.221, 16295.39
3643.150, 16030.67
3645.078, 15791.76
3647.007, 15567.34
3648.935, 15354.69
3650.864, 15130.21
3652.792, 14893.34
3654.720, 14631.69
3656.649, 14391.88
3658.577, 14231.39
3660.506, 14083.82
3662.434, 13932.32
3664.363, 13771.23
3666.291, 13605.39
3668.220, 13477.13
3670.148, 13367.07
3672.077, 13246.83
3674.005, 13131.46
3675.934, 13028.31
3677.862, 12928.87
3679.791, 12832.03
3681.719, 12733.66
3683.647, 12638.49
3685.576, 12564.08
3687.504, 12486.05
3689.433, 12371.87
3691.361, 12304.80
3693.290, 12291.75
3695.218, 12268.06
3697.147, 12237.47
3699.075, 12223.45
3701.004, 12200.18
3702.932, 12149.15
3704.861, 12087.28
3706.789, 12019.68
3708.718, 11968.37
3710.646, 11928.19
3712.574, 11870.25
3714.503, 11825.56
3716.431, 11819.48
3718.360, 11821.43
3720.288, 11824.38
3722.217, 11799.09
3724.145, 11762.06
3726.074, 11773.89
3728.002, 11788.65
3729.931, 11782.55
3731.859, 11746.00
3733.788, 11677.88
3735.716, 11665.34
3737.645, 11682.46
3739.573, 11651.32
3741.501, 11613.07
3743.430, 11600.17
3745.358, 11575.61
3747.287, 11535.37
3749.215, 11540.40
3751.144, 11566.34
3753.072, 11554.68
3755.001, 11523.70
3756.929, 11475.24
3758.858, 11426.83
3760.786, 11382.67
3762.715, 11370.72
3764.643, 11376.39
3766.572, 11382.02
3768.500, 11367.81
3770.428, 11287.29
3772.357, 11278.86
3774.285, 11339.13
3776.214, 11326.39
3778.142, 11283.97
3780.071, 11278.17
3781.999, 11287.57
3783.928, 11332.20
3785.856, 11299.36
3787.785, 11208.59
3789.713, 11198.98
3791.642, 11220.22
3793.570, 11222.16
3795.499, 11210.16
3797.427, 11180.73
3799.355, 11142.14
3801.284, 11107.46
3803.212, 11130.30
3805.141, 11164.93
3807.069, 11181.84
3808.998, 11181.34
3810.926, 11162.67
3812.855, 11144.08
3814.783, 11136.70
3816.712, 11178.76
3818.640, 11207.28
3820.569, 11185.06
3822.497, 11157.83
3824.426, 11132.26
3826.354, 11142.65
3828.282, 11160.38
3830.211, 11145.87
3832.139, 11131.06
3834.068, 11126.73
3835.996, 11117.35
3837.925, 11102.59
3839.853, 11081.96
3841.782, 11065.93
3843.710, 11067.13
3845.639, 11068.52
3847.567, 11063.58
3849.496, 11038.22
3851.424, 11012.39
3853.353, 11026.46
3855.281, 11041.92
3857.209, 11047.05
3859.138, 11019.08
3861.066, 10964.76
3862.995, 10930.89
3864.923, 10921.02
3866.852, 10948.96
3868.780, 10986.56
3870.709, 11023.12
3872.637, 10996.52
3874.566, 10940.43
3876.494, 10896.51
3878.423, 10873.70
3880.351, 10903.14
3882.280, 10874.78
3884.208, 10807.45
3886.136, 10789.33
3888.065, 10805.11
3889.993, 10843.65
3891.922, 10860.36
3893.850, 10848.77
3895.779, 10817.39
3897.707, 10779.13
3899.636, 10726.60
3901.564, 10696.17
3903.493, 10730.99
3905.421, 10748.69
3907.350, 10732.22
3909.278, 10720.39
3911.207, 10706.61
3913.135, 10653.55
3915.063, 10609.50
3916.992, 10602.06
3918.920, 10617.50
3920.849, 10624.49
3922.777, 10580.03
3924.706, 10567.75
3926.634, 10594.44
3928.563, 10575.53
3930.491, 10539.52
3932.420, 10571.54
3934.348, 10595.43
3936.277, 10571.73
3938.205, 10564.55
3940.134, 10550.23
3942.062, 10505.00
3943.990, 10489.46
3945.919, 10496.76
3947.847, 10490.03
3949.776, 10489.24
3951.704, 10454.28
3953.633, 10410.06
3955.561, 10392.45
3957.490, 10381.78
3959.418, 10390.47
3961.347, 10408.69
3963.275, 10413.88
3965.204, 10369.60
3967.132, 10324.42
3969.061, 10306.41
3970.989, 10296.21
3972.917, 10289.45
3974.846, 10323.72
3976.774, 10338.89
3978.703, 10287.77
3980.631, 10286.36
3982.560, 10319.20
3984.488, 10309.54
3986.417, 10287.50
3988.345, 10270.57
3990.274, 10245.34
3992.202, 10214.59
3994.131, 10204.60
3996.059, 10202.75
3997.988, 10203.90
3999.916, 10181.78
4001.844, 10127.34
4003.773, 10087.68
4005.701, 10064.70
4007.630, 10080.93
4009.558, 10086.60
4011.487, 10067.30
4013.415, 10052.88
4015.344, 10038.04
4017.272, 10042.20
4019.201, 10026.79
4021.129, 9965.697
4023.058, 9953.091
4024.986, 9984.922
4026.915, 9987.956
4028.843, 9967.436
4030.771, 9909.530
4032.700, 9892.480
4034.628, 9924.216
4036.557, 9916.339
4038.485, 9894.236
4040.414, 9867.049
4042.342, 9848.347
4044.271, 9842.898
4046.199, 9821.347
4048.128, 9785.330
4050.056, 9749.231
4051.985, 9732.678
4053.913, 9714.440
4055.842, 9702.792
4057.770, 9698.876
4059.698, 9682.075
4061.627, 9669.234
4063.555, 9685.029
4065.484, 9709.175
4067.412, 9690.877
4069.341, 9637.818
4071.269, 9605.939
4073.198, 9613.680
4075.126, 9613.676
4077.055, 9599.558
4078.983, 9585.593
4080.912, 9558.132
4082.840, 9521.847
4084.769, 9528.688
4086.697, 9544.027
4088.625, 9516.544
4090.554, 9489.454
4092.482, 9498.960
4094.411, 9496.958
4096.339, 9473.926
4098.268, 9476.082
4100.196, 9471.395
4102.125, 9429.025
4104.053, 9396.992
4105.982, 9415.994
4107.910, 9430.758
4109.839, 9380.367
4111.767, 9360.271
4113.696, 9384.671
4115.624, 9367.801
4117.553, 9332.452
4119.481, 9335.872
4121.410, 9329.724
4123.338, 9303.205
4125.267, 9264.236
4127.195, 9234.679
4129.124, 9230.066
4131.052, 9204.833
4132.980, 9185.741
4134.909, 9191.743
4136.837, 9184.580
4138.766, 9160.331
4140.694, 9136.376
4142.623, 9120.128
4144.551, 9088.934
4146.479, 9072.001
4148.408, 9078.322
4150.336, 9073.523
4152.265, 9057.591
4154.193, 9041.699
4156.122, 9008.717
4158.050, 8952.745
4159.979, 8945.499
4161.907, 8974.230
4163.836, 8941.896
4165.764, 8897.938
4167.693, 8885.514
4169.621, 8887.145
4171.550, 8891.788
4173.478, 8849.229
4175.407, 8807.459
4177.335, 8819.807
4179.264, 8803.934
4181.192, 8761.798
4183.121, 8779.752
4185.049, 8804.825
4186.978, 8783.634
4188.906, 8778.330
4190.834, 8791.283
4192.763, 8759.077
4194.691, 8719.979
4196.620, 8724.683
4198.548, 8685.679
4200.477, 8609.765
4202.405, 8582.546
4204.333, 8582.152
4206.262, 8612.156
4208.190, 8595.138
4210.119, 8542.295
4212.047, 8537.139
4213.976, 8546.756
4215.904, 8556.252
4217.833, 8553.961
4219.761, 8535.206
4221.690, 8458.588
4223.618, 8425.787
4225.547, 8522.449
4227.475, 8533.088
4229.404, 8477.231
4231.332, 8426.638
4233.261, 8411.175
4235.189, 8458.587
4237.118, 8444.849
4239.046, 8392.644
4240.975, 8350.458
4242.903, 8348.416
4244.832, 8402.929
4246.760, 8395.916
4248.688, 8352.188
4250.617, 8313.180
4252.545, 8300.077
4254.474, 8318.549
4256.402, 8316.020
4258.331, 8296.051
4260.259, 8242.667
4262.188, 8246.898
4264.116, 8312.516
4266.044, 8265.889
4267.973, 8203.431
4269.901, 8243.036
4271.830, 8240.078
4273.758, 8195.035
4275.687, 8232.917
4277.615, 8275.036
4279.544, 8257.931
4281.472, 8244.146
4283.401, 8231.618
4285.329, 8193.081
4287.258, 8150.301
4289.186, 8109.537
4291.115, 8115.911
4293.043, 8142.579
4294.972, 8118.721
4296.900, 8109.104
4298.829, 8137.549
4300.757, 8115.034
4302.686, 8089.586
4304.614, 8164.611
4306.542, 8166.617
4308.471, 8067.356
4310.399, 8041.056
4312.328, 8038.643
4314.256, 8014.635
4316.185, 8001.644
4318.113, 8000.942
4320.042, 7996.869
4321.970, 7999.292
4323.898, 8030.800
4325.827, 7998.426
4327.755, 7935.633
4329.684, 7918.497
4331.612, 7933.264
4333.541, 7988.273
4335.469, 7984.858
4337.398, 7951.506
4339.326, 7903.643
4341.255, 7892.419
4343.183, 7921.484
4345.112, 7970.661
4347.040, 7973.676
4348.969, 7864.760
4350.897, 7822.646
4352.826, 7842.221
4354.754, 7890.374
4356.683, 7900.160
4358.611, 7845.226
4360.540, 7830.806
4362.468, 7828.190
4364.396, 7790.576
4366.325, 7769.896
4368.253, 7769.816
4370.182, 7733.404
4372.110, 7721.270
4374.039, 7785.269
4375.967, 7790.135
4377.896, 7756.627
4379.824, 7769.445
4381.752, 7769.456
4383.681, 7736.069
4385.609, 7751.276
4387.538, 7776.339
4389.466, 7767.288
4391.395, 7728.098
4393.323, 7671.973
4395.252, 7680.212
4397.180, 7697.085
4399.109, 7694.366
4401.037, 7672.417
4402.966, 7650.157
4404.894, 7675.763
4406.823, 7668.258
4408.751, 7611.963
4410.680, 7589.891
4412.608, 7585.077
4414.537, 7585.289
4416.465, 7608.345
4418.394, 7637.475
4420.322, 7621.785
4422.250, 7602.472
4424.179, 7591.946
4426.107, 7580.706
4428.036, 7565.413
4429.964, 7539.018
4431.893, 7518.724
4433.821, 7506.525
4435.750, 7507.706
4437.678, 7506.450
4439.606, 7492.973
4441.535, 7504.853
4443.463, 7514.922
4445.392, 7474.689
4447.320, 7471.992
4449.249, 7509.790
4451.177, 7576.825
4453.106, 7568.855
4455.034, 7435.104
4456.963, 7437.911
4458.891, 7497.555
4460.820, 7505.860
4462.748, 7484.860
4464.677, 7449.139
4466.605, 7442.961
4468.534, 7438.258
4470.462, 7417.500
4472.391, 7406.041
4474.319, 7411.161
4476.248, 7461.763
4478.176, 7473.712
4480.104, 7443.009
4482.033, 7401.769
4483.961, 7378.641
4485.890, 7386.753
4487.818, 7398.643
4489.747, 7399.551
4491.675, 7370.174
4493.604, 7331.708
4495.532, 7299.272
4497.460, 7327.026
4499.389, 7342.257
4501.317, 7313.097
4503.246, 7314.139
4505.174, 7309.284
4507.103, 7244.328
4509.031, 7218.209
4510.960, 7226.340
4512.888, 7244.595
4514.817, 7246.841
4516.745, 7228.879
4518.674, 7215.386
4520.602, 7207.287
4522.531, 7206.038
4524.459, 7208.800
4526.388, 7209.380
4528.316, 7187.664
4530.245, 7183.163
4532.173, 7196.175
4534.102, 7155.586
4536.030, 7131.431
4537.958, 7162.934
4539.887, 7150.737
4541.815, 7124.025
4543.744, 7124.807
4545.672, 7115.475
4547.601, 7091.043
4549.529, 7028.738
4551.458, 7011.561
4553.386, 7067.297
4555.314, 7096.878
4557.243, 7083.571
4559.171, 6994.375
4561.100, 6995.322
4563.028, 7031.063
4564.957, 6989.781
4566.885, 6973.272
4568.814, 6987.857
4570.742, 6986.794
4572.671, 6973.475
4574.599, 6944.768
4576.528, 6972.613
4578.456, 6993.114
4580.385, 6934.665
4582.313, 6926.427
4584.242, 6943.649
4586.170, 6914.879
4588.099, 6900.354
4590.027, 6908.507
4591.956, 6950.051
4593.884, 6947.558
4595.813, 6857.369
4597.741, 6827.875
4599.669, 6837.525
4601.598, 6873.595
4603.526, 6897.059
4605.455, 6911.219
4607.383, 6945.871
4609.312, 6915.959
4611.240, 6834.205
4613.168, 6793.850
4615.097, 6785.270
4617.025, 6807.470
4618.954, 6788.647
4620.882, 6771.986
4622.811, 6793.733
4624.739, 6770.472
4626.668, 6738.368
4628.596, 6769.766
4630.525, 6759.733
4632.453, 6714.157
4634.382, 6679.398
4636.310, 6671.110
4638.239, 6690.498
4640.167, 6702.203
4642.096, 6713.423
4644.024, 6728.306
4645.953, 6690.742
4647.881, 6647.979
4649.810, 6653.828
4651.738, 6637.294
4653.667, 6615.930
4655.595, 6643.976
4657.523, 6628.340
4659.452, 6576.488
4661.380, 6579.006
4663.309, 6571.096
4665.237, 6540.235
4667.166, 6536.244
4669.094, 6543.889
4671.022, 6560.730
4672.951, 6529.168
4674.879, 6501.742
4676.808, 6529.708
4678.736, 6534.642
4680.665, 6520.583
4682.593, 6493.697
4684.522, 6504.329
4686.450, 6530.780
4688.379, 6469.618
4690.307, 6438.827
4692.236, 6457.091
4694.164, 6456.446
4696.093, 6445.155
4698.021, 6427.537
4699.950, 6406.950
4701.878, 6408.065
4703.807, 6457.228
4705.735, 6468.491
4707.664, 6449.116
4709.592, 6401.643
4711.521, 6379.600
4713.449, 6379.011
4715.377, 6397.211
4717.306, 6375.587
4719.234, 6333.551
4721.163, 6363.515
4723.091, 6367.312
4725.020, 6333.508
4726.948, 6309.108
4728.876, 6310.503
4730.805, 6342.890
4732.733, 6306.106
4734.662, 6282.872
4736.590, 6316.172
4738.519, 6334.066
4740.447, 6313.058
4742.376, 6221.239
4744.304, 6201.228
4746.233, 6225.319
4748.161, 6268.332
4750.090, 6250.502
4752.018, 6210.167
4753.947, 6238.605
4755.875, 6197.163
4757.804, 6123.147
4759.732, 6182.955
4761.661, 6188.878
4763.589, 6133.679
4765.518, 6160.285
4767.446, 6171.973
4769.375, 6145.799
4771.303, 6094.405
4773.231, 6076.554
4775.160, 6115.964
4777.088, 6117.799
4779.017, 6106.148
4780.945, 6093.029
4782.874, 6089.328
4784.802, 6104.528
4786.730, 6156.498
4788.659, 6153.748
4790.587, 6116.159
4792.516, 6054.337
4794.444, 6050.113
4796.373, 6066.462
4798.301, 6047.952
4800.230, 6033.991
4802.158, 6032.912
4804.087, 6056.257
4806.015, 6097.102
4807.944, 6117.671
4809.872, 6015.855
4811.801, 5984.702
4813.729, 6015.673
4815.658, 6020.939
4817.586, 6014.088
4819.515, 5996.173
4821.443, 5948.206
4823.372, 5934.915
4825.300, 5959.805
4827.229, 5967.620
4829.157, 5962.100
4831.085, 5945.969
4833.014, 5922.880
4834.942, 5895.083
4836.871, 5866.306
4838.799, 5893.804
4840.728, 5931.535
4842.656, 5955.696
4844.584, 5884.391
4846.513, 5836.106
4848.441, 5864.067
4850.370, 5874.294
4852.298, 5873.453
4854.227, 5865.505
4856.155, 5829.856
4858.084, 5818.944
4860.012, 5862.402
4861.941, 5867.000
4863.869, 5844.665
4865.798, 5801.917
4867.726, 5789.943
4869.655, 5781.475
4871.583, 5758.640
4873.512, 5716.832
4875.440, 5694.950
4877.369, 5732.490
4879.297, 5735.234
4881.226, 5710.492
4883.154, 5661.792
4885.083, 5682.016
4887.011, 5712.811
4888.939, 5698.976
4890.868, 5663.296
4892.796, 5647.251
4894.725, 5685.394
4896.653, 5702.273
4898.582, 5702.284
4900.510, 5691.647
4902.438, 5689.144
4904.367, 5670.054
4906.295, 5608.704
4908.224, 5622.532
4910.152, 5643.335
4912.081, 5605.070
4914.009, 5597.097
4915.938, 5610.787
4917.866, 5642.175
4919.795, 5610.997
4921.723, 5572.971
4923.652, 5572.548
4925.580, 5594.080
4927.509, 5604.423
4929.437, 5567.427
4931.366, 5583.639
4933.294, 5596.786
4935.223, 5569.462
4937.151, 5548.910
4939.080, 5528.630
4941.008, 5500.180
4942.937, 5497.578
4944.865, 5506.851
4946.793, 5519.672
4948.722, 5501.241
4950.650, 5493.920
4952.579, 5517.905
4954.507, 5473.740
4956.436, 5456.439
4958.364, 5511.849
4960.292, 5478.129
4962.221, 5458.638
4964.149, 5484.545
4966.078, 5480.461
4968.006, 5464.412
4969.935, 5446.462
4971.863, 5463.379
4973.792, 5467.570
4975.720, 5445.434
4977.649, 5390.997
4979.577, 5358.104
4981.506, 5355.431
4983.434, 5371.406
4985.363, 5360.809
4987.291, 5327.835
4989.220, 5314.712
4991.148, 5310.236
4993.077, 5309.913
4995.005, 5305.234
4996.934, 5320.447
4998.862, 5340.496
5000.791, 5327.412
5002.719, 5337.029
5004.647, 5349.190
5006.576, 5324.101
5008.504, 5335.324
5010.433, 5341.780
5012.361, 5276.860
5014.290, 5268.000
5016.218, 5274.597
5018.146, 5262.721
5020.075, 5259.357
5022.003, 5259.862
5023.932, 5259.560
5025.860, 5252.037
5027.789, 5228.201
5029.717, 5186.549
5031.646, 5181.463
5033.574, 5198.439
5035.503, 5222.541
5037.431, 5206.708
5039.360, 5175.707
5041.288, 5144.289
5043.217, 5142.744
5045.145, 5154.393
5047.074, 5164.047
5049.002, 5136.366
5050.931, 5155.081
5052.859, 5183.057
5054.788, 5140.193
5056.716, 5107.517
5058.645, 5088.650
5060.573, 5079.967
5062.501, 5132.987
5064.430, 5155.293
5066.358, 5083.515
5068.287, 5057.562
5070.215, 5054.626
5072.144, 5058.736
5074.072, 5061.308
5076.000, 5071.830
5077.929, 5083.271
5079.857, 5029.464
5081.786, 5018.723
5083.714, 5045.091
5085.643, 5029.366
5087.571, 5012.979
5089.500, 5006.786
5091.428, 5022.962
5093.357, 5017.296
5095.285, 4998.261
5097.214, 4976.494
5099.142, 4984.376
5101.071, 4990.027
5102.999, 4969.990
5104.928, 4970.437
5106.856, 4976.371
5108.785, 4984.337
5110.713, 5026.956
5112.642, 5018.605
5114.570, 4962.680
5116.499, 4921.848
5118.427, 4909.413
5120.355, 4917.388
5122.284, 4933.944
5124.212, 4929.773
5126.141, 4918.986
5128.069, 4916.548
5129.998, 4922.290
5131.926, 4919.692
5133.854, 4900.395
5135.783, 4880.080
5137.711, 4877.349
5139.640, 4892.155
5141.568, 4900.992
5143.497, 4903.698
5145.425, 4898.603
5147.354, 4881.712
5149.282, 4858.029
5151.211, 4843.870
5153.139, 4861.144
5155.068, 4827.973
5156.996, 4820.280
5158.925, 4872.117
5160.853, 4838.538
5162.782, 4816.126
5164.710, 4827.844
5166.639, 4804.116
5168.567, 4790.654
5170.496, 4787.972
5172.424, 4783.768
5174.353, 4741.551
5176.281, 4701.542
5178.209, 4705.502
5180.138, 4725.411
5182.066, 4730.729
5183.995, 4709.710
5185.923, 4700.933
5187.852, 4691.426
5189.780, 4680.308
5191.708, 4683.124
5193.637, 4642.872
5195.565, 4607.754
5197.494, 4663.102
5199.422, 4660.451
5201.351, 4647.065
5203.279, 4657.827
5205.208, 4661.497
5207.136, 4655.196
5209.065, 4644.041
5210.993, 4651.809
5212.922, 4657.365
5214.850, 4660.324
5216.779, 4669.502
5218.707, 4652.116
5220.636, 4632.092
5222.564, 4626.677
5224.493, 4652.333
5226.421, 4669.288
5228.350, 4661.911
5230.278, 4617.484
5232.207, 4577.099
5234.135, 4552.813
5236.063, 4550.568
5237.992, 4576.371
5239.920, 4599.556
5241.849, 4599.145
5243.777, 4561.454
5245.706, 4530.690
5247.634, 4523.861
5249.563, 4560.917
5251.491, 4558.873
5253.419, 4540.932
5255.348, 4560.055
5257.276, 4522.476
5259.205, 4490.136
5261.133, 4494.990
5263.062, 4519.138
5264.990, 4499.580
5266.919, 4462.429
5268.847, 4518.354
5270.776, 4513.321
5272.704, 4476.234
5274.633, 4442.097
5276.561, 4443.782
5278.490, 4452.545
5280.418, 4455.352
5282.347, 4450.702
5284.275, 4428.879
5286.204, 4412.821
5288.132, 4444.512
5290.061, 4439.017
5291.989, 4425.917
5293.917, 4421.062
5295.846, 4366.678
5297.774, 4358.886
5299.703, 4392.764
5301.631, 4418.498
5303.560, 4390.852
5305.488, 4359.086
5307.417, 4363.438
5309.345, 4331.130
5311.273, 4345.379
5313.202, 4388.729
5315.130, 4307.797
5317.059, 4300.297
5318.987, 4320.159
5320.916, 4299.281
5322.844, 4333.990
5324.773, 4350.404
5326.701, 4329.044
5328.630, 4326.548
5330.558, 4301.852
5332.487, 4284.727
5334.415, 4320.545
5336.344, 4307.348
5338.272, 4292.792
5340.201, 4291.896
5342.129, 4267.897
5344.058, 4242.121
5345.986, 4225.881
5347.915, 4227.012
5349.843, 4262.715
5351.771, 4269.681
5353.700, 4230.237
5355.628, 4201.075
5357.557, 4205.045
5359.485, 4221.068
5361.414, 4219.183
5363.342, 4181.391
5365.271, 4160.465
5367.199, 4174.540
5369.127, 4197.094
5371.056, 4180.900
5372.984, 4155.709
5374.913, 4165.863
5376.841, 4176.405
5378.770, 4182.406
5380.698, 4182.798
5382.627, 4174.654
5384.555, 4185.185
5386.484, 4194.991
5388.412, 4180.680
5390.341, 4146.049
5392.269, 4129.160
5394.198, 4131.146
5396.126, 4110.616
5398.055, 4106.263
5399.983, 4104.762
5401.912, 4091.887
5403.840, 4064.770
5405.769, 4063.789
5407.697, 4083.820
5409.625, 4098.452
5411.554, 4076.385
5413.482, 4044.912
5415.411, 4023.327
5417.339, 4026.529
5419.268, 4061.068
5421.196, 4079.694
5423.125, 4015.943
5425.053, 4040.787
5426.981, 4052.634
5428.910, 4018.040
5430.838, 3991.709
5432.767, 4013.650
5434.695, 4036.215
5436.624, 4012.641
5438.552, 3971.197
5440.481, 3966.385
5442.409, 3977.957
5444.338, 3926.388
5446.266, 3922.301
5448.195, 3939.418
5450.123, 3953.177
5452.052, 3951.251
5453.980, 3956.551
5455.909, 3961.486
5457.837, 3954.470
5459.766, 3932.883
5461.694, 3907.405
5463.623, 3886.231
5465.551, 3877.588
5467.479, 3886.850
5469.408, 3901.412
5471.336, 3910.088
5473.265, 3888.880
5475.193, 3889.254
5477.122, 3900.029
5479.050, 3898.396
5480.979, 3876.002
5482.907, 3874.035
5484.835, 3884.176
5486.764, 3839.174
5488.692, 3866.028
5490.621, 3861.998
5492.549, 3785.902
5494.478, 3771.603
5496.406, 3779.800
5498.335, 3790.854
5500.263, 3793.183
5502.192, 3793.114
5504.120, 3785.373
5506.049, 3776.471
5507.977, 3789.046
5509.906, 3748.697
5511.834, 3743.615
5513.763, 3783.021
5515.691, 3751.464
5517.620, 3721.626
5519.548, 3716.659
5521.477, 3740.698
5523.405, 3759.556
5525.333, 3777.624
5527.262, 3774.239
5529.190, 3727.473
5531.119, 3696.371
5533.047, 3683.559
5534.976, 3682.929
5536.904, 3689.047
5538.833, 3663.087
5540.761, 3660.192
5542.689, 3682.600
5544.618, 3666.496
5546.546, 3617.151
5548.475, 3595.809
5550.403, 3623.227
5552.332, 3618.464
5554.260, 3604.592
5556.189, 3598.089
5558.117, 3608.280
5560.046, 3621.246
5561.974, 3612.346
5563.903, 3605.643
5565.831, 3649.497
5567.760, 3613.515
5569.688, 3548.543
5571.617, 3501.126
5573.545, 3520.921
5575.474, 3553.929
5577.402, 3547.232
5579.331, 3507.310
5581.259, 3493.060
5583.188, 3496.412
5585.116, 3526.012
5587.044, 3564.102
5588.973, 3512.800
5590.901, 3487.283
5592.830, 3484.846
5594.758, 3490.946
5596.687, 3485.044
5598.615, 3462.805
5600.543, 3465.196
5602.472, 3515.326
5604.400, 3531.289
5606.329, 3494.728
5608.257, 3466.797
5610.186, 3498.193
5612.114, 3511.890
5614.043, 3498.598
5615.971, 3484.619
5617.900, 3498.253
5619.828, 3489.898
5621.757, 3478.808
5623.685, 3468.777
5625.614, 3455.755
5627.542, 3449.295
5629.471, 3470.396
5631.399, 3492.771
5633.328, 3468.500
5635.256, 3464.605
5637.185, 3472.209
5639.113, 3474.478
5641.042, 3453.149
5642.970, 3469.848
5644.898, 3470.717
5646.827, 3445.185
5648.755, 3407.979
5650.684, 3391.017
5652.612, 3416.420
5654.541, 3460.370
5656.469, 3468.701
5658.397, 3411.634
5660.326, 3397.515
5662.254, 3422.322
5664.183, 3397.286
5666.111, 3394.080
5668.040, 3383.709
5669.968, 3367.607
5671.897, 3370.713
5673.825, 3359.770
5675.754, 3347.083
5677.682, 3336.946
5679.611, 3327.384
5681.539, 3305.845
5683.468, 3293.017
5685.396, 3301.746
5687.325, 3350.732
5689.253, 3296.081
5691.182, 3281.065
5693.110, 3312.638
5695.039, 3322.572
5696.967, 3304.997
5698.896, 3291.085
5700.824, 3280.924
5702.752, 3261.419
5704.681, 3275.746
5706.609, 3252.316
5708.538, 3228.985
5710.466, 3264.557
5712.395, 3227.388
5714.323, 3216.668
5716.251, 3236.149
5718.180, 3260.199
5720.108, 3237.858
5722.037, 3231.116
5723.965, 3241.794
5725.894, 3255.519
5727.822, 3218.647
5729.751, 3207.263
5731.679, 3209.610
5733.608, 3206.392
5735.536, 3187.093
5737.465, 3149.627
5739.393, 3162.332
5741.322, 3218.817
5743.250, 3166.840
5745.179, 3128.017
5747.107, 3137.094
5749.036, 3170.903
5750.964, 3160.849
5752.893, 3158.097
5754.821, 3136.797
5756.750, 3097.626
5758.678, 3059.487
5760.606, 3123.627
5762.535, 3149.891
5764.463, 3127.978
5766.392, 3097.684
5768.320, 3094.479
5770.249, 3108.546
5772.177, 3102.918
5774.105, 3059.710
5776.034, 3068.651
5777.962, 3120.763
5779.891, 3115.552
5781.819, 3037.552
5783.748, 3039.934
5785.676, 3045.067
5787.605, 3059.692
5789.533, 3079.800
5791.462, 3087.401
5793.390, 3015.206
5795.319, 2989.184
5797.247, 3002.598
5799.176, 3001.528
5801.104, 3046.281
5803.033, 3041.794
5804.961, 3026.308
5806.890, 3035.799
5808.818, 3002.515
5810.747, 2997.288
5812.675, 3008.847
5814.604, 3017.779
5816.532, 3003.284
5818.460, 2980.695
5820.389, 2948.013
5822.317, 2924.848
5824.246, 2943.077
5826.174, 2919.004
5828.103, 2948.221
5830.031, 2969.310
5831.959, 2930.004
5833.888, 2987.092
5835.816, 2955.077
5837.745, 2928.078
5839.673, 2945.032
5841.602, 2947.921
5843.530, 2954.479
5845.459, 2942.147
5847.387, 2916.654
5849.316, 2894.879
5851.244, 2872.118
5853.173, 2874.653
5855.101, 2879.779
5857.030, 2870.765
5858.958, 2857.771
5860.887, 2883.994
5862.815, 2890.993
5864.744, 2882.332
5866.672, 2903.089
5868.601, 2902.935
5870.529, 2873.873
5872.458, 2857.079
5874.386, 2871.332
5876.314, 2830.315
5878.243, 2818.190
5880.171, 2851.021
5882.100, 2886.027
5884.028, 2829.873
5885.957, 2798.770
5887.885, 2803.731
5889.813, 2830.758
5891.742, 2856.422
5893.670, 2796.498
5895.599, 2817.666
5897.527, 2843.794
5899.456, 2835.745
5901.384, 2804.364
5903.313, 2796.125
5905.241, 2774.575
5907.170, 2769.923
5909.098, 2797.635
5911.027, 2747.776
5912.955, 2778.811
5914.884, 2792.836
5916.812, 2771.442
5918.741, 2765.454
5920.669, 2769.764
5922.598, 2780.161
5924.526, 2775.809
5926.455, 2750.448
5928.383, 2731.513
5930.312, 2705.424
5932.240, 2712.260
5934.168, 2726.159
5936.097, 2706.897
5938.025, 2707.185
5939.954, 2697.802
5941.882, 2704.390
5943.811, 2727.414
5945.739, 2732.952
5947.667, 2692.288
5949.596, 2699.367
5951.524, 2718.256
5953.453, 2708.760
5955.381, 2712.498
5957.310, 2697.490
5959.238, 2695.901
5961.167, 2701.838
5963.095, 2691.947
5965.024, 2671.808
5966.952, 2670.490
5968.881, 2670.180
5970.809, 2652.159
5972.738, 2599.960
5974.666, 2612.850
5976.595, 2651.842
5978.523, 2667.799
5980.452, 2650.516
5982.380, 2666.471
5984.309, 2683.995
5986.237, 2668.905
5988.166, 2633.442
5990.094, 2602.821
5992.022, 2592.008
5993.951, 2607.804
5995.879, 2628.374
5997.808, 2629.929
5999.736, 2593.960
6001.665, 2577.020
6003.593, 2606.416
6005.521, 2603.115
6007.450, 2571.595
6009.379, 2604.129
6011.307, 2592.281
6013.236, 2554.674
6015.164, 2528.962
6017.093, 2531.346
6019.021, 2559.415
6020.950, 2531.732
6022.878, 2543.162
6024.807, 2566.072
6026.735, 2563.405
6028.664, 2529.142
6030.592, 2556.255
6032.521, 2550.514
6034.449, 2536.241
6036.377, 2541.981
6038.306, 2512.201
6040.234, 2517.505
6042.163, 2535.323
6044.091, 2532.026
6046.020, 2501.768
6047.948, 2516.427
6049.876, 2522.250
6051.805, 2523.383
6053.733, 2519.581
6055.662, 2513.117
6057.590, 2531.004
6059.519, 2522.492
6061.447, 2513.447
6063.376, 2501.439
6065.304, 2478.105
6067.233, 2454.790
6069.161, 2512.900
6071.090, 2536.262
6073.018, 2505.265
6074.947, 2451.112
6076.875, 2416.126
6078.804, 2420.929
6080.732, 2445.749
6082.661, 2462.079
6084.589, 2458.251
6086.518, 2464.657
6088.446, 2445.859
6090.375, 2434.333
6092.303, 2431.816
6094.231, 2428.265
6096.160, 2413.731
6098.088, 2410.119
6100.017, 2412.484
6101.945, 2420.587
6103.874, 2426.583
6105.802, 2409.031
6107.730, 2397.509
6109.659, 2396.208
6111.587, 2401.018
6113.516, 2408.262
6115.444, 2416.611
6117.373, 2402.191
6119.301, 2388.505
6121.230, 2395.383
6123.158, 2412.533
6125.087, 2412.500
6127.015, 2372.491
6128.944, 2360.355
6130.872, 2388.886
6132.801, 2412.123
6134.729, 2385.713
6136.658, 2379.107
6138.586, 2364.087
6140.515, 2348.910
6142.443, 2342.872
6144.372, 2348.064
6146.300, 2361.013
6148.229, 2332.018
6150.157, 2367.572
6152.085, 2383.743
6154.014, 2350.477
6155.942, 2355.698
6157.871, 2293.958
6159.799, 2292.407
6161.728, 2295.032
6163.656, 2303.524
6165.584, 2355.713
6167.513, 2336.374
6169.441, 2321.021
6171.370, 2303.556
6173.298, 2309.833
6175.227, 2332.004
6177.155, 2241.726
6179.084, 2284.510
6181.012, 2295.788
6182.941, 2298.382
6184.869, 2306.533
6186.798, 2289.002
6188.726, 2272.921
6190.655, 2247.529
6192.583, 2257.837
6194.512, 2276.023
6196.440, 2269.093
6198.369, 2272.586
6200.297, 2256.485
6202.226, 2260.386
6204.154, 2269.936
6206.083, 2267.711
6208.011, 2255.708
6209.939, 2292.224
6211.868, 2274.744
6213.796, 2249.400
6215.725, 2260.319
6217.653, 2292.744
6219.582, 2255.849
6221.510, 2225.155
6223.438, 2209.529
6225.367, 2214.828
6227.295, 2229.500
6229.224, 2232.493
6231.152, 2212.751
6233.081, 2214.983
6235.009, 2218.112
6236.938, 2220.158
6238.866, 2227.469
6240.795, 2242.656
6242.723, 2249.754
6244.652, 2238.144
6246.580, 2240.019
6248.509, 2232.854
6250.437, 2195.042
6252.366, 2173.728
6254.294, 2178.271
6256.223, 2187.136
6258.151, 2235.368
6260.080, 2264.814
6262.008, 2198.961
6263.937, 2183.869
6265.865, 2201.327
6267.793, 2181.217
6269.722, 2167.465
6271.650, 2171.081
6273.579, 2153.595
6275.507, 2161.900
6277.436, 2181.473
6279.364, 2184.396
6281.292, 2157.736
6283.221, 2129.302
6285.149, 2146.279
6287.078, 2146.359
6289.006, 2112.961
6290.935, 2099.244
6292.863, 2116.424
6294.792, 2132.234
6296.720, 2105.058
6298.649, 2140.182
6300.577, 2134.840
6302.506, 2130.451
6304.434, 2124.438
6306.363, 2108.814
6308.291, 2105.436
6310.220, 2088.322
6312.148, 2087.299
6314.077, 2108.235
6316.005, 2124.641
6317.934, 2118.942
6319.862, 2098.682
6321.791, 2056.147
6323.719, 2082.348
6325.647, 2092.441
6327.576, 2075.036
6329.504, 2067.794
6331.433, 2108.464
6333.361, 2136.888
6335.290, 2093.858
6337.218, 2074.950
6339.146, 2077.657
6341.075, 2082.156
6343.003, 2089.406
6344.932, 2055.486
6346.860, 2063.854
6348.789, 2105.353
6350.717, 2103.523
6352.646, 2051.455
6354.574, 2013.404
6356.503, 2051.787
6358.431, 2051.614
6360.360, 2045.350
6362.288, 2040.615
6364.217, 2027.976
6366.145, 2008.650
6368.074, 2017.116
6370.002, 2038.720
6371.931, 2032.991
6373.859, 2025.226
6375.788, 2029.888
6377.716, 2035.847
6379.645, 2019.562
6381.573, 2031.490
6383.501, 2031.145
6385.430, 2000.058
6387.358, 1972.781
6389.287, 1995.278
6391.215, 2056.420
6393.144, 2014.712
6395.072, 2023.147
6397.000, 1988.003
6398.929, 1976.760
6400.857, 1997.419
6402.786, 2009.622
6404.714, 1989.864
6406.643, 2009.986
6408.571, 1991.984
6410.500, 1989.461
6412.428, 2006.176
6414.357, 2001.136
6416.285, 1958.841
6418.214, 2012.691
6420.142, 2003.208
6422.071, 1972.663
6423.999, 1980.221
6425.928, 1975.164
6427.856, 1944.372
6429.785, 1958.516
6431.713, 2001.636
6433.642, 1963.048
6435.570, 1944.779
6437.499, 1936.868
6439.427, 1939.882
6441.355, 1954.445
6443.284, 1940.554
6445.212, 1923.266
6447.141, 1936.378
6449.069, 1945.562
6450.998, 1944.051
6452.926, 1933.785
6454.854, 1921.475
6456.783, 1933.235
6458.711, 1951.922
6460.640, 1919.361
6462.568, 1893.569
6464.497, 1894.982
6466.425, 1918.723
6468.354, 1942.041
6470.282, 1921.832
6472.211, 1918.285
6474.139, 1896.715
6476.068, 1917.505
6477.996, 1902.840
6479.925, 1874.264
6481.853, 1907.151
6483.782, 1898.180
6485.710, 1883.320
6487.639, 1858.735
6489.567, 1884.075
6491.496, 1915.044
6493.424, 1901.723
6495.353, 1861.597
6497.281, 1872.747
6499.209, 1859.238
6501.138, 1858.246
6503.066, 1864.772
6504.995, 1885.769
6506.923, 1890.057
6508.852, 1866.428
6510.780, 1874.669
6512.708, 1895.437
6514.637, 1889.688
6516.565, 1857.133
6518.494, 1810.775
6520.422, 1807.765
6522.351, 1838.751
6524.279, 1826.164
6526.208, 1847.865
6528.136, 1819.814
6530.065, 1812.590
6531.993, 1833.694
6533.922, 1846.267
6535.850, 1841.276
6537.779, 1839.743
6539.707, 1848.874
6541.636, 1816.511
6543.564, 1765.223
6545.493, 1788.722
6547.421, 1824.911
6549.350, 1822.293
6551.278, 1803.212
6553.207, 1811.704
6555.135, 1794.970
6557.063, 1804.369
6558.992, 1815.597
##END=



