##NAMES=Chalcophyllite
##RRUFFID=R060702
##IDEAL CHEMISTRY=Cu_18_Al_2_(AsO_4_)_4_(SO_4_)_3_(OH)_24_·36H_2_O
##LOCALITY=Majuba Hill, Pershing County, Nevada, USA
##OWNER=RRUFF
##SOURCE=Bob Jenkins
##DESCRIPTION=Bluish-green thin hexagonal tablets
##STATUS=The identification of this mineral is not yet confirmed
##URL=https://www.rruff.net/odr/rruff_sample/R060702
##FILETYPE=Raman RAW
##RAMAN WAVELENGTH=532

151.6160, 68.98400
153.5440, 74.02500
155.4730, 76.57000
157.4010, 76.62000
159.3300, 75.77700
161.2580, 73.62300
163.1870, 70.47700
165.1150, 68.96600
167.0440, 69.71100
168.9720, 71.57100
170.9010, 74.04100
172.8290, 78.47600
174.7580, 80.99900
176.6860, 79.89000
178.6150, 74.26100
180.5430, 70.57200
182.4710, 70.73400
184.4000, 72.37400
186.3280, 72.74300
188.2570, 68.62300
190.1850, 65.89100
192.1140, 67.20700
194.0420, 73.09800
195.9710, 77.92100
197.8990, 80.82400
199.8280, 82.03700
201.7560, 81.32100
203.6850, 76.40900
205.6130, 71.50700
207.5420, 68.81700
209.4700, 68.49000
211.3980, 69.01600
213.3270, 69.96600
215.2550, 71.36000
217.1840, 73.46700
219.1120, 77.87800
221.0410, 81.87300
222.9690, 83.67500
224.8980, 82.23700
226.8260, 80.39700
228.7550, 78.88400
230.6830, 77.75500
232.6120, 76.24300
234.5400, 72.82800
236.4690, 69.77200
238.3970, 69.03700
240.3250, 72.60200
242.2540, 76.71000
244.1820, 81.38400
246.1110, 86.70300
248.0390, 89.87000
249.9680, 88.48100
251.8960, 85.12000
253.8250, 83.15600
255.7530, 84.75900
257.6820, 85.79900
259.6100, 84.40800
261.5390, 80.56700
263.4670, 77.51100
265.3960, 75.97500
267.3240, 75.59100
269.2520, 75.94300
271.1810, 78.79700
273.1090, 80.78800
275.0380, 80.17200
276.9660, 76.77400
278.8950, 73.49600
280.8230, 69.77000
282.7520, 66.44600
284.6800, 66.14600
286.6090, 72.47800
288.5370, 78.15300
290.4660, 79.88700
292.3940, 76.75900
294.3230, 73.36000
296.2510, 69.37900
298.1790, 65.57400
300.1080, 64.19400
302.0360, 67.55500
303.9650, 70.74500
305.8930, 71.42800
307.8220, 68.35300
309.7500, 65.59100
311.6790, 62.81300
313.6070, 60.68300
315.5360, 60.67300
317.4640, 64.49700
319.3930, 68.57900
321.3210, 71.39800
323.2500, 72.87100
325.1780, 72.86700
327.1060, 69.58800
329.0350, 64.92900
330.9630, 63.00200
332.8920, 66.15500
334.8200, 69.60000
336.7490, 71.31600
338.6770, 70.47900
340.6060, 69.14300
342.5340, 66.62600
344.4630, 63.77100
346.3910, 61.83000
348.3200, 60.82500
350.2480, 60.91600
352.1770, 62.38600
354.1050, 66.20400
356.0330, 69.12700
357.9620, 70.97800
359.8900, 71.85300
361.8190, 71.96600
363.7470, 70.52700
365.6760, 69.18000
367.6040, 68.61700
369.5330, 69.22000
371.4610, 69.03800
373.3900, 66.51600
375.3180, 63.85700
377.2470, 63.30600
379.1750, 66.93200
381.1030, 70.28000
383.0320, 72.09800
384.9600, 72.23600
386.8890, 73.00200
388.8170, 76.10400
390.7460, 78.77700
392.6740, 78.75600
394.6030, 73.05200
396.5310, 68.68700
398.4600, 67.54300
400.3880, 69.19700
402.3170, 69.56700
404.2450, 66.49500
406.1740, 64.03400
408.1020, 64.66000
410.0300, 71.21000
411.9590, 76.25600
413.8880, 78.82000
415.8160, 79.42000
417.7440, 79.89400
419.6730, 80.80700
421.6010, 80.83200
423.5300, 79.25400
425.4580, 74.61200
427.3870, 71.57600
429.3150, 70.51100
431.2440, 70.92000
433.1720, 72.08700
435.1010, 74.54200
437.0290, 76.76500
438.9570, 78.57200
440.8860, 80.03100
442.8150, 79.98400
444.7430, 77.12900
446.6710, 73.70700
448.6000, 71.42300
450.5280, 70.41600
452.4570, 69.98600
454.3850, 69.97000
456.3140, 70.35100
458.2420, 71.12400
460.1710, 73.47500
462.0990, 75.17200
464.0280, 74.82400
465.9560, 72.36000
467.8840, 70.21100
469.8130, 68.43500
471.7410, 67.30100
473.6700, 67.40100
475.5980, 70.44400
477.5270, 72.60400
479.4550, 71.91400
481.3840, 69.10300
483.3120, 67.71200
485.2410, 70.57500
487.1690, 73.42200
489.0980, 73.62100
491.0260, 69.90300
492.9550, 66.04400
494.8830, 60.89900
496.8110, 56.13400
498.7400, 54.59700
500.6680, 59.05500
502.5970, 63.96200
504.5250, 67.71600
506.4540, 70.09800
508.3820, 72.13400
510.3110, 73.31400
512.2390, 74.44000
514.1680, 76.31900
516.0960, 79.86400
518.0250, 81.89000
519.9530, 80.38300
521.8820, 76.72400
523.8100, 75.99300
525.7390, 80.90300
527.6670, 85.38800
529.5960, 86.78300
531.5240, 85.11200
533.4520, 83.26900
535.3810, 80.83200
537.3090, 78.78700
539.2380, 78.34100
541.1660, 80.31900
543.0950, 81.85000
545.0230, 81.93800
546.9520, 81.09700
548.8800, 80.43400
550.8090, 80.08500
552.7370, 79.80900
554.6660, 79.43700
556.5940, 78.90700
558.5230, 78.85500
560.4510, 79.30200
562.3790, 80.30800
564.3080, 82.09900
566.2360, 85.54700
568.1650, 87.70300
570.0930, 87.54300
572.0220, 85.83000
573.9500, 84.66700
575.8790, 84.74600
577.8070, 84.34500
579.7360, 82.38800
581.6640, 79.03100
583.5930, 76.42500
585.5210, 73.85600
587.4500, 72.71500
589.3780, 74.57900
591.3060, 80.67500
593.2350, 85.57000
595.1630, 88.77500
597.0920, 90.25200
599.0200, 89.93800
600.9490, 86.79400
602.8770, 83.28800
604.8060, 79.44600
606.7340, 75.49200
608.6630, 72.74600
610.5910, 70.91300
612.5190, 70.52500
614.4480, 72.64400
616.3770, 77.49300
618.3050, 80.43900
620.2330, 80.31200
622.1620, 78.58000
624.0900, 75.92100
626.0190, 71.19000
627.9470, 68.24600
629.8760, 68.84500
631.8040, 71.34300
633.7330, 73.48500
635.6610, 75.89400
637.5900, 76.76100
639.5180, 74.47100
641.4460, 69.47500
643.3750, 67.18900
645.3040, 70.42000
647.2320, 73.58900
649.1600, 73.71500
651.0890, 70.82100
653.0170, 68.69800
654.9460, 68.43800
656.8740, 68.76500
658.8030, 68.87300
660.7310, 68.97100
662.6600, 68.34400
664.5880, 65.99900
666.5170, 63.27000
668.4450, 61.77700
670.3730, 61.89000
672.3020, 62.71000
674.2310, 64.37500
676.1590, 66.65400
678.0870, 68.27300
680.0160, 68.93100
681.9440, 69.33100
683.8730, 69.45800
685.8010, 69.38700
687.7300, 69.73400
689.6580, 71.69000
691.5870, 73.04700
693.5150, 72.42100
695.4440, 68.50800
697.3720, 65.99700
699.3000, 66.08400
701.2290, 66.84500
703.1570, 66.21500
705.0860, 63.66800
707.0140, 62.33100
708.9430, 63.61200
710.8710, 66.33700
712.8000, 68.99400
714.7280, 72.97500
716.6570, 75.20700
718.5850, 73.73200
720.5140, 70.24800
722.4420, 69.41700
724.3710, 73.23900
726.2990, 76.38400
728.2270, 76.54900
730.1560, 73.89100
732.0840, 71.83200
734.0130, 69.29700
735.9410, 68.28600
737.8700, 71.06100
739.7980, 77.47900
741.7270, 80.80500
743.6550, 78.39900
745.5840, 74.57000
747.5120, 71.33800
749.4410, 68.25500
751.3690, 67.95400
753.2980, 73.43700
755.2260, 79.71400
757.1540, 82.11100
759.0830, 79.65300
761.0110, 77.54500
762.9400, 75.95200
764.8680, 75.47100
766.7970, 77.04900
768.7250, 82.32100
770.6540, 85.71900
772.5820, 85.69600
774.5110, 83.46300
776.4390, 81.05600
778.3680, 77.61100
780.2960, 75.38800
782.2250, 76.57700
784.1530, 79.05600
786.0810, 78.60300
788.0100, 72.31700
789.9380, 67.78900
791.8670, 67.92500
793.7950, 71.88200
795.7240, 74.91100
797.6520, 77.23600
799.5810, 78.55200
801.5090, 78.19300
803.4380, 76.60700
805.3660, 75.30900
807.2950, 73.53100
809.2230, 73.39800
811.1520, 76.80400
813.0800, 84.07900
815.0080, 87.86800
816.9370, 85.26300
818.8650, 82.18700
820.7940, 81.59600
822.7220, 83.27700
824.6510, 83.55800
826.5790, 79.65900
828.5080, 77.13000
830.4360, 80.19400
832.3650, 90.05300
834.2930, 94.37600
836.2220, 86.98600
838.1500, 78.87600
840.0790, 76.89800
842.0070, 82.40300
843.9350, 84.76800
845.8640, 80.51400
847.7920, 75.40300
849.7210, 72.64200
851.6490, 72.22300
853.5780, 73.41900
855.5060, 79.57900
857.4350, 84.67400
859.3630, 84.32800
861.2920, 75.50500
863.2200, 70.08100
865.1490, 69.96600
867.0770, 71.85500
869.0060, 74.34700
870.9340, 77.62300
872.8620, 77.97800
874.7910, 70.53700
876.7190, 63.09500
878.6480, 60.90300
880.5760, 66.39300
882.5050, 71.21200
884.4330, 77.02900
886.3620, 81.05700
888.2900, 79.56000
890.2190, 71.99800
892.1470, 67.62700
894.0760, 71.25100
896.0040, 75.59700
897.9330, 75.05800
899.8610, 68.23100
901.7900, 64.27700
903.7180, 65.61400
905.6460, 68.75300
907.5750, 71.95700
909.5030, 75.57500
911.4320, 77.59900
913.3600, 76.92700
915.2890, 75.45500
917.2170, 73.43100
919.1460, 70.83300
921.0740, 71.40100
923.0030, 79.59100
924.9310, 87.69800
926.8600, 91.87800
928.7880, 91.61500
930.7170, 89.58700
932.6450, 83.80700
934.5730, 78.27800
936.5020, 75.53000
938.4300, 75.31500
940.3590, 74.40600
942.2870, 71.23300
944.2160, 68.97200
946.1440, 69.67100
948.0730, 73.16200
950.0010, 75.49700
951.9300, 75.27200
953.8580, 75.11400
955.7870, 76.66100
957.7150, 79.52300
959.6440, 79.54100
961.5720, 73.03900
963.5000, 68.42400
965.4290, 70.25500
967.3570, 76.15700
969.2860, 80.64300
971.2140, 84.23900
973.1430, 84.62800
975.0710, 78.91400
977.0000, 69.76000
978.9280, 64.44500
980.8570, 66.87400
982.7850, 68.41700
984.7140, 67.36900
986.6420, 65.05300
988.5710, 63.68000
990.4990, 63.14100
992.4270, 63.66400
994.3560, 66.07200
996.2840, 69.21200
998.2130, 72.22600
1000.141, 75.73700
1002.070, 76.95000
1003.998, 72.20200
1005.927, 67.37900
1007.855, 68.20900
1009.784, 78.69300
1011.712, 83.43500
1013.641, 76.81200
1015.569, 68.86100
1017.498, 67.33900
1019.426, 71.36200
1021.354, 72.52000
1023.283, 65.78600
1025.211, 61.06700
1027.140, 64.11300
1029.068, 74.61700
1030.997, 82.18800
1032.925, 86.68400
1034.854, 88.24900
1036.782, 84.05800
1038.711, 76.54800
1040.639, 74.92100
1042.568, 83.13200
1044.496, 89.37700
1046.425, 88.93200
1048.353, 85.35200
1050.281, 83.86500
1052.210, 85.43200
1054.138, 85.80200
1056.067, 81.70000
1057.995, 77.42700
1059.924, 77.13000
1061.852, 83.69100
1063.781, 87.21800
1065.709, 85.50300
1067.638, 82.82200
1069.566, 81.88600
1071.495, 82.71700
1073.423, 83.09100
1075.352, 82.94600
1077.280, 82.26500
1079.208, 79.88900
1081.137, 76.87400
1083.065, 76.97600
1084.994, 83.36400
1086.922, 87.40700
1088.851, 85.54900
1090.779, 80.32600
1092.708, 76.38100
1094.636, 74.11100
1096.565, 72.68100
1098.493, 71.85700
1100.422, 71.99700
1102.350, 74.25100
1104.279, 78.92500
1106.207, 81.45200
1108.135, 79.63800
1110.064, 77.25000
1111.992, 76.32700
1113.921, 76.70200
1115.849, 77.42000
1117.778, 78.70200
1119.706, 79.87500
1121.635, 81.01200
1123.563, 81.86800
1125.492, 81.78500
1127.420, 79.08500
1129.349, 77.68400
1131.277, 79.52800
1133.206, 81.90900
1135.134, 81.14200
1137.063, 76.87900
1138.991, 73.82000
1140.919, 73.75700
1142.848, 73.93200
1144.776, 72.28500
1146.705, 69.20800
1148.633, 67.36800
1150.562, 66.99000
1152.490, 67.95100
1154.419, 71.29000
1156.347, 75.75100
1158.276, 78.32900
1160.204, 78.03100
1162.133, 77.10000
1164.061, 74.72500
1165.990, 72.31300
1167.918, 71.36000
1169.846, 71.96200
1171.775, 72.68700
1173.703, 74.52200
1175.632, 75.21800
1177.560, 71.90200
1179.489, 66.39500
1181.417, 64.57800
1183.346, 68.28700
1185.274, 72.57800
1187.203, 77.17400
1189.131, 80.94800
1191.060, 82.04900
1192.988, 78.33100
1194.917, 76.99900
1196.845, 80.70300
1198.773, 84.49500
1200.702, 85.24500
1202.630, 82.99800
1204.559, 80.91100
1206.487, 77.93600
1208.416, 76.60600
1210.344, 79.49000
1212.273, 83.87300
1214.201, 85.02700
1216.130, 81.96600
1218.058, 80.57600
1219.987, 83.24100
1221.915, 87.14200
1223.844, 91.56800
1225.772, 96.58300
1227.700, 97.33300
1229.629, 88.10500
1231.557, 81.38000
1233.486, 81.67100
1235.414, 86.24600
1237.343, 89.63400
1239.271, 92.48000
1241.200, 92.87000
1243.128, 87.88100
1245.057, 82.67200
1246.985, 80.76800
1248.914, 82.07100
1250.842, 85.89300
1252.771, 95.61400
1254.699, 101.9430
1256.627, 97.71200
1258.556, 89.12900
1260.484, 85.29100
1262.413, 87.27000
1264.341, 89.36200
1266.270, 90.67200
1268.198, 91.59800
1270.127, 92.81900
1272.055, 94.28000
1273.984, 93.52100
1275.912, 88.81500
1277.841, 83.98300
1279.769, 77.47400
1281.698, 72.18000
1283.626, 72.92500
1285.554, 82.39900
1287.483, 88.25900
1289.411, 87.66500
1291.340, 85.87200
1293.268, 84.98200
1295.197, 84.88000
1297.125, 85.46500
1299.054, 87.50600
1300.982, 87.76800
1302.911, 82.39200
1304.839, 77.21200
1306.768, 77.84900
1308.696, 84.10600
1310.625, 87.99600
1312.553, 86.99800
1314.481, 86.25700
1316.410, 88.36100
1318.338, 91.48700
1320.267, 92.30200
1322.195, 89.43000
1324.124, 87.40300
1326.052, 86.66400
1327.981, 86.44000
1329.909, 86.42500
1331.838, 86.60000
1333.766, 87.00400
1335.695, 88.97500
1337.623, 88.82500
1339.552, 83.22500
1341.480, 77.30000
1343.408, 76.07700
1345.337, 79.12500
1347.265, 82.37900
1349.194, 86.02100
1351.122, 88.98200
1353.051, 91.44700
1354.979, 92.59600
1356.908, 90.35800
1358.836, 84.15300
1360.765, 81.37300
1362.693, 86.60500
1364.622, 90.96900
1366.550, 89.29400
1368.479, 84.04200
1370.407, 82.04300
1372.335, 84.46200
1374.264, 87.35000
1376.192, 92.06100
1378.121, 95.39000
1380.049, 94.27300
1381.978, 89.44500
1383.906, 87.24800
1385.835, 89.25800
1387.763, 91.63300
1389.692, 94.12800
1391.620, 96.73100
1393.549, 99.86200
1395.477, 103.4480
1397.406, 105.3390
1399.334, 105.6860
1401.262, 104.1410
1403.191, 97.98500
1405.119, 91.57300
1407.048, 90.72300
1408.976, 95.03000
1410.905, 96.84200
1412.833, 93.45300
1414.762, 90.87200
1416.690, 92.10600
1418.619, 95.35200
1420.547, 99.37100
1422.476, 104.4210
1424.404, 105.3400
1426.333, 97.49200
1428.261, 91.14500
1430.189, 91.35800
1432.118, 95.23300
1434.046, 97.23200
1435.975, 96.31800
1437.903, 97.66400
1439.832, 104.9840
1441.760, 111.0460
1443.689, 113.0740
1445.617, 111.9090
1447.546, 109.3260
1449.474, 104.2950
1451.403, 100.0430
1453.331, 96.75600
1455.260, 94.10100
1457.188, 91.27600
1459.116, 89.07600
1461.045, 89.95400
1462.973, 96.22700
1464.902, 99.76300
1466.830, 97.46400
1468.759, 95.21500
1470.687, 97.01800
1472.616, 100.8520
1474.544, 101.4930
1476.473, 98.54500
1478.401, 94.58600
1480.330, 87.47100
1482.258, 82.15700
1484.187, 81.94000
1486.115, 85.13000
1488.043, 88.12700
1489.972, 90.79400
1491.900, 94.35700
1493.829, 101.5320
1495.757, 106.3570
1497.686, 102.7240
1499.614, 95.54900
1501.543, 93.93300
1503.471, 98.78300
1505.400, 102.0690
1507.328, 101.2020
1509.257, 100.3090
1511.185, 102.3310
1513.114, 105.1910
1515.042, 104.8360
1516.970, 100.7410
1518.899, 97.92400
1520.827, 96.96900
1522.756, 97.46700
1524.684, 100.0190
1526.613, 103.4300
1528.541, 106.4320
1530.470, 109.2710
1532.398, 109.5770
1534.327, 103.5010
1536.255, 100.2330
1538.184, 104.7100
1540.112, 111.3600
1542.041, 114.1350
1543.969, 112.7140
1545.897, 111.1670
1547.826, 108.5440
1549.754, 107.1490
1551.683, 107.4830
1553.611, 109.0250
1555.540, 112.2220
1557.468, 116.7950
1559.397, 118.8020
1561.325, 116.7680
1563.254, 114.2350
1565.182, 109.9520
1567.111, 106.6500
1569.039, 107.1650
1570.968, 110.1130
1572.896, 110.4980
1574.824, 107.1260
1576.753, 103.5510
1578.681, 97.49700
1580.610, 93.91900
1582.538, 96.79700
1584.467, 102.9140
1586.395, 106.6390
1588.324, 107.5920
1590.252, 107.7310
1592.181, 105.4350
1594.109, 104.4370
1596.038, 108.2440
1597.966, 112.0910
1599.895, 108.8000
1601.823, 98.83500
1603.751, 96.76800
1605.680, 108.7980
1607.608, 116.2030
1609.537, 110.8970
1611.465, 104.2390
1613.394, 104.4810
1615.322, 109.5080
1617.251, 112.7330
1619.179, 114.1450
1621.108, 114.0200
1623.036, 109.9480
1624.965, 107.1970
1626.893, 109.2290
1628.822, 113.1060
1630.750, 114.8650
1632.678, 114.5400
1634.607, 112.7190
1636.535, 107.7370
1638.464, 104.7600
1640.392, 107.1310
1642.321, 110.3540
1644.249, 110.6840
1646.178, 108.9580
1648.106, 108.1380
1650.035, 108.2390
1651.963, 109.1910
1653.892, 112.8860
1655.820, 115.0020
1657.749, 110.6780
1659.677, 105.1470
1661.605, 107.7390
1663.534, 117.8130
1665.462, 122.1260
1667.391, 117.4340
1669.319, 112.5070
1671.248, 108.3240
1673.176, 106.0900
1675.105, 108.2780
1677.033, 112.9340
1678.962, 113.9330
1680.890, 110.3460
1682.819, 109.2530
1684.747, 114.3800
1686.676, 118.0180
1688.604, 116.0250
1690.532, 111.8500
1692.461, 108.1170
1694.389, 105.2350
1696.318, 106.6210
1698.246, 114.7390
1700.175, 119.9160
1702.103, 117.3120
1704.032, 114.5850
1705.960, 115.9380
1707.889, 119.5260
1709.817, 122.5680
1711.746, 125.0840
1713.674, 126.8010
1715.603, 127.8630
1717.531, 127.8620
1719.459, 125.1050
1721.388, 122.8570
1723.316, 123.9920
1725.245, 127.1910
1727.173, 129.2470
1729.102, 130.1690
1731.030, 129.9650
1732.959, 127.4480
1734.887, 125.4430
1736.816, 124.4430
1738.744, 124.3900
1740.673, 125.9500
1742.601, 128.4810
1744.530, 129.1360
1746.458, 126.5190
1748.386, 126.2390
1750.315, 133.1050
1752.243, 136.1520
1754.172, 127.7170
1756.100, 117.5750
1758.029, 116.4980
1759.957, 122.4860
1761.886, 123.5200
1763.814, 114.2090
1765.743, 111.1290
1767.671, 120.8800
1769.600, 128.1300
1771.528, 126.6220
1773.457, 121.5460
1775.385, 117.4080
1777.313, 114.1980
1779.242, 111.8160
1781.170, 109.4140
1783.099, 109.8100
1785.027, 116.6440
1786.956, 121.5840
1788.884, 120.2850
1790.813, 117.4540
1792.741, 117.6780
1794.670, 120.4430
1796.598, 123.0460
1798.527, 126.0340
1800.455, 126.6670
1802.384, 122.0120
1804.312, 119.1790
1806.240, 122.3410
1808.169, 126.2520
1810.097, 125.5060
1812.026, 121.9510
1813.954, 123.3380
1815.883, 130.5630
1817.811, 134.4760
1819.740, 132.6060
1821.668, 130.2890
1823.597, 129.1530
1825.525, 128.4050
1827.454, 127.4160
1829.382, 126.4030
1831.311, 125.6500
1833.239, 125.1600
1835.167, 125.6050
1837.096, 126.8350
1839.024, 129.6870
1840.953, 137.0070
1842.881, 142.9930
1844.810, 144.4700
1846.738, 142.3960
1848.667, 135.9560
1850.595, 126.0740
1852.524, 123.0980
1854.452, 129.6240
1856.381, 136.1860
1858.309, 143.3620
1860.238, 147.5630
1862.166, 144.3120
1864.094, 139.8350
1866.023, 142.2510
1867.951, 149.4520
1869.880, 150.7620
1871.808, 142.7200
1873.737, 138.6640
1875.665, 141.8370
1877.594, 144.1800
1879.522, 143.9100
1881.451, 142.3970
1883.379, 139.0450
1885.308, 135.6790
1887.236, 136.5640
1889.165, 142.2310
1891.093, 145.4750
1893.021, 146.5860
1894.950, 144.3030
1896.878, 134.5340
1898.807, 126.8860
1900.735, 125.2310
1902.664, 127.1870
1904.592, 133.3530
1906.521, 141.0060
1908.449, 140.1860
1910.378, 130.3010
1912.306, 125.8680
1914.235, 130.4170
1916.163, 135.1970
1918.092, 137.8480
1920.020, 139.7080
1921.948, 142.4020
1923.877, 144.1780
1925.805, 141.3050
1927.734, 134.9570
1929.662, 133.0530
1931.591, 136.9180
1933.519, 139.7920
1935.448, 142.9610
1937.376, 142.4630
1939.305, 131.2510
1941.233, 122.8220
1943.162, 129.0290
1945.090, 142.0230
1947.019, 149.7580
1948.947, 152.2940
1950.875, 150.9970
1952.804, 143.1080
1954.732, 139.8090
1956.661, 146.7070
1958.589, 150.4970
1960.518, 143.9630
1962.446, 136.8970
1964.375, 134.7360
1966.303, 136.2300
1968.232, 140.1670
1970.160, 146.1410
1972.089, 152.0650
1974.017, 158.2820
1975.946, 160.8280
1977.874, 157.0260
1979.802, 153.6850
1981.731, 153.0010
1983.659, 153.7630
1985.588, 156.9600
1987.516, 160.0970
1989.445, 158.0410
1991.373, 151.8440
1993.302, 150.7110
1995.230, 157.2080
1997.159, 161.7660
1999.087, 164.7990
2001.016, 165.2810
2002.944, 160.1990
2004.873, 155.9270
2006.801, 156.1040
2008.729, 158.4950
2010.658, 161.4110
2012.586, 164.3690
2014.515, 165.0960
2016.443, 163.5470
2018.372, 161.1700
2020.300, 157.1800
2022.229, 155.9280
2024.157, 160.6230
2026.086, 164.5950
2028.014, 164.3860
2029.943, 162.5470
2031.871, 159.2100
2033.800, 156.5800
2035.728, 161.5090
2037.656, 173.5190
2039.585, 175.2240
2041.513, 159.0770
2043.442, 149.6930
2045.370, 150.5110
2047.299, 153.0200
2049.227, 155.8890
2051.156, 159.7990
2053.084, 168.2380
2055.013, 175.3280
2056.941, 172.8820
2058.870, 164.0030
2060.798, 158.0730
2062.727, 155.1030
2064.655, 154.8760
2066.583, 157.8010
2068.512, 161.4920
2070.440, 167.0190
2072.369, 170.2550
2074.297, 168.4780
2076.226, 165.3030
2078.154, 160.6670
2080.083, 157.6750
2082.011, 163.3810
2083.940, 174.2880
2085.868, 174.8520
2087.797, 162.2140
2089.725, 157.2450
2091.654, 162.8170
2093.582, 168.7570
2095.510, 175.7770
2097.439, 179.6760
2099.367, 177.4860
2101.296, 173.7620
2103.224, 171.1500
2105.153, 168.5740
2107.081, 161.8110
2109.010, 154.8170
2110.938, 160.9670
2112.867, 180.2680
2114.795, 190.5070
2116.724, 187.9150
2118.652, 184.6820
2120.581, 180.4050
2122.509, 177.5850
2124.438, 177.1360
2126.366, 177.7450
2128.294, 180.9720
2130.223, 182.9180
2132.151, 176.4540
2134.080, 167.2970
2136.008, 169.5650
2137.937, 181.0620
2139.865, 188.8280
2141.794, 192.2480
2143.722, 192.2060
2145.651, 187.2980
2147.579, 183.4190
2149.508, 181.9850
2151.436, 181.7770
2153.365, 183.3700
2155.293, 184.9960
2157.221, 184.9880
2159.150, 184.7070
2161.078, 186.1000
2163.007, 188.5950
2164.935, 190.5020
2166.864, 191.7980
2168.792, 192.1260
2170.721, 191.3500
2172.649, 190.6660
2174.578, 190.6290
2176.506, 189.3940
2178.435, 183.3540
2180.363, 180.7400
2182.292, 189.3740
2184.220, 197.6140
2186.148, 194.3770
2188.077, 188.1460
2190.005, 192.4770
2191.934, 202.3230
2193.862, 200.3420
2195.791, 186.7470
2197.719, 182.0160
2199.648, 187.5960
2201.576, 191.6430
2203.505, 193.4170
2205.433, 191.4230
2207.362, 182.1830
2209.290, 174.9060
2211.219, 174.8550
2213.147, 175.6300
2215.075, 171.5040
2217.004, 168.1540
2218.932, 173.3520
2220.861, 182.5820
2222.789, 187.4070
2224.718, 188.1260
2226.646, 185.9720
2228.575, 180.8820
2230.503, 177.3200
2232.432, 175.2030
2234.360, 177.1970
2236.289, 184.8670
2238.217, 193.6580
2240.146, 207.3110
2242.074, 214.7000
2244.002, 207.2320
2245.931, 197.1160
2247.859, 190.7470
2249.788, 187.5030
2251.716, 186.6900
2253.645, 188.4850
2255.573, 195.1020
2257.502, 204.8750
2259.430, 209.7020
2261.359, 209.5260
2263.287, 205.8380
2265.216, 197.4000
2267.144, 193.7530
2269.073, 199.2230
2271.001, 203.5210
2272.929, 205.0650
2274.858, 204.9570
2276.786, 201.5980
2278.715, 199.1400
2280.643, 199.7600
2282.572, 202.2880
2284.500, 207.7710
2286.429, 213.0690
2288.357, 212.9920
2290.286, 209.3540
2292.214, 205.9940
2294.143, 203.1760
2296.071, 204.1980
2298.000, 210.4030
2299.928, 213.7000
2301.856, 213.0700
2303.785, 212.0440
2305.713, 210.7820
2307.642, 209.0830
2309.570, 206.0030
2311.499, 204.2610
2313.427, 206.0320
2315.356, 207.7960
2317.284, 206.1590
2319.213, 205.1070
2321.141, 210.0680
2323.070, 216.0240
2324.998, 215.3270
2326.927, 210.6590
2328.855, 207.9620
2330.783, 207.2930
2332.712, 210.6640
2334.640, 217.6530
2336.569, 217.6240
2338.497, 209.1330
2340.426, 204.7450
2342.354, 207.1990
2344.283, 209.8960
2346.211, 211.5320
2348.140, 213.7440
2350.068, 218.6440
2351.997, 221.5600
2353.925, 219.1950
2355.854, 216.5540
2357.782, 216.9210
2359.710, 217.1760
2361.639, 212.2530
2363.567, 208.1160
2365.496, 214.3650
2367.424, 225.1410
2369.353, 228.8660
2371.281, 227.0670
2373.210, 224.9680
2375.138, 222.6670
2377.067, 228.1150
2378.995, 242.1800
2380.924, 240.4180
2382.852, 218.2550
2384.781, 207.7710
2386.709, 218.0850
2388.637, 224.7280
2390.566, 218.1730
2392.494, 214.9730
2394.423, 221.8100
2396.351, 227.5140
2398.280, 227.3990
2400.208, 226.6070
2402.137, 227.5420
2404.065, 228.7680
2405.994, 229.3410
2407.922, 229.6600
2409.851, 229.0410
2411.779, 229.1640
2413.708, 234.5040
2415.636, 241.7530
2417.564, 241.7800
2419.493, 236.2900
2421.421, 233.8120
2423.350, 234.4090
2425.278, 241.3480
2427.207, 254.4510
2429.135, 251.1530
2431.064, 223.6630
2432.992, 214.2090
2434.921, 242.7590
2436.849, 258.0210
2438.778, 252.4660
2440.706, 245.3760
2442.635, 235.3310
2444.563, 233.1710
2446.491, 248.4980
2448.420, 259.8650
2450.348, 253.8400
2452.277, 247.0310
2454.205, 249.5710
2456.134, 252.6450
2458.062, 248.7070
2459.991, 243.8200
2461.919, 242.7760
2463.848, 244.6960
2465.776, 252.2190
2467.705, 259.3970
2469.633, 254.0760
2471.562, 242.6370
2473.490, 241.3580
2475.418, 247.4260
2477.347, 247.2580
2479.275, 241.4680
2481.204, 241.8120
2483.132, 248.0080
2485.061, 251.4930
2486.989, 251.7700
2488.918, 255.8040
2490.846, 266.6460
2492.775, 269.0080
2494.703, 254.6140
2496.632, 244.8360
2498.560, 241.0560
2500.489, 239.5710
2502.417, 240.8210
2504.345, 241.6950
2506.274, 239.0190
2508.202, 240.9100
2510.131, 257.4680
2512.059, 268.3590
2513.988, 259.0530
2515.916, 251.3430
2517.845, 259.7760
2519.773, 268.0350
2521.702, 267.8100
2523.630, 262.7550
2525.559, 249.5620
2527.487, 239.0670
2529.416, 245.9060
2531.344, 256.6870
2533.272, 252.8740
2535.201, 244.8230
2537.129, 249.8530
2539.058, 260.8850
2540.986, 264.4400
2542.915, 263.7680
2544.843, 265.7940
2546.772, 269.7870
2548.700, 274.3840
2550.629, 278.7780
2552.557, 275.9650
2554.486, 266.6390
2556.414, 267.3400
2558.343, 276.9120
2560.271, 280.7880
2562.199, 278.2330
2564.128, 274.4980
2566.056, 268.6910
2567.985, 268.1840
2569.913, 274.7580
2571.842, 280.9720
2573.770, 287.7410
2575.699, 286.6550
2577.627, 274.3110
2579.556, 266.7030
2581.484, 267.1330
2583.413, 270.9220
2585.341, 281.0550
2587.270, 288.1840
2589.198, 293.0420
2591.126, 290.2730
2593.055, 273.1650
2594.983, 263.0200
2596.912, 270.1670
2598.840, 278.6110
2600.769, 284.3180
2602.697, 288.7120
2604.626, 294.4020
2606.554, 295.3120
2608.483, 284.8230
2610.411, 276.8800
2612.340, 280.2010
2614.268, 285.1820
2616.197, 287.9510
2618.125, 289.3170
2620.053, 289.5360
2621.982, 288.8340
2623.910, 285.2560
2625.839, 283.3620
2627.767, 287.6800
2629.696, 293.1210
2631.624, 297.1470
2633.553, 298.6510
2635.481, 294.9200
2637.410, 289.9810
2639.338, 286.5940
2641.267, 285.5060
2643.195, 289.6460
2645.124, 294.2930
2647.052, 292.5290
2648.980, 289.6340
2650.909, 293.1440
2652.837, 299.3100
2654.766, 304.6830
2656.694, 307.5690
2658.623, 302.3120
2660.551, 295.2020
2662.480, 297.0760
2664.408, 302.8030
2666.337, 303.5600
2668.265, 301.0900
2670.194, 296.4560
2672.122, 292.5770
2674.051, 297.6470
2675.979, 307.3220
2677.907, 312.8480
2679.836, 315.8270
2681.764, 321.7160
2683.693, 327.6660
2685.621, 322.6670
2687.550, 312.3590
2689.478, 314.5100
2691.407, 323.7790
2693.335, 325.4450
2695.264, 322.0520
2697.192, 321.1310
2699.121, 322.1970
2701.049, 324.6820
2702.978, 327.3320
2704.906, 324.6610
2706.834, 319.1150
2708.763, 320.1990
2710.691, 325.0580
2712.620, 320.7890
2714.548, 310.9880
2716.477, 311.7930
2718.405, 319.9290
2720.334, 326.2630
2722.262, 329.6730
2724.191, 324.4590
2726.119, 313.9600
2728.048, 311.7660
2729.976, 316.2360
2731.905, 322.0510
2733.833, 328.0820
2735.761, 329.5950
2737.690, 328.5460
2739.618, 332.7090
2741.547, 339.4350
2743.475, 337.3840
2745.404, 329.8270
2747.332, 329.2010
2749.261, 332.6340
2751.189, 331.7260
2753.118, 328.4760
2755.046, 329.1790
2756.975, 332.2370
2758.903, 332.2690
2760.832, 331.0830
2762.760, 335.5410
2764.688, 341.2050
2766.617, 335.4930
2768.545, 325.0770
2770.474, 326.0510
2772.402, 333.6090
2774.331, 338.3770
2776.259, 340.9950
2778.188, 341.4270
2780.116, 341.4690
2782.045, 346.5680
2783.973, 351.6940
2785.902, 344.1950
2787.830, 334.1520
2789.759, 339.6550
2791.687, 350.2730
2793.615, 352.3490
2795.544, 351.7340
2797.472, 357.0730
2799.401, 363.1930
2801.329, 363.0600
2803.258, 360.8980
2805.186, 360.2370
2807.115, 360.5110
2809.043, 363.8860
2810.972, 364.8530
2812.900, 352.2410
2814.829, 342.7330
2816.757, 353.2610
2818.686, 365.5520
2820.614, 368.1890
2822.542, 365.5640
2824.471, 353.6970
2826.399, 347.4080
2828.328, 360.1330
2830.256, 371.9750
2832.185, 371.8000
2834.113, 369.0000
2836.042, 365.8730
2837.970, 364.3830
2839.899, 365.6220
2841.827, 368.2520
2843.756, 374.1200
2845.684, 376.4350
2847.613, 367.6920
2849.541, 364.0050
2851.469, 370.5390
2853.398, 379.6440
2855.326, 392.5520
2857.255, 398.5630
2859.183, 390.4680
2861.112, 388.6730
2863.040, 405.4000
2864.969, 402.2570
2866.897, 371.7890
2868.826, 359.2130
2870.754, 372.8000
2872.683, 379.7730
2874.611, 374.8620
2876.540, 375.1560
2878.468, 380.9500
2880.396, 383.7160
2882.325, 383.3010
2884.253, 381.7980
2886.182, 379.4770
2888.110, 378.1250
2890.039, 377.7180
2891.967, 378.3550
2893.896, 379.7200
2895.824, 379.6620
2897.753, 379.9440
2899.681, 388.6680
2901.610, 399.4490
2903.538, 394.2430
2905.467, 384.5110
2907.395, 390.6770
2909.323, 400.7880
2911.252, 399.2650
2913.180, 393.9230
2915.109, 390.5980
2917.037, 390.9320
2918.966, 398.8390
2920.894, 406.9650
2922.823, 411.7450
2924.751, 412.9570
2926.680, 407.7020
2928.608, 403.0090
2930.537, 401.2600
2932.465, 400.7950
2934.394, 400.4540
2936.322, 402.3270
2938.250, 409.8020
2940.179, 411.4770
2942.107, 402.8640
2944.036, 401.1620
2945.964, 412.8400
2947.893, 421.6100
2949.821, 426.9220
2951.750, 428.0600
2953.678, 425.0180
2955.607, 414.0090
2957.535, 395.3730
2959.464, 399.7950
2961.392, 423.8800
2963.321, 430.3390
2965.249, 424.9540
2967.177, 428.0340
2969.106, 435.3760
2971.034, 437.1430
2972.963, 436.2210
2974.891, 437.1910
2976.820, 439.2020
2978.748, 443.2620
2980.677, 445.3410
2982.605, 438.8380
2984.534, 432.6240
2986.462, 433.7980
2988.391, 435.8540
2990.319, 435.8430
2992.248, 435.7560
2994.176, 437.6580
2996.104, 436.9610
2998.033, 430.6870
2999.961, 428.8630
3001.890, 433.9310
3003.818, 442.5980
3005.747, 460.5760
3007.675, 459.8870
3009.604, 439.3370
3011.532, 432.1000
3013.461, 439.3030
3015.389, 445.8020
3017.318, 450.4130
3019.246, 442.6370
3021.175, 429.5750
3023.103, 435.7830
3025.031, 449.0720
3026.960, 448.8360
3028.888, 443.4840
3030.817, 439.1010
3032.745, 441.0270
3034.674, 464.3030
3036.602, 479.2810
3038.531, 454.5220
3040.459, 436.6650
3042.388, 447.9720
3044.316, 458.5860
3046.245, 458.8980
3048.173, 459.6600
3050.102, 464.5430
3052.030, 465.1120
3053.958, 459.8360
3055.887, 465.5340
3057.815, 484.3850
3059.744, 483.8110
3061.672, 465.7070
3063.601, 457.8960
3065.529, 458.7730
3067.458, 467.4400
3069.386, 477.0910
3071.315, 469.9550
3073.243, 461.2970
3075.172, 476.0880
3077.100, 491.7930
3079.029, 487.8210
3080.957, 483.0490
3082.885, 490.8170
3084.814, 496.0690
3086.742, 492.8420
3088.671, 491.0570
3090.599, 495.6510
3092.528, 497.2910
3094.456, 494.7280
3096.385, 493.5300
3098.313, 493.9530
3100.242, 494.4050
3102.170, 495.0960
3104.099, 502.8310
3106.027, 513.3120
3107.956, 510.6000
3109.884, 501.9190
3111.813, 496.8200
3113.741, 494.1880
3115.669, 493.6280
3117.598, 494.0860
3119.526, 494.9990
3121.455, 496.4810
3123.383, 498.9750
3125.312, 501.0480
3127.240, 502.4190
3129.169, 503.0240
3131.097, 502.8060
3133.026, 501.5380
3134.954, 498.9550
3136.883, 500.3220
3138.811, 505.1400
3140.740, 512.0300
3142.668, 518.2280
3144.596, 513.6980
3146.525, 506.0700
3148.453, 505.2590
3150.382, 509.0630
3152.310, 520.2550
3154.239, 528.3230
3156.167, 525.2680
3158.096, 522.0760
3160.024, 521.8560
3161.953, 522.6440
3163.881, 524.9400
3165.810, 525.0020
3167.738, 522.7370
3169.667, 528.9030
3171.595, 541.5440
3173.523, 536.0470
3175.452, 520.5560
3177.380, 518.4160
3179.309, 524.1290
3181.237, 535.9140
3183.166, 544.3520
3185.094, 538.4600
3187.023, 529.7710
3188.951, 517.4610
3190.880, 516.2290
3192.808, 541.7840
3194.737, 555.1670
3196.665, 552.3710
3198.594, 551.6270
3200.522, 554.6010
3202.450, 555.1930
3204.379, 553.9140
3206.307, 551.8520
3208.236, 550.9730
3210.164, 557.0880
3212.093, 563.0270
3214.021, 558.7900
3215.950, 555.0070
3217.878, 556.1630
3219.807, 561.5350
3221.735, 576.8820
3223.664, 582.4390
3225.592, 574.5910
3227.521, 576.7280
3229.449, 591.3640
3231.377, 595.5170
3233.306, 591.4730
3235.234, 590.4240
3237.163, 589.8000
3239.091, 583.7050
3241.020, 578.3350
3242.948, 583.5470
3244.877, 586.1250
3246.805, 575.8670
3248.734, 569.3800
3250.662, 572.4130
3252.591, 575.2520
3254.519, 576.8990
3256.448, 579.4930
3258.376, 583.3180
3260.304, 596.3790
3262.233, 611.2840
3264.161, 604.2210
3266.090, 590.8640
3268.018, 588.0490
3269.947, 589.9080
3271.875, 595.0340
3273.804, 598.4340
3275.732, 594.6800
3277.661, 597.4490
3279.589, 609.7360
3281.518, 613.6050
3283.446, 608.1060
3285.375, 600.2190
3287.303, 592.2030
3289.231, 592.3800
3291.160, 596.4210
3293.088, 600.5510
3295.017, 603.3570
3296.945, 603.2150
3298.874, 602.2430
3300.802, 599.1840
3302.731, 601.7700
3304.659, 613.4760
3306.588, 622.8680
3308.516, 629.4890
3310.445, 629.9670
3312.373, 627.1440
3314.302, 630.1340
3316.230, 632.6390
3318.158, 622.6240
3320.087, 616.6600
3322.015, 631.8580
3323.944, 640.3310
3325.872, 633.0770
3327.801, 631.7280
3329.729, 642.1520
3331.658, 643.1710
3333.586, 636.7490
3335.515, 631.4400
3337.443, 630.6200
3339.372, 647.2320
3341.300, 661.8130
3343.229, 652.7560
3345.157, 645.1720
3347.085, 654.9480
3349.014, 658.1990
3350.942, 650.3640
3352.871, 651.7220
3354.799, 663.2600
3356.728, 667.2470
3358.656, 665.6750
3360.585, 661.5350
3362.513, 658.4320
3364.442, 659.8790
3366.370, 664.7610
3368.299, 676.7560
3370.227, 679.2180
3372.156, 661.1520
3374.084, 658.6490
3376.012, 672.9790
3377.941, 681.4390
3379.869, 685.0840
3381.798, 689.8600
3383.726, 691.7080
3385.655, 682.8310
3387.583, 673.0090
3389.512, 660.8520
3391.440, 665.2520
3393.369, 694.6470
3395.297, 705.7190
3397.226, 693.8280
3399.154, 686.6470
3401.083, 685.9280
3403.011, 703.9420
3404.939, 723.5850
3406.868, 726.5850
3408.796, 722.6110
3410.725, 713.1150
3412.653, 708.1980
3414.582, 713.5150
3416.510, 712.2360
3418.439, 704.9970
3420.367, 705.7710
3422.296, 709.7320
3424.224, 702.1540
3426.153, 696.5710
3428.081, 710.6210
3430.010, 719.9120
3431.938, 703.3180
3433.866, 705.6000
3435.795, 732.3700
3437.723, 738.1610
3439.652, 726.0710
3441.580, 731.5650
3443.509, 740.4270
3445.437, 726.3190
3447.366, 713.1190
3449.294, 719.5440
3451.223, 728.9420
3453.151, 739.9330
3455.080, 738.7410
3457.008, 723.7820
3458.937, 737.9010
3460.865, 765.0890
3462.793, 764.5800
3464.722, 759.0260
3466.650, 777.3810
3468.579, 788.6470
3470.507, 776.8890
3472.436, 767.8490
3474.364, 764.5830
3476.293, 757.3960
3478.221, 750.2110
3480.150, 762.7200
3482.078, 780.4220
3484.007, 784.6500
3485.935, 785.6910
3487.864, 788.0150
3489.792, 791.4480
3491.720, 796.7780
3493.649, 787.9860
3495.577, 769.3960
3497.506, 780.6220
3499.434, 802.1360
3501.363, 805.8680
3503.291, 803.8700
3505.220, 804.7980
3507.148, 797.3410
3509.077, 775.0470
3511.005, 784.1490
3512.934, 821.2430
3514.862, 814.4850
3516.791, 791.6630
3518.719, 799.6420
3520.647, 809.0460
3522.576, 799.4350
3524.504, 791.1640
3526.433, 788.7020
3528.361, 794.6720
3530.290, 807.3770
3532.218, 815.0980
3534.147, 819.1510
3536.075, 820.3840
3538.004, 821.1440
3539.932, 823.2580
3541.861, 824.4450
3543.789, 824.4610
3545.718, 822.6090
3547.646, 819.4840
3549.574, 818.9000
3551.503, 818.5070
3553.431, 810.3280
3555.360, 808.1470
3557.288, 826.7740
3559.217, 837.5330
3561.145, 836.4460
3563.074, 832.3200
3565.002, 827.6780
3566.931, 832.4480
3568.859, 840.3240
3570.788, 845.0180
3572.716, 849.2610
3574.645, 856.4540
3576.573, 854.6370
3578.501, 841.6950
3580.430, 840.3210
3582.358, 846.8580
3584.287, 851.1570
3586.215, 855.6880
3588.144, 862.8480
3590.072, 870.5180
3592.001, 879.2110
3593.929, 879.5210
3595.858, 872.2190
3597.786, 873.1460
3599.715, 880.4790
3601.643, 897.0920
3603.572, 907.7530
3605.500, 901.1050
3607.428, 901.0600
3609.357, 916.4960
3611.285, 911.4150
3613.214, 895.4510
3615.142, 899.3330
3617.071, 909.0590
3618.999, 911.5300
3620.928, 913.1330
3622.856, 917.2000
3624.785, 913.0690
3626.713, 902.4420
3628.642, 909.7280
3630.570, 920.7930
3632.499, 908.5200
3634.427, 899.0220
3636.355, 907.0250
3638.284, 917.0570
3640.212, 927.2920
3642.141, 922.7870
3644.069, 913.0880
3645.998, 930.7630
3647.926, 945.5940
3649.855, 931.5130
3651.783, 918.5360
3653.712, 913.9090
3655.640, 916.6790
3657.569, 926.1900
3659.497, 943.7780
3661.426, 956.2450
3663.354, 941.8090
3665.282, 932.5110
3667.211, 946.2790
3669.139, 955.3860
3671.068, 959.0740
3672.996, 957.9880
3674.925, 956.4020
3676.853, 963.2200
3678.782, 967.7490
3680.710, 958.5690
3682.639, 962.1660
3684.567, 978.8190
3686.496, 984.6950
3688.424, 984.5400
3690.353, 987.7710
3692.281, 992.3740
3694.209, 1000.614
3696.138, 1001.091
3698.066, 993.1450
3699.995, 999.8230
3701.923, 1012.030
3703.852, 1003.645
3705.780, 994.1110
3707.709, 996.9270
3709.637, 1000.484
3711.566, 1003.121
3713.494, 1010.145
3715.423, 1019.487
3717.351, 1025.572
3719.280, 1029.589
3721.208, 1031.746
3723.136, 1032.108
3725.065, 1030.283
3726.993, 1034.225
3728.922, 1040.829
3730.850, 1043.899
3732.779, 1040.677
3734.707, 1021.305
3736.636, 1015.872
3738.564, 1029.001
3740.493, 1040.942
3742.421, 1049.239
3744.350, 1046.943
3746.278, 1043.093
3748.207, 1039.927
3750.135, 1048.277
3752.063, 1069.325
3753.992, 1074.043
3755.920, 1068.193
3757.849, 1064.880
3759.777, 1062.337
3761.706, 1058.585
3763.634, 1058.464
3765.563, 1062.294
3767.491, 1063.381
3769.420, 1063.245
3771.348, 1061.367
3773.277, 1066.483
3775.205, 1095.045
3777.134, 1096.883
3779.062, 1073.279
3780.990, 1082.609
3782.919, 1103.363
3784.847, 1097.088
3786.776, 1093.721
3788.704, 1111.041
3790.633, 1119.242
3792.561, 1118.450
3794.490, 1113.789
3796.418, 1110.442
3798.347, 1116.364
3800.275, 1120.647
3802.204, 1115.593
3804.132, 1123.736
3806.061, 1138.848
3807.989, 1138.188
3809.917, 1137.161
3811.846, 1152.252
3813.774, 1155.143
3815.703, 1136.009
3817.631, 1137.583
3819.560, 1149.597
3821.488, 1151.287
3823.417, 1152.789
3825.345, 1159.816
3827.274, 1162.909
3829.202, 1161.181
3831.131, 1160.039
3833.059, 1161.517
3834.988, 1169.215
3836.916, 1180.034
3838.844, 1195.113
3840.773, 1188.709
3842.701, 1170.292
3844.630, 1188.032
3846.558, 1206.051
3848.487, 1186.692
3850.415, 1183.377
3852.344, 1203.910
3854.272, 1214.999
3856.201, 1217.249
3858.129, 1213.601
3860.058, 1203.110
3861.986, 1181.780
3863.915, 1175.435
3865.843, 1182.872
3867.771, 1184.324
3869.700, 1187.971
3871.628, 1205.057
3873.557, 1213.626
3875.485, 1210.794
3877.414, 1212.518
3879.342, 1218.903
3881.271, 1228.815
3883.199, 1238.473
3885.128, 1248.918
3887.056, 1251.346
3888.985, 1246.780
3890.913, 1235.537
3892.842, 1230.274
3894.770, 1243.210
3896.698, 1251.713
3898.627, 1253.836
3900.555, 1246.862
3902.484, 1237.538
3904.412, 1244.389
3906.341, 1257.809
3908.269, 1276.276
3910.198, 1280.722
3912.126, 1271.197
3914.055, 1276.453
3915.983, 1281.257
3917.912, 1263.416
3919.840, 1261.804
3921.769, 1284.314
3923.697, 1287.234
3925.625, 1280.983
3927.554, 1285.116
3929.482, 1296.297
3931.411, 1313.866
3933.339, 1316.907
3935.268, 1311.733
3937.196, 1303.826
3939.125, 1299.452
3941.053, 1322.138
3942.982, 1325.965
3944.910, 1310.879
3946.839, 1312.766
3948.767, 1317.216
3950.696, 1318.615
3952.624, 1334.114
3954.552, 1359.182
3956.481, 1356.675
3958.409, 1343.520
3960.338, 1340.931
3962.266, 1344.636
3964.195, 1347.053
3966.123, 1346.825
3968.052, 1345.743
3969.980, 1346.405
3971.909, 1352.388
3973.837, 1357.285
3975.766, 1344.625
3977.694, 1334.337
3979.623, 1360.680
3981.551, 1385.863
3983.479, 1394.406
3985.408, 1385.400
3987.336, 1369.315
3989.265, 1369.250
3991.193, 1375.222
3993.122, 1379.263
3995.050, 1387.413
3996.979, 1397.781
3998.907, 1388.214
4000.836, 1379.514
4002.764, 1386.956
4004.693, 1397.977
4006.621, 1406.090
4008.550, 1401.547
4010.478, 1400.303
4012.406, 1406.868
4014.335, 1410.630
4016.263, 1420.044
4018.192, 1426.248
4020.120, 1429.799
4022.049, 1430.924
4023.977, 1437.145
4025.906, 1451.929
4027.834, 1461.930
4029.763, 1465.468
4031.691, 1459.304
4033.620, 1452.482
4035.548, 1449.610
4037.477, 1450.159
4039.405, 1452.359
4041.333, 1462.318
4043.262, 1473.026
4045.190, 1478.318
4047.119, 1479.113
4049.047, 1481.364
4050.976, 1486.890
4052.904, 1489.400
4054.833, 1500.788
4056.761, 1508.899
4058.690, 1509.519
4060.618, 1520.211
4062.547, 1525.984
4064.475, 1509.494
4066.404, 1498.363
4068.332, 1506.060
4070.260, 1519.686
4072.189, 1525.863
4074.117, 1517.475
4076.046, 1525.145
4077.974, 1550.532
4079.903, 1561.850
4081.831, 1562.802
4083.760, 1556.621
4085.688, 1552.337
4087.617, 1554.050
4089.545, 1552.265
4091.474, 1552.848
4093.402, 1546.285
4095.331, 1546.251
4097.259, 1560.419
4099.188, 1564.861
4101.116, 1567.401
4103.044, 1569.818
4104.973, 1575.840
4106.901, 1581.225
4108.830, 1591.270
4110.758, 1611.813
4112.687, 1606.481
4114.615, 1587.235
4116.544, 1574.063
4118.472, 1580.267
4120.400, 1592.924
4122.329, 1596.233
4124.258, 1598.093
4126.186, 1605.380
4128.114, 1612.178
4130.043, 1620.538
4131.972, 1635.370
4133.900, 1641.654
4135.828, 1644.915
4137.757, 1642.590
4139.686, 1641.669
4141.614, 1646.317
4143.542, 1646.607
4145.471, 1646.445
4147.399, 1650.514
4149.328, 1656.934
4151.256, 1673.791
4153.185, 1686.529
4155.113, 1683.456
4157.042, 1681.821
4158.970, 1680.744
4160.898, 1692.312
4162.827, 1712.551
4164.755, 1704.974
4166.684, 1689.584
4168.612, 1686.671
4170.541, 1689.553
4172.469, 1693.715
4174.397, 1708.708
4176.326, 1717.479
4178.255, 1707.383
4180.183, 1706.419
4182.111, 1716.737
4184.040, 1724.567
4185.969, 1732.066
4187.897, 1734.800
4189.825, 1736.164
4191.754, 1748.566
4193.683, 1758.080
4195.611, 1757.108
4197.539, 1747.121
4199.468, 1739.076
4201.396, 1735.796
4203.325, 1737.105
4205.253, 1735.548
4207.182, 1715.215
4209.110, 1723.392
4211.039, 1760.398
4212.967, 1771.352
4214.896, 1773.448
4216.824, 1786.673
4218.752, 1778.500
4220.681, 1756.088
4222.609, 1792.192
4224.538, 1827.146
4226.466, 1810.905
4228.395, 1793.236
4230.323, 1785.282
4232.252, 1824.187
4234.180, 1855.050
4236.108, 1843.383
4238.037, 1816.076
4239.966, 1791.089
4241.894, 1826.820
4243.822, 1850.098
4245.751, 1819.060
4247.680, 1832.567
4249.608, 1869.124
4251.536, 1869.563
4253.465, 1863.442
4255.394, 1861.268
4257.322, 1854.978
4259.250, 1852.608
4261.179, 1868.615
4263.107, 1891.014
4265.036, 1915.879
4266.964, 1912.997
4268.893, 1898.900
4270.821, 1886.527
4272.750, 1897.627
4274.678, 1931.250
4276.606, 1943.993
4278.535, 1943.342
4280.463, 1926.842
4282.392, 1935.572
4284.320, 1965.683
4286.249, 1982.930
4288.177, 1982.489
4290.105, 1950.674
4292.034, 1946.731
4293.963, 1960.575
4295.891, 1949.365
4297.819, 1942.442
4299.748, 1953.428
4301.677, 1974.768
4303.605, 1993.839
4305.533, 1989.397
4307.462, 1972.246
4309.391, 1943.824
4311.319, 1965.666
4313.247, 1998.786
4315.176, 1992.072
4317.104, 1999.003
4319.033, 2022.288
4320.961, 2012.226
4322.890, 2003.709
4324.818, 2034.557
4326.747, 2035.503
4328.675, 2016.756
4330.604, 2019.130
4332.532, 2029.259
4334.460, 2042.285
4336.389, 2059.256
4338.317, 2076.796
4340.246, 2096.068
4342.174, 2094.208
4344.103, 2066.049
4346.031, 2041.438
4347.960, 2037.729
4349.888, 2081.274
4351.816, 2093.993
4353.745, 2081.963
4355.674, 2115.508
4357.602, 2139.406
4359.530, 2129.268
4361.459, 2116.649
4363.388, 2109.004
4365.316, 2113.840
4367.244, 2131.364
4369.173, 2157.341
4371.102, 2151.408
4373.030, 2136.488
4374.958, 2130.001
4376.887, 2133.123
4378.815, 2144.866
4380.744, 2165.355
4382.672, 2182.096
4384.601, 2189.572
4386.529, 2188.281
4388.458, 2186.165
4390.386, 2193.892
4392.314, 2208.822
4394.243, 2229.574
4396.171, 2249.305
4398.100, 2257.844
4400.028, 2245.952
4401.957, 2217.413
4403.885, 2189.600
4405.813, 2212.987
4407.742, 2232.462
4409.671, 2232.880
4411.599, 2244.710
4413.527, 2250.777
4415.456, 2228.403
4417.385, 2223.555
4419.313, 2238.479
4421.241, 2272.463
4423.170, 2292.574
4425.099, 2285.979
4427.027, 2270.601
4428.955, 2265.752
4430.884, 2309.741
4432.813, 2319.685
4434.741, 2293.403
4436.669, 2289.608
4438.598, 2294.203
4440.526, 2299.391
4442.455, 2316.375
4444.383, 2336.532
4446.312, 2345.722
4448.240, 2349.971
4450.168, 2351.649
4452.097, 2374.076
4454.025, 2389.960
4455.954, 2384.356
4457.882, 2374.128
4459.811, 2367.641
4461.739, 2385.052
4463.668, 2378.022
4465.596, 2347.233
4467.524, 2366.350
4469.453, 2396.101
4471.382, 2412.233
4473.310, 2417.516
4475.238, 2419.807
4477.167, 2437.540
4479.096, 2443.236
4481.024, 2435.262
4482.952, 2464.417
4484.881, 2480.228
4486.810, 2453.250
4488.738, 2448.586
4490.666, 2459.363
4492.595, 2465.494
4494.523, 2494.790
4496.452, 2537.389
4498.380, 2521.050
4500.309, 2492.997
4502.237, 2476.921
4504.166, 2466.500
4506.094, 2467.317
4508.022, 2491.784
4509.951, 2511.115
4511.879, 2525.124
4513.808, 2559.526
4515.736, 2573.194
4517.665, 2553.682
4519.593, 2538.397
4521.521, 2538.134
4523.450, 2571.312
4525.379, 2575.902
4527.307, 2563.670
4529.235, 2582.365
4531.164, 2588.754
4533.093, 2571.989
4535.021, 2563.474
4536.949, 2570.603
4538.878, 2603.780
4540.807, 2592.089
4542.735, 2567.121
4544.663, 2586.958
4546.592, 2599.962
4548.521, 2605.967
4550.449, 2649.132
4552.377, 2679.853
4554.306, 2671.873
4556.234, 2674.074
4558.163, 2666.177
4560.091, 2616.881
4562.020, 2628.646
4563.948, 2675.718
4565.876, 2686.206
4567.805, 2687.359
4569.733, 2686.899
4571.662, 2688.672
4573.590, 2694.953
4575.519, 2704.948
4577.447, 2735.699
4579.376, 2763.673
4581.304, 2758.558
4583.232, 2758.715
4585.161, 2760.693
4587.090, 2724.165
4589.018, 2742.409
4590.946, 2818.391
4592.875, 2816.716
4594.804, 2805.532
4596.732, 2830.502
4598.660, 2847.032
4600.589, 2845.805
4602.518, 2804.315
4604.446, 2807.773
4606.374, 2839.667
4608.303, 2829.308
4610.231, 2852.468
4612.160, 2907.136
4614.088, 2862.225
4616.017, 2824.536
4617.945, 2858.552
4619.874, 2883.656
4621.802, 2898.695
4623.730, 2905.197
4625.659, 2865.086
4627.587, 2823.281
4629.516, 2884.132
4631.444, 2922.046
4633.373, 2920.138
4635.301, 2900.282
4637.229, 2892.082
4639.158, 2907.625
4641.087, 2908.755
4643.015, 2932.970
4644.943, 3009.254
4646.872, 2994.265
4648.801, 2955.819
4650.729, 2998.075
4652.657, 3002.418
4654.586, 2980.523
4656.515, 2993.553
4658.443, 2997.620
4660.371, 2989.421
4662.300, 3011.492
4664.229, 3026.560
4666.157, 3021.700
4668.085, 3036.815
4670.014, 3042.445
4671.942, 3003.401
4673.871, 3032.844
4675.799, 3074.463
4677.728, 3056.786
4679.656, 3047.131
4681.584, 3049.959
4683.513, 3059.516
4685.441, 3062.725
4687.370, 3065.749
4689.298, 3129.128
4691.227, 3152.870
4693.155, 3115.301
4695.084, 3119.562
4697.012, 3134.339
4698.940, 3141.834
4700.869, 3157.706
4702.798, 3170.283
4704.726, 3171.460
4706.654, 3138.462
4708.583, 3109.999
4710.512, 3146.148
4712.440, 3176.695
4714.368, 3188.671
4716.297, 3160.692
4718.226, 3164.366
4720.154, 3200.213
4722.082, 3210.116
4724.011, 3206.518
4725.939, 3198.878
4727.868, 3239.037
4729.796, 3258.502
4731.725, 3215.196
4733.653, 3230.232
4735.582, 3262.510
4737.510, 3285.740
4739.438, 3287.272
4741.367, 3286.303
4743.295, 3306.985
4745.224, 3319.210
4747.152, 3320.922
4749.081, 3306.446
4751.009, 3301.948
4752.938, 3310.938
4754.866, 3344.347
4756.795, 3355.201
4758.723, 3346.471
4760.651, 3364.093
4762.580, 3383.786
4764.509, 3395.975
4766.437, 3362.438
4768.365, 3346.777
4770.294, 3368.914
4772.223, 3380.297
4774.151, 3380.571
4776.079, 3369.271
4778.008, 3376.282
4779.937, 3388.814
4781.865, 3396.692
4783.793, 3430.174
4785.722, 3459.835
4787.650, 3448.406
4789.579, 3486.574
4791.507, 3526.395
4793.436, 3499.722
4795.364, 3503.145
4797.292, 3515.990
4799.221, 3475.222
4801.149, 3474.062
4803.078, 3501.713
4805.006, 3519.135
4806.935, 3534.002
4808.863, 3551.153
4810.792, 3590.398
4812.720, 3594.544
4814.648, 3568.594
4816.577, 3578.148
4818.506, 3588.315
4820.434, 3591.274
4822.362, 3591.523
4824.291, 3601.298
4826.220, 3620.258
4828.148, 3593.544
4830.076, 3583.752
4832.005, 3607.603
4833.934, 3595.548
4835.862, 3600.097
4837.790, 3643.050
4839.719, 3644.041
4841.647, 3638.147
4843.576, 3642.888
4845.504, 3676.621
4847.433, 3693.638
4849.361, 3666.256
4851.290, 3679.815
4853.218, 3708.496
4855.146, 3737.386
4857.075, 3703.263
4859.003, 3688.082
4860.932, 3756.382
4862.860, 3769.851
4864.789, 3753.502
4866.717, 3726.360
4868.646, 3729.968
4870.574, 3746.026
4872.503, 3758.285
4874.431, 3766.681
4876.359, 3781.136
4878.288, 3824.531
4880.217, 3809.538
4882.145, 3788.248
4884.073, 3815.840
4886.002, 3823.404
4887.931, 3825.772
4889.859, 3849.698
4891.787, 3863.888
4893.716, 3869.270
4895.645, 3863.834
4897.573, 3904.263
4899.501, 3938.380
4901.430, 3883.532
4903.358, 3920.439
4905.287, 3971.730
4907.215, 3934.000
4909.144, 3948.487
4911.072, 3975.277
4913.000, 3959.658
4914.929, 3935.922
4916.857, 3925.377
4918.786, 3955.901
4920.714, 3961.557
4922.643, 3960.615
4924.571, 3975.703
4926.500, 3957.857
4928.428, 3946.908
4930.356, 4001.752
4932.285, 4030.665
4934.214, 4023.239
4936.142, 3967.606
4938.070, 3956.726
4939.999, 3985.243
4941.928, 4052.781
4943.856, 4041.802
4945.784, 4026.017
4947.713, 4066.104
4949.642, 4078.859
4951.570, 4080.864
4953.498, 4085.901
4955.427, 4058.446
4957.355, 4046.049
4959.284, 4086.797
4961.212, 4088.170
4963.141, 4098.486
4965.069, 4136.058
4966.998, 4067.341
4968.926, 4048.918
4970.854, 4153.759
4972.783, 4162.385
4974.711, 4154.867
4976.640, 4163.105
4978.568, 4186.688
4980.497, 4180.845
4982.425, 4146.458
4984.354, 4184.322
4986.282, 4201.473
4988.211, 4186.966
4990.139, 4234.824
4992.067, 4239.158
4993.996, 4206.676
4995.925, 4238.701
4997.853, 4250.073
4999.781, 4239.726
5001.710, 4249.288
5003.639, 4241.333
5005.567, 4235.946
5007.495, 4288.551
5009.424, 4291.597
5011.353, 4279.497
5013.281, 4327.407
5015.209, 4334.596
5017.138, 4344.778
5019.066, 4420.261
5020.995, 4408.104
5022.923, 4357.519
5024.852, 4314.790
5026.780, 4312.361
5028.708, 4328.624
5030.637, 4350.773
5032.565, 4368.680
5034.494, 4386.922
5036.422, 4405.495
5038.351, 4412.061
5040.279, 4401.642
5042.208, 4381.659
5044.136, 4418.341
5046.064, 4442.795
5047.993, 4449.070
5049.922, 4483.388
5051.850, 4477.131
5053.778, 4449.701
5055.707, 4464.082
5057.636, 4481.745
5059.564, 4502.614
5061.492, 4542.859
5063.421, 4539.803
5065.350, 4519.858
5067.278, 4509.467
5069.206, 4520.210
5071.135, 4541.436
5073.063, 4565.479
5074.992, 4588.196
5076.920, 4594.205
5078.849, 4580.495
5080.777, 4572.186
5082.706, 4582.153
5084.634, 4606.748
5086.563, 4626.502
5088.491, 4612.776
5090.419, 4589.643
5092.348, 4633.902
5094.276, 4653.033
5096.205, 4651.914
5098.133, 4649.829
5100.062, 4672.761
5101.990, 4696.588
5103.919, 4697.656
5105.847, 4689.908
5107.775, 4681.765
5109.704, 4677.540
5111.633, 4672.578
5113.561, 4676.971
5115.489, 4690.625
5117.418, 4697.152
5119.347, 4716.752
5121.275, 4731.453
5123.203, 4675.150
5125.132, 4664.374
5127.061, 4687.305
5128.989, 4712.156
5130.917, 4785.335
5132.846, 4825.234
5134.774, 4764.856
5136.703, 4759.539
5138.631, 4785.973
5140.560, 4825.058
5142.488, 4815.960
5144.417, 4792.810
5146.345, 4776.809
5148.273, 4806.133
5150.202, 4826.159
5152.130, 4832.972
5154.059, 4818.235
5155.987, 4873.361
5157.916, 4920.025
5159.844, 4897.372
5161.772, 4883.997
5163.701, 4903.519
5165.630, 4951.910
5167.558, 4939.631
5169.486, 4931.538
5171.415, 4939.058
5173.344, 4938.328
5175.272, 4985.781
5177.200, 5035.755
5179.129, 5022.539
5181.058, 5015.333
5182.986, 5033.355
5184.914, 5086.842
5186.843, 5092.785
5188.771, 5046.236
5190.700, 4975.721
5192.628, 5014.205
5194.557, 5064.823
5196.485, 5095.897
5198.414, 5081.157
5200.342, 5089.770
5202.271, 5099.605
5204.199, 5080.871
5206.127, 5108.753
5208.056, 5104.935
5209.984, 5059.210
5211.913, 5133.980
5213.841, 5135.335
5215.770, 5090.211
5217.698, 5141.677
5219.627, 5170.050
5221.555, 5177.527
5223.483, 5175.168
5225.412, 5162.478
5227.341, 5178.999
5229.269, 5229.671
5231.197, 5236.771
5233.126, 5263.059
5235.055, 5298.590
5236.983, 5288.059
5238.911, 5293.753
5240.840, 5301.518
5242.769, 5296.742
5244.697, 5250.117
5246.625, 5225.850
5248.554, 5243.667
5250.482, 5276.244
5252.411, 5305.789
5254.339, 5325.997
5256.268, 5331.607
5258.196, 5338.336
5260.125, 5336.719
5262.053, 5319.968
5263.981, 5294.832
5265.910, 5303.539
5267.838, 5343.500
5269.767, 5377.450
5271.695, 5369.977
5273.624, 5352.627
5275.552, 5372.847
5277.480, 5373.958
5279.409, 5375.236
5281.338, 5385.384
5283.266, 5390.111
5285.194, 5416.226
5287.123, 5449.199
5289.052, 5446.325
5290.980, 5479.308
5292.908, 5502.859
5294.837, 5477.980
5296.766, 5452.444
5298.694, 5479.907
5300.622, 5544.673
5302.551, 5559.281
5304.479, 5539.738
5306.408, 5497.117
5308.336, 5438.089
5310.265, 5445.343
5312.193, 5475.150
5314.122, 5507.115
5316.050, 5557.491
5317.979, 5556.913
5319.907, 5547.840
5321.835, 5601.104
5323.764, 5582.610
5325.692, 5569.074
5327.621, 5599.064
5329.549, 5664.017
5331.478, 5620.488
5333.406, 5537.858
5335.335, 5578.849
5337.263, 5624.235
5339.191, 5639.721
5341.120, 5622.485
5343.049, 5676.250
5344.977, 5706.157
5346.905, 5707.708
5348.834, 5705.619
5350.763, 5699.211
5352.691, 5712.513
5354.619, 5753.218
5356.548, 5709.854
5358.477, 5714.660
5360.405, 5754.184
5362.333, 5752.747
5364.262, 5742.071
5366.190, 5743.371
5368.119, 5767.555
5370.047, 5837.388
5371.976, 5861.051
5373.904, 5845.228
5375.833, 5826.971
5377.761, 5834.517
5379.689, 5853.862
5381.618, 5876.641
5383.546, 5922.089
5385.475, 5903.192
5387.403, 5865.632
5389.332, 5890.787
5391.260, 5944.109
5393.188, 5933.579
5395.117, 5859.575
5397.046, 5961.767
5398.974, 5959.396
5400.902, 5920.541
5402.831, 5965.820
5404.760, 5969.023
5406.688, 5949.895
5408.616, 5931.861
5410.545, 5952.229
5412.474, 5968.247
5414.402, 5989.860
5416.330, 6028.345
5418.259, 6023.218
5420.188, 6000.903
5422.116, 5979.127
5424.044, 5973.019
5425.973, 6000.888
5427.901, 6031.076
5429.830, 6041.242
5431.758, 6006.814
5433.687, 5988.901
5435.615, 5993.690
5437.543, 6019.749
5439.472, 5996.392
5441.400, 6017.427
5443.329, 6087.405
5445.257, 6112.359
5447.186, 6099.221
5449.114, 6071.217
5451.043, 6046.779
5452.971, 6043.126
5454.899, 6048.478
5456.828, 6054.936
5458.757, 6052.542
5460.685, 6067.905
5462.613, 6121.870
5464.542, 6201.717
5466.471, 6232.349
5468.399, 6235.350
5470.327, 6205.165
5472.256, 6142.965
5474.185, 6158.744
5476.113, 6195.681
5478.041, 6216.680
5479.970, 6185.841
5481.898, 6244.546
5483.827, 6256.322
5485.755, 6201.149
5487.684, 6264.950
5489.612, 6234.766
5491.541, 6201.534
5493.469, 6248.397
5495.397, 6318.145
5497.326, 6311.052
5499.254, 6273.116
5501.183, 6287.781
5503.111, 6371.073
5505.040, 6391.052
5506.968, 6338.174
5508.896, 6295.628
5510.825, 6318.830
5512.754, 6329.242
5514.682, 6294.240
5516.610, 6310.510
5518.539, 6384.411
5520.468, 6418.115
5522.396, 6338.501
5524.324, 6392.811
5526.253, 6390.525
5528.182, 6358.620
5530.110, 6402.766
5532.038, 6459.729
5533.967, 6438.163
5535.896, 6373.879
5537.824, 6472.224
5539.752, 6507.906
5541.681, 6488.867
5543.609, 6444.805
5545.538, 6431.625
5547.466, 6490.928
5549.395, 6555.644
5551.323, 6565.325
5553.251, 6485.581
5555.180, 6509.925
5557.108, 6565.036
5559.037, 6530.795
5560.965, 6532.445
5562.894, 6567.733
5564.822, 6597.803
5566.751, 6547.229
5568.679, 6565.392
5570.607, 6582.487
5572.536, 6578.370
5574.465, 6571.519
5576.393, 6594.526
5578.321, 6614.916
5580.250, 6609.276
5582.179, 6554.593
5584.107, 6590.072
5586.035, 6619.035
5587.964, 6590.835
5589.893, 6641.193
5591.821, 6683.457
5593.749, 6684.735
5595.678, 6634.015
5597.606, 6666.116
5599.535, 6681.610
5601.463, 6677.025
5603.392, 6672.592
5605.320, 6672.795
5607.249, 6642.199
5609.177, 6613.070
5611.105, 6632.114
5613.034, 6666.571
5614.962, 6704.135
5616.891, 6738.725
5618.819, 6768.038
5620.748, 6749.367
5622.676, 6741.008
5624.604, 6758.172
5626.533, 6801.491
5628.462, 6775.415
5630.390, 6798.384
5632.318, 6856.341
5634.247, 6814.177
5636.176, 6838.852
5638.104, 6853.800
5640.032, 6838.300
5641.961, 6827.299
5643.890, 6777.728
5645.818, 6774.268
5647.746, 6821.804
5649.675, 6835.336
5651.604, 6896.872
5653.532, 6930.207
5655.460, 6923.973
5657.389, 6972.559
5659.317, 6926.556
5661.246, 6907.243
5663.174, 6939.581
5665.103, 6901.440
5667.031, 6959.206
5668.959, 6979.792
5670.888, 6944.734
5672.816, 6981.480
5674.745, 7027.771
5676.673, 7029.785
5678.602, 7001.027
5680.530, 7028.511
5682.459, 6997.783
5684.387, 6974.309
5686.315, 6981.867
5688.244, 6987.859
5690.173, 7064.990
5692.101, 7056.402
5694.029, 6983.063
5695.958, 7066.544
5697.887, 7070.509
5699.815, 7065.974
5701.743, 7081.654
5703.672, 7117.704
5705.601, 7079.342
5707.529, 7085.963
5709.457, 7146.500
5711.386, 7208.148
5713.314, 7249.119
5715.243, 7193.934
5717.171, 7114.009
5719.100, 7122.505
5721.028, 7119.967
5722.957, 7129.397
5724.885, 7166.552
5726.813, 7230.773
5728.742, 7162.572
5730.670, 7186.319
5732.599, 7221.498
5734.527, 7162.802
5736.456, 7215.659
5738.384, 7255.508
5740.313, 7272.800
5742.241, 7280.208
5744.170, 7284.670
5746.098, 7266.681
5748.026, 7297.047
5749.955, 7377.106
5751.884, 7371.523
5753.812, 7382.756
5755.740, 7352.803
5757.669, 7290.462
5759.598, 7280.807
5761.526, 7293.030
5763.454, 7310.766
5765.383, 7309.367
5767.312, 7264.086
5769.240, 7338.115
5771.168, 7395.006
5773.097, 7423.406
5775.025, 7451.535
5776.954, 7393.724
5778.882, 7428.837
5780.811, 7447.246
5782.739, 7370.535
5784.667, 7408.024
5786.596, 7435.637
5788.524, 7415.450
5790.453, 7382.280
5792.381, 7478.670
5794.310, 7486.415
5796.238, 7488.643
5798.167, 7502.610
5800.095, 7492.865
5802.023, 7449.587
5803.952, 7472.083
5805.881, 7514.590
5807.809, 7509.276
5809.737, 7507.438
5811.666, 7505.473
5813.595, 7505.609
5815.523, 7512.994
5817.451, 7545.310
5819.380, 7525.067
5821.309, 7506.255
5823.237, 7531.626
5825.165, 7642.875
5827.094, 7583.026
5829.022, 7588.438
5830.951, 7634.927
5832.879, 7615.950
5834.808, 7549.354
5836.736, 7582.977
5838.665, 7648.079
5840.593, 7673.245
5842.521, 7606.900
5844.450, 7589.997
5846.378, 7593.539
5848.307, 7617.075
5850.235, 7688.953
5852.164, 7692.805
5854.092, 7673.347
5856.021, 7663.991
5857.949, 7673.631
5859.878, 7640.984
5861.806, 7649.438
5863.734, 7628.225
5865.663, 7600.194
5867.592, 7698.384
5869.520, 7716.102
5871.448, 7751.763
5873.377, 7799.685
5875.306, 7812.865
5877.234, 7729.449
5879.162, 7748.334
5881.091, 7769.087
5883.020, 7750.743
5884.948, 7794.827
5886.876, 7813.180
5888.805, 7802.318
5890.733, 7779.243
5892.662, 7766.316
5894.590, 7863.399
5896.519, 7836.204
5898.447, 7805.637
5900.375, 7838.309
5902.304, 7855.808
5904.232, 7938.723
5906.161, 7897.043
5908.089, 7845.032
5910.018, 7959.307
5911.946, 8015.793
5913.875, 7993.104
5915.803, 7954.762
5917.731, 7930.384
5919.660, 7901.853
5921.589, 7944.893
5923.517, 7975.167
5925.445, 7980.796
5927.374, 7978.198
5929.303, 7996.296
5931.231, 8000.454
5933.159, 7995.193
5935.088, 7994.721
5937.017, 8011.367
5938.945, 8002.323
5940.873, 8008.465
5942.802, 8030.205
5944.730, 8056.105
5946.659, 8073.424
5948.587, 8081.215
5950.516, 8069.666
5952.444, 8083.803
5954.373, 8140.287
5956.301, 8012.574
5958.229, 8026.442
5960.158, 8071.302
5962.086, 8096.075
5964.015, 8137.516
5965.943, 8108.200
5967.872, 8168.748
5969.800, 8205.957
5971.729, 8158.473
5973.657, 8123.349
5975.586, 8138.194
5977.514, 8119.908
5979.442, 8128.942
5981.371, 8209.669
5983.300, 8181.420
5985.228, 8201.499
5987.156, 8281.826
5989.085, 8324.731
5991.014, 8233.476
5992.942, 8233.212
5994.870, 8205.370
5996.799, 8241.084
5998.728, 8310.928
6000.656, 8257.715
6002.584, 8309.986
6004.513, 8319.151
6006.441, 8296.749
6008.370, 8283.717
6010.298, 8316.360
6012.227, 8367.793
6014.155, 8360.860
6016.083, 8341.844
6018.012, 8354.583
6019.940, 8382.464
6021.869, 8391.332
6023.797, 8358.340
6025.726, 8327.412
6027.654, 8343.341
6029.583, 8434.379
6031.511, 8458.815
6033.439, 8432.741
6035.368, 8434.175
6037.297, 8509.266
6039.225, 8508.230
6041.153, 8529.553
6043.082, 8521.897
6045.011, 8514.945
6046.939, 8553.840
6048.867, 8525.198
6050.796, 8516.319
6052.725, 8531.953
6054.653, 8524.731
6056.581, 8460.097
6058.510, 8549.357
6060.438, 8538.343
6062.367, 8617.089
6064.295, 8696.049
6066.224, 8592.203
6068.152, 8676.827
6070.081, 8670.400
6072.009, 8617.048
6073.938, 8586.194
6075.866, 8613.147
6077.794, 8614.915
6079.723, 8653.603
6081.651, 8675.024
6083.580, 8661.004
6085.508, 8628.189
6087.437, 8658.635
6089.365, 8643.034
6091.294, 8659.789
6093.222, 8681.016
6095.150, 8670.215
6097.079, 8762.427
6099.008, 8771.212
6100.936, 8784.911
6102.864, 8775.325
6104.793, 8722.688
6106.722, 8769.777
6108.650, 8745.864
6110.578, 8722.069
6112.507, 8723.928
6114.436, 8761.823
6116.364, 8900.197
6118.292, 8768.472
6120.221, 8754.783
6122.149, 8806.871
6124.078, 8817.504
6126.006, 8737.436
6127.935, 8791.642
6129.863, 8861.222
6131.792, 8863.111
6133.720, 8833.336
6135.648, 8864.889
6137.577, 8834.650
6139.505, 8868.304
6141.434, 8862.868
6143.362, 8867.019
6145.291, 8946.526
6147.219, 8876.723
6149.147, 8882.971
6151.076, 8932.262
6153.005, 8969.057
6154.933, 8975.269
6156.861, 8983.954
6158.790, 9037.414
6160.719, 9012.878
6162.647, 8965.631
6164.575, 8954.716
6166.504, 8993.180
6168.433, 9014.311
6170.361, 9038.556
6172.289, 9084.226
6174.218, 9094.852
6176.146, 9042.471
6178.075, 9087.278
6180.003, 9034.178
6181.932, 9041.666
6183.860, 9056.958
6185.789, 9064.587
6187.717, 9159.872
6189.646, 9081.324
6191.574, 9088.348
6193.502, 9092.539
6195.431, 9076.712
6197.359, 9096.537
6199.288, 9167.945
6201.216, 9170.402
6203.145, 9183.958
6205.073, 9179.386
6207.002, 9148.198
6208.930, 9157.107
6210.858, 9224.394
6212.787, 9172.040
6214.716, 9095.875
6216.644, 9114.076
6218.572, 9238.689
6220.501, 9249.159
6222.430, 9231.825
6224.358, 9212.132
6226.286, 9192.018
6228.215, 9231.404
6230.144, 9399.974
6232.072, 9290.786
6234.000, 9254.336
6235.929, 9263.444
6237.857, 9278.363
6239.786, 9280.006
6241.714, 9232.403
6243.643, 9295.081
6245.571, 9273.653
6247.500, 9294.528
6249.428, 9351.468
6251.356, 9346.600
6253.285, 9319.374
6255.213, 9317.586
6257.142, 9366.583
6259.070, 9368.315
6260.999, 9339.001
6262.927, 9396.100
6264.855, 9415.604
6266.784, 9419.616
6268.713, 9398.469
6270.641, 9387.763
6272.569, 9411.342
6274.498, 9450.702
6276.427, 9379.329
6278.355, 9408.189
6280.283, 9416.678
6282.212, 9404.792
6284.141, 9419.214
6286.069, 9453.093
6287.997, 9484.359
6289.926, 9496.531
6291.854, 9474.581
6293.783, 9445.542
6295.711, 9452.246
6297.640, 9517.818
6299.568, 9424.785
6301.497, 9417.398
6303.425, 9499.395
6305.354, 9579.637
6307.282, 9595.116
6309.210, 9569.648
6311.139, 9588.467
6313.067, 9685.782
6314.996, 9630.548
6316.924, 9513.760
6318.853, 9513.484
6320.781, 9632.537
6322.710, 9620.582
6324.638, 9588.122
6326.566, 9607.358
6328.495, 9632.433
6330.424, 9612.000
6332.352, 9567.758
6334.280, 9567.684
6336.209, 9613.149
6338.138, 9661.622
6340.066, 9679.524
6341.994, 9669.117
6343.923, 9664.029
6345.852, 9652.895
6347.780, 9778.422
6349.708, 9729.767
6351.637, 9673.951
6353.565, 9721.494
6355.494, 9733.735
6357.422, 9743.697
6359.351, 9772.640
6361.279, 9741.920
6363.208, 9718.143
6365.136, 9746.196
6367.064, 9798.383
6368.993, 9754.263
6370.921, 9709.496
6372.850, 9722.182
6374.778, 9720.483
6376.707, 9779.437
6378.635, 9911.314
6380.563, 9862.708
6382.492, 9801.599
6384.421, 9729.044
6386.349, 9774.614
6388.277, 9868.729
6390.206, 9930.906
6392.135, 9949.481
6394.063, 9840.962
6395.991, 9865.955
6397.920, 9857.373
6399.849, 9864.300
6401.777, 9850.161
6403.705, 9787.778
6405.634, 9875.624
6407.563, 9912.604
6409.491, 9950.839
6411.419, 9923.604
6413.348, 9906.401
6415.276, 9938.370
6417.205, 9964.435
6419.133, 9965.937
6421.062, 9935.393
6422.990, 9942.134
6424.918, 9908.646
6426.847, 9864.981
6428.775, 9903.022
6430.704, 10032.41
6432.632, 9926.938
6434.561, 9880.431
6436.489, 9933.500
6438.418, 10007.59
6440.346, 10044.87
6442.274, 10040.17
6444.203, 10029.88
6446.132, 10059.83
6448.060, 10041.26
6449.988, 10127.89
6451.917, 10137.66
6453.846, 10058.24
6455.774, 10072.27
6457.702, 10096.72
6459.631, 10126.29
6461.560, 10080.11
6463.488, 10049.28
6465.416, 10026.68
6467.345, 10024.45
6469.273, 10084.27
6471.202, 10116.25
6473.130, 10138.76
6475.059, 10091.71
6476.987, 10154.94
6478.916, 10188.55
6480.844, 10146.87
6482.772, 10173.37
6484.701, 10117.52
6486.629, 10239.12
6488.558, 10223.54
6490.486, 10232.92
6492.415, 10200.29
6494.343, 10147.14
6496.271, 10192.88
6498.200, 10165.17
6500.129, 10224.81
6502.057, 10219.87
6503.985, 10304.03
6505.914, 10241.18
6507.843, 10123.68
6509.771, 10218.53
6511.699, 10284.31
6513.628, 10336.00
6515.557, 10217.12
6517.485, 10284.97
6519.413, 10332.89
6521.342, 10266.19
6523.271, 10206.43
6525.199, 10252.23
6527.127, 10359.76
6529.056, 10318.79
6530.984, 10270.05
6532.913, 10276.11
6534.841, 10310.22
##END=



