##NAMES=Chalcomenite
##RRUFFID=R060586
##IDEAL CHEMISTRY=Cu(Se^4+^O_3_)·2H_2_O
##LOCALITY=El Dragon mine, Potosi, Bolivia
##OWNER=RRUFF
##SOURCE=Michael Scott
##DESCRIPTION=Blue crystalline mass, associated with white needles of calcite
##STATUS=The identification of this mineral is confirmed by single-crystal X-ray diffraction and chemical analysis
##URL=https://www.rruff.net/odr/rruff_sample/R060586
##MEASURED CHEMISTRY=Cu_1.00_Se^4+^_1.00_O_3_·1.84H_2_O ; trace amounts of Fe
##DIFFRACTION SAMPLE DESCRIPTION=Single crystal, powder profile is calculated
##CELL PARAMETERS=a: 6.65 b: 9.128 c: 7.343 alpha: 90 beta: 90 gamma: 90 volume: 445.7 crystal system: orthorhombic
##FILETYPE=Raman RAW
##RAMAN WAVELENGTH=532

140.5267, 6.005136
142.4552, 6.350612
144.3836, 7.074220
146.3121, 7.830618
148.2406, 8.256057
150.1690, 8.512462
152.0975, 9.772725
154.0260, 12.83147
155.9544, 16.57294
157.8829, 19.99962
159.8114, 22.83734
161.7398, 26.08511
163.6683, 30.02728
165.5968, 34.71746
167.5252, 39.62355
169.4537, 44.04551
171.3822, 49.07828
173.3106, 55.70036
175.2391, 64.90774
177.1676, 73.92916
179.0960, 81.21225
181.0245, 84.32421
182.9530, 86.70410
184.8814, 87.83079
186.8099, 88.61909
188.7384, 89.85332
190.6668, 92.53628
192.5953, 94.46293
194.5238, 95.30376
196.4522, 95.39489
198.3807, 95.52054
200.3092, 95.30544
202.2376, 95.25066
204.1661, 95.94164
206.0946, 97.32298
208.0230, 99.23222
209.9515, 102.1796
211.8800, 106.1506
213.8084, 109.2779
215.7369, 112.0424
217.6654, 113.8298
219.5938, 113.3767
221.5223, 110.0366
223.4508, 106.1217
225.3792, 102.4695
227.3077, 99.07747
229.2362, 96.84204
231.1646, 96.48837
233.0931, 96.68265
235.0216, 96.41285
236.9500, 95.42207
238.8785, 94.42735
240.8070, 93.56214
242.7354, 92.79746
244.6639, 91.98980
246.5924, 90.84257
248.5208, 89.98281
250.4493, 89.73061
252.3778, 90.85002
254.3062, 91.65847
256.2347, 91.91517
258.1632, 91.74574
260.0916, 91.43337
262.0201, 91.20847
263.9486, 90.46534
265.8770, 89.01048
267.8055, 86.63737
269.7340, 84.45399
271.6624, 82.43647
273.5909, 80.57552
275.5194, 79.07271
277.4478, 78.19456
279.3763, 77.66702
281.3048, 77.44910
283.2332, 77.49212
285.1617, 77.31890
287.0902, 77.03239
289.0186, 76.43701
290.9471, 75.03989
292.8756, 72.26440
294.8040, 69.19923
296.7325, 66.15380
298.6610, 63.20897
300.5894, 60.73217
302.5179, 58.82087
304.4464, 57.27446
306.3748, 56.01488
308.3033, 55.05188
310.2318, 54.09988
312.1602, 53.09998
314.0887, 52.14144
316.0172, 51.50994
317.9456, 51.15795
319.8741, 50.92694
321.8026, 50.85240
323.7310, 50.96930
325.6595, 51.21630
327.5880, 51.49239
329.5164, 51.70812
331.4449, 51.80364
333.3734, 51.73567
335.3018, 52.00485
337.2303, 52.63018
339.1588, 53.52561
341.0872, 54.72228
343.0157, 56.60785
344.9442, 58.51698
346.8727, 59.89807
348.8011, 60.72919
350.7296, 61.67843
352.6581, 62.64183
354.5865, 63.56478
356.5150, 64.55485
358.4435, 66.53304
360.3719, 68.06164
362.3004, 68.21836
364.2289, 66.96027
366.1573, 66.55410
368.0858, 67.68488
370.0143, 69.41578
371.9427, 70.66542
373.8712, 71.50361
375.7997, 72.33090
377.7281, 73.18891
379.6566, 73.94862
381.5851, 74.07537
383.5135, 73.54920
385.4420, 73.16277
387.3705, 73.27426
389.2989, 73.54184
391.2274, 73.57567
393.1559, 73.61109
395.0843, 73.65535
397.0128, 73.52502
398.9413, 73.15678
400.8697, 72.69469
402.7982, 72.08484
404.7267, 71.31242
406.6551, 70.48327
408.5836, 69.49170
410.5121, 68.47438
412.4405, 67.53795
414.3690, 66.96479
416.2975, 66.35780
418.2259, 65.22628
420.1544, 63.89886
422.0829, 63.00142
424.0113, 63.45546
425.9398, 63.60067
427.8683, 62.76703
429.7967, 61.17065
431.7252, 60.05863
433.6537, 59.83051
435.5821, 59.96348
437.5106, 60.23566
439.4391, 60.58702
441.3675, 60.70237
443.2960, 60.39228
445.2245, 60.21082
447.1529, 60.60324
449.0814, 61.93998
451.0099, 63.25640
452.9383, 64.25096
454.8668, 64.89391
456.7953, 65.71369
458.7237, 66.76811
460.6522, 67.90456
462.5807, 69.01714
464.5091, 70.19193
466.4376, 71.59397
468.3661, 73.19834
470.2945, 74.68971
472.2230, 75.84547
474.1515, 76.97958
476.0799, 78.13406
478.0084, 79.33903
479.9369, 80.46223
481.8653, 81.40149
483.7938, 82.00170
485.7223, 82.44837
487.6507, 82.57806
489.5792, 82.81719
491.5077, 83.38950
493.4361, 84.23935
495.3646, 85.18162
497.2931, 86.11307
499.2215, 87.05510
501.1500, 88.44073
503.0785, 90.43836
505.0069, 92.96894
506.9354, 95.93493
508.8639, 99.08036
510.7923, 102.5943
512.7208, 106.4583
514.6493, 110.9116
516.5778, 115.9298
518.5062, 121.3760
520.4347, 127.2910
522.3632, 133.5954
524.2916, 140.7250
526.2201, 148.3103
528.1486, 156.5488
530.0770, 164.9252
532.0055, 173.1857
533.9340, 181.1454
535.8624, 189.3095
537.7909, 198.1186
539.7194, 207.1321
541.6478, 215.8297
543.5763, 224.4517
545.5048, 231.8927
547.4332, 238.1897
549.3617, 242.6468
551.2902, 245.1648
553.2186, 246.0105
555.1471, 244.7235
557.0756, 240.7822
559.0040, 233.9535
560.9325, 225.8296
562.8610, 215.9807
564.7894, 205.5401
566.7179, 194.5925
568.6464, 183.4087
570.5748, 172.9294
572.5033, 163.1865
574.4318, 154.0403
576.3602, 145.3520
578.2887, 137.0266
580.2172, 129.4844
582.1456, 122.9855
584.0741, 117.1547
586.0026, 111.8265
587.9310, 107.0271
589.8595, 102.5164
591.7880, 98.18859
593.7164, 94.17652
595.6449, 90.76785
597.5734, 88.26831
599.5018, 86.01326
601.4303, 83.77821
603.3588, 81.75237
605.2872, 79.96378
607.2157, 78.24310
609.1442, 76.74224
611.0726, 75.61231
613.0011, 74.87629
614.9296, 74.28767
616.8580, 73.85589
618.7865, 73.52166
620.7150, 73.25146
622.6434, 72.95029
624.5719, 72.64324
626.5004, 72.23243
628.4288, 71.97685
630.3573, 71.96879
632.2858, 72.31047
634.2142, 72.72411
636.1427, 73.13481
638.0712, 73.66214
639.9996, 74.49134
641.9281, 75.75198
643.8566, 76.82207
645.7850, 77.13564
647.7135, 77.15964
649.6420, 77.96494
651.5704, 80.45529
653.4989, 82.71624
655.4274, 84.09512
657.3558, 84.98087
659.2843, 86.38321
661.2128, 88.55602
663.1412, 90.93789
665.0697, 93.23750
666.9982, 95.53879
668.9266, 98.33288
670.8551, 101.9108
672.7836, 105.6052
674.7120, 109.1836
676.6405, 112.6831
678.5690, 116.1414
680.4974, 119.9192
682.4259, 123.2769
684.3544, 125.7644
686.2828, 127.2410
688.2113, 129.0960
690.1398, 131.7250
692.0682, 134.3665
693.9967, 136.6620
695.9252, 138.5863
697.8536, 140.4505
699.7821, 142.0958
701.7106, 143.8662
703.6390, 146.0349
705.5675, 148.7569
707.4960, 151.0634
709.4244, 152.5567
711.3529, 153.7089
713.2814, 154.9810
715.2098, 156.3287
717.1383, 158.0778
719.0668, 160.4388
720.9952, 162.8680
722.9237, 165.3375
724.8522, 168.1444
726.7806, 170.5810
728.7091, 171.9590
730.6376, 172.8911
732.5660, 174.1611
734.4945, 176.2238
736.4230, 177.9283
738.3514, 179.1364
740.2799, 179.7626
742.2084, 179.9226
744.1368, 179.9735
746.0653, 179.1044
747.9938, 176.5753
749.9222, 172.6704
751.8507, 168.2814
753.7792, 162.8299
755.7076, 157.7517
757.6361, 153.4647
759.5646, 149.4733
761.4930, 146.3100
763.4215, 144.0542
765.3500, 143.1890
767.2784, 143.4770
769.2069, 144.8401
771.1354, 147.2547
773.0638, 150.8250
774.9923, 155.6425
776.9208, 161.1527
778.8492, 167.9738
780.7777, 175.3598
782.7062, 182.7322
784.6346, 190.4724
786.5631, 200.0644
788.4916, 210.9345
790.4200, 222.6686
792.3485, 235.2333
794.2770, 248.4025
796.2054, 262.3765
798.1339, 279.2324
800.0624, 299.2292
801.9908, 322.7408
803.9193, 347.7906
805.8478, 376.1357
807.7762, 406.3991
809.7047, 429.7599
811.6332, 444.9624
813.5616, 450.9092
815.4901, 443.7005
817.4186, 423.6344
819.3470, 398.9099
821.2755, 369.3635
823.2040, 337.6146
825.1324, 307.0144
827.0609, 278.0655
828.9894, 251.9409
830.9178, 229.1812
832.8463, 208.8419
834.7748, 191.3300
836.7032, 175.9786
838.6317, 161.9398
840.5602, 149.3845
842.4886, 138.9846
844.4171, 129.8432
846.3456, 121.7823
848.2740, 114.5901
850.2025, 108.3392
852.1310, 103.2760
854.0594, 99.74085
855.9879, 96.73743
857.9164, 93.65274
859.8448, 90.68692
861.7733, 88.46079
863.7018, 86.60816
865.6302, 84.61610
867.5587, 83.56184
869.4872, 83.71559
871.4156, 83.60134
873.3441, 82.13499
875.2726, 80.46072
877.2010, 79.46989
879.1295, 79.13132
881.0580, 78.93447
882.9865, 78.59029
884.9149, 78.00028
886.8434, 77.45592
888.7719, 77.07784
890.7003, 77.05112
892.6288, 77.54563
894.5573, 78.20602
896.4857, 78.39029
898.4142, 78.16908
900.3427, 78.09807
902.2711, 78.64473
904.1996, 79.57645
906.1281, 79.94620
908.0565, 79.52095
909.9850, 78.80924
911.9135, 78.64931
913.8419, 78.97442
915.7704, 78.78130
917.6989, 78.10204
919.6273, 77.61595
921.5558, 77.77446
923.4843, 78.37374
925.4127, 78.67959
927.3412, 78.51729
929.2697, 77.93479
931.1981, 77.09886
933.1266, 76.53580
935.0551, 76.98596
936.9835, 77.53758
938.9120, 77.56504
940.8405, 77.14824
942.7689, 76.73110
944.6974, 76.17112
946.6259, 75.14070
948.5543, 74.39018
950.4828, 74.39323
952.4113, 75.35798
954.3397, 75.54579
956.2682, 74.66433
958.1967, 74.18468
960.1251, 74.40516
962.0536, 74.72287
963.9821, 74.27747
965.9105, 73.80077
967.8390, 73.94942
969.7675, 73.86184
971.6959, 73.17030
973.6244, 73.38857
975.5529, 72.84520
977.4813, 73.25108
979.4098, 73.23945
981.3383, 73.07278
983.2667, 73.16380
985.1952, 73.31618
987.1237, 73.08817
989.0521, 72.55052
990.9806, 72.06536
992.9091, 72.05683
994.8375, 72.72111
996.7660, 73.37735
998.6945, 73.35682
1000.623, 73.00654
1002.551, 72.70683
1004.480, 72.44266
1006.408, 71.99840
1008.337, 71.81758
1010.265, 72.39830
1012.194, 73.26162
1014.122, 74.05428
1016.051, 74.42298
1017.979, 74.49965
1019.908, 74.53697
1021.836, 74.75953
1023.765, 75.24612
1025.693, 75.62096
1027.621, 75.44810
1029.550, 75.06573
1031.478, 74.90446
1033.407, 75.09199
1035.335, 75.40777
1037.264, 75.77560
1039.192, 75.83920
1041.121, 75.77353
1043.049, 75.91943
1044.978, 76.10453
1046.906, 76.19777
1048.835, 76.22006
1050.763, 76.03603
1052.692, 76.15223
1054.620, 76.98311
1056.548, 78.80039
1058.477, 79.54884
1060.405, 78.50556
1062.334, 77.39370
1064.262, 76.99039
1066.191, 77.30922
1068.119, 77.73678
1070.048, 78.13304
1071.976, 78.37010
1073.905, 78.89577
1075.833, 80.03880
1077.762, 80.86666
1079.690, 80.85967
1081.619, 80.57387
1083.547, 80.74403
1085.475, 81.35271
1087.404, 81.88396
1089.332, 82.23067
1091.261, 82.35606
1093.189, 82.20975
1095.118, 82.01134
1097.046, 81.81173
1098.975, 81.55214
1100.903, 81.24871
1102.832, 80.73206
1104.760, 80.42618
1106.689, 80.95877
1108.617, 82.12903
1110.546, 82.62768
1112.474, 81.67847
1114.402, 80.84731
1116.331, 80.53769
1118.259, 80.76873
1120.188, 81.25819
1122.116, 81.84777
1124.045, 82.06753
1125.973, 81.80136
1127.902, 81.60965
1129.830, 81.38285
1131.759, 81.16536
1133.687, 81.17105
1135.616, 81.53625
1137.544, 81.68669
1139.473, 81.43400
1141.401, 81.19901
1143.329, 81.33257
1145.258, 82.13169
1147.186, 82.73504
1149.115, 83.03568
1151.043, 83.11433
1152.972, 83.15341
1154.900, 83.22099
1156.829, 83.22956
1158.757, 83.12068
1160.686, 83.08913
1162.614, 83.21158
1164.543, 83.33451
1166.471, 83.55195
1168.400, 84.03166
1170.328, 84.29068
1172.256, 83.88482
1174.185, 83.44967
1176.113, 83.43771
1178.042, 83.88765
1179.970, 84.25199
1181.899, 84.54091
1183.827, 84.75038
1185.756, 84.79677
1187.684, 84.76160
1189.613, 84.85139
1191.541, 85.10133
1193.470, 85.29028
1195.398, 85.26394
1197.327, 85.29050
1199.255, 85.52162
1201.183, 85.93210
1203.112, 86.35566
1205.040, 86.88448
1206.969, 87.30341
1208.897, 87.45115
1210.826, 87.37571
1212.754, 87.33613
1214.683, 87.24957
1216.611, 87.32716
1218.540, 87.73722
1220.468, 88.21069
1222.397, 88.50464
1224.325, 88.63367
1226.254, 88.84603
1228.182, 89.19678
1230.110, 89.58225
1232.039, 89.93065
1233.967, 90.25753
1235.896, 90.63331
1237.824, 91.08786
1239.753, 91.31543
1241.681, 90.90903
1243.610, 90.63472
1245.538, 91.09453
1247.467, 92.27049
1249.395, 92.76566
1251.324, 91.89140
1253.252, 91.28428
1255.181, 91.38012
1257.109, 91.86440
1259.037, 92.34627
1260.966, 92.66261
1262.894, 92.71413
1264.823, 92.30724
1266.751, 92.11005
1268.680, 92.59961
1270.608, 93.31859
1272.537, 93.58937
1274.465, 93.27780
1276.394, 93.12836
1278.322, 93.36732
1280.251, 93.69141
1282.179, 94.03481
1284.108, 94.43447
1286.036, 94.79460
1287.964, 95.11042
1289.893, 95.40079
1291.821, 95.60741
1293.750, 95.78498
1295.678, 96.09698
1297.607, 96.72081
1299.535, 97.12193
1301.464, 97.03030
1303.392, 96.98826
1305.321, 97.41025
1307.249, 97.96510
1309.178, 98.12912
1311.106, 97.78743
1313.035, 97.70168
1314.963, 98.23460
1316.891, 99.06529
1318.820, 100.0266
1320.748, 100.5878
1322.677, 100.5774
1324.605, 99.95842
1326.534, 99.56976
1328.462, 99.53886
1330.391, 99.62440
1332.319, 99.76334
1334.248, 100.1666
1336.176, 100.4323
1338.105, 100.1884
1340.033, 100.2669
1341.962, 101.2824
1343.890, 102.5995
1345.818, 103.1487
1347.747, 102.9417
1349.675, 102.8835
1351.604, 102.9745
1353.532, 103.1967
1355.461, 103.7839
1357.389, 104.4551
1359.318, 104.6354
1361.246, 104.3378
1363.175, 104.0192
1365.103, 103.5971
1367.032, 103.3542
1368.960, 103.5095
1370.889, 104.0076
1372.817, 104.6641
1374.745, 105.7074
1376.674, 106.4805
1378.602, 106.6987
1380.531, 106.6028
1382.459, 106.3026
1384.388, 105.8257
1386.316, 105.7129
1388.245, 106.4942
1390.173, 107.0242
1392.102, 106.9920
1394.030, 106.8216
1395.959, 106.8490
1397.887, 106.9501
1399.816, 107.1870
1401.744, 107.6489
1403.672, 108.0082
1405.601, 108.0997
1407.529, 108.2396
1409.458, 108.8922
1411.386, 109.7674
1413.315, 109.9407
1415.243, 108.9861
1417.172, 108.2889
1419.100, 108.7873
1421.029, 109.8231
1422.957, 110.4381
1424.886, 110.3290
1426.814, 110.4993
1428.743, 111.5776
1430.671, 112.4536
1432.599, 112.7357
1434.528, 112.5209
1436.456, 111.8191
1438.385, 110.4674
1440.313, 109.9860
1442.242, 111.0878
1444.170, 112.1404
1446.099, 112.8977
1448.027, 113.4398
1449.956, 113.7604
1451.884, 113.5971
1453.813, 113.3650
1455.741, 112.9429
1457.670, 112.7741
1459.598, 113.3785
1461.526, 114.3085
1463.455, 114.7889
1465.383, 114.5065
1467.312, 114.3649
1469.240, 114.7927
1471.169, 115.4585
1473.097, 116.5251
1475.026, 117.2964
1476.954, 116.8526
1478.883, 115.5205
1480.811, 115.0655
1482.740, 115.7024
1484.668, 116.3776
1486.597, 117.1472
1488.525, 117.7237
1490.453, 117.6239
1492.382, 116.9903
1494.310, 116.9154
1496.239, 117.7840
1498.167, 118.5050
1500.096, 118.4501
1502.024, 118.2940
1503.953, 118.4365
1505.881, 118.8085
1507.810, 119.2046
1509.738, 119.7433
1511.667, 120.3475
1513.595, 121.2945
1515.524, 121.7923
1517.452, 121.1766
1519.380, 120.0412
1521.309, 119.9557
1523.237, 121.2137
1525.166, 122.0097
1527.094, 122.5507
1529.023, 123.0161
1530.951, 123.0817
1532.880, 123.0037
1534.808, 123.4696
1536.737, 124.8034
1538.665, 125.6171
1540.594, 125.3970
1542.522, 125.3938
1544.451, 126.1666
1546.379, 127.2596
1548.307, 128.2526
1550.236, 129.1642
1552.164, 129.5120
1554.093, 128.5771
1556.021, 128.0046
1557.950, 128.5866
1559.878, 129.6496
1561.807, 130.7774
1563.735, 131.8017
1565.664, 132.1460
1567.592, 131.5397
1569.521, 131.3635
1571.449, 132.4675
1573.378, 133.3825
1575.306, 133.0651
1577.234, 132.2256
1579.163, 132.0819
1581.091, 132.6454
1583.020, 132.9466
1584.948, 132.7466
1586.877, 132.5704
1588.805, 132.6491
1590.734, 132.8321
1592.662, 132.9681
1594.591, 133.1104
1596.519, 133.5329
1598.448, 134.4391
1600.376, 134.7918
1602.305, 133.7785
1604.233, 132.8159
1606.161, 132.7253
1608.090, 133.2446
1610.018, 133.8833
1611.947, 134.6692
1613.875, 135.3150
1615.804, 136.0482
1617.732, 136.2585
1619.661, 135.1807
1621.589, 133.8385
1623.518, 133.2886
1625.446, 133.4981
1627.375, 133.9554
1629.303, 134.6765
1631.232, 135.4981
1633.160, 136.6943
1635.089, 137.5692
1637.017, 137.4426
1638.945, 136.8046
1640.874, 136.8764
1642.802, 137.8295
1644.731, 138.3575
1646.659, 138.0423
1648.588, 137.8581
1650.516, 138.2124
1652.445, 138.7070
1654.373, 138.9866
1656.302, 139.0793
1658.230, 139.2136
1660.159, 139.3228
1662.087, 139.6198
1664.016, 140.3974
1665.944, 141.0394
1667.872, 141.3259
1669.801, 141.3488
1671.729, 141.1705
1673.658, 140.7671
1675.586, 140.5517
1677.515, 140.5361
1679.443, 140.7114
1681.372, 141.2390
1683.300, 141.7800
1685.229, 142.1158
1687.157, 142.3366
1689.086, 142.6680
1691.014, 143.1660
1692.943, 143.3992
1694.871, 143.2026
1696.799, 142.9462
1698.728, 142.5358
1700.656, 142.2636
1702.585, 142.5934
1704.513, 143.2372
1706.442, 143.1079
1708.370, 141.8324
1710.299, 141.1997
1712.227, 141.6450
1714.156, 142.2614
1716.084, 143.2166
1718.013, 143.8938
1719.941, 143.4704
1721.870, 142.2616
1723.798, 141.8300
1725.726, 142.4250
1727.655, 142.9842
1729.583, 143.5022
1731.512, 143.8763
1733.440, 144.0130
1735.369, 144.0585
1737.297, 143.9615
1739.226, 143.8451
1741.154, 144.6090
1743.083, 146.7879
1745.011, 147.9081
1746.940, 146.7049
1748.868, 145.8542
1750.797, 146.3672
1752.725, 147.3938
1754.653, 148.4168
1756.582, 149.3174
1758.510, 149.2981
1760.439, 147.9541
1762.367, 147.6123
1764.296, 149.4259
1766.224, 150.8465
1768.153, 150.8608
1770.081, 150.3694
1772.010, 149.9418
1773.938, 149.6203
1775.867, 149.6025
1777.795, 149.9439
1779.724, 150.0980
1781.652, 149.7295
1783.580, 149.6956
1785.509, 150.6909
1787.437, 151.6969
1789.366, 151.9090
1791.294, 151.6240
1793.223, 151.4590
1795.151, 151.4147
1797.080, 151.8050
1799.008, 152.9651
1800.937, 153.7460
1802.865, 153.4759
1804.794, 153.1416
1806.722, 153.4490
1808.651, 154.0538
1810.579, 154.3768
1812.507, 154.4693
1814.436, 154.9843
1816.364, 156.1970
1818.293, 156.8437
1820.221, 156.1127
1822.150, 155.4729
1824.078, 155.7943
1826.007, 156.4964
1827.935, 157.1207
1829.864, 157.5981
1831.792, 157.4393
1833.721, 156.4460
1835.649, 156.0581
1837.578, 156.8852
1839.506, 157.6439
1841.434, 157.6074
1843.363, 157.6220
1845.291, 158.6312
1847.220, 160.0806
1849.148, 160.6241
1851.077, 160.1153
1853.005, 159.9656
1854.934, 160.4792
1856.862, 160.8318
1858.791, 161.2109
1860.719, 161.0718
1862.648, 159.3984
1864.576, 157.6224
1866.505, 157.6644
1868.433, 159.2529
1870.361, 160.6083
1872.290, 161.9565
1874.218, 162.5284
1876.147, 161.3048
1878.075, 160.7915
1880.004, 162.3265
1881.932, 163.8186
1883.861, 163.7173
1885.789, 162.7889
1887.718, 162.2163
1889.646, 161.9891
1891.575, 162.4678
1893.503, 163.9438
1895.432, 164.9969
1897.360, 165.1288
1899.288, 165.3054
1901.217, 166.2497
1903.145, 167.0745
1905.074, 167.0016
1907.002, 166.4245
1908.931, 166.0275
1910.859, 165.8256
1912.788, 166.0146
1914.716, 166.7138
1916.645, 167.2331
1918.573, 167.3886
1920.502, 167.3153
1922.430, 166.7697
1924.359, 166.2913
1926.287, 166.3192
1928.215, 166.8121
1930.144, 167.9427
1932.072, 169.7844
1934.001, 170.4232
1935.929, 169.0821
1937.858, 168.1924
1939.786, 168.4046
1941.715, 168.6628
1943.643, 168.4274
1945.572, 168.2009
1947.500, 168.5943
1949.429, 169.2812
1951.357, 169.3598
1953.286, 168.7132
1955.214, 168.6444
1957.143, 169.5757
1959.071, 170.0647
1961.000, 169.3794
1962.928, 169.1046
1964.856, 170.4300
1966.785, 171.6148
1968.713, 171.0597
1970.642, 169.7190
1972.570, 169.3027
1974.499, 169.7130
1976.427, 170.3846
1978.356, 171.3963
1980.284, 171.7327
1982.213, 170.7795
1984.141, 170.1531
1986.070, 170.4512
1987.998, 171.1838
1989.927, 172.4347
1991.855, 173.6823
1993.783, 174.1426
1995.712, 174.0048
1997.640, 174.0814
1999.569, 174.3972
2001.497, 174.8618
2003.426, 175.8530
2005.354, 176.3942
2007.283, 176.0715
2009.211, 175.7070
2011.140, 175.6482
2013.068, 175.6299
2014.997, 175.2970
2016.925, 174.9053
2018.854, 175.0074
2020.782, 175.5926
2022.710, 176.3627
2024.639, 177.4467
2026.567, 177.8504
2028.496, 176.9872
2030.424, 176.6324
2032.353, 178.0268
2034.281, 179.0299
2036.210, 177.7749
2038.138, 176.1089
2040.067, 175.9689
2041.995, 176.8237
2043.924, 177.4222
2045.852, 177.7657
2047.781, 178.2213
2049.709, 178.9059
2051.637, 179.3817
2053.566, 179.6995
2055.494, 179.6814
2057.423, 178.7559
2059.351, 178.1559
2061.280, 178.9639
2063.208, 180.0995
2065.137, 180.4088
2067.065, 180.1322
2068.994, 179.6982
2070.922, 179.1447
2072.851, 179.7348
2074.779, 181.8414
2076.708, 182.6781
2078.636, 181.0725
2080.564, 180.0357
2082.493, 180.9570
2084.421, 182.0549
2086.350, 182.4941
2088.278, 182.6239
2090.207, 182.6650
2092.135, 182.7200
2094.064, 183.1055
2095.992, 182.9103
2097.921, 183.8067
2099.849, 182.8225
2101.778, 182.3284
2103.706, 182.4905
2105.635, 182.7751
2107.563, 183.3751
2109.491, 183.7260
2111.420, 183.4197
2113.348, 183.1081
2115.277, 183.4676
2117.205, 183.9093
2119.134, 183.2442
2121.062, 182.1361
2122.991, 182.7579
2124.919, 184.9945
2126.848, 186.0455
2128.776, 185.3338
2130.705, 185.1049
2132.633, 186.4045
2134.562, 186.9704
2136.490, 185.5282
2138.418, 184.4287
2140.347, 185.1845
2142.275, 186.1926
2144.204, 186.0489
2146.132, 185.4160
2148.061, 185.1624
2149.989, 185.3228
2151.918, 186.2914
2153.846, 188.0088
2155.775, 188.7341
2157.703, 188.1343
2159.632, 187.9665
2161.560, 188.7597
2163.489, 189.3424
2165.417, 189.4340
2167.345, 189.1426
2169.274, 188.0230
2171.202, 187.0826
2173.131, 187.3988
2175.059, 188.1440
2176.988, 188.0742
2178.916, 187.5233
2180.845, 187.5365
2182.773, 188.1082
2184.702, 188.8369
2186.630, 189.7326
2188.559, 190.5381
2190.487, 191.2485
2192.416, 191.6946
2194.344, 191.5742
2196.272, 191.6751
2198.201, 192.8007
2200.129, 193.6015
2202.058, 193.0302
2203.986, 192.0862
2205.915, 191.5606
2207.843, 191.4070
2209.772, 191.7788
2211.700, 191.4450
2213.629, 191.3840
2215.557, 191.4608
2217.486, 191.0307
2219.414, 191.2030
2221.343, 191.1647
2223.271, 190.5838
2225.199, 190.6446
2227.128, 192.0326
2229.056, 193.3382
2230.985, 194.0058
2232.913, 194.4755
2234.842, 194.8691
2236.770, 195.2957
2238.699, 196.1596
2240.627, 196.9313
2242.556, 196.4657
2244.484, 195.2516
2246.413, 194.9695
2248.341, 195.5532
2250.270, 196.4941
2252.198, 197.7984
2254.126, 198.4329
2256.055, 198.1694
2257.983, 197.7215
2259.912, 196.9943
2261.840, 196.5052
2263.769, 196.5619
2265.697, 196.6051
2267.626, 196.4116
2269.554, 196.1544
2271.483, 195.9043
2273.411, 195.7172
2275.340, 195.6809
2277.268, 195.7593
2279.197, 195.8004
2281.125, 195.9205
2283.053, 196.5767
2284.982, 197.6567
2286.910, 198.0987
2288.839, 197.6669
2290.767, 197.9624
2292.696, 199.9670
2294.624, 200.7535
2296.553, 199.1699
2298.481, 198.2238
2300.410, 198.7487
2302.338, 199.2271
2304.267, 199.3022
2306.195, 199.1153
2308.124, 198.4809
2310.052, 197.9281
2311.980, 197.9345
2313.909, 198.1763
2315.837, 198.1786
2317.766, 198.1733
2319.694, 198.7205
2321.623, 199.6607
2323.551, 200.3170
2325.480, 200.6744
2327.408, 201.0947
2329.337, 201.5981
2331.265, 201.7670
2333.194, 201.5656
2335.122, 201.0179
2337.051, 199.9307
2338.979, 199.1576
2340.907, 198.6338
2342.836, 198.9245
2344.764, 201.5548
2346.693, 203.1327
2348.621, 200.9679
2350.550, 198.8399
2352.478, 199.4204
2354.407, 200.6366
2356.335, 200.6139
2358.264, 200.1907
2360.192, 200.4492
2362.121, 201.0750
2364.049, 201.8091
2365.978, 202.4070
2367.906, 201.4363
2369.834, 199.0226
2371.763, 198.0359
2373.691, 198.6260
2375.620, 199.6989
2377.548, 201.3805
2379.477, 202.3666
2381.405, 202.4147
2383.334, 202.0943
2385.262, 201.1744
2387.191, 200.8065
2389.119, 202.2442
2391.048, 202.8741
2392.976, 201.0721
2394.905, 199.5474
2396.833, 199.5048
2398.761, 200.0408
2400.690, 201.1736
2402.618, 202.0102
2404.547, 201.4074
2406.475, 200.5359
2408.404, 200.5409
2410.332, 201.2345
2412.261, 202.9200
2414.189, 204.8512
2416.118, 204.8079
2418.046, 203.1820
2419.975, 202.0171
2421.903, 201.3054
2423.832, 200.8087
2425.760, 200.5264
2427.688, 200.9816
2429.617, 202.3090
2431.545, 203.0582
2433.474, 202.8186
2435.402, 202.8149
2437.331, 203.2841
2439.259, 203.8400
2441.188, 205.1227
2443.116, 205.1410
2445.045, 202.4807
2446.973, 200.7132
2448.902, 201.4287
2450.830, 202.5838
2452.759, 203.5789
2454.687, 204.2158
2456.615, 204.0782
2458.544, 203.8906
2460.472, 204.1586
2462.401, 204.6721
2464.329, 205.7683
2466.258, 206.5538
2468.186, 205.4056
2470.115, 203.6770
2472.043, 203.2888
2473.972, 203.7516
2475.900, 204.1311
2477.829, 204.4880
2479.757, 205.3025
2481.686, 205.2305
2483.614, 205.1439
2485.542, 205.1773
2487.471, 204.4203
2489.399, 204.0606
2491.328, 203.7613
2493.256, 203.4907
2495.185, 203.6560
2497.113, 204.4992
2499.042, 205.0176
2500.970, 204.9582
2502.899, 205.1658
2504.827, 205.8024
2506.756, 206.1839
2508.684, 206.1106
2510.613, 206.1371
2512.541, 206.7468
2514.469, 206.7581
2516.398, 205.2796
2518.326, 204.1116
2520.255, 203.7598
2522.183, 203.8133
2524.112, 204.3972
2526.040, 204.9138
2527.969, 205.0881
2529.897, 205.1325
2531.826, 204.6542
2533.754, 204.7608
2535.683, 207.1657
2537.611, 209.3267
2539.540, 208.8693
2541.468, 207.5750
2543.396, 206.6514
2545.325, 206.1905
2547.253, 206.3978
2549.182, 206.9835
2551.110, 207.9674
2553.039, 208.8302
2554.967, 208.6071
2556.896, 207.8029
2558.824, 207.3076
2560.753, 207.0678
2562.681, 207.0056
2564.610, 207.0401
2566.538, 206.7090
2568.467, 206.2806
2570.395, 206.9233
2572.323, 208.3400
2574.252, 208.9273
2576.180, 208.7353
2578.109, 208.6242
2580.037, 208.5762
2581.966, 208.2998
2583.894, 207.8271
2585.823, 207.3311
2587.751, 206.8322
2589.680, 206.3435
2591.608, 205.6787
2593.537, 206.4088
2595.465, 208.8732
2597.394, 209.7018
2599.322, 208.5738
2601.250, 208.1011
2603.179, 208.6635
2605.107, 208.8398
2607.036, 208.0446
2608.964, 208.2077
2610.893, 208.0529
2612.821, 207.7427
2614.750, 208.5289
2616.678, 207.7404
2618.607, 209.1186
2620.535, 209.9635
2622.464, 209.3347
2624.392, 209.1454
2626.321, 210.5870
2628.249, 210.6395
2630.177, 208.1598
2632.106, 206.7918
2634.034, 207.3924
2635.963, 208.6099
2637.891, 210.8924
2639.820, 212.0164
2641.748, 210.1962
2643.677, 209.3271
2645.605, 210.9839
2647.534, 211.8532
2649.462, 210.7820
2651.391, 209.9714
2653.319, 210.2409
2655.248, 210.5683
2657.176, 210.7683
2659.104, 210.7324
2661.033, 209.9001
2662.961, 209.7915
2664.890, 211.5671
2666.818, 212.4321
2668.747, 210.6228
2670.675, 209.2887
2672.604, 209.9993
2674.532, 210.8087
2676.461, 211.2897
2678.389, 211.3274
2680.318, 210.5731
2682.246, 209.9363
2684.175, 209.6840
2686.103, 209.7101
2688.031, 209.8353
2689.960, 210.4584
2691.888, 212.9064
2693.817, 214.0341
2695.745, 212.0702
2697.674, 210.2409
2699.602, 209.7332
2701.531, 209.6819
2703.459, 209.6458
2705.388, 210.0913
2707.316, 211.7566
2709.245, 213.0120
2711.173, 213.3761
2713.102, 213.1583
2715.030, 211.8835
2716.958, 211.1597
2718.887, 212.0567
2720.815, 212.9442
2722.744, 213.4043
2724.672, 213.5388
2726.601, 213.1082
2728.529, 213.0165
2730.458, 213.9476
2732.386, 214.5141
2734.315, 213.6751
2736.243, 213.2664
2738.172, 214.2875
2740.100, 214.9002
2742.029, 214.4303
2743.957, 214.2882
2745.885, 215.2517
2747.814, 215.8748
2749.742, 215.6560
2751.671, 215.2311
2753.599, 214.3284
2755.528, 214.1628
2757.456, 215.2414
2759.385, 216.0563
2761.313, 216.0165
2763.242, 216.1254
2765.170, 216.6313
2767.099, 217.1834
2769.027, 217.8711
2770.956, 218.1898
2772.884, 218.0213
2774.813, 217.7688
2776.741, 217.4590
2778.669, 217.3164
2780.598, 217.3747
2782.526, 217.7351
2784.455, 217.6664
2786.383, 217.6032
2788.312, 217.8486
2790.240, 217.3681
2792.169, 217.3983
2794.097, 217.5429
2796.026, 217.7656
2797.954, 218.3398
2799.883, 219.2791
2801.811, 219.6053
2803.740, 219.2613
2805.668, 219.1004
2807.596, 219.1506
2809.525, 219.6756
2811.453, 220.5918
2813.382, 220.2521
2815.310, 220.7029
2817.239, 220.7005
2819.167, 220.4202
2821.096, 220.3773
2823.024, 219.3749
2824.953, 218.8110
2826.881, 218.6457
2828.810, 218.9114
2830.738, 219.4038
2832.667, 219.8529
2834.595, 220.0800
2836.523, 219.3535
2838.452, 218.4675
2840.380, 218.6583
2842.309, 219.6767
2844.237, 221.9255
2846.166, 224.0106
2848.094, 223.7486
2850.023, 223.0788
2851.951, 224.5075
2853.880, 225.7189
2855.808, 224.1787
2857.737, 222.8018
2859.665, 224.3530
2861.594, 225.7920
2863.522, 224.6026
2865.450, 223.8697
2867.379, 225.1687
2869.307, 226.6315
2871.236, 227.5223
2873.164, 228.2402
2875.093, 229.3878
2877.021, 229.3464
2878.950, 227.0498
2880.878, 225.9798
2882.807, 227.2833
2884.735, 228.6980
2886.664, 230.3576
2888.592, 230.6983
2890.521, 231.3923
2892.449, 231.6985
2894.377, 231.0752
2896.306, 231.5083
2898.234, 229.9844
2900.163, 229.3842
2902.091, 229.7356
2904.020, 230.0387
2905.948, 230.2798
2907.877, 230.2535
2909.805, 230.0838
2911.734, 230.6224
2913.662, 231.2824
2915.591, 229.6136
2917.519, 227.1623
2919.448, 227.2483
2921.376, 228.4685
2923.304, 229.2402
2925.233, 229.6713
2927.161, 229.7368
2929.090, 229.7376
2931.018, 230.2318
2932.947, 230.3462
2934.875, 229.0617
2936.804, 227.8415
2938.732, 227.1575
2940.661, 227.3514
2942.589, 229.2090
2944.518, 230.2782
2946.446, 228.7735
2948.375, 228.3059
2950.303, 230.8258
2952.231, 231.1353
2954.160, 228.1844
2956.088, 227.0761
2958.017, 228.8657
2959.945, 229.3914
2961.874, 228.2295
2963.802, 227.6475
2965.731, 227.6048
2967.659, 227.7899
2969.588, 228.0598
2971.516, 227.5915
2973.445, 227.6223
2975.373, 226.7110
2977.302, 226.9941
2979.230, 226.6566
2981.158, 226.0351
2983.087, 225.1567
2985.015, 224.6652
2986.944, 225.9680
2988.872, 226.8752
2990.801, 225.7285
2992.729, 224.3780
2994.658, 223.4957
2996.586, 223.1380
2998.515, 223.8579
3000.443, 223.7645
3002.372, 223.8036
3004.300, 224.3921
3006.229, 223.7636
3008.157, 224.9885
3010.085, 224.9368
3012.014, 224.5303
3013.942, 223.8223
3015.871, 222.9514
3017.799, 221.9539
3019.728, 220.8101
3021.656, 219.7966
3023.585, 220.1890
3025.513, 221.2241
3027.442, 221.6745
3029.370, 221.8182
3031.299, 222.1110
3033.227, 222.1058
3035.156, 221.1850
3037.084, 220.2016
3039.012, 219.3998
3040.941, 219.0767
3042.869, 219.8551
3044.798, 220.2440
3046.726, 219.8905
3048.655, 219.4489
3050.583, 218.8547
3052.512, 219.0150
3054.440, 220.1626
3056.369, 220.7161
3058.297, 220.6634
3060.226, 219.8893
3062.154, 218.6900
3064.083, 218.2753
3066.011, 218.4236
3067.939, 218.9946
3069.868, 219.3610
3071.796, 218.3724
3073.725, 217.2708
3075.653, 217.2892
3077.582, 217.5664
3079.510, 217.7647
3081.439, 217.8882
3083.367, 217.8995
3085.296, 217.9450
3087.224, 218.0462
3089.153, 218.1150
3091.081, 218.4311
3093.010, 218.4448
3094.938, 219.2477
3096.866, 219.9989
3098.795, 220.6912
3100.723, 221.1545
3102.652, 221.5745
3104.580, 222.8622
3106.509, 223.9243
3108.437, 221.9827
3110.366, 220.3326
3112.294, 222.6204
3114.223, 224.9903
3116.151, 224.8525
3118.080, 224.7955
3120.008, 225.6351
3121.937, 226.8788
3123.865, 228.7043
3125.793, 229.6211
3127.722, 229.2042
3129.650, 228.6400
3131.579, 228.0155
3133.507, 228.7809
3135.436, 230.5264
3137.364, 232.2652
3139.293, 233.4223
3141.221, 231.5928
3143.150, 230.1602
3145.078, 233.6240
3147.007, 236.9458
3148.935, 235.4912
3150.864, 235.3115
3152.792, 239.0169
3154.720, 241.8005
3156.649, 242.0052
3158.577, 242.4344
3160.506, 243.2240
3162.434, 244.8641
3164.363, 247.2784
3166.291, 249.9762
3168.220, 252.5799
3170.148, 253.6229
3172.077, 254.1345
3174.005, 255.6487
3175.934, 257.4167
3177.862, 259.1678
3179.791, 260.4311
3181.719, 261.0718
3183.647, 261.0001
3185.576, 261.1763
3187.504, 260.6579
3189.433, 259.7740
3191.361, 258.9242
3193.290, 257.4116
3195.218, 255.0722
3197.147, 253.8178
3199.075, 251.7330
3201.004, 249.4941
3202.932, 248.8831
3204.861, 247.9222
3206.789, 244.4433
3208.718, 240.7481
3210.646, 237.2669
3212.574, 235.5213
3214.503, 232.5697
3216.431, 230.6123
3218.360, 229.4653
3220.288, 227.1985
3222.217, 226.5612
3224.145, 227.4500
3226.074, 225.5860
3228.002, 225.7608
3229.931, 226.3303
3231.859, 224.8199
3233.788, 222.9264
3235.716, 221.3491
3237.645, 220.6058
3239.573, 221.4303
3241.501, 221.4009
3243.430, 219.8627
3245.358, 218.7132
3247.287, 218.1503
3249.215, 216.9794
3251.144, 215.4281
3253.072, 214.3224
3255.001, 213.5317
3256.929, 213.3584
3258.858, 212.6687
3260.786, 211.8089
3262.715, 211.6625
3264.643, 209.6029
3266.572, 210.3021
3268.500, 208.6039
3270.428, 206.2321
3272.357, 203.3310
3274.285, 202.7385
3276.214, 203.9076
3278.142, 203.7717
3280.071, 203.3648
3281.999, 204.9981
3283.928, 206.1942
3285.856, 204.0085
3287.785, 201.9662
3289.713, 201.5463
3291.642, 201.0806
3293.570, 200.1088
3295.499, 199.4029
3297.427, 198.9744
3299.355, 198.7647
3301.284, 198.7577
3303.212, 199.1765
3305.141, 199.5961
3307.069, 199.6589
3308.998, 199.1744
3310.926, 197.4678
3312.855, 196.2656
3314.783, 196.2080
3316.712, 195.8467
3318.640, 194.8104
3320.569, 194.6475
3322.497, 194.2440
3324.426, 193.7803
3326.354, 193.8978
3328.282, 193.5693
3330.211, 193.6104
3332.139, 194.3648
3334.068, 194.5575
3335.996, 193.2277
3337.925, 192.2479
3339.853, 192.0068
3341.782, 191.5041
3343.710, 190.7944
3345.639, 191.1038
3347.567, 190.7893
3349.496, 191.4856
3351.424, 190.8931
3353.353, 191.5386
3355.281, 191.6761
3357.209, 189.9441
3359.138, 188.3783
3361.066, 187.2767
3362.995, 186.7433
3364.923, 186.7853
3366.852, 187.1969
3368.780, 187.6890
3370.709, 187.5104
3372.637, 186.9892
3374.566, 186.0169
3376.494, 185.6862
3378.423, 185.2363
3380.351, 184.1564
3382.280, 184.5452
3384.208, 182.7530
3386.136, 182.0714
3388.065, 182.6952
3389.993, 183.8183
3391.922, 183.5520
3393.850, 182.7836
3395.779, 181.9909
3397.707, 181.6591
3399.636, 182.8165
3401.564, 182.6356
3403.493, 180.6991
3405.421, 179.2937
3407.350, 178.5632
3409.278, 178.9890
3411.207, 179.6222
3413.135, 178.3213
3415.063, 177.2955
3416.992, 179.0819
3418.920, 180.1144
3420.849, 179.3182
3422.777, 178.2070
3424.706, 176.8702
3426.634, 176.6015
3428.563, 177.1197
3430.491, 177.8943
3432.420, 178.4171
3434.348, 177.7997
3436.277, 177.1449
3438.205, 177.0192
3440.134, 176.8099
3442.062, 176.3713
3443.990, 176.2615
3445.919, 176.2849
3447.847, 174.5967
3449.776, 172.8631
3451.704, 175.4566
3453.633, 177.3917
3455.561, 173.9141
3457.490, 171.9347
3459.418, 173.4288
3461.347, 174.3914
3463.275, 174.4563
3465.204, 173.7244
3467.132, 172.8057
3469.061, 173.6454
3470.989, 174.4848
3472.917, 173.2335
3474.846, 172.8062
3476.774, 174.1755
3478.703, 175.4925
3480.631, 176.4721
3482.560, 177.5891
3484.488, 178.5720
3486.417, 177.9569
3488.345, 177.7666
3490.274, 180.6368
3492.202, 183.6113
3494.131, 185.8757
3496.059, 187.2670
3497.988, 189.0268
3499.916, 188.9206
3501.844, 190.4474
3503.773, 190.2714
3505.701, 189.0469
3507.630, 187.0638
3509.558, 184.9903
3511.487, 182.9664
3513.415, 181.2750
3515.344, 179.9426
3517.272, 178.2141
3519.201, 176.4879
3521.129, 176.2401
3523.058, 176.1163
3524.986, 175.2090
3526.915, 173.2868
3528.843, 168.9818
3530.771, 166.9291
3532.700, 167.1469
3534.628, 166.3392
3536.557, 165.1056
3538.485, 165.7031
3540.414, 165.8544
3542.342, 162.6562
3544.271, 161.0739
3546.199, 162.9529
3548.128, 163.6773
3550.056, 162.9767
3551.985, 161.5774
3553.913, 160.4310
3555.842, 161.9508
3557.770, 163.3729
3559.698, 162.8863
3561.627, 161.9052
3563.555, 160.5508
3565.484, 160.6656
3567.412, 161.8681
3569.341, 162.3535
3571.269, 161.9918
3573.198, 160.0361
3575.126, 158.5281
3577.055, 158.4999
3578.983, 158.4600
3580.912, 158.2365
3582.840, 157.3809
3584.769, 156.4842
3586.697, 157.3720
3588.625, 158.4195
3590.554, 158.7180
3592.482, 157.7977
3594.411, 155.2650
3596.339, 154.3880
3598.268, 155.0093
3600.196, 155.0523
3602.125, 154.9404
3604.053, 155.3015
3605.982, 155.5515
3607.910, 155.4443
3609.839, 155.2883
3611.767, 155.1228
3613.696, 155.8574
3615.624, 155.1290
3617.552, 155.5435
3619.481, 154.2389
3621.409, 154.3139
3623.338, 154.0202
3625.266, 152.9201
3627.195, 152.4330
3629.123, 152.5119
3631.052, 153.1053
3632.980, 153.4669
3634.909, 153.3309
3636.837, 151.7536
3638.766, 152.7048
3640.694, 152.6632
3642.623, 151.6289
3644.551, 152.0906
3646.479, 152.6379
3648.408, 150.7699
3650.336, 149.3090
3652.265, 149.5630
3654.193, 149.4635
3656.122, 148.6883
3658.050, 148.7419
3659.979, 149.6261
3661.907, 152.4185
3663.836, 153.7507
3665.764, 150.8883
3667.693, 148.9312
3669.621, 148.9507
3671.550, 148.9976
3673.478, 149.2284
3675.406, 149.4181
3677.335, 149.6173
3679.263, 149.6689
3681.192, 149.6535
3683.120, 149.0701
3685.049, 148.0623
3686.977, 148.0158
3688.906, 147.0056
3690.834, 147.0383
3692.763, 146.6033
3694.691, 146.0528
3696.620, 146.1780
3698.548, 145.5304
3700.477, 145.6514
3702.405, 146.2460
3704.333, 146.9690
3706.262, 147.9653
3708.190, 147.8418
3710.119, 146.1470
3712.047, 145.9085
3713.976, 146.7387
3715.904, 146.8054
3717.833, 146.5673
3719.761, 146.2089
3721.690, 146.1939
3723.618, 146.6719
3725.547, 146.0697
3727.475, 144.9041
3729.404, 145.5996
3731.332, 146.2306
3733.260, 144.7414
3735.189, 144.0782
3737.117, 144.7921
3739.046, 143.8743
3740.974, 142.2406
3742.903, 143.4043
3744.831, 144.5523
3746.760, 143.4113
3748.688, 142.2791
3750.617, 141.4841
3752.545, 142.0046
3754.474, 143.0373
3756.402, 142.6027
3758.331, 142.0041
3760.259, 141.9955
3762.188, 142.0119
3764.116, 141.9806
3766.044, 141.9317
3767.973, 141.8069
3769.901, 141.2084
3771.830, 141.0586
3773.758, 140.4644
3775.687, 142.1296
3777.615, 139.4606
3779.544, 138.0063
3781.472, 137.7893
3783.401, 139.7226
3785.329, 140.8217
3787.258, 139.3512
3789.186, 138.3862
3791.115, 138.0627
3793.043, 139.3003
3794.971, 140.3314
3796.900, 139.4704
3798.828, 138.6186
3800.757, 138.1584
3802.685, 138.5138
3804.614, 139.2690
3806.542, 139.6810
3808.471, 139.7103
3810.399, 139.3010
3812.328, 138.7075
3814.256, 137.9662
3816.185, 136.9289
3818.113, 136.0313
3820.042, 135.8653
3821.970, 135.9959
3823.898, 136.2936
3825.827, 137.0509
3827.755, 137.8766
3829.684, 136.4810
3831.612, 135.1620
3833.541, 136.1973
3835.469, 136.7319
3837.398, 136.3728
3839.326, 135.4989
3841.255, 134.6893
3843.183, 135.1560
3845.112, 135.6379
3847.040, 135.3125
3848.969, 136.0239
3850.897, 137.4066
3852.825, 137.4488
3854.754, 136.4232
3856.682, 133.7792
3858.611, 132.8933
3860.539, 134.6053
3862.468, 135.0274
3864.396, 134.6123
3866.325, 133.9015
3868.253, 133.7482
3870.182, 133.3191
3872.110, 134.4824
3874.039, 132.8034
3875.967, 132.5219
3877.896, 132.3838
3879.824, 130.7914
3881.752, 130.2200
3883.681, 131.4797
3885.609, 131.1736
3887.538, 130.6241
3889.466, 132.7376
3891.395, 133.3784
3893.323, 130.8449
3895.252, 131.3216
3897.180, 133.7636
3899.109, 132.1870
3901.037, 130.3991
3902.966, 131.7480
3904.894, 131.6188
3906.823, 129.8977
3908.751, 130.0970
3910.679, 130.9848
3912.608, 131.1861
3914.536, 130.6684
3916.465, 130.9806
3918.393, 129.6158
3920.322, 130.6529
3922.250, 129.5831
3924.179, 129.3634
3926.107, 129.4007
3928.036, 131.3223
3929.964, 129.1199
3931.893, 129.0592
3933.821, 129.2305
3935.750, 127.6291
3937.678, 127.1164
3939.606, 128.0116
3941.535, 128.4046
3943.463, 128.3058
3945.392, 128.9203
3947.320, 126.7291
3949.249, 128.7702
3951.177, 128.1012
3953.106, 126.3679
3955.034, 126.4284
3956.963, 126.8597
3958.891, 127.5384
3960.820, 127.1837
3962.748, 126.1980
3964.677, 125.5177
3966.605, 124.8919
3968.533, 124.0238
3970.462, 124.1018
3972.390, 124.9599
3974.319, 124.9654
3976.247, 124.7047
3978.176, 125.0805
3980.104, 124.6687
3982.033, 124.9259
3983.961, 123.9876
3985.890, 124.9904
3987.818, 124.8802
3989.747, 124.3293
3991.675, 123.5777
3993.604, 124.6636
3995.532, 125.7845
3997.460, 123.2005
3999.389, 121.5106
4001.317, 122.5118
4003.246, 122.5861
4005.174, 122.4211
4007.103, 121.3933
4009.031, 120.6429
4010.960, 121.1733
4012.888, 121.6532
4014.817, 122.4398
4016.745, 121.3962
4018.674, 120.3257
4020.602, 120.4679
4022.531, 120.2454
4024.459, 120.2496
4026.387, 119.5033
4028.316, 118.8132
4030.244, 119.4539
4032.173, 120.4335
4034.101, 121.8885
4036.030, 121.4422
4037.958, 119.5327
4039.887, 118.4201
4041.815, 118.6768
4043.744, 119.1652
4045.672, 118.6004
4047.601, 117.8157
4049.529, 118.0822
4051.458, 118.0575
4053.386, 116.6227
4055.314, 117.2438
4057.243, 118.3946
4059.171, 117.4876
4061.100, 117.6328
4063.028, 117.5616
4064.957, 116.3737
4066.885, 116.0866
4068.814, 116.2297
4070.742, 116.0840
4072.671, 115.9960
4074.599, 115.6548
4076.528, 115.3355
4078.456, 115.0471
4080.385, 114.6817
4082.313, 114.4208
4084.241, 114.5190
4086.170, 114.4364
4088.098, 115.2223
4090.027, 115.4589
4091.955, 113.8660
4093.884, 112.9047
4095.812, 113.4754
4097.741, 114.9030
4099.669, 115.8885
4101.598, 114.5060
4103.526, 112.8628
4105.455, 114.3519
4107.383, 116.1481
4109.312, 114.6912
4111.240, 112.7590
4113.168, 111.6652
4115.097, 111.3679
4117.025, 112.2178
4118.954, 113.4288
4120.882, 112.9788
4122.811, 113.5118
4124.739, 112.8975
4126.668, 113.0563
4128.596, 112.5071
4130.525, 111.4626
4132.453, 110.4171
4134.382, 110.6427
4136.310, 111.2690
4138.239, 111.4852
4140.167, 110.2472
4142.096, 109.1672
4144.024, 109.4769
4145.953, 109.7542
4147.881, 110.0361
4149.810, 110.9342
4151.738, 111.4706
4153.667, 111.5322
4155.595, 111.8829
4157.523, 111.0466
4159.452, 111.4675
4161.380, 110.1007
4163.309, 108.7533
4165.237, 108.4493
4167.166, 107.5447
4169.094, 107.0908
4171.022, 106.8635
4172.951, 106.5973
4174.879, 106.7667
4176.808, 106.9944
4178.736, 107.7850
4180.665, 108.8139
4182.593, 109.1131
4184.522, 108.3465
4186.450, 106.8564
4188.379, 107.1076
4190.307, 108.0287
4192.236, 108.9454
4194.164, 108.5110
4196.093, 106.3908
4198.021, 106.0168
4199.950, 106.4410
4201.878, 106.2583
4203.807, 106.3549
4205.735, 106.7124
4207.664, 106.5828
4209.592, 105.7729
4211.521, 105.8815
4213.449, 105.5688
4215.377, 105.3269
4217.306, 105.5585
4219.234, 105.3153
4221.163, 105.8645
4223.091, 104.9480
4225.020, 102.9477
4226.948, 102.9992
4228.876, 103.7154
4230.805, 104.6254
4232.733, 103.6741
4234.662, 101.6674
4236.590, 101.3833
4238.519, 101.6783
4240.447, 102.1527
4242.376, 102.9219
4244.304, 103.7533
4246.233, 104.7384
4248.161, 104.0222
4250.090, 100.7952
4252.018, 100.3288
4253.947, 101.3470
4255.875, 102.5407
4257.804, 103.0356
4259.732, 102.6593
4261.661, 102.8004
4263.589, 102.2172
4265.518, 98.81079
4267.446, 98.10826
4269.375, 100.2310
4271.303, 101.6755
4273.231, 102.0644
4275.160, 100.8820
4277.088, 99.65714
4279.017, 98.78975
4280.945, 98.36834
4282.874, 97.93820
4284.802, 98.24525
4286.730, 97.98970
4288.659, 98.52327
4290.587, 99.09973
4292.516, 99.23874
4294.444, 98.83887
4296.373, 98.92281
4298.301, 99.37989
4300.230, 99.09238
4302.158, 100.2888
4304.087, 98.97387
4306.015, 98.15945
4307.944, 97.93098
4309.872, 98.51702
4311.801, 97.95437
4313.729, 97.02346
4315.658, 98.25077
4317.586, 98.51763
4319.515, 96.99923
4321.443, 96.31496
4323.372, 96.59725
4325.300, 98.54990
4327.229, 98.88210
4329.157, 97.55839
4331.085, 96.82894
4333.014, 96.59335
4334.942, 96.86423
4336.871, 96.55318
4338.799, 96.13170
4340.728, 97.09102
4342.656, 97.98532
4344.584, 98.37104
4346.513, 98.42760
4348.441, 98.40054
4350.370, 97.13802
4352.298, 97.35606
4354.227, 95.10044
4356.155, 93.76971
4358.084, 93.62163
4360.012, 95.07664
4361.941, 96.27427
4363.869, 96.58573
4365.798, 96.87052
4367.726, 96.61027
4369.655, 95.92808
4371.583, 95.33782
4373.512, 93.86610
4375.440, 93.16641
4377.369, 93.35619
4379.297, 93.97606
4381.226, 93.45351
4383.154, 92.87163
4385.083, 92.60641
4387.011, 92.21847
4388.939, 92.39775
4390.868, 92.21535
4392.796, 92.33179
4394.725, 92.26627
4396.653, 92.26507
4398.582, 92.34415
4400.510, 92.21700
4402.438, 92.34421
4404.367, 92.03304
4406.295, 92.36499
4408.224, 92.30846
4410.152, 91.99268
4412.081, 92.33633
4414.009, 92.81278
4415.938, 93.28691
4417.866, 92.01441
4419.795, 90.46162
4421.723, 91.90895
4423.652, 92.07563
4425.580, 90.31218
4427.509, 90.31812
4429.437, 90.45642
4431.366, 89.37749
4433.294, 88.83226
4435.223, 88.91668
4437.151, 88.64273
4439.080, 90.47237
4441.008, 89.14690
4442.937, 89.71815
4444.865, 90.34978
4446.793, 89.87041
4448.722, 89.81136
4450.650, 89.85104
4452.579, 89.22781
4454.507, 88.10206
4456.436, 88.44553
4458.364, 87.61769
4460.292, 88.57632
4462.221, 88.41599
4464.149, 88.49055
4466.078, 88.53030
4468.006, 88.11742
4469.935, 86.71931
4471.863, 84.73987
4473.792, 86.65051
4475.720, 89.02507
4477.649, 90.42319
4479.577, 89.17781
4481.506, 86.99928
4483.434, 85.83173
4485.363, 84.58247
4487.291, 83.77342
4489.220, 83.92336
4491.148, 83.96344
4493.077, 85.04015
4495.005, 84.78184
4496.934, 85.68921
4498.862, 85.09238
4500.791, 85.50820
4502.719, 86.39832
4504.647, 85.44955
4506.576, 85.19648
4508.504, 86.20710
4510.433, 85.83810
4512.361, 85.60981
4514.290, 86.52044
4516.218, 86.54033
4518.146, 86.08938
4520.075, 85.76488
4522.003, 86.26476
4523.932, 85.69858
4525.860, 86.34006
4527.789, 85.13227
4529.717, 84.07154
4531.646, 83.57593
4533.574, 83.30942
4535.503, 83.09579
4537.431, 82.02870
4539.360, 80.97397
4541.288, 82.44844
4543.217, 82.86274
4545.145, 81.99825
4547.074, 82.67384
4549.002, 83.73820
4550.931, 84.76431
4552.859, 83.84887
4554.788, 82.51137
4556.716, 82.35967
4558.645, 82.98006
4560.573, 83.76003
4562.501, 83.41335
4564.430, 81.97661
4566.358, 80.08712
4568.287, 82.65904
4570.215, 84.32240
4572.144, 82.30333
4574.072, 81.96746
4576.000, 82.31401
4577.929, 82.06236
4579.857, 81.89999
4581.786, 81.75848
4583.714, 81.37713
4585.643, 80.86744
4587.571, 80.34208
4589.500, 80.33350
4591.428, 80.47121
4593.357, 80.59510
4595.285, 80.43781
4597.214, 80.26973
4599.142, 80.01901
4601.071, 80.14847
4602.999, 79.71245
4604.928, 80.72522
4606.856, 81.62623
4608.785, 81.87249
4610.713, 79.54843
4612.642, 78.57751
4614.570, 79.80860
4616.499, 79.56410
4618.427, 78.97896
4620.355, 78.95965
4622.284, 77.60825
4624.212, 76.46602
4626.141, 77.35913
4628.069, 77.52473
4629.998, 77.34163
4631.926, 78.34446
4633.854, 78.82680
4635.783, 78.60088
4637.711, 78.14381
4639.640, 77.89381
4641.568, 78.01236
4643.497, 77.83886
4645.425, 77.33247
4647.354, 76.44372
4649.282, 75.93748
4651.211, 76.07322
4653.139, 77.47080
4655.068, 77.72740
4656.996, 77.35681
4658.925, 77.81814
4660.853, 77.22676
4662.782, 75.79241
4664.710, 74.85698
4666.639, 74.61990
4668.567, 75.05380
4670.496, 76.47491
4672.424, 76.56904
4674.353, 73.75350
4676.281, 76.58653
4678.209, 78.43835
4680.138, 74.39117
4682.066, 73.69604
4683.995, 74.93057
4685.923, 76.56470
4687.852, 75.92459
4689.780, 74.13313
4691.708, 73.38119
4693.637, 73.66521
4695.565, 74.65427
4697.494, 75.74053
4699.422, 75.55221
4701.351, 74.23898
4703.279, 73.81773
4705.208, 74.01833
4707.136, 74.73003
4709.065, 74.14814
4710.993, 74.26324
4712.922, 73.69057
4714.850, 73.32137
4716.779, 73.32387
4718.707, 72.00957
4720.636, 73.39326
4722.564, 75.22527
4724.493, 74.36855
4726.421, 73.69289
4728.350, 72.99960
4730.278, 72.83128
4732.207, 72.41140
4734.135, 72.33725
4736.063, 72.49732
4737.992, 71.42522
4739.920, 72.42147
4741.849, 71.39489
4743.777, 72.52885
4745.706, 72.40726
4747.634, 71.97613
4749.563, 71.40038
4751.491, 70.70740
4753.419, 71.99991
4755.348, 72.77663
4757.276, 71.81948
4759.205, 72.62581
4761.133, 73.21899
4763.062, 71.67788
4764.990, 70.99403
4766.919, 70.80464
4768.847, 70.76791
4770.776, 70.95319
4772.704, 70.60750
4774.633, 70.36275
4776.561, 70.00710
4778.490, 69.41587
4780.418, 69.03559
4782.347, 68.34366
4784.275, 67.88754
4786.204, 68.39226
4788.132, 69.86023
4790.061, 71.16712
4791.989, 68.65587
4793.917, 67.25014
4795.846, 67.41463
4797.774, 67.69800
4799.703, 67.63902
4801.631, 67.46184
4803.560, 67.67458
4805.488, 67.34758
4807.417, 67.96622
4809.345, 67.30997
4811.273, 67.63494
4813.202, 68.61573
4815.130, 67.43516
4817.059, 66.66126
4818.987, 67.31649
4820.916, 67.50463
4822.844, 67.45956
4824.773, 67.36512
4826.701, 67.60387
4828.630, 67.51581
4830.558, 67.56395
4832.487, 67.51244
4834.415, 67.52843
4836.344, 67.43515
4838.272, 67.27149
4840.201, 68.27796
4842.129, 67.20907
4844.058, 67.74332
4845.986, 67.99984
4847.915, 66.74013
4849.843, 65.14255
4851.771, 64.52617
4853.700, 66.00390
4855.628, 67.68117
4857.557, 68.12304
4859.485, 66.25648
4861.414, 64.06506
4863.342, 62.97898
4865.271, 64.27664
4867.199, 65.28149
4869.127, 65.77029
4871.056, 65.60757
4872.984, 65.85939
4874.913, 65.86567
4876.841, 64.88536
4878.770, 65.11550
4880.698, 65.13464
4882.627, 63.34405
4884.555, 64.93618
4886.484, 66.75451
4888.412, 65.93421
4890.341, 64.98952
4892.269, 64.41365
4894.198, 64.65536
4896.126, 63.42097
4898.055, 62.67838
4899.983, 64.02999
4901.912, 65.36466
4903.840, 65.82633
4905.769, 64.53441
4907.697, 64.15224
4909.625, 63.50122
4911.554, 63.26385
4913.482, 63.08029
4915.411, 63.43927
4917.339, 63.06535
4919.268, 63.56373
4921.196, 63.83237
4923.125, 63.27089
4925.053, 61.95374
4926.981, 61.17485
4928.910, 61.66868
4930.838, 61.80200
4932.767, 62.14573
4934.695, 61.99397
4936.624, 62.14959
4938.552, 61.40731
4940.481, 61.17509
4942.409, 60.61090
4944.338, 60.45845
4946.266, 60.87973
4948.195, 60.79004
4950.123, 60.42611
4952.052, 60.21018
4953.980, 60.31215
4955.909, 59.92838
4957.837, 60.98842
4959.766, 60.16415
4961.694, 61.33802
4963.623, 63.09927
4965.551, 60.40850
4967.479, 59.35473
4969.408, 60.20669
4971.336, 61.52033
4973.265, 61.27647
4975.193, 61.64056
4977.122, 61.51737
4979.050, 60.98566
4980.979, 59.54868
4982.907, 58.47720
4984.835, 58.08014
4986.764, 58.22852
4988.692, 58.82254
4990.621, 59.02247
4992.549, 59.03097
4994.478, 58.95151
4996.406, 59.93919
4998.335, 60.67178
5000.263, 60.37188
5002.192, 60.76282
5004.120, 60.54703
5006.049, 60.33154
5007.977, 59.91584
5009.906, 59.26296
5011.834, 58.82303
5013.763, 59.24362
5015.691, 59.21543
5017.620, 58.45321
5019.548, 56.60316
5021.477, 56.18140
5023.405, 57.14437
5025.333, 58.84352
5027.262, 57.99826
5029.190, 56.59815
5031.119, 59.08334
5033.047, 57.54982
5034.976, 55.32483
5036.904, 57.12732
5038.833, 58.97010
5040.761, 59.39249
5042.689, 59.90300
5044.618, 58.59615
5046.546, 59.54224
5048.475, 58.72453
5050.403, 58.44624
5052.332, 58.72819
5054.260, 59.27374
5056.189, 58.39058
5058.117, 58.64843
5060.046, 58.75890
5061.974, 57.89374
5063.903, 58.76866
5065.831, 57.80705
5067.760, 56.95579
5069.688, 56.03506
5071.617, 55.49679
5073.545, 55.91885
5075.474, 55.77915
5077.402, 54.60206
5079.331, 55.09071
5081.259, 54.07494
5083.188, 55.57055
5085.116, 54.33797
5087.044, 55.51418
5088.973, 55.77726
5090.901, 54.69462
5092.830, 53.54797
5094.758, 54.95980
5096.687, 56.78175
5098.615, 54.18550
5100.543, 52.91871
5102.472, 53.65797
5104.400, 56.80885
5106.329, 57.28033
5108.257, 56.47774
5110.186, 55.37160
5112.114, 54.51926
5114.043, 54.91188
5115.971, 56.07390
5117.900, 53.63831
5119.828, 53.76960
5121.757, 55.82120
5123.685, 54.99831
5125.614, 54.41655
5127.542, 54.40865
5129.471, 54.92736
5131.399, 55.55327
5133.328, 55.51725
5135.256, 54.33163
5137.185, 53.55589
5139.113, 53.64346
5141.042, 54.47978
5142.970, 54.72045
5144.898, 54.20077
5146.827, 53.44135
5148.755, 53.56267
5150.684, 53.77053
5152.612, 54.12975
5154.541, 54.97100
5156.469, 54.44375
5158.397, 54.19296
5160.326, 54.85816
5162.254, 53.02847
5164.183, 52.04985
5166.111, 52.47047
5168.040, 51.93341
5169.968, 52.90285
5171.897, 54.44757
5173.825, 54.74243
5175.754, 52.97708
5177.682, 50.56372
5179.611, 48.63485
5181.539, 49.29063
5183.468, 50.55339
5185.396, 51.50093
5187.325, 51.82632
5189.253, 52.58995
5191.182, 52.93569
5193.110, 53.04676
5195.039, 53.53706
5196.967, 53.01608
5198.896, 53.23669
5200.824, 52.41650
5202.752, 51.93550
5204.681, 52.12299
5206.609, 51.49633
5208.538, 51.08471
5210.466, 51.12337
5212.395, 51.15077
5214.323, 51.86557
5216.251, 51.81195
5218.180, 52.45296
5220.108, 52.85035
5222.037, 52.29366
5223.965, 50.88282
5225.894, 49.59064
5227.822, 50.20242
5229.751, 51.42159
5231.679, 50.37664
5233.608, 51.11177
5235.536, 51.80777
5237.465, 51.20102
5239.393, 50.93098
5241.322, 51.19408
5243.250, 51.57554
5245.179, 50.44357
5247.107, 50.60479
5249.036, 50.94014
5250.964, 49.57335
5252.893, 48.87645
5254.821, 49.11590
5256.750, 49.96545
5258.678, 48.53161
5260.606, 49.23531
5262.535, 51.18521
5264.463, 50.49220
5266.392, 52.31437
5268.320, 53.51350
5270.249, 51.67852
5272.177, 52.87984
5274.105, 49.33525
5276.034, 52.30253
5277.962, 50.92637
5279.891, 49.84796
5281.819, 49.63963
5283.748, 48.62187
5285.676, 49.05359
5287.605, 47.81586
5289.533, 48.16791
5291.462, 48.64024
5293.390, 48.09636
5295.319, 47.67947
5297.247, 49.25507
5299.176, 50.59096
5301.104, 50.67333
5303.033, 49.38739
5304.961, 49.84140
5306.890, 48.82159
5308.818, 47.89475
5310.747, 50.91509
5312.675, 49.77526
5314.604, 47.26700
5316.532, 45.68944
5318.460, 47.56348
5320.389, 49.19292
5322.317, 49.36182
5324.246, 47.33953
5326.174, 46.86251
5328.103, 47.01261
5330.031, 47.12439
5331.959, 49.00605
5333.888, 49.79385
5335.816, 49.15574
5337.745, 49.66822
5339.673, 48.04393
5341.602, 48.76795
5343.530, 47.79694
5345.459, 47.14774
5347.387, 47.15316
5349.316, 47.72582
5351.244, 48.93356
5353.173, 48.27072
5355.101, 47.29115
5357.030, 47.07107
5358.958, 48.65599
5360.887, 49.35814
5362.815, 49.15612
5364.744, 48.93836
5366.672, 48.06871
5368.601, 47.69615
5370.529, 48.16989
5372.458, 48.21497
5374.386, 46.63210
5376.314, 45.62206
5378.243, 45.43881
5380.171, 47.70241
5382.100, 45.81313
5384.028, 44.88261
5385.957, 47.26349
5387.885, 46.57780
5389.813, 45.35017
5391.742, 46.73639
5393.670, 46.20179
5395.599, 46.33748
5397.527, 47.13634
5399.456, 46.37548
5401.384, 45.32354
5403.313, 45.44228
5405.241, 45.34504
5407.170, 46.24564
5409.098, 45.82846
5411.027, 45.91198
5412.955, 45.62470
5414.884, 44.74754
5416.812, 44.44192
5418.741, 45.23479
5420.669, 44.67133
5422.598, 44.86251
5424.526, 44.93652
5426.455, 45.13038
5428.383, 45.84314
5430.312, 46.70125
5432.240, 47.12159
5434.168, 45.99519
5436.097, 44.10024
5438.025, 43.76080
5439.954, 45.35002
5441.882, 42.99628
5443.811, 45.34790
5445.739, 47.72675
5447.667, 44.11814
5449.596, 43.07107
5451.524, 43.94125
5453.453, 45.26952
5455.381, 44.70217
5457.310, 43.71395
5459.238, 42.93268
5461.167, 42.71190
5463.095, 42.70433
5465.024, 42.87762
5466.952, 43.81351
5468.881, 43.95974
5470.809, 45.30006
5472.738, 46.13621
5474.666, 45.51827
5476.595, 45.96544
5478.523, 45.99046
5480.452, 45.17552
5482.380, 45.40741
5484.309, 44.68627
5486.237, 44.60892
5488.166, 44.30951
5490.094, 44.51641
5492.022, 44.07903
5493.951, 44.32272
5495.879, 45.15575
5497.808, 45.58155
5499.736, 45.43757
##END=



