##NAMES=Charoite
##RRUFFID=R060557
##IDEAL CHEMISTRY=(K,Sr,Ba,Mn)_15-16_(Ca,Na)_32_[Si_70_(O,OH)_180_](OH,F)_4_·nH_2_O
##LOCALITY=Russia
##OWNER=RRUFF
##SOURCE=Gemological Institute of America
##DESCRIPTION=Purple massive
##STATUS=The identification of this mineral has been confirmed by X-ray diffraction and chemical analysis
##URL=https://www.rruff.net/odr/rruff_sample/R060557
##MEASURED CHEMISTRY=(K_15.13_Ba_1.37_Sr_0.57_Mn_0.20_Fe_0.02_)(Ca_26.56_Na_2.60_)(Si_69.97_Al_0.03_)(O_179.73_F_0.27_)F_4.05_·16H_2_O ; lighter phase : K_1.00_Al_1.00_Si_3.00_O_8_ darker phase
##DIFFRACTION SAMPLE DESCRIPTION=Powder
##CELL PARAMETERS=a: 31.971 b: 19.668 c: 7.1529 alpha: 90 beta: 90 gamma: 90 volume: 4490 crystal system: monoclinic
##FILETYPE=Raman RAW
##RAMAN WAVELENGTH=780

7.931860e+001, 0.000000e+000
8.124707e+001, 3.405835e+002
8.317554e+001, 3.090698e+002
8.510400e+001, 3.181687e+002
8.703247e+001, 3.718763e+002
8.896094e+001, 4.313487e+002
9.088940e+001, 4.989756e+002
9.281787e+001, 5.668831e+002
9.474634e+001, 6.177967e+002
9.667480e+001, 6.185369e+002
9.860327e+001, 6.184198e+002
1.005317e+002, 6.230003e+002
1.024602e+002, 6.220225e+002
1.043887e+002, 6.178787e+002
1.063171e+002, 6.078522e+002
1.082456e+002, 5.837488e+002
1.101741e+002, 5.585634e+002
1.121025e+002, 5.406156e+002
1.140310e+002, 5.292175e+002
1.159595e+002, 5.298802e+002
1.178879e+002, 5.433359e+002
1.198164e+002, 5.631520e+002
1.217449e+002, 5.967606e+002
1.236733e+002, 6.278358e+002
1.256018e+002, 6.422117e+002
1.275303e+002, 6.391054e+002
1.294587e+002, 6.268704e+002
1.313872e+002, 6.026136e+002
1.333157e+002, 5.778376e+002
1.352441e+002, 5.541727e+002
1.371726e+002, 5.334071e+002
1.391011e+002, 5.173966e+002
1.410295e+002, 5.061314e+002
1.429580e+002, 4.976252e+002
1.448865e+002, 4.926997e+002
1.468149e+002, 4.874076e+002
1.487434e+002, 4.805063e+002
1.506719e+002, 4.728388e+002
1.526003e+002, 4.641247e+002
1.545288e+002, 4.549860e+002
1.564573e+002, 4.478384e+002
1.583857e+002, 4.428856e+002
1.603142e+002, 4.385342e+002
1.622427e+002, 4.338275e+002
1.641711e+002, 4.302459e+002
1.660996e+002, 4.284078e+002
1.680281e+002, 4.283412e+002
1.699565e+002, 4.300312e+002
1.718850e+002, 4.334810e+002
1.738135e+002, 4.377568e+002
1.757419e+002, 4.435153e+002
1.776704e+002, 4.491058e+002
1.795989e+002, 4.538535e+002
1.815273e+002, 4.582174e+002
1.834558e+002, 4.629702e+002
1.853843e+002, 4.680493e+002
1.873127e+002, 4.726859e+002
1.892412e+002, 4.768342e+002
1.911697e+002, 4.803663e+002
1.930981e+002, 4.845773e+002
1.950266e+002, 4.871874e+002
1.969551e+002, 4.857021e+002
1.988835e+002, 4.807770e+002
2.008120e+002, 4.732624e+002
2.027405e+002, 4.610898e+002
2.046689e+002, 4.514656e+002
2.065974e+002, 4.458478e+002
2.085259e+002, 4.423501e+002
2.104543e+002, 4.409440e+002
2.123828e+002, 4.405739e+002
2.143113e+002, 4.393441e+002
2.162397e+002, 4.369304e+002
2.181682e+002, 4.350202e+002
2.200967e+002, 4.334268e+002
2.220251e+002, 4.327100e+002
2.239536e+002, 4.326221e+002
2.258821e+002, 4.339204e+002
2.278105e+002, 4.369615e+002
2.297390e+002, 4.417654e+002
2.316675e+002, 4.487216e+002
2.335959e+002, 4.584146e+002
2.355244e+002, 4.695961e+002
2.374529e+002, 4.820438e+002
2.393813e+002, 4.961185e+002
2.413098e+002, 5.138273e+002
2.432383e+002, 5.328618e+002
2.451667e+002, 5.484528e+002
2.470952e+002, 5.608927e+002
2.490237e+002, 5.682857e+002
2.509521e+002, 5.689041e+002
2.528806e+002, 5.676573e+002
2.548091e+002, 5.654213e+002
2.567375e+002, 5.625764e+002
2.586660e+002, 5.600157e+002
2.605945e+002, 5.575196e+002
2.625229e+002, 5.520927e+002
2.644514e+002, 5.433790e+002
2.663799e+002, 5.325308e+002
2.683083e+002, 5.177188e+002
2.702368e+002, 5.035546e+002
2.721653e+002, 4.908904e+002
2.740938e+002, 4.811300e+002
2.760222e+002, 4.771230e+002
2.779507e+002, 4.794700e+002
2.798792e+002, 4.829957e+002
2.818076e+002, 4.893964e+002
2.837361e+002, 4.922809e+002
2.856646e+002, 4.893547e+002
2.875930e+002, 4.826484e+002
2.895215e+002, 4.719407e+002
2.914500e+002, 4.588531e+002
2.933784e+002, 4.471091e+002
2.953069e+002, 4.367363e+002
2.972354e+002, 4.278224e+002
2.991638e+002, 4.204661e+002
3.010923e+002, 4.143617e+002
3.030208e+002, 4.094004e+002
3.049492e+002, 4.056823e+002
3.068777e+002, 4.033036e+002
3.088062e+002, 4.022861e+002
3.107346e+002, 4.030262e+002
3.126631e+002, 4.054967e+002
3.145916e+002, 4.080627e+002
3.165200e+002, 4.104015e+002
3.184485e+002, 4.129938e+002
3.203770e+002, 4.168670e+002
3.223054e+002, 4.202219e+002
3.242339e+002, 4.216447e+002
3.261624e+002, 4.213089e+002
3.280908e+002, 4.197689e+002
3.300193e+002, 4.170243e+002
3.319477e+002, 4.142832e+002
3.338762e+002, 4.119969e+002
3.358047e+002, 4.093050e+002
3.377331e+002, 4.056311e+002
3.396616e+002, 4.017916e+002
3.415901e+002, 3.986247e+002
3.435185e+002, 3.957821e+002
3.454470e+002, 3.926294e+002
3.473755e+002, 3.891922e+002
3.493039e+002, 3.842360e+002
3.512324e+002, 3.769753e+002
3.531609e+002, 3.690387e+002
3.550893e+002, 3.596702e+002
3.570178e+002, 3.509150e+002
3.589463e+002, 3.439220e+002
3.608747e+002, 3.388335e+002
3.628032e+002, 3.358868e+002
3.647317e+002, 3.350770e+002
3.666601e+002, 3.349999e+002
3.685886e+002, 3.367527e+002
3.705171e+002, 3.369755e+002
3.724455e+002, 3.339215e+002
3.743740e+002, 3.305961e+002
3.763025e+002, 3.282347e+002
3.782309e+002, 3.270150e+002
3.801594e+002, 3.270152e+002
3.820879e+002, 3.282364e+002
3.840163e+002, 3.307505e+002
3.859448e+002, 3.353662e+002
3.878733e+002, 3.397233e+002
3.898017e+002, 3.438010e+002
3.917302e+002, 3.474235e+002
3.936587e+002, 3.503185e+002
3.955871e+002, 3.528862e+002
3.975156e+002, 3.556709e+002
3.994441e+002, 3.584772e+002
4.013725e+002, 3.603870e+002
4.033010e+002, 3.607448e+002
4.052295e+002, 3.619828e+002
4.071579e+002, 3.646817e+002
4.090864e+002, 3.672970e+002
4.110149e+002, 3.696332e+002
4.129433e+002, 3.715941e+002
4.148718e+002, 3.731667e+002
4.168003e+002, 3.743213e+002
4.187287e+002, 3.745950e+002
4.206572e+002, 3.738508e+002
4.225857e+002, 3.749135e+002
4.245141e+002, 3.779213e+002
4.264426e+002, 3.822355e+002
4.283711e+002, 3.872886e+002
4.302995e+002, 3.945397e+002
4.322280e+002, 4.052171e+002
4.341565e+002, 4.179680e+002
4.360849e+002, 4.322954e+002
4.380134e+002, 4.477755e+002
4.399419e+002, 4.629783e+002
4.418703e+002, 4.776785e+002
4.437988e+002, 4.945457e+002
4.457273e+002, 5.157881e+002
4.476557e+002, 5.323293e+002
4.495842e+002, 5.441512e+002
4.515127e+002, 5.468730e+002
4.534411e+002, 5.339016e+002
4.553696e+002, 5.153156e+002
4.572981e+002, 4.985648e+002
4.592265e+002, 4.847875e+002
4.611550e+002, 4.797525e+002
4.630835e+002, 4.835735e+002
4.650119e+002, 4.897468e+002
4.669404e+002, 4.992607e+002
4.688689e+002, 5.060676e+002
4.707973e+002, 5.085328e+002
4.727258e+002, 5.073834e+002
4.746543e+002, 5.021083e+002
4.765827e+002, 4.942230e+002
4.785112e+002, 4.847907e+002
4.804397e+002, 4.741017e+002
4.823681e+002, 4.624946e+002
4.842966e+002, 4.500834e+002
4.862251e+002, 4.403723e+002
4.881535e+002, 4.333277e+002
4.900820e+002, 4.303952e+002
4.920105e+002, 4.301888e+002
4.939389e+002, 4.368478e+002
4.958674e+002, 4.525444e+002
4.977959e+002, 4.751583e+002
4.997243e+002, 5.038247e+002
5.016528e+002, 5.377814e+002
5.035813e+002, 5.783956e+002
5.055097e+002, 6.236841e+002
5.074382e+002, 6.616029e+002
5.093667e+002, 6.953137e+002
5.112951e+002, 7.029115e+002
5.132236e+002, 6.691994e+002
5.151521e+002, 6.233709e+002
5.170806e+002, 5.619606e+002
5.190090e+002, 5.014076e+002
5.209375e+002, 4.506205e+002
5.228660e+002, 4.087274e+002
5.247944e+002, 3.750190e+002
5.267229e+002, 3.486049e+002
5.286514e+002, 3.275498e+002
5.305798e+002, 3.120195e+002
5.325083e+002, 2.995926e+002
5.344368e+002, 2.909872e+002
5.363652e+002, 2.840850e+002
5.382937e+002, 2.788918e+002
5.402222e+002, 2.750539e+002
5.421506e+002, 2.727280e+002
5.440791e+002, 2.714159e+002
5.460076e+002, 2.711055e+002
5.479360e+002, 2.713008e+002
5.498645e+002, 2.713637e+002
5.517930e+002, 2.712697e+002
5.537214e+002, 2.709279e+002
5.556499e+002, 2.704374e+002
5.575784e+002, 2.693699e+002
5.595068e+002, 2.675337e+002
5.614353e+002, 2.654883e+002
5.633638e+002, 2.628109e+002
5.652922e+002, 2.606353e+002
5.672207e+002, 2.592617e+002
5.691492e+002, 2.588651e+002
5.710776e+002, 2.599896e+002
5.730061e+002, 2.618537e+002
5.749345e+002, 2.629518e+002
5.768630e+002, 2.633840e+002
5.787914e+002, 2.644949e+002
5.807199e+002, 2.664212e+002
5.826484e+002, 2.686352e+002
5.845768e+002, 2.712305e+002
5.865053e+002, 2.737824e+002
5.884338e+002, 2.754489e+002
5.903622e+002, 2.785176e+002
5.922907e+002, 2.836635e+002
5.942192e+002, 2.910904e+002
5.961476e+002, 3.007716e+002
5.980761e+002, 3.128222e+002
6.000046e+002, 3.278253e+002
6.019330e+002, 3.453024e+002
6.038615e+002, 3.636949e+002
6.057900e+002, 3.831148e+002
6.077184e+002, 4.014037e+002
6.096469e+002, 4.184801e+002
6.115754e+002, 4.345995e+002
6.135038e+002, 4.489790e+002
6.154323e+002, 4.647536e+002
6.173608e+002, 4.815874e+002
6.192892e+002, 5.023153e+002
6.212177e+002, 5.271492e+002
6.231462e+002, 5.572121e+002
6.250746e+002, 5.927745e+002
6.270031e+002, 6.345090e+002
6.289316e+002, 6.857689e+002
6.308600e+002, 7.444102e+002
6.327885e+002, 8.028022e+002
6.347170e+002, 8.604835e+002
6.366454e+002, 9.115101e+002
6.385739e+002, 9.564612e+002
6.405024e+002, 9.853369e+002
6.424308e+002, 9.940543e+002
6.443593e+002, 9.916111e+002
6.462878e+002, 9.784463e+002
6.482162e+002, 9.575027e+002
6.501447e+002, 9.251274e+002
6.520732e+002, 8.904138e+002
6.540016e+002, 8.562860e+002
6.559301e+002, 8.267598e+002
6.578586e+002, 8.052904e+002
6.597870e+002, 7.936685e+002
6.617155e+002, 7.956545e+002
6.636440e+002, 8.106844e+002
6.655724e+002, 8.367051e+002
6.675009e+002, 8.744592e+002
6.694294e+002, 9.141448e+002
6.713578e+002, 9.607523e+002
6.732863e+002, 9.937039e+002
6.752148e+002, 1.018863e+003
6.771432e+002, 1.017574e+003
6.790717e+002, 9.797993e+002
6.810002e+002, 9.221995e+002
6.829286e+002, 8.429907e+002
6.848571e+002, 7.575028e+002
6.867856e+002, 6.725650e+002
6.887141e+002, 5.936034e+002
6.906425e+002, 5.261290e+002
6.925710e+002, 4.696071e+002
6.944995e+002, 4.240163e+002
6.964279e+002, 3.889247e+002
6.983564e+002, 3.588473e+002
7.002849e+002, 3.338350e+002
7.022133e+002, 3.131117e+002
7.041418e+002, 2.977081e+002
7.060703e+002, 2.848659e+002
7.079987e+002, 2.746201e+002
7.099272e+002, 2.668603e+002
7.118557e+002, 2.620952e+002
7.137841e+002, 2.589706e+002
7.157126e+002, 2.577403e+002
7.176411e+002, 2.569026e+002
7.195695e+002, 2.551651e+002
7.214980e+002, 2.537315e+002
7.234265e+002, 2.537859e+002
7.253549e+002, 2.547060e+002
7.272834e+002, 2.552001e+002
7.292119e+002, 2.558169e+002
7.311403e+002, 2.582368e+002
7.330688e+002, 2.624694e+002
7.349973e+002, 2.687340e+002
7.369257e+002, 2.773852e+002
7.388542e+002, 2.862386e+002
7.407827e+002, 2.957124e+002
7.427111e+002, 3.035331e+002
7.446396e+002, 3.103648e+002
7.465681e+002, 3.117747e+002
7.484965e+002, 3.052794e+002
7.504250e+002, 2.965565e+002
7.523535e+002, 2.858740e+002
7.542819e+002, 2.764816e+002
7.562104e+002, 2.695555e+002
7.581389e+002, 2.647867e+002
7.600673e+002, 2.625678e+002
7.619958e+002, 2.618882e+002
7.639243e+002, 2.621628e+002
7.658527e+002, 2.629723e+002
7.677812e+002, 2.636833e+002
7.697097e+002, 2.643268e+002
7.716381e+002, 2.651114e+002
7.735666e+002, 2.659185e+002
7.754951e+002, 2.660112e+002
7.774235e+002, 2.654688e+002
7.793520e+002, 2.656957e+002
7.812805e+002, 2.668327e+002
7.832089e+002, 2.668856e+002
7.851374e+002, 2.654333e+002
7.870659e+002, 2.638858e+002
7.889943e+002, 2.621332e+002
7.909228e+002, 2.612676e+002
7.928513e+002, 2.616552e+002
7.947797e+002, 2.628226e+002
7.967082e+002, 2.641725e+002
7.986367e+002, 2.669850e+002
8.005651e+002, 2.720764e+002
8.024936e+002, 2.784337e+002
8.044221e+002, 2.864218e+002
8.063505e+002, 2.943134e+002
8.082790e+002, 3.023511e+002
8.102075e+002, 3.079251e+002
8.121359e+002, 3.078462e+002
8.140644e+002, 3.031760e+002
8.159929e+002, 2.940825e+002
8.179213e+002, 2.826029e+002
8.198498e+002, 2.728829e+002
8.217783e+002, 2.649605e+002
8.237067e+002, 2.588795e+002
8.256352e+002, 2.545907e+002
8.275637e+002, 2.512921e+002
8.294921e+002, 2.490363e+002
8.314206e+002, 2.470965e+002
8.333491e+002, 2.453586e+002
8.352775e+002, 2.442408e+002
8.372060e+002, 2.439198e+002
8.391345e+002, 2.439837e+002
8.410629e+002, 2.448757e+002
8.429914e+002, 2.453737e+002
8.449199e+002, 2.451531e+002
8.468483e+002, 2.448691e+002
8.487768e+002, 2.444371e+002
8.507053e+002, 2.443842e+002
8.526337e+002, 2.451882e+002
8.545622e+002, 2.458965e+002
8.564907e+002, 2.460403e+002
8.584191e+002, 2.459097e+002
8.603476e+002, 2.455068e+002
8.622761e+002, 2.451098e+002
8.642045e+002, 2.449494e+002
8.661330e+002, 2.448626e+002
8.680615e+002, 2.446064e+002
8.699899e+002, 2.444385e+002
8.719184e+002, 2.448716e+002
8.738469e+002, 2.454857e+002
8.757753e+002, 2.453992e+002
8.777038e+002, 2.450259e+002
8.796323e+002, 2.454720e+002
8.815607e+002, 2.464364e+002
8.834892e+002, 2.467499e+002
8.854177e+002, 2.465707e+002
8.873461e+002, 2.469385e+002
8.892746e+002, 2.477964e+002
8.912031e+002, 2.483018e+002
8.931315e+002, 2.484791e+002
8.950600e+002, 2.492894e+002
8.969885e+002, 2.507520e+002
8.989169e+002, 2.524767e+002
9.008454e+002, 2.544522e+002
9.027739e+002, 2.562182e+002
9.047023e+002, 2.577367e+002
9.066308e+002, 2.588195e+002
9.085593e+002, 2.592432e+002
9.104877e+002, 2.606933e+002
9.124162e+002, 2.637968e+002
9.143447e+002, 2.665284e+002
9.162731e+002, 2.682000e+002
9.182016e+002, 2.703533e+002
9.201301e+002, 2.729797e+002
9.220585e+002, 2.768878e+002
9.239870e+002, 2.830512e+002
9.259155e+002, 2.892089e+002
9.278439e+002, 2.944351e+002
9.297724e+002, 3.001447e+002
9.317009e+002, 3.072268e+002
9.336293e+002, 3.140951e+002
9.355578e+002, 3.196879e+002
9.374863e+002, 3.255496e+002
9.394147e+002, 3.324920e+002
9.413432e+002, 3.397995e+002
9.432717e+002, 3.470233e+002
9.452001e+002, 3.546416e+002
9.471286e+002, 3.636552e+002
9.490571e+002, 3.723789e+002
9.509855e+002, 3.807443e+002
9.529140e+002, 3.869549e+002
9.548425e+002, 3.905697e+002
9.567709e+002, 3.902104e+002
9.586994e+002, 3.831724e+002
9.606279e+002, 3.730440e+002
9.625563e+002, 3.620074e+002
9.644848e+002, 3.510086e+002
9.664133e+002, 3.402580e+002
9.683417e+002, 3.308478e+002
9.702702e+002, 3.242187e+002
9.721987e+002, 3.194562e+002
9.741271e+002, 3.157265e+002
9.760556e+002, 3.128688e+002
9.779841e+002, 3.103389e+002
9.799125e+002, 3.087730e+002
9.818410e+002, 3.095335e+002
9.837695e+002, 3.117804e+002
9.856979e+002, 3.143571e+002
9.876264e+002, 3.170117e+002
9.895549e+002, 3.193790e+002
9.914833e+002, 3.213285e+002
9.934118e+002, 3.225669e+002
9.953403e+002, 3.231578e+002
9.972687e+002, 3.231207e+002
9.991972e+002, 3.226422e+002
1.001126e+003, 3.220721e+002
1.003054e+003, 3.215622e+002
1.004983e+003, 3.215154e+002
1.006911e+003, 3.219313e+002
1.008840e+003, 3.230035e+002
1.010768e+003, 3.244642e+002
1.012696e+003, 3.252336e+002
1.014625e+003, 3.255848e+002
1.016553e+003, 3.261577e+002
1.018482e+003, 3.272577e+002
1.020410e+003, 3.302628e+002
1.022339e+003, 3.348101e+002
1.024267e+003, 3.400172e+002
1.026196e+003, 3.454884e+002
1.028124e+003, 3.491042e+002
1.030053e+003, 3.517353e+002
1.031981e+003, 3.570660e+002
1.033910e+003, 3.642960e+002
1.035838e+003, 3.701432e+002
1.037767e+003, 3.752003e+002
1.039695e+003, 3.819895e+002
1.041624e+003, 3.897696e+002
1.043552e+003, 3.958781e+002
1.045480e+003, 4.007194e+002
1.047409e+003, 4.059549e+002
1.049337e+003, 4.110249e+002
1.051266e+003, 4.143519e+002
1.053194e+003, 4.160539e+002
1.055123e+003, 4.164667e+002
1.057051e+003, 4.155685e+002
1.058980e+003, 4.130392e+002
1.060908e+003, 4.092238e+002
1.062837e+003, 4.046125e+002
1.064765e+003, 3.995897e+002
1.066694e+003, 3.946443e+002
1.068622e+003, 3.901944e+002
1.070550e+003, 3.871713e+002
1.072479e+003, 3.853971e+002
1.074407e+003, 3.848152e+002
1.076336e+003, 3.849811e+002
1.078264e+003, 3.847085e+002
1.080193e+003, 3.847425e+002
1.082121e+003, 3.870674e+002
1.084050e+003, 3.902747e+002
1.085978e+003, 3.918260e+002
1.087907e+003, 3.926454e+002
1.089835e+003, 3.936625e+002
1.091764e+003, 3.954171e+002
1.093692e+003, 3.982802e+002
1.095620e+003, 4.027672e+002
1.097549e+003, 4.101161e+002
1.099477e+003, 4.189527e+002
1.101406e+003, 4.280099e+002
1.103334e+003, 4.372372e+002
1.105263e+003, 4.466741e+002
1.107191e+003, 4.561094e+002
1.109120e+003, 4.653881e+002
1.111048e+003, 4.744906e+002
1.112977e+003, 4.834680e+002
1.114905e+003, 4.922174e+002
1.116834e+003, 5.003849e+002
1.118762e+003, 5.086820e+002
1.120691e+003, 5.168168e+002
1.122619e+003, 5.262950e+002
1.124547e+003, 5.371935e+002
1.126476e+003, 5.510041e+002
1.128404e+003, 5.705433e+002
1.130333e+003, 5.897723e+002
1.132261e+003, 6.069192e+002
1.134190e+003, 6.211229e+002
1.136118e+003, 6.325500e+002
1.138047e+003, 6.400537e+002
1.139975e+003, 6.448128e+002
1.141904e+003, 6.418387e+002
1.143832e+003, 6.294096e+002
1.145761e+003, 6.090554e+002
1.147689e+003, 5.787178e+002
1.149618e+003, 5.483096e+002
1.151546e+003, 5.193022e+002
1.153474e+003, 4.933458e+002
1.155403e+003, 4.703487e+002
1.157331e+003, 4.530005e+002
1.159260e+003, 4.420974e+002
1.161188e+003, 4.341335e+002
1.163117e+003, 4.286908e+002
1.165045e+003, 4.262388e+002
1.166974e+003, 4.268185e+002
1.168902e+003, 4.282064e+002
1.170831e+003, 4.301859e+002
1.172759e+003, 4.325982e+002
1.174688e+003, 4.354150e+002
1.176616e+003, 4.388032e+002
1.178545e+003, 4.426360e+002
1.180473e+003, 4.463037e+002
1.182401e+003, 4.498643e+002
1.184330e+003, 4.534671e+002
1.186258e+003, 4.571875e+002
1.188187e+003, 4.613779e+002
1.190115e+003, 4.656468e+002
1.192044e+003, 4.689845e+002
1.193972e+003, 4.720899e+002
1.195901e+003, 4.761403e+002
1.197829e+003, 4.802627e+002
1.199758e+003, 4.834185e+002
1.201686e+003, 4.861802e+002
1.203615e+003, 4.890744e+002
1.205543e+003, 4.918162e+002
1.207472e+003, 4.939945e+002
1.209400e+003, 4.963378e+002
1.211328e+003, 4.997324e+002
1.213257e+003, 5.026797e+002
1.215185e+003, 5.044738e+002
1.217114e+003, 5.058097e+002
1.219042e+003, 5.065233e+002
1.220971e+003, 5.077133e+002
1.222899e+003, 5.100323e+002
1.224828e+003, 5.115644e+002
1.226756e+003, 5.114662e+002
1.228685e+003, 5.124682e+002
1.230613e+003, 5.152184e+002
1.232542e+003, 5.172103e+002
1.234470e+003, 5.182084e+002
1.236399e+003, 5.195496e+002
1.238327e+003, 5.212415e+002
1.240255e+003, 5.235812e+002
1.242184e+003, 5.264300e+002
1.244112e+003, 5.285718e+002
1.246041e+003, 5.305222e+002
1.247969e+003, 5.339338e+002
1.249898e+003, 5.384558e+002
1.251826e+003, 5.438907e+002
1.253755e+003, 5.494606e+002
1.255683e+003, 5.534564e+002
1.257612e+003, 5.577178e+002
1.259540e+003, 5.641056e+002
1.261469e+003, 5.713195e+002
1.263397e+003, 5.787771e+002
1.265326e+003, 5.862676e+002
1.267254e+003, 5.933668e+002
1.269182e+003, 6.011796e+002
1.271111e+003, 6.104969e+002
1.273039e+003, 6.193474e+002
1.274968e+003, 6.269890e+002
1.276896e+003, 6.357877e+002
1.278825e+003, 6.462167e+002
1.280753e+003, 6.563368e+002
1.282682e+003, 6.659307e+002
1.284610e+003, 6.764174e+002
1.286539e+003, 6.876631e+002
1.288467e+003, 6.983349e+002
1.290396e+003, 7.082891e+002
1.292324e+003, 7.170029e+002
1.294253e+003, 7.249908e+002
1.296181e+003, 7.332770e+002
1.298109e+003, 7.416295e+002
1.300038e+003, 7.502047e+002
1.301966e+003, 7.580550e+002
1.303895e+003, 7.638881e+002
1.305823e+003, 7.691218e+002
1.307752e+003, 7.744857e+002
1.309680e+003, 7.797955e+002
1.311609e+003, 7.849274e+002
1.313537e+003, 7.900371e+002
1.315466e+003, 7.951280e+002
1.317394e+003, 8.002881e+002
1.319323e+003, 8.052043e+002
1.321251e+003, 8.110544e+002
1.323180e+003, 8.179600e+002
1.325108e+003, 8.248527e+002
1.327036e+003, 8.317707e+002
1.328965e+003, 8.398277e+002
1.330893e+003, 8.490673e+002
1.332822e+003, 8.594483e+002
1.334750e+003, 8.712879e+002
1.336679e+003, 8.848192e+002
1.338607e+003, 9.005673e+002
1.340536e+003, 9.206780e+002
1.342464e+003, 9.408875e+002
1.344393e+003, 9.571801e+002
1.346321e+003, 9.755524e+002
1.348250e+003, 9.985500e+002
1.350178e+003, 1.024270e+003
1.352107e+003, 1.052677e+003
1.354035e+003, 1.081736e+003
1.355964e+003, 1.111033e+003
1.357892e+003, 1.142572e+003
1.359820e+003, 1.176528e+003
1.361749e+003, 1.209010e+003
1.363677e+003, 1.240283e+003
1.365606e+003, 1.272816e+003
1.367534e+003, 1.305054e+003
1.369463e+003, 1.333302e+003
1.371391e+003, 1.359305e+003
1.373320e+003, 1.387063e+003
1.375248e+003, 1.411223e+003
1.377177e+003, 1.426826e+003
1.379105e+003, 1.438810e+003
1.381034e+003, 1.449718e+003
1.382962e+003, 1.455955e+003
1.384891e+003, 1.456763e+003
1.386819e+003, 1.452677e+003
1.388747e+003, 1.443757e+003
1.390676e+003, 1.432633e+003
1.392604e+003, 1.419494e+003
1.394533e+003, 1.402854e+003
1.396461e+003, 1.383930e+003
1.398390e+003, 1.365038e+003
1.400318e+003, 1.347481e+003
1.402247e+003, 1.332856e+003
1.404175e+003, 1.320936e+003
1.406104e+003, 1.311269e+003
1.408032e+003, 1.304565e+003
1.409961e+003, 1.301461e+003
1.411889e+003, 1.300850e+003
1.413818e+003, 1.301819e+003
1.415746e+003, 1.307323e+003
1.417674e+003, 1.318484e+003
1.419603e+003, 1.328560e+003
1.421531e+003, 1.337655e+003
1.423460e+003, 1.350128e+003
1.425388e+003, 1.365172e+003
1.427317e+003, 1.382405e+003
1.429245e+003, 1.398148e+003
1.431174e+003, 1.407162e+003
1.433102e+003, 1.413664e+003
1.435031e+003, 1.421110e+003
1.436959e+003, 1.426104e+003
1.438888e+003, 1.427512e+003
1.440816e+003, 1.425308e+003
1.442745e+003, 1.418881e+003
1.444673e+003, 1.410721e+003
1.446601e+003, 1.400963e+003
1.448530e+003, 1.390091e+003
1.450458e+003, 1.377955e+003
1.452387e+003, 1.363985e+003
1.454315e+003, 1.348179e+003
1.456244e+003, 1.328460e+003
1.458172e+003, 1.309843e+003
1.460101e+003, 1.296791e+003
1.462029e+003, 1.285512e+003
1.463958e+003, 1.274383e+003
1.465886e+003, 1.265626e+003
1.467815e+003, 1.260053e+003
1.469743e+003, 1.254349e+003
1.471672e+003, 1.248177e+003
1.473600e+003, 1.243447e+003
1.475528e+003, 1.240045e+003
1.477457e+003, 1.237791e+003
1.479385e+003, 1.236260e+003
1.481314e+003, 1.234912e+003
1.483242e+003, 1.233748e+003
1.485171e+003, 1.232554e+003
1.487099e+003, 1.231928e+003
1.489028e+003, 1.232364e+003
1.490956e+003, 1.232371e+003
1.492885e+003, 1.231769e+003
1.494813e+003, 1.230779e+003
1.496742e+003, 1.229336e+003
1.498670e+003, 1.226369e+003
1.500599e+003, 1.222528e+003
1.502527e+003, 1.219096e+003
1.504455e+003, 1.215764e+003
1.506384e+003, 1.213159e+003
1.508312e+003, 1.208991e+003
1.510241e+003, 1.200766e+003
1.512169e+003, 1.193299e+003
1.514098e+003, 1.187636e+003
1.516026e+003, 1.181985e+003
1.517955e+003, 1.176149e+003
1.519883e+003, 1.169616e+003
1.521812e+003, 1.162299e+003
1.523740e+003, 1.153978e+003
1.525669e+003, 1.145099e+003
1.527597e+003, 1.136258e+003
1.529526e+003, 1.127103e+003
1.531454e+003, 1.116286e+003
1.533382e+003, 1.107600e+003
1.535311e+003, 1.102836e+003
1.537239e+003, 1.098233e+003
1.539168e+003, 1.093644e+003
1.541096e+003, 1.088727e+003
1.543025e+003, 1.083720e+003
1.544953e+003, 1.079700e+003
1.546882e+003, 1.075933e+003
1.548810e+003, 1.071293e+003
1.550739e+003, 1.067307e+003
1.552667e+003, 1.064669e+003
1.554596e+003, 1.063299e+003
1.556524e+003, 1.063583e+003
1.558453e+003, 1.061965e+003
1.560381e+003, 1.058294e+003
1.562309e+003, 1.055561e+003
1.564238e+003, 1.052705e+003
1.566166e+003, 1.046703e+003
1.568095e+003, 1.040120e+003
1.570023e+003, 1.035893e+003
1.571952e+003, 1.031099e+003
1.573880e+003, 1.025139e+003
1.575809e+003, 1.016864e+003
1.577737e+003, 1.006107e+003
1.579666e+003, 9.968119e+002
1.581594e+003, 9.884799e+002
1.583523e+003, 9.774212e+002
1.585451e+003, 9.656790e+002
1.587380e+003, 9.564586e+002
1.589308e+003, 9.473906e+002
1.591236e+003, 9.372141e+002
1.593165e+003, 9.262200e+002
1.595093e+003, 9.143291e+002
1.597022e+003, 9.022648e+002
1.598950e+003, 8.901680e+002
1.600879e+003, 8.788645e+002
1.602807e+003, 8.676874e+002
1.604736e+003, 8.553105e+002
1.606664e+003, 8.426588e+002
1.608593e+003, 8.302742e+002
1.610521e+003, 8.182662e+002
1.612450e+003, 8.065095e+002
1.614378e+003, 7.956771e+002
1.616307e+003, 7.857659e+002
1.618235e+003, 7.763707e+002
1.620163e+003, 7.675651e+002
1.622092e+003, 7.603790e+002
1.624020e+003, 7.526228e+002
1.625949e+003, 7.421194e+002
1.627877e+003, 7.309915e+002
1.629806e+003, 7.189946e+002
1.631734e+003, 7.088765e+002
1.633663e+003, 7.007598e+002
1.635591e+003, 6.937360e+002
1.637520e+003, 6.872797e+002
1.639448e+003, 6.803344e+002
1.641377e+003, 6.727113e+002
1.643305e+003, 6.637977e+002
1.645234e+003, 6.553970e+002
1.647162e+003, 6.479777e+002
1.649090e+003, 6.420967e+002
1.651019e+003, 6.377454e+002
1.652947e+003, 6.336544e+002
1.654876e+003, 6.292746e+002
1.656804e+003, 6.225134e+002
1.658733e+003, 6.162321e+002
1.660661e+003, 6.127227e+002
1.662590e+003, 6.092683e+002
1.664518e+003, 6.052226e+002
1.666447e+003, 6.005705e+002
1.668375e+003, 5.956263e+002
1.670304e+003, 5.926402e+002
1.672232e+003, 5.907296e+002
1.674161e+003, 5.886141e+002
1.676089e+003, 5.863909e+002
1.678017e+003, 5.838625e+002
1.679946e+003, 5.818513e+002
1.681874e+003, 5.804899e+002
1.683803e+003, 5.791970e+002
1.685731e+003, 5.778145e+002
1.687660e+003, 5.757466e+002
1.689588e+003, 5.736969e+002
1.691517e+003, 5.730303e+002
1.693445e+003, 5.715453e+002
1.695374e+003, 5.677097e+002
1.697302e+003, 5.663688e+002
1.699231e+003, 5.676239e+002
1.701159e+003, 5.674814e+002
1.703088e+003, 5.665217e+002
1.705016e+003, 5.659996e+002
1.706944e+003, 5.656659e+002
1.708873e+003, 5.656000e+002
1.710801e+003, 5.651316e+002
1.712730e+003, 5.641613e+002
1.714658e+003, 5.629905e+002
1.716587e+003, 5.618254e+002
1.718515e+003, 5.616432e+002
1.720444e+003, 5.613558e+002
1.722372e+003, 5.593425e+002
1.724301e+003, 5.578606e+002
1.726229e+003, 5.583189e+002
1.728158e+003, 5.578254e+002
1.730086e+003, 5.563436e+002
1.732015e+003, 5.554410e+002
1.733943e+003, 5.548514e+002
1.735871e+003, 5.541741e+002
1.737800e+003, 5.537480e+002
1.739728e+003, 5.543336e+002
1.741657e+003, 5.528715e+002
1.743585e+003, 5.487819e+002
1.745514e+003, 5.468279e+002
1.747442e+003, 5.461834e+002
1.749371e+003, 5.453278e+002
1.751299e+003, 5.441433e+002
1.753228e+003, 5.421734e+002
1.755156e+003, 5.414958e+002
1.757085e+003, 5.426386e+002
1.759013e+003, 5.423516e+002
1.760942e+003, 5.411266e+002
1.762870e+003, 5.405075e+002
1.764798e+003, 5.401281e+002
1.766727e+003, 5.398327e+002
1.768655e+003, 5.392695e+002
1.770584e+003, 5.383472e+002
1.772512e+003, 5.381057e+002
1.774441e+003, 5.386653e+002
1.776369e+003, 5.406525e+002
1.778298e+003, 5.426721e+002
1.780226e+003, 5.433470e+002
1.782155e+003, 5.437761e+002
1.784083e+003, 5.441270e+002
1.786012e+003, 5.448751e+002
1.787940e+003, 5.460490e+002
1.789869e+003, 5.475656e+002
1.791797e+003, 5.494696e+002
1.793725e+003, 5.520976e+002
1.795654e+003, 5.544221e+002
1.797582e+003, 5.561428e+002
1.799511e+003, 5.584894e+002
1.801439e+003, 5.616018e+002
1.803368e+003, 5.660865e+002
1.805296e+003, 5.706829e+002
1.807225e+003, 5.734834e+002
1.809153e+003, 5.782964e+002
1.811082e+003, 5.863105e+002
1.813010e+003, 5.924687e+002
1.814939e+003, 5.978090e+002
1.816867e+003, 6.057328e+002
1.818796e+003, 6.139487e+002
1.820724e+003, 6.206290e+002
1.822652e+003, 6.280745e+002
1.824581e+003, 6.368808e+002
1.826509e+003, 6.434105e+002
1.828438e+003, 6.493019e+002
1.830366e+003, 6.586368e+002
1.832295e+003, 6.683455e+002
1.834223e+003, 6.772004e+002
1.836152e+003, 6.849509e+002
1.838080e+003, 6.915673e+002
1.840009e+003, 6.975450e+002
1.841937e+003, 7.025270e+002
1.843866e+003, 7.062731e+002
1.845794e+003, 7.079934e+002
1.847723e+003, 7.072902e+002
1.849651e+003, 7.053857e+002
1.851579e+003, 7.023654e+002
1.853508e+003, 6.981935e+002
1.855436e+003, 6.923016e+002
1.857365e+003, 6.835098e+002
1.859293e+003, 6.739760e+002
1.861222e+003, 6.641268e+002
1.863150e+003, 6.534099e+002
1.865079e+003, 6.423669e+002
1.867007e+003, 6.323295e+002
1.868936e+003, 6.227086e+002
1.870864e+003, 6.125566e+002
1.872793e+003, 6.049532e+002
1.874721e+003, 5.999724e+002
1.876650e+003, 5.939079e+002
1.878578e+003, 5.889482e+002
1.880506e+003, 5.891238e+002
1.882435e+003, 5.900372e+002
1.884363e+003, 5.898865e+002
1.886292e+003, 5.924295e+002
1.888220e+003, 5.969968e+002
1.890149e+003, 6.010594e+002
1.892077e+003, 6.044197e+002
1.894006e+003, 6.062398e+002
1.895934e+003, 6.090917e+002
1.897863e+003, 6.132752e+002
1.899791e+003, 6.173948e+002
1.901720e+003, 6.209542e+002
1.903648e+003, 6.230772e+002
1.905577e+003, 6.249599e+002
1.907505e+003, 6.265187e+002
1.909433e+003, 6.300871e+002
1.911362e+003, 6.351497e+002
1.913290e+003, 6.393362e+002
1.915219e+003, 6.437083e+002
1.917147e+003, 6.494040e+002
1.919076e+003, 6.542646e+002
1.921004e+003, 6.579341e+002
1.922933e+003, 6.600929e+002
1.924861e+003, 6.611271e+002
1.926790e+003, 6.618722e+002
1.928718e+003, 6.608712e+002
1.930647e+003, 6.576075e+002
1.932575e+003, 6.521579e+002
1.934504e+003, 6.449592e+002
1.936432e+003, 6.369996e+002
1.938360e+003, 6.273301e+002
1.940289e+003, 6.149404e+002
1.942217e+003, 6.051999e+002
1.944146e+003, 5.983309e+002
1.946074e+003, 5.910888e+002
1.948003e+003, 5.847082e+002
1.949931e+003, 5.803972e+002
1.951860e+003, 5.773578e+002
1.953788e+003, 5.754470e+002
1.955717e+003, 5.738137e+002
1.957645e+003, 5.730892e+002
1.959574e+003, 5.741783e+002
1.961502e+003, 5.770391e+002
1.963431e+003, 5.817224e+002
1.965359e+003, 5.843666e+002
1.967287e+003, 5.858222e+002
1.969216e+003, 5.889506e+002
1.971144e+003, 5.908847e+002
1.973073e+003, 5.897370e+002
1.975001e+003, 5.895390e+002
1.976930e+003, 5.897362e+002
1.978858e+003, 5.880471e+002
1.980787e+003, 5.849850e+002
1.982715e+003, 5.803407e+002
1.984644e+003, 5.760283e+002
1.986572e+003, 5.719597e+002
1.988501e+003, 5.660117e+002
1.990429e+003, 5.591977e+002
1.992358e+003, 5.520491e+002
1.994286e+003, 5.453953e+002
1.996214e+003, 5.392989e+002
1.998143e+003, 5.294442e+002
2.000071e+003, 5.186891e+002
2.002000e+003, 5.099443e+002
2.003928e+003, 5.015984e+002
2.005857e+003, 4.933071e+002
2.007785e+003, 4.831686e+002
2.009714e+003, 4.732052e+002
2.011642e+003, 4.670692e+002
2.013571e+003, 4.598680e+002
2.015499e+003, 4.501152e+002
2.017428e+003, 4.418730e+002
2.019356e+003, 4.346802e+002
2.021285e+003, 4.275932e+002
2.023213e+003, 4.211736e+002
2.025141e+003, 4.156462e+002
2.027070e+003, 4.083215e+002
2.028998e+003, 4.002666e+002
2.030927e+003, 3.940011e+002
2.032855e+003, 3.872935e+002
2.034784e+003, 3.793581e+002
2.036712e+003, 3.730026e+002
2.038641e+003, 3.676939e+002
2.040569e+003, 3.622453e+002
2.042498e+003, 3.566086e+002
2.044426e+003, 3.507748e+002
2.046355e+003, 3.452129e+002
2.048283e+003, 3.398890e+002
2.050212e+003, 3.344953e+002
2.052140e+003, 3.293950e+002
2.054068e+003, 3.246376e+002
2.055997e+003, 3.211106e+002
2.057925e+003, 3.182355e+002
2.059854e+003, 3.149062e+002
2.061782e+003, 3.112433e+002
2.063711e+003, 3.072065e+002
2.065639e+003, 3.034666e+002
2.067568e+003, 3.000688e+002
2.069496e+003, 2.970782e+002
2.071425e+003, 2.941804e+002
2.073353e+003, 2.912192e+002
2.075281e+003, 2.883382e+002
2.077210e+003, 2.856038e+002
2.079138e+003, 2.831195e+002
2.081067e+003, 2.808895e+002
2.082995e+003, 2.789980e+002
2.084924e+003, 2.770668e+002
2.086852e+003, 2.751765e+002
2.088781e+003, 2.734870e+002
2.090709e+003, 2.716714e+002
2.092638e+003, 2.696112e+002
2.094566e+003, 2.678532e+002
2.096495e+003, 2.660500e+002
2.098423e+003, 2.637238e+002
2.100352e+003, 2.614671e+002
2.102280e+003, 2.593744e+002
2.104208e+003, 2.567184e+002
2.106137e+003, 2.541248e+002
2.108065e+003, 2.522405e+002
2.109994e+003, 2.503925e+002
2.111922e+003, 2.485467e+002
2.113851e+003, 2.473303e+002
2.115779e+003, 2.459700e+002
2.117708e+003, 2.438483e+002
2.119636e+003, 2.419251e+002
2.121565e+003, 2.401660e+002
2.123493e+003, 2.378263e+002
2.125422e+003, 2.358005e+002
2.127350e+003, 2.345778e+002
2.129279e+003, 2.335299e+002
2.131207e+003, 2.323650e+002
2.133135e+003, 2.304359e+002
2.135064e+003, 2.286089e+002
2.136992e+003, 2.272104e+002
2.138921e+003, 2.248562e+002
2.140849e+003, 2.225771e+002
2.142778e+003, 2.221590e+002
2.144706e+003, 2.217814e+002
2.146635e+003, 2.210322e+002
2.148563e+003, 2.179370e+002
2.150492e+003, 2.146828e+002
2.152420e+003, 2.132983e+002
2.154349e+003, 2.126734e+002
2.156277e+003, 2.123947e+002
2.158206e+003, 2.107909e+002
2.160134e+003, 2.088340e+002
2.162063e+003, 2.067991e+002
2.163991e+003, 2.059022e+002
2.165919e+003, 2.057381e+002
2.167848e+003, 2.055910e+002
2.169776e+003, 2.047909e+002
2.171705e+003, 2.030136e+002
2.173633e+003, 2.021131e+002
2.175562e+003, 2.011803e+002
2.177490e+003, 1.990056e+002
2.179419e+003, 1.969758e+002
2.181347e+003, 1.953068e+002
2.183276e+003, 1.934395e+002
2.185204e+003, 1.918927e+002
2.187133e+003, 1.909474e+002
2.189061e+003, 1.904789e+002
2.190990e+003, 1.900575e+002
2.192918e+003, 1.886704e+002
2.194846e+003, 1.868746e+002
2.196775e+003, 1.848983e+002
2.198703e+003, 1.846183e+002
2.200632e+003, 1.847213e+002
2.202560e+003, 1.837897e+002
2.204489e+003, 1.816172e+002
2.206417e+003, 1.789900e+002
2.208346e+003, 1.801394e+002
2.210274e+003, 1.810173e+002
2.212203e+003, 1.791831e+002
2.214131e+003, 1.774956e+002
2.216060e+003, 1.762392e+002
2.217988e+003, 1.760181e+002
2.219917e+003, 1.749156e+002
2.221845e+003, 1.727316e+002
2.223773e+003, 1.727285e+002
2.225702e+003, 1.730692e+002
2.227630e+003, 1.720859e+002
2.229559e+003, 1.716215e+002
2.231487e+003, 1.712752e+002
2.233416e+003, 1.692065e+002
2.235344e+003, 1.677422e+002
2.237273e+003, 1.678290e+002
2.239201e+003, 1.677337e+002
2.241130e+003, 1.670107e+002
2.243058e+003, 1.649741e+002
2.244987e+003, 1.636761e+002
2.246915e+003, 1.631703e+002
2.248844e+003, 1.630249e+002
2.250772e+003, 1.628883e+002
2.252700e+003, 1.626582e+002
2.254629e+003, 1.610076e+002
2.256557e+003, 1.591123e+002
2.258486e+003, 1.583445e+002
2.260414e+003, 1.577106e+002
2.262343e+003, 1.569555e+002
2.264271e+003, 1.552273e+002
2.266200e+003, 1.544414e+002
2.268128e+003, 1.552550e+002
2.270057e+003, 1.549798e+002
2.271985e+003, 1.539742e+002
2.273914e+003, 1.525036e+002
2.275842e+003, 1.515303e+002
2.277771e+003, 1.509965e+002
2.279699e+003, 1.502535e+002
2.281627e+003, 1.494775e+002
2.283556e+003, 1.487358e+002
2.285484e+003, 1.476671e+002
2.287413e+003, 1.465759e+002
2.289341e+003, 1.457836e+002
2.291270e+003, 1.450615e+002
2.293198e+003, 1.444980e+002
2.295127e+003, 1.447187e+002
2.297055e+003, 1.442996e+002
2.298984e+003, 1.428215e+002
2.300912e+003, 1.416036e+002
2.302841e+003, 1.405662e+002
2.304769e+003, 1.394637e+002
2.306698e+003, 1.391449e+002
2.308626e+003, 1.394344e+002
2.310554e+003, 1.406398e+002
2.312483e+003, 1.394868e+002
2.314411e+003, 1.356814e+002
2.316340e+003, 1.352368e+002
2.318268e+003, 1.351823e+002
2.320197e+003, 1.337708e+002
2.322125e+003, 1.332377e+002
2.324054e+003, 1.331552e+002
2.325982e+003, 1.328991e+002
2.327911e+003, 1.325475e+002
2.329839e+003, 1.320114e+002
2.331768e+003, 1.306085e+002
2.333696e+003, 1.296128e+002
2.335625e+003, 1.294088e+002
2.337553e+003, 1.291551e+002
2.339481e+003, 1.284742e+002
2.341410e+003, 1.270219e+002
2.343338e+003, 1.262602e+002
2.345267e+003, 1.259918e+002
2.347195e+003, 1.258434e+002
2.349124e+003, 1.253167e+002
2.351052e+003, 1.244551e+002
2.352981e+003, 1.236390e+002
2.354909e+003, 1.233781e+002
2.356838e+003, 1.237927e+002
2.358766e+003, 1.226309e+002
2.360695e+003, 1.213472e+002
2.362623e+003, 1.215796e+002
2.364552e+003, 1.210960e+002
2.366480e+003, 1.202948e+002
2.368408e+003, 1.201903e+002
2.370337e+003, 1.197997e+002
2.372265e+003, 1.191448e+002
2.374194e+003, 1.191789e+002
2.376122e+003, 1.192084e+002
2.378051e+003, 1.189680e+002
2.379979e+003, 1.185644e+002
2.381908e+003, 1.175287e+002
2.383836e+003, 1.149812e+002
2.385765e+003, 1.147716e+002
2.387693e+003, 1.154184e+002
2.389622e+003, 1.144878e+002
2.391550e+003, 1.142730e+002
2.393479e+003, 1.145377e+002
2.395407e+003, 1.128601e+002
2.397335e+003, 1.121169e+002
2.399264e+003, 1.128672e+002
2.401192e+003, 1.115369e+002
2.403121e+003, 1.104033e+002
2.405049e+003, 1.105735e+002
2.406978e+003, 1.092658e+002
2.408906e+003, 1.080956e+002
2.410835e+003, 1.087751e+002
2.412763e+003, 1.082636e+002
2.414692e+003, 1.072366e+002
2.416620e+003, 1.077128e+002
2.418549e+003, 1.072092e+002
2.420477e+003, 1.058885e+002
2.422406e+003, 1.056831e+002
2.424334e+003, 1.048498e+002
2.426262e+003, 1.031749e+002
2.428191e+003, 1.021868e+002
2.430119e+003, 1.016444e+002
2.432048e+003, 1.014103e+002
2.433976e+003, 1.012439e+002
2.435905e+003, 1.007311e+002
2.437833e+003, 9.917331e+001
2.439762e+003, 9.897473e+001
2.441690e+003, 9.907603e+001
2.443619e+003, 9.782307e+001
2.445547e+003, 9.678053e+001
2.447476e+003, 9.607703e+001
2.449404e+003, 9.571140e+001
2.451333e+003, 9.531931e+001
2.453261e+003, 9.478281e+001
2.455189e+003, 9.353793e+001
2.457118e+003, 9.316747e+001
2.459046e+003, 9.397871e+001
2.460975e+003, 9.283338e+001
2.462903e+003, 9.192087e+001
2.464832e+003, 9.231829e+001
2.466760e+003, 9.207219e+001
2.468689e+003, 9.136900e+001
2.470617e+003, 9.038361e+001
2.472546e+003, 8.887144e+001
2.474474e+003, 8.765996e+001
2.476403e+003, 8.760136e+001
2.478331e+003, 8.720174e+001
2.480260e+003, 8.671182e+001
2.482188e+003, 8.689394e+001
2.484116e+003, 8.627806e+001
2.486045e+003, 8.520083e+001
2.487973e+003, 8.496152e+001
2.489902e+003, 8.441189e+001
2.491830e+003, 8.356099e+001
2.493759e+003, 8.301673e+001
2.495687e+003, 8.284315e+001
2.497616e+003, 8.285163e+001
2.499544e+003, 8.206510e+001
2.501473e+003, 8.134201e+001
2.503401e+003, 8.094221e+001
2.505330e+003, 8.083829e+001
2.507258e+003, 8.044267e+001
2.509187e+003, 7.948109e+001
2.511115e+003, 8.006676e+001
2.513043e+003, 8.014451e+001
2.514972e+003, 7.800871e+001
2.516900e+003, 7.773472e+001
2.518829e+003, 7.788229e+001
2.520757e+003, 7.716180e+001
2.522686e+003, 7.712597e+001
2.524614e+003, 7.705908e+001
2.526543e+003, 7.616250e+001
2.528471e+003, 7.550661e+001
2.530400e+003, 7.518240e+001
2.532328e+003, 7.520098e+001
2.534257e+003, 7.563708e+001
2.536185e+003, 7.579003e+001
2.538114e+003, 7.462044e+001
2.540042e+003, 7.319283e+001
2.541970e+003, 7.213203e+001
2.543899e+003, 7.244005e+001
2.545827e+003, 7.264091e+001
2.547756e+003, 7.255168e+001
2.549684e+003, 7.218026e+001
2.551613e+003, 7.192575e+001
2.553541e+003, 7.160668e+001
2.555470e+003, 7.026780e+001
2.557398e+003, 6.983301e+001
2.559327e+003, 7.017329e+001
2.561255e+003, 6.994373e+001
2.563184e+003, 6.940084e+001
2.565112e+003, 6.880788e+001
2.567041e+003, 6.896062e+001
2.568969e+003, 6.855730e+001
2.570897e+003, 6.766525e+001
2.572826e+003, 6.745969e+001
2.574754e+003, 6.764252e+001
2.576683e+003, 6.777239e+001
2.578611e+003, 6.595277e+001
2.580540e+003, 6.514426e+001
2.582468e+003, 6.567570e+001
2.584397e+003, 6.571719e+001
2.586325e+003, 6.515476e+001
2.588254e+003, 6.417015e+001
2.590182e+003, 6.394433e+001
2.592111e+003, 6.401561e+001
2.594039e+003, 6.407690e+001
2.595968e+003, 6.258191e+001
2.597896e+003, 6.169797e+001
2.599824e+003, 6.181989e+001
2.601753e+003, 6.181626e+001
2.603681e+003, 6.165027e+001
2.605610e+003, 6.134249e+001
2.607538e+003, 6.116007e+001
2.609467e+003, 6.053344e+001
2.611395e+003, 5.961804e+001
2.613324e+003, 6.014455e+001
2.615252e+003, 6.020570e+001
2.617181e+003, 5.953709e+001
2.619109e+003, 5.928436e+001
2.621038e+003, 5.873045e+001
2.622966e+003, 5.793798e+001
2.624895e+003, 5.785574e+001
2.626823e+003, 5.751521e+001
2.628751e+003, 5.688240e+001
2.630680e+003, 5.646935e+001
2.632608e+003, 5.637213e+001
2.634537e+003, 5.632442e+001
2.636465e+003, 5.531047e+001
2.638394e+003, 5.546980e+001
2.640322e+003, 5.623757e+001
2.642251e+003, 5.539208e+001
2.644179e+003, 5.496458e+001
2.646108e+003, 5.489243e+001
2.648036e+003, 5.444525e+001
2.649965e+003, 5.398055e+001
2.651893e+003, 5.362817e+001
2.653822e+003, 5.354694e+001
2.655750e+003, 5.355412e+001
2.657678e+003, 5.319470e+001
2.659607e+003, 5.177485e+001
2.661535e+003, 5.123617e+001
2.663464e+003, 5.133554e+001
2.665392e+003, 5.171777e+001
2.667321e+003, 5.071992e+001
2.669249e+003, 4.968676e+001
2.671178e+003, 4.978449e+001
2.673106e+003, 5.033709e+001
2.675035e+003, 5.045121e+001
2.676963e+003, 4.966909e+001
2.678892e+003, 4.942480e+001
2.680820e+003, 4.925006e+001
2.682749e+003, 4.885933e+001
2.684677e+003, 4.813048e+001
2.686605e+003, 4.750113e+001
2.688534e+003, 4.729734e+001
2.690462e+003, 4.912854e+001
2.692391e+003, 4.944819e+001
2.694319e+003, 4.783964e+001
2.696248e+003, 4.671122e+001
2.698176e+003, 4.671251e+001
2.700105e+003, 4.731110e+001
2.702033e+003, 4.669398e+001
2.703962e+003, 4.607752e+001
2.705890e+003, 4.571383e+001
2.707819e+003, 4.593319e+001
2.709747e+003, 4.489124e+001
2.711676e+003, 4.355967e+001
2.713604e+003, 4.354155e+001
2.715532e+003, 4.370800e+001
2.717461e+003, 4.369881e+001
2.719389e+003, 4.321994e+001
2.721318e+003, 4.281886e+001
2.723246e+003, 4.239901e+001
2.725175e+003, 4.187174e+001
2.727103e+003, 4.201834e+001
2.729032e+003, 4.215552e+001
2.730960e+003, 4.197511e+001
2.732889e+003, 4.158838e+001
2.734817e+003, 4.135738e+001
2.736746e+003, 4.128136e+001
2.738674e+003, 4.084853e+001
2.740603e+003, 4.044141e+001
2.742531e+003, 4.025227e+001
2.744459e+003, 4.067277e+001
2.746388e+003, 4.083205e+001
2.748316e+003, 4.067548e+001
2.750245e+003, 4.021930e+001
2.752173e+003, 3.981953e+001
2.754102e+003, 3.961191e+001
2.756030e+003, 3.968116e+001
2.757959e+003, 3.921600e+001
2.759887e+003, 3.870589e+001
2.761816e+003, 3.838890e+001
2.763744e+003, 3.823610e+001
2.765673e+003, 3.801645e+001
2.767601e+003, 3.779604e+001
2.769530e+003, 3.812770e+001
2.771458e+003, 3.825083e+001
2.773386e+003, 3.807557e+001
2.775315e+003, 3.757932e+001
2.777243e+003, 3.774614e+001
2.779172e+003, 3.773558e+001
2.781100e+003, 3.655923e+001
2.783029e+003, 3.552443e+001
2.784957e+003, 3.526510e+001
2.786886e+003, 3.609015e+001
2.788814e+003, 3.644303e+001
2.790743e+003, 3.643469e+001
2.792671e+003, 3.616733e+001
2.794600e+003, 3.589985e+001
2.796528e+003, 3.557413e+001
2.798457e+003, 3.513272e+001
2.800385e+003, 3.441074e+001
2.802313e+003, 3.434322e+001
2.804242e+003, 3.440826e+001
2.806170e+003, 3.410330e+001
2.808099e+003, 3.351018e+001
2.810027e+003, 3.330903e+001
2.811956e+003, 3.359264e+001
2.813884e+003, 3.318169e+001
2.815813e+003, 3.278025e+001
2.817741e+003, 3.266160e+001
2.819670e+003, 3.327122e+001
2.821598e+003, 3.255812e+001
2.823527e+003, 3.143057e+001
2.825455e+003, 3.141527e+001
2.827384e+003, 3.142274e+001
2.829312e+003, 3.151064e+001
2.831240e+003, 3.172132e+001
2.833169e+003, 3.154439e+001
2.835097e+003, 3.118133e+001
2.837026e+003, 3.075880e+001
2.838954e+003, 3.039972e+001
2.840883e+003, 3.054338e+001
2.842811e+003, 3.075268e+001
2.844740e+003, 3.043127e+001
2.846668e+003, 3.027781e+001
2.848597e+003, 2.992952e+001
2.850525e+003, 2.916593e+001
2.852454e+003, 2.855547e+001
2.854382e+003, 2.888904e+001
2.856311e+003, 2.975198e+001
2.858239e+003, 2.923414e+001
2.860167e+003, 2.868471e+001
2.862096e+003, 2.858332e+001
2.864024e+003, 2.922864e+001
2.865953e+003, 2.834500e+001
2.867881e+003, 2.782965e+001
2.869810e+003, 2.832239e+001
2.871738e+003, 2.816559e+001
2.873667e+003, 2.790407e+001
2.875595e+003, 2.771078e+001
2.877524e+003, 2.772278e+001
2.879452e+003, 2.726390e+001
2.881381e+003, 2.687886e+001
2.883309e+003, 2.702623e+001
2.885238e+003, 2.667407e+001
2.887166e+003, 2.626059e+001
2.889094e+003, 2.607532e+001
2.891023e+003, 2.677141e+001
2.892951e+003, 2.684342e+001
2.894880e+003, 2.635332e+001
2.896808e+003, 2.548943e+001
2.898737e+003, 2.579311e+001
2.900665e+003, 2.591542e+001
2.902594e+003, 2.527760e+001
2.904522e+003, 2.437802e+001
2.906451e+003, 2.478656e+001
2.908379e+003, 2.542220e+001
2.910308e+003, 2.424860e+001
2.912236e+003, 2.437452e+001
2.914165e+003, 2.443659e+001
2.916093e+003, 2.369760e+001
2.918021e+003, 2.413308e+001
2.919950e+003, 2.439649e+001
2.921878e+003, 2.421163e+001
2.923807e+003, 2.366351e+001
2.925735e+003, 2.328284e+001
2.927664e+003, 2.339450e+001
2.929592e+003, 2.395770e+001
2.931521e+003, 2.331336e+001
2.933449e+003, 2.245993e+001
2.935378e+003, 2.197676e+001
2.937306e+003, 2.265244e+001
2.939235e+003, 2.248085e+001
2.941163e+003, 2.226804e+001
2.943092e+003, 2.259553e+001
2.945020e+003, 2.206689e+001
2.946948e+003, 2.163316e+001
2.948877e+003, 2.161429e+001
2.950805e+003, 2.231862e+001
2.952734e+003, 2.233261e+001
2.954662e+003, 2.190434e+001
2.956591e+003, 2.131434e+001
2.958519e+003, 2.084323e+001
2.960448e+003, 2.299946e+001
2.962376e+003, 2.671010e+001
2.964305e+003, 2.969405e+001
2.966233e+003, 2.549942e+001
2.968162e+003, 2.106808e+001
2.970090e+003, 2.027921e+001
2.972019e+003, 2.044688e+001
2.973947e+003, 2.306657e+001
2.975875e+003, 2.472837e+001
2.977804e+003, 2.089634e+001
2.979732e+003, 1.953551e+001
2.981661e+003, 2.085700e+001
2.983589e+003, 2.329309e+001
2.985518e+003, 2.221489e+001
2.987446e+003, 2.073215e+001
2.989375e+003, 1.976284e+001
2.991303e+003, 1.966805e+001
2.993232e+003, 1.886070e+001
2.995160e+003, 1.880721e+001
2.997089e+003, 1.924145e+001
2.999017e+003, 1.851245e+001
3.000946e+003, 1.827362e+001
3.002874e+003, 1.849461e+001
3.004802e+003, 1.899190e+001
3.006731e+003, 1.904728e+001
3.008659e+003, 1.873117e+001
3.010588e+003, 1.839151e+001
3.012516e+003, 1.844604e+001
3.014445e+003, 1.802802e+001
3.016373e+003, 1.783453e+001
3.018302e+003, 1.806833e+001
3.020230e+003, 1.848270e+001
3.022159e+003, 1.882711e+001
3.024087e+003, 1.877177e+001
3.026016e+003, 1.824526e+001
3.027944e+003, 1.837953e+001
3.029873e+003, 1.833698e+001
3.031801e+003, 1.807699e+001
3.033729e+003, 1.780874e+001
3.035658e+003, 1.807424e+001
3.037586e+003, 1.838584e+001
3.039515e+003, 1.846282e+001
3.041443e+003, 1.808210e+001
3.043372e+003, 1.754096e+001
3.045300e+003, 1.756909e+001
3.047229e+003, 1.837523e+001
3.049157e+003, 1.881187e+001
3.051086e+003, 1.847067e+001
3.053014e+003, 1.782526e+001
3.054943e+003, 1.742192e+001
3.056871e+003, 1.812270e+001
3.058800e+003, 1.843039e+001
3.060728e+003, 1.805743e+001
3.062656e+003, 1.709810e+001
3.064585e+003, 1.752345e+001
3.066513e+003, 1.810605e+001
3.068442e+003, 1.828487e+001
3.070370e+003, 1.856078e+001
3.072299e+003, 1.853950e+001
3.074227e+003, 1.835773e+001
3.076156e+003, 1.818954e+001
3.078084e+003, 1.841883e+001
3.080013e+003, 1.877968e+001
3.081941e+003, 1.876891e+001
3.083870e+003, 1.807208e+001
3.085798e+003, 1.880986e+001
3.087727e+003, 1.870007e+001
3.089655e+003, 1.818365e+001
3.091583e+003, 1.907115e+001
3.093512e+003, 1.885813e+001
3.095440e+003, 1.847519e+001
3.097369e+003, 1.831661e+001
3.099297e+003, 1.817314e+001
3.101226e+003, 1.867846e+001
3.103154e+003, 1.931619e+001
3.105083e+003, 1.967420e+001
3.107011e+003, 1.907121e+001
3.108940e+003, 1.986572e+001
3.110868e+003, 2.043778e+001
3.112797e+003, 1.974144e+001
3.114725e+003, 1.989974e+001
3.116654e+003, 2.033541e+001
3.118582e+003, 2.064700e+001
3.120510e+003, 2.059281e+001
3.122439e+003, 2.038053e+001
3.124367e+003, 2.050438e+001
3.126296e+003, 2.074006e+001
3.128224e+003, 2.078671e+001
3.130153e+003, 2.111175e+001
3.132081e+003, 2.151630e+001
3.134010e+003, 2.163886e+001
3.135938e+003, 2.121200e+001
3.137867e+003, 2.233455e+001
3.139795e+003, 2.294634e+001
3.141724e+003, 2.296418e+001
3.143652e+003, 2.326351e+001
3.145581e+003, 2.289699e+001
3.147509e+003, 2.325377e+001
3.149438e+003, 2.402370e+001
3.151366e+003, 2.378584e+001
3.153294e+003, 2.430990e+001
3.155223e+003, 2.434921e+001
3.157151e+003, 2.398051e+001
3.159080e+003, 2.413384e+001
3.161008e+003, 2.518947e+001
3.162937e+003, 2.572064e+001
3.164865e+003, 2.563928e+001
3.166794e+003, 2.598389e+001
3.168722e+003, 2.546211e+001
3.170651e+003, 2.487757e+001
3.172579e+003, 2.470929e+001
3.174508e+003, 2.523394e+001
3.176436e+003, 2.513037e+001
3.178365e+003, 2.495719e+001
3.180293e+003, 2.502912e+001
3.182221e+003, 2.540466e+001
3.184150e+003, 2.579943e+001
3.186078e+003, 2.622541e+001
3.188007e+003, 2.638214e+001
3.189935e+003, 2.570715e+001
3.191864e+003, 2.556148e+001
3.193792e+003, 2.540801e+001
3.195721e+003, 2.527160e+001
3.197649e+003, 2.560082e+001
3.199578e+003, 2.571051e+001
3.201506e+003, 2.620794e+001
3.203435e+003, 2.674763e+001
3.205363e+003, 2.646126e+001
3.207292e+003, 2.653469e+001
3.209220e+003, 2.618259e+001
3.211148e+003, 2.602371e+001
3.213077e+003, 2.730090e+001
3.215005e+003, 2.693375e+001
3.216934e+003, 2.706496e+001
3.218862e+003, 2.758573e+001
3.220791e+003, 2.777502e+001
3.222719e+003, 2.849901e+001
3.224648e+003, 2.873955e+001
3.226576e+003, 2.938204e+001
3.228505e+003, 3.112342e+001
3.230433e+003, 3.066322e+001
3.232362e+003, 3.106649e+001
3.234290e+003, 3.206533e+001
3.236219e+003, 3.303638e+001
3.238147e+003, 3.368264e+001
3.240075e+003, 3.410384e+001
3.242004e+003, 3.479275e+001
3.243932e+003, 3.577189e+001
3.245861e+003, 3.634423e+001
3.247789e+003, 3.654277e+001
3.249718e+003, 3.758295e+001
3.251646e+003, 3.942347e+001
3.253575e+003, 4.100821e+001
3.255503e+003, 4.255613e+001
3.257432e+003, 4.339288e+001
3.259360e+003, 4.406306e+001
3.261289e+003, 4.562593e+001
3.263217e+003, 4.578740e+001
3.265146e+003, 4.651723e+001
3.267074e+003, 4.793746e+001
3.269002e+003, 4.954960e+001
3.270931e+003, 4.917879e+001
3.272859e+003, 4.954793e+001
3.274788e+003, 5.055940e+001
3.276716e+003, 5.166316e+001
3.278645e+003, 5.225927e+001
3.280573e+003, 5.220680e+001
3.282502e+003, 5.224763e+001
3.284430e+003, 5.252611e+001
3.286359e+003, 5.278173e+001
3.288287e+003, 5.744819e+001
3.290216e+003, 6.056197e+001
3.292144e+003, 6.088330e+001
3.294073e+003, 5.941484e+001
3.296001e+003, 5.719017e+001
3.297929e+003, 5.555127e+001
3.299858e+003, 5.461710e+001
3.301786e+003, 5.440404e+001
3.303715e+003, 5.549837e+001
3.305643e+003, 5.608489e+001
3.307572e+003, 5.635302e+001
3.309500e+003, 5.652989e+001
3.311429e+003, 5.674022e+001
3.313357e+003, 5.678759e+001
3.315286e+003, 5.773839e+001
3.317214e+003, 5.878977e+001
3.319143e+003, 5.911430e+001
3.321071e+003, 6.058360e+001
3.323000e+003, 6.174867e+001
3.324928e+003, 6.333849e+001
3.326856e+003, 6.548726e+001
3.328785e+003, 6.725010e+001
3.330713e+003, 6.802757e+001
3.332642e+003, 6.895044e+001
3.334570e+003, 7.031914e+001
3.336499e+003, 7.182839e+001
3.338427e+003, 7.198797e+001
3.340356e+003, 7.239034e+001
3.342284e+003, 7.176011e+001
3.344213e+003, 6.985938e+001
3.346141e+003, 6.840403e+001
3.348070e+003, 6.665970e+001
3.349998e+003, 6.420338e+001
3.351927e+003, 6.197758e+001
3.353855e+003, 6.096269e+001
3.355783e+003, 5.932915e+001
3.357712e+003, 5.683301e+001
3.359640e+003, 5.443138e+001
3.361569e+003, 5.247175e+001
3.363497e+003, 5.024359e+001
3.365426e+003, 4.869509e+001
3.367354e+003, 4.724104e+001
3.369283e+003, 4.856024e+001
3.371211e+003, 5.360462e+001
3.373140e+003, 4.611525e+001
3.375068e+003, 4.261226e+001
3.376997e+003, 4.152505e+001
3.378925e+003, 4.064991e+001
3.380854e+003, 3.973303e+001
3.382782e+003, 3.920599e+001
3.384710e+003, 3.741824e+001
3.386639e+003, 3.651611e+001
3.388567e+003, 3.729544e+001
3.390496e+003, 3.612722e+001
3.392424e+003, 3.414601e+001
3.394353e+003, 3.346489e+001
3.396281e+003, 3.315480e+001
3.398210e+003, 3.169841e+001
3.400138e+003, 3.170795e+001
3.402067e+003, 3.075684e+001
3.403995e+003, 2.957732e+001
3.405924e+003, 2.896829e+001
3.407852e+003, 2.950573e+001
3.409781e+003, 2.824358e+001
3.411709e+003, 2.795585e+001
3.413637e+003, 2.754222e+001
3.415566e+003, 2.646414e+001
3.417494e+003, 2.665805e+001
3.419423e+003, 2.659576e+001
3.421351e+003, 2.663461e+001
3.423280e+003, 2.584638e+001
3.425208e+003, 2.396560e+001
3.427137e+003, 2.397011e+001
3.429065e+003, 2.394545e+001
3.430994e+003, 2.352926e+001
3.432922e+003, 2.283292e+001
3.434851e+003, 2.217190e+001
3.436779e+003, 2.241108e+001
3.438708e+003, 2.157681e+001
3.440636e+003, 2.071653e+001
3.442564e+003, 2.041951e+001
3.444493e+003, 2.058073e+001
3.446421e+003, 1.974112e+001
3.448350e+003, 2.000463e+001
3.450278e+003, 1.991668e+001
3.452207e+003, 1.914258e+001
3.454135e+003, 1.864251e+001
3.456064e+003, 1.902270e+001
##END=



