##NAMES=Chayesite
##RRUFFID=R080059
##IDEAL CHEMISTRY=KMg_4_Fe^3+^[Si_12_O_30_]
##LOCALITY=Pauliberg by Landsee, Burgenland, Austria
##OWNER=RRUFF
##SOURCE=Michael Scott
##DESCRIPTION=Deep blue interior of hexagonal tablets that are reddish brown on the outside
##STATUS=The identification of this mineral is confirmed by single-crystal X-ray diffraction and chemical analysis
##URL=https://www.rruff.net/odr/rruff_sample/R080059
##MEASURED CHEMISTRY=(K_0.70_Na_0.30_)(Mg_2.10_Fe^2+^_1.86_Mn_0.04_)(Fe^3+^_0.89_Al_0.11_)Si_12.00_O_30_ ; lighter core :  Fe^2+^ and Fe^3+^ split by charge balance
##DIFFRACTION SAMPLE DESCRIPTION=Single crystal, powder profile is calculated
##CELL PARAMETERS=a: 10.079 b: 10.079 c: 14.365 alpha: 90 beta: 90 gamma: 120 volume: 1263.7 crystal system: hexagonal
##FILETYPE=Raman Processed
##RAMAN WAVELENGTH=780

132.5884, 10508.92
134.5168, 10509.53
136.4453, 10511.37
138.3738, 10510.29
140.3022, 10497.02
142.2307, 10486.82
144.1592, 10493.85
146.0876, 10510.32
148.0161, 10520.72
149.9446, 10523.87
151.8730, 10523.10
153.8015, 10513.47
155.7300, 10507.33
157.6584, 10513.78
159.5869, 10526.90
161.5154, 10537.73
163.4438, 10545.53
165.3723, 10550.53
167.3008, 10545.88
169.2292, 10545.79
171.1577, 10562.11
173.0862, 10580.96
175.0146, 10585.52
176.9431, 10572.78
178.8716, 10566.16
180.8000, 10569.02
182.7285, 10572.88
184.6570, 10578.76
186.5854, 10582.90
188.5139, 10580.06
190.4424, 10571.43
192.3708, 10571.74
194.2993, 10584.92
196.2278, 10594.55
198.1563, 10592.35
200.0847, 10592.56
202.0132, 10604.92
203.9417, 10624.31
205.8701, 10638.41
207.7986, 10646.07
209.7271, 10654.12
211.6555, 10663.82
213.5840, 10672.69
215.5125, 10679.39
217.4409, 10685.51
219.3694, 10692.97
221.2979, 10701.71
223.2263, 10708.32
225.1548, 10711.47
227.0833, 10716.45
229.0117, 10731.01
230.9402, 10741.37
232.8687, 10732.55
234.7971, 10714.75
236.7256, 10721.08
238.6541, 10751.79
240.5825, 10770.87
242.5110, 10765.17
244.4395, 10759.98
246.3679, 10766.58
248.2964, 10775.72
250.2249, 10775.40
252.1533, 10768.22
254.0818, 10767.68
256.0103, 10776.66
257.9387, 10782.35
259.8672, 10779.96
261.7957, 10775.74
263.7241, 10770.29
265.6526, 10766.12
267.5811, 10769.34
269.5095, 10779.08
271.4380, 10782.87
273.3665, 10772.56
275.2949, 10768.78
277.2234, 10783.24
279.1519, 10797.84
281.0803, 10796.18
283.0088, 10786.26
284.9373, 10783.50
286.8657, 10789.10
288.7942, 10795.09
290.7227, 10800.88
292.6511, 10806.48
294.5796, 10813.13
296.5081, 10818.62
298.4365, 10819.65
300.3650, 10818.37
302.2935, 10820.93
304.2219, 10830.08
306.1504, 10836.09
308.0789, 10833.04
310.0073, 10834.12
311.9358, 10846.43
313.8643, 10861.74
315.7927, 10873.00
317.7212, 10880.68
319.6497, 10888.95
321.5781, 10897.85
323.5066, 10906.95
325.4351, 10919.09
327.3635, 10927.29
329.2920, 10927.74
331.2205, 10924.37
333.1490, 10918.14
335.0774, 10910.75
337.0059, 10912.06
338.9344, 10925.78
340.8628, 10936.05
342.7913, 10940.47
344.7198, 10944.28
346.6482, 10950.80
348.5767, 10956.21
350.5052, 10957.01
352.4336, 10954.26
354.3621, 10950.86
356.2906, 10946.12
358.2190, 10950.75
360.1475, 10972.34
362.0760, 10987.81
364.0044, 10980.30
365.9329, 10971.26
367.8614, 10974.40
369.7898, 10985.39
371.7183, 10994.38
373.6468, 11001.01
375.5752, 11006.92
377.5037, 11012.15
379.4322, 11016.24
381.3606, 11016.89
383.2891, 11019.56
385.2176, 11031.20
387.1460, 11030.66
389.0745, 11045.79
391.0030, 11038.13
392.9314, 11037.12
394.8599, 11043.46
396.7884, 11054.70
398.7168, 11075.96
400.6453, 11093.41
402.5738, 11101.47
404.5022, 11105.29
406.4307, 11107.44
408.3592, 11110.07
410.2876, 11119.63
412.2161, 11136.56
414.1446, 11146.05
416.0730, 11137.01
418.0015, 11138.88
419.9300, 11164.56
421.8584, 11191.38
423.7869, 11210.61
425.7154, 11221.34
427.6438, 11218.74
429.5723, 11207.16
431.5008, 11203.97
433.4292, 11212.27
435.3577, 11222.15
437.2862, 11236.30
439.2146, 11247.70
441.1431, 11253.08
443.0716, 11257.21
445.0000, 11263.82
446.9285, 11270.42
448.8570, 11272.29
450.7854, 11278.97
452.7139, 11284.54
454.6424, 11286.53
456.5708, 11295.42
458.4993, 11294.55
460.4278, 11295.94
462.3562, 11303.49
464.2847, 11314.44
466.2132, 11330.33
468.1416, 11346.19
470.0701, 11351.02
471.9986, 11361.71
473.9270, 11370.97
475.8555, 11371.37
477.7840, 11385.22
479.7124, 11385.95
481.6409, 11387.28
483.5694, 11393.87
485.4978, 11402.95
487.4263, 11415.09
489.3548, 11426.90
491.2832, 11432.40
493.2117, 11439.17
495.1402, 11442.51
497.0686, 11442.03
498.9971, 11442.83
500.9256, 11434.34
502.8540, 11428.16
504.7825, 11426.66
506.7110, 11431.45
508.6394, 11447.81
510.5679, 11466.84
512.4963, 11480.68
514.4248, 11488.78
516.3533, 11485.43
518.2817, 11472.04
520.2102, 11471.66
522.1387, 11489.66
524.0671, 11501.61
525.9956, 11497.31
527.9241, 11493.68
529.8525, 11497.29
531.7810, 11502.21
533.7095, 11504.58
535.6379, 11505.43
537.5664, 11507.19
539.4949, 11508.69
541.4233, 11503.50
543.3518, 11506.71
545.2803, 11511.35
547.2087, 11508.53
549.1372, 11521.96
551.0657, 11524.08
552.9941, 11522.71
554.9226, 11515.33
556.8511, 11511.53
558.7795, 11520.97
560.7080, 11538.18
562.6365, 11556.20
564.5649, 11574.33
566.4934, 11589.57
568.4219, 11600.94
570.3503, 11611.39
572.2788, 11618.74
574.2073, 11627.33
576.1357, 11642.21
578.0643, 11650.70
579.9927, 11641.04
581.9212, 11631.37
583.8497, 11636.80
585.7781, 11648.58
587.7066, 11658.07
589.6351, 11665.35
591.5635, 11669.09
593.4920, 11668.99
595.4205, 11669.41
597.3489, 11668.47
599.2774, 11673.75
601.2059, 11689.98
603.1343, 11703.57
605.0628, 11709.81
606.9913, 11713.87
608.9197, 11715.91
610.8482, 11720.04
612.7767, 11732.27
614.7051, 11736.57
616.6336, 11744.54
618.5621, 11754.14
620.4905, 11759.75
622.4190, 11771.60
624.3475, 11781.29
626.2759, 11788.82
628.2044, 11790.74
630.1329, 11782.85
632.0613, 11778.99
633.9898, 11788.98
635.9183, 11799.32
637.8467, 11803.44
639.7752, 11806.25
641.7037, 11813.22
643.6321, 11821.40
645.5606, 11823.46
647.4891, 11821.47
649.4175, 11825.01
651.3460, 11833.53
653.2745, 11846.59
655.2029, 11864.68
657.1314, 11877.74
659.0599, 11883.07
660.9883, 11884.00
662.9168, 11875.89
664.8453, 11871.32
666.7737, 11874.49
668.7022, 11883.84
670.6307, 11906.65
672.5591, 11929.48
674.4876, 11934.80
676.4161, 11930.07
678.3445, 11926.97
680.2730, 11926.38
682.2015, 11932.10
684.1299, 11943.75
686.0584, 11956.00
687.9869, 11967.64
689.9153, 11979.49
691.8438, 11989.09
693.7723, 12001.54
695.7007, 12022.43
697.6292, 12038.43
699.5577, 12044.98
701.4861, 12045.87
703.4146, 12038.79
705.3431, 12032.08
707.2715, 12030.87
709.2000, 12037.30
711.1285, 12062.91
713.0569, 12097.84
714.9854, 12105.17
716.9139, 12085.10
718.8423, 12075.96
720.7708, 12080.60
722.6993, 12086.71
724.6277, 12097.31
726.5562, 12101.84
728.4847, 12092.49
730.4131, 12093.62
732.3416, 12116.23
734.2701, 12137.93
736.1985, 12148.75
738.1270, 12156.63
740.0555, 12167.14
741.9839, 12175.25
743.9124, 12174.88
745.8409, 12172.03
747.7693, 12173.78
749.6978, 12179.38
751.6263, 12187.15
753.5547, 12197.03
755.4832, 12209.01
757.4117, 12223.10
759.3401, 12234.68
761.2686, 12243.40
763.1971, 12252.56
765.1255, 12262.43
767.0540, 12272.38
768.9825, 12283.69
770.9109, 12289.68
772.8394, 12282.74
774.7679, 12282.40
776.6964, 12300.61
778.6248, 12319.62
780.5533, 12332.28
782.4818, 12343.28
784.4102, 12358.52
786.3387, 12370.54
788.2672, 12366.63
790.1956, 12359.81
792.1241, 12370.47
794.0526, 12391.32
795.9810, 12406.24
797.9095, 12418.06
799.8380, 12435.12
801.7664, 12456.42
803.6949, 12479.45
805.6234, 12503.37
807.5518, 12510.02
809.4803, 12493.98
811.4088, 12492.54
813.3372, 12516.06
815.2657, 12536.21
817.1942, 12548.68
819.1226, 12559.83
821.0511, 12571.45
822.9796, 12579.21
824.9080, 12577.07
826.8365, 12577.56
828.7650, 12590.11
830.6934, 12600.06
832.6219, 12596.21
834.5504, 12591.65
836.4788, 12595.75
838.4073, 12604.08
840.3358, 12616.52
842.2642, 12627.46
844.1927, 12627.85
846.1212, 12623.99
848.0496, 12626.42
849.9781, 12633.13
851.9066, 12639.42
853.8350, 12645.14
855.7635, 12649.62
857.6920, 12652.93
859.6204, 12657.12
861.5489, 12661.95
863.4774, 12668.67
865.4058, 12678.13
867.3343, 12682.35
869.2628, 12679.65
871.1912, 12683.77
873.1197, 12697.58
875.0482, 12709.94
876.9766, 12719.07
878.9051, 12729.10
880.8336, 12739.60
882.7620, 12755.53
884.6905, 12781.56
886.6190, 12802.11
888.5474, 12811.21
890.4759, 12814.85
892.4044, 12810.82
894.3328, 12809.16
896.2613, 12815.85
898.1898, 12823.94
900.1182, 12827.21
902.0467, 12835.19
903.9752, 12863.26
905.9036, 12886.45
907.8321, 12875.70
909.7606, 12860.32
911.6890, 12867.96
913.6175, 12885.83
915.5460, 12904.67
917.4744, 12921.03
919.4029, 12928.82
921.3314, 12942.24
923.2598, 12944.02
925.1883, 12956.94
927.1168, 12959.37
929.0452, 12958.85
930.9737, 12973.61
932.9022, 12996.38
934.8306, 13009.45
936.7591, 13013.86
938.6876, 13013.57
940.6160, 13010.60
942.5445, 13016.09
944.4730, 13029.47
946.4014, 13043.56
948.3299, 13058.46
950.2584, 13062.00
952.1868, 13053.82
954.1153, 13055.98
956.0438, 13070.63
957.9722, 13080.95
959.9007, 13083.13
961.8292, 13097.10
963.7576, 13129.62
965.6861, 13144.59
967.6146, 13158.72
969.5430, 13175.08
971.4715, 13174.09
973.4000, 13194.75
975.3284, 13186.88
977.2569, 13192.80
979.1854, 13222.96
981.1138, 13234.08
983.0423, 13245.32
984.9708, 13264.59
986.8992, 13258.71
988.8277, 13284.13
990.7562, 13278.48
992.6846, 13268.42
994.6131, 13255.04
996.5416, 13253.23
998.4700, 13267.38
1000.398, 13287.36
1002.327, 13314.14
1004.255, 13332.77
1006.184, 13338.70
1008.112, 13340.13
1010.041, 13337.16
1011.969, 13337.59
1013.898, 13343.95
1015.826, 13351.74
1017.755, 13358.21
1019.683, 13370.87
1021.612, 13395.33
1023.540, 13413.65
1025.469, 13415.92
1027.397, 13425.99
1029.325, 13456.99
1031.254, 13479.13
1033.182, 13482.73
1035.111, 13485.04
1037.039, 13490.06
1038.968, 13494.63
1040.896, 13497.06
1042.825, 13501.23
1044.753, 13509.70
1046.682, 13515.28
1048.610, 13508.53
1050.539, 13513.52
1052.467, 13545.94
1054.396, 13568.14
1056.324, 13569.78
1058.252, 13570.59
1060.181, 13570.48
1062.109, 13576.58
1064.038, 13578.36
1065.966, 13578.91
1067.895, 13592.01
1069.823, 13585.67
1071.752, 13603.65
1073.680, 13621.63
1075.609, 13642.85
1077.537, 13653.90
1079.466, 13647.87
1081.394, 13645.85
1083.323, 13650.67
1085.251, 13659.59
1087.180, 13673.41
1089.108, 13687.28
1091.036, 13698.13
1092.965, 13713.46
1094.893, 13722.00
1096.822, 13729.53
1098.750, 13741.36
1100.679, 13742.92
1102.607, 13755.26
1104.536, 13767.56
1106.464, 13782.37
1108.393, 13782.11
1110.321, 13764.48
1112.250, 13760.43
1114.178, 13770.55
1116.107, 13787.47
1118.035, 13810.71
1119.964, 13831.59
1121.892, 13850.20
1123.820, 13866.83
1125.749, 13881.38
1127.677, 13892.04
1129.606, 13901.03
1131.534, 13920.58
1133.463, 13946.59
1135.391, 13964.03
1137.320, 13975.85
1139.248, 13987.05
1141.177, 13999.79
1143.105, 14023.11
1145.034, 14051.47
1146.962, 14074.94
1148.891, 14093.53
1150.819, 14112.38
1152.747, 14126.12
1154.676, 14120.62
1156.604, 14113.36
1158.533, 14124.87
1160.461, 14143.58
1162.390, 14161.11
1164.318, 14176.92
1166.247, 14187.98
1168.175, 14196.10
1170.104, 14198.67
1172.032, 14204.62
1173.961, 14217.72
1175.889, 14236.66
1177.818, 14276.38
1179.746, 14297.99
1181.674, 14276.59
1183.603, 14262.88
1185.531, 14267.84
1187.460, 14280.93
1189.388, 14307.28
1191.317, 14327.36
1193.245, 14333.21
1195.174, 14346.34
1197.102, 14370.97
1199.031, 14382.50
1200.959, 14379.06
1202.888, 14372.13
1204.816, 14361.69
1206.745, 14371.97
1208.673, 14401.86
1210.601, 14432.61
1212.530, 14463.77
1214.458, 14478.80
1216.387, 14505.12
1218.315, 14509.42
1220.244, 14537.47
1222.172, 14539.95
1224.101, 14538.73
1226.029, 14570.79
1227.958, 14602.25
1229.886, 14598.92
1231.815, 14591.00
1233.743, 14597.41
1235.672, 14605.44
1237.600, 14608.41
1239.528, 14618.52
1241.457, 14643.88
1243.385, 14665.04
1245.314, 14669.23
1247.242, 14682.04
1249.171, 14715.04
1251.099, 14736.14
1253.028, 14737.83
1254.956, 14747.93
1256.885, 14770.80
1258.813, 14790.80
1260.742, 14805.30
1262.670, 14812.39
1264.599, 14815.93
1266.527, 14830.20
1268.455, 14852.19
1270.384, 14876.50
1272.312, 14899.28
1274.241, 14911.92
1276.169, 14925.50
1278.098, 14947.33
1280.026, 14972.94
1281.955, 14997.84
1283.883, 15027.87
1285.812, 15076.33
1287.740, 15116.72
1289.669, 15135.46
1291.597, 15148.93
1293.526, 15156.96
1295.454, 15165.29
1297.382, 15172.27
1299.311, 15176.08
1301.239, 15183.35
1303.168, 15184.25
1305.096, 15191.08
1307.025, 15200.87
1308.953, 15212.84
1310.882, 15223.69
1312.810, 15235.67
1314.739, 15253.92
1316.667, 15275.16
1318.596, 15295.67
1320.524, 15315.18
1322.453, 15330.44
1324.381, 15345.03
1326.309, 15362.19
1328.238, 15376.44
1330.166, 15384.13
1332.095, 15391.49
1334.023, 15400.04
1335.952, 15416.86
1337.880, 15444.39
1339.809, 15458.81
1341.737, 15460.27
1343.666, 15467.19
1345.594, 15476.62
1347.523, 15480.97
1349.451, 15488.52
1351.380, 15515.31
1353.308, 15549.30
1355.236, 15581.64
1357.165, 15608.28
1359.093, 15621.15
1361.022, 15632.93
1362.950, 15648.54
1364.879, 15660.63
1366.807, 15665.26
1368.736, 15684.17
1370.664, 15722.03
1372.593, 15746.21
1374.521, 15756.31
1376.450, 15764.03
1378.378, 15772.54
1380.307, 15790.50
1382.235, 15812.74
1384.163, 15830.99
1386.092, 15848.79
1388.020, 15870.52
1389.949, 15893.62
1391.877, 15913.93
1393.806, 15938.41
1395.734, 15978.13
1397.663, 16008.41
1399.591, 16011.33
1401.520, 16021.87
1403.448, 16050.63
1405.377, 16063.31
1407.305, 16059.48
1409.234, 16073.08
1411.162, 16100.36
1413.090, 16124.22
1415.019, 16143.86
1416.947, 16162.72
1418.876, 16184.77
1420.804, 16200.76
1422.733, 16215.42
1424.661, 16234.52
1426.590, 16243.20
1428.518, 16260.85
1430.447, 16280.93
1432.375, 16306.44
1434.304, 16318.15
1436.232, 16340.58
1438.161, 16359.10
1440.089, 16376.74
1442.017, 16397.81
1443.946, 16417.96
1445.874, 16440.33
1447.803, 16462.09
1449.731, 16488.56
1451.660, 16513.68
1453.588, 16541.28
1455.517, 16554.42
1457.445, 16548.50
1459.374, 16545.75
1461.302, 16548.77
1463.231, 16559.83
1465.159, 16562.03
1467.088, 16576.40
1469.016, 16578.61
1470.944, 16589.83
1472.873, 16603.99
1474.801, 16616.64
1476.730, 16628.53
1478.658, 16647.70
1480.587, 16658.98
1482.515, 16651.42
1484.444, 16648.45
1486.372, 16661.47
1488.301, 16698.30
1490.229, 16735.46
1492.158, 16744.47
1494.086, 16749.47
1496.015, 16762.93
1497.943, 16777.97
1499.871, 16799.56
1501.800, 16823.46
1503.728, 16847.83
1505.657, 16855.07
1507.585, 16870.59
1509.514, 16879.94
1511.442, 16882.80
1513.371, 16890.15
1515.299, 16887.14
1517.228, 16883.34
1519.156, 16893.37
1521.085, 16933.26
1523.013, 16965.36
1524.942, 16977.61
1526.870, 16985.29
1528.798, 16986.97
1530.727, 17005.14
1532.655, 17032.68
1534.584, 17053.03
1536.512, 17070.55
1538.441, 17076.59
1540.369, 17095.09
1542.298, 17112.28
1544.226, 17124.08
1546.155, 17153.99
1548.083, 17157.63
1550.012, 17183.38
1551.940, 17210.36
1553.869, 17241.40
1555.797, 17252.63
1557.725, 17248.70
1559.654, 17252.52
1561.582, 17266.71
1563.511, 17281.52
1565.439, 17289.21
1567.368, 17296.67
1569.296, 17304.85
1571.225, 17312.17
1573.153, 17323.65
1575.082, 17337.17
1577.010, 17365.34
1578.939, 17392.61
1580.867, 17397.40
1582.796, 17395.00
1584.724, 17379.30
1586.652, 17389.18
1588.581, 17431.19
1590.509, 17458.73
1592.438, 17468.68
1594.366, 17467.87
1596.295, 17463.54
1598.223, 17455.01
1600.152, 17455.17
1602.080, 17476.84
1604.009, 17500.54
1605.937, 17522.16
1607.866, 17522.26
1609.794, 17504.67
1611.723, 17503.61
1613.651, 17516.53
1615.579, 17543.81
1617.508, 17563.72
1619.436, 17559.80
1621.365, 17556.14
1623.293, 17558.94
1625.222, 17572.53
1627.150, 17593.14
1629.079, 17612.47
1631.007, 17630.97
1632.936, 17647.81
1634.864, 17666.77
1636.793, 17683.07
1638.721, 17688.53
1640.650, 17689.52
1642.578, 17698.92
1644.506, 17713.89
1646.435, 17726.07
1648.363, 17733.19
1650.292, 17747.57
1652.220, 17760.57
1654.149, 17773.93
1656.077, 17789.96
1658.006, 17801.48
1659.934, 17823.93
1661.863, 17826.85
1663.791, 17836.52
1665.720, 17850.11
1667.648, 17869.59
1669.577, 17890.79
1671.505, 17898.36
1673.433, 17906.75
1675.362, 17926.71
1677.290, 17946.41
1679.219, 17955.38
1681.147, 17969.10
1683.076, 17988.80
1685.004, 17994.35
1686.933, 17997.28
1688.861, 18011.90
1690.790, 18034.77
1692.718, 18060.69
1694.647, 18068.73
1696.575, 18082.74
1698.504, 18079.33
1700.432, 18095.25
1702.360, 18092.39
1704.289, 18095.01
1706.217, 18112.11
1708.146, 18122.23
1710.074, 18132.28
1712.003, 18126.39
1713.931, 18121.81
1715.860, 18138.69
1717.788, 18152.06
1719.717, 18141.10
1721.645, 18148.77
1723.574, 18183.36
1725.502, 18200.52
1727.431, 18201.23
1729.359, 18186.41
1731.287, 18176.42
1733.216, 18179.33
1735.144, 18180.49
1737.073, 18178.12
1739.001, 18190.90
1740.930, 18216.29
1742.858, 18242.27
1744.787, 18262.83
1746.715, 18267.40
1748.644, 18273.90
1750.572, 18277.53
1752.501, 18282.76
1754.429, 18297.01
1756.358, 18298.53
1758.286, 18294.71
1760.214, 18325.71
1762.143, 18347.21
1764.071, 18321.89
1766.000, 18319.82
1767.928, 18347.43
1769.857, 18355.80
1771.785, 18363.26
1773.714, 18399.89
1775.642, 18429.23
1777.571, 18436.42
1779.499, 18434.83
1781.428, 18444.82
1783.356, 18461.29
1785.285, 18466.46
1787.213, 18476.12
1789.141, 18487.24
1791.070, 18498.72
1792.998, 18508.11
1794.927, 18504.54
1796.855, 18501.71
1798.784, 18506.28
1800.712, 18517.78
1802.641, 18526.61
1804.569, 18518.47
1806.498, 18514.69
1808.426, 18530.01
1810.355, 18549.35
1812.283, 18564.89
1814.212, 18574.75
1816.140, 18578.82
1818.068, 18592.23
1819.997, 18604.92
1821.925, 18604.67
1823.854, 18611.23
1825.782, 18621.85
1827.711, 18619.12
1829.639, 18610.69
1831.568, 18603.06
1833.496, 18606.63
1835.425, 18613.63
1837.353, 18613.29
1839.282, 18611.84
1841.210, 18609.77
1843.139, 18591.48
1845.067, 18595.24
1846.995, 18580.96
1848.924, 18563.80
1850.852, 18564.51
1852.781, 18561.27
1854.709, 18550.00
1856.638, 18553.62
1858.566, 18575.10
1860.495, 18581.10
1862.423, 18576.69
1864.352, 18584.50
1866.280, 18591.47
1868.209, 18582.95
1870.137, 18582.96
1872.066, 18592.00
1873.994, 18602.60
1875.922, 18607.82
1877.851, 18591.13
1879.779, 18578.81
1881.708, 18591.75
1883.636, 18594.51
1885.565, 18581.83
1887.493, 18588.84
1889.422, 18598.93
1891.350, 18602.09
1893.279, 18588.80
1895.207, 18563.09
1897.136, 18553.01
1899.064, 18552.54
1900.993, 18563.97
1902.921, 18568.61
1904.849, 18557.42
1906.778, 18556.32
1908.706, 18564.01
1910.635, 18559.14
1912.563, 18556.41
1914.492, 18583.25
1916.420, 18596.23
1918.349, 18594.11
1920.277, 18597.54
1922.206, 18583.98
1924.134, 18579.65
1926.063, 18596.72
1927.991, 18609.94
1929.920, 18607.99
1931.848, 18604.11
1933.776, 18603.50
1935.705, 18613.26
1937.633, 18619.86
1939.562, 18630.96
1941.490, 18649.50
1943.419, 18658.54
1945.347, 18663.39
1947.276, 18663.48
1949.204, 18650.88
1951.133, 18646.79
1953.061, 18630.88
1954.990, 18610.52
1956.918, 18599.69
1958.847, 18594.83
1960.775, 18591.63
1962.703, 18595.01
1964.632, 18592.68
1966.560, 18590.62
1968.489, 18590.66
1970.417, 18585.54
1972.346, 18586.90
1974.274, 18585.24
1976.203, 18581.49
1978.131, 18576.21
1980.060, 18561.96
1981.988, 18558.97
1983.917, 18562.44
1985.845, 18572.81
1987.774, 18582.58
1989.702, 18572.26
1991.630, 18557.86
1993.559, 18551.41
1995.487, 18567.00
1997.416, 18579.72
1999.344, 18556.33
2001.273, 18537.62
2003.201, 18541.07
2005.130, 18530.40
2007.058, 18515.40
2008.987, 18492.40
2010.915, 18476.87
2012.844, 18476.87
2014.772, 18480.80
2016.701, 18490.57
2018.629, 18491.02
2020.557, 18477.97
2022.486, 18462.03
2024.414, 18473.31
2026.343, 18476.05
2028.271, 18441.72
2030.200, 18428.21
2032.128, 18439.32
2034.057, 18442.22
2035.985, 18432.38
2037.914, 18410.17
2039.842, 18393.92
2041.771, 18381.71
2043.699, 18377.43
2045.628, 18385.96
2047.556, 18385.55
2049.484, 18381.55
2051.413, 18379.89
2053.341, 18366.60
2055.270, 18346.24
2057.198, 18334.02
2059.127, 18314.72
2061.055, 18310.12
2062.984, 18308.14
2064.912, 18300.42
2066.841, 18288.58
2068.769, 18287.85
2070.698, 18274.69
2072.626, 18280.44
2074.555, 18264.13
2076.483, 18257.51
2078.412, 18243.16
2080.340, 18236.29
2082.269, 18219.18
2084.197, 18221.54
2086.125, 18220.00
2088.054, 18209.45
2089.982, 18182.70
2091.911, 18161.68
2093.839, 18144.54
2095.768, 18126.43
2097.696, 18119.45
2099.625, 18116.52
2101.553, 18092.79
2103.482, 18059.04
2105.410, 18041.25
2107.339, 18057.93
2109.267, 18085.50
2111.196, 18097.76
2113.124, 18102.00
2115.052, 18077.91
2116.981, 18050.90
2118.909, 18035.31
2120.838, 18019.07
2122.766, 18005.44
2124.695, 17995.45
2126.623, 17982.70
2128.552, 17970.64
2130.480, 17961.69
2132.409, 17949.22
2134.337, 17938.13
2136.266, 17933.54
2138.194, 17935.00
2140.123, 17935.94
2142.051, 17933.64
2143.979, 17925.46
2145.908, 17901.27
2147.836, 17903.55
2149.765, 17890.32
2151.693, 17878.06
2153.622, 17886.69
2155.550, 17880.05
2157.479, 17839.99
2159.407, 17802.46
2161.336, 17793.73
2163.264, 17791.33
2165.193, 17778.08
2167.121, 17755.33
2169.050, 17733.98
2170.978, 17728.34
2172.906, 17735.72
2174.835, 17738.32
2176.763, 17731.68
2178.692, 17711.19
2180.620, 17706.34
2182.549, 17671.82
2184.477, 17672.04
2186.406, 17652.12
2188.334, 17615.80
2190.263, 17606.26
2192.191, 17607.75
2194.120, 17606.56
2196.048, 17589.29
2197.977, 17564.87
2199.905, 17551.40
2201.833, 17536.66
2203.762, 17513.18
2205.690, 17506.72
2207.619, 17502.77
2209.547, 17484.53
2211.476, 17471.42
2213.404, 17469.61
2215.333, 17462.39
2217.261, 17452.40
2219.190, 17435.92
2221.118, 17433.02
2223.047, 17413.34
2224.975, 17400.92
2226.904, 17398.92
2228.832, 17386.16
2230.760, 17341.82
2232.689, 17291.72
2234.617, 17274.04
2236.546, 17275.82
2238.474, 17271.21
2240.403, 17257.67
2242.331, 17253.94
2244.260, 17232.36
2246.188, 17232.54
2248.117, 17224.84
2250.045, 17207.17
2251.974, 17185.09
2253.902, 17164.20
2255.831, 17148.76
2257.759, 17121.64
2259.688, 17086.66
2261.616, 17091.72
2263.544, 17096.10
2265.473, 17078.96
2267.401, 17049.89
2269.330, 17032.87
2271.258, 17020.11
2273.187, 16988.14
2275.115, 16965.36
2277.044, 16970.30
2278.972, 16971.25
2280.901, 16958.95
2282.829, 16948.27
2284.758, 16934.48
2286.686, 16938.63
2288.615, 16929.11
2290.543, 16906.22
2292.471, 16882.99
2294.400, 16857.53
2296.328, 16831.10
2298.257, 16803.20
2300.185, 16776.74
2302.114, 16748.86
2304.042, 16724.22
2305.971, 16706.56
2307.899, 16686.01
2309.828, 16657.56
2311.756, 16648.46
2313.685, 16653.61
2315.613, 16623.85
2317.542, 16615.72
2319.470, 16595.68
2321.398, 16574.75
2323.327, 16547.89
2325.255, 16515.91
2327.184, 16484.97
2329.112, 16456.20
2331.041, 16421.50
2332.969, 16399.73
2334.898, 16369.59
2336.826, 16359.59
2338.755, 16349.98
2340.683, 16340.70
2342.612, 16325.18
2344.540, 16306.72
2346.469, 16292.10
2348.397, 16267.21
2350.325, 16241.57
2352.254, 16221.84
2354.182, 16205.92
2356.111, 16198.34
2358.039, 16184.39
2359.968, 16179.99
2361.896, 16178.44
2363.825, 16170.03
2365.753, 16153.12
2367.682, 16117.80
2369.610, 16110.43
2371.539, 16086.48
2373.467, 16060.95
2375.396, 16044.89
2377.324, 16027.18
2379.252, 16005.40
2381.181, 15998.77
2383.109, 15989.03
2385.038, 15969.38
2386.966, 15960.41
2388.895, 15961.09
2390.823, 15937.49
2392.752, 15926.01
2394.680, 15908.60
2396.609, 15884.66
2398.537, 15863.98
2400.466, 15835.03
2402.394, 15813.25
2404.323, 15781.82
2406.251, 15767.67
2408.179, 15742.88
2410.108, 15724.70
2412.036, 15694.82
2413.965, 15677.31
2415.893, 15631.25
2417.822, 15585.31
2419.750, 15551.56
2421.679, 15518.36
2423.607, 15479.38
2425.536, 15461.09
2427.464, 15445.07
2429.393, 15422.39
2431.321, 15388.88
2433.250, 15361.53
2435.178, 15335.75
2437.106, 15308.77
2439.035, 15282.62
2440.963, 15257.40
2442.892, 15229.00
2444.820, 15197.00
2446.749, 15167.47
2448.677, 15146.34
2450.606, 15122.41
2452.534, 15095.23
2454.463, 15069.51
2456.391, 15045.76
2458.320, 15021.97
2460.248, 14984.42
2462.177, 14955.17
2464.105, 14932.17
2466.033, 14910.28
2467.962, 14888.38
2469.890, 14863.05
2471.819, 14838.07
2473.747, 14818.57
2475.676, 14796.69
2477.604, 14780.18
2479.533, 14760.37
2481.461, 14743.66
2483.390, 14719.66
2485.318, 14694.24
2487.247, 14670.01
2489.175, 14637.30
2491.104, 14610.32
2493.032, 14580.67
2494.960, 14546.77
2496.889, 14529.70
2498.817, 14508.80
2500.746, 14479.47
2502.674, 14472.60
2504.603, 14445.90
2506.531, 14421.37
2508.460, 14371.72
2510.388, 14364.11
2512.317, 14335.41
2514.245, 14297.97
2516.174, 14277.47
2518.102, 14255.04
2520.031, 14229.96
2521.959, 14215.86
2523.887, 14208.82
2525.816, 14193.52
2527.744, 14161.91
2529.673, 14135.67
2531.601, 14111.87
2533.530, 14091.77
2535.458, 14052.60
2537.387, 14018.13
2539.315, 14009.55
2541.244, 13994.25
2543.172, 13976.18
2545.101, 13959.53
2547.029, 13941.34
2548.958, 13923.25
2550.886, 13899.83
2552.814, 13872.22
2554.743, 13853.99
2556.671, 13854.68
2558.600, 13846.46
2560.528, 13821.08
2562.457, 13796.29
2564.385, 13767.84
2566.314, 13723.27
2568.242, 13685.92
2570.171, 13663.22
2572.099, 13643.76
2574.028, 13606.58
2575.956, 13570.15
2577.885, 13538.03
2579.813, 13501.63
2581.741, 13463.18
2583.670, 13437.76
2585.598, 13407.88
2587.527, 13365.25
2589.455, 13330.25
2591.384, 13310.84
2593.312, 13275.04
2595.241, 13237.17
2597.169, 13200.25
2599.098, 13165.47
2601.026, 13138.09
2602.955, 13112.46
2604.883, 13080.07
2606.812, 13038.61
2608.740, 13006.82
2610.668, 12996.22
2612.597, 12988.37
2614.525, 12955.38
2616.454, 12918.45
2618.382, 12887.96
2620.311, 12849.25
2622.239, 12820.09
2624.168, 12777.10
2626.096, 12736.14
2628.025, 12707.48
2629.953, 12683.63
2631.882, 12655.89
2633.810, 12613.03
2635.739, 12566.01
2637.667, 12543.11
2639.595, 12515.44
2641.524, 12491.73
2643.452, 12469.96
2645.381, 12437.71
2647.309, 12418.12
2649.238, 12411.42
2651.166, 12380.95
2653.095, 12344.93
2655.023, 12291.33
2656.952, 12236.55
2658.880, 12196.78
2660.809, 12174.74
2662.737, 12146.64
2664.666, 12113.24
2666.594, 12072.30
2668.522, 12036.21
2670.451, 11994.28
2672.379, 11955.27
2674.308, 11936.54
2676.236, 11914.92
2678.165, 11877.98
2680.093, 11854.15
2682.022, 11806.71
2683.950, 11786.95
2685.879, 11745.95
2687.807, 11699.21
2689.736, 11664.36
2691.664, 11621.53
2693.593, 11577.82
2695.521, 11543.30
2697.449, 11495.54
2699.378, 11458.87
2701.306, 11429.78
2703.235, 11390.58
2705.163, 11344.74
2707.092, 11306.56
2709.020, 11274.62
2710.949, 11241.08
2712.877, 11210.60
2714.806, 11188.19
2716.734, 11162.21
2718.663, 11130.55
2720.591, 11099.12
2722.520, 11063.83
2724.448, 11028.34
2726.376, 10988.66
2728.305, 10952.99
2730.233, 10915.44
2732.162, 10879.20
2734.090, 10838.08
2736.019, 10813.06
2737.947, 10758.06
2739.876, 10721.10
2741.804, 10688.71
2743.733, 10662.83
2745.661, 10621.63
2747.590, 10590.93
2749.518, 10565.48
2751.447, 10530.01
2753.375, 10498.60
2755.303, 10474.86
2757.232, 10453.71
2759.160, 10418.91
2761.089, 10389.81
2763.017, 10369.79
2764.946, 10317.49
2766.874, 10265.97
2768.803, 10218.08
2770.731, 10190.85
2772.660, 10150.45
2774.588, 10141.46
2776.517, 10094.06
2778.445, 10067.18
2780.374, 10049.54
2782.302, 9999.637
2784.230, 9963.671
2786.159, 9927.041
2788.087, 9886.261
2790.016, 9853.212
2791.944, 9813.708
2793.873, 9787.460
2795.801, 9755.116
2797.730, 9728.714
2799.658, 9702.982
2801.587, 9658.235
2803.515, 9640.122
2805.444, 9622.268
2807.372, 9558.694
2809.301, 9536.136
2811.229, 9520.393
2813.157, 9472.190
2815.086, 9438.465
2817.014, 9405.620
2818.943, 9370.018
2820.871, 9334.461
2822.800, 9297.589
2824.728, 9257.793
2826.657, 9219.720
2828.585, 9173.933
2830.514, 9130.034
2832.442, 9098.701
2834.371, 9068.632
2836.299, 9031.182
2838.228, 8980.150
2840.156, 8938.883
2842.084, 8904.053
2844.013, 8867.649
2845.941, 8824.049
2847.870, 8784.697
2849.798, 8749.175
2851.727, 8710.598
2853.655, 8670.447
2855.584, 8633.365
2857.512, 8588.421
2859.441, 8554.428
2861.369, 8512.150
2863.298, 8468.175
2865.226, 8439.957
2867.155, 8409.316
2869.083, 8371.426
2871.011, 8336.096
2872.940, 8303.479
2874.868, 8278.944
2876.797, 8267.621
2878.725, 8221.627
2880.654, 8184.956
2882.582, 8166.938
2884.511, 8119.091
2886.439, 8083.352
2888.368, 8051.096
2890.296, 7991.056
2892.225, 7955.214
2894.153, 7925.745
2896.082, 7889.987
2898.010, 7856.689
2899.938, 7820.737
2901.867, 7782.551
2903.795, 7739.664
2905.724, 7706.887
2907.652, 7671.817
2909.581, 7618.404
2911.509, 7575.413
2913.438, 7540.854
2915.366, 7511.995
2917.295, 7486.384
2919.223, 7453.560
2921.152, 7426.929
2923.080, 7390.591
2925.009, 7368.818
2926.937, 7342.230
2928.865, 7310.271
2930.794, 7278.084
2932.722, 7259.828
2934.651, 7242.779
2936.579, 7208.141
2938.508, 7170.267
2940.436, 7137.241
2942.365, 7103.869
2944.293, 7072.931
2946.222, 7041.483
2948.150, 7018.174
2950.079, 6991.536
2952.007, 6956.716
2953.936, 6926.350
2955.864, 6888.005
2957.792, 6855.484
2959.721, 6823.205
2961.649, 6786.013
2963.578, 6759.895
2965.506, 6719.897
2967.435, 6704.818
2969.363, 6684.663
2971.292, 6655.714
2973.220, 6610.459
2975.149, 6589.947
2977.077, 6547.395
2979.006, 6501.415
2980.934, 6464.230
2982.863, 6439.749
2984.791, 6407.441
2986.719, 6380.162
2988.648, 6352.631
2990.576, 6316.546
2992.505, 6285.025
2994.433, 6258.163
2996.362, 6234.856
2998.290, 6202.440
3000.219, 6179.177
3002.147, 6152.820
3004.076, 6111.722
3006.004, 6090.876
3007.933, 6066.052
3009.861, 6035.624
3011.790, 6018.259
3013.718, 5986.138
3015.646, 5951.051
3017.575, 5921.313
3019.503, 5892.442
3021.432, 5862.839
3023.360, 5834.649
3025.289, 5815.936
3027.217, 5780.334
3029.146, 5747.822
3031.074, 5716.565
3033.003, 5676.528
3034.931, 5646.898
3036.860, 5619.186
3038.788, 5581.153
3040.717, 5549.427
3042.645, 5516.369
3044.573, 5481.632
3046.502, 5448.781
3048.430, 5415.761
3050.359, 5389.228
3052.287, 5355.858
3054.216, 5325.900
3056.144, 5292.714
3058.073, 5262.783
3060.001, 5229.151
3061.930, 5192.783
3063.858, 5165.522
3065.787, 5147.560
3067.715, 5134.984
3069.644, 5118.042
3071.572, 5096.375
3073.500, 5070.982
3075.429, 5040.031
3077.357, 5030.269
3079.286, 5025.595
3081.214, 5010.882
3083.143, 4972.937
3085.071, 4942.645
3087.000, 4918.280
3088.928, 4891.917
3090.857, 4857.035
3092.785, 4827.013
3094.714, 4802.624
3096.642, 4777.286
3098.571, 4765.499
3100.499, 4741.010
3102.427, 4704.459
3104.356, 4693.550
3106.284, 4667.475
3108.213, 4631.183
3110.141, 4594.062
3112.070, 4570.757
3113.998, 4544.307
3115.927, 4514.938
3117.855, 4485.073
3119.784, 4462.183
3121.712, 4436.836
3123.641, 4408.003
3125.569, 4375.161
3127.498, 4350.599
3129.426, 4326.149
3131.354, 4302.376
3133.283, 4277.241
3135.211, 4254.120
3137.140, 4227.060
3139.068, 4204.740
3140.997, 4179.186
3142.925, 4150.896
3144.854, 4120.772
3146.782, 4091.223
3148.711, 4066.052
3150.639, 4051.986
3152.568, 4041.653
3154.496, 4027.913
3156.425, 3997.884
3158.353, 3971.751
3160.281, 3941.382
3162.210, 3903.861
3164.138, 3881.005
3166.067, 3846.048
3167.995, 3816.685
3169.924, 3801.923
3171.852, 3776.482
3173.781, 3757.019
3175.709, 3732.742
3177.638, 3697.130
3179.566, 3671.795
3181.495, 3636.317
3183.423, 3602.025
3185.352, 3576.150
3187.280, 3531.989
3189.208, 3510.524
3191.137, 3494.927
3193.065, 3464.665
3194.994, 3421.044
3196.922, 3388.094
3198.851, 3364.747
3200.779, 3346.143
3202.708, 3321.740
3204.636, 3290.202
3206.565, 3262.310
3208.493, 3245.688
3210.422, 3218.428
3212.350, 3204.295
3214.279, 3175.672
3216.207, 3154.858
3218.135, 3135.335
3220.064, 3112.021
3221.992, 3088.629
3223.921, 3065.820
3225.849, 3044.257
3227.778, 3029.615
3229.706, 3013.419
3231.635, 2991.812
3233.563, 2977.698
3235.492, 2960.885
3237.420, 2935.028
3239.349, 2929.198
3241.277, 2912.448
3243.206, 2893.876
3245.134, 2871.481
3247.063, 2846.288
3248.991, 2829.364
3250.919, 2800.500
3252.848, 2791.756
3254.776, 2778.806
3256.705, 2759.336
3258.633, 2740.987
3260.562, 2725.996
3262.490, 2707.660
3264.419, 2697.058
3266.347, 2675.636
3268.276, 2661.583
3270.204, 2648.813
3272.133, 2631.099
3274.061, 2625.483
3275.990, 2615.047
3277.918, 2599.911
3279.846, 2586.321
3281.775, 2591.113
3283.703, 2577.673
3285.632, 2566.987
3287.560, 2564.999
3289.489, 2546.761
3291.417, 2538.958
3293.346, 2525.208
3295.274, 2507.091
3297.203, 2499.042
3299.131, 2486.834
3301.060, 2482.869
3302.988, 2472.225
3304.917, 2460.960
3306.845, 2445.997
3308.773, 2438.967
3310.702, 2428.094
3312.630, 2421.109
3314.559, 2415.600
3316.487, 2396.014
3318.416, 2383.026
3320.344, 2372.763
3322.273, 2346.418
3324.201, 2337.825
3326.130, 2323.752
3328.058, 2303.580
3329.987, 2283.634
3331.915, 2274.600
3333.844, 2255.879
3335.772, 2235.385
3337.700, 2217.363
3339.629, 2193.023
3341.557, 2182.668
3343.486, 2166.156
3345.414, 2143.892
3347.343, 2126.188
3349.271, 2122.797
3351.200, 2118.194
3353.128, 2113.560
3355.057, 2109.538
3356.985, 2101.580
3358.914, 2088.003
3360.842, 2084.024
3362.771, 2072.663
3364.699, 2060.979
3366.627, 2057.684
3368.556, 2054.331
3370.484, 2045.160
3372.413, 2038.721
3374.341, 2027.270
3376.270, 2016.967
3378.198, 1999.587
3380.127, 1979.970
3382.055, 1964.016
3383.984, 1961.268
3385.912, 1944.449
3387.841, 1934.749
3389.769, 1942.215
3391.698, 1939.148
3393.626, 1927.021
3395.554, 1908.383
3397.483, 1893.729
3399.411, 1891.741
3401.340, 1878.957
3403.268, 1864.279
3405.197, 1859.820
3407.125, 1860.809
3409.054, 1840.604
3410.982, 1844.559
3412.911, 1833.345
3414.839, 1816.518
3416.768, 1810.589
3418.696, 1807.176
3420.625, 1811.783
3422.553, 1808.414
3424.481, 1799.448
3426.410, 1796.052
3428.338, 1796.024
3430.267, 1795.539
3432.195, 1792.704
3434.124, 1785.053
3436.052, 1769.940
3437.981, 1753.282
3439.909, 1743.873
3441.838, 1743.844
3443.766, 1746.911
3445.695, 1732.748
3447.623, 1727.479
3449.552, 1714.972
3451.480, 1700.085
3453.408, 1691.508
3455.337, 1680.574
3457.265, 1674.151
3459.194, 1669.603
3461.122, 1655.577
3463.051, 1641.152
3464.979, 1616.863
3466.908, 1603.377
3468.836, 1584.789
3470.765, 1564.479
3472.693, 1545.480
3474.622, 1536.375
3476.550, 1527.430
3478.479, 1506.912
3480.407, 1485.413
3482.335, 1490.334
3484.264, 1473.377
3486.192, 1460.250
3488.121, 1458.022
3490.049, 1458.976
3491.978, 1446.792
3493.906, 1436.257
3495.835, 1428.827
3497.763, 1424.851
3499.692, 1423.784
3501.620, 1423.984
3503.549, 1428.877
3505.477, 1416.908
3507.406, 1407.779
3509.334, 1409.135
3511.262, 1409.968
3513.191, 1401.369
3515.119, 1398.933
3517.048, 1400.391
3518.976, 1395.833
3520.905, 1390.019
3522.833, 1373.835
3524.762, 1373.555
3526.690, 1366.035
3528.619, 1355.372
3530.547, 1350.524
3532.476, 1338.688
3534.404, 1315.195
3536.333, 1304.043
3538.261, 1299.611
3540.189, 1286.721
3542.118, 1285.246
3544.046, 1274.754
3545.975, 1262.265
3547.903, 1251.322
3549.832, 1242.285
3551.760, 1235.517
3553.689, 1229.864
3555.617, 1219.188
3557.546, 1222.180
3559.474, 1210.672
3561.403, 1205.781
3563.331, 1210.806
3565.260, 1203.763
3567.188, 1193.915
3569.116, 1189.372
3571.045, 1181.050
3572.973, 1174.095
3574.902, 1168.727
3576.830, 1161.544
3578.759, 1159.400
3580.687, 1156.150
3582.616, 1157.553
3584.544, 1151.309
3586.473, 1144.902
3588.401, 1137.411
3590.330, 1129.523
3592.258, 1119.604
3594.187, 1109.807
3596.115, 1097.662
3598.043, 1086.399
3599.972, 1074.367
3601.900, 1059.224
3603.829, 1054.871
3605.757, 1033.209
3607.686, 1022.136
3609.614, 1019.446
3611.543, 1015.397
3613.471, 1008.562
3615.400, 997.9238
3617.328, 984.6896
3619.257, 977.2910
3621.185, 972.3580
3623.114, 963.6329
3625.042, 962.0685
3626.970, 942.9877
3628.899, 936.1981
3630.827, 935.8773
3632.756, 933.7885
3634.684, 932.1072
3636.613, 932.7755
3638.541, 933.3410
3640.470, 931.5581
3642.398, 938.7915
3644.327, 941.5782
3646.255, 948.1066
3648.184, 949.2914
3650.112, 949.1883
3652.041, 942.0712
3653.969, 937.0402
3655.897, 940.9621
3657.826, 930.5379
3659.754, 935.6436
3661.683, 935.5293
3663.611, 928.8508
3665.540, 920.2067
3667.468, 911.5018
3669.397, 898.1756
3671.325, 882.7693
3673.254, 870.6497
3675.182, 863.9723
3677.111, 858.3368
3679.039, 848.1952
3680.968, 845.7454
3682.896, 837.0880
3684.824, 827.5744
3686.753, 815.9936
3688.681, 806.4070
3690.610, 805.6633
3692.538, 796.4901
3694.467, 789.0704
3696.395, 776.4408
3698.324, 769.9752
3700.252, 766.5739
3702.181, 753.4205
3704.109, 750.6616
3706.038, 752.3561
3707.966, 751.8260
3709.895, 747.4462
3711.823, 742.1694
3713.751, 739.1665
3715.680, 735.9608
3717.608, 726.9729
3719.537, 727.1444
3721.465, 724.8705
3723.394, 717.8485
3725.322, 711.8582
3727.251, 708.3201
3729.179, 707.3859
3731.108, 704.1045
3733.036, 698.1745
3734.965, 691.8522
3736.893, 685.9828
3738.822, 678.9086
3740.750, 671.1583
3742.678, 659.6321
3744.607, 653.9738
3746.535, 648.0120
3748.464, 641.6239
3750.392, 640.1848
3752.321, 631.0640
3754.249, 631.8893
3756.178, 627.9673
3758.106, 623.2936
3760.035, 619.2684
3761.963, 616.9280
3763.892, 614.4226
3765.820, 616.4333
3767.749, 612.4153
3769.677, 616.6417
3771.605, 618.1289
3773.534, 615.1053
3775.462, 614.3552
3777.391, 611.9740
3779.319, 612.8856
3781.248, 606.2739
3783.176, 599.9760
3785.105, 599.8732
3787.033, 603.4647
3788.962, 603.6120
3790.890, 598.6677
3792.819, 592.6006
3794.747, 587.7347
3796.676, 582.1091
3798.604, 575.0970
3800.532, 567.4936
3802.461, 560.0912
3804.389, 546.3472
3806.318, 534.5604
3808.246, 524.3961
3810.175, 517.1519
3812.103, 509.3652
3814.032, 499.7054
3815.960, 493.5799
3817.889, 481.6425
3819.817, 470.9748
3821.746, 467.8233
3823.674, 457.7052
3825.603, 450.2196
3827.531, 450.0100
3829.459, 439.3310
3831.388, 442.9830
3833.316, 437.6176
3835.245, 435.5067
3837.173, 433.4346
3839.102, 430.9105
3841.030, 432.5408
3842.959, 433.5705
3844.887, 436.7165
3846.816, 439.9404
3848.744, 443.7884
3850.673, 444.9047
3852.601, 448.9151
3854.530, 446.6386
3856.458, 447.3002
3858.386, 447.1030
3860.315, 451.0487
3862.243, 456.6110
3864.172, 457.2812
3866.100, 451.2767
3868.029, 447.1071
3869.957, 446.2407
3871.886, 436.4183
3873.814, 435.2808
3875.743, 426.7321
3877.671, 420.7951
3879.600, 411.0331
3881.528, 403.4987
3883.457, 402.2368
3885.385, 399.1290
3887.313, 381.3963
3889.242, 375.0975
3891.170, 362.9403
3893.099, 351.1961
3895.027, 348.9598
3896.956, 343.7760
3898.884, 345.4442
3900.813, 345.2778
3902.741, 343.3781
3904.670, 334.5468
3906.598, 334.6658
3908.527, 331.1969
3910.455, 327.5825
3912.384, 328.9597
3914.312, 321.1377
3916.240, 322.4371
3918.169, 320.0941
3920.097, 319.4188
3922.026, 315.1337
3923.954, 311.9642
3925.883, 312.4033
3927.811, 310.8450
3929.740, 306.1446
3931.668, 305.5752
3933.597, 297.6259
3935.525, 296.1527
3937.454, 297.4716
3939.382, 292.9539
3941.311, 292.4492
3943.239, 290.4169
3945.167, 281.4365
3947.096, 284.5383
3949.024, 282.4157
3950.953, 274.9261
3952.881, 277.6148
3954.810, 270.8650
3956.738, 267.4850
3958.667, 266.6390
3960.595, 263.1514
3962.524, 263.8292
3964.452, 260.4943
3966.381, 256.7991
3968.309, 254.6706
3970.238, 248.1058
3972.166, 249.7702
3974.094, 245.8142
3976.023, 244.6507
3977.951, 244.1217
3979.880, 238.7427
3981.808, 238.4979
3983.737, 230.2918
3985.665, 228.7477
3987.594, 226.4850
3989.522, 228.4811
3991.451, 220.3137
3993.379, 218.5845
3995.308, 219.5945
3997.236, 216.7712
3999.165, 215.5499
4001.093, 209.5832
4003.021, 208.0757
4004.950, 205.3378
4006.878, 206.8485
4008.807, 205.0049
4010.735, 199.1184
4012.664, 193.2481
4014.592, 195.0645
4016.521, 189.5953
4018.449, 188.0572
4020.378, 182.4591
4022.306, 180.3667
4024.235, 181.3539
4026.163, 176.8303
4028.092, 178.0598
4030.020, 174.1438
4031.948, 171.1178
4033.877, 169.3425
4035.805, 167.3352
4037.734, 162.8070
4039.662, 160.0818
4041.591, 156.3902
4043.519, 152.0550
4045.448, 149.3093
4047.376, 144.5854
4049.305, 141.8987
4051.233, 141.0218
4053.162, 140.4901
4055.090, 136.9072
4057.019, 135.5639
4058.947, 135.0070
4060.875, 130.2642
4062.804, 126.1320
4064.732, 130.1700
4066.661, 126.2965
4068.589, 122.6392
4070.518, 123.6383
4072.446, 120.6451
4074.375, 119.9488
4076.303, 121.6307
4078.232, 120.2441
4080.160, 119.8996
4082.089, 119.0671
4084.017, 117.6085
4085.946, 115.5038
4087.874, 113.3954
4089.802, 112.4921
4091.731, 111.3207
4093.659, 110.2489
4095.588, 108.0926
4097.517, 106.2129
4099.445, 103.7974
4101.374, 101.6949
4103.302, 98.81047
4105.230, 96.36948
4107.159, 93.00255
4109.087, 90.86951
4111.016, 86.19899
4112.944, 82.93241
4114.873, 81.30416
4116.801, 77.43602
4118.729, 76.86238
4120.658, 76.33141
4122.586, 73.88637
4124.515, 71.84464
4126.443, 70.62486
4128.372, 71.16319
4130.300, 69.74931
4132.229, 66.26974
4134.157, 66.13396
4136.086, 63.69090
4138.014, 62.32735
4139.943, 63.56474
4141.871, 61.02807
4143.800, 58.86729
4145.728, 59.21006
4147.657, 58.71070
4149.585, 56.93837
4151.514, 56.09626
4153.442, 55.96825
4155.371, 55.13823
4157.299, 53.58585
4159.228, 52.18431
4161.156, 49.60828
4163.084, 48.06395
4165.013, 46.42019
4166.941, 44.02393
4168.870, 42.81139
4170.798, 41.32635
4172.727, 39.95578
4174.655, 39.13924
4176.583, 37.94527
4178.512, 37.23167
4180.440, 36.75140
4182.369, 36.12776
4184.297, 37.14377
4186.226, 35.08326
4188.154, 32.99254
4190.083, 34.36666
4192.011, 33.95127
4193.940, 35.77293
4195.868, 35.81846
4197.797, 34.60453
4199.725, 35.87785
4201.654, 37.65062
4203.582, 38.25893
4205.511, 39.33625
4207.439, 37.73579
4209.368, 39.68217
4211.296, 40.62780
4213.225, 38.84121
4215.153, 42.63127
4217.082, 40.01609
4219.010, 41.39140
4220.938, 41.16506
4222.867, 40.88601
4224.795, 41.71076
4226.724, 40.66974
4228.652, 37.29843
4230.581, 34.35938
4232.509, 34.04687
4234.438, 31.80834
4236.366, 32.62751
4238.294, 29.72910
4240.223, 30.17984
4242.151, 29.24061
4244.080, 29.42816
4246.008, 27.66113
4247.937, 28.51357
4249.865, 28.30395
4251.794, 27.87268
4253.722, 29.42264
4255.651, 29.74769
4257.579, 29.57145
4259.508, 31.58322
4261.436, 31.38120
4263.365, 31.42870
4265.293, 33.05664
4267.222, 32.22725
4269.150, 34.12918
4271.079, 35.74454
4273.007, 33.52015
4274.936, 33.58602
4276.864, 34.37928
4278.792, 35.69890
4280.721, 37.31915
4282.649, 35.81986
4284.578, 35.39635
4286.506, 36.05138
4288.435, 35.44076
4290.363, 33.52023
4292.292, 31.46438
4294.220, 30.46358
4296.148, 28.61897
4298.077, 28.11511
4300.005, 28.20201
4301.934, 27.47040
4303.862, 26.94531
4305.791, 26.32509
4307.719, 25.36113
4309.648, 25.45154
4311.576, 24.69547
4313.505, 23.48349
4315.433, 24.37981
4317.362, 24.93484
4319.290, 26.13122
4321.219, 27.95487
4323.147, 29.43342
4325.076, 29.46294
4327.004, 28.84380
4328.933, 29.78833
4330.861, 30.28691
4332.790, 30.91601
4334.718, 31.72477
4336.646, 32.88749
4338.575, 33.76490
4340.503, 34.91772
4342.432, 34.33718
4344.360, 34.40682
4346.289, 34.32075
4348.217, 35.26507
4350.146, 33.08094
4352.074, 31.55962
4354.002, 29.73152
4355.931, 26.48751
4357.859, 24.32754
4359.788, 25.53459
4361.716, 24.36226
4363.645, 21.60389
4365.573, 25.60345
4367.502, 24.74265
4369.430, 24.54531
4371.359, 23.41342
4373.287, 24.39473
4375.216, 23.75196
4377.144, 22.33932
4379.073, 24.56737
4381.001, 24.65381
##END=



