##NAMES=Chervetite
##RRUFFID=R080096
##IDEAL CHEMISTRY=Pb_2_V^5+^_2_O_7_
##LOCALITY=Franceville, Gabon, Africa
##OWNER=RRUFF
##SOURCE=William W. Pinch
##DESCRIPTION=Long tabular light tan crystals associated with francevillite
##STATUS=The identification of this mineral has been confirmed by single-crystal X-ray diffraction
##URL=https://www.rruff.net/odr/rruff_sample/R080096
##DIFFRACTION SAMPLE DESCRIPTION=Single crystal, powder profile is calculated
##CELL PARAMETERS=a: 13.386 b: 7.169 c: 7.109 alpha: 90 beta: 105.93 gamma: 90 volume: 656 crystal system: monoclinic
##FILETYPE=Raman RAW
##RAMAN WAVELENGTH=532

83.46240, 0.0000000E+00
85.39087, 0.0000000E+00
87.31934, 163.4601
89.24780, 210.5623
91.17627, 273.4467
93.10474, 345.1441
95.03320, 425.4770
96.96167, 513.6002
98.89014, 608.4785
100.8186, 706.4515
102.7471, 812.6517
104.6755, 928.3422
106.6040, 1051.738
108.5325, 1189.214
110.4609, 1340.772
112.3894, 1508.434
114.3179, 1688.855
116.2463, 1899.157
118.1748, 2118.262
120.1033, 2317.751
122.0317, 2484.959
123.9602, 2642.360
125.8887, 2742.579
127.8171, 2754.071
129.7456, 2748.231
131.6741, 2721.539
133.6025, 2682.070
135.5310, 2650.140
137.4595, 2646.458
139.3879, 2630.462
141.3164, 2584.104
143.2449, 2501.952
145.1733, 2408.572
147.1018, 2297.245
149.0303, 2171.538
150.9587, 2071.449
152.8872, 2001.473
154.8157, 1952.832
156.7441, 1917.476
158.6726, 1893.361
160.6011, 1884.932
162.5295, 1895.880
164.4580, 1924.524
166.3865, 1964.775
168.3149, 2018.159
170.2434, 2081.632
172.1719, 2154.388
174.1003, 2236.595
176.0288, 2326.015
177.9573, 2429.794
179.8857, 2552.959
181.8142, 2650.388
183.7427, 2722.003
185.6711, 2765.639
187.5996, 2778.962
189.5281, 2744.649
191.4565, 2703.753
193.3850, 2671.928
195.3135, 2647.889
197.2419, 2638.616
199.1704, 2641.761
201.0989, 2661.210
203.0273, 2699.000
204.9558, 2762.857
206.8843, 2841.035
208.8127, 2929.497
210.7412, 3033.325
212.6697, 3139.100
214.5981, 3251.234
216.5266, 3365.460
218.4551, 3467.850
220.3835, 3549.460
222.3120, 3624.536
224.2405, 3696.341
226.1689, 3761.063
228.0974, 3835.676
230.0259, 3925.592
231.9543, 4028.815
233.8828, 4139.998
235.8113, 4290.795
237.7397, 4426.944
239.6682, 4512.292
241.5967, 4540.461
243.5251, 4551.619
245.4536, 4539.702
247.3821, 4510.972
249.3105, 4521.189
251.2390, 4590.414
253.1675, 4681.307
255.0959, 4781.981
257.0244, 4922.593
258.9529, 5000.612
260.8813, 5006.426
262.8098, 4932.792
264.7383, 4792.111
266.6667, 4526.315
268.5952, 4243.105
270.5237, 4002.620
272.4521, 3823.754
274.3806, 3669.909
276.3091, 3548.441
278.2375, 3453.054
280.1660, 3361.103
282.0945, 3272.315
284.0229, 3185.403
285.9514, 3094.486
287.8799, 2961.396
289.8083, 2889.205
291.7368, 2886.122
293.6653, 2952.028
295.5938, 3087.793
297.5222, 3330.328
299.4507, 3619.933
301.3792, 3944.323
303.3076, 4307.153
305.2361, 4683.602
307.1646, 5074.548
309.0930, 5476.690
311.0215, 5884.997
312.9500, 6238.323
314.8784, 6653.177
316.8069, 7213.679
318.7354, 7922.158
320.6638, 8606.601
322.5923, 9456.021
324.5208, 10222.28
326.4492, 10471.63
328.3777, 9908.858
330.3062, 9159.065
332.2346, 8252.259
334.1631, 7205.965
336.0915, 6338.585
338.0200, 5711.191
339.9485, 5273.162
341.8769, 5014.973
343.8054, 4960.589
345.7339, 5016.428
347.6623, 5221.613
349.5908, 5550.564
351.5193, 5826.662
353.4477, 6060.689
355.3762, 6228.919
357.3047, 6288.462
359.2331, 6225.315
361.1616, 6141.508
363.0901, 6056.883
365.0185, 5971.488
366.9470, 5883.499
368.8755, 5861.115
370.8039, 5783.436
372.7324, 5575.741
374.6609, 5247.446
376.5893, 4857.157
378.5178, 4365.346
380.4463, 3830.774
382.3747, 3344.498
384.3032, 2894.068
386.2317, 2499.636
388.1601, 2180.957
390.0886, 1928.898
392.0171, 1714.354
393.9455, 1547.514
395.8740, 1407.791
397.8025, 1282.063
399.7309, 1168.183
401.6594, 1069.636
403.5879, 992.5968
405.5163, 932.2948
407.4448, 880.7013
409.3733, 839.2772
411.3017, 804.8637
413.2302, 778.6893
415.1587, 761.6147
417.0871, 744.8016
419.0156, 724.6390
420.9441, 704.4683
422.8725, 688.9966
424.8010, 684.3711
426.7295, 678.2221
428.6579, 666.1157
430.5864, 649.2299
432.5149, 635.6390
434.4433, 628.1880
436.3718, 623.1172
438.3003, 618.2917
440.2287, 615.0063
442.1572, 610.2908
444.0857, 602.4475
446.0141, 593.4628
447.9426, 586.7380
449.8711, 583.3306
451.7995, 581.3014
453.7280, 580.8292
455.6565, 582.6321
457.5849, 581.3766
459.5134, 574.5706
461.4419, 566.1295
463.3703, 558.7002
465.2988, 551.9609
467.2273, 547.3413
469.1557, 546.3229
471.0842, 547.7413
473.0127, 547.3876
474.9411, 544.6071
476.8696, 540.9554
478.7981, 536.9243
480.7265, 532.3945
482.6550, 528.1972
484.5835, 522.3644
486.5119, 517.8702
488.4404, 518.9510
490.3689, 527.6522
492.2973, 533.9995
494.2258, 532.9991
496.1543, 527.3058
498.0827, 524.9048
500.0112, 528.2285
501.9397, 532.3574
503.8681, 535.4379
505.7966, 537.5976
507.7251, 540.9263
509.6535, 544.1637
511.5820, 549.8636
513.5105, 559.8049
515.4390, 570.2685
517.3674, 590.6540
519.2959, 617.3339
521.2244, 656.0950
523.1528, 714.5804
525.0813, 803.6167
527.0098, 897.5895
528.9382, 992.1848
530.8667, 1087.550
532.7952, 1167.258
534.7236, 1236.365
536.6521, 1286.360
538.5806, 1308.206
540.5090, 1296.941
542.4375, 1289.746
544.3660, 1286.888
546.2944, 1293.126
548.2229, 1316.559
550.1514, 1352.040
552.0798, 1409.013
554.0083, 1497.027
555.9368, 1609.404
557.8652, 1732.588
559.7937, 1864.285
561.7222, 2008.536
563.6506, 2166.994
565.5791, 2341.030
567.5076, 2527.143
569.4360, 2716.548
571.3645, 2926.510
573.2930, 3182.063
575.2214, 3539.512
577.1499, 3803.290
579.0783, 4001.988
581.0068, 4086.575
582.9352, 3956.447
584.8637, 3537.240
586.7922, 3082.710
588.7206, 2648.336
590.6491, 2235.902
592.5776, 1899.331
594.5060, 1665.077
596.4345, 1479.672
598.3630, 1332.860
600.2914, 1224.430
602.2199, 1143.766
604.1484, 1104.337
606.0768, 1083.560
608.0053, 1066.029
609.9338, 1051.373
611.8622, 1041.532
613.7907, 1033.970
615.7192, 1032.249
617.6476, 1042.558
619.5761, 1070.132
621.5046, 1094.818
623.4330, 1108.619
625.3615, 1114.651
627.2900, 1122.850
629.2184, 1135.129
631.1469, 1147.458
633.0754, 1160.011
635.0038, 1172.021
636.9323, 1179.655
638.8608, 1177.764
640.7892, 1176.135
642.7177, 1179.639
644.6462, 1189.976
646.5746, 1200.838
648.5031, 1206.354
650.4316, 1216.191
652.3600, 1239.075
654.2885, 1275.693
656.2170, 1317.151
658.1454, 1360.953
660.0739, 1408.655
662.0024, 1462.752
663.9308, 1524.693
665.8593, 1592.030
667.7878, 1670.639
669.7162, 1753.855
671.6447, 1831.390
673.5732, 1912.837
675.5016, 1968.376
677.4301, 1994.297
679.3586, 1990.136
681.2870, 1948.256
683.2155, 1844.573
685.1440, 1733.031
687.0724, 1628.214
689.0009, 1530.567
690.9294, 1447.267
692.8578, 1380.674
694.7863, 1329.063
696.7148, 1292.072
698.6432, 1271.552
700.5717, 1262.783
702.5002, 1270.306
704.4286, 1286.027
706.3571, 1304.101
708.2856, 1324.199
710.2141, 1347.790
712.1425, 1379.260
714.0710, 1412.332
715.9995, 1440.707
717.9279, 1451.229
719.8564, 1477.315
721.7849, 1526.580
723.7133, 1590.963
725.6418, 1657.109
727.5703, 1721.065
729.4987, 1797.261
731.4272, 1888.116
733.3557, 1992.590
735.2841, 2110.138
737.2126, 2242.838
739.1411, 2385.314
741.0695, 2537.729
742.9980, 2699.957
744.9265, 2871.446
746.8549, 3060.323
748.7834, 3244.522
750.7119, 3422.229
752.6403, 3592.120
754.5688, 3738.709
756.4973, 3823.211
758.4257, 3927.893
760.3542, 4080.430
762.2827, 4276.568
764.2111, 4500.299
766.1396, 4745.527
768.0681, 5029.188
769.9965, 5364.450
771.9250, 5756.748
773.8535, 6145.863
775.7819, 6533.501
777.7104, 6918.697
779.6389, 7296.094
781.5673, 7667.065
783.4958, 8049.030
785.4243, 8411.866
787.3527, 8821.328
789.2812, 9306.729
791.2097, 9872.549
793.1381, 10502.31
795.0666, 11188.39
796.9951, 11935.36
798.9235, 12753.89
800.8520, 13639.85
802.7805, 14586.57
804.7089, 15645.73
806.6374, 16720.75
808.5659, 17767.06
810.4943, 18807.65
812.4228, 19740.71
814.3513, 20588.77
816.2797, 21324.02
818.2082, 21929.56
820.1367, 22412.45
822.0651, 22707.35
823.9936, 22700.33
825.9221, 22580.51
827.8505, 22482.05
829.7790, 22443.97
831.7075, 22286.71
833.6359, 22081.02
835.5644, 21719.94
837.4929, 21071.67
839.4213, 20120.02
841.3498, 19167.13
843.2783, 18040.94
845.2067, 17128.28
847.1352, 16626.84
849.0637, 16542.16
850.9921, 16858.58
852.9206, 17626.46
854.8491, 18712.91
856.7775, 20095.98
858.7060, 21808.40
860.6345, 23582.04
862.5629, 25424.61
864.4914, 27298.13
866.4199, 29130.45
868.3483, 30910.77
870.2768, 32916.25
872.2053, 35706.00
874.1337, 38275.72
876.0622, 40550.54
877.9907, 42667.93
879.9191, 42515.93
881.8476, 38914.83
883.7761, 34163.86
885.7045, 28868.83
887.6330, 23176.86
889.5615, 18324.64
891.4899, 14648.11
893.4184, 11698.09
895.3469, 9399.937
897.2753, 7764.161
899.2038, 6456.949
901.1323, 5573.504
903.0607, 4873.076
904.9892, 4309.282
906.9177, 3866.879
908.8461, 3498.530
910.7746, 3225.076
912.7031, 2990.469
914.6315, 2776.654
916.5600, 2582.221
918.4885, 2404.337
920.4169, 2246.707
922.3454, 2101.603
924.2739, 1970.248
926.2023, 1852.086
928.1308, 1741.167
930.0593, 1635.767
931.9877, 1542.932
933.9162, 1469.147
935.8447, 1407.631
937.7731, 1348.523
939.7016, 1288.562
941.6301, 1237.178
943.5585, 1200.452
945.4870, 1169.833
947.4155, 1133.121
949.3439, 1087.460
951.2724, 1047.872
953.2009, 1021.281
955.1293, 999.0536
957.0578, 973.6584
958.9863, 944.0076
960.9147, 918.3771
962.8432, 899.0400
964.7717, 882.9925
966.7001, 869.3446
968.6286, 858.6729
970.5571, 846.6003
972.4855, 830.4330
974.4140, 815.3746
976.3425, 803.6448
978.2709, 795.0046
980.1994, 789.8891
982.1279, 791.5607
984.0563, 791.9135
985.9848, 787.9167
987.9133, 780.3196
989.8417, 772.1846
991.7702, 761.9232
993.6987, 753.2332
995.6271, 747.1991
997.5556, 743.1044
999.4841, 739.6413
1001.413, 736.8508
1003.341, 734.5978
1005.269, 733.5784
1007.198, 732.5715
1009.126, 730.3152
1011.055, 726.3788
1012.983, 722.1582
1014.912, 717.3685
1016.840, 712.4999
1018.769, 707.3145
1020.697, 701.5633
1022.626, 698.6442
1024.554, 703.3369
1026.483, 705.8843
1028.411, 698.7782
1030.340, 685.4977
1032.268, 677.3163
1034.197, 677.0770
1036.125, 678.7378
1038.053, 683.3110
1039.982, 687.9926
1041.910, 686.3481
1043.839, 670.6914
1045.767, 658.9371
1047.696, 655.7145
1049.624, 654.8758
1051.553, 648.9301
1053.481, 637.4974
1055.410, 627.8732
1057.338, 621.4924
1059.267, 617.2819
1061.195, 614.0267
1063.124, 611.5820
1065.052, 612.7537
1066.980, 624.2456
1068.909, 632.0400
1070.837, 630.0367
1072.766, 620.4394
1074.694, 611.8209
1076.623, 602.6781
1078.551, 597.2275
1080.480, 598.7269
1082.408, 603.5156
1084.337, 608.1943
1086.265, 613.5031
1088.193, 614.4412
1090.122, 604.8156
1092.050, 594.6712
1093.979, 589.8581
1095.907, 590.9528
1097.836, 593.1067
1099.764, 598.0229
1101.693, 601.9659
1103.621, 603.0355
1105.550, 602.0260
1107.478, 601.7564
1109.407, 602.8712
1111.335, 603.0237
1113.264, 600.7184
1115.192, 597.5770
1117.120, 595.3656
1119.049, 594.3448
1120.977, 593.0978
1122.906, 591.2771
1124.834, 589.3481
1126.763, 586.8395
1128.691, 583.7626
1130.620, 583.5472
1132.548, 588.7333
1134.477, 593.3141
1136.405, 595.2675
1138.334, 595.6578
1140.262, 596.7258
1142.191, 598.9334
1144.119, 599.7996
1146.047, 599.2731
1147.976, 596.6238
1149.904, 590.0215
1151.833, 578.6385
1153.761, 571.6564
1155.690, 575.4634
1157.618, 577.1100
1159.547, 570.1226
1161.475, 557.5122
1163.404, 549.8582
1165.332, 549.4426
1167.261, 548.4467
1169.189, 546.4627
1171.118, 542.5628
1173.046, 533.8477
1174.974, 520.4270
1176.903, 513.4908
1178.831, 519.4731
1180.760, 525.9561
1182.688, 526.9932
1184.617, 523.9848
1186.545, 522.7363
1188.474, 524.0926
1190.402, 526.0865
1192.331, 530.7127
1194.259, 534.3959
1196.188, 532.5723
1198.116, 523.9064
1200.045, 516.8480
1201.973, 511.5298
1203.901, 507.9397
1205.830, 505.9438
1207.758, 505.7588
1209.687, 508.8399
1211.615, 517.4799
1213.544, 522.5696
1215.472, 518.5222
1217.401, 512.0184
1219.329, 507.6991
1221.258, 505.3995
1223.186, 506.4258
1225.115, 518.4545
1227.043, 524.9945
1228.972, 515.5400
1230.900, 497.0040
1232.828, 488.4549
1234.757, 493.7322
1236.685, 497.4085
1238.614, 495.6038
1240.542, 492.6561
1242.471, 492.8010
1244.399, 495.1111
1246.328, 493.3067
1248.256, 483.7369
1250.185, 476.0631
1252.113, 476.2677
1254.042, 479.4049
1255.970, 478.0472
1257.899, 470.1399
1259.827, 464.4347
1261.755, 462.3987
1263.684, 461.6466
1265.612, 461.0806
1267.541, 460.7858
1269.469, 461.5923
1271.398, 465.4251
1273.326, 466.8821
1275.255, 464.4348
1277.183, 459.8351
1279.112, 452.7961
1281.040, 443.9164
1282.969, 441.3122
1284.897, 450.5930
1286.826, 457.7266
1288.754, 452.8819
1290.682, 443.8496
1292.611, 442.8975
1294.539, 451.8036
1296.468, 460.9956
1298.396, 473.0190
1300.325, 481.0001
1302.253, 479.3614
1304.182, 470.3498
1306.110, 464.7279
1308.039, 463.0804
1309.967, 464.0623
1311.896, 470.2840
1313.824, 477.0216
1315.753, 480.2535
1317.681, 480.1580
1319.609, 480.3431
1321.538, 481.2961
1323.466, 481.7644
1325.395, 478.9510
1327.323, 476.9643
1329.252, 481.6591
1331.180, 493.2103
1333.109, 500.0976
1335.037, 496.9648
1336.966, 494.8066
1338.894, 499.5821
1340.823, 507.6055
1342.751, 511.4740
1344.680, 508.7480
1346.608, 508.7692
1348.536, 515.4492
1350.465, 521.2629
1352.393, 522.5268
1354.322, 520.0690
1356.250, 516.8230
1358.179, 513.1775
1360.107, 508.0735
1362.036, 496.8109
1363.964, 488.3086
1365.893, 491.3603
1367.821, 502.9336
1369.750, 508.7361
1371.678, 506.4916
1373.607, 504.2862
1375.535, 505.4847
1377.464, 506.5477
1379.392, 504.1173
1381.320, 498.9077
1383.249, 495.2396
1385.177, 492.6367
1387.106, 493.4217
1389.034, 503.2867
1390.963, 513.0583
1392.891, 513.1709
1394.820, 502.2782
1396.748, 497.0442
1398.677, 501.6942
1400.605, 506.6339
1402.534, 511.2499
1404.462, 514.5303
1406.391, 514.7438
1408.319, 511.2627
1410.247, 509.6197
1412.176, 510.8580
1414.104, 512.4825
1416.033, 514.4991
1417.961, 516.2929
1419.890, 516.5438
1421.818, 515.2748
1423.747, 516.2623
1425.675, 522.5374
1427.604, 526.3557
1429.532, 522.9040
1431.461, 516.6177
1433.389, 512.2625
1435.318, 509.7580
1437.246, 507.2480
1439.174, 502.8892
1441.103, 501.4852
1443.031, 507.0827
1444.960, 515.1512
1446.888, 521.5746
1448.817, 526.3855
1450.745, 528.1069
1452.674, 523.9387
1454.602, 521.0860
1456.531, 523.2412
1458.459, 526.5631
1460.388, 526.0055
1462.316, 520.5439
1464.245, 519.6555
1466.173, 529.1406
1468.101, 535.2928
1470.030, 531.9731
1471.958, 526.6357
1473.887, 527.2880
1475.815, 534.1039
1477.744, 538.8383
1479.672, 539.8747
1481.601, 541.4737
1483.529, 546.0281
1485.458, 550.2567
1487.386, 550.7385
1489.315, 548.0372
1491.243, 546.2629
1493.172, 545.1457
1495.100, 545.5987
1497.028, 548.7570
1498.957, 552.5990
1500.885, 556.8217
1502.814, 560.5345
1504.742, 560.4016
1506.671, 555.1757
1508.599, 551.7379
1510.528, 551.5433
1512.456, 553.8795
1514.385, 561.5134
1516.313, 570.5774
1518.242, 570.6732
1520.170, 559.3234
1522.099, 554.1473
1524.027, 561.9831
1525.955, 570.7924
1527.884, 576.1760
1529.812, 579.2037
1531.741, 581.1013
1533.669, 581.5793
1535.598, 583.1548
1537.526, 588.0095
1539.455, 591.0471
1541.383, 590.2403
1543.312, 587.6323
1545.240, 583.7222
1547.169, 578.3264
1549.097, 579.3798
1551.026, 596.2414
1552.954, 605.6640
1554.882, 600.2745
1556.811, 591.5669
1558.739, 585.5729
1560.668, 582.6205
1562.596, 584.3930
1564.525, 595.0773
1566.453, 602.6254
1568.382, 606.5862
1570.310, 607.9306
1572.239, 603.7689
1574.167, 598.6525
1576.096, 601.1985
1578.024, 613.0079
1579.953, 622.2836
1581.881, 629.2712
1583.809, 633.0469
1585.738, 629.8812
1587.666, 625.9870
1589.595, 627.7059
1591.523, 634.2821
1593.452, 640.3906
1595.380, 646.8876
1597.309, 650.3642
1599.237, 648.3174
1601.166, 645.1385
1603.094, 640.7155
1605.023, 637.7825
1606.951, 643.1167
1608.880, 657.2794
1610.808, 665.8732
1612.736, 664.0593
1614.665, 662.3148
1616.593, 663.7471
1618.522, 667.6990
1620.450, 674.3203
1622.379, 682.9671
1624.307, 691.5709
1626.236, 700.7646
1628.164, 706.6155
1630.093, 706.7331
1632.021, 705.2157
1633.950, 704.3244
1635.878, 703.3272
1637.807, 700.4070
1639.735, 695.6386
1641.663, 693.4388
1643.592, 695.1869
1645.520, 697.4656
1647.449, 699.2401
1649.377, 700.9509
1651.306, 702.7488
1653.234, 704.7158
1655.163, 707.9121
1657.091, 713.0882
1659.020, 713.7510
1660.948, 704.2690
1662.877, 697.4441
1664.805, 700.7268
1666.734, 708.4581
1668.662, 717.2802
1670.590, 726.2309
1672.519, 726.7360
1674.447, 715.3469
1676.376, 705.9050
1678.304, 700.3522
1680.233, 699.1317
1682.161, 706.1750
1684.090, 715.6205
1686.018, 716.4531
1687.947, 708.7505
1689.875, 705.4690
1691.804, 710.4651
1693.732, 712.8691
1695.661, 705.7928
1697.589, 699.4345
1699.517, 701.2849
1701.446, 708.0212
1703.374, 712.3329
1705.303, 714.2070
1707.231, 712.8059
1709.160, 704.4526
1711.088, 700.3692
1713.017, 710.2004
1714.945, 719.8075
1716.874, 717.0898
1718.802, 706.8994
1720.731, 703.8208
1722.659, 708.8398
1724.588, 712.6053
1726.516, 713.5455
1728.444, 713.8181
1730.373, 714.7843
1732.301, 714.7312
1734.230, 709.8912
1736.158, 703.2352
1738.087, 706.0110
1740.015, 720.2142
1741.944, 725.9194
1743.872, 715.7667
1745.801, 706.2602
1747.729, 705.0676
1749.658, 705.3961
1751.586, 701.1370
1753.515, 694.3904
1755.443, 691.3524
1757.371, 692.4366
1759.300, 693.4398
1761.228, 694.3270
1763.157, 693.9194
1765.085, 691.2116
1767.014, 687.6202
1768.942, 682.5614
1770.871, 677.8706
1772.799, 678.8815
1774.728, 685.9006
1776.656, 689.6093
1778.585, 688.4934
1780.513, 685.0733
1782.442, 676.3927
1784.370, 669.8959
1786.298, 674.4126
1788.227, 682.9844
1790.155, 682.0225
1792.084, 671.9465
1794.012, 666.1699
1795.941, 667.3262
1797.869, 668.2507
1799.798, 666.0632
1801.726, 664.2196
1803.655, 665.7942
1805.583, 668.2872
1807.512, 667.4492
1809.440, 663.9490
1811.369, 663.0830
1813.297, 666.5444
1815.225, 667.2757
1817.154, 661.1807
1819.082, 655.6490
1821.011, 653.5491
1822.939, 653.2485
1824.868, 653.1098
1826.796, 653.3523
1828.725, 655.0651
1830.653, 658.5840
1832.582, 662.3276
1834.510, 671.2052
1836.439, 673.2145
1838.367, 657.7417
1840.296, 642.8799
1842.224, 642.3705
1844.152, 650.5537
1846.081, 657.1548
1848.009, 662.2663
1849.938, 664.7720
1851.866, 662.2344
1853.795, 660.9208
1855.723, 662.5408
1857.652, 663.5493
1859.580, 660.6797
1861.509, 657.9386
1863.437, 662.0862
1865.366, 670.4728
1867.294, 668.7527
1869.223, 653.0879
1871.151, 644.5135
1873.079, 646.4066
1875.008, 651.2974
1876.936, 660.5389
1878.865, 668.8929
1880.793, 675.1140
1882.722, 677.7310
1884.650, 671.8776
1886.579, 659.2041
1888.507, 653.9022
1890.436, 657.9213
1892.364, 660.4684
1894.293, 656.9892
1896.221, 657.5833
1898.150, 672.1123
1900.078, 685.8866
1902.006, 686.1798
1903.935, 679.3068
1905.863, 674.8485
1907.792, 672.8909
1909.720, 674.3262
1911.649, 680.6324
1913.577, 684.3560
1915.506, 683.2897
1917.434, 680.5356
1919.363, 674.1407
1921.291, 669.4697
1923.220, 672.5016
1925.148, 680.0624
1927.077, 685.9913
1929.005, 690.5043
1930.933, 690.1075
1932.862, 679.4278
1934.790, 673.5686
1936.719, 674.1879
1938.647, 678.1592
1940.576, 687.9714
1942.504, 697.2349
1944.433, 699.8785
1946.361, 698.4735
1948.290, 698.7241
1950.218, 700.8428
1952.147, 701.3619
1954.075, 699.6049
1956.004, 698.6128
1957.932, 699.5786
1959.860, 699.8817
1961.789, 696.2662
1963.717, 694.1715
1965.646, 698.8228
1967.574, 706.3329
1969.503, 711.1188
1971.431, 713.3268
1973.360, 713.2012
1975.288, 710.3446
1977.217, 708.9174
1979.145, 710.8726
1981.074, 711.2908
1983.002, 704.4539
1984.931, 700.5148
1986.859, 710.3299
1988.787, 722.4252
1990.716, 720.1397
1992.644, 707.8228
1994.573, 703.9717
1996.501, 710.5668
1998.430, 716.4158
2000.358, 722.0646
2002.287, 726.1409
2004.215, 729.7791
2006.144, 730.0467
2008.072, 721.1161
2010.001, 712.9651
2011.929, 714.2640
2013.858, 721.6537
2015.786, 730.5156
2017.714, 740.1586
2019.643, 743.7850
2021.571, 740.5234
2023.500, 736.1483
2025.428, 728.7339
2027.357, 728.1161
2029.285, 745.2902
2031.214, 758.9121
2033.142, 752.4856
2035.071, 740.9630
2036.999, 739.8415
2038.928, 745.1971
2040.856, 747.6740
2042.785, 747.2185
2044.713, 745.4680
2046.641, 740.6036
2048.570, 738.6534
2050.499, 741.6606
2052.427, 744.9316
2054.355, 747.0432
2056.284, 749.7598
2058.212, 754.4682
2060.141, 759.7480
2062.069, 765.4077
2063.998, 769.9963
2065.926, 768.0457
2067.854, 760.0992
2069.783, 755.6237
2071.711, 755.5863
2073.640, 756.3012
2075.568, 757.8826
2077.497, 758.6949
2079.425, 757.5632
2081.354, 756.5435
2083.282, 754.8635
2085.211, 755.4464
2087.139, 764.6990
2089.068, 776.8622
2090.996, 778.2265
2092.925, 769.2955
2094.853, 762.9387
2096.781, 759.3717
2098.710, 757.9558
2100.638, 760.4976
2102.567, 761.6859
2104.495, 758.2850
2106.424, 757.0225
2108.352, 762.2152
2110.281, 768.3981
2112.209, 772.4570
2114.138, 774.8189
2116.066, 775.6042
2117.995, 775.2089
2119.923, 774.7156
2121.852, 774.1572
2123.780, 774.6455
2125.708, 777.1228
2127.637, 777.9925
2129.565, 774.2690
2131.494, 773.0962
2133.422, 779.1790
2135.351, 783.9283
2137.279, 782.5601
2139.208, 778.8444
2141.136, 772.9202
2143.065, 768.5497
2144.993, 775.8608
2146.922, 790.8004
2148.850, 791.8000
2150.779, 778.9584
2152.707, 776.7143
2154.635, 789.1451
2156.564, 801.6356
2158.492, 816.3549
2160.421, 820.9244
2162.349, 799.9790
2164.278, 783.5797
2166.206, 793.1213
2168.135, 805.3762
2170.063, 796.9916
2171.992, 781.1224
2173.920, 778.9911
2175.849, 787.5562
2177.777, 794.3740
2179.706, 799.4509
2181.634, 802.6039
2183.563, 803.6550
2185.491, 804.1001
2187.419, 803.9722
2189.348, 803.5959
2191.276, 801.3998
2193.205, 801.7209
2195.133, 808.8926
2197.062, 816.1829
2198.990, 820.2368
2200.919, 821.5356
2202.847, 819.4554
2204.776, 815.5436
2206.704, 813.1005
2208.633, 811.8539
2210.561, 808.9858
2212.490, 804.0626
2214.418, 805.8813
2216.346, 816.6174
2218.275, 823.6610
2220.203, 824.9026
2222.132, 822.7726
2224.060, 813.9219
2225.989, 808.3795
2227.917, 814.0359
2229.846, 819.7953
2231.774, 814.6709
2233.703, 809.1416
2235.631, 816.9185
2237.560, 831.2877
2239.488, 839.2935
2241.417, 841.7837
2243.345, 843.7145
2245.273, 845.0852
2247.202, 842.1628
2249.130, 833.8532
2251.059, 830.8221
2252.987, 835.2380
2254.916, 842.4432
2256.844, 857.5561
2258.773, 865.4540
2260.701, 855.9138
2262.630, 845.7386
2264.558, 844.0524
2266.487, 844.1309
2268.415, 839.3666
2270.344, 834.5767
2272.272, 837.6737
2274.200, 844.6793
2276.129, 845.4886
2278.057, 841.8568
2279.986, 842.0931
2281.914, 846.2076
2283.843, 846.5878
2285.771, 840.3536
2287.700, 840.2758
2289.628, 856.0689
2291.557, 863.1457
2293.485, 850.6659
2295.414, 843.6262
2297.342, 850.6774
2299.271, 859.5025
2301.199, 869.2208
2303.127, 874.1095
2305.056, 866.8871
2306.984, 856.1875
2308.913, 848.8737
2310.841, 844.8779
2312.770, 844.4945
2314.698, 847.3811
2316.627, 853.9706
2318.555, 863.7825
2320.484, 866.0547
2322.412, 859.5828
2324.341, 856.0227
2326.269, 855.8568
2328.198, 856.4238
2330.126, 856.7977
2332.054, 860.2667
2333.983, 870.5038
2335.911, 877.4585
2337.840, 876.7321
2339.768, 874.1962
2341.697, 869.1934
2343.625, 867.0458
2345.554, 875.7809
2347.482, 883.7654
2349.411, 877.0050
2351.339, 866.7596
2353.268, 869.3820
2355.196, 877.6281
2357.125, 875.2663
2359.053, 867.0236
2360.981, 871.4957
2362.910, 887.6782
2364.838, 898.7608
2366.767, 905.0027
2368.695, 903.8774
2370.624, 891.8300
2372.552, 886.9958
2374.481, 892.9455
2376.409, 897.3084
2378.338, 898.1153
2380.266, 897.0921
2382.195, 892.5831
2384.123, 890.0602
2386.052, 895.4746
2387.980, 897.6754
2389.908, 883.6052
2391.837, 873.7043
2393.765, 887.2809
2395.694, 905.6823
2397.622, 913.1616
2399.551, 914.5055
2401.479, 914.8568
2403.408, 913.8022
2405.336, 909.2242
2407.265, 902.9109
2409.193, 899.1528
2411.122, 898.2514
2413.050, 904.8853
2414.979, 919.9457
2416.907, 926.5365
2418.835, 923.8923
2420.764, 919.8391
2422.692, 914.0764
2424.621, 913.7714
2426.549, 921.7944
2428.478, 927.4357
2430.406, 927.0734
2432.335, 927.1771
2434.263, 928.8576
2436.192, 931.3176
2438.120, 936.4683
2440.049, 939.1797
2441.977, 935.3246
2443.906, 932.1306
2445.834, 935.2429
2447.762, 937.8441
2449.691, 931.8178
2451.619, 926.8601
2453.548, 934.5873
2455.476, 945.9321
2457.405, 950.2889
2459.333, 950.3964
2461.262, 950.8027
2463.190, 950.4199
2465.119, 944.8239
2467.047, 936.8040
2468.976, 934.7952
2470.904, 938.2552
2472.833, 942.8184
2474.761, 948.5285
2476.689, 956.8968
2478.618, 970.3349
2480.546, 967.8991
2482.475, 946.6442
2484.403, 938.2106
2486.332, 946.7101
2488.260, 954.0534
2490.189, 958.1974
2492.117, 959.0896
2494.046, 952.6821
2495.974, 949.9171
2497.903, 951.9742
2499.831, 958.4297
2501.760, 975.8597
2503.688, 984.2789
2505.616, 972.9251
2507.545, 961.4664
2509.473, 958.0779
2511.402, 957.2402
2513.330, 956.9301
2515.259, 957.5439
2517.187, 958.0621
2519.116, 961.0442
2521.044, 973.0593
2522.973, 983.0019
2524.901, 978.5413
2526.830, 971.3060
2528.758, 973.3187
2530.687, 978.4423
2532.615, 977.8418
2534.543, 976.0970
2536.472, 982.8602
2538.400, 992.4155
2540.329, 991.3470
2542.257, 984.6588
2544.186, 985.9860
2546.114, 991.8350
2548.043, 991.0423
2549.971, 985.3553
2551.900, 981.9357
2553.828, 981.0334
2555.757, 986.4442
2557.685, 997.7867
2559.614, 1003.377
2561.542, 1003.295
2563.470, 1000.332
2565.399, 994.5230
2567.327, 991.2588
2569.256, 990.3089
2571.184, 995.4560
2573.113, 1010.602
2575.041, 1015.850
2576.970, 1009.240
2578.898, 1001.312
2580.827, 992.3733
2582.755, 987.4799
2584.684, 988.4304
2586.612, 990.6281
2588.541, 993.9108
2590.469, 997.6002
2592.397, 1001.520
2594.326, 1005.946
2596.254, 1011.277
2598.183, 1015.837
2600.111, 1020.094
2602.040, 1021.552
2603.968, 1019.066
2605.897, 1014.660
2607.825, 1003.809
2609.754, 999.3489
2611.682, 1006.128
2613.611, 1015.794
2615.539, 1030.161
2617.468, 1037.639
2619.396, 1026.913
2621.324, 1018.063
2623.253, 1021.757
2625.181, 1026.260
2627.110, 1024.805
2629.038, 1025.494
2630.967, 1035.501
2632.895, 1042.413
2634.824, 1034.578
2636.752, 1027.742
2638.681, 1034.059
2640.609, 1040.448
2642.538, 1036.244
2644.466, 1032.872
2646.395, 1039.522
2648.323, 1046.755
2650.251, 1049.172
2652.180, 1048.579
2654.108, 1044.609
2656.037, 1040.149
2657.965, 1037.349
2659.894, 1035.195
2661.822, 1031.374
2663.751, 1029.647
2665.679, 1034.171
2667.608, 1040.637
2669.536, 1047.627
2671.465, 1052.015
2673.393, 1047.996
2675.322, 1043.104
2677.250, 1044.631
2679.178, 1048.850
2681.107, 1053.847
2683.035, 1058.209
2684.964, 1060.251
2686.892, 1061.396
2688.821, 1065.230
2690.749, 1066.844
2692.678, 1053.207
2694.606, 1043.398
2696.535, 1061.593
2698.463, 1085.889
2700.392, 1097.732
2702.320, 1099.340
2704.249, 1085.373
2706.177, 1070.222
2708.105, 1068.964
2710.034, 1075.171
2711.962, 1088.858
2713.891, 1099.695
2715.819, 1093.482
2717.748, 1083.235
2719.676, 1081.022
2721.605, 1083.472
2723.533, 1091.396
2725.462, 1097.543
2727.390, 1090.883
2729.319, 1084.684
2731.247, 1095.419
2733.176, 1108.233
2735.104, 1108.006
2737.032, 1104.316
2738.961, 1106.047
2740.889, 1107.611
2742.818, 1103.187
2744.746, 1098.251
2746.675, 1097.073
2748.603, 1097.629
2750.532, 1098.650
2752.460, 1100.417
2754.389, 1102.455
2756.317, 1106.325
2758.246, 1116.756
2760.174, 1124.553
2762.103, 1121.198
2764.031, 1115.979
2765.959, 1112.083
2767.888, 1111.966
2769.816, 1120.264
2771.745, 1127.359
2773.673, 1130.543
2775.602, 1127.179
2777.530, 1107.386
2779.459, 1093.785
2781.387, 1095.940
2783.316, 1106.177
2785.244, 1130.895
2787.173, 1145.739
2789.101, 1133.364
2791.030, 1120.421
2792.958, 1112.748
2794.886, 1111.058
2796.815, 1115.890
2798.743, 1126.470
2800.672, 1151.834
2802.600, 1164.054
2804.529, 1145.878
2806.457, 1131.941
2808.386, 1125.604
2810.314, 1128.746
2812.243, 1146.111
2814.171, 1155.430
2816.100, 1147.928
2818.028, 1141.441
2819.957, 1135.934
2821.885, 1137.187
2823.813, 1147.015
2825.742, 1153.964
2827.670, 1156.629
2829.599, 1156.360
2831.527, 1152.116
2833.456, 1149.390
2835.384, 1148.180
2837.313, 1146.547
2839.241, 1144.609
2841.170, 1149.821
2843.098, 1162.302
2845.027, 1162.393
2846.955, 1151.349
2848.884, 1154.698
2850.812, 1168.196
2852.740, 1168.579
2854.669, 1160.571
2856.597, 1164.704
2858.526, 1175.772
2860.454, 1178.019
2862.383, 1174.032
2864.311, 1167.464
2866.240, 1161.116
2868.168, 1159.388
2870.097, 1161.086
2872.025, 1165.424
2873.954, 1171.291
2875.882, 1179.002
2877.811, 1185.642
2879.739, 1188.109
2881.667, 1188.906
2883.596, 1190.926
2885.524, 1190.941
2887.453, 1179.305
2889.381, 1176.069
2891.310, 1202.593
2893.238, 1220.216
2895.167, 1202.580
2897.095, 1185.479
2899.024, 1180.093
2900.952, 1179.120
2902.881, 1180.315
2904.809, 1188.731
2906.738, 1216.035
2908.666, 1226.345
2910.594, 1207.618
2912.523, 1192.065
2914.451, 1180.272
2916.380, 1188.127
2918.308, 1222.378
2920.237, 1229.062
2922.165, 1200.945
2924.094, 1196.837
2926.022, 1214.236
2927.951, 1220.114
2929.879, 1216.213
2931.808, 1219.236
2933.736, 1226.916
2935.665, 1233.240
2937.593, 1235.463
2939.521, 1217.961
2941.450, 1198.805
2943.378, 1213.934
2945.307, 1236.855
2947.235, 1230.080
2949.164, 1216.412
2951.092, 1218.936
2953.021, 1222.458
2954.949, 1213.186
2956.878, 1205.737
2958.806, 1209.468
2960.735, 1215.832
2962.663, 1221.918
2964.592, 1229.606
2966.520, 1244.568
2968.448, 1250.345
2970.377, 1236.759
2972.305, 1226.760
2974.234, 1221.632
2976.162, 1223.018
2978.091, 1232.773
2980.019, 1234.449
2981.948, 1226.089
2983.876, 1223.031
2985.805, 1224.827
2987.733, 1228.443
2989.662, 1232.450
2991.590, 1229.829
2993.519, 1224.224
2995.447, 1225.747
2997.375, 1231.194
2999.304, 1234.418
3001.232, 1239.038
3003.161, 1253.197
3005.089, 1265.740
3007.018, 1267.543
3008.946, 1262.550
3010.875, 1246.909
3012.803, 1236.130
3014.732, 1242.708
3016.660, 1245.548
3018.589, 1233.323
3020.517, 1235.001
3022.446, 1261.168
3024.374, 1274.909
3026.302, 1263.114
3028.231, 1260.346
3030.159, 1267.072
3032.088, 1274.866
3034.016, 1282.540
3035.945, 1281.281
3037.873, 1274.143
3039.802, 1275.806
3041.730, 1281.077
3043.659, 1275.545
3045.587, 1267.965
3047.516, 1273.313
3049.444, 1278.490
3051.373, 1265.145
3053.301, 1254.714
3055.229, 1264.217
3057.158, 1271.821
3059.086, 1257.816
3061.015, 1257.562
3062.943, 1289.408
3064.872, 1303.037
3066.800, 1286.025
3068.729, 1275.442
3070.657, 1278.515
3072.586, 1277.957
3074.514, 1274.090
3076.443, 1268.777
3078.371, 1263.900
3080.300, 1268.012
3082.228, 1277.026
3084.156, 1281.245
3086.085, 1283.072
3088.013, 1285.598
3089.942, 1287.975
3091.870, 1289.107
3093.799, 1290.327
3095.727, 1293.570
3097.656, 1294.932
3099.584, 1290.797
3101.513, 1289.746
3103.441, 1294.123
3105.370, 1304.004
3107.298, 1321.374
3109.227, 1319.420
3111.155, 1295.091
3113.083, 1286.206
3115.012, 1291.142
3116.940, 1297.264
3118.869, 1303.641
3120.797, 1308.555
3122.726, 1311.816
3124.654, 1312.171
3126.583, 1311.836
3128.511, 1312.699
3130.440, 1313.342
3132.368, 1314.042
3134.297, 1312.047
3136.225, 1304.019
3138.154, 1299.730
3140.082, 1301.431
3142.010, 1302.413
3143.939, 1301.768
3145.867, 1299.977
3147.796, 1298.189
3149.724, 1312.150
3151.653, 1333.445
3153.581, 1338.416
3155.510, 1333.206
3157.438, 1320.236
3159.367, 1312.525
3161.295, 1329.053
3163.224, 1342.646
3165.152, 1333.909
3167.081, 1325.132
3169.009, 1322.992
3170.938, 1317.842
3172.866, 1303.804
3174.794, 1301.612
3176.723, 1312.416
3178.651, 1331.751
3180.580, 1354.334
3182.508, 1351.104
3184.437, 1334.502
3186.365, 1333.221
3188.294, 1338.174
3190.222, 1337.702
3192.151, 1339.057
3194.079, 1353.724
3196.008, 1360.180
3197.936, 1345.229
3199.865, 1339.083
3201.793, 1353.733
3203.721, 1359.627
3205.650, 1353.213
3207.578, 1347.566
3209.507, 1344.013
3211.435, 1352.177
3213.364, 1365.398
3215.292, 1367.724
3217.221, 1363.552
3219.149, 1352.437
3221.078, 1346.411
3223.006, 1355.224
3224.935, 1370.908
3226.863, 1398.279
3228.792, 1405.971
3230.720, 1380.408
3232.648, 1361.314
3234.577, 1350.976
3236.505, 1354.454
3238.434, 1367.456
3240.362, 1372.456
3242.291, 1370.994
3244.219, 1359.104
3246.148, 1351.826
3248.076, 1370.550
3250.005, 1386.315
3251.933, 1377.265
3253.862, 1371.992
3255.790, 1377.544
3257.719, 1383.722
3259.647, 1389.999
3261.575, 1386.566
3263.504, 1374.578
3265.432, 1370.940
3267.361, 1373.491
3269.289, 1379.700
3271.218, 1385.159
3273.146, 1384.297
3275.075, 1380.488
3277.003, 1372.485
3278.932, 1368.066
3280.860, 1369.030
3282.789, 1377.684
3284.717, 1395.263
3286.646, 1401.490
3288.574, 1396.644
3290.502, 1400.849
3292.431, 1408.219
3294.359, 1403.148
3296.288, 1393.481
3298.216, 1381.404
3300.145, 1379.104
3302.073, 1399.810
3304.002, 1412.374
3305.930, 1398.550
3307.859, 1392.763
3309.787, 1396.768
3311.716, 1406.245
3313.644, 1418.661
3315.573, 1419.868
3317.501, 1417.109
3319.429, 1430.480
3321.358, 1439.808
3323.286, 1422.098
3325.215, 1404.552
3327.143, 1396.717
3329.072, 1398.052
3331.000, 1411.689
3332.929, 1412.259
3334.857, 1398.207
3336.786, 1403.322
3338.714, 1420.124
3340.643, 1432.043
3342.571, 1437.873
3344.500, 1431.856
3346.428, 1425.288
3348.356, 1423.003
3350.285, 1424.690
3352.213, 1433.613
3354.142, 1436.366
3356.070, 1432.449
3357.999, 1427.381
3359.927, 1423.271
3361.856, 1432.605
3363.784, 1442.159
3365.713, 1431.908
3367.641, 1417.860
3369.570, 1403.150
3371.498, 1405.234
3373.427, 1434.631
3375.355, 1449.139
3377.283, 1439.918
3379.212, 1443.623
3381.140, 1453.414
3383.069, 1436.042
3384.997, 1414.051
3386.926, 1421.530
3388.854, 1437.757
3390.783, 1453.880
3392.711, 1465.774
3394.640, 1472.866
3396.568, 1472.262
3398.497, 1464.239
3400.425, 1462.362
3402.354, 1463.152
3404.282, 1445.309
3406.210, 1429.614
3408.139, 1445.620
3410.067, 1465.203
3411.996, 1475.738
3413.924, 1475.919
3415.853, 1464.063
3417.781, 1451.619
3419.710, 1439.835
3421.638, 1435.594
3423.567, 1436.164
3425.495, 1433.422
3427.424, 1433.495
3429.352, 1446.284
3431.281, 1457.928
3433.209, 1463.573
3435.137, 1465.335
3437.066, 1461.112
3438.994, 1476.023
3440.923, 1501.136
3442.851, 1486.727
3444.780, 1460.849
3446.708, 1472.988
3448.637, 1488.227
3450.565, 1483.835
3452.494, 1479.414
3454.422, 1479.700
3456.351, 1477.822
3458.279, 1473.643
3460.208, 1474.443
3462.136, 1478.140
3464.064, 1480.933
3465.993, 1481.692
3467.921, 1477.734
3469.850, 1474.109
3471.778, 1470.826
3473.707, 1475.953
3475.635, 1492.179
3477.564, 1504.678
3479.492, 1511.505
3481.421, 1500.384
3483.349, 1486.336
3485.278, 1486.328
3487.206, 1488.842
3489.135, 1490.642
3491.063, 1488.001
3492.991, 1476.473
3494.920, 1484.974
3496.848, 1505.805
3498.777, 1508.101
3500.705, 1504.190
3502.634, 1513.208
3504.562, 1518.462
3506.491, 1510.362
3508.419, 1497.640
3510.348, 1479.265
3512.276, 1489.448
3514.205, 1519.578
3516.133, 1521.359
3518.062, 1512.008
3519.990, 1512.352
3521.918, 1515.626
3523.847, 1522.309
3525.775, 1520.585
3527.704, 1508.445
3529.632, 1505.453
3531.561, 1510.332
3533.489, 1513.167
3535.418, 1516.779
3537.346, 1527.067
3539.275, 1534.152
3541.203, 1531.435
3543.132, 1529.200
3545.060, 1528.494
3546.989, 1544.354
3548.917, 1567.207
3550.845, 1553.712
3552.774, 1530.176
3554.702, 1519.305
3556.631, 1513.614
3558.559, 1509.495
3560.488, 1514.451
3562.416, 1529.929
3564.345, 1548.411
3566.273, 1562.112
3568.202, 1548.477
3570.130, 1531.497
3572.059, 1531.250
3573.987, 1533.460
3575.916, 1533.879
3577.844, 1539.343
3579.772, 1548.701
3581.701, 1545.079
3583.629, 1538.646
3585.558, 1548.054
3587.486, 1557.287
3589.415, 1558.498
3591.343, 1556.004
3593.272, 1550.300
3595.200, 1542.335
3597.129, 1534.301
3599.057, 1533.251
3600.986, 1535.577
3602.914, 1536.899
3604.843, 1541.334
3606.771, 1554.855
3608.699, 1559.389
3610.628, 1555.593
3612.556, 1556.572
3614.485, 1560.603
3616.413, 1568.636
3618.342, 1570.446
3620.270, 1547.983
3622.199, 1548.138
3624.127, 1578.440
3626.056, 1583.795
3627.984, 1570.830
3629.913, 1569.643
3631.841, 1569.517
3633.770, 1555.855
3635.698, 1551.261
3637.626, 1565.860
3639.555, 1575.530
3641.483, 1578.563
3643.412, 1572.843
3645.340, 1566.247
3647.269, 1571.234
3649.197, 1577.612
3651.126, 1581.871
3653.054, 1580.224
3654.983, 1573.163
3656.911, 1582.311
3658.840, 1597.579
3660.768, 1594.641
3662.697, 1589.252
3664.625, 1588.871
3666.553, 1595.874
3668.482, 1610.837
3670.410, 1612.909
3672.339, 1604.924
3674.267, 1589.171
3676.196, 1580.857
3678.124, 1602.554
3680.053, 1612.699
3681.981, 1602.864
3683.910, 1585.899
3685.838, 1568.402
3687.767, 1578.204
3689.695, 1594.151
3691.624, 1593.897
3693.552, 1597.213
3695.480, 1610.609
3697.409, 1617.651
3699.337, 1617.633
3701.266, 1608.793
3703.194, 1602.911
3705.123, 1618.108
3707.051, 1627.666
3708.980, 1621.975
3710.908, 1614.383
3712.837, 1606.778
3714.765, 1603.771
3716.694, 1604.485
3718.622, 1606.884
3720.551, 1614.092
3722.479, 1629.473
3724.407, 1638.825
3726.336, 1640.826
3728.264, 1633.171
3730.193, 1624.326
3732.121, 1625.661
3734.050, 1626.923
3735.978, 1623.667
3737.907, 1623.313
3739.835, 1626.581
3741.764, 1637.232
3743.692, 1646.388
3745.621, 1647.965
3747.549, 1635.059
3749.478, 1597.409
3751.406, 1591.609
3753.334, 1613.239
3755.263, 1623.913
3757.191, 1623.768
3759.120, 1602.188
3761.048, 1597.966
3762.977, 1626.555
3764.905, 1641.933
3766.834, 1645.206
3768.762, 1648.311
3770.691, 1650.723
3772.619, 1651.062
3774.548, 1653.271
3776.476, 1658.791
3778.405, 1656.068
3780.333, 1648.968
3782.261, 1647.134
3784.190, 1651.073
3786.118, 1665.940
3788.047, 1669.593
3789.975, 1658.812
3791.904, 1670.389
3793.832, 1690.828
3795.761, 1694.401
3797.689, 1691.631
3799.618, 1687.543
3801.546, 1676.750
3803.475, 1660.907
3805.403, 1671.976
3807.332, 1686.430
3809.260, 1665.242
3811.188, 1650.353
3813.117, 1657.794
3815.045, 1669.061
3816.974, 1680.376
3818.902, 1679.350
3820.831, 1672.214
3822.759, 1658.755
3824.688, 1655.434
3826.616, 1668.696
3828.545, 1677.334
3830.473, 1679.665
3832.402, 1669.627
3834.330, 1659.220
3836.259, 1655.037
3838.187, 1650.260
3840.115, 1644.730
3842.044, 1652.527
3843.972, 1663.436
3845.901, 1663.247
3847.829, 1665.669
3849.758, 1675.276
3851.686, 1673.951
3853.615, 1667.040
3855.543, 1682.200
3857.472, 1696.553
3859.400, 1691.627
3861.329, 1684.032
3863.257, 1676.729
3865.186, 1682.775
3867.114, 1694.606
3869.042, 1702.728
3870.971, 1708.395
3872.899, 1711.620
3874.828, 1711.589
3876.756, 1709.555
3878.685, 1705.284
3880.613, 1701.548
3882.542, 1707.412
3884.470, 1701.022
3886.399, 1678.915
3888.327, 1682.055
3890.256, 1695.966
3892.184, 1698.802
3894.113, 1699.037
3896.041, 1695.509
3897.969, 1688.003
3899.898, 1684.096
3901.826, 1704.572
3903.755, 1726.419
3905.683, 1732.077
3907.612, 1725.871
3909.540, 1711.752
3911.469, 1702.658
3913.397, 1700.972
3915.326, 1719.287
3917.254, 1723.173
3919.183, 1708.521
3921.111, 1707.383
3923.040, 1720.089
3924.968, 1753.387
3926.896, 1766.893
3928.825, 1737.534
3930.753, 1725.068
3932.682, 1734.469
3934.610, 1744.895
3936.539, 1746.947
3938.467, 1738.403
3940.396, 1731.269
3942.324, 1729.803
3944.253, 1740.811
3946.181, 1748.465
3948.110, 1748.551
3950.038, 1747.944
3951.967, 1734.997
3953.895, 1730.375
3955.823, 1734.518
3957.752, 1734.666
3959.680, 1744.901
3961.609, 1760.560
3963.537, 1758.505
3965.466, 1754.009
3967.394, 1751.024
3969.323, 1748.631
3971.251, 1750.592
3973.180, 1749.923
3975.108, 1748.241
3977.037, 1745.842
3978.965, 1751.414
3980.894, 1772.472
3982.822, 1772.889
3984.750, 1758.312
3986.679, 1752.328
3988.607, 1741.470
3990.536, 1744.859
3992.464, 1767.966
3994.393, 1781.185
3996.321, 1770.874
3998.250, 1762.802
4000.178, 1767.531
4002.107, 1769.180
4004.035, 1768.265
4005.964, 1781.597
4007.892, 1801.588
4009.821, 1807.098
4011.749, 1791.113
4013.677, 1780.979
4015.606, 1777.657
4017.534, 1775.664
4019.463, 1781.232
4021.391, 1785.615
4023.320, 1792.520
4025.248, 1797.263
4027.177, 1798.208
4029.105, 1790.296
4031.034, 1783.345
4032.962, 1782.790
4034.891, 1794.245
4036.819, 1804.994
4038.748, 1795.340
4040.676, 1795.407
4042.604, 1795.685
4044.533, 1800.027
4046.461, 1814.172
4048.390, 1803.793
4050.318, 1796.973
4052.247, 1795.910
4054.175, 1787.926
4056.104, 1786.612
4058.032, 1795.370
4059.961, 1798.211
4061.889, 1798.667
4063.818, 1802.221
4065.746, 1805.196
4067.675, 1798.280
4069.603, 1796.467
4071.531, 1813.074
4073.460, 1801.995
4075.388, 1783.469
4077.317, 1800.359
4079.245, 1822.005
4081.174, 1833.568
4083.102, 1836.622
4085.031, 1831.553
4086.959, 1828.187
4088.888, 1827.755
4090.816, 1813.863
4092.745, 1803.689
4094.673, 1806.726
4096.602, 1807.546
4098.530, 1812.341
4100.458, 1833.238
4102.387, 1841.967
4104.315, 1836.962
4106.244, 1826.969
4108.172, 1819.160
4110.101, 1813.997
4112.029, 1819.541
4113.958, 1833.978
4115.886, 1831.028
4117.814, 1819.281
4119.743, 1794.584
4121.671, 1798.981
4123.600, 1826.892
4125.528, 1826.591
4127.457, 1816.876
4129.385, 1803.800
4131.314, 1817.719
4133.242, 1851.771
4135.171, 1854.944
4137.099, 1845.302
4139.028, 1830.174
4140.956, 1839.032
4142.885, 1866.225
4144.813, 1848.125
4146.742, 1824.419
4148.670, 1827.159
4150.599, 1836.651
4152.527, 1848.363
4154.456, 1846.040
4156.384, 1841.289
4158.313, 1843.192
4160.241, 1842.028
4162.169, 1838.863
4164.098, 1846.084
4166.026, 1856.007
4167.955, 1868.617
4169.883, 1861.849
4171.812, 1839.632
4173.740, 1850.619
4175.668, 1867.981
4177.597, 1876.023
4179.525, 1865.841
4181.454, 1843.757
4183.382, 1840.687
4185.311, 1847.583
4187.239, 1860.003
4189.168, 1884.125
4191.096, 1909.475
4193.025, 1903.121
4194.953, 1885.047
4196.882, 1863.245
4198.810, 1852.666
4200.739, 1854.190
4202.667, 1869.286
4204.596, 1881.425
4206.524, 1883.351
4208.453, 1893.513
4210.381, 1904.054
4212.310, 1893.223
4214.238, 1885.088
4216.167, 1885.510
4218.095, 1888.112
4220.023, 1890.254
4221.952, 1885.664
4223.880, 1887.037
4225.809, 1896.373
4227.737, 1888.386
4229.666, 1875.326
4231.594, 1870.024
4233.522, 1880.766
4235.451, 1905.914
4237.379, 1886.325
4239.308, 1863.284
4241.236, 1881.367
4243.165, 1889.453
4245.093, 1882.496
4247.022, 1885.708
4248.950, 1887.830
4250.879, 1879.919
4252.807, 1876.862
4254.736, 1877.515
4256.664, 1869.437
4258.593, 1863.881
4260.521, 1866.394
4262.450, 1872.845
4264.378, 1877.270
4266.307, 1855.305
4268.235, 1858.443
4270.164, 1904.258
4272.092, 1916.023
4274.021, 1910.337
4275.949, 1910.904
4277.877, 1900.341
4279.806, 1877.018
4281.734, 1879.341
4283.663, 1891.419
4285.591, 1904.654
4287.520, 1902.121
4289.448, 1888.198
4291.376, 1895.070
4293.305, 1897.294
4295.233, 1879.513
4297.162, 1884.140
4299.090, 1900.547
4301.019, 1901.245
4302.947, 1902.889
4304.876, 1910.022
4306.804, 1920.002
4308.733, 1921.739
4310.661, 1897.272
4312.590, 1878.876
4314.518, 1872.977
4316.447, 1900.250
4318.375, 1920.176
4320.304, 1905.615
4322.232, 1895.597
4324.161, 1894.684
4326.089, 1913.319
4328.018, 1916.945
4329.946, 1895.921
4331.875, 1912.086
4333.803, 1935.230
4335.731, 1923.011
4337.660, 1907.667
4339.588, 1896.563
4341.517, 1902.796
4343.445, 1911.730
4345.374, 1914.783
4347.302, 1908.435
4349.230, 1901.884
4351.159, 1921.959
4353.087, 1932.679
4355.016, 1923.032
4356.944, 1918.154
4358.873, 1918.962
4360.801, 1926.891
4362.730, 1938.928
4364.658, 1949.176
4366.587, 1924.514
4368.515, 1907.726
4370.444, 1931.151
4372.372, 1938.397
4374.301, 1934.815
4376.229, 1926.974
4378.158, 1919.655
4380.086, 1913.727
4382.015, 1912.919
4383.943, 1912.355
4385.872, 1906.456
4387.800, 1918.137
4389.729, 1934.286
4391.657, 1910.994
4393.585, 1897.806
4395.514, 1907.471
4397.442, 1906.976
4399.371, 1910.199
4401.299, 1934.998
4403.228, 1944.289
4405.156, 1935.992
4407.084, 1903.044
4409.013, 1893.047
4410.941, 1921.854
4412.870, 1928.603
4414.798, 1921.769
4416.727, 1906.705
4418.655, 1910.292
4420.584, 1926.427
4422.512, 1907.700
4424.441, 1906.328
4426.369, 1961.181
4428.298, 1952.431
4430.226, 1924.011
4432.155, 1932.984
4434.083, 1935.606
4436.012, 1928.570
4437.940, 1922.102
4439.869, 1920.922
4441.797, 1927.293
4443.726, 1934.413
4445.654, 1932.208
4447.583, 1902.168
4449.511, 1885.256
4451.439, 1888.738
4453.368, 1931.953
4455.296, 1959.652
4457.225, 1949.152
4459.153, 1926.539
4461.082, 1906.973
4463.010, 1903.292
4464.938, 1924.862
4466.867, 1956.757
4468.795, 1936.279
4470.724, 1917.851
4472.652, 1921.274
4474.581, 1922.704
4476.509, 1924.166
4478.438, 1927.340
4480.366, 1936.376
4482.295, 1942.684
4484.223, 1911.312
4486.152, 1905.950
4488.080, 1935.875
4490.009, 1939.592
4491.937, 1937.124
4493.866, 1949.705
4495.794, 1931.847
4497.723, 1902.303
4499.651, 1897.884
4501.580, 1894.775
4503.508, 1890.219
4505.437, 1893.380
4507.365, 1910.491
4509.293, 1946.881
4511.222, 1936.666
4513.150, 1915.730
4515.079, 1924.946
4517.007, 1941.161
4518.936, 1953.766
4520.864, 1937.448
4522.792, 1929.789
4524.721, 1941.620
4526.649, 1933.303
4528.578, 1919.311
4530.506, 1906.821
4532.435, 1906.578
4534.363, 1917.502
4536.292, 1944.894
4538.220, 1954.747
4540.149, 1945.638
4542.077, 1927.177
4544.006, 1917.461
4545.934, 1922.844
4547.863, 1963.723
4549.791, 1984.180
4551.720, 1902.685
4553.648, 1913.908
4555.577, 1967.686
4557.505, 1950.075
4559.434, 1930.848
4561.362, 1922.957
4563.291, 1934.722
4565.219, 1937.455
4567.147, 1922.070
4569.076, 1927.044
4571.004, 1938.148
4572.933, 1940.783
4574.861, 1950.941
4576.790, 1959.460
4578.718, 1942.535
4580.646, 1933.293
4582.575, 1935.828
4584.503, 1948.221
4586.432, 1957.719
4588.360, 1959.414
4590.289, 1930.157
4592.217, 1911.806
4594.146, 1939.494
4596.074, 1956.618
4598.003, 1957.389
4599.931, 1918.803
4601.860, 1935.664
4603.788, 1984.396
4605.717, 1944.950
4607.645, 1921.039
4609.574, 1932.359
4611.502, 1927.545
4613.431, 1934.192
4615.359, 1970.230
4617.288, 1955.760
4619.216, 1932.971
4621.145, 1951.217
4623.073, 1948.035
4625.001, 1935.575
4626.930, 1945.968
4628.858, 1936.860
4630.787, 1915.970
4632.715, 1938.411
4634.644, 1951.940
4636.572, 1941.971
4638.500, 1947.877
4640.429, 1954.712
4642.357, 1955.086
4644.286, 1941.273
4646.214, 1923.466
4648.143, 1907.189
4650.071, 1922.677
4652.000, 1945.055
4653.928, 1924.703
4655.857, 1923.568
4657.785, 1942.196
4659.714, 1959.411
4661.642, 1967.977
4663.571, 1965.341
4665.499, 1937.445
4667.428, 1918.892
4669.356, 1922.764
4671.285, 1927.597
4673.213, 1928.216
4675.142, 1917.681
4677.070, 1924.293
4678.999, 1936.535
4680.927, 1942.637
4682.855, 1941.492
4684.784, 1937.237
4686.712, 1934.097
4688.641, 1942.029
4690.569, 1955.693
4692.498, 1953.486
4694.426, 1942.994
4696.354, 1928.738
4698.283, 1931.217
4700.211, 1945.087
4702.140, 1965.604
4704.068, 1950.669
4705.997, 1931.365
4707.925, 1928.436
4709.854, 1914.592
4711.782, 1910.902
4713.711, 1938.278
4715.639, 1941.611
4717.568, 1925.835
4719.496, 1892.765
4721.425, 1888.089
4723.353, 1905.345
4725.282, 1932.014
4727.210, 1935.823
4729.139, 1926.094
4731.067, 1953.633
4732.996, 1952.695
4734.924, 1920.957
4736.853, 1925.139
4738.781, 1933.312
4740.709, 1934.756
4742.638, 1915.617
4744.566, 1905.329
4746.495, 1913.920
4748.423, 1900.811
4750.352, 1892.761
4752.280, 1909.224
4754.208, 1930.768
4756.137, 1939.357
4758.065, 1919.645
4759.994, 1916.116
4761.922, 1921.230
4763.851, 1924.804
4765.779, 1926.796
4767.708, 1926.106
4769.636, 1919.168
4771.565, 1921.613
4773.493, 1926.962
4775.422, 1917.688
4777.350, 1923.415
4779.279, 1930.367
4781.207, 1875.739
4783.136, 1881.406
4785.064, 1934.282
4786.993, 1919.226
4788.921, 1905.489
4790.850, 1906.711
4792.778, 1907.597
4794.707, 1906.745
4796.635, 1905.624
4798.563, 1924.410
4800.492, 1925.999
4802.420, 1900.901
4804.349, 1887.580
4806.277, 1894.411
4808.206, 1922.316
4810.134, 1921.744
4812.063, 1915.997
4813.991, 1916.143
4815.919, 1899.683
4817.848, 1898.663
4819.776, 1932.216
4821.705, 1955.754
4823.633, 1962.044
4825.562, 1947.468
4827.490, 1926.327
4829.419, 1919.503
4831.347, 1945.768
4833.276, 1936.903
4835.204, 1916.551
4837.133, 1902.216
4839.061, 1923.824
4840.990, 1940.212
4842.918, 1909.013
4844.847, 1897.449
4846.775, 1892.877
4848.704, 1877.360
4850.632, 1896.507
4852.561, 1913.187
4854.489, 1878.894
4856.417, 1886.074
4858.346, 1905.342
4860.274, 1896.753
4862.203, 1912.442
4864.131, 1924.540
4866.060, 1890.263
4867.988, 1896.660
4869.917, 1915.581
4871.845, 1908.888
4873.773, 1892.131
4875.702, 1877.405
4877.630, 1877.079
4879.559, 1883.840
4881.487, 1895.989
4883.416, 1917.864
4885.344, 1918.535
4887.273, 1913.042
4889.201, 1921.879
4891.130, 1922.509
4893.058, 1915.711
4894.987, 1902.089
4896.915, 1894.381
4898.844, 1889.841
4900.772, 1884.439
4902.701, 1886.319
4904.629, 1892.077
4906.558, 1900.059
4908.486, 1896.455
4910.415, 1890.246
4912.343, 1889.989
4914.271, 1893.629
4916.200, 1896.161
4918.128, 1891.786
4920.057, 1899.434
4921.985, 1900.777
4923.914, 1880.423
4925.842, 1870.105
4927.771, 1874.146
4929.699, 1896.677
4931.627, 1884.129
4933.556, 1875.934
4935.484, 1898.018
4937.413, 1901.017
4939.341, 1905.498
4941.270, 1921.965
4943.198, 1900.670
4945.127, 1885.352
4947.055, 1898.489
4948.984, 1915.849
4950.912, 1903.055
4952.841, 1857.232
4954.769, 1855.550
4956.698, 1875.767
4958.626, 1905.036
4960.555, 1917.386
4962.483, 1907.232
4964.412, 1881.831
4966.340, 1875.052
4968.269, 1875.173
4970.197, 1875.622
4972.125, 1860.924
4974.054, 1852.840
4975.982, 1853.553
4977.911, 1854.314
4979.839, 1881.786
4981.768, 1910.468
4983.696, 1878.883
4985.625, 1855.298
4987.553, 1847.681
4989.481, 1857.497
4991.410, 1869.889
4993.338, 1873.548
4995.267, 1852.642
4997.195, 1851.422
4999.124, 1857.630
5001.052, 1860.764
5002.981, 1850.790
5004.909, 1851.585
5006.838, 1876.550
5008.766, 1864.839
5010.695, 1853.796
5012.623, 1861.699
5014.552, 1855.860
5016.480, 1854.517
5018.409, 1860.007
5020.337, 1854.563
5022.266, 1841.126
5024.194, 1827.246
5026.123, 1839.870
5028.051, 1844.657
5029.979, 1844.022
5031.908, 1860.516
5033.836, 1863.001
5035.765, 1855.360
5037.693, 1845.637
5039.622, 1847.180
5041.550, 1854.887
5043.479, 1864.453
5045.407, 1837.619
5047.335, 1820.948
5049.264, 1846.406
5051.192, 1844.379
5053.121, 1849.223
5055.049, 1873.597
5056.978, 1845.783
5058.906, 1824.468
5060.835, 1824.066
5062.763, 1836.714
5064.692, 1845.374
5066.620, 1846.369
5068.549, 1838.040
5070.477, 1825.862
5072.406, 1819.817
5074.334, 1833.950
5076.263, 1847.283
5078.191, 1848.181
5080.120, 1823.175
5082.048, 1813.519
5083.977, 1814.665
5085.905, 1824.475
5087.833, 1863.142
5089.762, 1876.164
5091.690, 1853.447
5093.619, 1830.909
5095.547, 1833.833
5097.476, 1846.137
5099.404, 1807.245
5101.333, 1816.537
5103.261, 1842.033
5105.189, 1819.596
5107.118, 1834.449
5109.046, 1848.831
5110.975, 1825.790
5112.903, 1800.205
5114.832, 1788.437
5116.760, 1796.249
5118.689, 1820.126
5120.617, 1833.521
5122.546, 1833.141
5124.474, 1828.221
5126.403, 1835.294
5128.331, 1845.208
5130.260, 1840.841
5132.188, 1825.442
5134.117, 1804.125
5136.045, 1779.698
5137.974, 1792.496
5139.902, 1805.448
5141.831, 1802.127
5143.759, 1810.549
5145.688, 1818.255
5147.616, 1819.450
5149.544, 1799.452
5151.473, 1811.471
5153.401, 1828.161
5155.330, 1794.501
5157.258, 1784.745
5159.187, 1786.289
5161.115, 1787.750
5163.043, 1786.768
5164.972, 1794.914
5166.900, 1812.898
5168.829, 1825.183
5170.757, 1822.712
5172.686, 1811.697
5174.614, 1806.822
5176.543, 1804.040
5178.471, 1808.053
5180.400, 1823.920
5182.328, 1808.895
5184.257, 1796.272
5186.185, 1801.000
5188.114, 1787.658
5190.042, 1795.928
5191.971, 1815.423
5193.899, 1792.740
5195.828, 1810.152
5197.756, 1833.848
5199.685, 1814.590
5201.613, 1805.265
5203.542, 1793.522
5205.470, 1776.196
5207.398, 1814.945
5209.327, 1803.191
5211.255, 1758.271
5213.184, 1787.114
5215.112, 1806.724
5217.041, 1805.383
5218.969, 1767.692
5220.897, 1802.049
5222.826, 1807.227
5224.754, 1756.342
5226.683, 1792.354
5228.611, 1788.938
5230.540, 1759.764
5232.468, 1801.993
5234.397, 1796.169
5236.325, 1777.614
5238.254, 1783.798
5240.182, 1777.369
5242.111, 1764.571
5244.039, 1756.854
5245.968, 1801.270
5247.896, 1792.646
5249.825, 1761.396
5251.753, 1786.530
5253.682, 1768.702
5255.610, 1762.673
5257.539, 1795.874
5259.467, 1787.091
5261.396, 1766.202
5263.324, 1750.628
5265.252, 1769.399
5267.181, 1745.935
5269.109, 1723.480
5271.038, 1749.522
5272.966, 1756.775
5274.895, 1752.688
5276.823, 1742.943
5278.751, 1729.675
5280.680, 1743.268
5282.608, 1758.642
5284.537, 1734.452
5286.465, 1703.875
5288.394, 1711.901
5290.322, 1765.345
5292.251, 1746.317
5294.179, 1738.879
5296.108, 1746.360
5298.036, 1742.175
5299.965, 1767.075
5301.893, 1776.876
5303.822, 1744.721
5305.750, 1739.691
5307.679, 1748.984
5309.607, 1756.752
5311.536, 1735.723
5313.464, 1746.922
5315.393, 1750.538
5317.321, 1715.825
5319.250, 1696.050
5321.178, 1711.736
5323.106, 1749.294
5325.035, 1768.141
5326.963, 1760.546
5328.892, 1733.017
5330.820, 1696.381
5332.749, 1716.458
5334.677, 1739.026
5336.605, 1741.798
5338.534, 1706.391
5340.462, 1685.839
5342.391, 1691.733
5344.319, 1726.215
5346.248, 1698.115
5348.176, 1710.294
5350.105, 1751.483
5352.033, 1730.312
5353.962, 1700.692
5355.890, 1692.646
5357.819, 1723.640
5359.747, 1705.152
5361.676, 1697.790
5363.604, 1700.038
5365.533, 1672.412
5367.461, 1694.432
5369.390, 1700.244
5371.318, 1657.134
5373.247, 1669.068
5375.175, 1693.358
5377.104, 1707.869
5379.032, 1692.641
5380.960, 1669.205
5382.889, 1661.140
5384.817, 1672.798
5386.746, 1660.539
5388.674, 1684.833
5390.603, 1711.067
5392.531, 1686.604
5394.459, 1703.701
5396.388, 1704.356
5398.316, 1674.599
5400.245, 1642.187
5402.173, 1649.488
5404.102, 1671.803
5406.030, 1684.044
5407.959, 1679.633
5409.887, 1675.034
5411.816, 1674.516
5413.744, 1678.443
5415.673, 1677.164
5417.601, 1672.389
5419.530, 1664.961
5421.458, 1644.530
5423.387, 1650.930
5425.315, 1669.434
5427.244, 1675.498
5429.172, 1670.473
5431.101, 1662.770
5433.029, 1656.236
5434.958, 1654.405
5436.886, 1647.895
5438.814, 1628.642
5440.743, 1597.619
5442.671, 1635.501
5444.600, 1671.923
5446.528, 1684.214
5448.457, 1664.731
5450.385, 1655.934
5452.313, 1643.927
5454.242, 1628.961
5456.170, 1635.014
5458.099, 1629.334
5460.027, 1623.611
5461.956, 1626.797
5463.884, 1618.381
5465.813, 1625.760
5467.741, 1635.877
5469.670, 1626.186
5471.598, 1630.069
5473.527, 1620.615
5475.455, 1598.501
5477.384, 1589.874
5479.312, 1591.235
5481.241, 1598.800
5483.169, 1609.934
5485.098, 1625.142
5487.026, 1620.202
5488.955, 1608.355
5490.883, 1605.681
5492.812, 1592.755
5494.740, 1570.769
5496.668, 1559.173
5498.597, 1590.343
5500.525, 1608.820
5502.454, 1611.418
5504.382, 1599.673
5506.311, 1568.675
5508.239, 1579.981
5510.167, 1590.827
5512.096, 1576.158
5514.024, 1599.609
5515.953, 1591.292
5517.881, 1574.948
5519.810, 1584.788
5521.738, 1585.286
5523.667, 1588.606
5525.595, 1592.294
5527.524, 1585.710
5529.452, 1573.401
5531.381, 1569.281
5533.309, 1573.980
5535.238, 1576.744
5537.166, 1574.813
5539.095, 1565.336
5541.023, 1552.550
5542.952, 1562.747
5544.880, 1545.549
5546.809, 1537.710
5548.737, 1564.481
5550.666, 1561.940
5552.594, 1547.357
5554.522, 1539.199
5556.451, 1552.045
5558.379, 1578.195
5560.308, 1582.371
5562.236, 1561.380
5564.165, 1524.275
5566.093, 1521.901
5568.021, 1543.639
5569.950, 1564.091
5571.878, 1547.113
5573.807, 1530.316
5575.735, 1513.528
5577.664, 1500.931
5579.592, 1505.914
5581.521, 1518.926
5583.449, 1541.126
5585.378, 1564.315
5587.306, 1562.042
5589.235, 1526.579
5591.163, 1494.523
5593.092, 1489.535
5595.020, 1525.154
5596.949, 1536.975
5598.877, 1538.504
5600.806, 1542.037
5602.734, 1522.153
5604.663, 1516.568
5606.591, 1518.921
5608.520, 1518.009
5610.448, 1491.367
5612.376, 1499.414
5614.305, 1517.958
5616.233, 1517.073
5618.162, 1514.877
5620.090, 1508.139
5622.019, 1501.499
5623.947, 1498.785
5625.875, 1479.864
5627.804, 1479.496
5629.732, 1488.402
5631.661, 1488.743
5633.589, 1491.766
5635.518, 1462.238
5637.446, 1444.444
5639.375, 1493.506
5641.303, 1496.507
5643.232, 1486.926
5645.160, 1478.760
5647.089, 1476.498
5649.017, 1466.432
5650.946, 1459.853
5652.874, 1457.671
5654.803, 1457.716
5656.731, 1464.161
5658.660, 1465.961
5660.588, 1468.170
5662.517, 1480.074
5664.445, 1477.564
5666.374, 1472.188
5668.302, 1458.674
5670.230, 1431.166
5672.159, 1438.540
5674.087, 1457.484
5676.016, 1472.639
5677.944, 1472.728
5679.873, 1427.585
5681.801, 1432.167
5683.729, 1447.543
5685.658, 1430.396
5687.586, 1432.291
5689.515, 1423.889
5691.443, 1423.672
5693.372, 1443.304
5695.300, 1419.116
5697.229, 1429.256
5699.157, 1430.799
5701.086, 1399.886
5703.014, 1404.724
5704.943, 1419.308
5706.871, 1420.351
5708.800, 1407.939
5710.728, 1422.800
5712.657, 1397.987
5714.585, 1392.574
5716.514, 1414.017
5718.442, 1390.978
5720.371, 1397.196
5722.299, 1408.147
5724.228, 1410.834
5726.156, 1402.970
5728.084, 1401.275
5730.013, 1401.739
5731.941, 1404.086
5733.870, 1410.392
5735.798, 1413.010
5737.727, 1409.209
5739.655, 1401.754
5741.583, 1394.197
5743.512, 1383.557
5745.440, 1371.448
5747.369, 1370.672
5749.297, 1384.536
5751.226, 1378.122
5753.154, 1370.731
5755.083, 1370.316
5757.011, 1377.036
5758.940, 1382.399
5760.868, 1378.990
5762.797, 1358.279
5764.725, 1336.302
5766.654, 1366.714
5768.582, 1329.860
5770.511, 1322.112
5772.439, 1350.383
5774.368, 1378.244
5776.296, 1342.624
5778.225, 1354.758
5780.153, 1384.958
5782.082, 1381.768
5784.010, 1326.264
5785.938, 1338.337
5787.867, 1352.863
5789.795, 1334.209
5791.724, 1330.016
5793.652, 1330.784
5795.581, 1328.827
5797.509, 1330.837
5799.438, 1357.125
5801.366, 1337.906
5803.294, 1311.221
5805.223, 1308.501
5807.151, 1344.967
5809.080, 1326.927
5811.008, 1326.191
5812.937, 1331.015
5814.865, 1325.741
5816.794, 1307.633
5818.722, 1339.857
5820.651, 1334.063
5822.579, 1299.085
5824.508, 1308.558
5826.436, 1309.156
5828.365, 1296.665
5830.293, 1291.952
5832.222, 1308.324
5834.150, 1314.870
5836.079, 1287.630
5838.007, 1279.505
5839.936, 1299.005
5841.864, 1283.930
5843.792, 1273.980
5845.721, 1276.921
5847.649, 1292.362
5849.578, 1317.347
5851.506, 1293.943
5853.435, 1292.328
5855.363, 1286.920
5857.292, 1268.906
5859.220, 1316.596
5861.148, 1295.935
5863.077, 1269.787
5865.005, 1264.833
5866.934, 1276.367
5868.862, 1269.750
5870.791, 1266.762
5872.719, 1253.640
5874.648, 1233.854
5876.576, 1272.723
5878.505, 1271.008
5880.433, 1247.423
5882.362, 1238.662
5884.290, 1270.984
5886.219, 1246.876
5888.147, 1232.642
5890.076, 1230.135
5892.004, 1230.792
5893.933, 1241.632
5895.861, 1232.349
5897.790, 1228.164
5899.718, 1228.956
5901.646, 1221.004
5903.575, 1239.005
5905.503, 1229.367
5907.432, 1229.507
5909.360, 1250.096
5911.289, 1233.354
5913.217, 1207.716
5915.146, 1214.578
5917.074, 1223.815
5919.002, 1196.512
5920.931, 1216.985
5922.859, 1198.451
5924.788, 1195.258
5926.716, 1218.408
5928.645, 1228.357
5930.573, 1224.503
5932.502, 1206.551
5934.430, 1194.830
5936.359, 1200.408
5938.287, 1205.323
5940.216, 1193.146
5942.144, 1208.401
5944.073, 1215.565
5946.001, 1169.566
5947.930, 1166.152
5949.858, 1180.213
5951.787, 1203.351
5953.715, 1210.828
5955.644, 1169.217
5957.572, 1163.981
5959.500, 1163.568
5961.429, 1169.325
5963.357, 1181.896
5965.286, 1179.928
5967.214, 1191.677
5969.143, 1187.756
5971.071, 1173.422
5973.000, 1163.912
5974.928, 1167.217
5976.856, 1134.083
5978.785, 1148.888
5980.713, 1186.811
5982.642, 1166.808
5984.570, 1154.310
5986.499, 1153.780
5988.427, 1144.850
5990.356, 1133.066
5992.284, 1151.616
5994.213, 1148.081
5996.141, 1148.943
5998.070, 1145.206
5999.998, 1132.613
6001.927, 1121.185
6003.855, 1124.290
6005.784, 1152.484
6007.712, 1157.127
6009.641, 1125.145
6011.569, 1133.134
6013.498, 1135.504
6015.426, 1137.121
6017.354, 1129.906
6019.283, 1112.400
6021.211, 1114.957
6023.140, 1095.413
6025.068, 1096.852
6026.997, 1111.848
6028.925, 1115.854
6030.854, 1097.631
6032.782, 1104.074
6034.710, 1128.266
6036.639, 1134.605
6038.567, 1103.577
6040.496, 1091.353
6042.424, 1113.733
6044.353, 1122.132
6046.281, 1112.221
6048.210, 1103.396
6050.138, 1120.517
6052.067, 1121.428
6053.995, 1109.233
6055.924, 1092.561
6057.852, 1080.036
6059.781, 1086.538
6061.709, 1104.292
6063.638, 1098.814
6065.566, 1081.027
6067.495, 1071.121
6069.423, 1052.382
6071.352, 1063.611
6073.280, 1078.163
6075.208, 1082.231
6077.137, 1075.805
6079.065, 1068.786
6080.994, 1058.248
6082.922, 1062.434
6084.851, 1074.040
6086.779, 1080.656
6088.708, 1079.109
6090.636, 1053.999
6092.564, 1039.226
6094.493, 1035.929
6096.421, 1036.627
6098.350, 1038.323
6100.278, 1073.099
6102.207, 1060.511
6104.135, 1035.366
6106.064, 1027.282
6107.992, 1025.481
6109.921, 1048.927
6111.849, 1036.653
6113.778, 1032.908
6115.706, 1035.356
6117.635, 1004.364
6119.563, 1038.334
6121.492, 1026.829
6123.420, 1024.508
6125.349, 1031.555
6127.277, 1018.261
6129.206, 1012.859
6131.134, 1017.113
6133.063, 1019.175
6134.991, 1010.901
6136.919, 998.4348
6138.848, 1012.278
6140.776, 990.4907
6142.705, 1009.479
6144.633, 1021.210
6146.562, 998.8216
6148.490, 978.2003
6150.418, 1032.062
6152.347, 1006.377
6154.275, 992.2504
6156.204, 1005.957
6158.132, 999.9387
6160.061, 978.7380
6161.989, 993.1165
6163.918, 1000.181
6165.846, 988.6237
6167.775, 971.9011
6169.703, 973.8660
6171.632, 985.8622
6173.560, 989.5214
6175.489, 979.8617
6177.417, 966.0712
6179.346, 962.9317
6181.274, 977.0202
6183.203, 988.5979
6185.131, 980.0332
6187.060, 976.6086
6188.988, 990.5906
6190.917, 977.2885
6192.845, 969.3253
6194.773, 973.3950
6196.702, 967.9247
6198.630, 955.1300
6200.559, 953.7763
6202.487, 933.4387
6204.416, 943.3754
6206.344, 950.1185
6208.272, 956.3882
6210.201, 962.3591
6212.129, 934.4259
6214.058, 961.7316
6215.986, 950.8423
6217.915, 932.4208
6219.843, 934.5625
6221.772, 952.4077
6223.700, 944.3135
6225.629, 945.1289
6227.557, 923.6583
6229.486, 924.5697
6231.414, 941.8951
6233.343, 901.5403
6235.271, 907.0935
6237.200, 925.5073
6239.128, 927.8074
6241.057, 931.9872
6242.985, 942.2585
6244.914, 897.6639
6246.842, 909.3777
6248.771, 927.1360
6250.699, 926.7697
6252.627, 911.8157
6254.556, 895.7270
6256.484, 889.9778
6258.413, 884.5964
6260.341, 899.2916
6262.270, 894.7258
6264.198, 890.1563
6266.126, 936.2188
6268.055, 916.5519
6269.983, 927.1463
6271.912, 914.5665
6273.840, 898.4794
6275.769, 896.7626
6277.697, 897.4621
6279.626, 876.8333
6281.554, 896.5529
6283.483, 906.6224
6285.411, 896.2715
6287.340, 882.0631
6289.268, 883.4767
6291.197, 902.9927
6293.125, 891.3364
6295.054, 868.8500
6296.982, 872.8846
6298.911, 891.2191
6300.839, 875.0443
6302.768, 902.3730
6304.696, 909.8493
6306.625, 880.9023
6308.553, 868.6218
6310.481, 886.9109
6312.410, 889.1636
6314.338, 874.5064
6316.267, 890.8666
6318.195, 898.2585
6320.124, 886.1259
6322.052, 869.8826
6323.980, 869.8712
6325.909, 880.3024
6327.837, 886.4978
6329.766, 879.8765
6331.694, 867.0870
6333.623, 865.4227
6335.551, 887.6218
6337.480, 903.9515
6339.408, 895.6162
6341.337, 897.9835
6343.265, 871.7747
6345.194, 857.0068
6347.122, 896.8176
6349.051, 863.3845
6350.979, 861.0694
6352.908, 850.4678
6354.836, 845.9822
6356.765, 846.3963
6358.693, 847.7851
6360.622, 861.3452
6362.550, 827.6583
6364.479, 844.8332
6366.407, 836.2557
6368.335, 831.0737
6370.264, 836.8049
6372.192, 810.2512
6374.121, 843.1887
6376.049, 842.3848
6377.978, 837.2292
6379.906, 821.2866
6381.834, 825.5898
6383.763, 869.3371
6385.691, 853.4872
6387.620, 832.1452
6389.548, 839.4983
6391.477, 843.6910
6393.405, 848.2706
6395.334, 851.1585
6397.262, 825.3047
6399.191, 815.1783
6401.119, 820.0513
6403.048, 813.6666
6404.976, 822.0992
6406.905, 829.0634
6408.833, 814.8250
6410.762, 825.5622
6412.690, 831.3615
6414.619, 848.9536
6416.547, 860.1595
6418.476, 855.3900
6420.404, 851.1559
6422.333, 869.9496
6424.261, 886.4805
6426.189, 852.2661
6428.118, 864.6981
6430.046, 870.9415
6431.975, 869.7587
6433.903, 881.0804
6435.832, 891.7947
6437.760, 866.1779
6439.688, 884.6141
6441.617, 871.2303
6443.545, 862.6868
6445.474, 859.7628
6447.402, 845.5698
6449.331, 843.7198
6451.259, 848.3558
6453.188, 888.5560
6455.116, 856.1514
6457.045, 839.9557
6458.973, 833.2167
6460.902, 790.2094
6462.830, 791.5309
6464.759, 821.0500
6466.687, 822.4612
6468.616, 799.1152
6470.544, 790.4282
6472.473, 794.1525
6474.401, 788.9286
6476.330, 781.2928
6478.258, 796.0425
6480.187, 774.0884
6482.115, 765.9042
6484.043, 780.2225
6485.972, 782.1616
6487.900, 763.3170
6489.829, 770.1992
6491.757, 760.4274
6493.686, 731.0335
6495.614, 755.3183
6497.542, 784.5311
6499.471, 776.5824
6501.399, 748.6720
6503.328, 750.1819
6505.256, 746.2106
6507.185, 753.6520
6509.113, 752.9799
6511.042, 732.1147
6512.970, 715.8230
6514.899, 722.6904
6516.827, 743.7247
6518.756, 754.2745
6520.684, 738.2978
6522.613, 711.8477
6524.541, 711.3372
6526.470, 712.1436
6528.398, 709.0847
6530.327, 718.3869
6532.255, 732.1428
6534.184, 725.5709
6536.112, 724.7670
6538.041, 712.3983
6539.969, 713.2432
6541.897, 709.8757
6543.826, 704.5983
6545.754, 728.5421
6547.683, 709.0425
6549.611, 711.9620
6551.540, 714.9880
6553.468, 705.2803
6555.396, 707.8496
6557.325, 715.1199
6559.253, 704.0413
6561.182, 684.7487
6563.110, 700.6660
6565.039, 716.7816
6566.967, 684.1533
6568.896, 668.4518
6570.824, 667.7135
6572.753, 677.9371
6574.681, 698.4777
6576.610, 681.3361
6578.538, 693.1385
6580.467, 672.0278
6582.395, 665.2213
6584.324, 701.7842
6586.252, 706.3665
6588.181, 680.1880
6590.109, 679.6295
6592.038, 665.0055
6593.966, 662.1230
6595.895, 664.5528
6597.823, 675.9002
6599.751, 678.7499
6601.680, 659.2787
6603.608, 647.3622
6605.537, 664.9589
6607.465, 667.1723
6609.394, 664.7333
6611.322, 650.5211
6613.250, 636.5985
6615.179, 665.8527
6617.107, 674.7731
6619.036, 666.3096
6620.964, 677.5256
6622.893, 677.5742
6624.821, 673.3012
6626.750, 669.9807
##END=



