##NAMES=Childrenite
##RRUFFID=R060146
##IDEAL CHEMISTRY=Fe^2+^Al(PO_4_)(OH)_2_·H_2_O
##LOCALITY=George and Charlotte mine, Tavistock, Devon, England
##OWNER=RRUFF
##SOURCE=Marcus Origlieri
##DESCRIPTION=Brown transparent pyramidal single crystals
##STATUS=The identification of this mineral is confirmed by single-crystal X-ray diffraction and chemical analysis
##URL=https://www.rruff.net/odr/rruff_sample/R060146
##MEASURED CHEMISTRY=(Fe^2+^_0.83_Mn_0.15_Ca_0.02_)Al_1.00_(P_1.00_O_4_)(OH)_2_·H_2_O
##DIFFRACTION SAMPLE DESCRIPTION=Single crystal, powder profile is calculated
##CELL PARAMETERS=a: 10.418 b: 13.414 c: 6.909 alpha: 90 beta: 90 gamma: 90 volume: 965.5 crystal system: orthorhombic
##FILETYPE=Raman RAW
##RAMAN WAVELENGTH=532

85.98978, 16.76224
87.91824, 16.41805
89.84671, 16.24346
91.77518, 16.43631
93.70364, 16.71163
95.63211, 16.75926
97.56058, 16.42127
99.48904, 16.19759
101.4175, 16.22734
103.3460, 16.55121
105.2744, 17.00092
107.2029, 17.24670
109.1314, 17.77651
111.0598, 19.02420
112.9883, 19.96647
114.9168, 22.75050
116.8452, 27.84153
118.7737, 35.07223
120.7022, 45.67646
122.6306, 61.47099
124.5591, 80.71647
126.4876, 100.5468
128.4160, 120.9141
130.3445, 141.8718
132.2730, 163.4269
134.2014, 185.5024
136.1299, 208.2663
138.0584, 231.9664
139.9868, 256.4095
141.9153, 280.7076
143.8438, 305.3036
145.7722, 329.1866
147.7007, 351.8083
149.6292, 366.2528
151.5576, 366.4915
153.4861, 365.0526
155.4146, 363.2193
157.3430, 361.7500
159.2715, 360.4161
161.2000, 359.6650
163.1284, 359.8187
165.0569, 360.7532
166.9854, 362.5580
168.9138, 365.5962
170.8423, 369.5910
172.7708, 373.5079
174.6992, 377.0738
176.6277, 380.8647
178.5562, 385.2015
180.4846, 390.1661
182.4131, 395.0168
184.3416, 399.5161
186.2701, 403.7120
188.1985, 408.1280
190.1270, 412.2433
192.0555, 416.9150
193.9839, 422.5817
195.9124, 429.7282
197.8409, 437.1224
199.7693, 445.0752
201.6978, 453.2366
203.6263, 460.2896
205.5547, 466.1210
207.4832, 470.6393
209.4117, 473.6740
211.3401, 474.6216
213.2686, 474.9229
215.1971, 474.1482
217.1255, 472.4737
219.0540, 470.8968
220.9825, 469.2869
222.9109, 467.9978
224.8394, 467.5121
226.7679, 467.9510
228.6963, 468.1424
230.6248, 467.6967
232.5533, 466.9054
234.4817, 466.5581
236.4102, 466.3716
238.3387, 466.7456
240.2671, 467.8466
242.1956, 469.6690
244.1241, 471.6845
246.0525, 475.1337
247.9810, 478.9897
249.9095, 480.1618
251.8379, 478.4212
253.7664, 474.3721
255.6949, 468.0905
257.6233, 458.7115
259.5518, 449.1083
261.4803, 439.1602
263.4087, 428.8671
265.3372, 418.8310
267.2657, 408.6095
269.1941, 399.7521
271.1226, 392.5778
273.0511, 387.3516
274.9795, 383.8354
276.9080, 382.6168
278.8365, 382.9370
280.7649, 384.1500
282.6934, 386.6566
284.6219, 390.1069
286.5503, 394.5384
288.4788, 399.8443
290.4073, 404.9614
292.3357, 409.5061
294.2642, 414.0444
296.1927, 418.6461
298.1211, 423.8900
300.0496, 428.0609
301.9781, 431.3548
303.9065, 433.5236
305.8350, 433.9949
307.7635, 431.8473
309.6919, 428.3525
311.6204, 424.1996
313.5489, 419.5255
315.4773, 414.8208
317.4058, 409.4651
319.3343, 403.6187
321.2627, 398.0913
323.1912, 393.1827
325.1197, 388.8247
327.0481, 384.8468
328.9766, 381.1411
330.9051, 377.7883
332.8336, 374.9698
334.7620, 372.7271
336.6905, 371.0409
338.6190, 369.9341
340.5474, 369.2456
342.4759, 369.3251
344.4044, 369.9635
346.3328, 370.5629
348.2613, 371.1598
350.1898, 371.5239
352.1182, 371.1992
354.0467, 369.9923
355.9752, 369.1948
357.9036, 369.2848
359.8321, 370.0029
361.7606, 371.1205
363.6890, 373.2179
365.6175, 375.2556
367.5460, 376.6064
369.4744, 377.3800
371.4029, 378.4156
373.3314, 380.8082
375.2598, 383.5765
377.1883, 385.8341
379.1168, 386.8526
381.0452, 388.2797
382.9737, 390.8475
384.9022, 394.0589
386.8306, 397.0821
388.7591, 399.8321
390.6876, 402.5312
392.6160, 405.0472
394.5445, 407.3346
396.4730, 409.7782
398.4014, 413.4883
400.3299, 417.0712
402.2584, 419.4182
404.1868, 418.4906
406.1153, 417.8476
408.0438, 417.9904
409.9722, 418.5563
411.9007, 418.8190
413.8292, 418.6994
415.7576, 418.1627
417.6861, 417.2844
419.6146, 416.2637
421.5430, 416.3200
423.4715, 416.8643
425.4000, 417.7691
427.3284, 419.0648
429.2569, 421.1526
431.1854, 424.0103
433.1138, 427.5952
435.0423, 431.9120
436.9708, 436.8441
438.8992, 442.6972
440.8277, 449.2666
442.7562, 456.1879
444.6846, 463.2287
446.6131, 470.6326
448.5416, 478.2777
450.4700, 486.2901
452.3985, 494.8096
454.3270, 504.0327
456.2554, 513.4499
458.1839, 524.2706
460.1124, 534.9157
462.0408, 542.5298
463.9693, 545.4030
465.8978, 544.8312
467.8262, 540.6039
469.7547, 533.1614
471.6832, 523.4714
473.6116, 511.8696
475.5401, 499.6586
477.4686, 487.2355
479.3970, 474.9767
481.3255, 462.9721
483.2540, 450.9482
485.1824, 439.3292
487.1109, 428.6313
489.0394, 419.7047
490.9678, 411.4582
492.8963, 403.5413
494.8248, 396.4666
496.7532, 391.2025
498.6817, 388.0893
500.6102, 385.5576
502.5386, 383.1309
504.4671, 381.0172
506.3956, 379.3878
508.3240, 377.4112
510.2525, 375.6359
512.1810, 374.4712
514.1094, 374.3957
516.0379, 374.9366
517.9664, 375.9727
519.8948, 377.2376
521.8233, 378.5356
523.7518, 379.7119
525.6802, 381.5390
527.6087, 384.4184
529.5372, 387.9325
531.4656, 390.8878
533.3941, 394.0787
535.3226, 398.0301
537.2510, 402.8514
539.1795, 407.9337
541.1080, 413.8951
543.0364, 420.4022
544.9649, 427.6146
546.8934, 435.8149
548.8218, 446.2362
550.7503, 456.4330
552.6788, 466.6344
554.6072, 475.7198
556.5357, 483.5028
558.4642, 489.3414
560.3926, 493.8773
562.3211, 496.1941
564.2496, 496.8681
566.1780, 497.7699
568.1065, 500.5633
570.0350, 505.6487
571.9634, 512.5328
573.8919, 522.2750
575.8204, 536.2029
577.7488, 556.6579
579.6773, 577.5244
581.6058, 595.9754
583.5342, 612.0197
585.4627, 631.0311
587.3912, 654.0176
589.3196, 677.9612
591.2481, 702.2411
593.1766, 729.8896
595.1050, 752.2230
597.0335, 769.5833
598.9620, 779.4974
600.8904, 781.7664
602.8189, 775.0546
604.7474, 761.6961
606.6758, 740.0413
608.6043, 715.6373
610.5328, 691.9481
612.4612, 670.1071
614.3897, 650.4052
616.3182, 633.4160
618.2466, 618.8641
620.1751, 605.8152
622.1036, 593.5638
624.0320, 580.7858
625.9605, 567.5519
627.8890, 554.1736
629.8174, 539.9924
631.7459, 524.0963
633.6744, 508.7424
635.6028, 494.8242
637.5313, 482.2978
639.4598, 470.5221
641.3882, 459.5687
643.3167, 449.7277
645.2452, 441.2967
647.1736, 433.5775
649.1021, 426.3366
651.0306, 419.4147
652.9590, 413.4424
654.8875, 408.4511
656.8160, 404.5157
658.7444, 401.2470
660.6729, 398.7767
662.6014, 396.7982
664.5298, 395.0643
666.4583, 393.4716
668.3868, 392.2176
670.3152, 391.6627
672.2437, 391.2665
674.1722, 390.6521
676.1006, 389.8694
678.0291, 389.2302
679.9576, 388.6400
681.8860, 388.2260
683.8145, 388.3766
685.7430, 389.3915
687.6714, 390.2237
689.5999, 390.5838
691.5284, 390.5987
693.4568, 390.3695
695.3853, 389.8284
697.3138, 389.6303
699.2422, 390.1729
701.1707, 390.7982
703.0992, 391.0331
705.0276, 390.5859
706.9561, 390.2245
708.8846, 390.3575
710.8130, 390.7029
712.7415, 390.5545
714.6700, 389.9026
716.5984, 389.2960
718.5269, 388.7572
720.4554, 388.3060
722.3839, 388.3266
724.3123, 389.0560
726.2408, 390.0169
728.1693, 391.2852
730.0977, 392.7205
732.0262, 393.4918
733.9547, 393.1655
735.8831, 392.6591
737.8116, 392.2426
739.7401, 392.0321
741.6685, 392.3153
743.5970, 393.6928
745.5255, 394.9963
747.4539, 396.0468
749.3824, 397.0289
751.3109, 397.3220
753.2393, 395.7955
755.1678, 394.7823
757.0963, 395.8976
759.0247, 399.3226
760.9532, 401.2163
762.8817, 399.7849
764.8101, 398.3884
766.7386, 398.9224
768.6671, 401.2832
770.5955, 402.9984
772.5240, 403.3734
774.4525, 403.6966
776.3809, 404.5997
778.3094, 406.1534
780.2379, 407.7837
782.1663, 409.7241
784.0948, 411.4344
786.0233, 412.3881
787.9517, 412.6158
789.8802, 413.1968
791.8087, 414.4470
793.7371, 415.8788
795.6656, 417.2464
797.5941, 418.5680
799.5225, 420.1801
801.4510, 422.6424
803.3795, 424.8923
805.3079, 426.1866
807.2364, 426.6110
809.1649, 427.5320
811.0933, 429.5033
813.0218, 431.5357
814.9503, 433.0887
816.8787, 434.0436
818.8072, 434.4240
820.7357, 433.8857
822.6641, 433.1431
824.5926, 432.7155
826.5211, 432.8527
828.4495, 432.7425
830.3780, 432.0763
832.3065, 431.3805
834.2349, 431.0197
836.1634, 430.9624
838.0919, 430.9118
840.0203, 430.6162
841.9488, 430.6410
843.8773, 431.2250
845.8057, 432.1644
847.7342, 433.1435
849.6627, 434.0597
851.5911, 435.3590
853.5196, 437.3231
855.4481, 439.6678
857.3765, 441.6872
859.3050, 442.8573
861.2335, 444.3355
863.1619, 446.3492
865.0904, 448.9429
867.0189, 451.7173
868.9473, 454.5379
870.8758, 457.3187
872.8043, 460.0984
874.7327, 463.0814
876.6612, 466.2426
878.5897, 469.5617
880.5181, 473.0925
882.4466, 476.9677
884.3751, 480.8554
886.3035, 484.6292
888.2320, 488.1757
890.1605, 491.5060
892.0889, 494.4920
894.0174, 497.6933
895.9459, 501.1670
897.8743, 505.1632
899.8028, 508.5976
901.7313, 511.2035
903.6597, 512.8445
905.5882, 514.5602
907.5167, 516.4469
909.4451, 518.6230
911.3736, 520.3311
913.3021, 522.6247
915.2305, 527.0558
917.1590, 532.6121
919.0875, 542.2684
921.0159, 557.8332
922.9444, 578.6100
924.8729, 601.2002
926.8013, 628.7369
928.7298, 656.8811
930.6583, 685.1252
932.5867, 715.2971
934.5152, 744.2031
936.4437, 772.4252
938.3721, 806.9775
940.3006, 848.2806
942.2291, 890.9922
944.1575, 943.2243
946.0860, 1002.614
948.0145, 1064.888
949.9429, 1131.804
951.8714, 1213.980
953.7999, 1310.660
955.7283, 1425.488
957.6568, 1553.677
959.5853, 1697.815
961.5137, 1825.417
963.4422, 1946.923
965.3707, 2040.547
967.2991, 2081.939
969.2276, 2077.346
971.1561, 2024.412
973.0845, 1904.185
975.0130, 1737.037
976.9415, 1570.199
978.8699, 1398.979
980.7984, 1247.827
982.7269, 1123.616
984.6553, 1026.094
986.5838, 952.2010
988.5123, 900.9935
990.4407, 864.2347
992.3692, 840.8815
994.2977, 825.2472
996.2261, 815.5814
998.1546, 814.2927
1000.083, 816.8054
1002.012, 823.7235
1003.940, 836.2185
1005.868, 855.6033
1007.797, 877.4001
1009.725, 899.9077
1011.654, 921.3832
1013.582, 934.7672
1015.511, 938.9819
1017.439, 937.1061
1019.368, 927.3635
1021.296, 909.6498
1023.225, 888.4485
1025.153, 863.4244
1027.082, 837.0129
1029.010, 816.2487
1030.939, 801.1140
1032.867, 790.8255
1034.796, 785.7928
1036.724, 782.3248
1038.652, 778.5026
1040.581, 774.4386
1042.509, 768.7310
1044.438, 761.3243
1046.366, 751.9043
1048.295, 739.7292
1050.223, 724.4891
1052.152, 708.4929
1054.080, 692.1517
1056.009, 676.2059
1057.937, 660.9167
1059.866, 646.1456
1061.794, 631.4885
1063.723, 616.7789
1065.651, 602.6303
1067.579, 589.4835
1069.508, 578.1027
1071.436, 569.4635
1073.365, 563.3710
1075.293, 557.8609
1077.222, 552.5123
1079.150, 548.2584
1081.079, 546.2218
1083.007, 547.4291
1084.936, 548.6838
1086.864, 548.6208
1088.793, 548.5089
1090.721, 549.7673
1092.650, 551.9031
1094.578, 553.0018
1096.506, 553.2537
1098.435, 553.8126
1100.363, 554.7606
1102.292, 555.7333
1104.220, 556.6562
1106.149, 558.2486
1108.077, 558.0837
1110.006, 555.2048
1111.934, 551.0372
1113.863, 547.6081
1115.791, 544.7646
1117.720, 541.3367
1119.648, 538.5720
1121.577, 536.6261
1123.505, 534.9067
1125.433, 532.8492
1127.362, 530.2271
1129.290, 526.6561
1131.219, 524.5073
1133.147, 524.0468
1135.076, 524.2494
1137.004, 523.6116
1138.933, 523.5548
1140.861, 524.2198
1142.790, 524.7546
1144.718, 525.3882
1146.647, 526.0656
1148.575, 526.3256
1150.504, 526.0637
1152.432, 526.1039
1154.360, 526.4199
1156.289, 526.3516
1158.217, 525.5891
1160.146, 524.0040
1162.074, 521.5696
1164.003, 519.2459
1165.931, 517.6217
1167.860, 516.4929
1169.788, 515.5537
1171.717, 514.7101
1173.645, 514.2535
1175.574, 514.4915
1177.502, 514.5726
1179.431, 514.0466
1181.359, 513.2339
1183.287, 512.6467
1185.216, 511.5026
1187.144, 510.4406
1189.073, 511.1400
1191.001, 512.7633
1192.930, 513.4055
1194.858, 512.3777
1196.787, 511.4988
1198.715, 512.3504
1200.644, 513.9113
1202.572, 515.1641
1204.501, 516.1658
1206.429, 516.8826
1208.358, 516.5103
1210.286, 515.7498
1212.214, 515.8002
1214.143, 516.6309
1216.071, 517.6274
1218.000, 518.7249
1219.928, 519.5278
1221.857, 519.3461
1223.785, 518.8150
1225.714, 518.8295
1227.642, 519.2855
1229.571, 519.7607
1231.499, 520.2023
1233.428, 521.1156
1235.356, 522.5760
1237.285, 523.7020
1239.213, 523.8999
1241.141, 522.8266
1243.070, 522.8912
1244.998, 525.0460
1246.927, 527.0121
1248.855, 527.8478
1250.784, 527.6255
1252.712, 527.2355
1254.641, 526.7661
1256.569, 527.2159
1258.498, 528.6782
1260.426, 529.8771
1262.355, 530.8196
1264.283, 531.5453
1266.212, 531.8871
1268.140, 531.3167
1270.068, 531.1994
1271.997, 532.1729
1273.925, 533.3393
1275.854, 534.0760
1277.782, 534.3573
1279.711, 535.1866
1281.639, 536.7200
1283.568, 537.8396
1285.496, 538.2214
1287.425, 538.0262
1289.353, 537.7615
1291.282, 537.1588
1293.210, 536.8713
1295.139, 537.5939
1297.067, 538.8859
1298.995, 539.3729
1300.924, 539.0853
1302.852, 539.2645
1304.781, 540.5551
1306.709, 541.7272
1308.638, 541.4876
1310.566, 540.8064
1312.495, 541.5884
1314.423, 544.3388
1316.352, 546.1190
1318.280, 545.7315
1320.209, 545.3102
1322.137, 545.5462
1324.066, 546.2175
1325.994, 546.6767
1327.922, 546.8536
1329.851, 546.8993
1331.779, 546.6061
1333.708, 546.5281
1335.636, 547.0369
1337.565, 548.1482
1339.493, 549.5657
1341.422, 551.5255
1343.350, 552.8402
1345.279, 552.4877
1347.207, 551.9737
1349.136, 552.5626
1351.064, 554.1486
1352.993, 555.7080
1354.921, 557.3915
1356.849, 558.4703
1358.778, 558.1199
1360.706, 557.7181
1362.635, 558.4250
1364.563, 560.3344
1366.492, 561.7056
1368.420, 561.8368
1370.349, 562.6084
1372.277, 564.7770
1374.206, 567.3223
1376.134, 568.8160
1378.063, 568.9399
1379.991, 569.1782
1381.920, 569.3884
1383.848, 569.7757
1385.776, 570.8093
1387.705, 572.2097
1389.633, 573.0961
1391.562, 573.4266
1393.490, 573.8520
1395.419, 574.6374
1397.347, 575.4094
1399.276, 575.7697
1401.204, 576.1215
1403.133, 576.9439
1405.061, 578.1946
1406.990, 579.8118
1408.918, 582.5059
1410.847, 584.5492
1412.775, 584.7913
1414.703, 583.9934
1416.632, 583.7883
1418.560, 584.4122
1420.489, 585.0410
1422.417, 585.4334
1424.346, 586.0844
1426.274, 587.6143
1428.203, 589.5231
1430.131, 590.4234
1432.060, 589.2831
1433.988, 589.3671
1435.917, 592.0412
1437.845, 594.4251
1439.774, 594.7673
1441.702, 593.8995
1443.630, 593.7868
1445.559, 594.4992
1447.487, 595.4788
1449.416, 597.1350
1451.344, 598.5287
1453.273, 598.5276
1455.201, 598.1904
1457.130, 599.7032
1459.058, 603.3917
1460.987, 606.5012
1462.915, 608.6279
1464.844, 609.6237
1466.772, 608.6257
1468.701, 607.0903
1470.629, 607.0137
1472.557, 608.5587
1474.486, 609.8983
1476.414, 610.6077
1478.343, 611.6073
1480.271, 613.7721
1482.200, 616.0950
1484.128, 617.1062
1486.057, 616.4841
1487.985, 616.4874
1489.914, 617.5391
1491.842, 618.4828
1493.771, 618.7732
1495.699, 618.9928
1497.628, 619.9623
1499.556, 621.8360
1501.484, 623.0391
1503.413, 623.6991
1505.341, 623.7673
1507.270, 622.4321
1509.198, 621.2277
1511.127, 621.6553
1513.055, 623.4711
1514.984, 625.1602
1516.912, 626.5246
1518.841, 628.1993
1520.769, 631.1504
1522.698, 633.6808
1524.626, 634.0901
1526.555, 632.9926
1528.483, 632.8987
1530.411, 634.0219
1532.340, 635.5772
1534.268, 638.0385
1536.197, 640.1824
1538.125, 641.2024
1540.054, 641.4149
1541.982, 641.2995
1543.911, 640.8707
1545.839, 640.6450
1547.768, 640.3907
1549.696, 640.8772
1551.625, 643.4219
1553.553, 646.2230
1555.482, 646.9630
1557.410, 645.7451
1559.339, 645.8948
1561.267, 648.7844
1563.195, 650.6602
1565.124, 649.1415
1567.052, 647.2861
1568.981, 647.3541
1570.909, 649.0250
1572.838, 650.3102
1574.766, 651.1699
1576.695, 651.9191
1578.623, 652.8047
1580.552, 653.4454
1582.480, 653.5389
1584.409, 653.3220
1586.337, 652.9644
1588.266, 652.0216
1590.194, 652.5611
1592.122, 656.1834
1594.051, 659.0823
1595.979, 660.1385
1597.908, 660.3575
1599.836, 660.7547
1601.765, 661.2809
1603.693, 661.0414
1605.622, 658.2748
1607.550, 657.8882
1609.479, 662.6357
1611.407, 666.8941
1613.336, 667.6254
1615.264, 666.0531
1617.193, 664.0475
1619.121, 660.9193
1621.049, 660.3253
1622.978, 664.2219
1624.906, 667.7684
1626.835, 669.3900
1628.763, 670.5591
1630.692, 672.7825
1632.620, 675.8785
1634.549, 678.2845
1636.477, 679.6008
1638.406, 681.2663
1640.334, 683.3221
1642.263, 685.8984
1644.191, 688.8672
1646.120, 692.3752
1648.048, 697.2510
1649.976, 703.6286
1651.905, 707.2676
1653.833, 706.2047
1655.762, 705.5992
1657.690, 707.1270
1659.619, 708.9083
1661.547, 709.9540
1663.476, 710.3746
1665.404, 710.1097
1667.333, 709.0316
1669.261, 708.8266
1671.190, 709.7719
1673.118, 711.4884
1675.047, 714.5040
1676.975, 717.6627
1678.903, 719.9269
1680.832, 721.2842
1682.760, 721.7161
1684.689, 720.4473
1686.617, 720.8659
1688.546, 725.3240
1690.474, 729.1591
1692.403, 729.9318
1694.331, 729.4281
1696.260, 729.9717
1698.188, 731.4654
1700.117, 732.3085
1702.045, 732.2909
1703.974, 732.4615
1705.902, 733.1730
1707.830, 733.9560
1709.759, 734.1115
1711.687, 734.3134
1713.616, 735.9870
1715.544, 738.9637
1717.473, 740.6700
1719.401, 740.4971
1721.330, 740.3952
1723.258, 740.8533
1725.187, 741.5629
1727.115, 742.5594
1729.044, 743.6846
1730.972, 744.6658
1732.901, 745.5096
1734.829, 746.0703
1736.757, 746.0789
1738.686, 746.2877
1740.614, 747.1221
1742.543, 747.8644
1744.471, 747.4456
1746.400, 746.9407
1748.328, 748.7000
1750.257, 752.8397
1752.185, 755.5750
1754.114, 756.2108
1756.042, 756.8124
1757.971, 757.6044
1759.899, 758.6213
1761.828, 760.0012
1763.756, 761.5166
1765.684, 762.7873
1767.613, 763.7704
1769.541, 764.6910
1771.470, 765.3840
1773.398, 766.2881
1775.327, 767.5843
1777.255, 768.9843
1779.184, 770.6525
1781.112, 772.1456
1783.041, 772.4310
1784.969, 771.5794
1786.898, 772.2675
1788.826, 776.3697
1790.755, 778.4193
1792.683, 776.4690
1794.611, 774.7888
1796.540, 775.6164
1798.468, 777.2050
1800.397, 777.5632
1802.325, 776.9739
1804.254, 777.0441
1806.182, 778.1829
1808.111, 778.8904
1810.039, 777.9841
1811.968, 778.0339
1813.896, 780.6806
1815.825, 783.4404
1817.753, 784.1345
1819.682, 783.5589
1821.610, 780.9385
1823.538, 785.4258
1825.467, 788.1922
1827.395, 789.3296
1829.324, 783.9604
1831.252, 786.9932
1833.181, 786.6591
1835.109, 786.1866
1837.038, 790.4022
1838.966, 785.9792
1840.895, 790.1205
1842.823, 790.8430
1844.752, 793.1302
1846.680, 792.0293
1848.609, 791.9750
1850.537, 795.3096
1852.465, 796.7676
1854.394, 795.2769
1856.322, 797.6634
1858.251, 793.1223
1860.179, 794.6602
1862.108, 798.8214
1864.036, 797.5007
1865.965, 795.5323
1867.893, 795.3623
1869.822, 795.6859
1871.750, 796.2614
1873.679, 796.9221
1875.607, 797.7884
1877.536, 798.9950
1879.464, 800.4099
1881.392, 801.6020
1883.321, 802.3285
1885.249, 803.7164
1887.178, 806.6698
1889.106, 808.7913
1891.035, 808.7059
1892.963, 808.2949
1894.892, 809.0790
1896.820, 810.3678
1898.749, 810.8817
1900.677, 810.6777
1902.606, 810.7888
1904.534, 811.4558
1906.463, 811.9650
1908.391, 811.9535
1910.319, 812.2380
1912.248, 813.0156
1914.176, 814.1765
1916.105, 815.6871
1918.033, 817.4371
1919.962, 819.4729
1921.890, 821.8421
1923.819, 822.5670
1925.747, 820.7130
1927.676, 819.5967
1929.604, 820.5065
1931.533, 820.9666
1933.461, 819.7213
1935.390, 818.4101
1937.318, 817.9659
1939.246, 818.4683
1941.175, 820.6594
1943.103, 824.2444
1945.032, 825.5344
1946.960, 823.6153
1948.889, 823.2484
1950.817, 826.6339
1952.746, 829.0178
1954.674, 827.0463
1956.603, 824.7972
1958.531, 825.3363
1960.460, 827.3969
1962.388, 829.2952
1964.317, 830.9422
1966.245, 831.2458
1968.173, 829.5999
1970.102, 829.0353
1972.030, 830.6208
1973.959, 832.2578
1975.887, 829.0435
1977.816, 833.1918
1979.744, 835.6188
1981.673, 836.4172
1983.601, 830.7087
1985.530, 833.4025
1987.458, 832.7290
1989.387, 831.9175
1991.315, 835.7938
1993.244, 831.0319
1995.172, 834.8337
1997.100, 835.2171
1999.029, 837.1652
2000.957, 835.7251
2002.886, 835.3316
2004.814, 838.3271
2006.743, 839.4461
2008.671, 837.6160
2010.600, 839.6636
2012.528, 834.7832
2014.457, 836.8843
2016.385, 837.4118
2018.314, 838.0880
2020.242, 839.1162
2022.171, 841.4197
2024.099, 843.0130
2026.027, 841.8736
2027.956, 840.1230
2029.884, 840.9400
2031.813, 843.3450
2033.741, 843.3524
2035.670, 840.4189
2037.598, 839.0772
2039.527, 840.0649
2041.455, 841.0551
2043.384, 842.3871
2045.312, 842.8268
2047.241, 840.4521
2049.169, 838.8327
2051.098, 841.1570
2053.026, 844.6857
2054.955, 846.0717
2056.883, 845.7393
2058.812, 844.7457
2060.740, 843.1279
2062.668, 841.9037
2064.597, 841.0846
2066.525, 840.8942
2068.454, 842.0095
2070.382, 842.7336
2072.311, 842.1985
2074.239, 841.4882
2076.168, 841.2814
2078.096, 841.3323
2080.025, 841.3425
2081.953, 841.3763
2083.882, 841.7105
2085.810, 842.4700
2087.739, 842.3632
2089.667, 840.8222
2091.595, 840.3420
2093.524, 841.9916
2095.452, 842.7223
2097.381, 841.0091
2099.309, 838.9373
2101.238, 837.6002
2103.166, 836.5481
2105.095, 835.0797
2107.023, 833.9013
2108.952, 834.7914
2110.880, 837.4700
2112.809, 838.6934
2114.737, 837.8967
2116.666, 838.0111
2118.594, 840.4008
2120.522, 841.3222
2122.451, 838.9403
2124.379, 837.0320
2126.308, 837.2475
2128.236, 837.8450
2130.165, 838.0173
2132.093, 837.7869
2134.022, 836.8082
2135.950, 835.4757
2137.879, 834.7316
2139.807, 834.5600
2141.736, 835.7284
2143.664, 838.6416
2145.593, 839.1435
2147.521, 835.2161
2149.449, 832.9680
2151.378, 835.0671
2153.306, 837.6335
2155.235, 839.5848
2157.163, 841.1006
2159.092, 841.5362
2161.020, 841.8789
2162.949, 843.5533
2164.877, 845.9586
2166.806, 847.8788
2168.734, 849.2786
2170.663, 849.5898
2172.591, 848.9085
2174.520, 847.8987
2176.448, 846.6406
2178.376, 845.6865
2180.305, 845.1695
2182.233, 844.9315
2184.162, 844.9158
2186.090, 844.9869
2188.019, 845.1075
2189.947, 845.1868
2191.876, 844.9512
2193.804, 844.8152
2195.733, 845.9289
2197.661, 847.9322
2199.590, 847.9479
2201.518, 845.7650
2203.447, 846.2965
2205.375, 850.4372
2207.303, 852.1728
2209.232, 849.6941
2211.160, 847.6881
2213.089, 848.0226
2215.017, 848.3924
2216.946, 847.4551
2218.874, 846.8703
2220.803, 848.0129
2222.731, 849.6656
2224.660, 850.6808
2226.588, 851.0436
2228.517, 850.2551
2230.445, 848.7180
2232.374, 849.7435
2234.302, 853.3655
2236.230, 854.9517
2238.159, 854.0818
2240.087, 853.1044
2242.016, 852.0525
2243.944, 851.8715
2245.873, 853.2791
2247.801, 854.7050
2249.730, 855.8836
2251.658, 856.5814
2253.587, 855.9749
2255.515, 855.6340
2257.444, 857.6828
2259.372, 860.3132
2261.301, 860.3641
2263.229, 858.9733
2265.157, 859.9015
2267.086, 862.5849
2269.014, 863.5887
2270.943, 862.7770
2272.871, 862.6592
2274.800, 863.4138
2276.728, 865.1239
2278.657, 869.3126
2280.585, 871.8944
2282.514, 871.1758
2284.442, 870.2987
2286.371, 869.3624
2288.299, 869.4738
2290.228, 872.0659
2292.156, 875.0496
2294.084, 877.3896
2296.013, 878.8635
2297.941, 878.8300
2299.870, 877.9088
2301.798, 876.8668
2303.727, 875.9548
2305.655, 876.7679
2307.584, 879.4057
2309.512, 881.8273
2311.441, 884.5272
2313.369, 885.3102
2315.298, 883.3088
2317.226, 882.2772
2319.155, 882.9479
2321.083, 883.8859
2323.011, 884.5583
2324.940, 885.4639
2326.868, 887.6900
2328.797, 888.9388
2330.725, 887.2822
2332.654, 884.9367
2334.582, 883.7985
2336.511, 883.1357
2338.439, 881.8709
2340.368, 880.5187
2342.296, 880.2256
2344.225, 880.6505
2346.153, 880.5565
2348.082, 880.0004
2350.010, 879.5521
2351.938, 879.1992
2353.867, 879.5404
2355.795, 880.8989
2357.724, 881.9935
2359.652, 882.6935
2361.581, 883.1902
2363.509, 883.1750
2365.438, 883.5030
2367.366, 884.7303
2369.295, 885.5900
2371.223, 885.1052
2373.152, 884.9305
2375.080, 886.5920
2377.009, 888.2570
2378.937, 888.6897
2380.865, 888.3622
2382.794, 886.9120
2384.722, 885.6663
2386.651, 887.6715
2388.579, 891.1564
2390.508, 890.9808
2392.436, 888.2281
2394.365, 887.1428
2396.293, 887.6740
2398.222, 889.1915
2400.150, 891.7242
2402.079, 893.9557
2404.007, 896.1498
2405.936, 896.9657
2407.864, 895.0309
2409.792, 894.9055
2411.721, 897.6733
2413.649, 900.2709
2415.578, 902.2405
2417.506, 903.5792
2419.435, 904.0773
2421.363, 904.2936
2423.292, 904.3532
2425.220, 904.4183
2427.149, 904.2087
2429.077, 904.5314
2431.006, 906.7691
2432.934, 909.0521
2434.863, 909.2341
2436.791, 908.6625
2438.719, 909.0047
2440.648, 909.7955
2442.576, 910.3047
2444.505, 910.6410
2446.433, 910.7637
2448.362, 910.9252
2450.290, 912.7268
2452.219, 916.1146
2454.147, 918.8920
2456.076, 921.0361
2458.004, 922.7080
2459.933, 923.8887
2461.861, 923.8517
2463.790, 921.9717
2465.718, 921.7997
2467.646, 925.1065
2469.575, 927.3015
2471.503, 927.2712
2473.432, 927.6839
2475.360, 929.1356
2477.289, 930.6788
2479.217, 931.7560
2481.146, 933.6934
2483.074, 938.1497
2485.003, 941.5266
2486.931, 940.9349
2488.860, 940.1893
2490.788, 941.4488
2492.717, 943.1861
2494.645, 945.1672
2496.573, 946.4574
2498.502, 945.8340
2500.430, 944.7235
2502.359, 944.5840
2504.287, 944.6573
2506.216, 943.2947
2508.144, 941.8339
2510.073, 943.1221
2512.001, 945.9009
2513.930, 947.4993
2515.858, 948.0460
2517.787, 947.4578
2519.715, 946.2209
2521.644, 945.7519
2523.572, 946.2128
2525.500, 948.8530
2527.429, 953.6727
2529.357, 956.7105
2531.286, 957.7916
2533.214, 958.1523
2535.143, 957.7474
2537.071, 956.7096
2539.000, 954.8192
2540.928, 955.4342
2542.857, 959.8942
2544.785, 962.6984
2546.714, 962.1614
2548.642, 961.9725
2550.571, 962.0306
2552.499, 963.0360
2554.427, 965.4022
2556.356, 967.7680
2558.284, 970.1805
2560.213, 971.6310
2562.141, 970.5897
2564.070, 970.5359
2565.998, 973.3949
2567.927, 975.7798
2569.855, 976.1819
2571.784, 976.6649
2573.712, 977.7302
2575.641, 979.1870
2577.569, 981.1085
2579.498, 983.0342
2581.426, 984.8336
2583.354, 986.4182
2585.283, 988.4226
2587.211, 989.5390
2589.140, 987.9966
2591.068, 986.6472
2592.997, 987.4824
2594.925, 989.3679
2596.854, 991.7172
2598.782, 994.0305
2600.711, 995.8072
2602.639, 996.9863
2604.568, 996.9498
2606.496, 996.7590
2608.425, 998.1779
2610.353, 999.9885
2612.281, 1000.937
2614.210, 1001.390
2616.138, 1001.721
2618.067, 1001.929
2619.995, 1001.886
2621.924, 1001.598
2623.852, 1000.778
2625.781, 999.9090
2627.709, 1000.342
2629.638, 1001.392
2631.566, 1001.635
2633.495, 1001.418
2635.423, 1001.354
2637.352, 1001.542
2639.280, 1002.448
2641.208, 1003.724
2643.137, 1004.250
2645.065, 1004.301
2646.994, 1005.002
2648.922, 1006.144
2650.851, 1006.839
2652.779, 1007.177
2654.708, 1007.349
2656.636, 1007.463
2658.565, 1007.990
2660.493, 1008.815
2662.422, 1009.488
2664.350, 1009.944
2666.279, 1009.734
2668.207, 1008.933
2670.135, 1009.165
2672.064, 1010.194
2673.992, 1010.012
2675.921, 1008.766
2677.849, 1007.258
2679.778, 1005.686
2681.706, 1005.882
2683.635, 1007.814
2685.563, 1008.321
2687.492, 1007.532
2689.420, 1007.626
2691.349, 1008.438
2693.277, 1008.022
2695.206, 1009.606
2697.134, 1013.905
2699.063, 1016.484
2700.991, 1017.433
2702.919, 1011.876
2704.848, 1014.721
2706.776, 1014.198
2708.705, 1013.538
2710.633, 1017.565
2712.562, 1012.954
2714.490, 1016.908
2716.419, 1017.442
2718.347, 1019.541
2720.276, 1018.252
2722.204, 1018.010
2724.133, 1021.157
2726.061, 1010.779
2727.990, 1011.311
2729.918, 1013.445
2731.846, 1015.332
2733.775, 1016.935
2735.703, 1018.366
2737.632, 1019.517
2739.560, 1019.648
2741.489, 1018.967
2743.417, 1018.674
2745.346, 1018.761
2747.274, 1019.059
2749.203, 1019.441
2751.131, 1018.652
2753.060, 1017.417
2754.988, 1019.662
2756.917, 1024.016
2758.845, 1024.225
2760.773, 1021.571
2762.702, 1021.021
2764.630, 1021.909
2766.559, 1021.809
2768.487, 1021.572
2770.416, 1023.991
2772.344, 1027.779
2774.273, 1030.114
2776.201, 1030.991
2778.130, 1029.995
2780.058, 1027.958
2781.987, 1025.508
2783.915, 1023.935
2785.844, 1026.634
2787.772, 1030.920
2789.700, 1032.575
2791.629, 1032.572
2793.557, 1031.333
2795.486, 1030.114
2797.414, 1030.031
2799.343, 1031.080
2801.271, 1034.241
2803.200, 1037.402
2805.128, 1038.138
2807.057, 1037.986
2808.985, 1038.903
2810.914, 1038.965
2812.842, 1035.089
2814.771, 1031.744
2816.699, 1032.634
2818.627, 1035.112
2820.556, 1038.011
2822.484, 1041.135
2824.413, 1045.204
2826.341, 1048.023
2828.270, 1047.625
2830.198, 1046.512
2832.127, 1044.580
2834.055, 1044.122
2835.984, 1047.156
2837.912, 1049.519
2839.841, 1049.027
2841.769, 1049.120
2843.698, 1051.534
2845.626, 1052.822
2847.554, 1051.587
2849.483, 1052.019
2851.411, 1056.181
2853.340, 1059.032
2855.268, 1059.109
2857.197, 1059.419
2859.125, 1060.075
2861.054, 1061.093
2862.982, 1062.479
2864.911, 1064.551
2866.839, 1067.705
2868.768, 1069.591
2870.696, 1070.070
2872.625, 1072.023
2874.553, 1075.350
2876.481, 1078.465
2878.410, 1081.175
2880.338, 1082.815
2882.267, 1083.531
2884.195, 1084.415
2886.124, 1085.447
2888.052, 1086.936
2889.981, 1088.299
2891.909, 1086.968
2893.838, 1085.232
2895.766, 1088.153
2897.695, 1092.940
2899.623, 1096.242
2901.552, 1097.984
2903.480, 1096.703
2905.408, 1095.282
2907.337, 1096.894
2909.265, 1099.192
2911.194, 1100.070
2913.122, 1101.913
2915.051, 1108.146
2916.979, 1112.850
2918.908, 1111.740
2920.836, 1110.634
2922.765, 1110.825
2924.693, 1112.281
2926.622, 1115.514
2928.550, 1118.682
2930.479, 1120.534
2932.407, 1124.497
2934.335, 1126.517
2936.264, 1130.974
2938.192, 1133.839
2940.121, 1135.198
2942.049, 1130.540
2943.978, 1133.652
2945.906, 1133.650
2947.835, 1133.520
2949.763, 1137.725
2951.692, 1133.942
2953.620, 1138.079
2955.549, 1139.055
2957.477, 1141.477
2959.406, 1140.766
2961.334, 1141.022
2963.262, 1144.413
2965.191, 1146.069
2967.119, 1144.997
2969.048, 1147.511
2970.976, 1143.618
2972.905, 1145.348
2974.833, 1147.584
2976.762, 1149.129
2978.690, 1154.830
2980.619, 1158.742
2982.547, 1158.207
2984.476, 1157.540
2986.404, 1157.599
2988.333, 1158.435
2990.261, 1160.764
2992.189, 1161.759
2994.118, 1160.985
2996.046, 1161.674
2997.975, 1164.345
2999.903, 1165.129
3001.832, 1164.045
3003.760, 1161.477
3005.689, 1158.292
3007.617, 1159.343
3009.546, 1162.896
3011.474, 1164.318
3013.403, 1164.634
3015.331, 1165.996
3017.260, 1167.237
3019.188, 1166.301
3021.116, 1165.662
3023.045, 1169.294
3024.973, 1171.562
3026.902, 1166.599
3028.830, 1163.418
3030.759, 1166.902
3032.687, 1169.054
3034.616, 1165.212
3036.544, 1163.870
3038.473, 1166.425
3040.401, 1169.170
3042.330, 1171.837
3044.258, 1172.191
3046.187, 1169.770
3048.115, 1170.146
3050.043, 1172.684
3051.972, 1172.873
3053.900, 1171.656
3055.829, 1172.615
3057.757, 1173.969
3059.686, 1171.526
3061.614, 1168.341
3063.543, 1166.995
3065.471, 1167.597
3067.400, 1171.373
3069.328, 1175.201
3071.257, 1177.977
3073.185, 1178.943
3075.114, 1177.131
3077.042, 1175.152
3078.970, 1172.364
3080.899, 1173.204
3082.827, 1178.679
3084.756, 1179.627
3086.684, 1175.383
3088.613, 1172.982
3090.541, 1172.418
3092.470, 1172.755
3094.398, 1173.627
3096.327, 1174.164
3098.255, 1174.425
3100.184, 1174.528
3102.112, 1174.411
3104.041, 1173.747
3105.969, 1173.363
3107.897, 1173.640
3109.826, 1174.674
3111.754, 1177.661
3113.683, 1178.886
3115.611, 1176.810
3117.540, 1176.729
3119.468, 1180.247
3121.397, 1182.392
3123.325, 1183.054
3125.254, 1182.917
3127.182, 1182.245
3129.111, 1181.319
3131.039, 1180.945
3132.968, 1183.565
3134.896, 1187.233
3136.824, 1189.646
3138.753, 1191.164
3140.681, 1191.802
3142.610, 1191.839
3144.538, 1190.061
3146.467, 1190.675
3148.395, 1196.432
3150.324, 1199.631
3152.252, 1197.467
3154.181, 1196.561
3156.109, 1197.111
3158.038, 1199.909
3159.966, 1204.361
3161.895, 1205.578
3163.823, 1205.157
3165.751, 1206.642
3167.680, 1209.776
3169.608, 1216.277
3171.537, 1221.153
3173.465, 1217.391
3175.394, 1215.416
3177.322, 1220.471
3179.251, 1225.393
3181.179, 1227.965
3183.108, 1230.324
3185.036, 1232.652
3186.965, 1235.495
3188.893, 1238.845
3190.822, 1241.839
3192.750, 1244.368
3194.678, 1244.861
3196.607, 1246.120
3198.535, 1254.464
3200.464, 1263.220
3202.392, 1264.800
3204.321, 1266.902
3206.249, 1273.867
3208.178, 1280.727
3210.106, 1285.292
3212.035, 1290.228
3213.963, 1295.515
3215.892, 1301.451
3217.820, 1307.890
3219.749, 1313.544
3221.677, 1318.900
3223.605, 1326.514
3225.534, 1334.782
3227.462, 1340.950
3229.391, 1347.018
3231.319, 1355.260
3233.248, 1363.199
3235.176, 1369.904
3237.105, 1376.024
3239.033, 1380.341
3240.962, 1388.307
3242.890, 1400.595
3244.819, 1408.831
3246.747, 1413.625
3248.676, 1422.634
3250.604, 1433.709
3252.532, 1441.278
3254.461, 1447.400
3256.389, 1453.501
3258.318, 1460.212
3260.246, 1468.675
3262.175, 1476.452
3264.103, 1483.409
3266.032, 1487.889
3267.960, 1488.985
3269.889, 1490.045
3271.817, 1491.195
3273.746, 1493.257
3275.674, 1495.497
3277.603, 1495.462
3279.531, 1494.748
3281.459, 1496.047
3283.388, 1496.779
3285.316, 1495.836
3287.245, 1492.750
3289.173, 1486.411
3291.102, 1482.086
3293.030, 1481.045
3294.959, 1477.373
3296.887, 1470.856
3298.816, 1462.981
3300.744, 1454.707
3302.673, 1448.180
3304.601, 1442.738
3306.530, 1439.027
3308.458, 1433.663
3310.386, 1422.566
3312.315, 1413.853
3314.243, 1411.699
3316.172, 1407.360
3318.100, 1400.313
3320.029, 1392.679
3321.957, 1384.825
3323.886, 1376.665
3325.814, 1369.043
3327.743, 1363.696
3329.671, 1358.824
3331.600, 1352.323
3333.528, 1346.166
3335.457, 1340.730
3337.385, 1336.098
3339.313, 1333.179
3341.242, 1327.420
3343.170, 1319.164
3345.099, 1312.651
3347.027, 1307.748
3348.956, 1304.828
3350.884, 1301.884
3352.813, 1295.680
3354.741, 1290.278
3356.670, 1288.156
3358.598, 1286.773
3360.527, 1285.765
3362.455, 1283.783
3364.384, 1280.686
3366.312, 1280.767
3368.240, 1282.958
3370.169, 1283.932
3372.097, 1284.283
3374.026, 1284.448
3375.954, 1284.707
3377.883, 1284.117
3379.811, 1286.743
3381.740, 1294.727
3383.668, 1301.954
3385.597, 1307.974
3387.525, 1316.969
3389.454, 1329.249
3391.382, 1344.747
3393.311, 1363.908
3395.239, 1386.213
3397.167, 1414.452
3399.096, 1449.898
3401.024, 1492.188
3402.953, 1539.489
3404.881, 1601.106
3406.810, 1677.941
3408.738, 1762.308
3410.667, 1855.274
3412.595, 1962.411
3414.524, 2077.848
3416.452, 2196.640
3418.381, 2323.489
3420.309, 2460.721
3422.238, 2604.551
3424.166, 2757.146
3426.094, 2899.052
3428.023, 3028.040
3429.951, 3136.822
3431.880, 3215.538
3433.808, 3248.979
3435.737, 3240.621
3437.665, 3188.616
3439.594, 3112.515
3441.522, 3015.966
3443.451, 2898.781
3445.379, 2762.142
3447.308, 2628.147
3449.236, 2498.090
3451.165, 2373.979
3453.093, 2254.389
3455.021, 2136.133
3456.950, 2024.563
3458.878, 1923.049
3460.807, 1828.003
3462.735, 1738.787
3464.664, 1658.552
3466.592, 1586.560
3468.521, 1519.387
3470.449, 1458.727
3472.378, 1406.162
3474.306, 1360.711
3476.235, 1322.780
3478.163, 1290.255
3480.092, 1262.888
3482.020, 1240.570
3483.948, 1222.829
3485.877, 1207.666
3487.805, 1194.263
3489.734, 1181.171
3491.662, 1169.251
3493.591, 1159.172
3495.519, 1150.865
3497.448, 1145.427
3499.376, 1138.104
3501.305, 1129.121
3503.233, 1126.399
3505.162, 1126.403
3507.090, 1122.098
3509.019, 1116.055
3510.947, 1108.622
3512.875, 1104.321
3514.804, 1107.182
3516.732, 1106.344
3518.661, 1101.857
3520.589, 1098.732
3522.518, 1096.971
3524.446, 1096.445
3526.375, 1096.826
3528.303, 1099.815
3530.232, 1099.135
3532.160, 1092.300
3534.089, 1087.967
3536.017, 1087.080
3537.946, 1088.732
3539.874, 1090.726
3541.802, 1087.846
3543.731, 1084.066
3545.659, 1081.970
3547.588, 1080.386
3549.516, 1079.321
3551.445, 1076.997
3553.373, 1073.399
3555.302, 1065.318
3557.230, 1059.910
3559.159, 1074.565
3561.087, 1083.622
3563.016, 1068.728
3564.944, 1056.802
3566.873, 1054.484
3568.801, 1051.334
3570.729, 1047.685
3572.658, 1045.828
3574.586, 1044.732
3576.515, 1042.360
3578.443, 1042.300
3580.372, 1048.382
3582.300, 1046.396
3584.229, 1033.991
3586.157, 1030.086
3588.086, 1031.308
3590.014, 1030.253
3591.943, 1027.832
3593.871, 1023.760
3595.800, 1021.379
3597.728, 1023.384
3599.656, 1022.724
3601.585, 1019.938
3603.513, 1018.798
3605.442, 1018.250
3607.370, 1016.961
3609.299, 1015.081
3611.227, 1011.703
3613.156, 1010.753
3615.084, 1012.658
3617.013, 1010.262
3618.941, 1005.843
3620.870, 1006.283
3622.798, 1007.686
3624.727, 1006.632
3626.655, 1006.363
3628.583, 1008.191
3630.512, 1007.712
3632.440, 1005.269
3634.369, 1004.594
3636.297, 1004.721
3638.226, 1004.876
3640.154, 1004.445
3642.083, 1002.769
3644.011, 1001.475
3645.940, 1000.743
3647.868, 1000.931
3649.797, 1001.357
3651.725, 1000.380
3653.654, 999.2108
3655.582, 998.2448
3657.510, 997.8854
3659.439, 998.1736
3661.367, 999.6358
3663.296, 1001.189
3665.224, 998.1558
3667.153, 995.3488
3669.081, 997.8492
3671.010, 998.7660
3672.938, 996.3885
3674.867, 996.0646
3676.795, 997.1756
3678.724, 995.3816
3680.652, 992.3137
3682.581, 988.2566
3684.509, 986.8867
3686.438, 990.1894
3688.366, 989.3308
3690.294, 984.6634
3692.223, 984.8577
3694.151, 986.0831
3696.080, 983.5436
3698.008, 980.7764
3699.937, 979.1277
3701.865, 978.4467
3703.794, 978.5195
3705.722, 976.3242
3707.651, 973.3369
3709.579, 970.7813
3711.508, 969.8588
3713.436, 972.0674
3715.365, 972.5054
3717.293, 971.0690
3719.221, 971.7891
3721.150, 972.7316
3723.078, 969.8719
3725.007, 967.8760
3726.935, 969.6157
3728.864, 970.2128
3730.792, 969.3297
3732.721, 968.6364
3734.649, 967.5240
3736.578, 964.2014
3738.506, 961.9490
3740.435, 963.0764
3742.363, 963.2236
3744.292, 962.5016
3746.220, 965.0138
3748.148, 968.1327
3750.077, 968.1774
3752.005, 967.2683
3753.934, 966.2145
3755.862, 964.2614
3757.791, 961.7473
3759.719, 960.7232
3761.648, 960.8566
3763.576, 962.7331
3765.505, 963.0887
3767.433, 959.7471
3769.362, 958.8770
3771.290, 960.2596
3773.219, 961.3130
3775.147, 962.2653
3777.075, 963.8814
3779.004, 963.8580
3780.932, 960.8223
3782.861, 960.0803
3784.789, 960.8991
3786.718, 961.1000
3788.646, 960.1539
3790.575, 957.2167
3792.503, 954.9743
3794.432, 953.9598
3796.360, 955.3649
3798.289, 957.8845
3800.217, 958.9516
3802.146, 959.0486
3804.074, 958.1966
3806.002, 956.9970
3807.931, 955.5505
3809.859, 956.6487
3811.788, 958.6057
3813.716, 959.5490
3815.645, 959.2761
3817.573, 957.2428
3819.502, 956.6371
3821.430, 957.3941
3823.359, 958.4547
3825.287, 959.2018
3827.216, 959.1633
3829.144, 958.2386
3831.073, 956.3484
3833.001, 953.1315
3834.929, 950.0478
3836.858, 951.0236
3838.786, 952.8325
3840.715, 953.8823
3842.643, 954.0104
3844.572, 953.2570
3846.500, 953.8804
3848.429, 954.1050
3850.357, 949.7917
3852.286, 949.0419
3854.214, 954.6279
3856.143, 956.5754
3858.071, 955.2102
3860.000, 952.9330
3861.928, 951.7020
3863.856, 953.9225
3865.785, 955.6223
3867.713, 956.3215
3869.642, 955.6026
3871.570, 954.1236
3873.499, 951.7164
3875.427, 952.0728
3877.356, 958.6146
3879.284, 959.2726
3881.213, 955.6147
3883.141, 954.8655
3885.070, 955.2772
3886.998, 955.9866
3888.927, 955.8591
3890.855, 954.6631
3892.783, 954.7062
3894.712, 955.8009
3896.640, 957.2936
3898.569, 957.0829
3900.497, 954.0524
3902.426, 952.5502
3904.354, 952.6076
3906.283, 955.9102
3908.211, 958.9288
3910.140, 958.3467
3912.068, 957.4305
3913.997, 957.2590
3915.925, 954.2565
3917.854, 952.2677
3919.782, 957.9700
3921.710, 960.3886
3923.639, 957.7304
3925.567, 960.3229
3927.496, 964.5070
3929.424, 959.7858
3931.353, 955.6668
3933.281, 959.3085
3935.210, 961.8482
3937.138, 962.0895
3939.067, 962.0563
3940.995, 961.9359
3942.924, 960.6533
3944.852, 959.5311
3946.781, 958.6547
3948.709, 962.7673
3950.637, 967.2813
3952.566, 964.2831
3954.494, 960.6663
3956.423, 958.2294
3958.351, 960.0988
3960.280, 963.3597
3962.208, 962.1097
3964.137, 959.5500
3966.065, 957.4557
3967.994, 958.0244
3969.922, 960.3807
3971.851, 961.0334
3973.779, 959.5369
3975.708, 958.6690
3977.636, 958.5995
3979.564, 959.2074
3981.493, 962.7893
3983.421, 965.3447
3985.350, 964.9680
3987.278, 964.4026
3989.207, 964.8530
3991.135, 964.1771
3993.064, 964.4509
3994.992, 966.5792
3996.921, 965.1257
3998.849, 964.2899
4000.778, 965.5961
4002.706, 965.6121
4004.635, 965.9389
4006.563, 965.7599
4008.491, 966.0385
4010.420, 966.6467
4012.348, 966.6158
4014.277, 967.3644
4016.205, 969.2045
4018.134, 971.2235
4020.062, 970.0510
4021.991, 968.9518
4023.919, 969.7635
4025.848, 970.4250
4027.776, 970.6110
4029.705, 972.6695
4031.633, 974.7684
4033.562, 971.4990
4035.490, 968.9031
4037.418, 971.0451
4039.347, 973.3638
4041.275, 974.2863
4043.204, 973.0870
4045.132, 972.4180
4047.061, 973.3112
4048.989, 973.4818
4050.918, 973.1222
4052.846, 974.7188
4054.775, 976.3260
4056.703, 975.4709
4058.632, 974.3763
4060.560, 973.8373
4062.489, 972.8777
4064.417, 972.5707
4066.345, 973.4036
4068.274, 974.7572
4070.202, 976.4337
4072.131, 978.8050
4074.059, 979.1799
4075.988, 974.0772
4077.916, 972.8381
4079.845, 975.9312
4081.773, 977.9129
4083.702, 978.6024
4085.630, 976.2579
4087.559, 977.2675
4089.487, 982.3515
4091.416, 981.1105
4093.344, 978.8489
4095.272, 982.0756
4097.201, 983.6203
4099.129, 982.3387
4101.058, 980.4167
4102.986, 979.0634
4104.915, 980.2292
4106.843, 980.0713
4108.772, 978.2581
4110.700, 976.1732
4112.629, 975.4043
4114.557, 978.9263
4116.486, 981.0421
4118.414, 980.6468
4120.343, 977.5972
4122.271, 973.9529
4124.200, 974.9777
4126.128, 974.8828
4128.057, 971.4869
4129.985, 972.3160
4131.914, 974.7125
4133.842, 975.2009
4135.771, 974.4308
4137.699, 972.8014
4139.627, 973.0139
4141.556, 973.4089
4143.484, 970.9936
4145.413, 969.4836
4147.341, 970.2149
4149.270, 972.5294
4151.198, 975.1078
4153.126, 976.0416
4155.055, 975.8261
4156.983, 975.3104
4158.912, 974.1076
4160.840, 972.4701
4162.769, 969.9816
4164.697, 968.5275
4166.626, 969.0097
4168.554, 971.8887
4170.483, 974.6747
4172.411, 972.5413
4174.340, 971.5986
4176.268, 973.8644
4178.197, 972.8868
4180.125, 970.5143
4182.054, 971.9418
4183.982, 973.5895
4185.911, 974.1683
4187.839, 972.5784
4189.768, 970.0912
4191.696, 965.8834
4193.625, 965.4892
4195.553, 970.8236
4197.481, 972.1732
4199.410, 971.5651
4201.338, 971.6625
4203.267, 971.1012
4205.195, 969.3716
4207.124, 966.9370
4209.052, 965.3109
4210.980, 967.0068
4212.909, 968.6727
4214.837, 969.7167
4216.766, 969.2185
4218.694, 968.7703
4220.623, 969.9299
4222.551, 968.6462
4224.480, 966.0115
4226.408, 967.6325
4228.337, 969.1750
4230.265, 967.9964
4232.194, 967.8944
4234.122, 968.3534
4236.051, 966.2275
4237.979, 966.0449
4239.908, 971.2390
4241.836, 969.4935
4243.765, 964.6765
4245.693, 968.2067
4247.622, 969.2302
4249.550, 964.2479
4251.479, 963.2244
4253.407, 964.0911
4255.335, 963.3544
4257.264, 962.9284
4259.192, 963.2291
4261.121, 963.0720
4263.049, 962.0379
4264.978, 958.2359
4266.906, 957.9825
4268.834, 960.8727
4270.763, 961.4988
4272.691, 960.9265
4274.620, 959.6801
4276.548, 959.5884
4278.477, 960.5206
4280.405, 962.2819
4282.334, 962.4000
4284.262, 959.5510
4286.191, 959.6975
4288.119, 960.9693
4290.048, 960.5458
4291.976, 957.8562
4293.905, 953.3617
4295.833, 952.8007
4297.762, 954.0550
4299.690, 954.8088
4301.619, 955.4404
4303.547, 955.9241
4305.476, 957.7320
4307.404, 957.3586
4309.333, 951.5304
4311.261, 951.7988
4313.189, 955.3746
4315.118, 953.8470
4317.046, 952.5003
4318.975, 952.9958
4320.903, 955.1212
4322.832, 955.9558
4324.760, 949.7209
4326.688, 947.9223
4328.617, 951.5849
4330.545, 954.1716
4332.474, 955.1995
4334.402, 953.3303
4336.331, 953.9120
4338.259, 955.3492
4340.188, 952.2391
4342.116, 949.7126
4344.045, 949.8963
4345.973, 946.3668
4347.902, 943.2526
4349.830, 947.6695
4351.759, 948.5501
4353.687, 945.4473
4355.616, 945.6525
4357.544, 945.9391
4359.473, 944.0794
4361.401, 944.7051
4363.330, 945.7803
4365.258, 941.4911
4367.187, 939.8531
4369.115, 942.8842
4371.043, 944.4752
4372.972, 943.8572
4374.900, 939.2341
4376.829, 937.7433
4378.757, 938.9501
4380.686, 940.2993
4382.614, 940.0755
4384.542, 937.8213
4386.471, 936.8613
4388.399, 937.2855
4390.328, 940.3332
4392.256, 940.0377
4394.185, 936.6933
4396.113, 933.7158
4398.042, 933.9835
4399.970, 940.0312
4401.899, 939.8224
4403.827, 936.4769
4405.756, 936.1219
4407.684, 933.3848
4409.613, 927.9971
4411.541, 927.2197
4413.470, 929.6454
4415.398, 936.4428
4417.327, 936.8301
4419.255, 933.7151
4421.184, 933.7859
4423.112, 931.2637
4425.041, 925.2506
4426.969, 927.2813
4428.897, 929.7987
4430.826, 927.8481
4432.754, 927.2756
4434.683, 927.5711
4436.611, 926.8273
4438.540, 925.7395
4440.468, 924.4771
4442.396, 922.8132
4444.325, 921.5837
4446.253, 921.3646
4448.182, 921.4738
4450.110, 921.8632
4452.039, 923.5872
4453.967, 922.4183
4455.896, 917.9717
4457.824, 918.5849
4459.753, 920.1444
4461.681, 919.9511
4463.610, 920.5881
4465.538, 921.1191
4467.467, 919.4502
4469.395, 917.7688
4471.324, 916.6904
4473.252, 919.2913
4475.181, 918.5692
4477.109, 910.6715
4479.038, 911.7791
4480.966, 915.7980
4482.895, 912.1880
4484.823, 913.5676
4486.751, 918.7904
4488.680, 914.2213
4490.608, 909.2141
4492.537, 907.6115
4494.465, 909.5226
4496.394, 911.2316
4498.322, 908.6161
4500.250, 907.0724
4502.179, 906.8251
4504.107, 906.7108
4506.036, 907.9615
4507.964, 910.3580
4509.893, 909.4773
4511.821, 907.1063
4513.750, 903.8751
4515.678, 903.8029
4517.607, 905.1331
4519.535, 904.3735
4521.464, 905.0779
4523.392, 907.0092
4525.321, 905.5240
4527.249, 903.2247
4529.178, 901.0866
4531.106, 901.3408
4533.035, 902.2811
4534.963, 902.2658
4536.892, 904.0260
4538.820, 905.6600
4540.749, 900.7025
4542.677, 900.3615
4544.605, 905.6995
4546.534, 903.6890
4548.462, 900.8846
4550.391, 900.9734
4552.319, 900.2782
4554.248, 898.6406
4556.176, 895.2156
4558.104, 895.0947
4560.033, 897.1624
4561.961, 898.3740
4563.890, 897.1088
4565.818, 893.7536
4567.747, 893.7103
4569.675, 895.2098
4571.604, 897.7899
4573.532, 898.0925
4575.461, 897.0131
4577.389, 895.3918
4579.318, 893.1316
4581.246, 891.7464
4583.175, 896.5868
4585.103, 896.7677
4587.032, 891.8677
4588.960, 892.0531
4590.889, 893.6483
4592.817, 895.1435
4594.746, 893.2865
4596.674, 891.6010
4598.603, 893.4597
4600.531, 895.4495
4602.459, 895.9697
4604.388, 890.9462
4606.316, 890.0677
4608.245, 892.5726
4610.173, 890.3391
4612.102, 888.1329
4614.030, 887.5812
4615.958, 889.8605
4617.887, 892.2718
4619.815, 893.5551
4621.744, 890.1737
4623.672, 885.4370
4625.601, 882.3495
4627.529, 881.4274
4629.458, 881.6609
4631.386, 881.1349
4633.315, 880.9724
4635.243, 880.9868
4637.172, 878.5739
4639.100, 876.1984
4641.029, 874.8288
4642.957, 877.7587
4644.886, 880.1693
4646.814, 879.3375
4648.743, 875.6823
4650.671, 872.3074
4652.600, 873.4261
4654.528, 871.9666
4656.457, 869.8922
4658.385, 872.8122
4660.313, 871.8186
4662.242, 867.6415
4664.170, 866.8057
4666.099, 866.1960
4668.027, 865.1351
4669.956, 866.7952
4671.884, 865.5064
4673.813, 858.2805
4675.741, 863.4948
4677.669, 869.9747
4679.598, 869.8779
4681.526, 867.6759
4683.455, 864.6870
4685.383, 860.9033
4687.312, 861.2048
4689.240, 864.3715
4691.169, 868.6505
4693.097, 868.6075
4695.026, 865.1624
4696.954, 863.5956
4698.883, 862.0607
4700.811, 860.3810
4702.740, 860.6516
4704.668, 860.0600
4706.597, 857.5733
4708.525, 856.4225
4710.454, 855.9557
4712.382, 855.6685
4714.311, 855.5825
4716.239, 855.7570
4718.167, 856.5515
4720.096, 857.2477
4722.024, 856.0578
4723.953, 849.6367
4725.881, 848.8625
4727.810, 851.2395
4729.738, 850.6357
4731.667, 848.6729
4733.595, 846.0987
4735.523, 843.0061
4737.452, 844.5939
4739.380, 849.7399
4741.309, 847.6055
4743.237, 846.2279
4745.166, 847.5880
4747.094, 846.0549
4749.023, 844.8671
4750.951, 845.4495
4752.880, 849.3701
4754.808, 850.1601
4756.737, 844.5736
4758.665, 839.5977
4760.594, 837.7807
4762.522, 841.6306
4764.451, 845.6044
4766.379, 846.7889
4768.308, 841.9572
4770.236, 840.1890
4772.165, 839.5388
4774.093, 835.5471
4776.021, 835.6061
4777.950, 837.7340
4779.878, 837.9273
4781.807, 838.3916
4783.735, 838.6769
4785.664, 836.5711
4787.592, 834.9471
4789.521, 834.3654
4791.449, 835.9415
4793.377, 836.3230
4795.306, 835.5560
4797.234, 837.4274
4799.163, 834.1966
4801.091, 826.1259
4803.020, 825.4444
4804.948, 825.8305
4806.877, 825.5201
4808.805, 824.6263
4810.734, 824.5043
4812.662, 825.5765
4814.591, 828.0424
4816.519, 828.2057
4818.448, 825.0158
4820.376, 824.0154
4822.305, 823.1989
4824.233, 821.5336
4826.162, 823.9225
4828.090, 825.5118
4830.019, 823.8692
4831.947, 822.1139
4833.875, 819.5937
4835.804, 815.4091
4837.732, 816.5860
4839.661, 818.9279
4841.589, 819.7484
4843.518, 819.4649
4845.446, 818.1951
4847.375, 815.8254
4849.303, 815.0763
4851.231, 815.5187
4853.160, 816.6908
4855.088, 818.9978
4857.017, 819.5674
4858.945, 815.3939
4860.874, 814.4459
4862.802, 813.8660
4864.731, 810.9885
4866.659, 810.7727
4868.588, 811.0134
4870.516, 809.3531
4872.445, 808.3875
4874.373, 807.0997
4876.302, 804.2975
4878.230, 806.2515
4880.159, 809.2349
4882.087, 809.6205
4884.016, 808.1727
4885.944, 806.0051
4887.873, 803.8393
4889.801, 806.8797
4891.729, 808.8139
4893.658, 801.4686
4895.586, 801.4012
4897.515, 803.4261
4899.443, 803.4402
4901.372, 800.4259
4903.300, 798.0432
4905.229, 799.5420
4907.157, 801.4333
4909.085, 802.2985
4911.014, 801.1608
4912.942, 799.0801
4914.871, 798.1742
4916.799, 800.1740
4918.728, 799.0349
4920.656, 797.6428
4922.585, 797.8333
4924.513, 796.3343
4926.442, 795.0726
4928.370, 795.1241
4930.299, 795.2819
4932.227, 795.1074
4934.156, 794.3069
4936.084, 796.4946
4938.013, 795.4471
4939.941, 789.6058
4941.870, 789.4909
4943.798, 787.8690
4945.727, 782.5492
4947.655, 783.9449
4949.583, 786.2976
4951.512, 787.3740
4953.440, 784.6010
4955.369, 785.0450
4957.297, 788.8141
4959.226, 786.3090
4961.154, 782.8728
4963.083, 780.5499
4965.011, 781.8073
4966.939, 783.2022
4968.868, 783.7356
4970.796, 783.2128
4972.725, 778.0697
4974.653, 772.2981
4976.582, 775.2344
4978.510, 776.0242
4980.439, 776.0095
4982.367, 780.7225
4984.296, 778.3467
4986.224, 774.4170
4988.153, 776.3354
4990.081, 778.5544
4992.010, 777.5042
4993.938, 769.4471
4995.867, 768.9531
4997.795, 770.2458
4999.724, 769.0086
5001.652, 772.2145
5003.581, 774.3903
5005.509, 772.8221
5007.438, 768.7791
5009.366, 766.4539
5011.294, 767.0047
5013.223, 764.3713
5015.151, 764.5074
5017.080, 767.5768
5019.008, 769.1622
5020.937, 765.2090
5022.865, 758.6000
5024.793, 759.2911
5026.722, 760.4926
5028.650, 761.0818
5030.579, 761.3425
5032.507, 758.9808
5034.436, 756.2000
5036.364, 756.0421
5038.293, 756.4096
5040.221, 756.0057
5042.150, 753.9084
5044.078, 750.1430
5046.007, 749.4658
5047.935, 753.9754
5049.864, 754.4467
5051.792, 754.5253
5053.721, 755.3275
5055.649, 753.5599
5057.578, 751.3250
5059.506, 749.6811
5061.435, 750.3786
5063.363, 751.1846
5065.292, 750.4348
5067.220, 743.8527
5069.148, 743.9992
5071.077, 745.6628
5073.005, 741.2279
5074.934, 742.6127
5076.862, 745.4648
5078.791, 746.1924
5080.719, 740.3799
5082.647, 735.5488
5084.576, 734.9174
5086.504, 738.2947
5088.433, 739.3637
5090.361, 737.2028
5092.290, 734.1391
5094.218, 734.0120
5096.147, 736.2237
5098.075, 739.0052
5100.004, 736.9333
5101.932, 733.4648
5103.861, 733.0142
5105.789, 734.8690
5107.718, 736.0281
5109.646, 734.5118
5111.575, 730.3738
5113.503, 730.3222
5115.432, 734.8457
5117.360, 733.4812
5119.289, 731.0906
5121.217, 729.1268
5123.146, 727.7133
5125.074, 728.1208
5127.002, 729.1467
5128.931, 729.2206
5130.859, 726.6392
5132.788, 724.0383
5134.716, 723.4822
5136.645, 724.2972
5138.573, 725.3734
5140.501, 726.0409
5142.430, 724.5461
5144.358, 723.6295
5146.287, 723.3059
5148.215, 721.8378
5150.144, 722.1209
5152.072, 722.6555
5154.001, 721.3762
5155.929, 718.3414
5157.858, 717.8034
5159.786, 721.6744
5161.715, 721.7701
5163.643, 719.6794
5165.572, 717.0256
5167.500, 718.0908
5169.429, 718.6129
5171.357, 717.3764
5173.286, 713.1251
5175.214, 713.3676
5177.143, 714.5756
5179.071, 713.3307
5181.000, 711.6884
5182.928, 711.6394
5184.856, 713.2686
5186.785, 710.9755
5188.713, 708.8693
5190.642, 708.5291
5192.570, 711.6434
5194.499, 713.5127
5196.427, 713.4191
5198.355, 711.2014
5200.284, 707.1520
5202.212, 703.9380
5204.141, 702.6716
5206.069, 701.7875
5207.998, 704.0154
5209.926, 707.6038
5211.855, 708.5426
5213.783, 705.2722
5215.712, 701.8129
5217.640, 702.2478
5219.569, 701.0482
5221.497, 700.9203
5223.426, 702.2648
5225.354, 701.7369
5227.283, 698.7963
5229.211, 695.6094
5231.140, 696.8572
5233.068, 695.3594
5234.997, 694.5246
5236.925, 697.1220
5238.854, 695.7620
5240.782, 692.1260
5242.710, 688.1926
5244.639, 688.1500
5246.567, 689.4854
5248.496, 690.9276
5250.424, 691.6009
5252.353, 691.0034
5254.281, 689.3222
5256.209, 686.9417
5258.138, 686.2171
5260.066, 685.3972
5261.995, 684.1918
5263.923, 682.5868
5265.852, 683.3595
5267.780, 684.5792
5269.709, 684.4570
5271.637, 686.0071
5273.566, 684.7348
5275.494, 681.2517
5277.423, 683.4367
5279.351, 683.5224
5281.280, 682.6883
5283.208, 684.3629
5285.137, 681.8743
5287.065, 679.2415
5288.994, 678.0966
5290.922, 675.6920
5292.851, 678.1514
5294.779, 681.2080
5296.708, 675.9918
5298.636, 673.3712
5300.564, 673.0358
5302.493, 674.2904
5304.421, 676.7440
5306.350, 675.2001
5308.278, 670.4377
5310.207, 665.4195
5312.135, 668.2026
5314.063, 671.2507
5315.992, 669.1379
5317.920, 668.8062
5319.849, 669.5154
5321.777, 669.7639
5323.706, 666.7532
5325.634, 663.1630
5327.563, 661.4781
5329.491, 662.7005
5331.420, 660.0321
5333.348, 659.2165
5335.277, 660.5179
5337.205, 660.3085
5339.134, 660.7210
5341.062, 659.8671
5342.991, 656.9568
5344.919, 666.5508
5346.848, 670.5861
5348.776, 666.7119
5350.705, 659.2714
5352.633, 654.9861
5354.562, 653.5077
5356.490, 654.1525
5358.418, 654.1755
5360.347, 652.2883
5362.275, 649.3396
5364.204, 647.1799
5366.132, 648.5530
5368.061, 649.9964
5369.989, 649.2404
5371.917, 645.3868
5373.846, 644.2480
5375.774, 645.1494
5377.703, 645.2317
5379.631, 644.1442
5381.560, 643.3828
5383.488, 643.2538
5385.417, 641.0800
5387.345, 642.5721
5389.274, 643.5787
5391.202, 638.0642
5393.131, 638.1706
5395.059, 638.1428
5396.988, 636.2419
5398.916, 634.3046
5400.845, 634.8301
5402.773, 635.1103
5404.702, 633.1817
5406.630, 633.4106
5408.559, 634.9737
5410.487, 636.0665
5412.416, 632.8815
5414.344, 634.9596
5416.272, 635.0880
5418.201, 630.3268
5420.129, 627.3391
5422.058, 624.8561
5423.986, 623.5334
5425.915, 624.2308
5427.843, 624.9429
5429.771, 623.9674
5431.700, 621.9147
5433.628, 621.9180
5435.557, 621.8055
5437.485, 623.5733
5439.414, 627.8077
5441.342, 624.3392
5443.271, 620.7469
5445.199, 618.7442
5447.128, 618.2589
5449.056, 618.7492
5450.985, 617.1985
5452.913, 613.9045
5454.842, 613.3505
5456.770, 612.6173
5458.699, 613.2181
5460.627, 615.9062
5462.556, 616.5875
5464.484, 612.4401
5466.413, 609.2438
5468.341, 614.3025
5470.270, 609.7626
5472.198, 607.9740
5474.126, 610.2366
5476.055, 606.5467
5477.983, 603.9550
5479.912, 604.3194
5481.840, 607.0221
5483.769, 602.5346
5485.697, 601.4529
5487.625, 601.9130
5489.554, 600.5068
5491.482, 603.3174
5493.411, 602.0228
5495.339, 598.9460
5497.268, 603.3290
5499.196, 603.2805
5501.125, 603.3057
5503.053, 604.3820
5504.982, 601.9039
5506.910, 600.7416
5508.839, 599.4544
5510.767, 597.2803
5512.696, 598.9215
5514.624, 596.7687
5516.553, 594.0049
5518.481, 594.9307
5520.410, 595.1500
5522.338, 595.4717
5524.267, 594.6677
5526.195, 589.5378
5528.124, 588.6358
5530.052, 588.0695
5531.980, 587.0984
5533.909, 587.9700
5535.837, 590.1754
5537.766, 589.4662
5539.694, 585.5150
5541.623, 586.6042
5543.551, 585.5234
5545.479, 583.8321
5547.408, 583.3676
5549.336, 585.3522
5551.265, 584.5587
5553.193, 582.1561
5555.122, 580.3953
5557.050, 577.7988
5558.979, 575.9733
5560.907, 574.9383
5562.836, 574.1578
5564.764, 574.2909
5566.693, 575.3373
5568.621, 576.5375
5570.550, 577.0917
5572.478, 572.8349
5574.407, 570.5504
5576.335, 571.2327
5578.264, 569.6778
5580.192, 570.2631
5582.121, 569.3939
5584.049, 566.7834
5585.978, 569.0027
5587.906, 563.9863
5589.834, 560.8363
5591.763, 564.0859
5593.691, 565.2177
5595.620, 564.7141
5597.548, 563.2211
5599.477, 561.5150
5601.405, 564.2109
5603.333, 565.0121
5605.262, 562.8727
5607.190, 558.6209
5609.119, 558.9468
5611.047, 559.3954
5612.976, 558.6102
5614.904, 556.3814
5616.833, 553.7112
5618.761, 555.7591
5620.690, 557.4144
5622.618, 553.0520
5624.547, 556.4631
5626.475, 552.3430
5628.404, 545.8373
5630.332, 546.7780
5632.261, 550.9832
5634.189, 550.8650
5636.118, 548.1032
5638.046, 546.6500
5639.975, 543.2794
5641.903, 546.0451
5643.832, 548.9200
5645.760, 543.7231
5647.688, 546.4037
5649.617, 545.0045
5651.545, 541.1065
5653.474, 540.3865
5655.402, 539.1498
5657.331, 539.7652
5659.259, 540.6660
5661.188, 539.3278
5663.116, 540.1268
5665.044, 536.7679
5666.973, 533.2586
5668.901, 535.0681
5670.830, 536.0006
5672.758, 536.8387
5674.687, 536.1722
5676.615, 532.6936
5678.544, 529.2463
5680.472, 530.4674
5682.401, 530.5521
5684.329, 524.2796
5686.258, 529.0695
5688.186, 531.8142
5690.115, 531.1376
5692.043, 528.5601
5693.972, 529.2751
5695.900, 525.6337
5697.829, 523.4335
5699.757, 526.0302
5701.686, 524.4508
5703.614, 523.4459
5705.542, 521.4436
5707.471, 518.2886
5709.399, 519.0146
5711.328, 516.6047
5713.256, 517.2279
5715.185, 521.4752
5717.113, 520.0468
5719.042, 517.2471
5720.970, 519.2437
5722.898, 523.0076
5724.827, 515.7463
5726.755, 514.6550
5728.684, 514.5433
5730.612, 513.4588
5732.541, 511.7938
5734.469, 510.8639
5736.398, 511.3105
5738.326, 510.5403
5740.255, 506.3741
5742.183, 508.7684
5744.112, 508.9244
5746.040, 507.3428
5747.969, 506.3044
5749.897, 508.4040
5751.826, 507.0541
5753.754, 504.6150
5755.683, 503.4355
5757.611, 505.3349
5759.540, 502.7651
5761.468, 500.2603
5763.396, 499.4171
5765.325, 498.1737
5767.253, 497.6325
5769.182, 497.1396
5771.110, 496.9727
5773.039, 497.7008
5774.967, 496.2773
5776.896, 496.3109
5778.824, 497.3266
5780.752, 497.8464
5782.681, 495.9720
5784.609, 494.8945
5786.538, 491.7007
5788.466, 486.5512
5790.395, 489.8046
5792.323, 491.8290
5794.252, 491.3898
5796.180, 489.3859
5798.109, 487.9106
5800.037, 485.7920
5801.966, 484.6357
5803.894, 484.8402
5805.823, 486.0312
5807.751, 484.6068
5809.680, 482.6689
5811.608, 482.1718
5813.537, 482.7003
5815.465, 478.5840
5817.394, 478.3743
5819.322, 481.1570
5821.250, 482.6405
5823.179, 477.3808
5825.107, 479.0638
5827.036, 477.9933
5828.964, 475.1082
5830.893, 474.1070
5832.821, 472.8006
5834.750, 472.5448
5836.678, 473.7239
5838.606, 475.3617
5840.535, 473.9376
5842.463, 474.0509
5844.392, 471.4762
5846.320, 468.5861
5848.249, 470.6941
5850.177, 469.1924
5852.106, 466.2134
5854.034, 463.7833
5855.963, 463.0089
5857.891, 463.6495
5859.820, 463.6808
5861.748, 465.6151
5863.677, 467.6114
5865.605, 465.4892
5867.534, 463.6509
5869.462, 461.0508
5871.391, 460.3526
5873.319, 462.4826
5875.248, 461.0392
5877.176, 461.0468
5879.104, 461.7356
5881.033, 461.7378
5882.961, 459.7585
5884.890, 460.1623
5886.818, 461.3011
5888.747, 459.8192
5890.675, 454.8735
5892.604, 452.1811
5894.532, 452.7414
5896.460, 455.5744
5898.389, 456.5640
5900.317, 450.0685
5902.246, 452.2892
5904.174, 453.4935
5906.103, 452.4857
5908.031, 450.3802
5909.960, 448.3712
5911.888, 447.9675
5913.817, 448.0771
5915.745, 449.4595
5917.674, 452.3124
5919.602, 446.4865
5921.531, 447.9693
5923.459, 447.6315
5925.388, 443.0731
5927.316, 442.4091
5929.245, 442.3238
5931.173, 442.7643
5933.102, 442.1308
5935.030, 439.8223
5936.958, 438.7821
5938.887, 438.5563
5940.815, 440.1710
5942.744, 440.6735
5944.672, 436.5805
5946.601, 437.4872
5948.529, 436.1453
5950.458, 436.1930
5952.386, 437.2378
5954.314, 431.3329
5956.243, 429.5724
5958.171, 432.0075
5960.100, 429.7707
5962.028, 433.0939
5963.957, 434.6955
5965.885, 434.6689
5967.814, 428.1350
5969.742, 430.0036
5971.671, 428.5049
5973.599, 426.8682
5975.528, 429.9192
5977.456, 424.3321
5979.385, 427.3087
5981.313, 426.8670
5983.242, 427.9895
5985.170, 425.7245
5987.099, 424.5055
5989.027, 426.6761
5990.956, 426.9696
5992.884, 424.3146
5994.813, 425.5366
5996.741, 419.8311
5998.669, 420.2050
6000.598, 423.2014
6002.526, 420.7167
6004.455, 422.0007
6006.383, 421.1779
6008.312, 418.1763
6010.240, 413.1443
6012.168, 411.4812
6014.097, 410.4697
6016.025, 409.7819
6017.954, 410.0926
6019.882, 411.7081
6021.811, 409.3531
6023.739, 412.6988
6025.668, 414.2287
6027.596, 406.1273
6029.525, 408.2681
6031.453, 407.2284
6033.382, 408.3143
6035.310, 408.8354
6037.239, 404.5113
6039.167, 406.3354
6041.096, 404.3174
6043.024, 404.4839
6044.953, 405.1011
6046.881, 401.8568
6048.810, 403.9885
6050.738, 400.5713
6052.667, 401.2840
6054.595, 403.9026
6056.523, 401.1817
6058.452, 397.7599
6060.380, 396.2564
6062.309, 398.0855
6064.237, 398.8782
6066.166, 394.1551
6068.094, 391.5320
6070.022, 393.5391
6071.951, 392.7446
6073.879, 390.7823
6075.808, 391.8106
6077.736, 390.9540
6079.665, 391.2110
6081.593, 390.2419
6083.522, 389.4496
6085.450, 390.5369
6087.379, 392.0914
6089.307, 387.6622
6091.236, 384.2067
6093.164, 384.1229
6095.093, 385.6866
6097.021, 382.3148
6098.950, 383.8326
6100.878, 384.4351
6102.807, 385.4462
6104.735, 386.6089
6106.664, 380.8969
6108.592, 379.6764
6110.521, 378.8460
6112.449, 378.7235
6114.377, 379.3786
6116.306, 378.8506
6118.234, 381.9839
6120.163, 383.3954
6122.091, 383.1788
6124.020, 376.4549
6125.948, 378.1335
6127.876, 376.4451
6129.805, 374.6180
6131.733, 377.4794
6133.662, 371.7018
6135.590, 374.4889
6137.519, 373.8567
6139.447, 374.7898
6141.376, 372.3342
6143.304, 370.9255
6145.233, 369.1285
6147.161, 371.8455
6149.090, 366.7743
6151.018, 367.8471
6152.947, 367.9256
6154.875, 365.5386
6156.804, 365.6920
6158.732, 365.4022
6160.661, 363.4842
6162.589, 364.2113
6164.518, 363.3514
6166.446, 358.4265
6168.375, 360.0033
6170.303, 362.5401
6172.231, 361.7289
6174.160, 360.0918
6176.088, 359.1576
6178.017, 357.7365
6179.945, 358.3827
6181.874, 357.9631
6183.802, 356.0611
6185.730, 355.3929
6187.659, 357.1802
6189.587, 354.4690
6191.516, 354.0136
6193.444, 352.0199
6195.373, 351.6371
6197.301, 353.3519
6199.230, 353.2784
6201.158, 350.5902
6203.087, 348.2542
6205.015, 347.7749
6206.944, 347.5177
6208.872, 346.3574
6210.801, 347.7974
6212.729, 344.3651
6214.658, 344.8169
6216.586, 346.2901
6218.515, 344.8519
6220.443, 340.3248
6222.372, 343.7741
6224.300, 343.9466
6226.229, 344.1915
6228.157, 342.2760
6230.085, 337.8614
6232.014, 336.1635
6233.942, 339.9007
6235.871, 341.2122
6237.799, 340.4430
6239.728, 338.8996
6241.656, 337.1093
6243.584, 334.9195
6245.513, 336.4489
6247.441, 337.2998
6249.370, 335.6984
6251.298, 332.4726
6253.227, 329.9987
6255.155, 331.8663
6257.084, 334.1464
6259.012, 332.7434
6260.941, 331.7942
6262.869, 332.7140
6264.798, 332.5616
6266.726, 330.3683
6268.655, 332.2831
6270.583, 329.0735
6272.512, 326.6315
6274.440, 328.6352
6276.369, 329.6273
6278.297, 324.4700
6280.226, 325.1487
6282.154, 324.2169
6284.083, 322.1393
6286.011, 321.9433
6287.939, 324.1155
6289.868, 319.6593
6291.796, 321.5943
6293.725, 323.1676
6295.653, 321.0334
6297.582, 317.1568
6299.510, 315.9994
6301.438, 319.7432
6303.367, 317.9331
6305.295, 317.0832
6307.224, 316.5067
6309.152, 315.4049
6311.081, 317.7422
6313.009, 317.6416
6314.938, 315.8248
6316.866, 312.5416
6318.795, 312.9487
6320.723, 315.9326
6322.652, 313.5526
6324.580, 313.1826
6326.509, 312.8111
6328.437, 309.8444
6330.366, 308.9861
6332.294, 310.0552
6334.223, 308.0634
6336.151, 307.9771
6338.080, 306.8561
6340.008, 307.1929
6341.937, 308.1576
6343.865, 307.4837
6345.793, 304.9020
6347.722, 306.8894
6349.650, 305.1670
6351.579, 305.5332
6353.507, 305.5636
6355.436, 303.8657
6357.364, 301.4690
6359.292, 300.2115
6361.221, 299.2697
6363.149, 299.8868
6365.078, 298.7619
6367.006, 298.4977
6368.935, 300.2310
6370.863, 300.3219
6372.792, 298.5691
6374.720, 297.9811
6376.649, 295.6598
6378.577, 295.5348
6380.506, 297.5947
6382.434, 297.5460
6384.363, 292.7412
6386.291, 297.2879
6388.220, 296.7154
6390.148, 295.3326
6392.077, 292.6931
6394.005, 289.5440
6395.934, 292.4706
6397.862, 293.1669
6399.791, 289.2586
6401.719, 288.2104
6403.647, 288.7039
6405.576, 289.8492
6407.504, 291.6406
6409.433, 287.8765
6411.361, 287.4105
6413.290, 284.2437
6415.218, 285.1134
6417.146, 286.9857
6419.075, 286.4515
6421.003, 285.5482
6422.932, 285.0811
6424.860, 283.8920
6426.789, 285.7686
6428.717, 284.8978
6430.646, 282.7480
6432.574, 282.5717
6434.503, 282.2056
6436.431, 283.2899
6438.360, 281.9009
6440.288, 282.0742
6442.217, 279.5517
6444.145, 281.0149
6446.074, 287.8658
6448.002, 277.0087
6449.931, 291.8393
6451.859, 281.9740
6453.788, 277.7661
6455.716, 276.9625
6457.645, 274.6508
6459.573, 274.0206
6461.501, 273.5829
6463.430, 276.7791
6465.358, 272.8237
6467.287, 270.4718
6469.215, 271.4591
6471.144, 271.6204
6473.072, 269.3031
6475.000, 270.2087
6476.929, 268.2442
6478.857, 267.4561
6480.786, 269.2257
6482.714, 269.0664
6484.643, 267.7497
6486.571, 268.1293
6488.500, 267.2944
6490.428, 267.2118
6492.357, 266.1268
6494.285, 263.5754
6496.214, 263.8224
6498.142, 264.5472
6500.071, 262.7331
6501.999, 261.6407
6503.928, 261.8416
6505.856, 260.4030
6507.785, 259.5674
6509.713, 259.5178
6511.642, 259.4125
6513.570, 260.7637
6515.499, 264.6655
6517.427, 261.9026
6519.355, 261.4354
6521.284, 259.3785
6523.212, 255.5062
6525.141, 255.1630
6527.069, 262.2590
6528.998, 270.2515
6530.926, 250.8507
6532.854, 256.5645
6534.783, 254.1295
6536.711, 254.0818
6538.640, 252.6130
6540.568, 250.4842
6542.497, 250.8366
6544.425, 251.7247
6546.354, 250.7223
6548.282, 252.1862
6550.211, 248.4549
6552.139, 250.5500
6554.068, 251.8342
6555.996, 249.4447
6557.925, 247.5689
6559.853, 247.2982
6561.782, 246.8841
6563.710, 249.3714
6565.639, 249.7985
6567.567, 246.2634
6569.496, 245.8966
6571.424, 248.2622
6573.353, 246.7466
6575.281, 243.6152
6577.209, 244.7830
6579.138, 243.6245
6581.066, 243.3854
6582.995, 244.5450
6584.923, 243.0552
6586.852, 240.1019
6588.780, 240.1695
6590.708, 240.2556
6592.637, 241.2271
6594.565, 241.3887
6596.494, 239.0578
6598.422, 236.5842
6600.351, 236.4383
6602.279, 237.9491
6604.208, 238.3886
6606.136, 236.6573
6608.065, 234.6795
6609.993, 236.5461
6611.922, 233.6750
6613.850, 235.2611
6615.779, 236.6289
6617.707, 235.4285
6619.636, 235.0216
6621.564, 234.3183
6623.493, 233.6853
6625.421, 232.9736
6627.350, 232.2822
6629.278, 233.2768
##END=



