##NAMES=Chloritoid
##RRUFFID=R060292
##IDEAL CHEMISTRY=Fe^2+^Al_2_O(SiO_4_)(OH)_2_
##LOCALITY=Pech, Kunar Province, Afghanistan
##OWNER=RRUFF
##SOURCE=Herb Obodda
##DESCRIPTION=Black tabular crystal
##STATUS=The identification of this mineral has been confirmed by X-ray diffraction and chemical analysis
##URL=https://www.rruff.net/odr/rruff_sample/R060292
##MEASURED CHEMISTRY=(Fe^2+^_1.55_Mg_0.43_Mn_0.02_)(Al_3.93_Fe^3+^_0.07_)Si_2.00_O_10_(OH)_4_
##DIFFRACTION SAMPLE DESCRIPTION=Powder
##CELL PARAMETERS=a: 9.473 b: 5.4818 c: 18.165 alpha: 90 beta: 101.755 gamma: 90 volume: 923.5 crystal system: triclinic
##FILETYPE=Raman RAW
##RAMAN WAVELENGTH=780

178.2017, 604.6199
180.1301, 607.1942
182.0586, 611.1013
183.9871, 611.0724
185.9155, 607.2867
187.8440, 605.0018
189.7725, 605.0756
191.7009, 605.2637
193.6294, 604.8442
195.5579, 604.2322
197.4863, 603.5333
199.4148, 602.8967
201.3433, 602.9332
203.2717, 603.6478
205.2002, 604.9488
207.1287, 608.6887
209.0571, 610.9475
210.9856, 607.8881
212.9141, 602.3958
214.8425, 601.6795
216.7710, 605.8383
218.6995, 607.7803
220.6279, 603.3033
222.5564, 600.5104
224.4849, 603.4379
226.4133, 608.1487
228.3418, 609.4374
230.2703, 608.2475
232.1987, 608.4449
234.1272, 610.4554
236.0557, 613.7838
237.9841, 618.6493
239.9126, 624.2568
241.8411, 630.0937
243.7695, 636.3411
245.6980, 643.7277
247.6265, 652.6280
249.5549, 659.7021
251.4834, 664.4425
253.4119, 667.4467
255.3403, 667.3586
257.2688, 666.7225
259.1973, 667.5005
261.1257, 669.8513
263.0542, 674.9319
264.9827, 683.6337
266.9111, 693.6526
268.8396, 704.9987
270.7681, 717.1846
272.6965, 731.9405
274.6250, 746.2815
276.5535, 756.4111
278.4819, 762.2129
280.4104, 764.3043
282.3389, 764.3564
284.2673, 758.5202
286.1958, 743.1044
288.1243, 724.4564
290.0527, 705.7734
291.9812, 687.4211
293.9097, 670.1119
295.8381, 652.7696
297.7666, 639.9520
299.6951, 636.0485
301.6235, 629.6218
303.5520, 616.1501
305.4805, 599.6647
307.4089, 582.3030
309.3374, 564.6476
311.2659, 549.4901
313.1943, 536.6947
315.1228, 527.2924
317.0513, 521.9286
318.9797, 518.9528
320.9082, 517.7714
322.8367, 518.7277
324.7651, 523.1663
326.6936, 530.4791
328.6221, 536.1252
330.5505, 540.1265
332.4790, 542.3041
334.4075, 541.4594
336.3359, 540.9273
338.2644, 543.2906
340.1929, 545.8190
342.1213, 544.2514
344.0498, 539.9267
345.9783, 543.3703
347.9067, 555.7227
349.8352, 565.8935
351.7637, 570.8059
353.6921, 576.4596
355.6206, 588.2611
357.5491, 599.3439
359.4775, 603.1038
361.4060, 600.9705
363.3345, 599.3975
365.2629, 598.6309
367.1914, 595.1417
369.1199, 588.1780
371.0483, 578.9265
372.9768, 565.2990
374.9053, 552.1321
376.8337, 543.3063
378.7622, 537.4998
380.6907, 531.9003
382.6191, 526.4385
384.5476, 518.7250
386.4761, 507.2024
388.4045, 497.1987
390.3330, 491.1543
392.2615, 485.9599
394.1899, 479.9721
396.1184, 473.8593
398.0469, 468.3279
399.9753, 463.5507
401.9038, 460.8688
403.8323, 460.7270
405.7607, 461.0475
407.6892, 462.3563
409.6177, 462.7658
411.5461, 462.6561
413.4746, 460.5515
415.4031, 454.5875
417.3315, 445.5004
419.2600, 434.9176
421.1885, 422.8484
423.1169, 409.8969
425.0454, 393.7440
426.9739, 381.0556
428.9023, 373.4010
430.8308, 368.7910
432.7593, 366.9770
434.6877, 367.1078
436.6162, 367.5775
438.5447, 368.8087
440.4731, 373.1956
442.4016, 381.9962
444.3301, 390.1158
446.2585, 396.6893
448.1870, 403.2405
450.1155, 409.0876
452.0439, 416.0791
453.9724, 425.6563
455.9009, 437.2356
457.8293, 449.8629
459.7578, 463.5841
461.6863, 479.9941
463.6147, 500.8217
465.5432, 521.2814
467.4717, 541.9962
469.4001, 561.3508
471.3286, 579.8881
473.2571, 595.8007
475.1855, 607.5873
477.1140, 616.1448
479.0425, 622.3705
480.9709, 626.1696
482.8994, 630.6923
484.8279, 637.6313
486.7563, 640.8314
488.6848, 638.5427
490.6133, 635.2398
492.5417, 632.9511
494.4702, 629.5801
496.3987, 624.7601
498.3271, 617.5900
500.2556, 606.6954
502.1841, 592.1148
504.1125, 573.6013
506.0410, 549.8311
507.9695, 528.8236
509.8979, 511.0536
511.8264, 496.1561
513.7549, 484.1057
515.6833, 474.8703
517.6118, 469.8204
519.5403, 466.1205
521.4688, 459.6022
523.3972, 451.7090
525.3257, 449.3085
527.2542, 452.6773
529.1826, 450.9449
531.1111, 442.1162
533.0396, 435.7263
534.9680, 434.3241
536.8965, 435.2301
538.8250, 436.4593
540.7534, 440.3789
542.6819, 448.6974
544.6104, 460.7670
546.5388, 474.3546
548.4673, 490.6786
550.3958, 512.8967
552.3242, 540.7458
554.2527, 585.9987
556.1812, 648.9088
558.1096, 733.4935
560.0381, 858.8848
561.9666, 983.1102
563.8950, 1105.076
565.8235, 1207.081
567.7520, 1273.055
569.6804, 1309.774
571.6089, 1314.753
573.5374, 1300.930
575.4658, 1309.585
577.3943, 1341.662
579.3228, 1421.467
581.2512, 1569.282
583.1797, 1722.581
585.1082, 1895.111
587.0366, 2035.819
588.9651, 2128.505
590.8936, 2182.040
592.8220, 2218.170
594.7505, 2207.371
596.6790, 2101.725
598.6074, 1920.140
600.5359, 1695.520
602.4644, 1428.630
604.3928, 1193.062
606.3213, 993.2744
608.2498, 828.9893
610.1782, 704.4432
612.1067, 605.3805
614.0352, 534.4505
615.9636, 481.2841
617.8921, 447.6233
619.8206, 422.9133
621.7490, 398.1093
623.6775, 375.2437
625.6060, 358.0049
627.5344, 346.1032
629.4629, 336.8540
631.3914, 330.7939
633.3198, 325.1705
635.2483, 320.5482
637.1768, 315.1946
639.1052, 308.1465
641.0337, 301.8939
642.9622, 297.2592
644.8906, 293.4338
646.8191, 290.5916
648.7476, 287.7082
650.6760, 283.1524
652.6045, 278.4250
654.5330, 276.9982
656.4614, 277.9331
658.3899, 275.3824
660.3184, 268.7361
662.2468, 263.7082
664.1753, 260.4445
666.1038, 257.9851
668.0322, 256.1823
669.9607, 255.4854
671.8892, 256.8010
673.8176, 257.7841
675.7461, 256.9127
677.6746, 255.8559
679.6030, 255.5765
681.5315, 255.6471
683.4600, 255.4229
685.3884, 255.2474
687.3169, 255.9297
689.2454, 257.3966
691.1738, 258.9272
693.1023, 260.5223
695.0308, 264.0742
696.9592, 269.9530
698.8877, 275.4536
700.8162, 280.0142
702.7446, 284.5594
704.6731, 288.6850
706.6016, 293.9994
708.5300, 302.2113
710.4585, 310.1740
712.3870, 315.4923
714.3154, 320.4701
716.2439, 327.2026
718.1724, 335.0843
720.1008, 343.4281
722.0293, 352.0648
723.9578, 360.6935
725.8862, 369.1688
727.8147, 376.7538
729.7432, 383.3979
731.6716, 389.7734
733.6001, 397.0550
735.5286, 398.1348
737.4570, 388.6429
739.3855, 379.7310
741.3140, 373.8928
743.2424, 368.1367
745.1709, 361.8073
747.0994, 355.0995
749.0278, 346.5165
750.9563, 339.3028
752.8848, 336.2079
754.8132, 335.8861
756.7417, 337.4540
758.6702, 340.2541
760.5986, 343.2018
762.5271, 346.4670
764.4556, 350.5967
766.3840, 355.6139
768.3125, 361.2676
770.2410, 366.9220
772.1694, 377.0658
774.0979, 392.9612
776.0264, 410.9630
777.9548, 431.3769
779.8833, 453.1015
781.8118, 479.3676
783.7402, 501.4667
785.6687, 514.3952
787.5972, 526.8754
789.5256, 539.6415
791.4541, 557.1102
793.3826, 581.5702
795.3110, 612.5995
797.2395, 651.8445
799.1680, 695.3718
801.0964, 740.0704
803.0249, 784.9583
804.9534, 830.6230
806.8818, 874.4139
808.8103, 908.7054
810.7388, 932.8676
812.6672, 939.9557
814.5957, 930.2435
816.5242, 896.4401
818.4526, 835.1779
820.3811, 773.5156
822.3096, 710.5061
824.2380, 657.6605
826.1665, 615.8262
828.0950, 586.9830
830.0234, 573.1595
831.9519, 567.8265
833.8804, 572.3498
835.8088, 577.8100
837.7373, 580.7680
839.6658, 583.7645
841.5942, 588.0599
843.5227, 592.5683
845.4512, 596.9466
847.3796, 600.9669
849.3081, 604.4257
851.2366, 607.4498
853.1650, 609.6348
855.0935, 611.8920
857.0220, 616.5283
858.9504, 621.7548
860.8789, 622.0742
862.8074, 620.3654
864.7358, 626.1647
866.6643, 637.5468
868.5928, 647.6002
870.5212, 656.3924
872.4497, 666.4549
874.3782, 677.1907
876.3066, 679.2855
878.2351, 671.9901
880.1636, 659.5278
882.0920, 642.0391
884.0205, 621.0275
885.9490, 595.9462
887.8774, 569.9401
889.8059, 541.8751
891.7344, 516.5162
893.6628, 494.5496
895.5913, 475.2991
897.5198, 458.7625
899.4482, 444.7750
901.3767, 432.9388
903.3052, 424.2111
905.2336, 419.8185
907.1621, 417.2447
909.0906, 416.2278
911.0190, 415.6523
912.9475, 415.5374
914.8760, 414.8905
916.8044, 412.4039
918.7329, 409.9677
920.6614, 408.6975
922.5898, 408.4537
924.5183, 409.1499
926.4468, 410.8074
928.3752, 413.3224
930.3037, 416.8961
932.2322, 421.4026
934.1606, 427.3922
936.0891, 436.8113
938.0176, 447.4625
939.9460, 455.0697
941.8745, 461.1367
943.8030, 468.4816
945.7314, 477.3193
947.6599, 488.7532
949.5884, 502.0914
951.5168, 515.4207
953.4453, 528.2498
955.3738, 537.3879
957.3022, 543.4767
959.2307, 552.2740
961.1592, 563.2742
963.0876, 570.0266
965.0161, 572.5389
966.9446, 571.3892
968.8730, 566.5010
970.8015, 562.4211
972.7300, 559.1848
974.6584, 552.3246
976.5869, 541.7198
978.5154, 531.0273
980.4438, 520.3949
982.3723, 512.0966
984.3008, 506.3858
986.2292, 498.6137
988.1577, 488.3656
990.0862, 477.9808
992.0146, 467.9688
993.9431, 450.9573
995.8716, 425.5802
997.8000, 400.3859
999.7285, 376.2730
1001.657, 354.6916
1003.585, 336.3493
1005.514, 315.7666
1007.442, 291.2073
1009.371, 270.8538
1011.299, 256.1465
1013.228, 244.3014
1015.156, 235.2789
1017.085, 227.7609
1019.013, 221.6771
1020.942, 216.7905
1022.870, 213.2896
1024.799, 210.1789
1026.727, 206.7476
1028.656, 205.5177
1030.584, 207.9105
1032.512, 209.5466
1034.441, 210.1709
1036.369, 209.5247
1038.298, 205.6926
1040.226, 204.8395
1042.155, 209.8386
1044.083, 212.8867
1046.012, 212.5042
1047.940, 212.0748
1049.869, 211.5521
1051.797, 211.3365
1053.726, 209.5737
1055.654, 211.7846
1057.583, 222.6853
1059.511, 228.5224
1061.439, 226.5278
1063.368, 224.3641
1065.296, 221.1380
1067.225, 220.9954
1069.153, 225.8125
1071.082, 229.1839
1073.010, 230.9634
1074.939, 230.3991
1076.867, 226.3569
1078.796, 223.6511
1080.724, 222.0971
1082.653, 224.2789
1084.581, 231.6317
1086.510, 236.0361
1088.438, 236.6431
1090.366, 236.5285
1092.295, 235.2779
1094.223, 238.6979
1096.152, 247.7133
1098.080, 253.4312
1100.009, 255.3774
1101.937, 256.2142
1103.866, 255.9448
1105.794, 260.3140
1107.723, 269.2592
1109.651, 273.1535
1111.580, 272.2177
1113.508, 273.3415
1115.437, 276.3062
1117.365, 278.1852
1119.293, 279.0733
1121.222, 279.9459
1123.150, 280.4729
1125.079, 278.8881
1127.007, 275.6563
1128.936, 272.1162
1130.864, 268.4686
1132.793, 264.8597
1134.721, 261.8571
1136.650, 261.2209
1138.578, 261.8770
1140.507, 261.6095
1142.435, 261.3189
1144.364, 262.2734
1146.292, 264.3116
1148.220, 268.3073
1150.149, 272.0846
1152.077, 272.1195
1154.006, 271.7055
1155.934, 274.8502
1157.863, 278.1245
1159.791, 277.1137
1161.720, 277.1306
1163.648, 284.8130
1165.577, 290.6958
1167.505, 286.6742
1169.434, 283.1295
1171.362, 286.4661
1173.291, 289.2859
1175.219, 287.9066
1177.147, 286.8120
1179.076, 287.6424
1181.004, 288.3897
1182.933, 289.5301
1184.861, 288.7054
1186.790, 284.1203
1188.718, 280.8119
1190.647, 280.7611
1192.575, 278.0050
1194.504, 270.7880
1196.432, 265.5885
1198.361, 262.7629
1200.289, 260.2456
1202.218, 258.0900
1204.146, 255.1263
1206.074, 251.3674
1208.003, 247.0639
1209.931, 242.6100
1211.860, 241.0302
1213.788, 241.1095
1215.717, 238.4044
1217.645, 234.5448
1219.574, 232.9342
1221.502, 232.6879
1223.431, 232.8726
1225.359, 233.1157
1227.288, 232.8669
1229.216, 232.6004
1231.145, 232.8487
1233.073, 233.0366
1235.001, 233.0305
1236.930, 232.5388
1238.858, 232.1120
1240.787, 229.7518
1242.715, 223.4224
1244.644, 218.9156
1246.572, 218.1241
1248.501, 217.7383
1250.429, 217.7979
1252.358, 212.8159
1254.286, 201.5854
1256.215, 196.6533
1258.143, 198.6737
1260.072, 197.3799
1262.000, 192.8865
1263.928, 189.7141
1265.857, 187.9708
1267.785, 188.4079
1269.714, 189.3951
1271.642, 186.4335
1273.571, 182.4423
1275.499, 182.1382
1277.428, 182.9157
1279.356, 181.7585
1281.285, 180.6783
1283.213, 181.4569
1285.142, 182.4920
1287.070, 183.3318
1288.999, 183.5028
1290.927, 181.6043
1292.855, 181.3340
1294.784, 184.5598
1296.712, 187.2279
1298.641, 188.9725
1300.569, 190.3658
1302.498, 191.2797
1304.426, 192.6938
1306.355, 194.6029
1308.283, 196.8074
1310.212, 199.3630
1312.140, 204.1842
1314.069, 208.3875
1315.997, 203.1802
1317.926, 196.1744
1319.854, 197.4570
1321.782, 200.9924
1323.711, 203.0863
1325.639, 204.3623
1327.568, 205.0686
1329.496, 205.2826
1331.425, 205.3366
1333.353, 203.5271
1335.282, 198.6092
1337.210, 196.5755
1339.139, 198.6766
1341.067, 198.8953
1342.996, 196.8826
1344.924, 193.6252
1346.853, 189.7522
1348.781, 188.2580
1350.709, 188.5709
1352.638, 190.5442
1354.566, 192.2737
1356.495, 190.8000
1358.423, 188.6009
1360.352, 186.2501
1362.280, 186.1417
1364.209, 191.9930
1366.137, 194.2486
1368.066, 189.3496
1369.994, 185.5513
1371.923, 183.9906
1373.851, 185.6537
1375.780, 190.2988
1377.708, 193.8282
1379.636, 195.9706
1381.565, 195.6957
1383.493, 194.5809
1385.422, 196.1425
1387.350, 198.2852
1389.279, 198.5106
1391.207, 198.1407
1393.136, 197.2229
1395.064, 197.5336
1396.993, 201.6559
1398.921, 203.4389
1400.850, 199.7923
1402.778, 199.8838
1404.707, 204.8445
1406.635, 206.6614
1408.563, 205.9263
1410.492, 210.4055
1412.420, 218.2229
1414.349, 224.2257
1416.277, 230.1696
1418.206, 237.4402
1420.134, 246.7343
1422.063, 259.2525
1423.991, 272.5746
1425.920, 285.5844
1427.848, 299.5500
1429.777, 315.6833
1431.705, 329.2283
1433.634, 339.3355
1435.562, 353.1931
1437.490, 370.1565
1439.419, 387.8473
1441.347, 403.7139
1443.276, 410.5219
1445.204, 414.6168
1447.133, 423.4243
1449.061, 430.5380
1450.990, 433.8259
1452.918, 432.0022
1454.847, 423.8151
1456.775, 415.5593
1458.704, 408.3248
1460.632, 397.6180
1462.561, 383.5958
1464.489, 368.5300
1466.417, 353.4137
1468.346, 340.9301
1470.274, 329.2856
1472.203, 316.5437
1474.131, 303.7209
1476.060, 290.9908
1477.988, 278.9510
1479.917, 267.3074
1481.845, 259.2179
1483.774, 254.9896
1485.702, 249.0355
1487.631, 241.4183
1489.559, 233.4158
1491.488, 225.8818
1493.416, 221.4742
1495.344, 216.6102
1497.273, 206.1055
1499.201, 197.2907
1501.130, 194.8223
1503.058, 191.9802
1504.987, 187.7513
1506.915, 184.0182
1508.844, 180.7482
1510.772, 175.1902
1512.701, 168.9662
1514.629, 165.8305
1516.558, 165.4556
1518.486, 169.9470
1520.415, 173.1229
1522.343, 170.0790
1524.271, 167.5122
1526.200, 167.7156
1528.128, 166.9838
1530.057, 165.1570
1531.985, 163.9550
1533.914, 163.2859
1535.842, 162.4308
1537.771, 162.3768
1539.699, 165.6258
1541.628, 167.6440
1543.556, 164.9280
1545.485, 163.5507
1547.413, 165.7968
1549.342, 166.3256
1551.270, 164.6747
1553.198, 163.1498
1555.127, 161.8208
1557.055, 161.1418
1558.984, 160.5276
1560.912, 158.0606
1562.841, 157.9182
1564.769, 163.5245
1566.698, 165.4805
1568.626, 161.4390
1570.555, 158.3608
1572.483, 156.7684
1574.412, 155.7670
1576.340, 154.9015
1578.269, 152.3470
1580.197, 150.7855
1582.125, 154.5208
1584.054, 155.8052
1585.982, 151.1305
1587.911, 150.5883
1589.839, 155.1640
1591.768, 159.4110
1593.696, 161.8101
1595.625, 157.4192
1597.553, 151.6358
1599.482, 150.9246
1601.410, 151.2074
1603.339, 150.0283
1605.267, 150.5124
1607.196, 153.4506
1609.124, 153.2718
1611.052, 150.6083
1612.981, 149.5271
1614.909, 149.5130
1616.838, 150.0425
1618.766, 150.6986
1620.695, 150.9477
1622.623, 151.8909
1624.552, 154.8540
1626.480, 154.1708
1628.409, 150.2469
1630.337, 148.8896
1632.266, 148.3264
1634.194, 144.4785
1636.123, 141.9845
1638.051, 145.2834
1639.979, 146.6604
1641.908, 142.9554
1643.836, 142.0102
1645.765, 143.6751
1647.693, 144.3934
1649.622, 144.4582
1651.550, 144.5429
1653.479, 143.8213
1655.407, 141.4249
1657.336, 139.5938
1659.264, 138.9973
1661.193, 137.5192
1663.121, 135.3952
1665.050, 134.1899
1666.978, 134.1743
1668.906, 136.3347
1670.835, 138.9277
1672.763, 141.5130
1674.692, 143.0991
1676.620, 143.5116
1678.549, 141.8210
1680.477, 139.6138
1682.406, 143.5365
1684.334, 147.8535
1686.263, 145.0372
1688.191, 143.2054
1690.120, 145.0446
1692.048, 147.0117
1693.977, 148.9003
1695.905, 152.9674
1697.833, 157.8366
1699.762, 160.9563
1701.690, 163.4847
1703.619, 165.6925
1705.547, 168.3765
1707.476, 171.2025
1709.404, 180.1281
1711.333, 193.2905
1713.261, 203.1300
1715.190, 211.2014
1717.118, 218.9949
1719.047, 225.9126
1720.975, 231.3550
1722.904, 237.0424
1724.832, 242.9094
1726.760, 245.2429
1728.689, 244.7599
1730.617, 242.5146
1732.546, 238.7601
1734.474, 233.6653
1736.403, 226.7764
1738.331, 217.7680
1740.260, 209.2608
1742.188, 201.0172
1744.117, 192.4479
1746.045, 183.4645
1747.974, 173.4102
1749.902, 164.7983
1751.831, 158.4084
1753.759, 153.2284
1755.688, 148.7874
1757.616, 142.7977
1759.544, 137.5096
1761.473, 135.5488
1763.401, 134.1500
1765.330, 132.6788
1767.258, 130.0681
1769.187, 126.7068
1771.115, 125.0471
1773.044, 124.5216
1774.972, 125.0992
1776.901, 125.0981
1778.829, 123.6691
1780.758, 125.5427
1782.686, 129.8238
1784.615, 127.6348
1786.543, 123.8597
1788.471, 124.8319
1790.400, 126.8647
1792.328, 129.2864
1794.257, 128.5418
1796.185, 125.1850
1798.114, 123.9500
1800.042, 123.5369
1801.971, 122.2249
1803.899, 121.2433
1805.828, 120.9516
1807.756, 121.7560
1809.685, 123.2433
1811.613, 122.5063
1813.542, 121.6283
1815.470, 123.7833
1817.398, 124.7482
1819.327, 121.9933
1821.255, 121.9035
1823.184, 123.4106
1825.112, 118.8415
1827.041, 114.5049
1828.969, 117.0441
1830.898, 118.9240
1832.826, 117.5804
1834.755, 116.9143
1836.683, 116.5717
1838.612, 114.5106
1840.540, 113.7845
1842.469, 117.8539
1844.397, 118.0843
1846.325, 111.9624
1848.254, 111.6349
1850.182, 114.7861
1852.111, 118.1621
1854.039, 119.5015
1855.968, 117.3406
1857.896, 115.3078
1859.825, 114.0677
1861.753, 115.8324
1863.682, 117.0990
1865.610, 110.7739
1867.539, 107.2322
1869.467, 109.5221
1871.396, 112.6623
1873.324, 115.0984
1875.252, 112.4870
1877.181, 108.9045
1879.109, 107.2657
1881.038, 106.9715
1882.966, 107.9313
1884.895, 110.5574
1886.823, 113.0588
1888.752, 112.2839
1890.680, 110.3572
1892.609, 107.5638
1894.537, 106.9352
1896.466, 108.1283
1898.394, 109.5589
1900.323, 109.7440
1902.251, 106.0123
1904.179, 103.6802
1906.108, 103.7091
1908.036, 103.6504
1909.965, 103.6833
1911.893, 103.9934
1913.822, 104.9767
1915.750, 107.9320
1917.679, 108.2051
1919.607, 106.1933
1921.536, 104.4899
1923.464, 103.0417
1925.393, 101.3642
1927.321, 101.4582
1929.250, 103.8008
1931.178, 105.0367
1933.106, 105.8904
1935.035, 108.2742
1936.963, 108.4281
1938.892, 104.3962
1940.820, 104.8783
1942.749, 107.6228
1944.677, 102.9967
1946.606, 99.78265
1948.534, 103.5339
1950.463, 103.0871
1952.391, 98.26611
1954.320, 100.0479
1956.248, 102.6926
1958.177, 99.95419
1960.105, 97.77885
1962.033, 97.19170
1963.962, 98.48638
1965.890, 99.62419
1967.819, 96.06375
1969.747, 94.82347
1971.676, 97.93542
1973.604, 98.76153
1975.533, 97.98264
1977.461, 98.37926
1979.390, 97.95054
1981.318, 95.32958
1983.247, 93.39909
1985.175, 92.63407
1987.104, 94.82185
1989.032, 96.63265
1990.960, 94.97082
1992.889, 94.19466
1994.817, 94.48898
1996.746, 95.30953
1998.674, 95.77586
2000.603, 94.70702
2002.531, 94.36636
2004.460, 94.98563
2006.388, 92.95312
2008.317, 90.81596
2010.245, 91.44482
2012.174, 91.93201
2014.102, 91.58200
2016.031, 92.15319
2017.959, 92.26497
2019.887, 89.83766
2021.816, 87.15721
2023.744, 84.70192
2025.673, 87.11358
2027.601, 90.40688
2029.530, 86.32291
2031.458, 84.97373
2033.387, 89.35497
2035.315, 90.78512
2037.244, 90.05088
2039.172, 88.41472
2041.101, 87.15366
2043.029, 86.63285
2044.958, 85.69554
2046.886, 85.70867
2048.814, 92.61856
2050.743, 93.63577
2052.671, 84.86406
2054.600, 81.77122
2056.528, 82.96802
2058.457, 85.56516
2060.385, 87.49869
2062.314, 88.30693
2064.242, 84.70901
2066.171, 80.54348
2068.099, 84.17265
2070.028, 86.14880
2071.956, 83.34731
2073.885, 84.94215
2075.813, 88.19261
2077.741, 88.44755
2079.670, 87.76849
2081.598, 86.75939
2083.527, 84.76726
2085.455, 82.95896
2087.384, 83.06935
2089.312, 83.72831
2091.241, 84.90473
2093.169, 79.16015
2095.098, 73.69497
2097.026, 77.39120
2098.955, 80.82250
2100.883, 81.97599
2102.812, 81.63466
2104.740, 81.25862
2106.668, 82.49234
2108.597, 82.42344
2110.525, 80.83599
2112.454, 80.45908
2114.382, 79.80546
2116.311, 77.48476
2118.239, 77.24548
2120.168, 79.03921
2122.096, 81.72759
2124.025, 82.56035
2125.953, 80.12064
2127.882, 76.90354
2129.810, 74.27416
2131.739, 75.56905
2133.667, 77.13535
2135.595, 77.65952
2137.524, 80.62166
2139.452, 82.92644
2141.381, 76.88242
2143.309, 74.23985
2145.238, 77.06564
2147.166, 76.70394
2149.095, 75.14787
2151.023, 74.65018
2152.952, 74.01386
2154.880, 73.20992
2156.809, 72.77971
2158.737, 72.94154
2160.666, 74.36864
2162.594, 74.97250
2164.522, 74.80153
2166.451, 74.18846
2168.379, 73.31363
2170.308, 71.92638
2172.236, 72.00941
2174.165, 73.07682
2176.093, 75.09988
2178.022, 75.30331
2179.950, 73.23461
2181.879, 73.17525
2183.807, 73.04817
2185.736, 70.93092
2187.664, 70.06485
2189.593, 70.49444
2191.521, 72.08011
2193.449, 72.56393
2195.378, 70.94301
2197.306, 69.34363
2199.235, 68.96713
2201.163, 73.70713
2203.092, 72.65787
2205.020, 65.04446
2206.949, 67.01139
2208.877, 70.05712
2210.806, 67.63969
2212.734, 68.36105
2214.663, 71.28964
2216.591, 71.90660
2218.520, 71.57036
2220.448, 70.77774
2222.376, 71.49541
2224.305, 70.95499
2226.233, 63.04305
2228.162, 61.55722
2230.090, 65.92591
2232.019, 68.84673
2233.947, 69.13505
2235.876, 65.50956
2237.804, 64.81309
2239.733, 66.34619
2241.661, 70.96194
2243.590, 69.83880
2245.518, 62.91795
2247.447, 59.20198
2249.375, 58.83628
2251.303, 63.65861
2253.232, 66.09830
2255.160, 66.91341
2257.089, 67.96622
2259.017, 67.62981
2260.946, 65.78030
2262.874, 67.33573
2264.803, 67.21733
2266.731, 61.61075
2268.660, 58.88932
2270.588, 58.70117
2272.517, 59.61281
2274.445, 61.63841
2276.374, 64.42007
2278.302, 62.92471
2280.230, 62.20586
2282.159, 65.30141
2284.087, 67.66654
2286.016, 68.04995
2287.944, 62.73545
2289.873, 60.42714
2291.801, 62.12320
2293.730, 64.01106
2295.658, 65.06208
2297.587, 64.82875
2299.515, 62.85448
2301.444, 61.17646
2303.372, 63.67947
2305.301, 64.40086
2307.229, 63.39654
2309.157, 64.54540
2311.086, 65.17421
2313.014, 64.15837
2314.943, 61.90260
2316.871, 60.97202
2318.800, 66.69505
2320.728, 64.03315
2322.657, 57.20839
2324.585, 62.17419
2326.514, 64.20511
2328.442, 59.41932
2330.371, 59.86297
2332.299, 60.59648
2334.228, 58.28251
2336.156, 54.56718
2338.084, 52.20366
2340.013, 56.00157
2341.941, 57.07812
2343.870, 55.16993
2345.798, 56.38650
2347.727, 57.02736
2349.655, 55.77250
2351.584, 55.66216
2353.512, 56.09061
2355.441, 56.52888
2357.369, 57.48409
2359.298, 58.41233
2361.226, 59.03701
2363.155, 55.63355
2365.083, 49.68257
2367.011, 51.60447
2368.940, 54.38054
2370.868, 55.30925
2372.797, 51.29798
2374.725, 48.35059
2376.654, 51.89159
2378.582, 55.40135
2380.511, 57.18306
2382.439, 54.22548
2384.368, 52.13642
2386.296, 51.74783
2388.225, 53.90791
2390.153, 54.22379
2392.082, 51.63357
2394.010, 53.60106
2395.938, 55.08720
2397.867, 51.47467
2399.795, 50.67227
2401.724, 51.41044
2403.652, 52.04104
2405.581, 54.75825
2407.509, 57.26918
2409.438, 52.53288
2411.366, 51.91011
2413.295, 56.18484
2415.223, 55.41883
2417.152, 52.24702
2419.080, 47.61852
2421.009, 48.65541
2422.937, 50.89462
2424.865, 51.59127
2426.794, 49.32795
2428.722, 47.65210
2430.651, 51.08959
2432.579, 51.98875
2434.508, 51.11794
2436.436, 51.57546
2438.365, 53.75867
2440.293, 55.79985
2442.222, 49.07219
2444.150, 44.69613
2446.079, 45.34573
2448.007, 47.94968
2449.936, 48.81791
2451.864, 46.36977
2453.792, 45.72294
2455.721, 45.94434
2457.649, 45.72011
2459.578, 50.87496
2461.506, 55.28150
2463.435, 48.92386
2465.363, 47.14599
2467.292, 48.35923
2469.220, 47.32538
2471.149, 46.27017
2473.077, 45.74039
2475.006, 47.03965
2476.934, 46.15068
2478.863, 43.10081
2480.791, 46.78146
2482.719, 48.45405
2484.648, 45.10332
2486.576, 43.79901
2488.505, 43.53386
2490.433, 43.81186
2492.362, 45.49188
2494.290, 46.39529
2496.219, 45.06511
2498.147, 45.91407
2500.076, 46.52706
2502.004, 44.28746
2503.933, 42.18280
2505.861, 41.23787
2507.790, 42.98071
2509.718, 43.31940
2511.646, 43.20750
2513.575, 46.60796
2515.503, 45.42717
2517.432, 41.44783
2519.360, 42.62472
2521.289, 40.36406
2523.217, 35.91163
2525.146, 38.82197
2527.074, 40.76728
2529.003, 40.38393
2530.931, 40.60086
2532.860, 40.28764
2534.788, 39.47487
2536.717, 41.34964
2538.645, 44.10164
2540.573, 46.98149
2542.502, 45.69421
2544.430, 43.34689
2546.359, 41.26807
2548.287, 38.17973
2550.216, 38.06394
2552.144, 43.79852
2554.073, 44.84322
2556.001, 43.39739
2557.930, 40.72972
2559.858, 41.66808
2561.787, 42.71101
2563.715, 41.51538
2565.644, 41.04070
2567.572, 41.83354
2569.500, 44.16273
2571.429, 42.63791
2573.357, 40.45577
2575.286, 40.40009
2577.214, 38.83023
2579.143, 37.35149
2581.071, 37.48751
2583.000, 39.51819
2584.928, 41.57497
2586.857, 41.93749
2588.785, 41.00603
2590.714, 40.74697
2592.642, 43.95385
2594.571, 43.76889
2596.499, 42.03186
2598.427, 41.47816
2600.356, 37.88011
2602.284, 33.62794
2604.213, 30.23021
2606.141, 34.58860
2608.070, 39.66124
2609.998, 36.88258
2611.927, 37.82447
2613.855, 39.32446
2615.784, 37.55168
2617.712, 39.15369
2619.641, 39.10316
2621.569, 32.14784
2623.498, 32.56112
2625.426, 35.69233
2627.354, 37.15050
2629.283, 39.97332
2631.211, 41.06417
2633.140, 38.30117
2635.068, 34.85411
2636.997, 31.95325
2638.925, 30.22606
2640.854, 34.33781
2642.782, 36.54706
2644.711, 32.90553
2646.639, 32.90243
2648.568, 30.94767
2650.496, 25.15601
2652.425, 31.57824
2654.353, 37.87639
2656.281, 38.66571
2658.210, 35.24035
2660.138, 31.75020
2662.067, 29.99259
2663.995, 32.95156
2665.924, 34.67828
2667.852, 34.16514
2669.781, 36.93426
2671.709, 35.66601
2673.638, 30.81706
2675.566, 31.17654
2677.495, 31.62179
2679.423, 30.82460
2681.352, 26.97771
2683.280, 28.18262
2685.208, 32.48911
2687.137, 34.81718
2689.065, 32.48442
2690.994, 30.61731
2692.922, 37.30279
2694.851, 34.69911
2696.779, 30.00087
2698.708, 32.01682
2700.636, 31.25473
2702.565, 31.20978
2704.493, 34.73600
2706.422, 34.25547
2708.350, 33.65479
2710.279, 34.89531
2712.207, 34.44926
2714.135, 32.83622
2716.064, 31.07832
2717.992, 34.13829
2719.921, 34.32535
2721.849, 31.22461
2723.778, 30.28941
2725.706, 31.45819
2727.635, 33.04382
2729.563, 31.64713
2731.492, 29.12891
2733.420, 27.66096
2735.349, 30.09817
2737.277, 33.94145
2739.206, 36.98923
2741.134, 37.74658
2743.063, 30.58898
2744.991, 27.98486
2746.919, 38.33200
2748.848, 35.35851
2750.776, 31.58075
2752.705, 31.78405
2754.633, 33.41489
2756.562, 37.26555
2758.490, 40.93736
2760.419, 35.12110
2762.347, 34.53176
2764.276, 36.81177
2766.204, 34.96527
2768.133, 33.68614
2770.061, 32.81776
2771.990, 31.83702
2773.918, 33.65435
2775.846, 34.71842
2777.775, 33.44466
2779.703, 31.54879
2781.632, 30.54049
2783.560, 30.61967
2785.489, 31.45449
2787.417, 30.28617
2789.346, 29.28781
2791.274, 34.22456
2793.203, 36.06634
2795.131, 35.92475
2797.060, 35.52828
2798.988, 35.94664
2800.917, 35.98793
2802.845, 34.91137
2804.773, 27.57800
2806.702, 26.84034
2808.630, 32.97032
2810.559, 34.28889
2812.487, 33.80799
2814.416, 32.75475
2816.344, 31.83785
2818.273, 31.16840
2820.201, 34.75135
2822.130, 44.31129
2824.058, 43.27153
2825.987, 43.15668
2827.915, 47.56382
2829.844, 49.73127
2831.772, 48.50267
2833.700, 48.77123
2835.629, 62.55013
2837.557, 68.54588
2839.486, 68.57772
2841.414, 65.76691
2843.343, 67.21879
2845.271, 67.25466
2847.200, 64.47682
2849.128, 63.19178
2851.057, 62.98260
2852.985, 61.79544
2854.914, 54.29277
2856.842, 56.40493
2858.771, 60.69172
2860.699, 59.83925
2862.627, 55.19575
2864.556, 54.66382
2866.484, 58.32605
2868.413, 51.68817
2870.341, 50.06130
2872.270, 51.09431
2874.198, 47.58848
2876.127, 55.36875
2878.055, 61.65531
2879.984, 58.86333
2881.912, 61.11454
2883.841, 65.08103
2885.769, 69.20985
2887.698, 72.75961
2889.626, 72.69709
2891.554, 73.43007
2893.483, 78.81003
2895.411, 79.86526
2897.340, 84.28535
2899.268, 92.00603
2901.197, 90.96538
2903.125, 91.11008
2905.054, 93.63705
2906.982, 97.72118
2908.911, 104.8711
2910.839, 109.3761
2912.768, 110.1470
2914.696, 121.2299
2916.625, 129.4034
2918.553, 134.4872
2920.481, 140.9727
2922.410, 143.9465
2924.338, 151.9167
2926.267, 169.3734
2928.195, 174.0112
2930.124, 175.1723
2932.052, 179.9559
2933.981, 197.9929
2935.909, 205.3752
2937.838, 208.9372
2939.766, 214.8340
2941.695, 223.3407
2943.623, 230.6150
2945.552, 236.3772
2947.480, 242.5678
2949.408, 243.4576
2951.337, 241.8728
2953.265, 239.2073
2955.194, 230.2071
2957.122, 220.5849
2959.051, 210.4815
2960.979, 196.9822
2962.908, 183.2255
2964.836, 170.7103
2966.765, 159.4550
2968.693, 143.4277
2970.622, 130.9512
2972.550, 121.7112
2974.479, 112.0837
2976.407, 107.8401
2978.335, 105.2746
2980.264, 101.8823
2982.192, 93.79780
2984.121, 90.26223
2986.049, 90.12549
2987.978, 90.60305
2989.906, 90.85547
2991.835, 90.80332
2993.763, 90.49880
2995.692, 89.86259
2997.620, 92.60278
2999.549, 93.94727
3001.477, 91.02537
3003.406, 88.64436
3005.334, 88.31600
3007.262, 87.79926
3009.191, 82.73103
3011.119, 83.18536
3013.048, 80.56382
3014.976, 73.23580
3016.905, 69.72527
3018.833, 69.54993
3020.762, 69.75694
3022.690, 67.77686
3024.619, 62.68276
3026.547, 57.25056
3028.476, 52.63439
3030.404, 48.63188
3032.333, 50.99873
3034.261, 51.81581
3036.189, 48.90425
3038.118, 54.19049
3040.046, 52.49734
3041.975, 44.48191
3043.903, 33.28342
3045.832, 37.95771
3047.760, 39.18250
3049.689, 34.66668
3051.617, 29.19703
3053.546, 27.63656
3055.474, 26.34670
3057.403, 23.53481
3059.331, 18.31395
3061.260, 17.76482
3063.188, 18.87992
3065.116, 19.05487
3067.045, 17.64688
3068.973, 16.14874
3070.902, 15.60013
3072.830, 16.67744
3074.759, 15.48068
3076.687, 14.48115
3078.616, 14.53974
3080.544, 16.01832
3082.473, 16.98645
3084.401, 17.11987
3086.330, 15.76765
3088.258, 9.747298
3090.187, 13.75106
3092.115, 16.33685
3094.043, 11.53383
3095.972, 12.89766
3097.900, 10.75584
3099.829, 9.896424
3101.757, 14.63903
3103.686, 14.09192
3105.614, 13.68596
3107.543, 13.75554
3109.471, 13.30464
3111.400, 13.52363
3113.328, 7.009254
3115.257, 0.8281134
3117.185, 8.600801
3119.114, 9.259976
3121.042, 10.50442
3122.970, 13.47869
3124.899, 14.06468
3126.827, 8.788166
3128.756, 10.61132
3130.684, 17.66822
3132.613, 10.08783
3134.541, 8.001863
3136.470, 8.211801
3138.398, 8.455598
3140.327, 10.74832
3142.255, 10.49761
3144.184, 9.207504
3146.112, 8.355873
3148.041, 8.986379
3149.969, 9.378280
3151.897, 8.872115
3153.826, 7.917619
3155.754, 10.68972
3157.683, 16.31423
3159.611, 16.95275
3161.540, 10.04464
3163.468, 12.02150
3165.397, 9.957455
3167.325, 5.838523
3169.254, 3.036216
3171.182, 3.356377
3173.111, 2.171678
3175.039, 5.717568
3176.968, 15.15338
3178.896, 6.352754
3180.824, 1.183803
3182.753, 3.666714
3184.681, 11.79899
3186.610, 14.04948
3188.538, 10.63833
3190.467, 8.778369
3192.395, 12.43531
3194.324, 11.25872
3196.252, 4.874471
3198.181, 1.978964
3200.109, 6.503702
3202.038, 6.662839
3203.966, 4.966962
3205.895, 2.837906
3207.823, 1.667181
3209.751, 5.056343
3211.680, 5.360606
3213.608, 6.130180
3215.537, 7.085628
3217.465, -2.702395
3219.394, 6.020806
3221.322, 8.467713
3223.251, 1.411382
3225.179, 9.637629
3227.108, 12.43354
3229.036, 8.376731
3230.965, 2.802846
3232.893, 6.145200
3234.822, 3.182157
3236.750, 3.990751
3238.678, 7.117492
3240.607, 5.826907
3242.535, 2.963508
3244.464, 4.611166
3246.392, 8.053628
3248.321, 9.056781
3250.249, 8.359849
3252.178, 10.66363
3254.106, 7.891662
3256.035, -2.839185
3257.963, 4.115905
3259.892, 4.994339
3261.820, 5.667127
3263.749, 8.968614
3265.677, 7.218794
3267.605, 5.397393
3269.534, 7.299623
3271.462, 10.83933
3273.391, 10.00450
3275.319, 4.609290
3277.248, 3.299666
3279.176, 4.623707
3281.105, 4.136188
3283.033, 6.345781
3284.962, 6.759705
3286.890, 3.962791
3288.819, -0.5233729
3290.747, 2.965277
3292.676, 5.723685
3294.604, 5.176856
3296.532, 2.951339
3298.461, 4.465646
3300.389, 5.172589
3302.318, 1.950512
3304.246, 0.3420756
3306.175, 6.924308
3308.103, 4.258529
3310.032, 1.550718
3311.960, 2.318125
3313.889, 6.187484
3315.817, 7.590446
3317.746, 7.597937
3319.674, 6.545603
3321.603, 4.466898
3323.531, 1.326409
3325.459, 3.280905
3327.388, 3.351985
3329.316, 1.584315
3331.245, 0.5608623
3333.173, 5.180054
3335.102, 3.837266
3337.030, 2.695001
3338.959, 4.818432
3340.887, 9.085667
3342.816, 2.571547
3344.744, 4.957983
3346.673, 10.13811
3348.601, 7.405830
3350.530, 2.999459
3352.458, 4.757477
3354.386, 7.789007
3356.315, 8.655348
3358.243, 7.237279
3360.172, 2.927383
3362.100, 5.134360
3364.029, 9.070691
3365.957, 8.209194
3367.886, 5.192807
3369.814, 2.243545
3371.743, 1.443884
3373.671, 2.338927
3375.600, 2.843678
3377.528, 11.07522
3379.457, 10.21184
3381.385, 6.979134
3383.313, 7.012639
3385.242, -2.225683
3387.170, 2.070071
3389.099, 12.00424
3391.027, 16.61256
3392.956, 8.651546
3394.884, 11.51300
3396.813, 10.97721
3398.741, 6.517644
3400.670, 3.584939
3402.598, 9.958770
3404.527, 4.173686
3406.455, 4.570392
3408.384, 5.792272
3410.312, 2.074524
3412.240, -0.6760599
3414.169, 7.545477
3416.097, 6.073146
3418.026, 8.0829121E-02
3419.954, 1.698060
3421.883, 5.185445
3423.811, 7.815619
3425.740, 7.146783
3427.668, 4.064135
3429.597, 1.221875
3431.525, 7.505826
3433.454, 8.027102
3435.382, 7.252510
3437.311, 6.191638
3439.239, -1.805159
3441.167, 5.856884
3443.096, 7.038011
3445.024, 7.180221
3446.953, 10.07819
3448.881, 8.820468
3450.810, 6.498496
3452.738, 4.724809
3454.667, 3.785010
3456.595, 3.483377
3458.524, 3.434982
##END=



