##NAMES=Chloritoid
##RRUFFID=R050334
##IDEAL CHEMISTRY=Fe^2+^Al_2_O(SiO_4_)(OH)_2_
##LOCALITY=Selçuk, Mugla Province, Turkey
##OWNER=RRUFF
##SOURCE=George Rossman
##DESCRIPTION=Dark greenish-black foliated cleavage fragments
##STATUS=The identification of this mineral is confirmed by single-crystal X-ray diffraction and chemical analysis
##URL=https://www.rruff.net/odr/rruff_sample/R050334
##MEASURED CHEMISTRY=(Fe^2+^_1.84_Mg_0.12_Mn_0.04_)(Al_3.95_Fe^3+^_0.05_)Si_2.00_O_10_(OH)_4_ ; H not measured but estimated by difference and stoichiometry
##DIFFRACTION SAMPLE DESCRIPTION=Single crystal, powder profile is calculated
##CELL PARAMETERS=a: 9.482 b: 5.4824 c: 18.158 alpha: 90 beta: 101.77 gamma: 90 volume: 924.1 crystal system: monoclinic
##FILETYPE=Raman Processed
##RAMAN WAVELENGTH=532

131.6741, 182.8745
133.6025, 182.1204
135.5310, 183.8808
137.4595, 189.8039
139.3879, 195.9851
141.3164, 200.6289
143.2449, 203.4568
145.1733, 205.8537
147.1018, 207.8976
149.0303, 209.6194
150.9587, 211.6237
152.8872, 214.1358
154.8157, 216.7544
156.7441, 219.1841
158.6726, 221.2568
160.6011, 223.3310
162.5295, 225.4179
164.4580, 227.5327
166.3865, 229.8374
168.3149, 232.6523
170.2434, 235.5808
172.1719, 238.1003
174.1003, 240.1532
176.0288, 241.8752
177.9573, 243.1662
179.8857, 243.9569
181.8142, 244.7662
183.7427, 245.3389
185.6711, 245.9741
187.5996, 247.3196
189.5281, 249.9667
191.4565, 252.5173
193.3850, 254.2985
195.3135, 254.2018
197.2419, 255.4059
199.1704, 258.9441
201.0989, 263.8258
203.0273, 267.9320
204.9558, 271.3048
206.8843, 273.6614
208.8127, 274.8051
210.7412, 274.4164
212.6697, 273.2868
214.5981, 270.9587
216.5266, 267.8285
218.4551, 264.9006
220.3835, 261.8345
222.3120, 259.2355
224.2405, 257.8759
226.1689, 258.2214
228.0974, 257.8225
230.0259, 255.3007
231.9543, 251.1114
233.8828, 248.4892
235.8113, 248.0534
237.7397, 248.5634
239.6682, 249.3155
241.5967, 250.2349
243.5251, 251.6182
245.4536, 253.6065
247.3821, 256.1490
249.3105, 258.7375
251.2390, 260.7628
253.1675, 263.2599
255.0959, 267.0259
257.0244, 273.3167
258.9529, 278.0109
260.8813, 279.6701
262.8098, 278.7818
264.7383, 278.7814
266.6667, 279.8387
268.5952, 281.7713
270.5237, 284.2794
272.4521, 286.2910
274.3806, 290.6801
276.3091, 298.2484
278.2375, 308.5917
280.1660, 320.1917
282.0945, 337.6735
284.0229, 352.2719
285.9514, 359.1642
287.8799, 354.2210
289.8083, 347.3495
291.7368, 337.2882
293.6653, 325.4916
295.5938, 315.1583
297.5222, 307.0079
299.4507, 300.1139
301.3792, 294.5501
303.3076, 290.6596
305.2361, 286.8474
307.1646, 283.1669
309.0930, 279.4847
311.0215, 275.4175
312.9500, 270.4646
314.8784, 265.6518
316.8069, 261.2600
318.7354, 257.2462
320.6638, 253.8528
322.5923, 250.3329
324.5208, 247.5685
326.4492, 247.2467
328.3777, 250.6204
330.3062, 254.9545
332.2346, 260.6861
334.1631, 267.6500
336.0915, 272.2307
338.0200, 272.4988
339.9485, 270.7723
341.8769, 269.1421
343.8054, 267.4213
345.7339, 266.0577
347.6623, 265.4305
349.5908, 265.3999
351.5193, 264.9987
353.4477, 263.8351
355.3762, 262.4817
357.3047, 261.0367
359.2331, 258.9738
361.1616, 258.4407
363.0901, 260.8368
365.0185, 265.4284
366.9470, 269.5004
368.8755, 273.9931
370.8039, 277.3234
372.7324, 277.8509
374.6609, 275.4745
376.5893, 273.9423
378.5178, 274.8582
380.4463, 276.8944
382.3747, 277.9508
384.3032, 275.7885
386.2317, 274.9068
388.1601, 277.4243
390.0886, 282.8168
392.0171, 287.6077
393.9455, 290.8773
395.8740, 293.6396
397.8025, 296.7708
399.7309, 300.6888
401.6594, 304.1697
403.5879, 306.5321
405.5163, 308.1843
407.4448, 310.3032
409.3733, 312.9501
411.3017, 316.0923
413.2302, 320.4323
415.1587, 326.4132
417.0871, 330.4029
419.0156, 330.9174
420.9441, 329.1771
422.8725, 326.5118
424.8010, 321.1917
426.7295, 316.5993
428.6579, 314.1689
430.5864, 313.4181
432.5149, 311.3375
434.4433, 305.5226
436.3718, 299.7300
438.3003, 296.2745
440.2287, 296.7405
442.1572, 297.7867
444.0857, 299.7055
446.0141, 302.2365
447.9426, 304.8209
449.8711, 307.4032
451.7995, 310.1187
453.7280, 312.9702
455.6565, 315.9515
457.5849, 319.1740
459.5134, 323.3439
461.4419, 327.2699
463.3703, 330.0895
465.2988, 331.1860
467.2273, 332.4605
469.1557, 334.2663
471.0842, 336.5404
473.0127, 338.9013
474.9411, 340.8333
476.8696, 343.4977
478.7981, 347.7422
480.7265, 353.9523
482.6550, 358.9319
484.5835, 361.8469
486.5119, 363.9639
488.4404, 366.4333
490.3689, 369.2691
492.2973, 372.3150
494.2258, 375.2151
496.1543, 378.2330
498.0827, 382.4083
500.0112, 390.3134
501.9397, 396.8839
503.8681, 400.5596
505.7966, 401.4449
507.7251, 399.5796
509.6535, 393.3128
511.5820, 385.0866
513.5105, 376.5035
515.4390, 366.5035
517.3674, 357.3971
519.2959, 348.9349
521.2244, 341.5461
523.1528, 335.5508
525.0813, 330.3303
527.0098, 327.8102
528.9382, 328.9904
530.8667, 334.1826
532.7952, 339.6755
534.7236, 342.4202
536.6521, 347.8655
538.5806, 357.9942
540.5090, 371.8786
542.4375, 394.3337
544.3660, 430.8373
546.2944, 474.2618
548.2229, 515.7325
550.1514, 561.2921
552.0798, 596.1205
554.0083, 614.7343
555.9368, 619.5327
557.8652, 613.5154
559.7937, 582.9683
561.7222, 553.3312
563.6506, 530.2181
565.5791, 513.8290
567.5076, 511.6069
569.4360, 530.0736
571.3645, 559.7857
573.2930, 592.7389
575.2214, 627.0870
577.1499, 670.1382
579.0784, 726.3256
581.0068, 790.3729
582.9352, 850.8074
584.8637, 897.6291
586.7922, 960.8206
588.7206, 1047.220
590.6491, 1155.891
592.5776, 1292.360
594.5060, 1549.023
596.4345, 1748.627
598.3630, 1809.993
600.2914, 1734.376
602.2199, 1602.831
604.1484, 1375.274
606.0768, 1129.676
608.0053, 915.2870
609.9338, 735.1332
611.8622, 587.9374
613.7907, 477.5457
615.7192, 397.7918
617.6476, 340.3310
619.5761, 308.7820
621.5046, 286.5732
623.4330, 270.7100
625.3615, 260.0113
627.2900, 251.4902
629.2184, 246.2964
631.1469, 241.9247
633.0754, 237.8686
635.0038, 234.1333
636.9323, 230.6523
638.8608, 226.8432
640.7892, 223.9919
642.7177, 222.9111
644.6462, 224.4371
646.5746, 225.2874
648.5031, 225.2854
650.4316, 224.7742
652.3600, 223.9648
654.2885, 222.8329
656.2170, 221.6904
658.1454, 220.2437
660.0739, 218.9706
662.0024, 218.5013
663.9308, 219.3852
665.8593, 220.4496
667.7878, 221.8455
669.7162, 223.3218
671.6447, 224.4607
673.5732, 225.3481
675.5016, 225.6266
677.4301, 224.3652
679.3586, 221.8598
681.2870, 221.8189
683.2155, 226.1935
685.1440, 230.7091
687.0724, 233.5809
689.0009, 235.1018
690.9294, 236.7339
692.8578, 238.7791
694.7863, 240.9099
696.7148, 242.9612
698.6432, 244.8908
700.5717, 246.9192
702.5002, 249.5363
704.4286, 251.8846
706.3571, 252.7453
708.2856, 251.7128
710.2141, 252.5442
712.1425, 257.1227
714.0710, 263.3543
715.9995, 269.4820
717.9279, 275.8014
719.8564, 281.5823
721.7849, 285.7175
723.7133, 289.7664
725.6418, 295.9890
727.5703, 305.6601
729.4987, 314.0777
731.4272, 319.6349
733.3557, 323.1485
735.2841, 326.4203
737.2126, 331.0458
739.1411, 333.5479
741.0695, 333.1324
742.9980, 330.0294
744.9265, 324.8452
746.8549, 316.4304
748.7834, 307.9575
750.7119, 300.2814
752.6403, 293.4188
754.5688, 287.4684
756.4973, 282.3745
758.4257, 278.0937
760.3542, 274.9709
762.2827, 272.7379
764.2111, 270.2732
766.1396, 266.2064
768.0681, 263.5332
769.9965, 263.9135
771.9250, 267.6601
773.8535, 270.6123
775.7819, 272.4000
777.7104, 273.9014
779.6389, 275.4493
781.5673, 277.0505
783.4958, 278.7273
785.4243, 279.9672
787.3527, 281.8432
789.2812, 285.0210
791.2097, 289.8493
793.1381, 294.3850
795.0666, 298.2374
796.9951, 302.1365
798.9235, 306.8933
800.8520, 312.4675
802.7805, 317.0531
804.7089, 318.9727
806.6374, 321.1931
808.5659, 325.7162
810.4943, 333.7508
812.4228, 340.2706
814.3513, 343.3940
816.2797, 346.5152
818.2082, 352.0704
820.1367, 359.9667
822.0651, 368.5032
823.9936, 376.6719
825.9221, 386.1494
827.8505, 398.0475
829.7790, 412.7865
831.7075, 428.5562
833.6359, 445.6486
835.5644, 463.4380
837.4929, 482.7513
839.4213, 504.0625
841.3498, 520.7570
843.2783, 530.7203
845.2067, 536.5494
847.1352, 539.5646
849.0637, 539.2216
850.9921, 538.9811
852.9206, 538.9294
854.8491, 539.1486
856.7775, 539.2897
858.7060, 539.1190
860.6345, 540.9718
862.5629, 545.0499
864.4914, 551.2086
866.4199, 559.1077
868.3483, 568.7078
870.2768, 580.5078
872.2053, 595.8495
874.1337, 612.4350
876.0622, 630.2444
877.9907, 649.8392
879.9191, 665.7415
881.8476, 682.0474
883.7761, 690.9671
885.7045, 687.2206
887.6330, 672.2448
889.5615, 652.5443
891.4899, 625.5777
893.4184, 597.2988
895.3469, 568.9291
897.2753, 540.5065
899.2038, 516.0514
901.1323, 494.7729
903.0607, 477.6977
904.9892, 466.9460
906.9177, 461.0001
908.8461, 454.7831
910.7746, 447.1077
912.7031, 440.3551
914.6315, 435.0849
916.5600, 431.2379
918.4885, 428.7601
920.4169, 429.4713
922.3454, 429.3990
924.2739, 427.4556
926.2023, 424.2877
928.1308, 421.2764
930.0593, 418.2178
931.9877, 415.9805
933.9162, 415.1466
935.8447, 415.2200
937.7731, 415.5455
939.7016, 416.2831
941.6301, 416.9749
943.5585, 417.5960
945.4870, 418.1219
947.4155, 418.6280
949.3439, 419.3080
951.2724, 419.2762
953.2009, 418.1008
955.1293, 416.3158
957.0578, 414.5969
958.9863, 413.1534
960.9147, 410.3196
962.8432, 404.9793
964.7717, 398.9182
966.7001, 392.8204
968.6286, 386.5386
970.5571, 381.3112
972.4855, 379.1835
974.4140, 376.1366
976.3425, 369.0670
978.2709, 359.1516
980.1994, 350.9939
982.1279, 345.0946
984.0563, 341.0247
985.9848, 339.5723
987.9133, 339.9413
989.8417, 338.6526
991.7702, 333.6351
993.6987, 329.6118
995.6271, 327.6752
997.5556, 327.1529
999.4841, 326.9492
1001.413, 327.2620
1003.341, 327.2099
1005.269, 325.9364
1007.198, 324.5408
1009.126, 324.1628
1011.055, 325.2005
1012.983, 325.7518
1014.912, 325.4743
1016.840, 324.7675
1018.769, 323.6475
1020.697, 321.9889
1022.626, 321.1824
1024.554, 322.8559
1026.483, 323.7033
1028.411, 320.7767
1030.340, 315.6040
1032.268, 313.5234
1034.197, 317.5313
1036.125, 320.2032
1038.053, 318.3515
1039.982, 313.8122
1041.910, 310.8107
1043.839, 310.5979
1045.767, 310.2517
1047.696, 309.7407
1049.624, 308.9981
1051.553, 307.7291
1053.481, 305.8499
1055.410, 304.7659
1057.338, 305.4893
1059.267, 306.3211
1061.195, 306.1731
1063.124, 304.9814
1065.052, 303.8833
1066.980, 302.4993
1068.909, 301.6286
1070.837, 302.0377
1072.766, 303.2412
1074.694, 303.2399
1076.623, 301.2790
1078.551, 299.7374
1080.480, 299.1406
1082.408, 299.3538
1084.337, 300.4295
1086.265, 302.6633
1088.193, 304.0922
1090.122, 303.5372
1092.050, 302.6798
1093.979, 302.6113
1095.907, 303.5298
1097.836, 303.6873
1099.764, 302.5567
1101.693, 301.3248
1103.621, 300.3913
1105.550, 299.6709
1107.478, 298.8733
1109.407, 297.9402
1111.335, 297.0881
1113.264, 296.8652
1115.192, 296.4983
1117.120, 294.7773
1119.049, 291.1179
1120.977, 289.1241
1122.906, 291.1003
1124.834, 293.1413
1126.763, 292.9168
1128.691, 290.4193
1130.620, 288.7765
1132.548, 288.6525
1134.477, 288.4408
1136.405, 287.2857
1138.334, 285.8992
1140.262, 285.7614
1142.191, 287.3445
1144.119, 288.0569
1146.047, 286.4157
1147.976, 284.3524
1149.904, 283.2726
1151.833, 283.2912
1153.761, 283.3257
1155.690, 284.0943
1157.618, 284.0383
1159.547, 282.0032
1161.475, 278.6844
1163.404, 276.5022
1165.332, 275.7979
1167.261, 275.2872
1169.189, 274.5356
1171.118, 273.9992
1173.046, 274.5213
1174.974, 276.0763
1176.903, 276.2576
1178.831, 273.6827
1180.760, 271.1222
1182.688, 269.7088
1184.617, 269.3463
1186.545, 269.5500
1188.474, 271.1653
1190.402, 272.0729
1192.331, 271.2670
1194.259, 270.0748
1196.188, 270.0549
1198.116, 271.5044
1200.045, 272.0596
1201.973, 270.8219
1203.901, 269.5113
1205.830, 269.1790
1207.758, 269.3127
1209.687, 268.5249
1211.615, 266.1886
1213.544, 264.7916
1215.472, 265.8986
1217.401, 267.6707
1219.329, 268.7781
1221.258, 269.2141
1223.186, 269.0977
1225.115, 267.5721
1227.043, 266.5202
1228.972, 267.2022
1230.900, 268.7582
1232.828, 268.6843
1234.757, 266.0301
1236.685, 264.3564
1238.614, 264.4664
1240.542, 265.4727
1242.471, 267.3483
1244.399, 269.7826
1246.328, 270.6455
1248.256, 268.7296
1250.185, 267.2265
1252.113, 267.6272
1254.042, 269.0224
1255.970, 270.2732
1257.899, 271.5685
1259.827, 272.0612
1261.755, 270.4113
1263.684, 269.2244
1265.612, 270.5964
1267.541, 273.7659
1269.469, 274.4701
1271.398, 270.8278
1273.326, 268.2753
1275.255, 268.4210
1277.183, 269.5210
1279.112, 270.0192
1281.040, 270.0173
1282.969, 270.3118
1284.897, 271.5980
1286.826, 272.1409
1288.754, 270.3021
1290.682, 267.6400
1292.611, 266.5865
1294.539, 267.4577
1296.468, 268.5048
1298.396, 269.3329
1300.325, 270.4169
1302.253, 272.2992
1304.182, 274.6813
1306.110, 276.2105
1308.039, 276.6344
1309.967, 276.4914
1311.896, 275.1198
1313.824, 273.7317
1315.753, 273.4153
1317.681, 274.1232
1319.609, 274.7421
1321.538, 275.3260
1323.466, 275.6772
1325.395, 275.3574
1327.323, 274.9973
1329.252, 275.5512
1331.180, 277.0539
1333.109, 277.5251
1335.037, 275.8974
1336.966, 274.4684
1338.894, 274.3812
1340.823, 275.0117
1342.751, 275.1580
1344.680, 274.6424
1346.608, 274.0872
1348.536, 272.3971
1350.465, 271.8179
1352.393, 274.5941
1354.322, 279.4243
1356.250, 281.5306
1358.179, 279.5872
1360.107, 277.6840
1362.036, 275.7318
1363.964, 274.3181
1365.893, 273.8445
1367.821, 274.2811
1369.750, 275.6610
1371.678, 278.8654
1373.607, 280.3848
1375.535, 276.9355
1377.464, 273.3689
1379.392, 274.1502
1381.320, 278.3858
1383.249, 280.2953
1385.177, 278.5493
1387.106, 276.5886
1389.034, 275.0698
1390.963, 274.0839
1392.891, 273.8283
1394.820, 274.3692
1396.748, 274.9220
1398.677, 275.3037
1400.605, 275.9186
1402.534, 277.2515
1404.462, 278.5599
1406.391, 279.0236
1408.319, 278.5539
1410.247, 277.8190
1412.176, 276.2726
1414.104, 275.2077
1416.033, 275.2151
1417.961, 275.7228
1419.890, 276.3218
1421.818, 277.0352
1423.747, 276.5920
1425.675, 274.0132
1427.604, 271.8388
1429.532, 270.8931
1431.461, 270.9626
1433.389, 272.3719
1435.318, 274.9900
1437.246, 275.5196
1439.174, 272.1359
1441.103, 269.2746
1443.031, 269.1528
1444.960, 270.0846
1446.888, 270.3349
1448.817, 269.8739
1450.745, 269.4406
1452.674, 269.3619
1454.602, 268.9655
1456.531, 267.1777
1458.459, 265.6697
1460.388, 266.7935
1462.316, 271.1676
1464.245, 273.3824
1466.173, 272.1930
1468.101, 270.4670
1470.030, 267.7219
1471.958, 265.2991
1473.887, 264.8575
1475.815, 266.4510
1477.744, 267.3355
1479.672, 267.3212
1481.601, 266.9864
1483.529, 266.0179
1485.458, 265.1706
1487.386, 265.4220
1489.315, 266.5320
1491.243, 266.6092
1493.172, 265.0851
1495.100, 263.8939
1497.028, 263.3848
1498.957, 263.4174
1500.885, 264.3620
1502.814, 265.7497
1504.742, 266.2006
1506.671, 265.5203
1508.599, 264.7563
1510.528, 264.4235
1512.456, 263.7927
1514.385, 261.8038
1516.313, 259.3992
1518.242, 258.8740
1520.170, 260.6084
1522.099, 261.8950
1524.027, 261.9854
1525.955, 261.9413
1527.884, 262.5123
1529.812, 263.0579
1531.741, 262.3306
1533.669, 260.0279
1535.598, 258.6857
1537.526, 258.6101
1539.455, 259.3669
1541.383, 261.2274
1543.312, 263.5786
1545.240, 266.2973
1547.169, 269.4173
1549.097, 270.3791
1551.026, 267.5958
1552.954, 264.8674
1554.882, 262.1992
1556.811, 260.0381
1558.739, 258.5927
1560.668, 257.9036
1562.596, 258.2525
1564.525, 261.2216
1566.453, 262.2251
1568.382, 260.0729
1570.310, 257.3367
1572.239, 254.5947
1574.167, 252.2260
1576.096, 250.8859
1578.024, 250.6683
1579.953, 250.9995
1581.881, 252.3213
1583.809, 253.5001
1585.738, 253.8691
1587.666, 254.2239
1589.595, 255.8911
1591.523, 258.4305
1593.452, 258.6650
1595.380, 255.4468
1597.309, 253.4420
1599.237, 254.9572
1601.166, 256.4909
1603.094, 255.8980
1605.023, 254.1253
1606.951, 252.9712
1608.880, 252.4747
1610.808, 251.7194
1612.736, 249.9527
1614.665, 249.1170
1616.593, 250.9120
1618.522, 253.2151
1620.450, 254.1458
1622.379, 253.8808
1624.307, 252.8345
1626.236, 250.5723
1628.164, 249.5072
1630.093, 250.9781
1632.021, 252.7934
1633.950, 254.1503
1635.878, 254.8629
1637.807, 254.0874
1639.735, 251.8724
1641.663, 251.5363
1643.592, 254.7538
1645.520, 256.7639
1647.449, 254.7132
1649.377, 251.9757
1651.306, 250.9031
1653.234, 251.1561
1655.163, 252.0452
1657.091, 253.8148
1659.020, 254.1689
1660.948, 251.4614
1662.877, 249.3106
1664.805, 250.1457
1666.734, 251.8144
1668.662, 251.7386
1670.590, 250.2837
1672.519, 250.4581
1674.447, 253.3216
1676.376, 254.6518
1678.304, 251.9893
1680.233, 249.4104
1682.161, 249.1217
1684.090, 250.1500
1686.018, 251.0602
1687.947, 251.8477
1689.875, 252.4462
1691.804, 253.0249
1693.732, 252.9976
1695.661, 251.3039
1697.589, 249.9723
1699.517, 250.6877
1701.446, 252.5398
1703.374, 253.3822
1705.303, 253.1508
1707.231, 252.6724
1709.160, 251.7624
1711.088, 251.1573
1713.017, 251.1512
1714.945, 251.4963
1716.874, 252.1562
1718.802, 253.0343
1720.731, 254.0358
1722.659, 255.2845
1724.588, 255.2593
1726.516, 252.7273
1728.444, 250.9310
1730.373, 251.2350
1732.301, 252.5354
1734.230, 254.6352
1736.158, 257.0139
1738.087, 257.9627
1740.015, 257.3119
1741.944, 256.6557
1743.872, 256.2348
1745.801, 255.7918
1747.729, 254.7609
1749.658, 254.1131
1751.586, 254.9898
1753.515, 256.7475
1755.443, 257.4922
1757.371, 257.0816
1759.300, 257.0639
1761.228, 257.8062
1763.157, 258.6365
1765.085, 259.8639
1767.014, 260.5180
1768.942, 259.7009
1770.871, 257.8580
1772.799, 255.5475
1774.728, 252.7414
1776.656, 251.5930
1778.585, 252.8291
1780.513, 254.6221
1782.442, 257.2612
1784.370, 259.3151
1786.298, 259.3439
1788.227, 258.3020
1790.155, 257.8362
1792.084, 257.9137
1794.012, 257.7982
1795.941, 257.3169
1797.869, 256.8644
1799.798, 256.2784
1801.726, 256.0513
1803.655, 256.5076
1805.583, 257.4923
1807.512, 259.0622
1809.440, 261.1011
1811.369, 262.4864
1813.297, 263.1631
1815.225, 263.2854
1817.154, 262.5252
1819.082, 261.6151
1821.011, 259.9476
1822.939, 258.9269
1824.868, 260.9225
1826.796, 264.9292
1828.725, 266.5023
1830.653, 265.2074
1832.582, 263.5584
1834.510, 260.5789
1836.439, 258.8719
1838.367, 259.6293
1840.296, 261.1815
1842.224, 263.4129
1844.152, 265.2285
1846.081, 263.7552
1848.009, 258.4929
1849.938, 255.9509
1851.866, 258.1588
1853.795, 259.9051
1855.723, 261.0081
1857.652, 261.5409
1859.580, 261.3224
1861.509, 260.6874
1863.437, 259.6475
1865.366, 258.4535
1867.294, 258.4350
1869.223, 259.9362
1871.151, 261.2321
1873.079, 262.5276
1875.008, 263.1486
1876.936, 262.6905
1878.865, 261.8167
1880.793, 260.1976
1882.722, 258.7487
1884.650, 259.1854
1886.579, 261.2063
1888.507, 262.4966
1890.436, 262.8514
1892.364, 263.1090
1894.293, 263.5836
1896.221, 263.6183
1898.150, 262.8653
1900.078, 261.7050
1902.006, 260.1207
1903.935, 258.4679
1905.863, 257.1580
1907.792, 256.2587
1909.720, 256.7279
1911.649, 259.3231
1913.577, 260.3125
1915.506, 257.4631
1917.434, 255.1569
1919.363, 255.6089
1921.291, 256.7134
1923.220, 256.7862
1925.148, 256.2137
1927.077, 255.7073
1929.005, 255.2375
1930.933, 255.5475
1932.862, 257.7122
1934.790, 258.7141
1936.719, 257.2148
1938.647, 256.1395
1940.576, 256.8100
1942.504, 257.8881
1944.433, 258.6402
1946.361, 258.8882
1948.290, 257.8871
1950.218, 255.5135
1952.147, 254.7040
1954.075, 256.0922
1956.004, 257.0232
1957.932, 257.0899
1959.860, 256.7120
1961.789, 255.3716
1963.717, 254.3295
1965.646, 254.8969
1967.574, 256.0154
1969.503, 255.9267
1971.431, 254.8537
1973.360, 254.0122
1975.288, 253.4893
1977.217, 252.9132
1979.145, 251.8372
1981.074, 251.5422
1983.002, 253.2613
1984.931, 254.8808
1986.859, 255.3344
1988.787, 254.9496
1990.716, 253.5240
1992.644, 251.5909
1994.573, 251.6687
1996.501, 254.5674
1998.430, 255.6961
2000.358, 253.0068
2002.287, 251.8633
2004.215, 254.5702
2006.144, 256.2410
2008.072, 253.9642
2010.001, 251.0952
2011.929, 250.0863
2013.858, 250.4756
2015.786, 252.0811
2017.714, 254.5743
2019.643, 254.3238
2021.571, 250.6392
2023.500, 249.3099
2025.428, 252.3983
2027.357, 254.4865
2029.285, 252.9193
2031.214, 251.3222
2033.142, 251.8280
2035.071, 253.1051
2036.999, 254.1812
2038.928, 254.8754
2040.856, 254.5728
2042.785, 253.2356
2044.713, 252.2189
2046.641, 251.5446
2048.570, 251.2043
2050.499, 251.4283
2052.427, 251.7076
2054.355, 252.2326
2056.284, 252.4362
2058.212, 251.1064
2060.141, 250.0292
2062.069, 251.8735
2063.998, 255.3161
2065.926, 256.4282
2067.854, 255.3412
2069.783, 254.5408
2071.711, 254.3638
2073.640, 252.9164
2075.568, 248.7289
2077.497, 246.2928
2079.425, 248.2293
2081.354, 250.8177
2083.282, 253.2463
2085.211, 254.4624
2087.139, 252.5022
2089.068, 248.9084
2090.996, 247.0192
2092.925, 246.7611
2094.853, 246.8056
2096.781, 247.3630
2098.710, 247.6564
2100.638, 247.8884
2102.567, 247.4757
2104.495, 245.6839
2106.424, 244.2038
2108.352, 243.2873
2110.281, 243.2978
2112.209, 245.2029
2114.138, 247.6343
2116.066, 248.7353
2117.995, 248.8751
2119.923, 249.3819
2121.852, 250.2684
2123.780, 250.0186
2125.708, 248.0684
2127.637, 246.6534
2129.565, 246.1463
2131.494, 246.0513
2133.422, 246.6509
2135.351, 247.1591
2137.279, 247.2045
2139.208, 246.9821
2141.136, 246.1726
2143.065, 245.4619
2144.993, 246.5657
2146.922, 248.8634
2148.850, 249.3039
2150.779, 247.8793
2152.707, 246.7575
2154.635, 246.0880
2156.564, 245.9714
2158.492, 246.8011
2160.421, 247.4510
2162.349, 247.4393
2164.278, 247.4061
2166.206, 247.4418
2168.135, 247.7838
2170.063, 249.7319
2171.992, 251.3802
2173.920, 248.3598
2175.849, 242.3689
2177.777, 241.4878
2179.706, 245.6833
2181.634, 248.0186
2183.563, 248.0211
2185.491, 247.6351
2187.419, 246.8142
2189.348, 246.6188
2191.276, 248.0669
2193.205, 248.9338
2195.133, 248.0002
2197.062, 246.6108
2198.990, 245.3073
2200.919, 244.3171
2202.847, 243.9682
2204.776, 244.0834
2206.704, 244.0945
2208.633, 244.0989
2210.561, 244.1526
2212.490, 244.7322
2214.418, 243.7971
2216.346, 244.1920
2218.275, 243.1905
2220.203, 241.7265
2222.132, 242.3083
2224.060, 241.7726
2225.989, 241.6241
2227.917, 243.1268
2229.846, 244.4457
2231.774, 244.1396
2233.703, 243.2069
2235.631, 242.3225
2237.560, 241.7798
2239.488, 242.7379
2241.417, 241.9125
2243.345, 241.5129
2245.273, 241.7972
2247.202, 240.5772
2249.130, 241.0077
2251.059, 241.7651
2252.987, 242.7926
2254.916, 243.6873
2256.844, 244.1661
2258.773, 244.6909
2260.701, 246.2786
2262.630, 246.7073
2264.558, 243.5205
2266.487, 240.2646
2268.415, 239.9263
2270.344, 241.0122
2272.272, 242.0175
2274.200, 242.8451
2276.129, 242.9991
2278.057, 242.7225
2279.986, 243.4107
2281.914, 242.8851
2283.843, 242.1899
2285.771, 242.3142
2287.700, 240.6212
2289.628, 240.4710
2291.557, 240.6719
2293.485, 241.5819
2295.414, 242.2409
2297.342, 241.8379
2299.271, 242.0195
2301.199, 244.2950
2303.127, 246.2089
2305.056, 245.2801
2306.984, 243.9935
2308.913, 245.5656
2310.841, 244.2054
2312.770, 247.0555
2314.698, 244.3800
2316.627, 244.2584
2318.555, 246.5907
2320.484, 249.3779
2322.412, 252.7557
2324.341, 255.4110
2326.269, 257.4334
2328.198, 257.5287
2330.126, 255.0125
2332.054, 252.5356
2333.983, 250.5900
2335.911, 248.9565
2337.840, 247.8402
2339.768, 246.6835
2341.697, 244.7859
2343.625, 243.4502
2345.554, 244.2591
2347.482, 245.1530
2349.411, 244.2190
2351.339, 242.4174
2353.268, 240.3818
2355.196, 238.6274
2357.125, 237.9450
2359.053, 238.3825
2360.981, 241.0351
2362.910, 239.9657
2364.838, 240.1376
2366.767, 240.9519
2368.695, 239.1687
2370.624, 241.9159
2372.552, 242.9986
2374.481, 241.6545
2376.409, 240.3196
2378.338, 239.0862
2380.266, 238.8696
2382.195, 240.8658
2384.123, 242.1394
2386.052, 240.5849
2387.980, 239.3688
2389.908, 240.6638
2391.837, 241.9954
2393.765, 241.0000
2395.694, 240.0298
2397.622, 242.4216
2399.551, 240.7071
2401.479, 243.6008
2403.408, 240.2719
2405.336, 239.5398
2407.265, 240.7569
2409.193, 242.5918
2411.122, 244.7561
2413.050, 244.7344
2414.979, 242.2938
2416.907, 241.4642
2418.835, 242.4641
2420.764, 242.8040
2422.692, 242.2177
2424.621, 242.1269
2426.549, 242.8910
2428.478, 243.4882
2430.406, 244.0764
2432.335, 243.7962
2434.263, 241.5578
2436.192, 239.8899
2438.120, 238.9070
2440.049, 239.4015
2441.977, 243.4533
2443.906, 246.3359
2445.834, 244.7643
2447.762, 242.2755
2449.691, 240.7268
2451.619, 240.0299
2453.548, 240.6276
2455.476, 241.5730
2457.405, 241.6143
2459.333, 241.2749
2461.262, 241.9206
2463.190, 242.6238
2465.119, 240.5178
2467.047, 236.8136
2468.976, 234.9265
2470.904, 234.8069
2472.833, 235.9669
2474.761, 238.4065
2476.689, 240.0326
2478.618, 240.7667
2480.546, 241.3466
2482.475, 241.8693
2484.403, 240.8324
2486.332, 237.6400
2488.260, 236.8928
2490.189, 240.1875
2492.117, 242.3093
2494.046, 242.4668
2495.974, 241.1711
2497.903, 236.3399
2499.831, 233.6925
2501.760, 234.8719
2503.688, 236.9332
2505.616, 240.1593
2507.545, 241.9555
2509.473, 240.1833
2511.402, 238.1483
2513.330, 236.6866
2515.259, 236.3942
2517.187, 239.5865
2519.116, 241.6911
2521.044, 237.1124
2522.973, 232.7009
2524.901, 234.8911
2526.830, 239.0080
2528.758, 241.2926
2530.687, 242.1877
2532.615, 241.8790
2534.543, 240.8142
2536.472, 239.4946
2538.400, 238.0525
2540.329, 236.4670
2542.257, 235.0959
2544.186, 234.8152
2546.114, 235.5303
2548.043, 237.5143
2549.971, 240.2081
2551.900, 240.5188
2553.828, 241.9903
2555.757, 242.7878
2557.685, 242.3923
2559.614, 242.8785
2561.542, 241.0477
2563.470, 238.9735
2565.399, 236.7350
2567.327, 236.2502
2569.256, 235.9986
2571.184, 236.0759
2573.113, 237.7126
2575.041, 237.8903
2576.970, 239.8379
2578.898, 241.2160
2580.827, 241.8273
2582.755, 241.7316
2584.684, 240.6615
2586.612, 239.8426
2588.541, 239.4401
2590.469, 239.3188
2592.397, 239.5878
2594.326, 239.7324
2596.254, 239.5574
2598.183, 239.5732
2600.111, 240.1416
2602.040, 240.3951
2603.968, 239.5616
2605.897, 239.3113
2607.825, 240.8474
2609.754, 241.6742
2611.682, 240.6729
2613.611, 239.8399
2615.539, 239.7072
2617.468, 240.0822
2619.396, 241.7790
2621.324, 242.6608
2623.253, 241.5327
2625.181, 239.9388
2627.110, 237.3606
2629.038, 236.3003
2630.967, 239.3472
2632.895, 241.7327
2634.824, 239.0638
2636.752, 237.2426
2638.681, 241.6704
2640.609, 245.4767
2642.538, 243.3627
2644.466, 240.5271
2646.395, 240.1978
2648.323, 240.3227
2650.251, 239.3223
2652.180, 238.5140
2654.108, 239.1563
2656.037, 240.0301
2657.965, 239.8145
2659.894, 239.8046
2661.822, 241.8587
2663.751, 243.6293
2665.679, 242.5992
2667.608, 241.2661
2669.536, 242.2128
2671.465, 243.4371
2673.393, 243.0822
2675.322, 242.0591
2677.250, 240.3946
2679.178, 239.4455
2681.107, 241.8187
2683.035, 243.9189
2684.964, 240.8603
2686.892, 237.2565
2688.821, 238.2763
2690.749, 240.8898
2692.678, 242.9456
2694.606, 243.9119
2696.535, 242.3817
2698.463, 240.5645
2700.392, 240.2560
2702.320, 241.3077
2704.249, 245.2836
2706.177, 248.7004
2708.105, 246.1610
2710.034, 248.7293
2711.962, 244.9764
2713.891, 247.6897
2715.819, 245.2174
2717.748, 241.9545
2719.676, 242.8670
2721.605, 244.9673
2723.533, 245.8003
2725.462, 245.6650
2727.390, 243.6847
2729.319, 242.2313
2731.247, 244.6585
2733.176, 247.4353
2735.104, 246.6876
2737.032, 245.2904
2738.961, 245.9787
2740.889, 246.9518
2742.818, 247.1994
2744.746, 246.5833
2746.675, 243.6256
2748.603, 241.4300
2750.532, 243.5613
2752.460, 246.1542
2754.389, 246.7754
2756.317, 246.4555
2758.246, 244.9152
2760.174, 244.0090
2762.103, 245.9397
2764.031, 247.6599
2765.959, 246.3841
2767.888, 245.4477
2769.816, 247.2840
2771.745, 248.8791
2773.673, 247.5128
2775.602, 246.9649
2777.530, 250.6654
2779.459, 253.4541
2781.387, 252.8324
2783.316, 251.5033
2785.244, 249.4536
2787.173, 248.9131
2789.101, 252.3748
2791.030, 254.9311
2792.958, 254.4029
2794.886, 253.4237
2796.815, 252.1877
2798.743, 251.6548
2800.672, 252.5295
2802.600, 253.4228
2804.529, 254.8288
2806.457, 254.5076
2808.386, 250.8611
2810.314, 249.4641
2812.243, 251.9070
2814.171, 254.3049
2816.100, 256.3640
2818.028, 256.8810
2819.957, 254.7524
2821.885, 254.5429
2823.813, 256.8961
2825.742, 259.0052
2827.670, 260.7829
2829.599, 260.2904
2831.527, 256.2325
2833.456, 254.8906
2835.384, 256.4725
2837.313, 257.0780
2839.241, 256.6041
2841.170, 256.8792
2843.098, 257.9895
2845.027, 259.1307
2846.955, 260.2547
2848.884, 259.9820
2850.812, 258.6570
2852.740, 257.5436
2854.669, 256.9803
2856.597, 258.8666
2858.526, 257.6886
2860.454, 260.9008
2862.383, 258.0855
2864.311, 258.2271
2866.240, 260.0117
2868.168, 261.8691
2870.097, 263.3312
2872.025, 263.8310
2873.954, 263.4037
2875.882, 260.8430
2877.811, 258.8450
2879.739, 261.0165
2881.667, 263.3701
2883.596, 261.9937
2885.524, 260.3322
2887.453, 260.8381
2889.381, 261.6530
2891.310, 261.2510
2893.238, 261.9565
2895.167, 266.9685
2897.095, 269.8493
2899.024, 266.4155
2900.952, 264.5266
2902.881, 266.8821
2904.809, 268.0042
2906.738, 265.5487
2908.666, 263.7110
2910.594, 262.7552
2912.523, 263.2908
2914.451, 265.5628
2916.380, 267.6551
2918.308, 269.4067
2920.237, 270.2592
2922.165, 270.0264
2924.094, 270.7326
2926.022, 272.2752
2927.951, 273.3018
2929.879, 273.8109
2931.808, 274.3777
2933.736, 274.6511
2935.665, 272.5313
2937.593, 269.4308
2939.521, 269.2519
2941.450, 270.4103
2943.378, 269.6357
2945.307, 269.4769
2947.235, 275.7485
2949.164, 281.4724
2951.092, 277.6675
2953.021, 273.6249
2954.949, 276.5214
2956.878, 280.4923
2958.806, 282.2212
2960.735, 284.1153
2962.663, 288.0220
2964.592, 289.8602
2966.520, 286.5095
2968.448, 284.6267
2970.377, 286.6916
2972.305, 288.2309
2974.234, 288.7891
2976.162, 289.7226
2978.091, 291.2835
2980.019, 292.5623
2981.948, 293.5502
2983.876, 293.9182
2985.805, 293.7910
2987.733, 294.5080
2989.662, 294.2260
2991.590, 293.9212
2993.519, 293.7893
2995.447, 292.8571
2997.375, 292.2975
2999.304, 291.7206
3001.232, 291.5988
3003.161, 293.1451
3005.089, 294.5817
3007.018, 294.4383
3008.946, 293.3914
3010.875, 290.7353
3012.803, 289.2374
3014.732, 292.0645
3016.660, 292.8064
3018.589, 288.5038
3020.517, 285.7847
3022.446, 286.1171
3024.374, 286.5136
3026.302, 286.4702
3028.231, 286.6733
3030.159, 286.1962
3032.088, 285.6809
3034.016, 284.9851
3035.945, 283.9098
3037.873, 283.1849
3039.802, 281.8329
3041.730, 280.3091
3043.659, 279.8254
3045.587, 279.8164
3047.516, 280.3132
3049.444, 280.0446
3051.373, 276.0255
3053.301, 273.3369
3055.229, 276.1878
3057.158, 278.8417
3059.086, 278.1491
3061.015, 277.4322
3062.943, 278.0356
3064.872, 276.4328
3066.800, 275.7215
3068.729, 275.4543
3070.657, 273.0906
3072.586, 274.2593
3074.514, 272.8846
3076.443, 271.8116
3078.371, 270.9866
3080.300, 269.2227
3082.228, 267.4405
3084.156, 269.0566
3086.085, 266.9837
3088.013, 268.6621
3089.942, 265.3994
3091.870, 264.6250
3093.799, 264.1229
3095.727, 262.6249
3097.656, 260.9036
3099.584, 258.1926
3101.513, 257.7235
3103.441, 257.3027
3105.370, 256.4573
3107.298, 257.3381
3109.227, 257.0117
3111.155, 259.4276
3113.083, 261.6535
3115.012, 263.4100
3116.940, 262.4447
3118.869, 259.9207
3120.797, 257.9469
3122.726, 256.9313
3124.654, 258.5118
3126.583, 259.9499
3128.511, 258.0351
3130.440, 256.5338
3132.368, 258.3573
3134.297, 259.5644
3136.225, 258.6421
3138.154, 257.4680
3140.082, 256.0063
3142.010, 256.6273
3143.939, 256.2372
3145.867, 256.6104
3147.796, 257.3776
3149.724, 257.0158
3151.653, 258.1607
3153.581, 256.4372
3155.510, 253.9497
3157.438, 254.3565
3159.367, 255.6498
3161.295, 256.8895
3163.224, 257.1080
3165.152, 254.8746
3167.081, 253.0761
3169.009, 252.5043
3170.938, 252.2124
3172.866, 251.7227
3174.794, 252.9295
3176.723, 256.1096
3178.651, 256.8047
3180.580, 255.4054
3182.508, 253.9684
3184.437, 252.9017
3186.365, 253.4559
3188.294, 254.5173
3190.222, 254.9185
3192.151, 254.9385
3194.079, 254.9016
3196.008, 254.2372
3197.936, 252.3582
3199.865, 251.1062
3201.793, 251.1658
3203.721, 250.8367
3205.650, 251.7228
3207.578, 250.9853
3209.507, 254.2397
3211.435, 256.9417
3213.364, 258.2098
3215.292, 253.9622
3217.221, 249.0222
3219.149, 249.2586
3221.078, 251.5746
3223.006, 256.5011
3224.935, 257.8185
3226.863, 251.4289
3228.792, 248.0932
3230.720, 251.4834
3232.648, 252.1038
3234.577, 248.9549
3236.505, 249.4966
3238.434, 252.5770
3240.362, 252.5308
3242.291, 251.0437
3244.219, 251.5163
3246.148, 252.4693
3248.076, 252.8499
3250.005, 252.6118
3251.933, 251.3689
3253.862, 249.9991
3255.790, 248.2430
3257.719, 248.7690
3259.647, 247.8503
3261.575, 248.1481
3263.504, 248.8339
3265.432, 249.4190
3267.361, 252.4892
3269.289, 253.9427
3271.218, 254.0758
3273.146, 251.9359
3275.075, 250.6044
3277.003, 252.7641
3278.932, 254.5655
3280.860, 254.3243
3282.789, 255.2344
3284.717, 257.8001
3286.646, 256.8445
3288.574, 257.2785
3290.502, 253.0459
3292.431, 255.7366
3294.359, 254.4001
3296.288, 252.7779
3298.216, 256.7275
3300.145, 259.2083
3302.073, 255.6636
3304.002, 252.3065
3305.930, 250.6555
3307.859, 250.8569
3309.787, 252.9122
3311.716, 256.1155
3313.644, 259.6362
3315.573, 259.1595
3317.501, 256.4217
3319.429, 253.5305
3321.358, 252.0359
3323.286, 253.6487
3325.215, 256.5765
3327.143, 261.5400
3329.072, 263.2480
3331.000, 259.9645
3332.929, 258.0472
3334.857, 257.9232
3336.786, 256.9489
3338.714, 255.8164
3340.643, 256.5444
3342.571, 257.8805
3344.500, 258.6953
3346.428, 258.7062
3348.356, 257.0767
3350.285, 256.1550
3352.213, 256.9669
3354.142, 257.6537
3356.070, 258.1168
3357.999, 257.4123
3359.927, 256.0004
3361.856, 255.6134
3363.784, 255.8668
3365.713, 256.9467
3367.641, 257.2383
3369.570, 257.1346
3371.498, 257.8158
3373.427, 256.5145
3375.355, 258.7081
3377.283, 258.4327
3379.212, 259.3619
3381.140, 261.0081
3383.069, 261.2333
3384.997, 261.1624
3386.926, 263.3597
3388.854, 264.5013
3390.783, 261.2502
3392.711, 259.6458
3394.640, 263.1026
3396.568, 264.9938
3398.497, 265.1453
3400.425, 266.2471
3402.354, 268.2803
3404.282, 271.3027
3406.210, 274.4974
3408.139, 275.9287
3410.067, 278.5988
3411.996, 285.4306
3413.924, 291.4400
3415.853, 298.3130
3417.781, 306.9909
3419.710, 315.0608
3421.638, 325.9393
3423.567, 336.3261
3425.495, 347.6813
3427.424, 360.0285
3429.352, 372.1607
3431.281, 387.5230
3433.209, 406.4536
3435.137, 431.9923
3437.066, 465.1749
3438.994, 501.5281
3440.923, 539.6223
3442.851, 573.3500
3444.780, 604.5023
3446.708, 633.1780
3448.637, 664.7144
3450.565, 702.0735
3452.494, 744.1490
3454.422, 791.6469
3456.351, 837.9982
3458.279, 882.1398
3460.208, 920.6542
3462.136, 952.7116
3464.064, 977.2596
3465.993, 992.4587
3467.921, 996.0869
3469.850, 989.7604
3471.778, 973.8248
3473.707, 952.7062
3475.635, 926.8245
3477.564, 895.2196
3479.492, 858.2023
3481.421, 816.8069
3483.349, 771.4891
3485.278, 721.3667
3487.206, 668.4913
3489.135, 611.0798
3491.063, 560.3945
3492.991, 518.7291
3494.920, 483.7642
3496.848, 454.6651
3498.777, 428.6935
3500.705, 404.8541
3502.634, 381.5260
3504.562, 360.8181
3506.491, 343.2118
3508.419, 330.3144
3510.348, 322.5109
3512.276, 314.9565
3514.205, 307.8327
3516.133, 302.5672
3518.062, 299.0923
3519.990, 298.1973
3521.918, 297.3770
3523.847, 295.0097
3525.775, 293.0905
3527.704, 291.8890
3529.632, 290.1883
3531.561, 288.2621
3533.489, 287.6240
3535.418, 287.7083
3537.346, 289.0557
3539.275, 288.3509
3541.203, 288.7588
3543.132, 288.0575
3545.060, 286.9701
3546.989, 286.8814
3548.917, 286.1111
3550.845, 283.1265
3552.774, 284.8530
3554.702, 282.5540
3556.631, 281.1729
3558.559, 283.0122
3560.488, 282.4555
3562.416, 278.5430
3564.345, 276.8723
3566.273, 276.3942
3568.202, 274.5286
3570.130, 272.6828
3572.059, 272.0512
3573.987, 271.7637
3575.916, 271.7582
3577.844, 271.4124
3579.772, 270.6460
3581.701, 268.6671
3583.629, 266.0426
3585.558, 263.2974
3587.486, 260.7604
3589.415, 259.5954
3591.343, 257.1308
3593.272, 258.1128
3595.200, 258.8159
3597.129, 259.0126
3599.057, 257.3404
3600.986, 256.2324
3602.914, 259.2576
3604.843, 261.3411
3606.771, 259.8531
3608.699, 258.1479
3610.628, 256.4660
3612.556, 255.8829
3614.485, 256.1423
3616.413, 257.3206
3618.342, 258.3025
3620.270, 257.8973
3622.199, 258.5356
3624.127, 258.4091
3626.056, 260.2414
3627.984, 258.2925
3629.913, 259.2499
3631.841, 259.7541
3633.770, 255.3792
3635.698, 252.8764
3637.626, 254.8786
3639.555, 256.1922
3641.483, 256.5855
3643.412, 257.0819
3645.340, 257.3057
3647.269, 256.1950
3649.197, 255.5630
3651.126, 256.8293
3653.054, 257.4815
3654.983, 257.3386
3656.911, 257.4483
3658.840, 257.3569
3660.768, 255.2237
3662.697, 253.6396
3664.625, 255.4407
3666.553, 255.2365
3668.482, 252.2512
3670.410, 251.5132
3672.339, 252.3158
3674.267, 251.4059
3676.196, 251.5238
3678.124, 252.2740
3680.053, 252.2451
3681.981, 253.9945
3683.910, 252.2957
3685.838, 253.3346
3687.767, 251.2446
3689.695, 249.8128
3691.624, 254.6834
3693.552, 256.6004
3695.480, 252.4121
3697.409, 251.6947
3699.337, 254.4300
3701.266, 257.1881
3703.194, 258.5880
3705.123, 256.4118
3707.051, 254.2346
3708.980, 252.9547
3710.908, 253.3776
3712.837, 255.3420
3714.765, 258.0875
3716.694, 259.8981
3718.622, 258.2967
3720.551, 256.2921
3722.479, 254.6413
3724.407, 254.7253
3726.336, 253.1150
3728.264, 254.3393
3730.193, 252.2032
3732.121, 253.4438
3734.050, 254.8312
3735.978, 255.1330
3737.907, 256.3298
3739.835, 257.9195
3741.764, 254.6906
3743.692, 251.2690
3745.621, 253.6204
3747.549, 256.2195
3749.478, 257.5466
3751.406, 256.8272
3753.334, 258.1651
3755.263, 256.3914
3757.191, 258.1944
3759.120, 255.9701
3761.048, 255.1695
3762.977, 257.9929
3764.905, 257.4855
3766.834, 254.4531
3768.762, 252.8221
3770.691, 252.2233
3772.619, 252.7339
3774.548, 252.6236
3776.476, 251.1465
3778.405, 254.1711
3780.333, 254.3974
3782.261, 258.4073
3784.190, 256.9404
3786.118, 259.1539
3788.047, 258.8415
3789.975, 255.1247
3791.904, 253.3861
3793.832, 253.5103
3795.761, 257.1144
3797.689, 258.5600
3799.618, 253.6354
3801.546, 250.9801
3803.475, 251.2243
3805.403, 253.5715
3807.332, 256.4527
3809.260, 258.4353
3811.188, 259.0607
3813.117, 257.9659
3815.045, 255.3883
3816.974, 252.6232
3818.902, 256.5854
3820.831, 260.9057
3822.759, 259.4008
3824.688, 257.3842
3826.616, 255.7123
3828.545, 256.5000
3830.473, 258.2892
3832.402, 257.9502
3834.330, 256.9554
3836.259, 255.7502
3838.187, 255.7175
3840.115, 257.0452
3842.044, 260.8512
3843.972, 263.8117
3845.901, 260.6454
3847.829, 257.9273
3849.758, 257.4688
3851.686, 257.5157
3853.615, 257.9167
3855.543, 258.4825
3857.472, 260.2715
3859.400, 260.7647
3861.329, 262.0519
3863.257, 262.3267
3865.186, 263.6801
3867.114, 262.2395
3869.042, 262.2110
3870.971, 261.5020
3872.899, 258.9569
3874.828, 259.6596
3876.756, 262.0713
3878.685, 260.6047
3880.613, 259.7717
3882.542, 263.5011
3884.470, 263.5847
3886.399, 259.4586
3888.327, 259.0573
3890.256, 260.4113
3892.184, 260.7075
3894.113, 260.5303
3896.041, 260.9407
3897.969, 261.1484
3899.898, 260.2115
3901.826, 258.5037
3903.755, 258.8970
3905.683, 258.5749
3907.612, 263.0219
3909.540, 259.8574
3911.469, 261.0917
3913.397, 262.9508
3915.326, 260.8320
3917.254, 258.4847
3919.183, 256.9250
3921.111, 257.8377
3923.040, 260.0374
3924.968, 261.5632
3926.896, 262.5421
3928.825, 263.7325
3930.753, 262.7837
3932.682, 264.4022
3934.610, 264.8745
3936.539, 263.5350
3938.467, 260.6788
3940.396, 261.2672
3942.324, 262.0632
3944.253, 264.1176
3946.181, 266.6924
3948.110, 264.1554
3950.038, 263.0757
3951.967, 265.1535
3953.895, 263.8919
3955.823, 261.6850
3957.752, 260.9744
3959.680, 260.7578
3961.609, 259.4074
3963.537, 260.6924
3965.466, 258.3781
3967.394, 258.2820
3969.323, 258.8289
3971.251, 260.9145
3973.180, 261.3720
3975.108, 261.4402
3977.037, 262.1855
3978.965, 260.5491
3980.894, 261.6811
3982.822, 260.6307
3984.750, 258.7949
3986.679, 258.4747
3988.607, 259.4477
3990.536, 260.6485
3992.464, 261.7191
3994.393, 262.8351
3996.321, 261.4953
3998.250, 260.7767
4000.178, 264.6303
4002.107, 265.4437
4004.035, 262.1725
4005.964, 260.7690
4007.892, 260.4064
4009.821, 261.8933
4011.749, 262.2532
4013.677, 260.3660
4015.606, 258.9156
4017.534, 258.0691
4019.463, 258.9700
4021.391, 260.6675
4023.320, 262.1841
4025.248, 262.4089
4027.177, 262.3222
4029.105, 263.4332
4031.034, 263.8162
4032.962, 262.9459
4034.891, 264.0088
4036.819, 264.8180
4038.748, 261.9768
4040.676, 260.2206
4042.604, 260.2285
4044.533, 260.7026
4046.461, 260.9564
4048.390, 261.6117
4050.318, 263.7146
4052.247, 262.5171
4054.175, 263.3295
4056.104, 260.9180
4058.032, 262.5709
4059.961, 262.6013
4061.889, 260.9916
4063.818, 260.6946
4065.746, 261.1717
4067.675, 262.1581
4069.603, 263.0810
4071.531, 261.8842
4073.460, 261.2217
4075.388, 263.0410
4077.317, 263.4349
4079.245, 262.3447
4081.174, 262.1617
4083.102, 264.5542
4085.031, 267.0571
4086.959, 266.1546
4088.888, 263.7748
4090.816, 260.0750
4092.745, 258.8951
4094.673, 260.4219
4096.602, 260.8095
4098.530, 261.5103
4100.458, 261.9413
4102.387, 262.3789
4104.315, 262.5379
4106.244, 262.7931
4108.172, 263.6365
4110.101, 263.0158
4112.029, 262.2058
4113.958, 261.9203
4115.886, 263.3318
4117.814, 264.5874
4119.743, 264.2142
4121.671, 262.5143
4123.600, 260.1209
4125.528, 261.6452
4127.457, 263.1925
4129.385, 260.5984
4131.314, 260.7446
4133.242, 263.2474
4135.171, 261.6635
4137.099, 260.3473
4139.028, 263.1029
4140.956, 265.9167
4142.885, 267.7015
4144.813, 263.8840
4146.742, 260.5027
4148.670, 262.6626
4150.599, 263.2097
4152.527, 261.9277
4154.456, 264.4655
4156.384, 266.7618
4158.313, 265.0775
4160.241, 264.7788
4162.169, 266.2885
4164.098, 267.1651
4166.026, 267.8917
4167.955, 268.5485
4169.883, 269.1573
4171.812, 269.1219
4173.740, 269.3650
4175.668, 268.6051
4177.597, 268.4861
4179.525, 267.8266
4181.454, 267.0270
4183.382, 267.0544
4185.311, 266.6505
4187.239, 266.4437
4189.168, 264.2141
4191.096, 261.2664
4193.025, 261.8101
4194.953, 264.3617
4196.882, 263.9627
4198.810, 270.2738
4200.739, 266.9429
4202.667, 269.7517
4204.596, 271.7960
4206.524, 270.0031
4208.453, 268.7814
4210.381, 268.3163
4212.310, 269.7150
4214.238, 269.7422
4216.167, 267.3424
4218.095, 265.0844
4220.023, 263.7417
4221.952, 265.4549
4223.880, 266.6595
4225.809, 266.4963
4227.737, 264.2687
4229.666, 263.2606
4231.594, 270.3822
4233.522, 272.7348
4235.451, 268.4957
4237.379, 267.5925
4239.308, 268.8731
4241.236, 272.1724
4243.165, 272.2722
4245.093, 269.1855
4247.022, 268.9260
4248.950, 269.5234
4250.879, 270.0908
4252.807, 267.9033
4254.736, 264.3259
4256.664, 265.8514
4258.593, 269.0257
4260.521, 272.8842
4262.450, 271.3278
4264.378, 272.5854
4266.307, 268.6830
4268.235, 269.9780
4270.164, 269.7921
4272.092, 266.5893
4274.021, 264.4030
4275.949, 265.4037
4277.877, 264.7982
4279.806, 267.4850
4281.734, 267.1466
4283.663, 268.6703
4285.591, 270.1415
4287.520, 271.2816
4289.448, 272.1077
4291.376, 272.7060
4293.305, 273.2238
4295.233, 273.8242
4297.162, 273.2836
4299.090, 272.0571
4301.019, 270.5724
4302.947, 270.5283
4304.876, 272.3344
4306.804, 272.2804
4308.733, 272.5315
4310.661, 276.8663
4312.590, 277.7166
4314.518, 274.6109
4316.447, 270.6724
4318.375, 267.6884
4320.304, 266.4937
4322.232, 268.6227
4324.161, 272.1107
4326.089, 271.0763
4328.018, 271.2368
4329.946, 274.2820
4331.875, 274.9842
4333.803, 274.5703
4335.731, 274.7633
4337.660, 274.8456
4339.588, 274.8119
4341.517, 274.8759
4343.445, 276.0616
4345.374, 280.0478
4347.302, 277.7064
4349.230, 272.6444
4351.159, 274.4093
4353.087, 277.2503
4355.016, 279.4263
4356.944, 276.5002
4358.873, 273.8492
4360.801, 279.4671
4362.730, 280.2291
4364.658, 276.4296
4366.587, 277.9755
4368.515, 279.5789
4370.444, 277.4817
4372.372, 279.3897
4374.301, 277.4300
4376.229, 277.5437
4378.158, 274.0925
4380.086, 272.9860
4382.015, 271.4726
4383.943, 270.3647
4385.872, 270.5000
4387.800, 270.2208
4389.729, 271.8778
4391.657, 273.7201
4393.585, 275.9492
4395.514, 278.5236
4397.442, 276.4195
4399.371, 274.7909
4401.299, 279.3165
4403.228, 279.6689
4405.156, 276.8476
4407.084, 278.2980
4409.013, 277.9593
4410.941, 273.7369
4412.870, 274.3091
4414.798, 276.7170
4416.727, 277.8080
4418.655, 277.3505
4420.584, 276.1600
4422.512, 278.3005
4424.441, 279.2816
4426.369, 276.1416
4428.298, 275.8453
4430.226, 277.1487
4432.155, 279.2354
4434.083, 280.1093
4436.012, 279.5960
4437.940, 277.3367
4439.869, 275.6938
4441.797, 275.5841
4443.726, 274.5638
4445.654, 273.3931
4447.583, 274.9651
4449.511, 272.8358
4451.439, 274.4518
4453.368, 278.0551
4455.296, 277.7037
4457.225, 278.6555
4459.153, 280.2768
4461.082, 277.1229
4463.010, 279.7426
4464.938, 276.7221
4466.867, 270.5356
4468.795, 271.6948
4470.724, 273.1755
4472.652, 272.4763
4474.581, 272.1425
4476.509, 273.0687
4478.438, 276.9786
4480.366, 275.6653
4482.295, 277.7911
4484.223, 275.8088
4486.152, 278.9106
4488.080, 279.3491
4490.009, 278.1427
4491.937, 276.5562
4493.866, 275.5497
4495.794, 273.3460
4497.723, 271.9489
4499.651, 276.7610
4501.580, 278.4876
4503.508, 276.2706
4505.437, 275.5482
4507.365, 277.0575
4509.293, 275.9109
4511.222, 275.6540
4513.150, 276.4775
4515.079, 275.0475
4517.007, 275.8823
4518.936, 277.4917
4520.864, 275.2285
4522.792, 274.3826
4524.721, 276.5231
4526.649, 277.6147
4528.578, 277.1449
4530.506, 273.2354
4532.435, 276.8799
4534.363, 281.5025
4536.292, 274.3722
4538.220, 271.7989
4540.149, 274.5497
4542.077, 273.3095
4544.006, 274.7678
4545.934, 275.9854
4547.863, 276.5722
4549.791, 278.7809
4551.720, 279.1240
4553.648, 281.3097
4555.577, 282.6133
4557.505, 282.4320
4559.434, 281.1721
4561.362, 281.0533
4563.291, 277.5951
4565.219, 274.5037
4567.147, 275.3964
4569.076, 274.9686
4571.004, 273.8609
4572.933, 275.0590
4574.861, 273.4190
4576.790, 276.6682
4578.718, 278.6755
4580.646, 279.9853
4582.575, 280.4298
4584.503, 278.2569
4586.432, 275.2178
4588.360, 272.1765
4590.289, 273.8716
4592.217, 277.0778
4594.146, 280.0073
4596.074, 279.2947
4598.003, 277.1862
4599.931, 277.8476
4601.860, 275.4758
4603.788, 275.2141
4605.717, 273.4881
4607.645, 274.9712
4609.574, 274.8042
4611.502, 276.6706
4613.431, 277.5839
4615.359, 275.7443
4617.288, 277.0589
4619.216, 278.4899
4621.145, 276.5287
4623.073, 275.0977
4625.001, 274.6319
4626.930, 276.3949
4628.858, 274.2561
4630.787, 270.1014
4632.715, 275.3279
4634.644, 276.8300
4636.572, 271.2857
4638.500, 274.1426
4640.429, 277.6543
4642.357, 277.6028
4644.286, 276.5572
4646.214, 275.1716
4648.143, 273.6475
4650.071, 273.9310
4652.000, 275.7573
4653.928, 275.3816
4655.857, 275.8851
4657.785, 276.1512
4659.714, 275.3106
4661.642, 274.1521
4663.571, 272.3813
4665.499, 273.8355
4667.428, 275.6675
4669.356, 276.6978
4671.285, 276.2685
4673.213, 276.3457
4675.142, 279.5308
4677.070, 276.1989
4678.999, 270.8902
4680.927, 267.6955
4682.855, 272.6256
4684.784, 279.8645
4686.712, 278.4480
4688.641, 275.0430
4690.569, 272.5743
4692.498, 279.5944
4694.426, 281.9739
4696.354, 277.5783
4698.283, 275.0243
4700.211, 274.9926
4702.140, 272.6044
4704.068, 273.7983
4705.997, 271.2840
4707.925, 274.5779
4709.854, 274.9488
4711.782, 273.1823
4713.711, 275.3446
4715.639, 271.9897
4717.568, 275.7158
4719.496, 272.4301
4721.425, 270.4089
4723.353, 269.9947
4725.282, 269.9955
4727.210, 273.5640
4729.139, 278.1841
4731.067, 274.3908
4732.996, 270.3019
4734.924, 268.6295
4736.853, 275.0649
4738.781, 277.9007
4740.709, 273.9554
4742.638, 272.3422
4744.566, 270.7868
4746.495, 268.5669
4748.423, 267.9566
4750.352, 268.6736
4752.280, 268.0974
4754.208, 270.6851
4756.137, 274.4076
4758.065, 273.6453
4759.994, 273.6703
4761.922, 274.0178
4763.851, 273.5084
4765.779, 274.0884
4767.708, 275.0226
4769.636, 275.2957
4771.565, 274.1333
4773.493, 272.4343
4775.422, 271.3748
4777.350, 272.9872
4779.279, 271.4073
4781.207, 272.9554
4783.136, 270.7666
4785.064, 269.7124
4786.993, 269.8686
4788.921, 268.3386
4790.850, 266.0381
4792.778, 272.7890
4794.707, 275.9111
4796.635, 273.3132
4798.563, 275.1436
4800.492, 276.2872
4802.420, 274.8856
4804.349, 275.2224
4806.277, 276.3624
4808.206, 273.2172
4810.134, 276.3773
4812.063, 275.4353
4813.991, 269.9074
4815.919, 267.9240
4817.848, 269.6850
4819.776, 275.3813
4821.705, 278.2373
4823.633, 277.8146
4825.562, 273.8167
4827.490, 273.3872
4829.419, 274.1689
4831.347, 274.5756
4833.276, 273.8527
4835.204, 274.8030
4837.133, 272.1315
4839.061, 273.9799
4840.990, 272.4204
4842.918, 268.0345
4844.847, 271.3786
4846.775, 273.9932
4848.704, 266.5514
4850.632, 264.7467
4852.561, 266.3580
4854.489, 268.4941
4856.417, 269.0470
4858.346, 269.4044
4860.274, 271.6652
4862.203, 271.0074
4864.131, 268.3745
4866.060, 269.6390
4867.988, 266.2092
4869.917, 269.8266
4871.845, 269.5654
4873.773, 270.8939
4875.702, 271.5052
4877.630, 267.5942
4879.559, 266.9318
4881.487, 268.3024
4883.416, 270.7641
4885.344, 267.5125
4887.273, 264.3096
4889.201, 268.6450
4891.130, 271.8482
4893.058, 273.1419
4894.987, 272.4812
4896.915, 270.0307
4898.844, 268.2519
4900.772, 269.8869
4902.701, 271.5721
4904.629, 271.7191
4906.558, 272.5453
4908.486, 273.6417
4910.415, 272.0439
4912.343, 274.2708
4914.271, 272.4126
4916.200, 269.7455
4918.128, 269.3611
4920.057, 268.1621
4921.985, 270.9090
4923.914, 268.0129
4925.842, 269.7609
4927.771, 271.4271
4929.699, 269.0096
4931.627, 269.6110
4933.556, 270.4831
4935.484, 269.7957
4937.413, 269.4035
4939.341, 269.4001
4941.270, 269.7593
4943.198, 269.1725
4945.127, 269.1668
4947.055, 270.5020
4948.984, 266.0688
4950.912, 265.5084
4952.841, 270.9558
4954.769, 269.3727
4956.698, 266.1782
4958.626, 263.3630
4960.555, 264.5039
4962.483, 258.0577
4964.412, 266.6286
4966.340, 270.3586
4968.269, 270.6393
4970.197, 268.8666
4972.125, 268.3030
4974.054, 268.2784
4975.982, 267.4580
4977.911, 266.9997
4979.839, 266.8272
4981.768, 266.0457
4983.696, 266.5157
4985.625, 266.7774
4987.553, 266.9445
4989.481, 266.4170
4991.410, 265.9710
4993.338, 266.4551
4995.267, 269.3344
4997.195, 270.5789
4999.124, 268.7308
5001.052, 262.1918
5002.981, 263.2675
5004.909, 265.2621
5006.838, 263.8346
5008.766, 267.1591
5010.695, 268.5915
5012.623, 264.9615
5014.552, 263.3861
5016.480, 263.4807
5018.409, 264.5235
5020.337, 263.4487
5022.266, 263.5097
5024.194, 264.9075
5026.123, 265.1602
5028.051, 265.9729
5029.979, 265.9669
5031.908, 266.3700
5033.836, 266.9810
5035.765, 266.0938
5037.693, 267.5799
5039.622, 265.9490
5041.550, 264.9144
5043.479, 264.9680
5045.407, 264.0153
5047.335, 263.8636
5049.264, 263.3827
5051.192, 262.8332
5053.121, 262.6044
5055.049, 262.9315
5056.978, 262.6707
5058.906, 262.3803
5060.835, 263.0116
5062.763, 261.9533
5064.692, 262.5551
5066.620, 263.2280
5068.549, 263.3826
5070.477, 259.9561
5072.406, 264.2714
5074.334, 261.4488
5076.263, 260.5983
5078.191, 262.2973
5080.120, 261.6403
5082.048, 262.0861
5083.977, 262.9910
5085.905, 263.2396
5087.833, 262.5989
5089.762, 264.4329
5091.690, 263.1135
5093.619, 262.7340
5095.547, 260.4504
5097.476, 261.2141
5099.404, 257.6768
5101.333, 261.1542
5103.261, 265.8625
5105.189, 261.4834
5107.118, 262.1761
5109.046, 262.7743
5110.975, 257.4244
5112.903, 258.7725
5114.832, 260.5030
5116.760, 260.2628
5118.689, 261.7403
5120.617, 262.7260
5122.546, 262.3617
5124.474, 259.0502
5126.403, 257.8588
5128.331, 258.9012
5130.260, 261.4560
5132.188, 261.4615
5134.117, 261.1582
5136.045, 262.8649
5137.974, 260.7527
5139.902, 260.6134
5141.831, 260.2495
5143.759, 260.9371
5145.688, 258.6974
5147.616, 259.4595
5149.544, 258.4178
5151.473, 259.0658
5153.401, 260.3591
5155.330, 260.8451
5157.258, 263.1435
5159.187, 263.8149
5161.115, 260.8344
5163.043, 260.3127
5164.972, 262.1306
5166.900, 264.8072
5168.829, 260.3416
5170.757, 261.1394
5172.686, 264.6073
5174.614, 259.4771
5176.543, 260.6716
5178.471, 262.1522
5180.400, 256.7818
5182.328, 259.0531
5184.257, 262.8280
5186.185, 264.5834
5188.114, 262.8867
5190.042, 261.6284
5191.971, 261.2687
5193.899, 260.1669
5195.828, 262.0199
5197.756, 264.2841
5199.685, 264.1574
5201.613, 258.7365
5203.542, 254.8855
5205.470, 256.0706
5207.398, 264.2829
5209.327, 264.5033
5211.255, 258.7167
5213.184, 260.7322
5215.112, 258.6367
5217.041, 257.0421
5218.969, 263.7634
5220.897, 260.4360
5222.826, 258.3551
5224.754, 261.3130
5226.683, 257.9902
5228.611, 259.2187
5230.540, 263.3862
5232.468, 261.8659
5234.397, 261.9980
5236.325, 262.4371
5238.254, 261.5258
5240.182, 260.8073
5242.111, 259.6148
5244.039, 258.7037
5245.968, 263.0532
5247.896, 264.7763
5249.825, 263.8864
5251.753, 262.1524
5253.682, 259.6005
5255.610, 258.5357
5257.539, 259.8311
5259.467, 257.1644
5261.396, 260.7469
5263.324, 258.3992
5265.252, 260.9556
5267.181, 255.4734
5269.109, 253.9514
5271.038, 251.8395
5272.966, 254.0368
5274.895, 252.5618
5276.823, 256.7000
5278.751, 258.8346
5280.680, 257.4647
5282.608, 255.7655
5284.537, 258.8787
5286.465, 259.3444
5288.394, 256.9173
5290.322, 252.5479
5292.251, 254.0233
5294.179, 253.9333
5296.108, 253.3868
5298.036, 257.3796
5299.965, 258.5816
5301.893, 257.6403
5303.822, 255.5263
5305.750, 258.8103
5307.679, 258.5875
5309.607, 256.1024
5311.536, 259.2423
5313.464, 255.7678
5315.393, 252.7216
5317.321, 255.7728
5319.250, 255.8200
5321.178, 255.2480
5323.106, 254.3913
5325.035, 251.3201
5326.963, 252.8152
5328.892, 254.3783
5330.820, 252.2617
5332.749, 249.5263
5334.677, 249.4940
5336.605, 251.9834
5338.534, 254.4383
5340.462, 256.7659
5342.391, 257.8690
5344.319, 256.9193
5346.248, 253.2834
5348.176, 249.8280
5350.105, 248.5537
5352.033, 253.3741
5353.962, 250.6330
5355.890, 248.7050
5357.819, 254.4945
5359.747, 249.5352
5361.676, 245.5642
5363.604, 246.4463
5365.533, 254.2041
5367.461, 250.9580
5369.390, 249.9434
5371.318, 257.9586
5373.247, 253.3396
5375.175, 252.8714
5377.104, 254.5618
5379.032, 247.1169
5380.960, 244.2949
5382.889, 246.7225
5384.817, 252.2387
5386.746, 248.8057
5388.674, 249.0874
5390.603, 251.2410
5392.531, 250.5063
5394.459, 254.4100
5396.388, 256.0668
5398.316, 253.3112
5400.245, 247.1397
5402.173, 244.9518
5404.102, 247.5293
5406.030, 253.6835
5407.959, 249.9371
5409.887, 248.5112
5411.816, 250.0357
5413.744, 248.3680
5415.673, 248.5620
5417.601, 250.4159
5419.530, 252.8691
5421.458, 249.8215
5423.387, 247.2775
5425.315, 246.7367
5427.244, 248.4331
5429.172, 248.6450
5431.101, 248.3739
5433.029, 247.8090
5434.958, 245.1991
5436.886, 247.5357
5438.814, 250.8562
5440.743, 252.0220
5442.671, 248.8034
5444.600, 245.6935
5446.528, 244.6168
5448.457, 246.6425
5450.385, 249.4288
5452.313, 249.5948
5454.242, 247.4881
5456.170, 248.9042
5458.099, 243.0329
5460.027, 239.4078
5461.956, 244.1393
5463.884, 243.8493
5465.813, 243.7941
5467.741, 244.8418
5469.670, 246.5664
5471.598, 247.9645
5473.527, 249.0892
5475.455, 249.9198
5477.384, 251.2517
5479.312, 249.6408
5481.241, 248.3948
5483.169, 245.3821
5485.098, 243.6784
5487.026, 240.2879
5488.955, 238.4360
5490.883, 240.5603
5492.812, 245.6993
5494.740, 247.2099
5496.668, 245.2441
5498.597, 242.7220
5500.525, 240.8025
5502.454, 241.7376
5504.382, 244.8627
5506.311, 245.6656
5508.239, 240.5775
5510.167, 237.6478
5512.096, 240.9775
5514.024, 239.6116
5515.953, 240.4498
5517.881, 241.4998
5519.810, 239.6656
5521.738, 236.4667
5523.667, 236.2488
5525.595, 238.3604
5527.524, 240.5865
5529.452, 237.9045
5531.381, 237.6248
5533.309, 239.6985
5535.238, 236.6038
5537.166, 235.4322
5539.095, 237.6786
5541.023, 241.3473
5542.952, 235.6193
5544.880, 237.6635
5546.809, 239.4449
5548.737, 234.4958
5550.666, 233.3149
5552.594, 234.5035
5554.522, 236.0165
5556.451, 236.1479
5558.379, 238.3721
5560.308, 240.5206
5562.236, 241.0933
5564.165, 238.9947
5566.093, 235.2520
5568.021, 235.0747
5569.950, 237.3396
5571.878, 237.0976
5573.807, 237.6452
5575.735, 237.7876
5577.664, 236.6246
5579.592, 238.2377
5581.521, 237.8875
5583.449, 240.9737
5585.378, 236.6356
5587.306, 238.3377
5589.235, 234.6677
5591.163, 233.2762
5593.092, 237.3844
5595.020, 238.5805
5596.949, 235.8234
5598.877, 234.3831
5600.806, 236.6302
5602.734, 231.5412
5604.663, 231.5038
5606.591, 232.9379
5608.520, 231.6088
5610.448, 229.2662
5612.376, 229.6701
5614.305, 231.3952
5616.233, 232.5936
5618.162, 234.6193
5620.090, 233.5706
5622.019, 231.8089
5623.947, 232.1210
5625.875, 232.8073
5627.804, 230.2692
5629.732, 228.5056
5631.661, 232.6026
5633.589, 233.1078
5635.518, 230.0049
5637.446, 228.4901
5639.375, 228.8732
5641.303, 231.0194
5643.232, 229.5678
5645.160, 230.3212
5647.089, 231.3053
5649.017, 231.1457
5650.946, 226.7757
5652.874, 223.5984
5654.803, 227.5587
5656.731, 226.5122
5658.660, 227.4533
5660.588, 229.7675
5662.517, 230.5297
5664.445, 228.8051
5666.374, 235.1115
5668.302, 225.2728
5670.230, 226.2283
5672.159, 227.2515
5674.087, 229.1487
5676.016, 229.9617
5677.944, 228.0528
5679.873, 226.6603
5681.801, 226.7355
5683.729, 227.8722
5685.658, 229.3505
5687.586, 229.4019
5689.515, 226.7086
5691.443, 225.0139
5693.372, 226.7520
5695.300, 227.9312
5697.229, 226.4228
5699.157, 224.8388
5701.086, 224.7905
5703.014, 224.6812
5704.943, 220.5604
5706.871, 221.0563
5708.800, 220.5581
5710.728, 227.2925
5712.657, 223.0585
5714.585, 224.4259
5716.514, 229.6972
5718.442, 221.9955
5720.371, 217.3613
5722.299, 217.5847
5724.228, 221.0482
5726.156, 224.4756
5728.084, 226.9761
5730.013, 226.2921
5731.941, 224.2051
5733.870, 224.3432
5735.798, 225.6633
5737.727, 227.3518
5739.655, 225.0870
5741.583, 224.6114
5743.512, 219.0483
5745.440, 220.8476
5747.369, 220.5533
5749.297, 219.7123
5751.226, 219.9066
5753.154, 217.1175
5755.083, 217.0190
5757.011, 220.6708
5758.940, 217.1718
5760.868, 219.0437
5762.797, 220.0943
5764.725, 218.6393
5766.654, 217.1225
5768.582, 217.4824
5770.511, 217.4011
5772.439, 215.9902
5774.368, 218.7535
5776.296, 216.2168
5778.225, 216.1932
5780.153, 216.0482
5782.082, 213.2060
5784.010, 216.7010
5785.938, 222.6063
5787.867, 221.0655
5789.795, 221.9217
5791.724, 221.8344
5793.652, 219.1164
5795.581, 215.8708
5797.509, 215.7628
5799.438, 215.5761
5801.366, 212.2236
5803.294, 212.4544
5805.223, 214.4540
5807.151, 214.3551
5809.080, 211.9828
5811.008, 215.5792
5812.937, 217.8694
5814.865, 214.4896
5816.794, 208.6999
5818.722, 211.6115
5820.651, 213.7225
5822.579, 213.3324
5824.508, 214.6447
5826.436, 211.1268
5828.365, 211.5386
5830.293, 213.0942
5832.222, 211.7777
5834.150, 212.4740
5836.079, 208.3376
5838.007, 207.9817
5839.936, 212.0753
5841.864, 207.2817
5843.792, 209.0395
5845.721, 212.5587
5847.649, 212.7696
5849.578, 206.1304
5851.506, 208.9713
5853.435, 208.8140
5855.363, 209.1766
5857.292, 212.7006
5859.220, 215.5520
5861.148, 210.6547
5863.077, 207.1072
5865.005, 207.5204
5866.934, 210.0433
5868.862, 209.4987
5870.791, 212.1065
5872.719, 212.3652
5874.648, 212.7984
5876.576, 214.2547
5878.505, 212.9153
5880.433, 214.6905
5882.362, 213.6659
5884.290, 210.8460
5886.219, 208.1213
5888.147, 203.4202
5890.076, 202.7663
5892.004, 207.2966
5893.933, 203.1062
5895.861, 208.2804
5897.790, 208.5376
5899.718, 205.3747
5901.646, 208.5330
5903.575, 209.5821
5905.503, 208.8428
5907.432, 208.1999
5909.360, 207.7450
5911.289, 203.8223
5913.217, 202.3306
5915.146, 201.1418
5917.074, 201.2470
5919.002, 200.4928
5920.931, 201.2655
5922.859, 200.7722
5924.788, 202.7216
5926.716, 204.1450
5928.645, 200.6284
5930.573, 201.5605
5932.502, 204.2598
5934.430, 203.9987
5936.359, 200.7327
5938.287, 205.4872
5940.216, 199.5297
5942.144, 198.0023
5944.073, 199.8790
5946.001, 198.2156
5947.930, 202.5035
5949.858, 203.4663
5951.787, 201.4209
5953.715, 199.5013
5955.644, 201.2079
5957.572, 202.2605
5959.500, 198.4408
5961.429, 199.4127
5963.357, 207.7046
5965.286, 207.9027
5967.214, 207.9727
5969.143, 211.8623
5971.071, 212.9572
5973.000, 206.8530
5974.928, 211.9073
5976.856, 216.3838
5978.785, 225.1528
5980.713, 230.9721
5982.642, 221.3661
5984.570, 219.2846
5986.499, 216.0731
5988.427, 210.6675
5990.356, 205.6843
5992.284, 205.8990
5994.213, 199.5107
5996.141, 199.2226
5998.070, 191.3065
5999.998, 190.0199
6001.927, 187.9012
6003.855, 194.9952
6005.784, 197.3376
6007.712, 194.8870
6009.641, 192.7438
6011.569, 198.2990
6013.498, 196.9010
6015.426, 193.8324
6017.354, 192.2623
6019.283, 192.7130
6021.211, 192.7253
6023.140, 191.4462
6025.068, 190.0597
6026.997, 190.4266
6028.925, 193.1510
6030.854, 194.9417
6032.782, 193.9783
6034.710, 188.4310
6036.639, 192.7135
6038.567, 193.4436
6040.496, 194.4865
6042.424, 197.0535
6044.353, 191.9109
6046.281, 186.1967
6048.210, 188.5240
6050.138, 187.9768
6052.067, 188.0390
6053.995, 185.8446
6055.924, 186.0631
6057.852, 186.0724
6059.781, 186.4230
6061.709, 187.4723
6063.638, 189.3271
6065.566, 191.3082
6067.495, 194.2937
6069.423, 192.5361
6071.352, 194.1856
6073.280, 189.5500
6075.208, 186.0816
6077.137, 190.2038
6079.065, 186.0687
6080.994, 184.4840
6082.922, 185.8967
6084.851, 185.4765
6086.779, 182.7490
6088.708, 189.1435
6090.636, 189.5630
6092.564, 189.1647
6094.493, 185.5004
6096.421, 186.2689
6098.350, 184.2647
6100.278, 184.5976
6102.207, 183.4967
6104.135, 181.4563
6106.064, 180.8178
6107.992, 179.5605
6109.921, 179.7562
6111.849, 178.1386
6113.778, 179.7740
6115.706, 180.3157
6117.635, 178.0700
6119.563, 184.7884
6121.492, 182.8011
6123.420, 182.2051
6125.349, 182.0579
6127.277, 181.6959
6129.206, 182.5453
6131.134, 182.2452
6133.063, 184.1692
6134.991, 184.4830
6136.919, 184.2319
6138.848, 183.6475
6140.776, 182.3923
6142.705, 180.2149
6144.633, 180.2329
6146.562, 177.4731
6148.490, 178.9336
6150.418, 177.4409
6152.347, 175.7561
6154.275, 177.3408
6156.204, 176.5961
6158.132, 179.3102
6160.061, 176.7742
6161.989, 177.1507
6163.918, 176.2960
6165.846, 174.2571
6167.775, 173.3495
6169.703, 175.7375
6171.632, 175.2666
6173.560, 175.9683
6175.489, 178.5212
6177.417, 178.3160
6179.346, 171.4589
6181.274, 177.2285
6183.203, 174.1353
6185.131, 171.2141
6187.060, 173.1144
6188.988, 176.0681
6190.917, 169.0098
6192.845, 171.5329
6194.773, 172.1684
6196.702, 170.5492
6198.630, 169.7832
6200.559, 171.3076
6202.487, 169.1486
6204.416, 170.2744
6206.344, 174.0620
6208.272, 174.1519
6210.201, 170.3837
6212.129, 174.8331
6214.058, 168.3089
6215.986, 172.4901
6217.915, 175.5463
6219.843, 173.6347
6221.772, 171.9882
6223.700, 168.9010
6225.629, 165.6853
6227.557, 169.2310
6229.486, 171.1811
6231.414, 167.9431
6233.343, 166.2355
6235.271, 167.7259
6237.200, 164.1057
6239.128, 165.3185
6241.057, 165.5951
6242.985, 160.2260
6244.914, 161.9322
6246.842, 164.9940
6248.771, 164.6795
6250.699, 163.8481
6252.627, 165.5378
6254.556, 165.1363
6256.484, 164.8969
6258.413, 165.8456
6260.341, 163.9519
6262.270, 163.8590
6264.198, 163.1756
6266.126, 162.8059
6268.055, 163.9718
6269.983, 163.0845
6271.912, 163.4870
6273.840, 164.3568
6275.769, 163.3513
6277.697, 163.8112
6279.626, 161.9510
6281.554, 162.2954
6283.483, 159.6940
6285.411, 160.7378
6287.340, 160.2474
6289.268, 158.7313
6291.197, 160.4011
6293.125, 161.8048
6295.054, 161.7009
6296.982, 162.8082
6298.911, 161.4639
6300.839, 160.1263
6302.768, 157.1334
6304.696, 157.1109
6306.625, 159.3795
6308.553, 160.9977
6310.481, 158.3491
6312.410, 155.2143
6314.338, 156.6754
6316.267, 161.2382
6318.195, 157.1896
6320.124, 156.3965
6322.052, 156.0318
6323.980, 154.4821
6325.909, 153.9627
6327.837, 158.5011
6329.766, 153.5317
6331.694, 155.9795
6333.623, 158.6925
6335.551, 151.5465
6337.480, 160.5881
6339.408, 154.4118
6341.337, 153.2566
6343.265, 155.1530
6345.194, 155.1454
6347.122, 152.6556
6349.051, 148.8330
6350.979, 156.0421
6352.908, 154.8029
6354.836, 153.1074
6356.765, 154.9271
6358.693, 156.4857
6360.622, 152.7121
6362.550, 154.9417
6364.479, 153.7236
6366.407, 152.2500
6368.335, 152.0579
6370.264, 153.0792
6372.192, 154.3007
6374.121, 150.5660
6376.049, 150.8883
6377.978, 154.7737
6379.906, 155.6969
6381.834, 152.1474
6383.763, 148.0875
6385.691, 151.4558
6387.620, 146.6281
6389.548, 148.7503
6391.477, 149.0505
6393.405, 146.9306
6395.334, 146.9078
6397.262, 151.1992
6399.191, 149.8648
6401.119, 152.9665
6403.048, 153.3923
6404.976, 154.1041
6406.905, 153.2493
6408.833, 147.5489
6410.762, 141.8614
6412.690, 143.9635
6414.619, 149.2052
6416.547, 147.1248
6418.476, 147.1624
6420.404, 148.2181
6422.333, 140.5953
6424.261, 149.6560
6426.189, 144.8944
6428.118, 151.9567
6430.046, 148.3788
6431.975, 146.7622
6433.903, 154.8150
6435.832, 146.3927
6437.760, 148.8607
6439.688, 148.3337
6441.617, 142.0926
6443.545, 144.4539
6445.474, 141.7736
6447.402, 148.8773
6449.331, 140.4781
6451.259, 143.6126
6453.188, 144.6081
6455.116, 143.4740
6457.045, 142.7046
6458.973, 142.3687
6460.902, 143.0811
6462.830, 147.7150
6464.759, 141.4830
6466.687, 140.0003
6468.616, 145.4975
6470.544, 143.3546
6472.473, 139.4116
6474.401, 143.6712
6476.330, 141.1886
6478.258, 140.9506
6480.187, 139.4495
6482.115, 140.8789
6484.043, 142.0020
6485.972, 140.5923
6487.900, 139.4231
6489.829, 139.1259
6491.757, 139.6660
6493.686, 137.3914
6495.614, 137.8223
6497.542, 137.2581
6499.471, 138.4223
6501.399, 140.2047
6503.328, 134.2412
6505.256, 138.0239
6507.185, 136.5210
6509.113, 136.6562
6511.042, 136.4361
6512.970, 136.8949
6514.899, 137.2175
6516.827, 135.2956
6518.756, 141.3033
6520.684, 134.3166
6522.613, 134.7506
6524.541, 139.6205
6526.470, 140.9688
6528.398, 136.8583
6530.327, 132.4976
6532.255, 134.8789
6534.184, 131.9262
6536.112, 135.2934
6538.041, 132.9370
6539.969, 131.1877
6541.897, 131.6991
6543.826, 131.3551
6545.754, 129.7682
6547.683, 128.9227
6549.611, 128.1422
6551.540, 127.8064
6553.468, 127.2711
6555.396, 131.5006
6557.325, 133.1306
6559.253, 130.2381
6561.182, 130.0545
6563.110, 136.1395
6565.039, 132.8068
6566.967, 134.3212
6568.896, 134.5865
6570.824, 132.3763
6572.753, 130.1485
6574.681, 129.6356
6576.610, 132.0624
6578.538, 133.2920
6580.467, 130.4467
6582.395, 132.8834
6584.324, 130.9434
6586.252, 131.3288
6588.181, 130.0914
6590.109, 131.2006
6592.038, 128.2170
6593.966, 126.4610
6595.895, 128.9901
6597.823, 127.5172
6599.751, 131.2790
6601.680, 129.0506
6603.608, 123.9441
6605.537, 128.1667
6607.465, 131.6337
6609.394, 124.9012
6611.322, 129.2446
6613.250, 125.9256
6615.179, 123.2253
6617.107, 125.2159
6619.036, 127.0987
6620.964, 126.4714
6622.893, 128.0132
6624.821, 125.8902
6626.750, 124.8417
##END=



