##NAMES=Chondrodite
##RRUFFID=R110158
##IDEAL CHEMISTRY=Mg_5_(SiO_4_)_2_F_2_
##LOCALITY=Pein Pyit, Mogok, Mandalay Division, Burma
##OWNER=RRUFF
##SOURCE=Marcus Origlieri
##DESCRIPTION=Orange bleb enclosed in calcite, associated with red spinel
##STATUS=The identification of this mineral has been confirmed by single-crystal X-ray diffraction
##URL=https://www.rruff.net/odr/rruff_sample/R110158
##DIFFRACTION SAMPLE DESCRIPTION=Single crystal, powder profile is calculated
##CELL PARAMETERS=a: 4.7372 b: 10.282 c: 7.8527 alpha: 109.145 beta: 90 gamma: 90 volume: 361.32 crystal system: monoclinic
##FILETYPE=Raman Processed
##RAMAN WAVELENGTH=532

217.6654, 9928.291
219.5938, 9935.855
221.5223, 9946.800
223.4508, 9959.983
225.3792, 9972.710
227.3077, 9983.938
229.2362, 9998.869
231.1646, 10014.78
233.0931, 10034.24
235.0216, 10057.86
236.9500, 10085.40
238.8785, 10114.73
240.8070, 10145.55
242.7354, 10176.77
244.6639, 10205.43
246.5924, 10230.10
248.5208, 10253.57
250.4493, 10277.49
252.3778, 10301.24
254.3062, 10327.19
256.2347, 10357.30
258.1632, 10389.03
260.0916, 10418.21
262.0201, 10439.40
263.9486, 10464.27
265.8770, 10499.64
267.8055, 10550.80
269.7340, 10592.04
271.6624, 10615.42
273.5909, 10630.38
275.5194, 10647.95
277.4478, 10669.74
279.3763, 10687.59
281.3048, 10698.98
283.2332, 10704.42
285.1617, 10713.33
287.0902, 10730.19
289.0186, 10754.42
290.9471, 10784.29
292.8756, 10824.31
294.8040, 10859.92
296.7325, 10885.17
298.6610, 10902.42
300.5894, 10924.10
302.5179, 10955.92
304.4464, 10990.38
306.3748, 11020.57
308.3033, 11043.96
310.2318, 11070.41
312.1602, 11104.15
314.0887, 11142.96
316.0172, 11179.85
317.9456, 11219.38
319.8741, 11255.85
321.8026, 11281.81
323.7310, 11295.70
325.6595, 11316.13
327.5880, 11356.87
329.5164, 11407.88
331.4449, 11450.98
333.3734, 11481.01
335.3018, 11509.05
337.2303, 11536.67
339.1588, 11563.07
341.0872, 11589.31
343.0157, 11615.22
344.9442, 11642.86
346.8727, 11674.46
348.8011, 11710.53
350.7296, 11747.46
352.6581, 11784.57
354.5865, 11821.46
356.5150, 11856.63
358.4435, 11892.42
360.3719, 11929.30
362.3004, 11967.31
364.2289, 12005.39
366.1573, 12039.04
368.0858, 12058.59
370.0143, 12077.63
371.9427, 12115.23
373.8712, 12174.12
375.7997, 12239.98
377.7281, 12320.41
379.6566, 12415.12
381.5851, 12491.74
383.5135, 12534.44
385.4420, 12558.27
387.3705, 12565.20
389.2989, 12553.61
391.2274, 12537.14
393.1559, 12522.73
395.0843, 12516.43
397.0128, 12523.14
398.9413, 12552.78
400.8697, 12587.58
402.7982, 12620.81
404.7267, 12651.10
406.6551, 12685.89
408.5836, 12730.92
410.5121, 12773.80
412.4405, 12806.60
414.3690, 12824.61
416.2975, 12836.55
418.2259, 12845.06
420.1544, 12853.04
422.0829, 12861.42
424.0113, 12866.92
425.9398, 12878.86
427.8683, 12904.46
429.7967, 12940.81
431.7252, 12972.33
433.6537, 12990.86
435.5821, 13010.69
437.5106, 13039.97
439.4391, 13080.72
441.3675, 13113.89
443.2960, 13133.36
445.2245, 13149.72
447.1529, 13173.36
449.0814, 13214.33
451.0099, 13249.20
452.9383, 13269.08
454.8668, 13276.41
456.7953, 13293.29
458.7237, 13323.00
460.6522, 13359.75
462.5807, 13400.71
464.5091, 13447.56
466.4376, 13492.11
468.3661, 13530.03
470.2945, 13562.21
472.2230, 13589.13
474.1515, 13617.08
476.0799, 13645.92
478.0084, 13673.83
479.9369, 13697.49
481.8653, 13720.99
483.7938, 13749.26
485.7223, 13778.71
487.6507, 13807.34
489.5792, 13838.85
491.5077, 13872.35
493.4361, 13900.79
495.3646, 13929.13
497.2931, 13963.62
499.2215, 14007.57
501.1500, 14045.35
503.0785, 14071.37
505.0069, 14090.71
506.9354, 14109.43
508.8639, 14130.68
510.7923, 14152.93
512.7208, 14173.71
514.6493, 14195.98
516.5778, 14227.01
518.5062, 14271.11
520.4347, 14311.93
522.3632, 14340.52
524.2916, 14360.80
526.2201, 14388.33
528.1486, 14423.07
530.0770, 14460.19
532.0055, 14498.90
533.9340, 14541.50
535.8624, 14587.15
537.7909, 14637.10
539.7194, 14688.52
541.6478, 14739.08
543.5763, 14791.40
545.5048, 14835.30
547.4332, 14866.43
549.3617, 14882.26
551.2902, 14888.46
553.2186, 14876.84
555.1471, 14872.99
557.0756, 14885.87
559.0040, 14916.00
560.9325, 14940.95
562.8610, 14952.44
564.7894, 14969.62
566.7179, 15003.31
568.6464, 15058.38
570.5748, 15118.55
572.5033, 15185.83
574.4318, 15256.73
576.3602, 15331.62
578.2887, 15408.82
580.2172, 15464.83
582.1456, 15483.38
584.0741, 15484.74
586.0026, 15486.99
587.9310, 15487.38
589.8595, 15492.30
591.7880, 15503.00
593.7164, 15522.40
595.6449, 15547.47
597.5734, 15584.08
599.5018, 15617.30
601.4303, 15647.14
603.3588, 15673.64
605.2872, 15694.13
607.2157, 15708.14
609.1442, 15715.79
611.0726, 15711.81
613.0011, 15696.33
614.9296, 15691.62
616.8580, 15706.59
618.7865, 15725.27
620.7150, 15737.36
622.6434, 15742.09
624.5719, 15749.86
626.5004, 15765.87
628.4288, 15786.29
630.3573, 15807.82
632.2858, 15830.53
634.2142, 15856.58
636.1427, 15887.00
638.0712, 15919.82
639.9996, 15951.59
641.9281, 15980.83
643.8566, 16007.09
645.7850, 16027.40
647.7135, 16043.66
649.6420, 16061.09
651.5704, 16082.09
653.4989, 16103.91
655.4274, 16127.14
657.3558, 16152.97
659.2843, 16182.50
661.2128, 16219.56
663.1412, 16256.75
665.0697, 16288.57
666.9982, 16314.11
668.9266, 16346.07
670.8551, 16388.16
672.7836, 16429.40
674.7120, 16465.71
676.6405, 16497.78
678.5690, 16524.87
680.4974, 16539.60
682.4259, 16555.36
684.3544, 16580.32
686.2828, 16618.20
688.2113, 16652.51
690.1398, 16681.91
692.0682, 16709.48
693.9967, 16736.65
695.9252, 16763.53
697.8536, 16789.37
699.7821, 16811.38
701.7106, 16832.59
703.6390, 16858.30
705.5675, 16891.91
707.4960, 16921.71
709.4244, 16940.16
711.3529, 16957.60
713.2814, 16986.19
715.2098, 17030.19
717.1383, 17077.05
719.0668, 17122.99
720.9952, 17170.77
722.9237, 17225.46
724.8522, 17288.64
726.7806, 17353.20
728.7091, 17411.43
730.6376, 17469.55
732.5660, 17539.56
734.4945, 17635.05
736.4230, 17721.71
738.3514, 17790.87
740.2799, 17844.91
742.2084, 17892.36
744.1368, 17935.07
746.0653, 17971.47
747.9938, 17998.51
749.9222, 18017.09
751.8507, 18033.65
753.7792, 18052.84
755.7076, 18068.38
757.6361, 18075.41
759.5646, 18076.77
761.4930, 18079.69
763.4215, 18079.83
765.3500, 18085.38
767.2784, 18097.69
769.2069, 18122.79
771.1354, 18172.66
773.0638, 18254.72
774.9923, 18354.75
776.9208, 18490.49
778.8492, 18646.77
780.7777, 18767.87
782.7062, 18855.97
784.6346, 18906.03
786.5631, 18887.39
788.4916, 18819.15
790.4200, 18753.67
792.3485, 18689.63
794.2770, 18638.70
796.2054, 18621.37
798.1339, 18637.23
800.0624, 18679.43
801.9908, 18755.56
803.9193, 18838.60
805.8478, 18913.08
807.7762, 18988.85
809.7047, 19048.48
811.6332, 19070.87
813.5616, 19080.15
815.4901, 19088.79
817.4186, 19100.95
819.3470, 19129.89
821.2755, 19169.94
823.2040, 19239.39
825.1324, 19349.66
827.0609, 19520.71
828.9894, 19767.90
830.9178, 20069.69
832.8463, 20509.53
834.7748, 21219.33
836.7032, 22070.94
838.6317, 22953.91
840.5602, 23940.56
842.4886, 24752.77
844.4171, 24914.75
846.3456, 24642.81
848.2740, 24133.13
850.2025, 23288.37
852.1310, 22384.32
854.0594, 21672.45
855.9879, 21151.12
857.9164, 20805.23
859.8448, 20628.14
861.7733, 20553.17
863.7018, 20539.11
865.6302, 20551.38
867.5587, 20502.82
869.4872, 20381.64
871.4156, 20247.91
873.3441, 20109.46
875.2726, 19954.92
877.2010, 19821.60
879.1295, 19719.44
881.0580, 19643.74
882.9865, 19589.63
884.9149, 19554.79
886.8434, 19524.93
888.7719, 19499.37
890.7003, 19485.63
892.6288, 19488.85
894.5573, 19510.98
896.4857, 19543.65
898.4142, 19574.51
900.3427, 19599.11
902.2711, 19623.14
904.1996, 19660.36
906.1281, 19695.93
908.0565, 19718.37
909.9850, 19730.72
911.9135, 19744.14
913.8419, 19765.87
915.7704, 19789.59
917.6989, 19815.25
919.6273, 19840.27
921.5558, 19863.11
923.4843, 19888.63
925.4127, 19930.51
927.3412, 19992.66
929.2697, 20081.92
931.1981, 20201.32
933.1266, 20338.06
935.0551, 20488.40
936.9835, 20633.07
938.9120, 20713.98
940.8405, 20716.51
942.7689, 20674.00
944.6974, 20619.52
946.6259, 20539.45
948.5543, 20461.60
950.4828, 20408.86
952.4113, 20391.73
954.3397, 20394.21
956.2682, 20428.09
958.1967, 20510.63
960.1251, 20626.24
962.0536, 20760.31
963.9821, 20902.20
965.9105, 21043.79
967.8390, 21128.26
969.7675, 21147.46
971.6959, 21100.22
973.6244, 20995.91
975.5529, 20854.16
977.4813, 20755.85
979.4098, 20688.53
981.3383, 20638.16
983.2667, 20594.80
985.1952, 20569.32
987.1237, 20559.89
989.0521, 20561.98
990.9806, 20573.76
992.9091, 20594.29
994.8375, 20624.78
996.7660, 20659.81
998.6945, 20691.96
1000.623, 20726.22
1002.551, 20759.22
1004.480, 20783.98
1006.408, 20796.94
1008.337, 20813.15
1010.265, 20843.34
1012.194, 20875.54
1014.122, 20900.71
1016.051, 20934.75
1017.979, 20970.79
1019.908, 20998.55
1021.836, 21042.54
1023.765, 21073.49
1025.693, 21098.04
1027.621, 21123.51
1029.550, 21150.11
1031.478, 21176.95
1033.407, 21201.26
1035.335, 21223.78
1037.264, 21247.04
1039.192, 21278.41
1041.121, 21310.27
1043.049, 21337.75
1044.978, 21365.50
1046.906, 21394.38
1048.835, 21418.50
1050.763, 21436.53
1052.692, 21461.02
1054.620, 21489.69
1056.548, 21522.09
1058.477, 21552.38
1060.405, 21584.55
1062.334, 21615.60
1064.262, 21645.85
1066.191, 21675.78
1068.119, 21706.78
1070.048, 21736.50
1071.976, 21767.69
1073.905, 21801.92
1075.833, 21839.19
1077.762, 21870.28
1079.690, 21889.18
1081.619, 21905.25
1083.547, 21929.99
1085.475, 21962.72
1087.404, 21993.36
1089.332, 22019.31
1091.261, 22046.10
1093.189, 22077.24
1095.118, 22108.23
1097.046, 22134.61
1098.975, 22157.45
1100.903, 22182.32
1102.832, 22211.48
1104.760, 22240.72
1106.689, 22265.10
1108.617, 22283.03
1110.546, 22301.76
1112.474, 22324.31
1114.402, 22347.86
1116.331, 22372.12
1118.259, 22406.26
1120.188, 22442.06
1122.116, 22470.20
1124.045, 22492.94
1125.973, 22512.68
1127.902, 22538.99
1129.830, 22560.93
1131.759, 22573.68
1133.687, 22591.02
1135.616, 22622.72
1137.544, 22650.60
1139.473, 22664.24
1141.401, 22671.05
1143.329, 22683.40
1145.258, 22708.64
1147.186, 22730.02
1149.115, 22739.63
1151.043, 22748.97
1152.972, 22771.85
1154.900, 22807.22
1156.829, 22833.80
1158.757, 22845.76
1160.686, 22857.26
1162.614, 22873.04
1164.543, 22891.98
1166.471, 22918.00
1168.400, 22957.46
1170.328, 22993.07
1172.256, 23013.00
1174.185, 23033.22
1176.113, 23066.55
1178.042, 23114.46
1179.970, 23154.05
1181.899, 23179.72
1183.827, 23198.86
1185.756, 23212.07
1187.684, 23220.80
1189.613, 23231.37
1191.541, 23246.81
1193.470, 23265.79
1195.398, 23292.17
1197.327, 23323.33
1199.255, 23356.00
1201.183, 23389.35
1203.112, 23424.42
1205.040, 23457.94
1206.969, 23491.37
1208.897, 23523.43
1210.826, 23551.72
1212.754, 23576.49
1214.683, 23598.97
1216.611, 23619.42
1218.540, 23642.29
1220.468, 23666.76
1222.397, 23691.20
1224.325, 23718.16
1226.254, 23755.68
1228.182, 23803.68
1230.110, 23858.95
1232.039, 23919.88
1233.967, 23980.33
1235.896, 24032.84
1237.824, 24073.75
1239.753, 24105.75
1241.681, 24130.47
1243.610, 24144.95
1245.538, 24148.75
1247.467, 24147.75
1249.395, 24150.12
1251.324, 24162.26
1253.252, 24176.77
1255.181, 24192.64
1257.109, 24210.47
1259.037, 24236.10
1260.966, 24271.48
1262.894, 24301.14
1264.823, 24312.60
1266.751, 24326.40
1268.680, 24355.91
1270.608, 24395.50
1272.537, 24431.17
1274.465, 24461.60
1276.394, 24491.75
1278.322, 24521.40
1280.251, 24554.05
1282.179, 24594.45
1284.108, 24641.67
1286.036, 24690.53
1287.964, 24748.82
1289.893, 24802.46
1291.821, 24837.78
1293.750, 24865.90
1295.678, 24909.56
1297.607, 24974.32
1299.535, 25033.60
1301.464, 25087.72
1303.392, 25134.34
1305.321, 25170.98
1307.249, 25198.12
1309.178, 25223.32
1311.106, 25248.99
1313.035, 25274.55
1314.963, 25298.23
1316.891, 25324.60
1318.820, 25354.70
1320.748, 25385.72
1322.677, 25423.61
1324.605, 25477.58
1326.534, 25526.70
1328.462, 25562.90
1330.391, 25589.63
1332.319, 25613.17
1334.248, 25632.66
1336.176, 25648.26
1338.105, 25658.08
1340.033, 25673.08
1341.962, 25701.28
1343.890, 25737.14
1345.818, 25770.21
1347.747, 25801.60
1349.675, 25831.79
1351.604, 25848.82
1353.532, 25870.08
1355.461, 25905.67
1357.389, 25950.26
1359.318, 25993.47
1361.246, 26037.43
1363.175, 26068.81
1365.103, 26083.94
1367.032, 26094.77
1368.960, 26104.38
1370.889, 26107.84
1372.817, 26124.96
1374.745, 26177.46
1376.674, 26226.46
1378.602, 26247.60
1380.531, 26259.44
1382.459, 26281.70
1384.388, 26317.39
1386.316, 26350.01
1388.245, 26379.28
1390.173, 26407.65
1392.102, 26441.14
1394.030, 26475.93
1395.959, 26504.42
1397.887, 26521.35
1399.816, 26537.91
1401.744, 26556.16
1403.672, 26581.99
1405.601, 26615.64
1407.529, 26645.38
1409.458, 26666.76
1411.386, 26696.84
1413.315, 26725.38
1415.243, 26738.60
1417.172, 26754.60
1419.100, 26782.49
1421.029, 26817.76
1422.957, 26855.39
1424.886, 26897.35
1426.814, 26938.25
1428.743, 26969.59
1430.671, 27002.02
1432.599, 27044.09
1434.528, 27089.33
1436.456, 27129.94
1438.385, 27169.97
1440.313, 27204.06
1442.242, 27218.73
1444.170, 27232.46
1446.099, 27249.22
1448.027, 27271.42
1449.956, 27302.17
1451.884, 27339.17
1453.813, 27362.05
1455.741, 27381.49
1457.670, 27402.70
1459.598, 27414.64
1461.526, 27423.41
1463.455, 27444.63
1465.383, 27485.47
1467.312, 27528.72
1469.240, 27561.22
1471.169, 27595.29
1473.097, 27647.61
1475.026, 27699.37
1476.954, 27722.78
1478.883, 27721.13
1480.811, 27733.19
1482.740, 27772.54
1484.668, 27810.90
1486.597, 27835.18
1488.525, 27860.83
1490.453, 27900.74
1492.382, 27957.27
1494.310, 28027.30
1496.239, 28105.48
1498.167, 28182.50
1500.096, 28252.70
1502.024, 28307.11
1503.953, 28340.97
1505.881, 28357.66
1507.810, 28367.56
1509.738, 28374.05
1511.667, 28374.81
1513.595, 28372.91
1515.524, 28376.79
1517.452, 28388.29
1519.380, 28407.84
1521.309, 28440.01
1523.237, 28494.02
1525.166, 28542.80
1527.094, 28563.74
1529.023, 28582.78
1530.951, 28618.03
1532.880, 28659.83
1534.808, 28687.48
1536.737, 28696.92
1538.665, 28709.29
1540.594, 28730.74
1542.522, 28757.43
1544.451, 28786.46
1546.379, 28818.42
1548.307, 28855.27
1550.236, 28896.92
1552.164, 28939.44
1554.093, 28984.01
1556.021, 29022.08
1557.950, 29042.63
1559.878, 29063.08
1561.807, 29103.81
1563.735, 29154.62
1565.664, 29177.49
1567.592, 29165.58
1569.521, 29161.20
1571.449, 29176.06
1573.378, 29194.97
1575.306, 29205.68
1577.234, 29215.52
1579.163, 29246.83
1581.091, 29303.67
1583.020, 29338.04
1584.948, 29328.75
1586.877, 29322.39
1588.805, 29340.25
1590.734, 29371.57
1592.662, 29408.75
1594.591, 29451.48
1596.519, 29492.07
1598.448, 29522.46
1600.376, 29564.96
1602.305, 29633.23
1604.233, 29700.08
1606.161, 29745.60
1608.090, 29775.53
1610.018, 29809.88
1611.947, 29852.10
1613.875, 29869.34
1615.804, 29856.04
1617.732, 29832.53
1619.661, 29796.47
1621.589, 29769.22
1623.518, 29775.79
1625.446, 29815.29
1627.375, 29858.14
1629.303, 29895.96
1631.232, 29946.38
1633.160, 30019.58
1635.089, 30086.02
1637.017, 30120.92
1638.945, 30136.98
1640.874, 30171.40
1642.802, 30230.56
1644.731, 30263.22
1646.659, 30254.02
1648.588, 30249.94
1650.516, 30269.07
1652.445, 30299.38
1654.373, 30328.87
1656.302, 30357.32
1658.230, 30391.79
1660.159, 30431.75
1662.087, 30469.40
1664.016, 30508.81
1665.944, 30536.80
1667.872, 30538.26
1669.801, 30532.15
1671.729, 30546.19
1673.658, 30583.61
1675.586, 30619.23
1677.515, 30654.94
1679.443, 30690.33
1681.372, 30728.91
1683.300, 30765.47
1685.229, 30789.49
1687.157, 30810.19
1689.086, 30850.09
1691.014, 30912.35
1692.943, 30959.75
1694.871, 30981.32
1696.799, 30996.82
1698.728, 31014.14
1700.656, 31025.17
1702.585, 31020.76
1704.513, 31009.91
1706.442, 31018.19
1708.370, 31055.78
1710.299, 31083.40
1712.227, 31086.87
1714.156, 31095.42
1716.084, 31116.33
1718.013, 31140.44
1719.941, 31155.74
1721.870, 31165.75
1723.798, 31195.24
1725.726, 31257.70
1727.655, 31296.65
1729.583, 31291.46
1731.512, 31286.77
1733.440, 31298.96
1735.369, 31315.53
1737.297, 31321.59
1739.226, 31321.86
1741.154, 31342.13
1743.083, 31389.44
1745.011, 31431.95
1746.940, 31449.82
1748.868, 31483.65
1750.797, 31561.54
1752.725, 31641.38
1754.653, 31681.30
1756.582, 31685.66
1758.510, 31688.41
1760.439, 31689.45
1762.367, 31690.32
1764.296, 31699.68
1766.224, 31702.01
1768.153, 31694.43
1770.081, 31683.65
1772.010, 31669.86
1773.938, 31659.19
1775.867, 31672.54
1777.795, 31712.73
1779.724, 31752.02
1781.652, 31785.70
1783.580, 31816.03
1785.509, 31830.41
1787.437, 31850.00
1789.366, 31897.17
1791.294, 31955.89
1793.223, 31990.37
1795.151, 31999.40
1797.080, 32000.33
1799.008, 31989.14
1800.937, 31990.00
1802.865, 32024.64
1804.794, 32061.46
1806.722, 32080.90
1808.651, 32091.97
1810.579, 32103.36
1812.507, 32115.44
1814.436, 32136.36
1816.364, 32167.12
1818.293, 32194.29
1820.221, 32209.80
1822.150, 32223.44
1824.078, 32241.67
1826.007, 32261.17
1827.935, 32282.98
1829.864, 32306.91
1831.792, 32321.77
1833.721, 32326.32
1835.649, 32342.14
1837.578, 32377.47
1839.506, 32413.89
1841.434, 32442.54
1843.363, 32467.21
1845.291, 32485.25
1847.220, 32500.16
1849.148, 32524.29
1851.077, 32558.71
1853.005, 32588.22
1854.934, 32616.10
1856.862, 32635.65
1858.791, 32641.45
1860.719, 32646.73
1862.648, 32661.80
1864.576, 32677.55
1866.505, 32679.25
1868.433, 32670.35
1870.361, 32674.10
1872.290, 32701.38
1874.218, 32715.53
1876.147, 32701.60
1878.075, 32698.93
1880.004, 32724.51
1881.932, 32756.34
1883.861, 32775.66
1885.789, 32793.08
1887.718, 32828.68
1889.646, 32879.57
1891.575, 32919.37
1893.503, 32942.18
1895.432, 32958.20
1897.360, 32976.44
1899.288, 32977.29
1901.217, 32943.73
1903.145, 32911.14
1905.074, 32913.79
1907.002, 32939.96
1908.931, 32959.02
1910.859, 32971.53
1912.788, 32989.02
1914.716, 33004.87
1916.645, 33032.22
1918.573, 33074.37
1920.502, 33114.47
1922.430, 33146.82
1924.359, 33171.32
1926.287, 33193.78
1928.215, 33211.51
1930.144, 33211.36
1932.072, 33195.27
1934.001, 33191.17
1935.929, 33207.34
1937.858, 33221.88
1939.786, 33220.87
1941.715, 33231.25
1943.643, 33275.13
1945.572, 33321.46
1947.500, 33335.68
1949.429, 33331.68
1951.357, 33349.29
1953.286, 33391.52
1955.214, 33406.84
1957.143, 33379.09
1959.071, 33361.65
1961.000, 33375.57
1962.928, 33381.91
1964.856, 33364.79
1966.785, 33346.70
1968.713, 33343.75
1970.642, 33353.19
1972.570, 33368.93
1974.499, 33390.67
1976.427, 33414.97
1978.356, 33438.82
1980.284, 33479.20
1982.213, 33548.00
1984.141, 33605.54
1986.070, 33621.96
1987.998, 33637.06
1989.927, 33681.90
1991.855, 33732.34
1993.783, 33757.89
1995.712, 33762.60
1997.640, 33762.01
1999.569, 33754.97
2001.497, 33759.45
2003.426, 33784.01
2005.354, 33809.33
2007.283, 33843.38
2009.211, 33862.99
2011.140, 33851.32
2013.068, 33828.38
2014.997, 33807.10
2016.925, 33789.47
2018.854, 33778.62
2020.782, 33776.32
2022.710, 33789.14
2024.639, 33821.79
2026.567, 33850.17
2028.496, 33866.28
2030.424, 33887.77
2032.353, 33924.09
2034.281, 33956.67
2036.210, 33974.73
2038.138, 33982.77
2040.067, 33976.59
2041.995, 33966.22
2043.924, 33985.18
2045.852, 34032.82
2047.781, 34041.00
2049.709, 33981.74
2051.637, 33955.79
2053.566, 33999.81
2055.494, 34031.48
2057.423, 34033.38
2059.351, 34022.07
2061.280, 33998.67
2063.208, 33979.72
2065.137, 33984.55
2067.065, 34010.33
2068.994, 34043.70
2070.922, 34084.46
2072.851, 34138.78
2074.779, 34206.09
2076.708, 34256.25
2078.636, 34273.93
2080.564, 34280.36
2082.493, 34280.43
2084.421, 34269.52
2086.350, 34246.25
2088.278, 34218.33
2090.207, 34195.95
2092.135, 34180.49
2094.064, 34168.60
2095.992, 34162.17
2097.921, 34163.33
2099.849, 34168.74
2101.778, 34179.32
2103.706, 34194.25
2105.635, 34203.34
2107.563, 34204.25
2109.491, 34199.88
2111.420, 34203.96
2113.348, 34197.00
2115.277, 34155.15
2117.205, 34109.61
2119.134, 34094.04
2121.062, 34106.79
2122.991, 34147.26
2124.919, 34211.15
2126.848, 34267.84
2128.776, 34313.72
2130.705, 34341.36
2132.633, 34326.02
2134.562, 34325.18
2136.490, 34373.29
2138.418, 34408.34
2140.347, 34395.88
2142.275, 34372.20
2144.204, 34366.12
2146.132, 34370.93
2148.061, 34376.39
2149.989, 34384.35
2151.918, 34397.60
2153.846, 34416.04
2155.775, 34435.15
2157.703, 34451.23
2159.632, 34477.33
2161.560, 34520.33
2163.489, 34549.36
2165.417, 34545.43
2167.345, 34533.89
2169.274, 34514.45
2171.202, 34504.96
2173.131, 34539.69
2175.059, 34582.14
2176.988, 34574.07
2178.916, 34535.93
2180.845, 34528.29
2182.773, 34551.49
2184.702, 34575.94
2186.630, 34599.62
2188.559, 34621.01
2190.487, 34636.34
2192.416, 34649.67
2194.344, 34655.42
2196.272, 34667.01
2198.201, 34706.80
2200.129, 34733.46
2202.058, 34715.27
2203.986, 34684.80
2205.915, 34673.41
2207.843, 34670.89
2209.772, 34656.42
2211.700, 34654.91
2213.629, 34650.70
2215.557, 34645.73
2217.486, 34648.56
2219.414, 34636.90
2221.343, 34639.43
2223.271, 34663.59
2225.199, 34688.55
2227.128, 34706.43
2229.056, 34723.65
2230.985, 34734.23
2232.913, 34750.82
2234.842, 34795.07
2236.770, 34834.07
2238.699, 34821.52
2240.627, 34870.05
2242.556, 34839.45
2244.484, 34922.52
2246.413, 34971.64
2248.341, 34988.02
2250.270, 34986.26
2252.198, 34963.83
2254.126, 34974.88
2256.055, 35033.61
2257.983, 35078.33
2259.912, 35090.30
2261.840, 35097.19
2263.769, 35109.37
2265.697, 35109.86
2267.626, 35087.94
2269.554, 35058.10
2271.483, 35029.80
2273.411, 35004.47
2275.340, 34990.46
2277.268, 34982.18
2279.197, 34963.43
2281.125, 34942.84
2283.053, 34940.25
2284.982, 34953.25
2286.910, 34967.52
2288.839, 34976.02
2290.767, 35001.55
2292.696, 35059.15
2294.624, 35094.95
2296.553, 35097.31
2298.481, 35095.85
2300.410, 35101.24
2302.338, 35097.12
2304.267, 35079.76
2306.195, 35056.27
2308.124, 35014.66
2310.052, 34990.08
2311.980, 35019.13
2313.909, 35070.92
2315.837, 35110.65
2317.766, 35143.45
2319.694, 35179.88
2321.623, 35216.67
2323.551, 35247.45
2325.480, 35270.42
2327.408, 35283.16
2329.337, 35285.39
2331.265, 35272.46
2333.194, 35240.93
2335.122, 35218.33
2337.051, 35214.84
2338.979, 35211.06
2340.907, 35213.48
2342.836, 35208.88
2344.764, 35185.92
2346.693, 35172.81
2348.621, 35175.76
2350.550, 35194.27
2352.478, 35232.18
2354.407, 35267.93
2356.335, 35275.96
2358.264, 35268.87
2360.192, 35274.05
2362.121, 35276.75
2364.049, 35246.88
2365.978, 35197.39
2367.906, 35158.29
2369.834, 35134.32
2371.763, 35127.23
2373.691, 35138.16
2375.620, 35148.80
2377.548, 35150.68
2379.477, 35165.70
2381.405, 35196.79
2383.334, 35210.79
2385.262, 35193.13
2387.191, 35182.80
2389.119, 35207.90
2391.048, 35225.08
2392.976, 35222.84
2394.905, 35216.70
2396.833, 35208.73
2398.761, 35202.90
2400.690, 35184.38
2402.618, 35180.02
2404.547, 35226.33
2406.475, 35279.83
2408.404, 35298.43
2410.332, 35290.50
2412.261, 35259.57
2414.189, 35219.99
2416.118, 35211.11
2418.046, 35227.73
2419.975, 35230.69
2421.903, 35220.93
2423.832, 35205.28
2425.760, 35183.70
2427.688, 35200.31
2429.617, 35261.90
2431.545, 35296.88
2433.474, 35286.95
2435.402, 35282.41
2437.331, 35302.00
2439.259, 35306.64
2441.188, 35289.52
2443.116, 35271.17
2445.045, 35244.63
2446.973, 35244.29
2448.902, 35300.76
2450.830, 35348.93
2452.759, 35343.03
2454.687, 35333.25
2456.615, 35348.14
2458.544, 35366.82
2460.472, 35377.67
2462.401, 35385.61
2464.329, 35393.75
2466.258, 35407.77
2468.186, 35439.01
2470.115, 35475.83
2472.043, 35496.26
2473.972, 35506.18
2475.900, 35524.19
2477.829, 35539.16
2479.757, 35516.12
2481.686, 35462.36
2483.614, 35437.32
2485.542, 35440.13
2487.471, 35423.26
2489.399, 35391.71
2491.328, 35381.25
2493.256, 35397.04
2495.185, 35412.61
2497.113, 35418.59
2499.042, 35440.26
2500.970, 35450.32
2502.899, 35461.54
2504.827, 35484.59
2506.756, 35478.88
2508.684, 35511.25
2510.613, 35512.46
2512.541, 35448.82
2514.469, 35399.06
2516.398, 35398.06
2518.326, 35400.49
2520.255, 35385.13
2522.183, 35386.18
2524.112, 35417.77
2526.040, 35458.42
2527.969, 35512.30
2529.897, 35548.87
2531.826, 35542.80
2533.754, 35525.66
2535.683, 35508.79
2537.611, 35503.66
2539.540, 35530.39
2541.468, 35561.29
2543.396, 35557.36
2545.325, 35551.51
2547.253, 35589.05
2549.182, 35629.39
2551.110, 35620.32
2553.039, 35586.16
2554.967, 35560.82
2556.896, 35545.12
2558.824, 35546.45
2560.753, 35540.03
2562.681, 35560.02
2564.610, 35559.15
2566.538, 35579.57
2568.467, 35613.09
2570.395, 35629.11
2572.323, 35630.21
2574.252, 35657.00
2576.180, 35665.65
2578.109, 35678.71
2580.037, 35696.70
2581.966, 35696.98
2583.894, 35717.19
2585.823, 35709.55
2587.751, 35728.02
2589.680, 35747.78
2591.608, 35752.23
2593.537, 35793.80
2595.465, 35797.44
2597.394, 35816.15
2599.322, 35849.67
2601.250, 35878.14
2603.179, 35897.58
2605.107, 35916.49
2607.036, 35936.77
2608.964, 35959.00
2610.893, 35991.84
2612.821, 36012.34
2614.750, 36019.56
2616.678, 36023.84
2618.607, 36026.28
2620.535, 36024.13
2622.464, 36014.32
2624.392, 35999.73
2626.321, 35973.12
2628.249, 35953.54
2630.177, 35945.05
2632.106, 35941.55
2634.034, 35942.76
2635.963, 35956.48
2637.891, 35996.24
2639.820, 36027.01
2641.748, 36038.59
2643.677, 36041.86
2645.605, 36024.29
2647.534, 36024.52
2649.462, 36055.87
2651.391, 36085.23
2653.319, 36096.70
2655.248, 36109.13
2657.176, 36127.86
2659.104, 36146.48
2661.033, 36181.57
2662.961, 36188.38
2664.890, 36147.37
2666.818, 36106.33
2668.747, 36082.45
2670.675, 36069.77
2672.604, 36068.64
2674.532, 36075.98
2676.461, 36090.72
2678.389, 36107.38
2680.318, 36115.63
2682.246, 36130.84
2684.175, 36164.66
2686.103, 36188.73
2688.031, 36194.92
2689.960, 36186.56
2691.888, 36161.13
2693.817, 36137.81
2695.745, 36129.82
2697.674, 36121.84
2699.602, 36095.23
2701.531, 36092.58
2703.459, 36143.85
2705.388, 36198.80
2707.316, 36245.76
2709.245, 36274.74
2711.173, 36274.04
2713.102, 36265.71
2715.030, 36241.18
2716.958, 36239.68
2718.887, 36303.86
2720.815, 36350.89
2722.744, 36346.03
2724.672, 36334.13
2726.601, 36323.68
2728.529, 36325.00
2730.458, 36353.01
2732.386, 36371.50
2734.315, 36345.48
2736.243, 36339.13
2738.172, 36389.63
2740.100, 36421.73
2742.029, 36414.02
2743.957, 36402.00
2745.885, 36397.91
2747.814, 36398.67
2749.742, 36409.74
2751.671, 36423.94
2753.599, 36437.95
2755.528, 36460.40
2757.456, 36488.15
2759.385, 36526.75
2761.313, 36578.07
2763.242, 36622.43
2765.170, 36654.55
2767.099, 36670.64
2769.027, 36668.99
2770.956, 36653.11
2772.884, 36622.68
2774.813, 36596.18
2776.741, 36583.21
2778.669, 36575.30
2780.598, 36587.02
2782.526, 36570.52
2784.455, 36571.61
2786.383, 36580.97
2788.312, 36562.14
2790.240, 36599.09
2792.169, 36595.30
2794.097, 36600.23
2796.026, 36615.09
2797.954, 36610.94
2799.883, 36587.82
2801.811, 36569.48
2803.740, 36560.04
2805.668, 36540.54
2807.596, 36512.02
2809.525, 36497.94
2811.453, 36497.58
2813.382, 36502.61
2815.310, 36509.83
2817.239, 36501.93
2819.167, 36503.44
2821.096, 36483.06
2823.024, 36495.30
2824.953, 36494.68
2826.881, 36490.82
2828.810, 36520.20
2830.738, 36566.47
2832.667, 36606.11
2834.595, 36628.65
2836.523, 36603.06
2838.452, 36558.14
2840.380, 36536.21
2842.309, 36534.40
2844.237, 36557.79
2846.166, 36586.31
2848.094, 36587.55
2850.023, 36587.88
2851.951, 36620.15
2853.880, 36653.01
2855.808, 36668.13
2857.737, 36668.13
2859.665, 36640.57
2861.594, 36623.76
2863.522, 36648.34
2865.450, 36682.02
2867.379, 36720.01
2869.307, 36744.09
2871.236, 36730.28
2873.164, 36722.89
2875.093, 36741.01
2877.021, 36753.86
2878.950, 36752.27
2880.878, 36757.37
2882.807, 36779.61
2884.735, 36794.63
2886.664, 36790.75
2888.592, 36797.02
2890.521, 36816.71
2892.449, 36831.75
2894.377, 36839.67
2896.306, 36844.62
2898.234, 36846.08
2900.163, 36847.40
2902.091, 36849.24
2904.020, 36854.99
2905.948, 36864.94
2907.877, 36870.46
2909.805, 36875.38
2911.734, 36893.90
2913.662, 36920.60
2915.591, 36940.52
2917.519, 36954.77
2919.448, 36971.59
2921.376, 36979.59
2923.304, 36954.44
2925.233, 36922.73
2927.161, 36919.64
2929.090, 36924.63
2931.018, 36933.73
2932.947, 36927.14
2934.875, 36875.74
2936.804, 36828.01
2938.732, 36805.18
2940.661, 36801.29
2942.589, 36829.61
2944.518, 36837.56
2946.446, 36785.52
2948.375, 36758.62
2950.303, 36790.81
2952.231, 36809.86
2954.160, 36806.32
2956.088, 36810.12
2958.017, 36824.66
2959.945, 36832.19
2961.874, 36829.06
2963.802, 36825.92
2965.731, 36822.71
2967.659, 36808.88
2969.588, 36787.26
2971.516, 36754.36
2973.445, 36723.42
2975.373, 36736.81
2977.302, 36770.85
2979.230, 36781.87
2981.158, 36778.37
2983.087, 36767.64
2985.015, 36752.90
2986.944, 36742.61
2988.872, 36729.77
2990.801, 36703.33
2992.729, 36692.87
2994.658, 36734.07
2996.586, 36759.79
2998.515, 36730.15
3000.443, 36708.90
3002.372, 36709.94
3004.300, 36701.68
3006.229, 36679.37
3008.157, 36646.51
3010.085, 36603.98
3012.014, 36565.13
3013.942, 36533.55
3015.871, 36546.27
3017.799, 36594.98
3019.728, 36619.55
3021.656, 36623.95
3023.585, 36612.45
3025.513, 36600.89
3027.442, 36616.14
3029.370, 36643.93
3031.299, 36665.77
3033.227, 36687.99
3035.156, 36724.95
3037.084, 36747.34
3039.012, 36732.29
3040.941, 36709.45
3042.869, 36690.23
3044.798, 36674.18
3046.726, 36661.89
3048.655, 36657.91
3050.583, 36665.14
3052.512, 36671.40
3054.440, 36675.61
3056.369, 36687.49
3058.297, 36705.90
3060.226, 36714.36
3062.154, 36710.54
3064.083, 36665.57
3066.011, 36687.93
3067.939, 36638.63
3069.868, 36687.54
3071.796, 36686.91
3073.725, 36658.02
3075.653, 36608.60
3077.582, 36564.03
3079.510, 36541.99
3081.439, 36529.91
3083.367, 36515.70
3085.296, 36531.63
3087.224, 36598.52
3089.153, 36643.25
3091.081, 36655.18
3093.010, 36646.09
3094.938, 36613.43
3096.866, 36581.64
3098.795, 36552.73
3100.723, 36552.98
3102.652, 36570.12
3104.580, 36575.77
3106.509, 36572.13
3108.437, 36550.65
3110.366, 36534.60
3112.294, 36567.13
3114.223, 36576.68
3116.151, 36495.89
3118.080, 36431.32
3120.008, 36430.05
3121.937, 36423.81
3123.865, 36395.08
3125.793, 36391.75
3127.722, 36381.97
3129.650, 36375.46
3131.579, 36383.27
3133.507, 36381.39
3135.436, 36408.55
3137.364, 36430.05
3139.293, 36441.79
3141.221, 36431.46
3143.150, 36413.75
3145.078, 36392.20
3147.007, 36383.35
3148.935, 36406.95
3150.864, 36423.92
3152.792, 36422.65
3154.720, 36400.48
3156.649, 36344.11
3158.577, 36308.18
3160.506, 36301.20
3162.434, 36295.25
3164.363, 36289.25
3166.291, 36258.77
3168.220, 36216.68
3170.148, 36199.05
3172.077, 36195.49
3174.005, 36193.64
3175.934, 36194.55
3177.862, 36209.29
3179.791, 36216.14
3181.719, 36198.26
3183.647, 36195.01
3185.576, 36131.75
3187.504, 36209.12
3189.433, 36249.64
3191.361, 36255.29
3193.290, 36121.65
3195.218, 36167.88
3197.147, 36142.02
3199.075, 36113.21
3201.004, 36184.75
3202.932, 36071.37
3204.861, 36141.32
3206.789, 36138.09
3208.718, 36168.36
3210.646, 36126.09
3212.574, 36106.23
3214.503, 36158.91
3216.431, 36171.43
3218.360, 36120.81
3220.288, 36096.93
3222.217, 36116.46
3224.145, 36090.20
3226.074, 36089.12
3228.002, 36043.70
3229.931, 36058.91
3231.859, 36038.34
3233.788, 36008.38
3235.716, 35977.86
3237.645, 35954.68
3239.573, 35934.77
3241.501, 35936.73
3243.430, 35966.45
3245.358, 35995.68
3247.287, 36021.85
3249.215, 36039.68
3251.144, 36045.26
3253.072, 36014.80
3255.001, 35976.57
3256.929, 35990.54
3258.858, 36004.46
3260.786, 35960.73
3262.715, 35931.19
3264.643, 35973.65
3266.572, 35984.92
3268.500, 35940.63
3270.428, 35910.02
3272.357, 35901.15
3274.285, 35911.19
3276.214, 35936.39
3278.142, 35963.94
3280.071, 35982.38
3281.999, 35957.06
3283.928, 35935.93
3285.856, 35986.82
3287.785, 36014.23
3289.713, 35977.12
3291.642, 35938.79
3293.570, 35922.38
3295.499, 35881.68
3297.427, 35870.18
3299.355, 35859.16
3301.284, 35843.01
3303.212, 35843.91
3305.141, 35826.95
3307.069, 35805.05
3308.998, 35779.53
3310.926, 35754.56
3312.855, 35729.10
3314.783, 35704.46
3316.712, 35691.98
3318.640, 35698.08
3320.569, 35683.73
3322.497, 35653.02
3324.426, 35681.72
3326.354, 35657.14
3328.282, 35692.17
3330.211, 35648.21
3332.139, 35676.68
3334.068, 35687.20
3335.996, 35639.27
3337.925, 35579.93
3339.853, 35511.75
3341.782, 35483.34
3343.710, 35494.88
3345.639, 35518.57
3347.567, 35545.59
3349.496, 35561.44
3351.424, 35560.35
3353.353, 35527.92
3355.281, 35492.03
3357.209, 35469.79
3359.138, 35452.29
3361.066, 35430.98
3362.995, 35416.58
3364.923, 35406.42
3366.852, 35396.41
3368.780, 35395.57
3370.709, 35402.55
3372.637, 35388.30
3374.566, 35399.58
3376.494, 35409.92
3378.423, 35402.38
3380.351, 35399.40
3382.280, 35412.91
3384.208, 35402.72
3386.136, 35372.19
3388.065, 35365.37
3389.993, 35373.66
3391.922, 35375.39
3393.850, 35381.74
3395.779, 35406.77
3397.707, 35434.94
3399.636, 35431.24
3401.564, 35422.32
3403.493, 35422.94
3405.421, 35378.04
3407.350, 35352.05
3409.278, 35339.23
3411.207, 35326.86
3413.135, 35289.54
3415.063, 35249.15
3416.992, 35217.13
3418.920, 35200.93
3420.849, 35187.59
3422.777, 35206.10
3424.706, 35189.88
3426.634, 35196.46
3428.563, 35213.25
3430.491, 35204.12
3432.420, 35183.47
3434.348, 35166.22
3436.277, 35151.89
3438.205, 35148.23
3440.134, 35131.77
3442.062, 35097.47
3443.990, 35057.26
3445.919, 35017.26
3447.847, 35013.63
3449.776, 35025.21
3451.704, 35022.80
3453.633, 35005.20
3455.561, 34993.54
3457.490, 34973.77
3459.418, 34936.97
3461.347, 34918.11
3463.275, 34868.00
3465.204, 34816.68
3467.132, 34769.81
3469.061, 34741.71
3470.989, 34722.71
3472.917, 34699.81
3474.846, 34692.55
3476.774, 34702.21
3478.703, 34730.74
3480.631, 34713.30
3482.560, 34757.82
3484.488, 34699.84
3486.417, 34692.05
3488.345, 34691.74
3490.274, 34651.59
3492.202, 34626.24
3494.131, 34637.83
3496.059, 34650.32
3497.988, 34653.41
3499.916, 34640.34
3501.844, 34626.43
3503.773, 34690.98
3505.701, 34745.62
3507.630, 34685.78
3509.558, 34603.94
3511.487, 34507.78
3513.415, 34495.06
3515.344, 34467.84
3517.272, 34468.82
3519.201, 34496.17
3521.129, 34516.63
3523.058, 34559.89
3524.986, 34579.91
3526.915, 34574.25
3528.843, 34507.95
3530.771, 34501.36
3532.700, 34553.41
3534.628, 34576.12
3536.557, 34575.37
3538.485, 34566.46
3540.414, 34555.42
3542.342, 34551.04
3544.271, 34543.12
3546.199, 34523.02
3548.128, 34540.22
3550.056, 34598.91
3551.985, 34678.90
3553.913, 34788.68
3555.842, 34980.36
3557.770, 35153.77
3559.698, 35242.80
3561.627, 35299.83
3563.555, 35328.70
3565.484, 35423.27
3567.412, 35568.28
3569.341, 35722.62
3571.269, 35805.47
3573.198, 35734.57
3575.126, 35559.35
3577.055, 35274.17
3578.983, 35011.43
3580.912, 34792.92
3582.840, 34621.55
3584.769, 34495.63
3586.697, 34411.66
3588.625, 34356.53
3590.554, 34331.37
3592.482, 34300.88
3594.411, 34250.20
3596.339, 34236.05
3598.268, 34253.32
3600.196, 34283.97
3602.125, 34291.56
3604.053, 34203.83
3605.982, 34140.12
3607.910, 34163.89
3609.839, 34159.42
3611.767, 34109.21
3613.696, 34052.80
3615.624, 34012.77
3617.552, 34067.36
3619.481, 34107.84
3621.409, 34031.83
3623.338, 33974.89
3625.266, 33965.26
3627.195, 33976.80
3629.123, 34002.01
3631.052, 34003.15
3632.980, 34011.04
3634.909, 34081.79
3636.837, 34113.42
3638.766, 34072.64
3640.694, 34021.62
3642.623, 33969.80
3644.551, 33908.74
3646.479, 33864.11
3648.408, 33877.60
3650.336, 33903.47
3652.265, 33921.27
3654.193, 33943.10
3656.122, 33969.79
3658.050, 33931.29
3659.979, 33868.63
3661.907, 33854.01
3663.836, 33855.13
3665.764, 33856.21
3667.693, 33863.73
3669.621, 33882.28
3671.550, 33866.71
3673.478, 33868.18
3675.406, 33839.81
3677.335, 33849.19
3679.263, 33842.16
3681.192, 33833.46
3683.120, 33826.20
3685.049, 33797.02
3686.977, 33762.11
3688.906, 33788.89
3690.834, 33813.83
3692.763, 33770.81
3694.691, 33741.02
3696.620, 33738.87
3698.548, 33767.11
3700.477, 33815.21
3702.405, 33868.45
3704.333, 33894.00
3706.262, 33840.02
3708.190, 33786.87
3710.119, 33749.12
3712.047, 33711.38
3713.976, 33667.04
3715.904, 33575.77
3717.833, 33497.62
3719.761, 33504.23
3721.690, 33508.39
3723.618, 33494.76
3725.547, 33471.35
3727.475, 33447.14
3729.404, 33466.25
3731.332, 33480.49
3733.260, 33440.03
3735.189, 33408.75
3737.117, 33399.31
3739.046, 33370.47
3740.974, 33336.77
3742.903, 33355.00
3744.831, 33369.70
3746.760, 33330.20
3748.688, 33301.74
3750.617, 33292.48
3752.545, 33253.20
3754.474, 33203.27
3756.402, 33184.70
3758.331, 33188.55
3760.259, 33222.11
3762.188, 33247.44
3764.116, 33257.05
3766.044, 33240.87
3767.973, 33216.10
3769.901, 33223.89
3771.830, 33225.49
3773.758, 33211.24
3775.687, 33171.71
3777.615, 33118.12
3779.544, 33103.61
3781.472, 33105.27
3783.401, 33095.92
3785.329, 33078.44
3787.258, 33047.38
3789.186, 33005.86
3791.115, 32967.51
3793.043, 33005.27
3794.971, 33037.67
3796.900, 32990.76
3798.828, 32942.34
3800.757, 32909.33
3802.685, 32900.93
3804.614, 32908.63
3806.542, 32915.65
3808.471, 32917.71
3810.399, 32913.79
3812.328, 32876.27
3814.256, 32803.82
3816.185, 32785.54
3818.113, 32791.47
3820.042, 32803.67
3821.970, 32785.15
3823.898, 32778.68
3825.827, 32708.76
3827.755, 32726.55
3829.684, 32666.63
3831.612, 32602.87
3833.541, 32587.65
3835.469, 32602.09
3837.398, 32640.38
3839.326, 32622.44
3841.255, 32575.54
3843.183, 32539.08
3845.112, 32521.59
3847.040, 32495.11
3848.969, 32466.92
3850.897, 32462.57
3852.825, 32420.32
3854.754, 32394.99
3856.682, 32385.64
3858.611, 32389.17
3860.539, 32372.99
3862.468, 32390.36
3864.396, 32361.00
3866.325, 32364.86
3868.253, 32363.84
3870.182, 32336.56
3872.110, 32319.03
3874.039, 32328.20
3875.967, 32339.38
3877.896, 32363.02
3879.824, 32414.20
3881.752, 32421.86
3883.681, 32498.03
3885.609, 32506.48
3887.538, 32496.06
3889.466, 32545.98
3891.395, 32595.90
3893.323, 32620.87
3895.252, 32675.09
3897.180, 32744.34
3899.109, 32740.10
3901.037, 32719.29
3902.966, 32704.82
3904.894, 32749.84
3906.823, 32841.96
3908.751, 32866.38
3910.679, 32861.12
3912.608, 32851.45
3914.536, 32872.13
3916.465, 32942.04
3918.393, 32985.64
3920.322, 33002.65
3922.250, 33001.63
3924.179, 32990.25
3926.107, 32968.25
3928.036, 32961.48
3929.964, 32969.17
3931.893, 32991.76
3933.821, 33010.63
3935.750, 33026.16
3937.678, 33024.31
3939.606, 33062.71
3941.535, 33072.36
3943.463, 33090.05
3945.392, 33158.63
3947.320, 33214.08
3949.249, 33240.71
3951.177, 33261.08
3953.106, 33273.80
3955.034, 33286.40
3956.963, 33293.52
3958.891, 33294.76
3960.820, 33302.68
3962.748, 33296.14
3964.677, 33303.02
3966.605, 33306.85
3968.533, 33297.23
3970.462, 33285.76
3972.390, 33276.51
3974.319, 33293.01
3976.247, 33311.15
3978.176, 33312.47
3980.104, 33318.21
3982.033, 33334.84
3983.961, 33402.32
3985.890, 33462.57
3987.818, 33447.89
3989.747, 33459.04
3991.675, 33507.89
3993.604, 33559.67
3995.532, 33589.98
3997.460, 33602.02
3999.389, 33604.79
4001.317, 33582.77
4003.246, 33562.90
4005.174, 33510.10
4007.103, 33458.82
4009.031, 33430.38
4010.960, 33419.08
4012.888, 33407.06
4014.817, 33413.92
4016.745, 33423.84
4018.674, 33447.49
4020.602, 33471.60
4022.531, 33503.44
4024.459, 33536.58
4026.387, 33522.55
4028.316, 33503.91
4030.244, 33504.02
4032.173, 33531.39
4034.101, 33556.28
4036.030, 33551.96
4037.958, 33547.08
4039.887, 33576.38
4041.815, 33594.50
4043.744, 33563.85
4045.672, 33530.00
4047.601, 33518.57
4049.529, 33544.66
4051.458, 33548.17
4053.386, 33525.34
4055.314, 33514.71
4057.243, 33509.93
4059.171, 33513.55
4061.100, 33524.68
4063.028, 33523.96
4064.957, 33531.14
4066.885, 33539.31
4068.814, 33534.02
4070.742, 33548.87
4072.671, 33536.73
4074.599, 33524.77
4076.528, 33528.12
4078.456, 33507.45
4080.385, 33515.54
4082.313, 33476.97
4084.241, 33518.11
4086.170, 33532.24
4088.098, 33518.74
4090.027, 33548.11
4091.955, 33597.05
4093.884, 33594.18
4095.812, 33580.83
4097.741, 33575.71
4099.669, 33560.85
4101.598, 33582.88
4103.526, 33616.59
4105.455, 33660.05
4107.383, 33694.71
4109.312, 33712.26
4111.240, 33710.96
4113.168, 33704.67
4115.097, 33695.88
4117.025, 33684.61
4118.954, 33709.98
4120.882, 33722.47
4122.811, 33700.38
4124.739, 33684.84
4126.668, 33672.74
4128.596, 33670.00
4130.525, 33685.99
4132.453, 33703.27
4134.382, 33674.48
4136.310, 33643.00
4138.239, 33680.26
4140.167, 33709.30
4142.096, 33699.45
4144.024, 33659.80
4145.953, 33646.51
4147.881, 33683.02
4149.810, 33699.10
4151.738, 33697.92
4153.667, 33694.89
4155.595, 33695.18
4157.523, 33697.21
4159.452, 33718.36
4161.380, 33756.49
4163.309, 33777.93
4165.237, 33767.13
4167.166, 33720.61
4169.094, 33713.15
4171.022, 33708.62
4172.951, 33707.93
4174.879, 33722.24
4176.808, 33745.52
4178.736, 33758.68
4180.665, 33797.45
4182.593, 33888.42
4184.522, 33991.37
4186.450, 34094.20
4188.379, 34224.20
4190.307, 34367.37
4192.236, 34493.54
4194.164, 34665.44
4196.093, 34899.21
4198.021, 35201.86
4199.950, 35517.68
4201.878, 35792.39
4203.807, 36060.30
4205.735, 36310.77
4207.664, 36437.57
4209.592, 36440.54
4211.521, 36311.02
4213.449, 36129.63
4215.377, 35910.84
4217.306, 35609.57
4219.234, 35299.99
4221.163, 35030.11
4223.091, 34802.96
4225.020, 34614.77
4226.948, 34438.33
4228.876, 34318.99
4230.805, 34287.51
4232.733, 34298.24
4234.662, 34337.09
4236.590, 34400.46
4238.519, 34455.72
4240.447, 34489.33
4242.376, 34476.17
4244.304, 34429.76
4246.233, 34358.71
4248.161, 34275.86
4250.090, 34177.71
4252.018, 34104.11
4253.947, 34038.78
4255.875, 33963.52
4257.804, 33877.62
4259.732, 33783.10
4261.661, 33703.16
4263.589, 33634.88
4265.518, 33568.30
4267.446, 33544.07
4269.375, 33554.74
4271.303, 33543.81
4273.231, 33509.64
4275.160, 33446.43
4277.088, 33381.62
4279.017, 33321.89
4280.945, 33276.37
4282.874, 33241.98
4284.802, 33218.73
4286.730, 33181.50
4288.659, 33148.32
4290.587, 33130.91
4292.516, 33154.93
4294.444, 33087.95
4296.373, 33057.82
4298.301, 33020.62
4300.230, 32920.18
4302.158, 32857.55
4304.087, 32836.11
4306.015, 32831.19
4307.944, 32794.27
4309.872, 32689.71
4311.801, 32638.79
4313.729, 32627.64
4315.658, 32623.67
4317.586, 32607.71
4319.515, 32576.31
4321.443, 32517.01
4323.372, 32457.40
4325.300, 32424.95
4327.229, 32407.99
4329.157, 32399.53
4331.085, 32393.33
4333.014, 32378.75
4334.942, 32352.69
4336.871, 32287.90
4338.799, 32213.11
4340.728, 32191.18
4342.656, 32208.58
4344.584, 32257.07
4346.513, 32206.46
4348.441, 32123.68
4350.370, 32073.04
4352.298, 32043.74
4354.227, 32028.25
4356.155, 32014.40
4358.084, 32002.66
4360.012, 31999.57
4361.941, 31985.01
4363.869, 31957.72
4365.798, 31895.12
4367.726, 31872.33
4369.655, 31904.18
4371.583, 31918.20
4373.512, 31919.94
4375.440, 31922.23
4377.369, 31888.86
4379.297, 31830.34
4381.226, 31774.63
4383.154, 31736.90
4385.083, 31724.20
4387.011, 31714.74
4388.939, 31702.04
4390.868, 31681.57
4392.796, 31649.58
4394.725, 31607.16
4396.653, 31541.62
4398.582, 31504.77
4400.510, 31520.55
4402.438, 31542.73
4404.367, 31558.21
4406.295, 31541.20
4408.224, 31543.94
4410.152, 31568.74
4412.081, 31586.69
4414.009, 31610.02
4415.938, 31648.83
4417.866, 31679.42
4419.795, 31706.76
4421.723, 31751.00
4423.652, 31767.61
4425.580, 31753.10
4427.509, 31784.22
4429.437, 31813.96
4431.366, 31811.76
4433.294, 31770.58
4435.223, 31700.06
4437.151, 31609.47
4439.080, 31534.49
4441.008, 31482.98
4442.937, 31438.10
4444.865, 31367.12
4446.793, 31390.81
4448.722, 31387.57
4450.650, 31381.00
4452.579, 31441.10
4454.507, 31492.39
4456.436, 31522.73
4458.364, 31541.70
4460.292, 31570.55
4462.221, 31636.90
4464.149, 31665.37
4466.078, 31645.06
4468.006, 31537.88
4469.935, 31432.93
4471.863, 31339.81
4473.792, 31236.72
4475.720, 31127.38
4477.649, 31014.68
4479.577, 30906.20
4481.506, 30836.31
4483.434, 30865.13
4485.363, 30864.60
4487.291, 30820.30
4489.220, 30759.76
4491.148, 30663.72
4493.077, 30625.47
4495.005, 30581.35
4496.934, 30533.34
4498.862, 30528.61
4500.791, 30520.54
4502.719, 30502.77
4504.647, 30490.62
4506.576, 30470.12
4508.504, 30449.53
4510.433, 30429.66
4512.361, 30395.23
4514.290, 30381.48
4516.218, 30309.11
4518.146, 30209.48
4520.075, 30119.57
4522.003, 30066.96
4523.932, 30040.32
4525.860, 29982.29
4527.789, 29920.48
4529.717, 29868.09
4531.646, 29821.53
4533.574, 29762.15
4535.503, 29709.63
4537.431, 29656.52
4539.360, 29599.58
4541.288, 29549.58
4543.217, 29499.53
4545.145, 29448.80
4547.074, 29402.24
4549.002, 29350.01
4550.931, 29300.14
4552.859, 29249.59
4554.788, 29178.18
4556.716, 29130.04
4558.645, 29103.05
4560.573, 29085.13
4562.501, 29043.92
4564.430, 29014.23
4566.358, 29000.49
4568.287, 28981.52
4570.215, 28956.79
4572.144, 28924.76
4574.072, 28900.92
4576.000, 28900.88
4577.929, 28966.49
4579.857, 28957.81
4581.786, 28903.55
4583.714, 28889.69
4585.643, 28881.90
4587.571, 28876.09
4589.500, 28891.86
4591.428, 28893.89
4593.357, 28869.94
4595.285, 28875.04
4597.214, 28875.88
4599.142, 28815.12
4601.071, 28827.92
4602.999, 28871.08
4604.928, 28874.90
4606.856, 28837.98
4608.785, 28776.86
4610.713, 28748.66
4612.642, 28721.02
4614.570, 28687.45
4616.499, 28678.85
4618.427, 28671.98
4620.355, 28653.66
4622.284, 28619.07
4624.212, 28576.07
4626.141, 28526.06
4628.069, 28512.21
4629.998, 28518.64
4631.926, 28500.56
4633.854, 28506.62
4635.783, 28537.57
4637.711, 28580.85
4639.640, 28589.52
4641.568, 28550.55
4643.497, 28481.96
4645.425, 28458.98
4647.354, 28523.51
4649.282, 28590.30
4651.211, 28626.49
4653.139, 28599.76
4655.068, 28541.58
4656.996, 28464.27
4658.925, 28384.04
4660.853, 28320.38
4662.782, 28268.31
4664.710, 28197.47
4666.639, 28100.40
4668.567, 27989.47
4670.496, 27965.92
4672.424, 27943.46
4674.353, 27878.73
4676.281, 27835.35
4678.209, 27794.94
4680.138, 27744.60
4682.066, 27691.53
4683.995, 27653.03
4685.923, 27645.38
4687.852, 27656.78
4689.780, 27674.35
4691.708, 27692.79
4693.637, 27662.80
4695.565, 27601.77
4697.494, 27605.70
4699.422, 27544.83
4701.351, 27414.02
4703.279, 27318.79
4705.208, 27257.23
4707.136, 27226.97
4709.065, 27207.60
4710.993, 27164.29
4712.922, 27077.16
4714.850, 27026.69
4716.779, 26984.91
4718.707, 26921.19
4720.636, 26886.96
4722.564, 26855.06
4724.493, 26787.49
4726.421, 26717.06
4728.350, 26643.96
4730.278, 26550.43
4732.207, 26498.11
4734.135, 26474.36
4736.063, 26416.35
4737.992, 26385.67
4739.920, 26378.95
4741.849, 26314.49
4743.777, 26234.60
4745.706, 26157.57
4747.634, 26104.21
4749.563, 26083.63
4751.491, 26099.71
4753.419, 26095.21
4755.348, 26069.50
4757.276, 26021.07
4759.205, 25943.76
4761.133, 25884.18
4763.062, 25893.42
4764.990, 25856.61
4766.919, 25804.08
4768.847, 25763.26
4770.776, 25737.65
4772.704, 25711.41
4774.633, 25655.82
4776.561, 25634.58
4778.490, 25631.03
4780.418, 25618.79
4782.347, 25566.04
4784.275, 25513.82
4786.204, 25566.04
4788.132, 25586.92
4790.061, 25565.76
4791.989, 25530.38
4793.917, 25509.86
4795.846, 25496.91
4797.774, 25431.92
4799.703, 25384.31
4801.631, 25363.66
4803.560, 25323.54
4805.488, 25289.52
4807.417, 25266.15
4809.345, 25253.04
4811.273, 25252.64
4813.202, 25267.95
4815.130, 25306.92
4817.059, 25327.31
4818.987, 25311.78
4820.916, 25381.38
4822.844, 25427.68
4824.773, 25406.79
4826.701, 25358.37
4828.630, 25320.10
4830.558, 25315.38
4832.487, 25296.75
4834.415, 25278.54
4836.344, 25267.07
4838.272, 25266.32
4840.201, 25275.22
4842.129, 25295.70
4844.058, 25296.99
4845.986, 25305.11
4847.915, 25336.93
4849.843, 25332.17
4851.771, 25318.83
4853.700, 25325.73
4855.628, 25282.05
4857.557, 25242.47
4859.485, 25251.32
4861.414, 25185.47
4863.342, 25097.78
4865.271, 25036.79
4867.199, 24987.02
4869.127, 24912.37
4871.056, 24778.86
4872.984, 24713.24
4874.913, 24661.11
4876.841, 24566.89
4878.770, 24487.76
4880.698, 24418.87
4882.627, 24357.40
4884.555, 24265.99
4886.484, 24160.43
4888.412, 24054.47
4890.341, 23981.89
4892.269, 23941.31
4894.198, 23940.47
4896.126, 23872.24
4898.055, 23786.23
4899.983, 23720.09
4901.912, 23726.67
4903.840, 23738.62
4905.769, 23697.99
4907.697, 23667.84
4909.625, 23639.73
4911.554, 23607.70
4913.482, 23557.12
4915.411, 23504.56
4917.339, 23461.10
4919.268, 23426.74
4921.196, 23376.83
4923.125, 23300.03
4925.053, 23285.01
4926.981, 23282.45
4928.910, 23264.85
4930.838, 23207.25
4932.767, 23153.79
4934.695, 23124.29
4936.624, 23092.25
4938.552, 23093.54
4940.481, 23133.93
4942.409, 23094.93
4944.338, 23089.23
4946.266, 23144.58
4948.195, 23125.09
4950.123, 23095.09
4952.052, 23073.36
4953.980, 23052.74
4955.909, 23021.13
4957.837, 22980.72
4959.766, 22958.87
4961.694, 22928.52
4963.623, 22879.42
4965.551, 22789.80
4967.479, 22718.96
4969.408, 22678.96
4971.336, 22683.95
4973.265, 22673.58
4975.193, 22639.55
4977.122, 22580.54
4979.050, 22511.14
4980.979, 22448.59
4982.907, 22410.96
4984.835, 22417.64
4986.764, 22422.62
4988.692, 22375.71
4990.621, 22308.33
4992.549, 22252.68
4994.478, 22235.35
4996.406, 22213.88
4998.335, 22213.31
5000.263, 22246.67
5002.192, 22222.38
5004.120, 22162.01
5006.049, 22081.87
5007.977, 22008.93
5009.906, 21963.54
5011.834, 21947.75
5013.763, 21922.25
5015.691, 21911.43
5017.620, 21909.29
5019.548, 21882.80
5021.477, 21827.94
5023.405, 21762.93
5025.333, 21728.39
5027.262, 21713.67
5029.190, 21694.62
5031.119, 21622.85
5033.047, 21630.27
5034.976, 21648.72
5036.904, 21576.70
5038.833, 21574.78
5040.761, 21593.32
5042.689, 21592.07
5044.618, 21541.59
5046.546, 21495.39
5048.475, 21479.62
5050.403, 21419.41
5052.332, 21384.15
5054.260, 21384.30
5056.189, 21314.92
5058.117, 21270.38
5060.046, 21254.81
5061.974, 21217.59
5063.903, 21200.59
5065.831, 21195.36
5067.760, 21182.15
5069.688, 21131.03
5071.617, 21064.79
5073.545, 21005.92
5075.474, 21038.19
5077.402, 21084.66
5079.331, 21089.56
5081.259, 21071.59
5083.188, 21044.98
5085.116, 21014.29
5087.044, 20980.53
5088.973, 20934.63
5090.901, 20883.84
5092.830, 20871.85
5094.758, 20840.54
5096.687, 20793.53
5098.615, 20749.33
5100.543, 20726.26
5102.472, 20731.76
5104.400, 20776.23
5106.329, 20773.66
5108.257, 20748.73
5110.186, 20717.61
5112.114, 20653.74
5114.043, 20632.03
5115.971, 20652.93
5117.900, 20587.16
5119.828, 20540.71
5121.757, 20527.10
5123.685, 20522.97
5125.614, 20501.79
5127.542, 20474.86
5129.471, 20460.32
5131.399, 20428.27
5133.328, 20386.52
5135.256, 20343.40
5137.185, 20317.26
5139.113, 20285.62
5141.042, 20247.66
5142.970, 20240.25
5144.898, 20291.89
5146.827, 20353.21
5148.755, 20302.78
5150.684, 20261.81
5152.612, 20229.35
5154.541, 20187.97
5156.469, 20151.49
5158.397, 20131.22
5160.326, 20129.68
5162.254, 20127.44
5164.183, 20061.10
5166.111, 19948.24
5168.040, 19911.91
5169.968, 19901.84
5171.897, 19905.82
5173.825, 19920.61
5175.754, 19946.90
5177.682, 19949.16
5179.611, 19903.64
5181.539, 19844.31
5183.468, 19815.40
5185.396, 19816.87
5187.325, 19741.04
5189.253, 19715.50
5191.182, 19728.25
5193.110, 19719.97
5195.039, 19661.46
5196.967, 19609.95
5198.896, 19620.77
5200.824, 19605.77
5202.752, 19584.64
5204.681, 19566.44
5206.609, 19556.14
5208.538, 19586.71
5210.466, 19612.31
5212.395, 19520.25
5214.323, 19485.50
5216.251, 19478.00
5218.180, 19463.63
5220.108, 19452.38
5222.037, 19399.43
5223.965, 19314.32
5225.894, 19298.07
5227.822, 19315.29
5229.751, 19332.34
5231.679, 19308.03
5233.608, 19252.46
5235.536, 19208.51
5237.465, 19200.82
5239.393, 19171.87
5241.322, 19143.50
5243.250, 19119.54
5245.179, 19087.13
5247.107, 19064.15
5249.036, 19047.49
5250.964, 19031.56
5252.893, 18996.14
5254.821, 18974.65
5256.750, 18976.91
5258.678, 18967.88
5260.606, 18953.76
5262.535, 18932.81
5264.463, 18891.58
5266.392, 18860.78
5268.320, 18836.87
5270.249, 18814.68
5272.177, 18798.16
5274.105, 18778.48
5276.034, 18757.99
5277.962, 18753.74
5279.891, 18727.35
5281.819, 18700.75
5283.748, 18702.73
5285.676, 18714.75
5287.605, 18682.75
5289.533, 18605.96
5291.462, 18571.82
5293.390, 18551.68
5295.319, 18535.92
5297.247, 18520.35
5299.176, 18483.50
5301.104, 18446.94
5303.033, 18424.69
5304.961, 18449.57
5306.890, 18463.16
5308.818, 18453.70
5310.747, 18424.17
5312.675, 18377.78
5314.604, 18323.02
5316.532, 18268.10
5318.460, 18239.59
5320.389, 18219.58
5322.317, 18208.97
5324.246, 18221.99
5326.174, 18179.13
5328.103, 18128.08
5330.031, 18099.77
5331.959, 18050.66
5333.888, 18051.51
5335.816, 18075.26
5337.745, 18027.92
5339.673, 17993.25
5341.602, 17971.60
5343.530, 17956.30
5345.459, 17925.30
5347.387, 17901.49
5349.316, 17894.25
5351.244, 17921.91
5353.173, 17879.08
5355.101, 17828.79
5357.030, 17809.20
5358.958, 17780.67
5360.887, 17763.21
5362.815, 17750.70
5364.744, 17725.62
5366.672, 17740.06
5368.601, 17754.06
5370.529, 17742.26
5372.458, 17689.59
5374.386, 17640.88
5376.314, 17609.35
5378.243, 17603.04
5380.171, 17587.03
5382.100, 17541.29
5384.028, 17481.60
5385.957, 17494.34
5387.885, 17498.88
5389.813, 17484.82
5391.742, 17451.02
5393.670, 17434.91
5395.599, 17435.10
5397.527, 17432.46
5399.456, 17379.61
5401.384, 17366.54
5403.313, 17355.37
5405.241, 17317.72
5407.170, 17272.77
5409.098, 17267.29
5411.027, 17277.81
5412.955, 17250.92
5414.884, 17233.52
5416.812, 17209.33
5418.741, 17171.73
5420.669, 17124.95
5422.598, 17092.71
5424.526, 17052.08
5426.455, 16985.02
5428.383, 16982.27
5430.312, 16982.19
5432.240, 16969.55
5434.168, 16947.98
5436.097, 16954.15
5438.025, 16965.50
5439.954, 16961.70
5441.882, 16900.85
5443.811, 16870.99
5445.739, 16863.53
5447.667, 16852.84
5449.596, 16828.14
5451.524, 16803.37
5453.453, 16781.85
5455.381, 16759.35
5457.310, 16745.20
5459.238, 16739.72
5461.167, 16742.65
5463.095, 16765.79
5465.024, 16726.55
5466.952, 16669.63
5468.881, 16650.16
5470.809, 16608.74
5472.738, 16573.21
5474.666, 16546.62
5476.595, 16509.70
5478.523, 16519.53
5480.452, 16502.96
5482.380, 16447.97
5484.309, 16472.09
5486.237, 16448.06
5488.166, 16410.18
5490.094, 16397.42
5492.022, 16347.68
5493.951, 16389.67
5495.879, 16452.88
5497.808, 16409.44
5499.736, 16345.87
##END=



