##NAMES=Chukhrovite-(Nd)
##RRUFFID=R060601
##IDEAL CHEMISTRY=Ca_3_NdAl_2_(SO_4_)F_13_·12H_2_O
##LOCALITY=Kara-Oba tungsten deposit, Betpakdala desert, Kazakhstan
##OWNER=RRUFF
##SOURCE=Michael Scott
##DESCRIPTION=Polished colorless fragment embedded in epoxy in a microprobe mount
##STATUS=The identification of this mineral has been confirmed only by single crystal X-ray diffraction
##URL=https://www.rruff.net/odr/rruff_sample/R060601
##DIFFRACTION SAMPLE DESCRIPTION=Single crystal, powder profile is calculated
##CELL PARAMETERS=a: 16.742 b: 16.742 c: 16.742 alpha: 90 beta: 90 gamma: 90 volume: 4692.9 crystal system: cubic
##FILETYPE=Raman Processed
##RAMAN WAVELENGTH=532

215.5366, 3445.503
217.4651, 3443.586
219.3935, 3427.261
221.3220, 3405.813
223.2505, 3379.404
225.1789, 3344.254
227.1074, 3319.987
229.0359, 3315.301
230.9643, 3325.772
232.8928, 3334.368
234.8213, 3340.986
236.7497, 3345.781
238.6782, 3347.577
240.6067, 3344.662
242.5351, 3343.496
244.4636, 3344.842
246.3921, 3348.113
248.3205, 3351.624
250.2490, 3351.666
252.1775, 3354.034
254.1059, 3362.021
256.0344, 3379.171
257.9629, 3394.154
259.8913, 3404.137
261.8198, 3410.490
263.7483, 3419.424
265.6767, 3433.026
267.6052, 3448.231
269.5337, 3463.079
271.4621, 3474.777
273.3906, 3490.838
275.3191, 3513.515
277.2475, 3541.133
279.1760, 3568.458
281.1045, 3594.387
283.0329, 3620.083
284.9614, 3646.181
286.8899, 3673.519
288.8183, 3698.729
290.7468, 3720.544
292.6753, 3739.620
294.6037, 3757.421
296.5322, 3775.016
298.4607, 3790.421
300.3891, 3802.128
302.3176, 3809.418
304.2461, 3816.863
306.1745, 3826.201
308.1030, 3836.524
310.0315, 3845.653
311.9599, 3853.840
313.8884, 3861.211
315.8169, 3866.471
317.7453, 3869.382
319.6738, 3875.782
321.6023, 3887.498
323.5307, 3902.708
325.4592, 3919.590
327.3877, 3941.158
329.3161, 3960.156
331.2446, 3971.704
333.1731, 3976.454
335.1015, 3984.455
337.0300, 4001.066
338.9585, 4020.614
340.8869, 4037.198
342.8154, 4050.238
344.7439, 4063.757
346.6723, 4080.331
348.6008, 4099.772
350.5292, 4117.615
352.4577, 4130.585
354.3862, 4143.553
356.3146, 4160.659
358.2431, 4182.483
360.1716, 4203.696
362.1000, 4221.654
364.0285, 4236.784
365.9570, 4252.189
367.8854, 4267.332
369.8139, 4282.234
371.7424, 4295.629
373.6708, 4306.721
375.5993, 4321.187
377.5278, 4343.774
379.4562, 4370.222
381.3847, 4392.815
383.3132, 4409.457
385.2416, 4426.226
387.1701, 4445.970
389.0986, 4468.841
391.0270, 4491.855
392.9555, 4516.314
394.8840, 4540.375
396.8124, 4561.522
398.7409, 4577.191
400.6694, 4593.872
402.5978, 4613.335
404.5263, 4634.408
406.4548, 4654.428
408.3832, 4671.321
410.3117, 4688.247
412.2402, 4707.974
414.1686, 4731.763
416.0971, 4751.930
418.0256, 4761.112
419.9540, 4766.923
421.8825, 4781.344
423.8110, 4816.491
425.7394, 4848.323
427.6679, 4869.258
429.5964, 4880.404
431.5248, 4892.642
433.4533, 4906.066
435.3818, 4922.613
437.3102, 4943.686
439.2387, 4974.340
441.1672, 5004.743
443.0956, 5037.327
445.0241, 5069.048
446.9526, 5094.280
448.8810, 5108.856
450.8095, 5119.503
452.7380, 5127.487
454.6664, 5130.808
456.5949, 5136.892
458.5234, 5149.320
460.4518, 5162.394
462.3803, 5171.065
464.3088, 5172.223
466.2372, 5176.190
468.1657, 5186.952
470.0942, 5203.344
472.0226, 5217.866
473.9511, 5231.161
475.8796, 5242.683
477.8080, 5251.368
479.7365, 5256.312
481.6650, 5264.916
483.5934, 5277.762
485.5219, 5294.295
487.4504, 5314.435
489.3788, 5338.317
491.3073, 5363.880
493.2358, 5392.388
495.1642, 5422.255
497.0927, 5446.665
499.0212, 5457.016
500.9496, 5468.800
502.8781, 5491.273
504.8066, 5524.431
506.7350, 5551.671
508.6635, 5563.084
510.5920, 5571.354
512.5204, 5586.925
514.4489, 5617.220
516.3774, 5647.127
518.3058, 5676.401
520.2343, 5704.616
522.1628, 5731.498
524.0912, 5756.579
526.0197, 5781.108
527.9482, 5805.712
529.8766, 5830.648
531.8051, 5856.896
533.7336, 5882.661
535.6620, 5911.459
537.5905, 5945.926
539.5190, 5986.648
541.4474, 6028.054
543.3759, 6068.963
545.3044, 6108.839
547.2328, 6146.705
549.1613, 6182.195
551.0898, 6215.692
553.0182, 6249.237
554.9467, 6281.826
556.8752, 6307.430
558.8036, 6321.558
560.7321, 6332.549
562.6606, 6342.892
564.5891, 6352.129
566.5175, 6365.261
568.4460, 6383.583
570.3745, 6405.898
572.3029, 6431.412
574.2314, 6463.417
576.1599, 6489.927
578.0883, 6505.631
580.0168, 6513.431
581.9453, 6522.144
583.8737, 6532.073
585.8022, 6541.256
587.7307, 6549.875
589.6591, 6558.161
591.5876, 6563.738
593.5161, 6567.290
595.4445, 6569.228
597.3729, 6570.116
599.3014, 6570.563
601.2299, 6569.443
603.1583, 6562.948
605.0868, 6557.164
607.0153, 6557.082
608.9437, 6564.350
610.8722, 6574.946
612.8007, 6589.315
614.7291, 6606.750
616.6576, 6625.426
618.5861, 6644.953
620.5145, 6666.277
622.4430, 6688.599
624.3715, 6711.825
626.2999, 6738.954
628.2284, 6769.560
630.1569, 6802.174
632.0853, 6839.751
634.0138, 6880.593
635.9423, 6908.803
637.8707, 6916.041
639.7992, 6914.105
641.7277, 6910.732
643.6561, 6907.128
645.5846, 6901.435
647.5131, 6892.733
649.4415, 6884.965
651.3700, 6883.632
653.2985, 6891.488
655.2269, 6899.468
657.1554, 6900.629
659.0839, 6901.205
661.0123, 6913.621
662.9408, 6951.518
664.8693, 6984.806
666.7977, 7003.607
668.7262, 7011.674
670.6547, 7023.947
672.5831, 7042.424
674.5116, 7061.945
676.4401, 7080.163
678.3685, 7096.744
680.2970, 7114.782
682.2255, 7137.442
684.1539, 7158.466
686.0824, 7173.220
688.0109, 7182.059
689.9393, 7190.970
691.8678, 7199.208
693.7963, 7209.454
695.7247, 7224.453
697.6532, 7252.173
699.5817, 7270.852
701.5101, 7273.337
703.4386, 7271.683
705.3671, 7278.224
707.2955, 7293.479
709.2240, 7313.451
711.1525, 7340.123
713.0809, 7369.663
715.0094, 7396.812
716.9379, 7419.087
718.8663, 7441.617
720.7948, 7466.385
722.7233, 7491.245
724.6517, 7511.163
726.5802, 7522.141
728.5087, 7535.577
730.4371, 7555.548
732.3656, 7580.867
734.2941, 7606.577
736.2225, 7637.437
738.1510, 7663.519
740.0795, 7677.905
742.0079, 7684.327
743.9364, 7698.624
745.8649, 7729.016
747.7933, 7759.170
749.7218, 7781.466
751.6503, 7794.977
753.5787, 7812.245
755.5072, 7833.581
757.4357, 7857.066
759.3641, 7882.262
761.2926, 7908.265
763.2211, 7931.405
765.1495, 7947.608
767.0780, 7963.367
769.0065, 7982.903
770.9349, 8008.263
772.8634, 8032.272
774.7919, 8058.916
776.7203, 8083.512
778.6488, 8100.318
780.5773, 8109.248
782.5057, 8126.088
784.4342, 8157.712
786.3627, 8193.766
788.2911, 8225.951
790.2196, 8250.478
792.1481, 8276.667
794.0765, 8309.056
796.0050, 8339.088
797.9335, 8357.522
799.8619, 8363.921
801.7904, 8371.607
803.7189, 8384.034
805.6473, 8400.967
807.5758, 8422.103
809.5043, 8448.323
811.4327, 8477.901
813.3612, 8515.117
815.2897, 8551.691
817.2181, 8576.790
819.1466, 8586.798
821.0751, 8600.069
823.0035, 8622.432
824.9320, 8648.520
826.8605, 8674.766
828.7889, 8704.006
830.7174, 8728.462
832.6459, 8742.041
834.5743, 8754.629
836.5028, 8777.307
838.4313, 8812.229
840.3597, 8846.813
842.2882, 8878.306
844.2167, 8906.952
846.1451, 8933.131
848.0736, 8955.790
850.0021, 8976.604
851.9305, 8996.415
853.8590, 9014.648
855.7875, 9030.189
857.7159, 9041.019
859.6444, 9057.347
861.5729, 9086.930
863.5013, 9119.318
865.4298, 9144.487
867.3583, 9161.117
869.2867, 9181.772
871.2152, 9212.359
873.1437, 9245.623
875.0721, 9276.160
877.0006, 9302.643
878.9291, 9328.766
880.8575, 9353.482
882.7860, 9378.388
884.7145, 9403.571
886.6429, 9428.566
888.5714, 9458.585
890.4999, 9499.549
892.4283, 9540.637
894.3568, 9574.697
896.2853, 9598.709
898.2137, 9623.977
900.1422, 9648.619
902.0707, 9675.203
903.9991, 9708.005
905.9276, 9746.587
907.8561, 9779.566
909.7845, 9805.107
911.7130, 9827.113
913.6415, 9845.061
915.5699, 9858.689
917.4984, 9883.341
919.4269, 9931.417
921.3553, 9976.938
923.2838, 10008.35
925.2123, 10026.42
927.1407, 10046.95
929.0692, 10071.65
930.9976, 10095.00
932.9261, 10113.26
934.8546, 10128.88
936.7830, 10148.03
938.7115, 10173.19
940.6400, 10201.35
942.5684, 10233.67
944.4969, 10269.29
946.4254, 10305.19
948.3538, 10338.07
950.2823, 10377.06
952.2108, 10419.66
954.1392, 10471.45
956.0677, 10536.13
957.9962, 10610.52
959.9246, 10707.63
961.8531, 10814.51
963.7816, 10953.47
965.7100, 11143.98
967.6385, 11376.94
969.5670, 11689.76
971.4954, 12160.79
973.4239, 12650.98
975.3524, 13110.17
977.2808, 13542.35
979.2093, 13710.20
981.1378, 13478.58
983.0662, 13074.03
984.9947, 12558.10
986.9232, 11919.64
988.8516, 11460.56
990.7801, 11267.31
992.7086, 11162.14
994.6370, 11113.89
996.5655, 11116.09
998.4940, 11133.10
1000.422, 11169.43
1002.351, 11206.33
1004.279, 11234.32
1006.208, 11256.86
1008.136, 11281.52
1010.065, 11311.87
1011.993, 11335.96
1013.922, 11351.78
1015.850, 11364.00
1017.779, 11377.60
1019.707, 11395.23
1021.636, 11415.84
1023.564, 11441.94
1025.493, 11470.99
1027.421, 11498.59
1029.349, 11524.40
1031.278, 11558.43
1033.206, 11603.24
1035.135, 11651.82
1037.063, 11701.14
1038.992, 11750.57
1040.920, 11797.30
1042.849, 11838.78
1044.777, 11880.33
1046.706, 11924.07
1048.634, 11968.92
1050.563, 12012.72
1052.491, 12056.53
1054.420, 12097.31
1056.348, 12130.50
1058.276, 12162.94
1060.205, 12201.96
1062.133, 12249.17
1064.062, 12295.63
1065.990, 12340.83
1067.919, 12385.64
1069.847, 12428.56
1071.776, 12468.97
1073.704, 12517.41
1075.633, 12580.72
1077.561, 12640.68
1079.490, 12684.27
1081.418, 12718.32
1083.347, 12762.84
1085.275, 12823.46
1087.203, 12880.06
1089.132, 12923.34
1091.060, 12964.63
1092.989, 13017.45
1094.917, 13089.71
1096.846, 13156.08
1098.774, 13205.15
1100.703, 13256.88
1102.631, 13323.90
1104.560, 13405.08
1106.488, 13480.84
1108.417, 13551.29
1110.345, 13610.48
1112.273, 13652.30
1114.202, 13681.42
1116.130, 13706.25
1118.059, 13726.74
1119.987, 13751.77
1121.916, 13794.88
1123.844, 13840.77
1125.773, 13874.07
1127.701, 13888.36
1129.630, 13912.24
1131.558, 13940.60
1133.487, 13980.88
1135.415, 14038.35
1137.344, 14110.87
1139.272, 14186.52
1141.200, 14267.34
1143.129, 14343.23
1145.057, 14407.18
1146.986, 14463.52
1148.914, 14517.84
1150.843, 14569.37
1152.771, 14620.40
1154.700, 14674.62
1156.628, 14726.02
1158.557, 14770.59
1160.485, 14808.60
1162.414, 14848.70
1164.342, 14891.01
1166.271, 14937.99
1168.199, 14996.43
1170.127, 15059.89
1172.056, 15111.96
1173.984, 15147.93
1175.913, 15198.20
1177.841, 15280.76
1179.770, 15370.77
1181.698, 15449.76
1183.627, 15517.16
1185.555, 15585.55
1187.484, 15654.67
1189.412, 15722.42
1191.341, 15784.57
1193.269, 15843.42
1195.198, 15905.91
1197.126, 15979.18
1199.054, 16043.97
1200.983, 16090.95
1202.911, 16137.95
1204.840, 16203.80
1206.768, 16286.67
1208.697, 16358.70
1210.625, 16411.46
1212.554, 16465.18
1214.482, 16527.98
1216.411, 16596.21
1218.339, 16665.67
1220.268, 16737.36
1222.196, 16804.34
1224.125, 16861.50
1226.053, 16918.00
1227.981, 16984.00
1229.910, 17060.06
1231.838, 17121.05
1233.767, 17145.69
1235.695, 17185.57
1237.624, 17259.98
1239.552, 17351.25
1241.481, 17433.75
1243.409, 17506.54
1245.338, 17578.47
1247.266, 17653.68
1249.195, 17724.62
1251.123, 17781.83
1253.052, 17831.96
1254.980, 17896.70
1256.908, 17984.55
1258.837, 18069.54
1260.765, 18143.99
1262.694, 18213.12
1264.622, 18281.13
1266.551, 18347.52
1268.479, 18410.29
1270.408, 18464.66
1272.336, 18523.21
1274.265, 18598.49
1276.193, 18681.34
1278.122, 18749.99
1280.050, 18801.61
1281.979, 18861.50
1283.907, 18935.88
1285.835, 19015.15
1287.764, 19090.89
1289.692, 19163.34
1291.621, 19238.44
1293.549, 19317.20
1295.478, 19391.26
1297.406, 19462.78
1299.335, 19525.60
1301.263, 19571.04
1303.192, 19596.13
1305.120, 19634.98
1307.049, 19695.93
1308.977, 19764.11
1310.906, 19838.17
1312.834, 19917.68
1314.762, 20001.45
1316.691, 20090.17
1318.619, 20181.54
1320.548, 20274.62
1322.476, 20369.89
1324.405, 20467.10
1326.333, 20565.98
1328.262, 20667.00
1330.190, 20770.77
1332.119, 20873.84
1334.047, 20978.31
1335.976, 21080.88
1337.904, 21176.73
1339.833, 21268.62
1341.761, 21370.08
1343.689, 21487.77
1345.618, 21598.54
1347.546, 21692.50
1349.475, 21778.57
1351.403, 21865.28
1353.332, 21953.86
1355.260, 22038.49
1357.189, 22110.47
1359.117, 22194.94
1361.046, 22304.73
1362.974, 22426.36
1364.903, 22543.81
1366.831, 22654.37
1368.760, 22750.41
1370.688, 22811.71
1372.616, 22876.02
1374.545, 22964.57
1376.473, 23062.39
1378.402, 23146.94
1380.330, 23220.62
1382.259, 23302.74
1384.187, 23399.75
1386.116, 23508.93
1388.044, 23630.13
1389.973, 23761.11
1391.901, 23900.56
1393.830, 24049.52
1395.758, 24187.79
1397.687, 24303.07
1399.615, 24412.41
1401.543, 24517.71
1403.472, 24623.23
1405.400, 24741.58
1407.329, 24888.08
1409.257, 25021.57
1411.186, 25138.05
1413.114, 25248.33
1415.043, 25351.71
1416.971, 25453.53
1418.900, 25573.14
1420.828, 25717.45
1422.757, 25855.67
1424.685, 25978.52
1426.614, 26097.96
1428.542, 26217.81
1430.470, 26340.58
1432.399, 26473.96
1434.327, 26622.23
1436.256, 26770.22
1438.184, 26926.29
1440.113, 27069.90
1442.041, 27170.78
1443.970, 27248.59
1445.898, 27353.23
1447.827, 27489.29
1449.755, 27617.94
1451.684, 27733.98
1453.612, 27834.06
1455.541, 27918.87
1457.469, 27990.84
1459.397, 28052.12
1461.326, 28102.74
1463.254, 28160.93
1465.183, 28233.73
1467.111, 28314.21
1469.040, 28395.46
1470.968, 28480.99
1472.897, 28581.38
1474.825, 28704.38
1476.754, 28821.78
1478.682, 28924.55
1480.611, 29031.66
1482.539, 29153.52
1484.468, 29284.30
1486.396, 29411.39
1488.324, 29529.19
1490.253, 29656.85
1492.181, 29791.79
1494.110, 29930.09
1496.038, 30080.63
1497.967, 30224.47
1499.895, 30336.64
1501.824, 30419.98
1503.752, 30486.53
1505.681, 30530.05
1507.609, 30585.31
1509.538, 30677.45
1511.466, 30787.88
1513.395, 30893.53
1515.323, 30997.91
1517.251, 31123.21
1519.180, 31271.53
1521.108, 31425.49
1523.037, 31573.37
1524.965, 31718.65
1526.894, 31866.85
1528.822, 32010.63
1530.751, 32128.59
1532.679, 32215.07
1534.608, 32306.37
1536.536, 32421.14
1538.465, 32551.85
1540.393, 32707.20
1542.322, 32883.57
1544.250, 33054.25
1546.178, 33208.63
1548.107, 33395.84
1550.035, 33633.51
1551.964, 33866.07
1553.892, 34062.08
1555.821, 34233.70
1557.749, 34402.30
1559.678, 34568.18
1561.606, 34728.94
1563.535, 34899.93
1565.463, 35058.90
1567.392, 35190.73
1569.320, 35326.59
1571.249, 35491.88
1573.177, 35682.85
1575.105, 35877.45
1577.034, 36068.96
1578.962, 36267.21
1580.891, 36478.70
1582.819, 36694.18
1584.748, 36917.52
1586.676, 37147.70
1588.605, 37374.46
1590.533, 37592.66
1592.462, 37850.04
1594.390, 38162.91
1596.319, 38489.82
1598.247, 38820.03
1600.176, 39145.13
1602.104, 39452.32
1604.032, 39738.01
1605.961, 40022.21
1607.889, 40313.36
1609.818, 40578.42
1611.746, 40812.28
1613.675, 41024.88
1615.603, 41218.38
1617.532, 41402.49
1619.460, 41592.13
1621.389, 41787.99
1623.317, 41999.41
1625.246, 42236.59
1627.174, 42470.71
1629.103, 42678.33
1631.031, 42882.30
1632.959, 43110.13
1634.888, 43352.89
1636.816, 43575.70
1638.745, 43774.91
1640.673, 43963.49
1642.602, 44145.04
1644.530, 44322.63
1646.459, 44500.63
1648.387, 44680.13
1650.316, 44855.01
1652.244, 45025.75
1654.173, 45223.16
1656.101, 45456.50
1658.030, 45686.79
1659.958, 45901.68
1661.886, 46099.96
1663.815, 46274.96
1665.743, 46435.30
1667.672, 46601.11
1669.600, 46778.51
1671.529, 46959.85
1673.457, 47146.54
1675.386, 47345.33
1677.314, 47559.81
1679.243, 47786.40
1681.171, 48024.90
1683.100, 48266.29
1685.028, 48484.08
1686.957, 48666.82
1688.885, 48851.62
1690.813, 49059.51
1692.742, 49248.49
1694.670, 49385.79
1696.599, 49502.82
1698.527, 49638.66
1700.456, 49791.31
1702.384, 49935.63
1704.313, 50071.51
1706.241, 50200.75
1708.170, 50327.90
1710.098, 50448.96
1712.027, 50545.66
1713.955, 50650.08
1715.884, 50817.11
1717.812, 51041.77
1719.740, 51239.21
1721.669, 51383.82
1723.597, 51545.58
1725.526, 51751.04
1727.454, 51956.98
1729.383, 52133.38
1731.311, 52287.46
1733.240, 52436.68
1735.168, 52582.54
1737.097, 52709.51
1739.025, 52811.83
1740.954, 52930.13
1742.882, 53101.05
1744.811, 53269.77
1746.739, 53384.99
1748.667, 53484.63
1750.596, 53628.18
1752.524, 53812.70
1754.453, 54010.25
1756.381, 54228.71
1758.310, 54431.00
1760.238, 54578.64
1762.167, 54739.03
1764.095, 54969.61
1766.024, 55219.40
1767.952, 55405.99
1769.880, 55530.59
1771.809, 55652.98
1773.737, 55774.18
1775.666, 55895.87
1777.594, 56028.20
1779.523, 56159.64
1781.451, 56302.09
1783.380, 56440.03
1785.308, 56538.05
1787.237, 56604.96
1789.165, 56706.11
1791.094, 56847.81
1793.022, 57002.46
1794.951, 57186.23
1796.879, 57354.89
1798.807, 57478.57
1800.736, 57591.36
1802.664, 57723.14
1804.593, 57875.59
1806.521, 58057.22
1808.450, 58277.09
1810.378, 58478.15
1812.307, 58637.27
1814.235, 58791.80
1816.164, 58949.19
1818.092, 59100.79
1820.021, 59243.55
1821.949, 59376.33
1823.878, 59495.89
1825.806, 59606.49
1827.734, 59714.31
1829.663, 59813.93
1831.591, 59936.70
1833.520, 60104.55
1835.448, 60279.96
1837.377, 60433.96
1839.305, 60582.02
1841.234, 60750.53
1843.162, 60932.88
1845.091, 61081.24
1847.019, 61164.68
1848.948, 61282.97
1850.876, 61488.46
1852.805, 61678.63
1854.733, 61834.86
1856.661, 61968.59
1858.590, 62066.73
1860.518, 62154.91
1862.447, 62306.86
1864.375, 62524.97
1866.304, 62735.91
1868.232, 62921.91
1870.161, 63125.26
1872.089, 63369.98
1874.018, 63611.33
1875.946, 63827.27
1877.875, 64029.25
1879.803, 64235.11
1881.732, 64437.11
1883.660, 64602.59
1885.589, 64725.77
1887.517, 64857.91
1889.445, 65024.25
1891.374, 65153.72
1893.302, 65207.24
1895.231, 65236.45
1897.159, 65271.35
1899.088, 65308.86
1901.016, 65335.07
1902.945, 65356.87
1904.873, 65421.43
1906.802, 65546.13
1908.730, 65646.23
1910.659, 65680.48
1912.587, 65729.04
1914.516, 65827.00
1916.444, 65931.86
1918.372, 66000.83
1920.301, 66064.75
1922.229, 66184.83
1924.158, 66360.72
1926.086, 66519.40
1928.015, 66645.30
1929.943, 66771.41
1931.872, 66898.66
1933.800, 67010.80
1935.729, 67106.69
1937.657, 67181.48
1939.586, 67224.95
1941.514, 67258.88
1943.443, 67324.56
1945.371, 67423.63
1947.299, 67505.61
1949.228, 67564.19
1951.156, 67636.77
1953.085, 67740.01
1955.013, 67824.05
1956.942, 67855.82
1958.870, 67881.76
1960.799, 67927.01
1962.727, 67992.64
1964.656, 68088.89
1966.584, 68205.52
1968.513, 68294.50
1970.441, 68345.42
1972.370, 68394.92
1974.298, 68439.80
1976.226, 68482.59
1978.155, 68538.72
1980.083, 68579.50
1982.012, 68588.20
1983.940, 68586.02
1985.869, 68582.89
1987.797, 68591.23
1989.726, 68656.66
1991.654, 68793.17
1993.583, 68887.79
1995.511, 68914.87
1997.440, 68931.68
1999.368, 68933.58
2001.297, 68934.96
2003.225, 68949.29
2005.153, 68962.84
2007.082, 68975.54
2009.010, 68984.00
2010.939, 68974.89
2012.867, 68956.30
2014.796, 68951.70
2016.724, 68960.29
2018.653, 68994.28
2020.581, 69051.81
2022.510, 69128.17
2024.438, 69229.75
2026.367, 69328.98
2028.295, 69413.07
2030.224, 69483.89
2032.152, 69554.95
2034.080, 69613.92
2036.009, 69623.90
2037.937, 69585.02
2039.866, 69552.05
2041.794, 69513.83
2043.723, 69507.36
2045.651, 69573.66
2047.580, 69611.27
2049.508, 69552.63
2051.437, 69517.95
2053.365, 69607.22
2055.294, 69713.70
2057.222, 69722.23
2059.151, 69661.59
2061.079, 69599.54
2063.008, 69539.99
2064.936, 69513.64
2066.865, 69531.84
2068.793, 69542.04
2070.721, 69525.43
2072.650, 69528.99
2074.578, 69593.63
2076.507, 69641.34
2078.435, 69600.27
2080.364, 69537.98
2082.292, 69539.26
2084.220, 69560.09
2086.149, 69493.63
2088.077, 69346.99
2090.006, 69263.81
2091.934, 69282.00
2093.863, 69263.67
2095.791, 69184.86
2097.720, 69118.37
2099.648, 69068.55
2101.577, 69035.24
2103.505, 69031.64
2105.434, 69025.23
2107.362, 68996.71
2109.291, 68959.61
2111.219, 68929.06
2113.147, 68912.46
2115.076, 68917.59
2117.004, 68943.35
2118.933, 68977.63
2120.861, 69007.02
2122.790, 69023.15
2124.718, 69003.02
2126.647, 68964.76
2128.575, 68927.24
2130.504, 68854.94
2132.432, 68731.82
2134.361, 68596.14
2136.289, 68488.53
2138.218, 68408.73
2140.146, 68345.69
2142.074, 68299.14
2144.003, 68253.75
2145.931, 68202.14
2147.860, 68163.98
2149.788, 68131.33
2151.717, 68111.02
2153.645, 68115.91
2155.574, 68108.13
2157.502, 68094.09
2159.431, 68053.65
2161.359, 67955.54
2163.288, 67854.08
2165.216, 67815.20
2167.145, 67796.48
2169.073, 67698.22
2171.001, 67542.86
2172.930, 67491.04
2174.858, 67540.41
2176.787, 67533.86
2178.715, 67451.01
2180.644, 67362.24
2182.572, 67283.16
2184.501, 67188.27
2186.429, 67055.56
2188.358, 66939.95
2190.286, 66893.35
2192.215, 66851.73
2194.143, 66765.27
2196.072, 66661.88
2198.000, 66569.69
2199.928, 66486.58
2201.857, 66416.95
2203.785, 66358.08
2205.714, 66260.94
2207.642, 66121.92
2209.571, 66024.30
2211.499, 65987.58
2213.428, 65943.22
2215.356, 65877.89
2217.285, 65803.64
2219.213, 65686.48
2221.142, 65600.65
2223.070, 65607.71
2224.999, 65617.66
2226.927, 65566.52
2228.855, 65477.30
2230.784, 65365.07
2232.712, 65247.95
2234.641, 65177.26
2236.569, 65148.36
2238.498, 65073.24
2240.426, 64949.33
2242.355, 64873.65
2244.283, 64864.78
2246.212, 64801.98
2248.140, 64644.99
2250.069, 64482.40
2251.997, 64312.02
2253.926, 64183.74
2255.854, 64155.68
2257.782, 64128.77
2259.711, 64038.61
2261.639, 63923.94
2263.568, 63812.55
2265.496, 63700.50
2267.425, 63585.75
2269.353, 63468.67
2271.282, 63351.66
2273.210, 63238.64
2275.139, 63124.09
2277.067, 63010.29
2278.996, 62918.66
2280.924, 62861.43
2282.853, 62785.13
2284.781, 62663.74
2286.709, 62540.62
2288.638, 62406.12
2290.566, 62283.49
2292.495, 62192.97
2294.423, 62104.57
2296.352, 62001.63
2298.280, 61906.03
2300.209, 61840.92
2302.137, 61787.99
2304.066, 61725.21
2305.994, 61653.71
2307.923, 61575.88
2309.851, 61488.36
2311.780, 61390.47
2313.708, 61278.93
2315.636, 61173.80
2317.565, 61081.49
2319.493, 60970.88
2321.422, 60842.00
2323.350, 60714.59
2325.279, 60601.64
2327.207, 60480.93
2329.136, 60337.02
2331.064, 60205.89
2332.993, 60079.95
2334.921, 59989.82
2336.850, 59982.93
2338.778, 59969.63
2340.707, 59858.14
2342.635, 59720.54
2344.563, 59666.58
2346.492, 59632.79
2348.420, 59483.75
2350.349, 59277.47
2352.277, 59166.39
2354.206, 59136.37
2356.134, 59080.24
2358.063, 58987.44
2359.991, 58919.70
2361.920, 58887.73
2363.848, 58818.99
2365.777, 58705.11
2367.705, 58572.13
2369.634, 58428.84
2371.562, 58267.26
2373.490, 58080.72
2375.419, 57905.89
2377.347, 57748.73
2379.276, 57619.27
2381.204, 57539.12
2383.133, 57461.63
2385.061, 57348.84
2386.990, 57233.52
2388.918, 57152.39
2390.847, 57081.28
2392.775, 56991.79
2394.704, 56887.45
2396.632, 56761.21
2398.561, 56624.16
2400.489, 56518.45
2402.417, 56435.38
2404.346, 56338.09
2406.274, 56230.98
2408.203, 56100.76
2410.131, 55942.92
2412.060, 55824.26
2413.988, 55756.77
2415.917, 55682.10
2417.845, 55582.18
2419.774, 55502.67
2421.702, 55455.71
2423.631, 55392.64
2425.559, 55276.04
2427.488, 55178.78
2429.416, 55156.46
2431.344, 55114.13
2433.273, 54996.48
2435.201, 54873.55
2437.130, 54789.66
2439.058, 54699.79
2440.987, 54576.16
2442.915, 54429.59
2444.844, 54258.67
2446.772, 54089.02
2448.701, 53963.08
2450.629, 53861.41
2452.558, 53732.81
2454.486, 53602.44
2456.415, 53540.35
2458.343, 53528.64
2460.271, 53497.70
2462.200, 53444.21
2464.128, 53382.38
2466.057, 53308.05
2467.985, 53203.07
2469.914, 53060.14
2471.842, 52939.18
2473.771, 52863.16
2475.699, 52766.63
2477.628, 52648.00
2479.556, 52532.81
2481.485, 52421.30
2483.413, 52318.98
2485.342, 52222.68
2487.270, 52132.96
2489.198, 52051.09
2491.127, 51970.65
2493.055, 51894.41
2494.984, 51823.16
2496.912, 51759.65
2498.841, 51705.24
2500.769, 51671.05
2502.698, 51623.56
2504.626, 51531.16
2506.555, 51422.23
2508.483, 51317.05
2510.412, 51200.59
2512.340, 51052.14
2514.269, 50905.00
2516.197, 50813.76
2518.125, 50732.55
2520.054, 50579.56
2521.982, 50411.26
2523.911, 50313.30
2525.839, 50249.81
2527.768, 50163.05
2529.696, 50056.13
2531.625, 49938.64
2533.553, 49818.30
2535.482, 49718.19
2537.410, 49637.60
2539.339, 49544.32
2541.267, 49442.03
2543.196, 49357.44
2545.124, 49285.34
2547.052, 49228.28
2548.981, 49183.81
2550.909, 49096.31
2552.838, 48959.14
2554.766, 48817.99
2556.695, 48678.40
2558.623, 48547.38
2560.552, 48434.48
2562.480, 48306.50
2564.409, 48148.38
2566.337, 48025.16
2568.266, 47972.91
2570.194, 47893.24
2572.123, 47757.70
2574.051, 47662.45
2575.979, 47635.77
2577.908, 47594.03
2579.836, 47496.03
2581.765, 47426.51
2583.693, 47446.50
2585.622, 47429.71
2587.550, 47296.98
2589.479, 47201.04
2591.407, 47205.36
2593.336, 47188.74
2595.264, 47100.18
2597.193, 46996.58
2599.121, 46902.93
2601.050, 46804.02
2602.978, 46687.66
2604.906, 46580.83
2606.835, 46507.00
2608.763, 46441.41
2610.692, 46378.32
2612.620, 46312.43
2614.549, 46229.59
2616.477, 46151.07
2618.406, 46097.79
2620.334, 46040.41
2622.263, 45953.06
2624.191, 45860.61
2626.120, 45782.44
2628.048, 45713.89
2629.977, 45654.71
2631.905, 45599.75
2633.833, 45533.40
2635.762, 45470.37
2637.690, 45440.97
2639.619, 45398.84
2641.547, 45285.98
2643.476, 45147.74
2645.404, 45035.70
2647.333, 44933.42
2649.261, 44814.71
2651.190, 44707.54
2653.118, 44654.09
2655.047, 44620.88
2656.975, 44558.14
2658.904, 44483.23
2660.832, 44430.46
2662.760, 44371.87
2664.689, 44266.89
2666.617, 44139.20
2668.546, 44016.14
2670.474, 43905.09
2672.403, 43822.11
2674.331, 43756.73
2676.260, 43696.88
2678.188, 43637.42
2680.117, 43566.41
2682.045, 43491.84
2683.974, 43425.96
2685.902, 43364.03
2687.831, 43291.16
2689.759, 43219.41
2691.688, 43194.91
2693.616, 43172.25
2695.544, 43066.25
2697.473, 42922.34
2699.401, 42814.95
2701.330, 42736.66
2703.258, 42683.97
2705.187, 42641.86
2707.115, 42581.79
2709.044, 42508.77
2710.972, 42424.40
2712.901, 42336.52
2714.829, 42250.27
2716.758, 42178.52
2718.686, 42155.38
2720.615, 42157.30
2722.543, 42150.84
2724.471, 42133.17
2726.400, 42086.00
2728.328, 42031.29
2730.257, 42019.89
2732.185, 42008.53
2734.114, 41912.95
2736.042, 41789.21
2737.971, 41734.96
2739.899, 41700.33
2741.828, 41614.02
2743.756, 41516.15
2745.685, 41458.44
2747.613, 41420.21
2749.542, 41384.25
2751.470, 41336.38
2753.398, 41255.54
2755.327, 41160.89
2757.255, 41077.59
2759.184, 40993.78
2761.112, 40884.91
2763.041, 40787.60
2764.969, 40750.06
2766.898, 40732.01
2768.826, 40701.39
2770.755, 40667.70
2772.683, 40624.22
2774.612, 40591.54
2776.540, 40599.07
2778.469, 40600.36
2780.397, 40566.68
2782.325, 40504.26
2784.254, 40392.39
2786.182, 40288.73
2788.111, 40256.05
2790.039, 40215.28
2791.968, 40111.53
2793.896, 40014.25
2795.825, 39962.32
2797.753, 39919.16
2799.682, 39869.77
2801.610, 39819.80
2803.539, 39755.17
2805.467, 39708.40
2807.396, 39689.72
2809.324, 39674.17
2811.252, 39660.15
2813.181, 39624.91
2815.109, 39551.98
2817.038, 39476.33
2818.966, 39411.94
2820.895, 39341.65
2822.823, 39267.78
2824.752, 39184.32
2826.680, 39071.79
2828.609, 39003.75
2830.537, 38998.51
2832.466, 39008.61
2834.394, 39037.31
2836.323, 39011.69
2838.251, 38909.60
2840.179, 38857.93
2842.108, 38886.73
2844.036, 38888.96
2845.965, 38864.66
2847.893, 38829.19
2849.822, 38783.79
2851.750, 38752.46
2853.679, 38732.55
2855.607, 38691.36
2857.536, 38630.32
2859.464, 38568.57
2861.393, 38512.38
2863.321, 38492.79
2865.250, 38497.31
2867.178, 38477.93
2869.106, 38444.62
2871.035, 38407.32
2872.963, 38375.79
2874.892, 38386.19
2876.820, 38398.93
2878.749, 38346.74
2880.677, 38279.80
2882.606, 38278.32
2884.534, 38282.75
2886.463, 38224.95
2888.391, 38155.94
2890.320, 38099.14
2892.248, 38064.61
2894.177, 38085.50
2896.105, 38090.23
2898.033, 38027.25
2899.962, 37961.36
2901.890, 37918.79
2903.819, 37878.32
2905.747, 37830.18
2907.676, 37783.46
2909.604, 37735.80
2911.533, 37697.62
2913.461, 37674.27
2915.390, 37649.95
2917.318, 37631.75
2919.247, 37584.82
2921.175, 37496.98
2923.104, 37433.05
2925.032, 37394.60
2926.960, 37377.90
2928.889, 37381.32
2930.817, 37339.40
2932.746, 37254.94
2934.674, 37172.38
2936.603, 37096.46
2938.531, 37044.92
2940.460, 37015.25
2942.388, 37010.93
2944.317, 37011.59
2946.245, 36966.42
2948.174, 36905.72
2950.102, 36867.64
2952.031, 36843.95
2953.959, 36826.70
2955.887, 36818.65
2957.816, 36847.99
2959.744, 36845.70
2961.673, 36751.22
2963.601, 36657.45
2965.530, 36616.33
2967.458, 36575.44
2969.387, 36518.72
2971.315, 36466.29
2973.244, 36427.02
2975.172, 36381.34
2977.101, 36323.32
2979.029, 36263.05
2980.958, 36192.38
2982.886, 36154.68
2984.814, 36147.93
2986.743, 36126.11
2988.671, 36084.50
2990.600, 36013.71
2992.528, 35924.38
2994.457, 35879.22
2996.385, 35860.31
2998.314, 35815.50
3000.242, 35765.75
3002.171, 35751.09
3004.099, 35743.61
3006.028, 35702.94
3007.956, 35657.30
3009.885, 35621.32
3011.813, 35595.82
3013.741, 35573.68
3015.670, 35572.72
3017.598, 35614.38
3019.527, 35635.30
3021.455, 35610.17
3023.384, 35575.91
3025.312, 35538.02
3027.241, 35495.81
3029.169, 35449.06
3031.098, 35417.54
3033.026, 35405.70
3034.955, 35401.55
3036.883, 35404.07
3038.812, 35371.84
3040.740, 35320.23
3042.668, 35304.08
3044.597, 35307.91
3046.525, 35302.87
3048.454, 35297.48
3050.382, 35301.95
3052.311, 35314.34
3054.239, 35337.14
3056.168, 35361.43
3058.096, 35392.69
3060.025, 35406.09
3061.953, 35390.70
3063.882, 35361.91
3065.810, 35310.20
3067.739, 35288.78
3069.667, 35332.05
3071.595, 35335.24
3073.524, 35296.75
3075.452, 35241.75
3077.381, 35173.74
3079.309, 35119.89
3081.238, 35076.71
3083.166, 35035.15
3085.095, 34996.60
3087.023, 34970.65
3088.952, 34946.10
3090.880, 34921.16
3092.809, 34883.30
3094.737, 34819.74
3096.666, 34754.60
3098.594, 34688.96
3100.522, 34644.77
3102.451, 34635.94
3104.379, 34630.31
3106.308, 34622.79
3108.236, 34602.83
3110.165, 34561.98
3112.093, 34548.55
3114.022, 34562.73
3115.950, 34530.16
3117.879, 34467.19
3119.807, 34419.34
3121.736, 34387.70
3123.664, 34375.52
3125.593, 34376.15
3127.521, 34391.15
3129.449, 34396.59
3131.378, 34351.47
3133.306, 34327.02
3135.235, 34363.56
3137.163, 34392.88
3139.092, 34396.59
3141.020, 34398.59
3142.949, 34408.01
3144.877, 34397.29
3146.806, 34367.05
3148.734, 34335.58
3150.663, 34302.38
3152.591, 34260.27
3154.520, 34211.32
3156.448, 34145.08
3158.376, 34089.44
3160.305, 34078.66
3162.233, 34084.23
3164.162, 34092.84
3166.090, 34089.61
3168.019, 34053.77
3169.947, 34034.57
3171.876, 34057.39
3173.804, 34056.29
3175.733, 34025.00
3177.661, 33997.37
3179.590, 33974.05
3181.518, 33923.57
3183.447, 33858.89
3185.375, 33809.90
3187.303, 33778.29
3189.232, 33765.82
3191.160, 33765.58
3193.089, 33779.43
3195.017, 33785.53
3196.946, 33769.52
3198.874, 33757.86
3200.803, 33767.15
3202.731, 33762.69
3204.660, 33737.39
3206.588, 33731.52
3208.517, 33743.30
3210.445, 33746.36
3212.374, 33739.39
3214.302, 33729.84
3216.230, 33705.75
3218.159, 33629.95
3220.087, 33562.87
3222.016, 33571.23
3223.944, 33580.83
3225.873, 33562.00
3227.801, 33535.77
3229.730, 33502.24
3231.658, 33487.88
3233.587, 33500.85
3235.515, 33479.27
3237.444, 33431.02
3239.372, 33401.09
3241.301, 33390.68
3243.229, 33405.18
3245.157, 33431.91
3247.086, 33472.18
3249.014, 33486.65
3250.943, 33429.73
3252.871, 33371.17
3254.800, 33334.54
3256.728, 33296.08
3258.657, 33262.69
3260.585, 33203.12
3262.514, 33123.33
3264.442, 33078.14
3266.371, 33060.48
3268.299, 33050.45
3270.228, 33038.59
3272.156, 33005.19
3274.084, 32967.76
3276.013, 32935.35
3277.941, 32908.38
3279.870, 32895.37
3281.798, 32880.87
3283.727, 32867.44
3285.655, 32843.19
3287.584, 32809.34
3289.512, 32797.01
3291.441, 32792.80
3293.369, 32751.20
3295.298, 32702.68
3297.226, 32692.21
3299.155, 32680.37
3301.083, 32636.71
3303.011, 32602.23
3304.940, 32600.32
3306.868, 32598.74
3308.797, 32598.58
3310.725, 32570.81
3312.654, 32519.82
3314.582, 32479.28
3316.511, 32449.81
3318.439, 32435.74
3320.368, 32426.12
3322.296, 32405.05
3324.225, 32394.93
3326.153, 32424.23
3328.082, 32420.08
3330.010, 32356.23
3331.938, 32328.34
3333.867, 32344.74
3335.795, 32341.83
3337.724, 32325.29
3339.652, 32324.54
3341.581, 32314.72
3343.509, 32246.40
3345.438, 32182.85
3347.366, 32184.10
3349.295, 32161.87
3351.223, 32082.39
3353.152, 32017.32
3355.080, 31973.25
3357.009, 31945.32
3358.937, 31929.61
3360.865, 31912.85
3362.794, 31897.24
3364.722, 31873.82
3366.651, 31867.48
3368.579, 31911.03
3370.508, 31944.67
3372.436, 31947.45
3374.365, 31960.16
3376.293, 31995.58
3378.222, 31982.30
3380.150, 31938.09
3382.079, 31938.60
3384.007, 31954.56
3385.936, 31930.86
3387.864, 31917.63
3389.792, 31957.62
3391.721, 31986.88
3393.649, 31957.70
3395.578, 31988.58
3397.506, 32083.21
3399.435, 32142.97
3401.363, 32170.53
3403.292, 32162.13
3405.220, 32160.79
3407.148, 32224.08
3409.077, 32298.63
3411.005, 32361.35
3412.934, 32398.50
3414.862, 32400.22
3416.791, 32426.11
3418.719, 32481.83
3420.648, 32492.00
3422.576, 32488.92
3424.505, 32539.39
3426.433, 32619.31
3428.362, 32713.40
3430.290, 32811.12
3432.219, 32899.01
3434.147, 33009.15
3436.075, 33142.19
3438.004, 33308.71
3439.932, 33490.39
3441.861, 33599.37
3443.789, 33690.43
3445.718, 33866.03
3447.646, 34042.45
3449.575, 34158.04
3451.503, 34296.43
3453.432, 34480.26
3455.360, 34668.56
3457.289, 34852.52
3459.217, 35001.13
3461.146, 35106.90
3463.074, 35150.54
3465.002, 35146.97
3466.931, 35122.59
3468.859, 35021.01
3470.788, 34813.29
3472.716, 34623.93
3474.645, 34472.90
3476.573, 34239.71
3478.502, 33947.97
3480.430, 33679.70
3482.359, 33409.20
3484.287, 33095.43
3486.216, 32809.36
3488.144, 32592.51
3490.073, 32348.81
3492.001, 32049.53
3493.929, 31774.12
3495.858, 31519.94
3497.786, 31295.18
3499.715, 31081.61
3501.643, 30853.58
3503.572, 30646.76
3505.500, 30485.38
3507.429, 30337.72
3509.357, 30200.03
3511.286, 30048.32
3513.214, 29897.81
3515.143, 29819.78
3517.071, 29767.27
3519.000, 29681.50
3520.928, 29603.29
3522.856, 29563.44
3524.785, 29517.35
3526.713, 29462.63
3528.642, 29385.67
3530.570, 29306.41
3532.499, 29318.53
3534.427, 29342.23
3536.356, 29273.88
3538.284, 29225.08
3540.213, 29263.88
3542.141, 29254.69
3544.070, 29183.49
3545.998, 29109.54
3547.927, 29043.85
3549.855, 29024.15
3551.783, 29006.07
3553.712, 28934.43
3555.640, 28879.40
3557.569, 28866.95
3559.497, 28805.96
3561.426, 28687.46
3563.354, 28607.87
3565.283, 28543.85
3567.211, 28454.80
3569.140, 28355.38
3571.068, 28252.05
3572.997, 28157.13
3574.925, 28079.46
3576.854, 27975.81
3578.782, 27851.49
3580.710, 27747.52
3582.639, 27656.14
3584.567, 27574.57
3586.496, 27485.19
3588.424, 27379.71
3590.353, 27260.83
3592.281, 27125.10
3594.210, 27022.53
3596.138, 26936.62
3598.067, 26815.71
3599.995, 26701.96
3601.924, 26643.60
3603.852, 26570.42
3605.781, 26437.62
3607.709, 26365.72
3609.637, 26344.48
3611.566, 26296.79
3613.494, 26235.54
3615.423, 26171.75
3617.351, 26117.00
3619.280, 26085.85
3621.208, 26031.74
3623.137, 25949.76
3625.065, 25887.47
3626.994, 25843.05
3628.922, 25812.48
3630.851, 25788.72
3632.779, 25774.27
3634.708, 25740.69
3636.636, 25672.83
3638.564, 25622.86
3640.493, 25584.50
3642.421, 25532.10
3644.350, 25468.29
3646.278, 25388.84
3648.207, 25318.11
3650.135, 25275.65
3652.064, 25219.99
3653.992, 25152.94
3655.921, 25100.36
3657.849, 25052.26
3659.778, 24990.47
3661.706, 24932.02
3663.635, 24895.65
3665.563, 24832.49
3667.491, 24742.35
3669.420, 24738.97
3671.348, 24766.13
3673.277, 24700.40
3675.205, 24621.06
3677.134, 24576.54
3679.062, 24539.01
3680.991, 24507.16
3682.919, 24435.83
3684.848, 24352.44
3686.776, 24336.66
3688.705, 24333.64
3690.633, 24308.78
3692.562, 24267.78
3694.490, 24209.46
3696.418, 24158.06
3698.347, 24112.45
3700.275, 24065.13
3702.204, 24026.12
3704.132, 24027.92
3706.061, 23975.62
3707.989, 23835.27
3709.918, 23763.47
3711.846, 23739.07
3713.775, 23667.33
3715.703, 23586.47
3717.632, 23521.32
3719.560, 23475.90
3721.489, 23454.28
3723.417, 23447.11
3725.345, 23439.00
3727.274, 23364.72
3729.202, 23289.16
3731.131, 23273.18
3733.059, 23247.57
3734.988, 23189.18
3736.916, 23141.96
3738.845, 23100.08
3740.773, 23039.07
3742.702, 22982.67
3744.630, 22956.27
3746.559, 22925.31
3748.487, 22882.22
3750.416, 22837.50
3752.344, 22792.34
3754.272, 22748.54
3756.201, 22704.86
3758.129, 22655.64
3760.058, 22620.29
3761.986, 22606.63
3763.915, 22585.89
3765.843, 22549.66
3767.772, 22462.94
3769.700, 22384.30
3771.629, 22347.30
3773.557, 22309.02
3775.486, 22262.24
3777.414, 22211.44
3779.343, 22163.36
3781.271, 22137.31
3783.199, 22103.24
3785.128, 22044.63
3787.056, 22008.63
3788.985, 21994.28
3790.913, 21920.57
3792.842, 21841.86
3794.770, 21826.87
3796.699, 21823.65
3798.627, 21821.86
3800.556, 21772.62
3802.484, 21689.15
3804.413, 21636.26
3806.341, 21590.12
3808.270, 21527.41
3810.198, 21476.99
3812.126, 21444.09
3814.055, 21427.86
3815.983, 21413.39
3817.912, 21353.99
3819.840, 21309.05
3821.769, 21332.52
3823.697, 21313.40
3825.626, 21244.45
3827.554, 21206.67
3829.483, 21175.70
3831.411, 21121.38
3833.340, 21053.95
3835.268, 20969.20
3837.197, 20941.81
3839.125, 20952.81
3841.053, 20918.73
3842.982, 20863.88
3844.910, 20792.61
3846.839, 20747.65
3848.767, 20731.22
3850.696, 20686.70
3852.624, 20632.77
3854.553, 20610.28
3856.481, 20588.26
3858.410, 20556.52
3860.338, 20523.98
3862.267, 20490.57
3864.195, 20440.80
3866.124, 20391.34
3868.052, 20354.23
3869.980, 20318.08
3871.909, 20278.48
3873.837, 20216.66
3875.766, 20154.51
3877.694, 20152.79
3879.623, 20125.18
3881.551, 20032.49
3883.480, 19974.47
3885.408, 19952.91
3887.337, 19941.21
3889.265, 19922.96
3891.194, 19872.50
3893.122, 19832.64
3895.051, 19808.76
3896.979, 19786.79
3898.907, 19754.65
3900.836, 19686.86
3902.764, 19621.86
3904.693, 19572.17
3906.621, 19544.96
3908.550, 19530.82
3910.478, 19501.13
3912.407, 19458.71
3914.335, 19400.64
3916.264, 19338.36
3918.192, 19278.58
3920.121, 19282.63
3922.049, 19285.26
3923.978, 19188.97
3925.906, 19116.24
3927.834, 19108.81
3929.763, 19096.85
3931.691, 19071.96
3933.620, 19010.77
3935.548, 18949.21
3937.477, 18900.95
3939.405, 18861.23
3941.334, 18827.01
3943.262, 18798.08
3945.191, 18759.57
3947.119, 18691.15
3949.048, 18640.39
3950.976, 18612.47
3952.905, 18576.59
3954.833, 18541.09
3956.761, 18517.26
3958.690, 18486.71
3960.618, 18445.40
3962.547, 18399.38
3964.475, 18358.21
3966.404, 18348.68
3968.332, 18330.49
3970.261, 18285.41
3972.189, 18237.69
3974.118, 18192.89
3976.046, 18170.28
3977.975, 18138.94
3979.903, 18078.00
3981.832, 18035.73
3983.760, 18014.67
3985.688, 18029.15
3987.617, 18023.03
3989.545, 17942.39
3991.474, 17881.46
3993.402, 17850.67
3995.331, 17833.21
3997.259, 17812.27
3999.188, 17762.72
4001.116, 17730.62
4003.045, 17719.70
4004.973, 17687.86
4006.902, 17643.50
4008.830, 17593.82
4010.759, 17547.46
4012.687, 17506.20
4014.615, 17476.87
4016.544, 17446.70
4018.472, 17388.85
4020.401, 17336.50
4022.329, 17302.24
4024.258, 17264.25
4026.186, 17233.99
4028.115, 17244.19
4030.043, 17235.94
4031.972, 17186.77
4033.900, 17160.28
4035.829, 17145.76
4037.757, 17102.79
4039.686, 17065.97
4041.614, 17052.38
4043.542, 17038.38
4045.471, 17015.23
4047.399, 16945.33
4049.328, 16891.32
4051.256, 16909.09
4053.185, 16872.32
4055.113, 16805.57
4057.042, 16796.66
4058.970, 16789.01
4060.899, 16749.95
4062.827, 16735.98
4064.756, 16735.04
4066.684, 16684.29
4068.613, 16625.54
4070.541, 16584.27
4072.469, 16525.23
4074.398, 16455.25
4076.326, 16404.75
4078.255, 16366.39
4080.183, 16341.27
4082.112, 16311.87
4084.040, 16281.81
4085.969, 16271.02
4087.897, 16255.10
4089.826, 16215.80
4091.754, 16191.73
4093.683, 16174.44
4095.611, 16124.31
4097.540, 16076.86
4099.468, 16051.69
4101.396, 16028.82
4103.325, 16004.16
4105.253, 15966.62
4107.182, 15924.12
4109.110, 15876.14
4111.039, 15839.87
4112.967, 15811.05
4114.896, 15783.42
4116.824, 15747.32
4118.752, 15688.71
4120.681, 15673.43
4122.609, 15675.92
4124.538, 15638.61
4126.466, 15593.76
4128.395, 15550.46
4130.323, 15529.50
4132.252, 15520.00
4134.180, 15513.15
4136.109, 15479.17
4138.037, 15412.78
4139.966, 15386.66
4141.894, 15377.27
4143.823, 15348.81
4145.751, 15317.58
4147.680, 15286.10
4149.608, 15289.71
4151.537, 15294.89
4153.465, 15260.42
4155.394, 15225.04
4157.322, 15194.62
4159.250, 15158.99
4161.179, 15122.28
4163.107, 15090.04
4165.036, 15051.19
4166.964, 15010.72
4168.893, 15002.85
4170.821, 14991.56
4172.750, 14949.21
4174.678, 14915.03
4176.606, 14889.91
4178.535, 14866.97
4180.463, 14851.58
4182.392, 14845.78
4184.320, 14831.83
4186.249, 14806.83
4188.177, 14760.40
4190.106, 14726.84
4192.034, 14714.04
4193.963, 14680.02
4195.891, 14644.22
4197.820, 14635.98
4199.748, 14620.08
4201.677, 14591.67
4203.605, 14559.28
4205.534, 14532.56
4207.462, 14518.32
4209.391, 14510.75
4211.319, 14504.82
4213.248, 14484.52
4215.176, 14462.89
4217.104, 14448.29
4219.033, 14422.18
4220.961, 14392.58
4222.890, 14387.15
4224.818, 14361.62
4226.747, 14296.98
4228.675, 14285.13
4230.604, 14287.00
4232.532, 14240.59
4234.460, 14235.26
4236.389, 14273.82
4238.317, 14263.41
4240.246, 14244.33
4242.174, 14245.76
4244.103, 14227.23
##END=



