##NAMES=Cinnabar
##RRUFFID=R050072
##IDEAL CHEMISTRY=HgS
##LOCALITY=Gui Zhu, Hunan Province, China
##OWNER=RRUFF
##SOURCE=Rock Currier
##DESCRIPTION=Red single crystal associated with calcite
##STATUS=The identification of this mineral has been confirmed by X-ray diffraction and chemical analysis
##URL=https://www.rruff.net/odr/rruff_sample/R050072
##MEASURED CHEMISTRY=Hg_1.00_S_1.00_
##DIFFRACTION SAMPLE DESCRIPTION=Powder
##CELL PARAMETERS=a: 4.1484 b: 4.1484 c: 9.4962 alpha: 90 beta: 90 gamma: 120 volume: 141.53 crystal system: hexagonal
##FILETYPE=Raman RAW
##RAMAN WAVELENGTH=532

126.6641, 496.4287
128.5926, 500.2054
130.5210, 508.9413
132.4495, 522.2862
134.3780, 541.9992
136.3064, 572.6949
138.2349, 599.5790
140.1634, 620.8726
142.0918, 637.6150
144.0203, 645.6981
145.9488, 642.1414
147.8772, 633.6488
149.8057, 626.2390
151.7342, 620.1215
153.6626, 613.9827
155.5911, 607.1685
157.5196, 599.4310
159.4480, 592.7928
161.3765, 587.0684
163.3050, 582.2103
165.2334, 578.0792
167.1619, 575.6523
169.0904, 573.3040
171.0188, 570.0881
172.9473, 565.5840
174.8758, 562.6495
176.8042, 562.8603
178.7327, 564.5072
180.6612, 565.4448
182.5896, 567.0328
184.5181, 567.1351
186.4466, 563.2325
188.3750, 554.8594
190.3035, 550.0626
192.2320, 552.6680
194.1604, 559.1289
196.0889, 563.2488
198.0174, 563.1815
199.9458, 563.9157
201.8743, 567.9277
203.8028, 576.6209
205.7312, 582.6536
207.6597, 582.7905
209.5882, 581.3131
211.5166, 584.6167
213.4451, 595.7927
215.3736, 606.5076
217.3020, 612.8644
219.2305, 611.9052
221.1590, 615.2205
223.0874, 623.2943
225.0159, 636.7111
226.9444, 654.4698
228.8728, 676.4166
230.8013, 702.5557
232.7298, 728.8458
234.6582, 755.9454
236.5867, 801.1762
238.5152, 859.7264
240.4436, 943.2573
242.3721, 1069.130
244.3006, 1276.399
246.2290, 1482.565
248.1575, 1692.339
250.0860, 1896.405
252.0145, 2032.319
253.9429, 2060.904
255.8714, 2032.261
257.7999, 1983.840
259.7283, 1916.740
261.6568, 1842.096
263.5853, 1757.519
265.5137, 1663.757
267.4422, 1575.103
269.3707, 1491.534
271.2991, 1413.478
273.2276, 1341.047
275.1561, 1275.696
277.0845, 1215.931
279.0130, 1158.809
280.9415, 1101.677
282.8699, 1058.681
284.7984, 1037.393
286.7269, 1022.093
288.6553, 1005.219
290.5838, 987.7081
292.5123, 965.5569
294.4407, 933.5908
296.3692, 897.0184
298.2977, 869.3496
300.2261, 854.3627
302.1546, 843.0208
304.0831, 831.2331
306.0115, 820.2448
307.9400, 808.8965
309.8685, 795.3876
311.7969, 781.0016
313.7254, 770.0067
315.6539, 763.6971
317.5823, 759.7674
319.5108, 757.0874
321.4393, 755.3553
323.3677, 753.3198
325.2962, 748.1852
327.2247, 744.5801
329.1531, 745.0817
331.0816, 749.7213
333.0101, 759.2238
334.9385, 776.2347
336.8670, 799.0254
338.7955, 818.9226
340.7239, 838.5848
342.6524, 852.5714
344.5809, 858.3005
346.5093, 851.4475
348.4378, 844.4401
350.3663, 838.4478
352.2947, 832.3709
354.2232, 825.1094
356.1517, 815.9141
358.0801, 806.6255
360.0086, 797.7473
361.9371, 789.3954
363.8655, 781.5757
365.7940, 772.9977
367.7225, 765.9344
369.6509, 762.1582
371.5794, 764.2894
373.5079, 764.5967
375.4363, 760.0047
377.3648, 751.5588
379.2933, 745.7427
381.2217, 743.6169
383.1502, 742.6361
385.0787, 741.2964
387.0071, 738.6218
388.9356, 738.8517
390.8641, 745.0388
392.7925, 753.2756
394.7210, 757.4844
396.6495, 755.4331
398.5779, 752.9471
400.5064, 751.0088
402.4349, 750.8826
404.3633, 754.3995
406.2918, 767.7353
408.2203, 778.7304
410.1487, 780.0780
412.0772, 769.1114
414.0057, 761.6693
415.9341, 762.3701
417.8626, 767.6996
419.7911, 769.9802
421.7195, 766.0368
423.6480, 764.3831
425.5765, 770.2698
427.5049, 783.9614
429.4334, 793.3579
431.3619, 793.5551
433.2903, 791.4100
435.2188, 794.3934
437.1473, 804.6724
439.0757, 813.1270
441.0042, 815.8165
442.9327, 814.4271
444.8611, 812.3563
446.7896, 804.5986
448.7181, 800.9557
450.6465, 809.8676
452.5750, 830.1677
454.5035, 844.5669
456.4319, 844.8561
458.3604, 840.3591
460.2889, 839.4896
462.2173, 846.2267
464.1458, 851.4165
466.0743, 847.5786
468.0027, 840.0026
469.9312, 839.2962
471.8597, 852.2663
473.7881, 865.6341
475.7166, 876.1133
477.6451, 881.0043
479.5735, 881.0546
481.5020, 872.3836
483.4305, 865.2151
485.3589, 864.7292
487.2874, 875.1900
489.2159, 883.9235
491.1443, 887.9326
493.0728, 887.8489
495.0013, 888.6023
496.9297, 890.5334
498.8582, 892.7731
500.7867, 896.0969
502.7151, 901.0777
504.6436, 903.7344
506.5721, 898.0529
508.5005, 893.5514
510.4290, 896.9883
512.3575, 907.2586
514.2859, 917.7554
516.2144, 931.4216
518.1429, 942.4240
520.0714, 944.9025
521.9998, 934.5169
523.9283, 927.9722
525.8568, 930.9025
527.7852, 939.6951
529.7137, 947.0856
531.6422, 950.6979
533.5706, 952.9650
535.4991, 958.6326
537.4276, 965.7776
539.3560, 968.7139
541.2845, 962.8297
543.2130, 965.2723
545.1414, 974.2081
547.0699, 988.8145
548.9984, 994.2100
550.9268, 991.2416
552.8553, 990.9592
554.7838, 997.8696
556.7122, 1010.875
558.6407, 1018.430
560.5692, 1017.251
562.4976, 1015.736
564.4261, 1019.851
566.3546, 1035.695
568.2830, 1047.373
570.2115, 1050.402
572.1400, 1047.722
574.0684, 1047.511
575.9969, 1054.414
577.9254, 1063.331
579.8538, 1068.148
581.7823, 1069.349
583.7108, 1074.623
585.6392, 1086.266
587.5677, 1092.938
589.4962, 1095.954
591.4246, 1098.209
593.3531, 1103.757
595.2816, 1110.231
597.2100, 1118.532
599.1385, 1123.916
601.0670, 1120.673
602.9954, 1115.688
604.9239, 1119.942
606.8524, 1132.996
608.7808, 1149.982
610.7093, 1168.467
612.6378, 1182.149
614.5662, 1188.845
616.4947, 1190.562
618.4232, 1193.116
620.3516, 1199.144
622.2801, 1207.227
624.2086, 1213.112
626.1370, 1215.304
628.0655, 1214.089
629.9940, 1214.340
631.9224, 1215.693
633.8509, 1219.215
635.7794, 1226.522
637.7078, 1238.911
639.6363, 1252.640
641.5648, 1263.671
643.4932, 1271.354
645.4217, 1276.688
647.3502, 1277.635
649.2786, 1277.231
651.2071, 1280.880
653.1356, 1291.743
655.0640, 1307.334
656.9925, 1322.106
658.9210, 1327.843
660.8494, 1327.695
662.7779, 1324.740
664.7064, 1329.867
666.6348, 1335.521
668.5633, 1339.210
670.4918, 1342.151
672.4202, 1346.295
674.3487, 1350.831
676.2772, 1360.270
678.2056, 1376.285
680.1341, 1394.830
682.0626, 1409.501
683.9910, 1419.201
685.9195, 1425.458
687.8480, 1427.330
689.7764, 1428.563
691.7049, 1433.757
693.6334, 1443.926
695.5618, 1453.557
697.4903, 1461.542
699.4188, 1469.106
701.3472, 1477.613
703.2757, 1486.862
705.2042, 1494.894
707.1326, 1500.525
709.0611, 1506.535
710.9896, 1518.188
712.9180, 1531.345
714.8465, 1541.697
716.7750, 1547.674
718.7034, 1557.201
720.6319, 1570.655
722.5604, 1583.437
724.4888, 1592.707
726.4173, 1599.129
728.3458, 1608.276
730.2742, 1615.959
732.2027, 1614.482
734.1312, 1613.587
736.0596, 1619.630
737.9881, 1636.543
739.9166, 1655.388
741.8450, 1672.684
743.7735, 1686.135
745.7020, 1696.529
747.6304, 1706.111
749.5589, 1711.781
751.4874, 1716.289
753.4158, 1724.305
755.3443, 1739.040
757.2728, 1749.298
759.2012, 1758.963
761.1297, 1770.519
763.0582, 1782.508
764.9866, 1788.691
766.9151, 1798.810
768.8436, 1815.256
770.7720, 1835.130
772.7005, 1850.114
774.6290, 1857.046
776.5574, 1860.703
778.4859, 1866.665
780.4144, 1877.988
782.3428, 1893.794
784.2713, 1912.524
786.1998, 1922.124
788.1282, 1933.072
790.0567, 1954.966
791.9852, 1977.187
793.9136, 1983.954
795.8421, 1974.798
797.7706, 1974.629
799.6990, 1994.432
801.6275, 2018.566
803.5560, 2037.044
805.4844, 2044.387
807.4129, 2057.867
809.3414, 2087.304
811.2698, 2113.922
813.1983, 2118.062
815.1268, 2105.681
817.0552, 2104.401
818.9837, 2123.538
820.9122, 2145.729
822.8406, 2166.741
824.7691, 2185.664
826.6976, 2200.676
828.6260, 2210.656
830.5545, 2224.375
832.4830, 2247.181
834.4114, 2270.167
836.3399, 2288.358
838.2684, 2302.312
840.1968, 2314.679
842.1253, 2320.008
844.0538, 2317.885
845.9822, 2326.145
847.9107, 2352.262
849.8392, 2379.807
851.7676, 2405.614
853.6961, 2425.852
855.6246, 2438.091
857.5530, 2435.855
859.4815, 2439.099
861.4100, 2458.377
863.3384, 2488.874
865.2669, 2511.986
867.1954, 2520.916
869.1238, 2529.992
871.0523, 2541.304
872.9808, 2555.279
874.9092, 2570.668
876.8377, 2587.877
878.7662, 2605.717
880.6946, 2625.903
882.6231, 2646.136
884.5516, 2661.979
886.4800, 2666.482
888.4085, 2677.204
890.3370, 2698.658
892.2654, 2726.848
894.1939, 2755.477
896.1224, 2785.212
898.0508, 2812.167
899.9793, 2834.250
901.9078, 2852.450
903.8362, 2867.963
905.7647, 2878.609
907.6932, 2892.773
909.6216, 2916.105
911.5501, 2941.166
913.4786, 2957.890
915.4070, 2962.278
917.3355, 2975.133
919.2640, 3006.922
921.1924, 3040.387
923.1209, 3062.017
925.0494, 3071.327
926.9778, 3087.692
928.9063, 3120.739
930.8348, 3154.196
932.7632, 3179.295
934.6917, 3199.573
936.6202, 3219.513
938.5486, 3236.913
940.4771, 3249.878
942.4056, 3264.348
944.3341, 3286.840
946.2626, 3307.646
948.1910, 3320.667
950.1195, 3334.465
952.0480, 3357.015
953.9764, 3387.435
955.9049, 3414.172
957.8334, 3434.037
959.7618, 3450.404
961.6903, 3462.688
963.6188, 3480.234
965.5472, 3502.688
967.4757, 3527.114
969.4042, 3552.888
971.3326, 3581.314
973.2611, 3612.869
975.1896, 3647.992
977.1180, 3689.424
979.0465, 3723.391
980.9750, 3740.983
982.9034, 3754.811
984.8319, 3778.146
986.7604, 3820.155
988.6888, 3862.796
990.6173, 3903.892
992.5458, 3934.631
994.4742, 3956.943
996.4027, 3979.131
998.3312, 3999.468
1000.260, 4009.324
1002.188, 4012.865
1004.117, 4027.694
1006.045, 4072.061
1007.974, 4113.864
1009.902, 4138.481
1011.830, 4153.134
1013.759, 4170.937
1015.687, 4206.996
1017.616, 4238.914
1019.544, 4258.868
1021.473, 4282.164
1023.401, 4325.588
1025.330, 4375.468
1027.258, 4416.051
1029.187, 4446.019
1031.115, 4472.816
1033.044, 4495.316
1034.972, 4521.740
1036.901, 4557.774
1038.829, 4598.895
1040.757, 4641.831
1042.686, 4689.782
1044.614, 4732.336
1046.543, 4758.153
1048.471, 4770.451
1050.400, 4784.438
1052.328, 4804.743
1054.257, 4836.054
1056.185, 4880.612
1058.114, 4930.515
1060.042, 4976.347
1061.971, 5015.286
1063.899, 5046.283
1065.828, 5067.026
1067.756, 5080.204
1069.684, 5102.077
1071.613, 5133.381
1073.541, 5174.021
1075.470, 5230.280
1077.398, 5290.377
1079.327, 5327.936
1081.255, 5349.902
1083.184, 5382.673
1085.112, 5426.650
1087.041, 5464.736
1088.969, 5493.021
1090.898, 5529.016
1092.826, 5583.591
1094.755, 5652.277
1096.683, 5710.730
1098.611, 5742.347
1100.540, 5756.436
1102.468, 5783.104
1104.397, 5824.162
1106.325, 5868.930
1108.254, 5906.272
1110.182, 5935.898
1112.111, 5981.046
1114.039, 6067.619
1115.968, 6151.694
1117.896, 6195.240
1119.825, 6204.563
1121.753, 6221.354
1123.682, 6268.834
1125.610, 6312.272
1127.538, 6337.024
1129.467, 6357.652
1131.395, 6391.347
1133.324, 6442.388
1135.252, 6494.983
1137.181, 6552.983
1139.109, 6610.092
1141.038, 6658.187
1142.966, 6697.921
1144.895, 6744.333
1146.823, 6805.828
1148.752, 6855.012
1150.680, 6877.671
1152.609, 6887.421
1154.537, 6907.302
1156.465, 6934.575
1158.394, 6980.153
1160.322, 7064.109
1162.251, 7157.437
1164.179, 7227.701
1166.108, 7261.623
1168.036, 7303.956
1169.965, 7353.663
1171.893, 7396.414
1173.822, 7447.055
1175.750, 7504.624
1177.679, 7543.584
1179.607, 7550.749
1181.536, 7580.999
1183.464, 7654.520
1185.392, 7732.535
1187.321, 7783.185
1189.249, 7807.295
1191.178, 7855.170
1193.106, 7933.136
1195.035, 8013.903
1196.963, 8094.314
1198.892, 8177.278
1200.820, 8248.673
1202.749, 8289.203
1204.677, 8324.345
1206.606, 8372.659
1208.534, 8434.107
1210.463, 8492.325
1212.391, 8539.136
1214.319, 8593.356
1216.248, 8673.995
1218.176, 8763.334
1220.105, 8836.904
1222.033, 8889.094
1223.962, 8928.287
1225.890, 8956.820
1227.819, 8997.466
1229.747, 9059.400
1231.676, 9132.749
1233.604, 9196.083
1235.533, 9239.071
1237.461, 9289.851
1239.390, 9356.483
1241.318, 9428.659
1243.246, 9507.138
1245.175, 9597.476
1247.103, 9682.934
1249.032, 9754.980
1250.960, 9810.401
1252.889, 9840.800
1254.817, 9868.324
1256.746, 9933.100
1258.674, 10041.45
1260.603, 10135.66
1262.531, 10193.72
1264.460, 10235.11
1266.388, 10282.31
1268.317, 10341.31
1270.245, 10410.03
1272.173, 10484.88
1274.102, 10570.39
1276.030, 10674.60
1277.959, 10782.63
1279.887, 10881.84
1281.816, 10971.08
1283.744, 11044.10
1285.673, 11088.17
1287.601, 11129.93
1289.530, 11185.34
1291.458, 11255.17
1293.387, 11322.00
1295.315, 11381.09
1297.244, 11452.31
1299.172, 11559.47
1301.100, 11667.32
1303.029, 11738.59
1304.957, 11779.52
1306.886, 11841.45
1308.814, 11939.39
1310.743, 12035.79
1312.671, 12105.02
1314.600, 12170.27
1316.528, 12256.44
1318.457, 12365.69
1320.385, 12467.55
1322.314, 12560.35
1324.242, 12648.98
1326.171, 12732.72
1328.099, 12804.21
1330.027, 12859.81
1331.956, 12878.86
1333.884, 12926.12
1335.813, 13025.74
1337.741, 13133.30
1339.670, 13218.65
1341.598, 13289.71
1343.527, 13381.43
1345.455, 13509.69
1347.384, 13620.35
1349.312, 13667.77
1351.241, 13711.19
1353.169, 13813.11
1355.098, 13962.46
1357.026, 14088.82
1358.954, 14178.92
1360.883, 14261.45
1362.811, 14347.96
1364.740, 14430.59
1366.668, 14494.74
1368.597, 14534.71
1370.525, 14599.70
1372.454, 14717.49
1374.382, 14838.03
1376.311, 14945.74
1378.239, 15040.63
1380.168, 15124.25
1382.096, 15170.13
1384.025, 15254.67
1385.953, 15421.08
1387.881, 15577.74
1389.810, 15673.51
1391.738, 15724.39
1393.667, 15783.28
1395.595, 15849.04
1397.524, 15929.33
1399.452, 16028.98
1401.381, 16141.01
1403.309, 16262.25
1405.238, 16391.70
1407.166, 16524.68
1409.095, 16666.51
1411.023, 16781.04
1412.952, 16831.82
1414.880, 16880.39
1416.808, 16973.54
1418.737, 17101.81
1420.665, 17227.44
1422.594, 17352.41
1424.522, 17463.92
1426.451, 17546.56
1428.379, 17622.68
1430.308, 17703.60
1432.236, 17786.87
1434.165, 17872.07
1436.093, 17958.13
1438.022, 18049.77
1439.950, 18165.69
1441.879, 18280.55
1443.807, 18360.65
1445.735, 18401.93
1447.664, 18479.81
1449.592, 18635.51
1451.521, 18767.59
1453.449, 18822.80
1455.378, 18870.58
1457.306, 18987.07
1459.235, 19169.06
1461.163, 19319.60
1463.092, 19431.14
1465.020, 19542.02
1466.949, 19657.25
1468.877, 19774.21
1470.806, 19893.27
1472.734, 20014.32
1474.662, 20132.04
1476.591, 20243.87
1478.519, 20348.99
1480.448, 20431.46
1482.376, 20513.92
1484.305, 20635.17
1486.233, 20792.26
1488.162, 20912.01
1490.090, 20973.03
1492.019, 21036.30
1493.947, 21111.62
1495.876, 21212.35
1497.804, 21363.78
1499.733, 21543.57
1501.661, 21657.27
1503.589, 21664.03
1505.518, 21713.44
1507.446, 21894.00
1509.375, 22085.82
1511.303, 22208.95
1513.232, 22273.61
1515.160, 22333.42
1517.089, 22384.56
1519.017, 22482.67
1520.946, 22684.44
1522.874, 22878.27
1524.803, 22986.52
1526.731, 23042.74
1528.660, 23163.77
1530.588, 23379.68
1532.516, 23550.33
1534.445, 23633.82
1536.373, 23710.15
1538.302, 23803.31
1540.230, 23914.94
1542.159, 24052.80
1544.087, 24237.28
1546.016, 24390.42
1547.944, 24478.51
1549.873, 24563.42
1551.801, 24667.70
1553.730, 24794.24
1555.658, 24945.66
1557.587, 25131.09
1559.515, 25273.39
1561.443, 25316.09
1563.372, 25394.95
1565.300, 25571.77
1567.229, 25775.61
1569.157, 25926.46
1571.086, 26017.34
1573.014, 26127.95
1574.943, 26286.81
1576.871, 26431.78
1578.800, 26542.79
1580.728, 26644.26
1582.657, 26762.75
1584.585, 26892.88
1586.514, 27000.63
1588.442, 27075.21
1590.370, 27182.92
1592.299, 27360.02
1594.227, 27537.91
1596.156, 27676.57
1598.084, 27793.94
1600.013, 27916.13
1601.941, 28039.95
1603.870, 28188.05
1605.798, 28405.38
1607.727, 28575.48
1609.655, 28626.03
1611.584, 28652.47
1613.512, 28741.90
1615.441, 28887.61
1617.369, 29042.42
1619.297, 29208.96
1621.226, 29367.97
1623.154, 29492.96
1625.083, 29620.87
1627.011, 29769.48
1628.940, 29930.52
1630.868, 30094.90
1632.797, 30264.27
1634.725, 30434.29
1636.654, 30625.82
1638.582, 30787.73
1640.511, 30875.34
1642.439, 30949.89
1644.368, 31060.03
1646.296, 31195.57
1648.224, 31337.57
1650.153, 31481.01
1652.081, 31635.82
1654.010, 31841.36
1655.938, 32017.00
1657.867, 32083.81
1659.795, 32116.13
1661.724, 32239.02
1663.652, 32451.52
1665.581, 32626.79
1667.509, 32723.31
1669.438, 32844.14
1671.366, 33031.41
1673.295, 33244.87
1675.223, 33471.76
1677.151, 33696.89
1679.080, 33871.88
1681.008, 33988.00
1682.937, 34101.95
1684.865, 34218.35
1686.794, 34338.37
1688.722, 34460.12
1690.651, 34589.03
1692.579, 34757.12
1694.508, 34949.39
1696.436, 35050.05
1698.365, 35017.18
1700.293, 35038.54
1702.222, 35180.66
1704.150, 35365.39
1706.078, 35558.19
1708.007, 35759.88
1709.935, 35983.85
1711.864, 36225.19
1713.792, 36404.52
1715.721, 36478.75
1717.649, 36567.02
1719.578, 36717.90
1721.506, 36873.80
1723.435, 36974.55
1725.363, 37059.95
1727.292, 37241.37
1729.220, 37532.73
1731.149, 37735.27
1733.077, 37790.79
1735.005, 37843.37
1736.934, 37944.25
1738.862, 38056.62
1740.791, 38133.39
1742.719, 38198.04
1744.648, 38329.93
1746.576, 38538.77
1748.505, 38723.10
1750.433, 38860.28
1752.362, 38985.75
1754.290, 39117.50
1756.219, 39235.43
1758.147, 39311.18
1760.076, 39362.88
1762.004, 39457.25
1763.932, 39621.88
1765.861, 39732.57
1767.789, 39712.83
1769.718, 39734.51
1771.646, 39854.85
1773.575, 40019.21
1775.503, 40194.59
1777.432, 40371.48
1779.360, 40524.32
1781.289, 40654.66
1783.217, 40753.26
1785.146, 40800.28
1787.074, 40850.13
1789.003, 40922.47
1790.931, 41005.11
1792.859, 41085.85
1794.788, 41173.44
1796.716, 41287.77
1798.645, 41430.88
1800.573, 41591.34
1802.502, 41783.86
1804.430, 41959.52
1806.359, 42067.76
1808.287, 42183.47
1810.216, 42394.89
1812.144, 42633.06
1814.073, 42734.93
1816.001, 42683.65
1817.930, 42683.84
1819.858, 42778.36
1821.786, 42872.89
1823.715, 42931.20
1825.643, 43024.82
1827.572, 43204.18
1829.500, 43431.89
1831.429, 43656.12
1833.357, 43869.26
1835.286, 44051.62
1837.214, 44186.48
1839.143, 44293.77
1841.071, 44357.20
1843.000, 44413.20
1844.928, 44491.28
1846.857, 44574.18
1848.785, 44646.83
1850.714, 44721.52
1852.642, 44825.00
1854.570, 44964.18
1856.499, 45094.38
1858.427, 45204.30
1860.356, 45302.77
1862.284, 45379.50
1864.213, 45450.12
1866.141, 45518.93
1868.070, 45594.02
1869.998, 45695.06
1871.927, 45825.37
1873.855, 45955.66
1875.784, 46112.32
1877.712, 46215.36
1879.641, 46194.63
1881.569, 46190.38
1883.497, 46268.30
1885.426, 46385.62
1887.354, 46494.57
1889.283, 46602.14
1891.211, 46747.92
1893.140, 46968.41
1895.068, 47124.86
1896.997, 47171.45
1898.925, 47220.66
1900.854, 47295.54
1902.782, 47374.50
1904.711, 47433.01
1906.639, 47495.90
1908.568, 47620.54
1910.496, 47799.02
1912.424, 47905.07
1914.353, 47909.07
1916.281, 47980.70
1918.210, 48187.12
1920.138, 48377.35
1922.067, 48466.67
1923.995, 48535.73
1925.924, 48665.28
1927.852, 48800.23
1929.781, 48822.84
1931.709, 48747.51
1933.638, 48756.87
1935.566, 48897.33
1937.495, 49012.59
1939.423, 49075.15
1941.351, 49116.02
1943.280, 49139.18
1945.208, 49155.60
1947.137, 49146.97
1949.065, 49147.30
1950.994, 49256.01
1952.922, 49489.10
1954.851, 49644.81
1956.779, 49643.19
1958.708, 49701.89
1960.636, 49870.90
1962.565, 50029.75
1964.493, 50131.21
1966.422, 50202.44
1968.350, 50251.75
1970.278, 50291.29
1972.207, 50372.75
1974.135, 50494.16
1976.064, 50513.12
1977.992, 50400.50
1979.921, 50345.86
1981.849, 50414.64
1983.778, 50492.22
1985.706, 50529.01
1987.635, 50558.94
1989.563, 50577.36
1991.492, 50613.29
1993.420, 50744.96
1995.349, 50952.25
1997.277, 51051.59
1999.205, 50996.63
2001.134, 50994.58
2003.062, 51111.18
2004.991, 51203.50
2006.919, 51229.39
2008.848, 51240.70
2010.776, 51270.77
2012.705, 51296.95
2014.633, 51279.38
2016.562, 51233.21
2018.490, 51235.63
2020.419, 51296.36
2022.347, 51321.95
2024.276, 51301.91
2026.204, 51276.36
2028.132, 51250.08
2030.061, 51232.11
2031.989, 51201.94
2033.918, 51204.36
2035.846, 51325.41
2037.775, 51474.82
2039.703, 51472.16
2041.632, 51341.11
2043.560, 51286.79
2045.489, 51330.52
2047.417, 51378.11
2049.346, 51419.45
2051.274, 51470.02
2053.203, 51564.87
2055.131, 51622.14
2057.060, 51578.37
2058.988, 51495.32
2060.917, 51415.55
2062.845, 51350.70
2064.773, 51343.11
2066.702, 51392.29
2068.630, 51424.13
2070.559, 51437.59
2072.487, 51449.81
2074.416, 51469.94
2076.344, 51475.53
2078.273, 51423.58
2080.201, 51398.53
2082.130, 51481.39
2084.058, 51577.64
2085.987, 51557.81
2087.915, 51481.64
2089.844, 51525.18
2091.772, 51687.89
2093.700, 51735.99
2095.629, 51619.67
2097.557, 51495.32
2099.486, 51357.61
2101.414, 51233.95
2103.343, 51163.42
2105.271, 51082.98
2107.200, 50949.20
2109.128, 50828.43
2111.057, 50802.46
2112.985, 50817.68
2114.914, 50751.13
2116.842, 50627.02
2118.771, 50592.54
2120.699, 50650.86
2122.627, 50735.01
2124.556, 50898.96
2126.484, 50936.55
2128.413, 50702.12
2130.341, 50492.64
2132.270, 50433.07
2134.198, 50414.99
2136.127, 50401.94
2138.055, 50373.43
2139.984, 50290.31
2141.912, 50171.57
2143.841, 50062.96
2145.769, 49966.86
2147.698, 49929.51
2149.626, 49958.62
2151.554, 49981.24
2153.483, 49976.52
2155.411, 49980.70
2157.340, 50029.98
2159.268, 50051.38
2161.197, 49974.42
2163.125, 49895.21
2165.054, 49922.91
2166.982, 49975.79
2168.911, 49906.86
2170.839, 49754.76
2172.768, 49707.02
2174.696, 49764.98
2176.625, 49733.96
2178.553, 49590.44
2180.481, 49468.38
2182.410, 49391.06
2184.338, 49322.46
2186.267, 49266.09
2188.195, 49194.62
2190.124, 49056.84
2192.052, 48946.80
2193.981, 48974.61
2195.909, 49045.50
2197.838, 49032.50
2199.766, 48962.58
2201.695, 48897.96
2203.623, 48838.29
2205.552, 48832.48
2207.480, 48879.80
2209.408, 48939.17
2211.337, 49021.03
2213.265, 49012.72
2215.194, 48826.15
2217.122, 48660.99
2219.051, 48643.49
2220.979, 48610.24
2222.908, 48456.35
2224.836, 48278.14
2226.765, 48156.48
2228.693, 48080.73
2230.622, 48038.39
2232.550, 48022.43
2234.479, 47991.14
2236.407, 47944.45
2238.335, 47934.21
2240.264, 47966.29
2242.192, 47951.08
2244.121, 47851.15
2246.049, 47766.30
2247.978, 47750.15
2249.906, 47697.34
2251.835, 47528.66
2253.763, 47379.30
2255.692, 47365.22
2257.620, 47366.66
2259.549, 47277.80
2261.477, 47148.84
2263.406, 47048.66
2265.334, 46967.70
2267.262, 46865.71
2269.191, 46747.60
2271.119, 46673.70
2273.048, 46645.93
2274.976, 46610.08
2276.905, 46558.73
2278.833, 46504.00
2280.762, 46438.73
2282.690, 46385.64
2284.619, 46366.68
2286.547, 46335.07
2288.476, 46253.05
2290.404, 46175.43
2292.333, 46167.14
2294.261, 46142.73
2296.189, 46011.81
2298.118, 45830.98
2300.046, 45669.39
2301.975, 45534.23
2303.903, 45439.23
2305.832, 45385.17
2307.760, 45393.51
2309.689, 45500.82
2311.617, 45484.44
2313.546, 45308.71
2315.474, 45128.21
2317.403, 44936.54
2319.331, 44825.58
2321.260, 44872.38
2323.188, 44897.41
2325.116, 44821.93
2327.045, 44715.09
2328.973, 44591.71
2330.902, 44468.86
2332.830, 44359.00
2334.759, 44257.51
2336.687, 44169.30
2338.616, 44084.76
2340.544, 43986.19
2342.473, 43875.27
2344.401, 43743.87
2346.330, 43596.63
2348.258, 43471.44
2350.187, 43369.68
2352.115, 43281.41
2354.043, 43196.88
2355.972, 43144.41
2357.900, 43157.89
2359.829, 43133.44
2361.757, 43059.86
2363.686, 42939.04
2365.614, 42727.12
2367.543, 42541.63
2369.471, 42473.89
2371.400, 42407.34
2373.328, 42263.87
2375.257, 42103.91
2377.185, 41963.26
2379.114, 41857.71
2381.042, 41855.96
2382.970, 41880.15
2384.899, 41715.36
2386.827, 41432.93
2388.756, 41311.52
2390.684, 41325.09
2392.613, 41309.85
2394.541, 41258.01
2396.470, 41164.63
2398.398, 41015.13
2400.327, 40874.08
2402.255, 40767.65
2404.184, 40621.94
2406.112, 40407.23
2408.041, 40221.74
2409.969, 40086.64
2411.897, 39978.23
2413.826, 39878.89
2415.754, 39809.86
2417.683, 39823.54
2419.611, 39806.85
2421.540, 39662.71
2423.468, 39484.10
2425.397, 39370.95
2427.325, 39253.68
2429.254, 39012.08
2431.182, 38748.00
2433.111, 38644.34
2435.039, 38634.64
2436.968, 38563.34
2438.896, 38444.85
2440.824, 38347.28
2442.753, 38265.35
2444.681, 38149.99
2446.610, 37992.60
2448.538, 37875.66
2450.467, 37808.57
2452.395, 37680.19
2454.324, 37460.14
2456.252, 37320.64
2458.181, 37340.84
2460.109, 37312.98
2462.038, 37143.24
2463.966, 37019.50
2465.895, 37049.29
2467.823, 37002.26
2469.751, 36764.93
2471.680, 36534.37
2473.608, 36377.45
2475.537, 36272.58
2477.465, 36261.17
2479.394, 36234.42
2481.322, 36113.52
2483.251, 35949.95
2485.179, 35782.26
2487.108, 35615.33
2489.036, 35417.86
2490.965, 35250.58
2492.893, 35253.51
2494.822, 35318.88
2496.750, 35232.77
2498.678, 35037.30
2500.607, 34847.20
2502.535, 34670.11
2504.464, 34572.93
2506.392, 34550.74
2508.321, 34516.68
2510.249, 34468.63
2512.178, 34366.24
2514.106, 34203.12
2516.035, 34053.97
2517.963, 33921.15
2519.892, 33813.78
2521.820, 33745.84
2523.749, 33671.90
2525.677, 33599.44
2527.605, 33484.12
2529.534, 33297.29
2531.462, 33141.24
2533.391, 33051.09
2535.319, 32969.00
2537.248, 32890.63
2539.176, 32804.58
2541.105, 32707.04
2543.033, 32610.65
2544.962, 32534.22
2546.890, 32439.30
2548.819, 32252.57
2550.747, 32118.67
2552.676, 32188.21
2554.604, 32238.29
2556.532, 32085.60
2558.461, 31890.58
2560.389, 31775.61
2562.318, 31680.93
2564.246, 31576.37
2566.175, 31449.01
2568.103, 31248.73
2570.032, 31054.35
2571.960, 30973.18
2573.889, 30952.76
2575.817, 30939.02
2577.746, 30907.31
2579.674, 30792.45
2581.603, 30635.00
2583.531, 30515.04
2585.459, 30428.41
2587.388, 30378.52
2589.316, 30347.38
2591.245, 30262.97
2593.173, 30129.95
2595.102, 29979.18
2597.030, 29816.17
2598.959, 29701.46
2600.887, 29627.15
2602.816, 29511.23
2604.744, 29354.57
2606.673, 29244.34
2608.601, 29188.04
2610.530, 29117.93
2612.458, 29031.89
2614.386, 28953.12
2616.315, 28882.01
2618.243, 28783.67
2620.172, 28647.21
2622.100, 28537.14
2624.029, 28470.77
2625.957, 28396.41
2627.886, 28322.36
2629.814, 28188.65
2631.743, 27971.61
2633.671, 27815.58
2635.600, 27760.85
2637.528, 27693.41
2639.457, 27585.58
2641.385, 27491.19
2643.313, 27417.56
2645.242, 27345.43
2647.170, 27270.21
2649.099, 27210.65
2651.027, 27199.80
2652.956, 27120.23
2654.884, 26867.27
2656.813, 26682.78
2658.741, 26624.36
2660.670, 26578.26
2662.598, 26534.94
2664.527, 26470.19
2666.455, 26375.30
2668.384, 26260.07
2670.312, 26102.29
2672.240, 25967.66
2674.169, 25894.10
2676.097, 25814.06
2678.026, 25728.01
2679.954, 25607.91
2681.883, 25390.75
2683.811, 25240.69
2685.740, 25277.73
2687.668, 25278.06
2689.597, 25111.61
2691.525, 24996.70
2693.454, 25042.91
2695.382, 25029.26
2697.311, 24822.86
2699.239, 24625.04
2701.167, 24516.68
2703.096, 24421.26
2705.024, 24329.51
2706.953, 24224.93
2708.881, 24092.56
2710.810, 23968.59
2712.738, 23856.00
2714.667, 23770.57
2716.595, 23759.98
2718.524, 23707.63
2720.452, 23538.19
2722.381, 23384.74
2724.309, 23309.02
2726.238, 23220.34
2728.166, 23066.34
2730.094, 22919.87
2732.023, 22817.31
2733.951, 22710.92
2735.880, 22559.37
2737.808, 22456.69
2739.737, 22477.14
2741.665, 22460.12
2743.594, 22310.55
2745.522, 22165.46
2747.451, 22069.91
2749.379, 21985.92
2751.308, 21923.88
2753.236, 21828.76
2755.165, 21645.90
2757.093, 21500.80
2759.021, 21467.43
2760.950, 21415.57
2762.878, 21311.33
2764.807, 21195.36
2766.735, 21072.27
2768.664, 20952.53
2770.592, 20838.58
2772.521, 20733.46
2774.449, 20632.02
2776.378, 20555.09
2778.306, 20518.76
2780.235, 20463.10
2782.163, 20366.43
2784.092, 20279.26
2786.020, 20209.52
2787.948, 20157.31
2789.877, 20142.91
2791.805, 20080.52
2793.734, 19950.19
2795.662, 19824.75
2797.591, 19718.85
2799.519, 19611.43
2801.448, 19497.19
2803.376, 19392.87
2805.305, 19296.67
2807.233, 19237.81
2809.162, 19224.56
2811.090, 19188.33
2813.019, 19109.48
2814.947, 19060.95
2816.875, 19054.12
2818.804, 18967.20
2820.732, 18797.68
2822.661, 18674.31
2824.589, 18606.02
2826.518, 18509.00
2828.446, 18383.51
2830.375, 18293.52
2832.303, 18236.58
2834.232, 18173.15
2836.160, 18104.17
2838.089, 18040.72
2840.017, 17978.53
2841.946, 17896.90
2843.874, 17800.72
2845.802, 17715.03
2847.731, 17636.85
2849.659, 17556.73
2851.588, 17481.86
2853.516, 17423.92
2855.445, 17383.46
2857.373, 17379.72
2859.302, 17376.32
2861.230, 17317.31
2863.159, 17224.88
2865.087, 17102.31
2867.016, 16986.60
2868.944, 16919.03
2870.873, 16881.17
2872.801, 16886.63
2874.729, 16872.39
2876.658, 16788.29
2878.586, 16667.69
2880.515, 16473.25
2882.443, 16341.48
2884.372, 16396.08
2886.300, 16430.34
2888.229, 16320.75
2890.157, 16214.76
2892.086, 16178.92
2894.014, 16137.60
2895.943, 16072.15
2897.871, 15997.64
2899.800, 15912.89
2901.728, 15829.02
2903.656, 15739.89
2905.585, 15668.13
2907.513, 15617.91
2909.442, 15569.99
2911.370, 15521.94
2913.299, 15482.88
2915.227, 15465.09
2917.156, 15387.46
2919.084, 15245.94
2921.013, 15130.72
2922.941, 15044.10
2924.870, 14987.36
2926.798, 14955.11
2928.727, 14901.99
2930.655, 14836.59
2932.583, 14791.92
2934.512, 14761.78
2936.440, 14738.56
2938.369, 14711.31
2940.297, 14661.40
2942.226, 14595.79
2944.154, 14523.01
2946.083, 14445.68
2948.011, 14363.09
2949.940, 14286.57
2951.868, 14230.52
2953.797, 14179.21
2955.725, 14120.51
2957.654, 14064.68
2959.582, 14015.11
2961.510, 13967.35
2963.439, 13918.17
2965.367, 13868.98
2967.296, 13813.76
2969.224, 13781.87
2971.153, 13796.96
2973.081, 13768.62
2975.010, 13652.62
2976.938, 13558.45
2978.867, 13487.05
2980.795, 13431.24
2982.724, 13389.98
2984.652, 13343.96
2986.581, 13292.07
2988.509, 13226.33
2990.438, 13149.71
2992.366, 13071.46
2994.294, 12997.06
2996.223, 12940.13
2998.151, 12894.86
3000.080, 12854.42
3002.008, 12816.86
3003.937, 12780.72
3005.865, 12744.79
3007.794, 12715.13
3009.722, 12673.97
3011.651, 12597.28
3013.579, 12523.74
3015.508, 12473.69
3017.436, 12419.56
3019.365, 12353.44
3021.293, 12280.16
3023.221, 12194.08
3025.150, 12122.80
3027.078, 12066.60
3029.007, 12042.79
3030.935, 12063.99
3032.864, 12040.59
3034.792, 11974.28
3036.721, 11902.48
3038.649, 11829.87
3040.578, 11772.61
3042.506, 11724.79
3044.435, 11663.79
3046.363, 11602.22
3048.292, 11564.30
3050.220, 11533.52
3052.148, 11496.52
3054.077, 11453.93
3056.005, 11408.07
3057.934, 11354.31
3059.862, 11273.91
3061.791, 11217.64
3063.719, 11238.18
3065.648, 11218.87
3067.576, 11125.87
3069.505, 11058.91
3071.433, 11038.38
3073.362, 11010.16
3075.290, 10967.16
3077.219, 10943.64
3079.147, 10934.74
3081.075, 10902.59
3083.004, 10851.38
3084.932, 10796.04
3086.861, 10739.14
3088.789, 10690.80
3090.718, 10641.25
3092.646, 10577.26
3094.575, 10511.93
3096.503, 10449.86
3098.432, 10400.61
3100.360, 10374.41
3102.289, 10343.83
3104.217, 10282.34
3106.146, 10244.04
3108.074, 10246.63
3110.002, 10232.80
3111.931, 10197.59
3113.859, 10158.84
3115.788, 10118.97
3117.716, 10070.24
3119.645, 10018.48
3121.573, 10001.16
3123.502, 9996.856
3125.430, 9962.194
3127.359, 9909.916
3129.287, 9847.445
3131.216, 9787.911
3133.144, 9740.516
3135.073, 9700.217
3137.001, 9662.999
3138.929, 9637.757
3140.858, 9630.999
3142.786, 9624.724
3144.715, 9623.807
3146.643, 9585.410
3148.572, 9501.109
3150.500, 9459.609
3152.429, 9453.911
3154.357, 9423.036
3156.286, 9375.920
3158.214, 9342.805
3160.143, 9312.542
3162.071, 9258.714
3164.000, 9209.330
3165.928, 9186.763
3167.856, 9182.694
3169.785, 9208.568
3171.713, 9217.469
3173.642, 9190.894
3175.570, 9157.054
3177.499, 9122.371
3179.427, 9078.241
3181.356, 9024.774
3183.284, 8962.848
3185.213, 8900.597
3187.141, 8907.657
3189.070, 8950.190
3190.998, 8948.190
3192.927, 8917.246
3194.855, 8851.994
3196.783, 8798.147
3198.712, 8804.051
3200.640, 8813.384
3202.569, 8822.714
3204.497, 8792.210
3206.426, 8686.219
3208.354, 8621.913
3210.283, 8607.777
3212.211, 8565.408
3214.140, 8497.037
3216.068, 8510.989
3217.997, 8574.383
3219.925, 8602.817
3221.854, 8599.298
3223.782, 8561.027
3225.710, 8500.427
3227.639, 8405.838
3229.567, 8334.392
3231.496, 8318.485
3233.424, 8318.175
3235.353, 8337.879
3237.281, 8319.858
3239.210, 8258.393
3241.138, 8245.825
3243.067, 8273.576
3244.995, 8260.044
3246.924, 8218.933
3248.852, 8172.303
3250.781, 8131.473
3252.709, 8111.300
3254.637, 8101.198
3256.566, 8104.413
3258.494, 8094.648
3260.423, 8040.653
3262.351, 8021.761
3264.280, 8050.037
3266.208, 8060.345
3268.137, 8048.950
3270.065, 8037.974
3271.994, 8023.645
3273.922, 7998.692
3275.851, 7956.530
3277.779, 7867.030
3279.708, 7793.015
3281.636, 7809.872
3283.564, 7809.293
3285.493, 7739.185
3287.421, 7707.310
3289.350, 7754.703
3291.278, 7781.293
3293.207, 7784.386
3295.135, 7753.548
3297.064, 7703.151
3298.992, 7674.016
3300.921, 7662.250
3302.849, 7685.184
3304.778, 7691.037
3306.706, 7613.981
3308.635, 7569.946
3310.563, 7606.481
3312.491, 7621.856
3314.420, 7590.496
3316.348, 7564.333
3318.277, 7541.786
3320.205, 7486.012
3322.134, 7422.688
3324.062, 7423.032
3325.991, 7439.443
3327.919, 7420.991
3329.848, 7391.938
3331.776, 7355.831
3333.705, 7332.786
3335.633, 7330.655
3337.562, 7322.367
3339.490, 7304.463
3341.418, 7290.805
3343.347, 7279.484
3345.275, 7265.475
3347.204, 7243.807
3349.132, 7189.673
3351.061, 7153.036
3352.989, 7204.833
3354.918, 7222.433
3356.846, 7132.882
3358.775, 7113.221
3360.703, 7202.517
3362.632, 7223.021
3364.560, 7183.790
3366.489, 7173.149
3368.417, 7171.622
3370.345, 7135.621
3372.274, 7089.077
3374.202, 7034.984
3376.131, 7007.928
3378.059, 7046.903
3379.988, 7038.154
3381.916, 6956.760
3383.845, 6929.617
3385.773, 6955.830
3387.702, 6963.254
3389.630, 6956.490
3391.559, 6940.792
3393.487, 6922.749
3395.416, 6907.517
3397.344, 6893.125
3399.272, 6874.205
3401.201, 6871.422
3403.129, 6892.115
3405.058, 6884.415
3406.986, 6851.417
3408.915, 6815.709
3410.843, 6789.534
3412.772, 6813.241
3414.700, 6833.531
3416.629, 6805.713
3418.557, 6775.126
3420.486, 6753.706
3422.414, 6744.066
3424.343, 6747.930
3426.271, 6738.483
3428.199, 6719.625
3430.128, 6717.122
3432.056, 6716.467
3433.985, 6690.788
3435.913, 6675.268
3437.842, 6700.416
3439.770, 6710.901
3441.699, 6685.465
3443.627, 6663.156
3445.556, 6645.303
3447.484, 6636.998
3449.413, 6633.189
3451.341, 6625.745
3453.270, 6614.096
3455.198, 6594.006
3457.126, 6579.963
3459.055, 6586.273
3460.983, 6584.742
3462.912, 6573.825
3464.840, 6556.911
3466.769, 6542.181
3468.697, 6579.438
3470.626, 6620.524
3472.554, 6597.771
3474.483, 6574.677
3476.411, 6604.064
3478.340, 6586.591
3480.268, 6490.692
3482.197, 6487.974
3484.125, 6568.021
3486.053, 6560.224
3487.982, 6516.056
3489.910, 6507.175
3491.839, 6512.518
3493.767, 6524.813
3495.696, 6528.665
3497.624, 6511.458
3499.553, 6498.888
3501.481, 6496.209
3503.410, 6601.486
3505.338, 6713.943
3507.267, 6594.896
3509.195, 6454.629
3511.124, 6436.944
3513.052, 6449.605
3514.980, 6480.364
3516.909, 6477.600
3518.837, 6443.700
3520.766, 6433.947
3522.694, 6446.854
3524.623, 6510.445
3526.551, 6546.367
3528.480, 6455.008
3530.408, 6409.749
3532.337, 6462.634
3534.265, 6461.634
3536.194, 6397.858
3538.122, 6385.081
3540.051, 6399.208
3541.979, 6395.142
3543.907, 6390.724
3545.836, 6404.585
3547.764, 6410.259
3549.693, 6401.472
3551.621, 6392.884
3553.550, 6385.493
3555.478, 6367.899
3557.407, 6352.365
3559.335, 6354.525
3561.264, 6373.199
3563.192, 6421.169
3565.121, 6436.244
3567.049, 6378.052
3568.978, 6412.168
3570.906, 6502.461
3572.834, 6496.319
3574.763, 6448.746
3576.691, 6416.301
3578.620, 6390.928
3580.548, 6368.429
3582.477, 6354.707
3584.405, 6350.164
3586.334, 6326.293
3588.262, 6306.137
3590.191, 6385.833
3592.119, 6450.291
3594.048, 6381.104
3595.976, 6333.472
3597.905, 6367.734
3599.833, 6369.628
3601.761, 6339.987
3603.690, 6334.286
3605.618, 6346.409
3607.547, 6382.111
3609.475, 6401.349
3611.404, 6366.313
3613.332, 6338.398
3615.261, 6324.458
3617.189, 6347.615
3619.118, 6388.631
3621.046, 6375.360
3622.975, 6357.665
3624.903, 6400.542
3626.832, 6405.639
3628.760, 6340.047
3630.688, 6306.298
3632.617, 6312.570
3634.545, 6362.997
3636.474, 6408.449
3638.402, 6355.870
3640.331, 6326.695
3642.259, 6404.260
3644.188, 6419.326
3646.116, 6341.488
3648.045, 6341.503
3649.973, 6382.299
3651.902, 6379.113
3653.830, 6360.543
3655.759, 6329.511
3657.687, 6331.729
3659.615, 6381.700
3661.544, 6407.146
3663.472, 6408.730
3665.401, 6393.850
3667.329, 6376.210
3669.258, 6370.288
3671.186, 6365.360
3673.115, 6363.297
3675.043, 6319.348
3676.972, 6248.023
3678.900, 6314.709
3680.829, 6402.266
3682.757, 6344.796
3684.686, 6293.976
3686.614, 6302.925
3688.542, 6328.281
3690.471, 6363.214
3692.399, 6390.946
3694.328, 6398.070
3696.256, 6337.495
3698.185, 6302.733
3700.113, 6343.420
3702.042, 6358.836
3703.970, 6334.275
3705.899, 6338.841
3707.827, 6356.415
3709.756, 6356.296
3711.684, 6364.137
3713.613, 6403.690
3715.541, 6398.491
3717.469, 6332.365
3719.398, 6309.649
3721.326, 6321.662
3723.255, 6385.646
3725.183, 6406.107
3727.112, 6310.432
3729.040, 6271.965
3730.969, 6324.154
3732.897, 6372.979
3734.826, 6404.399
3736.754, 6375.429
3738.683, 6354.270
3740.611, 6380.582
3742.540, 6397.912
3744.468, 6396.457
3746.396, 6411.168
3748.325, 6428.836
3750.253, 6420.703
3752.182, 6419.790
3754.110, 6454.789
3756.039, 6429.834
3757.967, 6332.416
3759.896, 6305.455
3761.824, 6329.856
3763.753, 6409.939
3765.681, 6453.441
3767.610, 6417.175
3769.538, 6383.367
3771.467, 6364.243
3773.395, 6419.479
3775.323, 6479.810
3777.252, 6436.900
3779.180, 6404.535
3781.109, 6422.018
3783.037, 6435.867
3784.966, 6442.512
3786.894, 6452.585
3788.823, 6458.417
3790.751, 6437.718
3792.680, 6446.870
3794.608, 6504.226
3796.537, 6515.034
3798.465, 6490.122
3800.394, 6474.154
3802.322, 6474.726
3804.250, 6511.504
3806.179, 6541.917
3808.107, 6559.704
3810.036, 6544.767
3811.964, 6511.318
3813.893, 6471.194
3815.821, 6460.982
3817.750, 6528.673
3819.678, 6536.984
3821.607, 6480.090
3823.535, 6490.619
3825.464, 6519.064
3827.392, 6496.630
3829.321, 6479.304
3831.249, 6484.862
3833.177, 6508.771
3835.106, 6540.683
3837.034, 6522.780
3838.963, 6519.509
3840.891, 6622.693
3842.820, 6643.290
3844.748, 6556.593
3846.677, 6549.159
3848.605, 6583.298
3850.534, 6583.330
3852.462, 6578.587
3854.391, 6585.714
3856.319, 6583.630
3858.248, 6574.711
3860.176, 6593.074
3862.104, 6609.899
3864.033, 6584.022
3865.961, 6573.197
3867.890, 6597.145
3869.818, 6615.634
3871.747, 6628.024
3873.675, 6652.835
3875.604, 6661.109
3877.532, 6620.987
3879.461, 6606.495
3881.389, 6624.741
3883.318, 6637.201
3885.246, 6651.127
3887.175, 6679.715
3889.103, 6685.138
3891.031, 6659.716
3892.960, 6642.142
3894.888, 6626.830
3896.817, 6624.897
3898.745, 6635.974
3900.674, 6645.579
3902.602, 6679.509
3904.531, 6739.462
3906.459, 6742.970
3908.388, 6721.063
3910.316, 6698.995
3912.245, 6702.831
3914.173, 6737.125
3916.102, 6734.480
3918.030, 6713.079
3919.958, 6705.993
3921.887, 6705.004
3923.815, 6676.327
3925.744, 6677.529
3927.672, 6719.252
3929.601, 6724.407
3931.529, 6719.041
3933.458, 6718.246
3935.386, 6735.066
3937.315, 6782.812
3939.243, 6787.619
3941.172, 6776.172
3943.100, 6797.728
3945.029, 6791.509
3946.957, 6761.783
3948.885, 6756.335
3950.814, 6759.458
3952.742, 6777.583
3954.671, 6789.254
3956.599, 6781.385
3958.528, 6773.312
3960.456, 6787.890
3962.385, 6788.578
3964.313, 6799.650
3966.242, 6838.360
3968.170, 6835.084
3970.099, 6809.395
3972.027, 6829.656
3973.956, 6841.965
3975.884, 6824.025
3977.813, 6837.461
3979.741, 6865.782
3981.669, 6841.926
3983.598, 6807.659
3985.526, 6810.400
3987.455, 6831.887
3989.383, 6879.327
3991.312, 6889.891
3993.240, 6873.032
3995.169, 6862.908
3997.097, 6861.019
3999.026, 6868.113
4000.954, 6886.972
4002.883, 6905.226
4004.811, 6880.203
4006.740, 6853.263
4008.668, 6840.026
4010.596, 6877.042
4012.525, 6937.350
4014.453, 6926.451
4016.382, 6905.421
4018.310, 6901.522
4020.239, 6919.358
4022.167, 6939.104
4024.096, 6883.682
4026.024, 6860.240
4027.953, 6930.103
4029.881, 6968.660
4031.810, 6969.392
4033.738, 6973.669
4035.667, 6970.448
4037.595, 6933.625
4039.523, 6926.958
4041.452, 6956.486
4043.380, 6956.607
4045.309, 6953.192
4047.237, 6969.843
4049.166, 6999.021
4051.094, 7039.148
4053.023, 7041.202
4054.951, 7015.518
4056.880, 6955.809
4058.808, 6946.237
4060.737, 7004.024
4062.665, 7031.780
4064.594, 7034.601
4066.522, 7036.262
4068.450, 7012.442
4070.379, 6943.010
4072.307, 6948.896
4074.236, 6997.225
4076.164, 7029.586
4078.093, 7048.767
4080.021, 7027.965
4081.950, 7032.645
4083.878, 7054.082
4085.807, 7034.460
4087.735, 7025.251
4089.664, 7070.459
4091.592, 7086.575
4093.521, 7072.180
4095.449, 7053.254
4097.377, 7047.483
4099.306, 7112.385
4101.234, 7121.959
4103.163, 7058.248
4105.091, 7062.609
4107.020, 7097.375
4108.948, 7107.908
4110.877, 7118.183
4112.805, 7132.596
4114.734, 7135.764
4116.662, 7129.458
4118.591, 7128.878
4120.519, 7139.031
4122.448, 7143.107
4124.376, 7131.298
4126.305, 7124.400
4128.233, 7141.710
4130.162, 7136.417
4132.090, 7112.089
4134.019, 7122.004
4135.947, 7152.168
4137.875, 7184.577
4139.804, 7203.450
4141.732, 7209.249
4143.661, 7195.810
4145.589, 7165.840
4147.518, 7131.955
4149.446, 7115.695
4151.375, 7170.055
4153.303, 7217.964
4155.231, 7237.697
4157.160, 7189.832
4159.088, 7139.570
4161.017, 7158.347
4162.945, 7202.061
4164.874, 7259.375
4166.802, 7246.217
4168.731, 7217.333
4170.659, 7277.860
4172.588, 7275.001
4174.516, 7190.103
4176.445, 7151.493
4178.373, 7140.861
4180.302, 7201.325
4182.230, 7249.588
4184.159, 7250.378
4186.087, 7217.383
4188.016, 7190.652
4189.944, 7207.105
4191.873, 7209.865
4193.801, 7203.048
4195.729, 7197.337
4197.658, 7196.156
4199.586, 7218.623
4201.515, 7246.171
4203.443, 7276.337
4205.372, 7214.032
4207.300, 7141.872
4209.229, 7144.468
4211.157, 7173.412
4213.085, 7211.850
4215.014, 7195.326
4216.942, 7183.777
4218.871, 7252.999
4220.799, 7291.645
4222.728, 7291.923
4224.656, 7271.060
4226.585, 7263.547
4228.513, 7322.587
4230.442, 7333.053
4232.370, 7299.100
4234.299, 7317.036
4236.227, 7335.329
4238.156, 7317.142
4240.084, 7274.820
4242.013, 7228.657
4243.941, 7244.164
4245.870, 7278.998
4247.798, 7321.605
4249.727, 7336.272
4251.655, 7331.870
4253.583, 7332.436
4255.512, 7328.381
4257.440, 7307.662
4259.369, 7330.186
4261.297, 7363.549
4263.226, 7336.962
4265.154, 7323.074
4267.083, 7348.842
4269.011, 7351.079
4270.939, 7343.891
4272.868, 7340.859
4274.796, 7350.887
4276.725, 7373.160
4278.653, 7334.250
4280.582, 7302.196
4282.510, 7372.146
4284.439, 7392.636
4286.367, 7360.377
4288.296, 7377.119
4290.224, 7391.565
4292.153, 7354.431
4294.081, 7343.479
4296.010, 7351.908
4297.938, 7341.192
4299.867, 7339.788
4301.795, 7365.473
4303.724, 7391.137
##END=



