##NAMES=Claringbullite
##RRUFFID=R090016
##IDEAL CHEMISTRY=Cu^2+^_4_FCl(OH)_6_
##LOCALITY=Copper Queen Mine, Bisbee, Arizona
##OWNER=RRUFF
##SOURCE=William W. Pinch
##DESCRIPTION=Blue green crystal plates and cleavages on cuprite with connellite, atacamite, clinoatacamite R090062. Note that this is the same sample used in the Burns et al (1995) structural study.
##STATUS=The identification of this mineral has been confirmed by single-crystal X-ray diffraction
##URL=https://www.rruff.net/odr/rruff_sample/R090016
##DIFFRACTION SAMPLE DESCRIPTION=Single crystal, powder profile is calculated
##CELL PARAMETERS=a: 6.672 b: 6.672 c: 9.206 alpha: 90 beta: 90 gamma: 120 volume: 354.88 crystal system: hexagonal
##FILETYPE=Raman Processed
##RAMAN WAVELENGTH=532

241.4964, 234.9454
243.4249, 234.6875
245.3533, 234.2428
247.2818, 233.4078
249.2103, 232.3268
251.1387, 231.4513
253.0672, 230.9825
254.9957, 230.6224
256.9242, 230.2020
258.8526, 229.6060
260.7811, 229.1035
262.7096, 228.9894
264.6380, 228.9997
266.5665, 228.4225
268.4950, 226.2785
270.4234, 224.2621
272.3519, 223.4114
274.2804, 223.8893
276.2088, 223.9894
278.1373, 222.9804
280.0658, 221.4127
281.9942, 220.3605
283.9227, 220.5550
285.8512, 220.5488
287.7796, 219.7225
289.7081, 218.1127
291.6366, 216.5178
293.5650, 214.9086
295.4935, 213.4013
297.4220, 212.2472
299.3504, 211.6779
301.2789, 210.9277
303.2074, 209.6720
305.1358, 207.9183
307.0643, 206.3938
308.9928, 204.9936
310.9212, 203.8511
312.8497, 203.2079
314.7782, 203.1603
316.7066, 203.1460
318.6351, 203.0138
320.5636, 202.8085
322.4920, 202.4883
324.4205, 201.7526
326.3490, 201.1202
328.2774, 200.8549
330.2059, 200.9749
332.1344, 201.3331
334.0628, 202.0615
335.9913, 203.0506
337.9198, 203.9206
339.8482, 204.5844
341.7767, 205.3213
343.7052, 206.3635
345.6336, 207.7959
347.5621, 208.7610
349.4906, 208.7967
351.4190, 208.6942
353.3475, 208.9261
355.2760, 209.4451
357.2044, 210.2401
359.1329, 211.5169
361.0614, 213.1038
362.9898, 214.3418
364.9183, 215.2455
366.8468, 215.8396
368.7752, 216.0987
370.7037, 215.9477
372.6322, 215.9904
374.5606, 216.4762
376.4891, 217.1090
378.4176, 217.4068
380.3460, 217.2677
382.2745, 217.0425
384.2030, 216.9413
386.1314, 216.9611
388.0599, 216.6829
389.9884, 215.6506
391.9168, 214.6980
393.8453, 214.3746
395.7738, 214.7203
397.7022, 214.9591
399.6307, 214.8358
401.5592, 214.6087
403.4876, 214.5616
405.4161, 214.2861
407.3446, 214.6941
409.2730, 216.4702
411.2015, 219.3968
413.1300, 222.3987
415.0584, 224.7677
416.9869, 227.7707
418.9154, 232.5517
420.8438, 239.2193
422.7723, 246.3221
424.7008, 253.2375
426.6292, 260.1822
428.5577, 267.8087
430.4862, 277.0096
432.4146, 286.2841
434.3431, 294.8881
436.2716, 303.0487
438.2000, 310.3979
440.1285, 317.2907
442.0570, 322.5236
443.9854, 325.2215
445.9139, 324.9530
447.8424, 322.5766
449.7708, 317.6438
451.6993, 311.0020
453.6278, 304.7107
455.5562, 299.1983
457.4847, 294.2453
459.4132, 289.5536
461.3416, 285.1871
463.2701, 281.6793
465.1986, 279.4829
467.1270, 278.2609
469.0555, 277.4023
470.9840, 277.0936
472.9124, 276.8141
474.8409, 275.7456
476.7694, 274.7143
478.6978, 274.5514
480.6263, 275.4121
482.5548, 276.9527
484.4832, 278.7746
486.4117, 280.6684
488.3402, 282.8555
490.2686, 285.2799
492.1971, 288.5900
494.1256, 293.2823
496.0540, 299.1765
497.9825, 305.6401
499.9110, 312.5806
501.8394, 320.8575
503.7679, 330.4276
505.6964, 340.9108
507.6248, 352.1570
509.5533, 365.5330
511.4818, 380.5791
513.4103, 395.4234
515.3387, 410.1639
517.2672, 422.6567
519.1957, 432.2521
521.1241, 438.1315
523.0526, 440.0444
524.9811, 437.6021
526.9095, 431.9622
528.8380, 423.5153
530.7665, 411.6760
532.6949, 399.1494
534.6234, 387.6434
536.5519, 376.6912
538.4803, 366.2034
540.4088, 356.4214
542.3373, 346.8214
544.2657, 336.0119
546.1942, 324.5634
548.1227, 313.4516
550.0511, 303.1231
551.9796, 292.4822
553.9081, 280.9717
555.8365, 268.8734
557.7650, 256.9527
559.6935, 245.2080
561.6219, 234.2059
563.5504, 224.0498
565.4789, 214.7662
567.4073, 206.2011
569.3358, 198.5926
571.2643, 191.0674
573.1927, 183.2800
575.1212, 175.1576
577.0497, 168.2752
578.9781, 162.8760
580.9066, 158.3171
582.8351, 153.9538
584.7635, 149.4661
586.6920, 145.1669
588.6205, 141.3940
590.5490, 138.1474
592.4774, 135.4279
594.4059, 133.0352
596.3344, 130.8493
598.2628, 128.7996
600.1913, 126.7742
602.1198, 124.7130
604.0482, 123.0066
605.9767, 121.7224
607.9052, 120.6068
609.8336, 119.3215
611.7621, 117.8247
613.6906, 116.4942
615.6190, 115.4325
617.5475, 114.7057
619.4760, 114.2115
621.4044, 113.4918
623.3329, 112.3042
625.2614, 111.0503
627.1898, 109.9083
629.1183, 108.9491
631.0468, 108.2564
632.9752, 108.0544
634.9037, 107.9548
636.8322, 107.6590
638.7606, 106.8164
640.6891, 105.7583
642.6176, 104.6862
644.5460, 103.8777
646.4745, 103.5752
648.4030, 103.4025
650.3314, 102.9762
652.2599, 102.2029
654.1884, 101.3235
656.1168, 100.5415
658.0453, 100.0761
659.9738, 99.65713
661.9022, 99.14881
663.8307, 98.41963
665.7592, 97.50536
667.6876, 96.75750
669.6161, 96.30774
671.5446, 96.18275
673.4730, 96.10573
675.4015, 95.72014
677.3300, 94.93271
679.2584, 94.24289
681.1869, 93.89558
683.1154, 93.69463
685.0438, 93.34485
686.9723, 92.88318
688.9008, 92.50919
690.8292, 92.31196
692.7577, 92.15963
694.6862, 91.79588
696.6146, 91.19257
698.5431, 90.72157
700.4716, 90.65987
702.4000, 90.71648
704.3285, 90.48889
706.2570, 90.05681
708.1854, 89.72161
710.1139, 89.64182
712.0424, 89.34154
713.9708, 88.87154
715.8993, 88.28249
717.8278, 87.93312
719.7562, 87.94553
721.6847, 88.15209
723.6132, 88.07153
725.5416, 87.65932
727.4701, 87.30533
729.3986, 87.30003
731.3270, 87.34606
733.2555, 87.31568
735.1840, 87.26380
737.1124, 87.31458
739.0409, 87.45348
740.9694, 87.32258
742.8978, 87.10752
744.8263, 86.89735
746.7548, 86.78288
748.6832, 86.67128
750.6117, 86.45275
752.5402, 86.27564
754.4686, 86.20930
756.3971, 86.32359
758.3256, 86.52658
760.2540, 86.46667
762.1825, 86.50694
764.1110, 86.78004
766.0394, 87.12914
767.9679, 87.29990
769.8964, 87.32610
771.8248, 87.39951
773.7533, 87.63586
775.6818, 87.83031
777.6102, 87.88863
779.5387, 88.17323
781.4672, 88.35034
783.3956, 88.14373
785.3241, 87.79398
787.2526, 87.83732
789.1810, 88.40801
791.1095, 88.92229
793.0380, 89.14805
794.9664, 89.29845
796.8949, 89.47512
798.8234, 89.69077
800.7518, 89.97083
802.6803, 90.45912
804.6088, 90.76043
806.5372, 90.52178
808.4657, 89.85188
810.3942, 89.59634
812.3226, 90.38685
814.2511, 91.13425
816.1796, 91.27946
818.1080, 90.85461
820.0365, 90.65096
821.9650, 90.75724
823.8934, 90.81454
825.8219, 90.69851
827.7504, 90.53098
829.6788, 90.42597
831.6073, 90.49570
833.5358, 90.40881
835.4642, 90.07744
837.3927, 89.58414
839.3212, 89.21902
841.2496, 89.05161
843.1781, 88.86474
845.1066, 88.52573
847.0350, 88.10454
848.9635, 87.86568
850.8920, 87.94064
852.8204, 88.07895
854.7489, 88.21834
856.6774, 88.32370
858.6058, 88.30278
860.5343, 88.11897
862.4628, 87.86586
864.3912, 87.48210
866.3197, 87.04733
868.2482, 86.82120
870.1766, 86.94554
872.1051, 87.13892
874.0336, 87.35477
875.9620, 87.55872
877.8905, 87.68462
879.8190, 87.66502
881.7474, 87.65829
883.6759, 87.72149
885.6044, 87.79545
887.5328, 87.75302
889.4613, 87.48596
891.3898, 87.36555
893.3182, 87.60789
895.2467, 87.99744
897.1752, 88.20676
899.1036, 87.91955
901.0321, 87.88724
902.9606, 88.40636
904.8890, 89.15281
906.8175, 89.57293
908.7460, 89.54579
910.6744, 89.62723
912.6029, 90.07738
914.5314, 90.66711
916.4598, 91.18547
918.3883, 91.64519
920.3168, 91.98309
922.2452, 92.05898
924.1737, 92.10590
926.1022, 92.40296
928.0306, 92.96231
929.9591, 93.24570
931.8876, 92.88325
933.8160, 92.54259
935.7445, 92.62791
937.6730, 93.17106
939.6014, 93.73255
941.5299, 94.39783
943.4584, 94.90268
945.3868, 95.12811
947.3153, 95.36685
949.2438, 95.66922
951.1722, 95.86803
953.1007, 96.03881
955.0292, 96.31161
956.9576, 96.75858
958.8861, 97.16833
960.8146, 97.32993
962.7430, 97.67857
964.6715, 98.52388
966.6000, 99.71594
968.5284, 100.7267
970.4569, 101.5756
972.3854, 102.4128
974.3138, 103.2773
976.2423, 104.0247
978.1708, 104.7374
980.0992, 105.5012
982.0277, 105.9559
983.9562, 105.6304
985.8846, 105.2256
987.8131, 105.3302
989.7416, 106.0617
991.6700, 106.5135
993.5985, 106.4075
995.5270, 106.1802
997.4554, 106.2687
999.3839, 106.7508
1001.312, 107.1100
1003.241, 107.2606
1005.169, 107.1408
1007.098, 106.7066
1009.026, 106.2255
1010.955, 105.8077
1012.883, 105.3793
1014.812, 105.0665
1016.740, 105.0899
1018.669, 105.1668
1020.597, 104.7925
1022.526, 104.0558
1024.454, 103.5251
1026.382, 103.5121
1028.311, 103.4098
1030.239, 102.7019
1032.168, 101.3771
1034.096, 100.2776
1036.025, 99.76936
1037.953, 99.46716
1039.882, 99.12874
1041.810, 98.41721
1043.739, 97.79263
1045.667, 97.74052
1047.596, 97.73132
1049.524, 97.07708
1051.453, 95.56704
1053.381, 94.31699
1055.309, 93.71719
1057.238, 93.39421
1059.166, 93.31734
1061.095, 92.81907
1063.023, 91.96736
1064.952, 91.22849
1066.880, 90.71056
1068.809, 90.32600
1070.737, 89.88571
1072.666, 89.48821
1074.594, 89.06077
1076.523, 88.44600
1078.451, 87.58322
1080.380, 86.71896
1082.308, 85.94678
1084.236, 85.24023
1086.165, 84.69055
1088.093, 84.61417
1090.022, 84.56915
1091.950, 84.23416
1093.879, 83.44689
1095.807, 82.62437
1097.736, 81.88316
1099.664, 81.01827
1101.593, 79.99548
1103.521, 78.98293
1105.450, 78.08403
1107.378, 76.98237
1109.307, 76.00737
1111.235, 75.23887
1113.163, 74.54160
1115.092, 73.83243
1117.020, 73.35954
1118.949, 72.82084
1120.877, 71.90166
1122.806, 70.96699
1124.734, 70.25715
1126.663, 69.77383
1128.591, 69.25021
1130.520, 68.41975
1132.448, 67.52922
1134.377, 66.83572
1136.305, 66.30601
1138.234, 65.54578
1140.162, 64.38776
1142.090, 63.56182
1144.019, 63.13839
1145.947, 62.71762
1147.876, 62.17459
1149.804, 61.67891
1151.733, 61.11788
1153.661, 60.35541
1155.590, 59.71904
1157.518, 59.37297
1159.447, 59.23850
1161.375, 59.10180
1163.304, 58.52821
1165.232, 57.81898
1167.161, 57.43911
1169.089, 57.42542
1171.017, 57.56398
1172.946, 57.48046
1174.874, 57.15796
1176.803, 56.60942
1178.731, 55.96399
1180.660, 55.38490
1182.588, 54.95760
1184.517, 54.64093
1186.445, 54.30487
1188.374, 53.87575
1190.302, 53.47176
1192.231, 53.34538
1194.159, 53.57767
1196.088, 53.97314
1198.016, 53.80785
1199.944, 53.47637
1201.873, 53.29304
1203.801, 53.16701
1205.730, 52.96916
1207.658, 52.78386
1209.587, 52.75457
1211.515, 52.65452
1213.444, 52.34523
1215.372, 52.08142
1217.301, 52.09243
1219.229, 52.34723
1221.158, 52.40201
1223.086, 51.97434
1225.015, 51.57627
1226.943, 51.50270
1228.871, 51.67057
1230.800, 51.70928
1232.728, 51.53221
1234.657, 51.33642
1236.585, 51.21641
1238.514, 51.22156
1240.442, 51.25029
1242.371, 51.21859
1244.299, 51.26540
1246.228, 51.62194
1248.156, 51.76191
1250.085, 51.39409
1252.013, 50.97326
1253.942, 51.00069
1255.870, 51.39293
1257.798, 51.38049
1259.727, 50.94691
1261.655, 50.61279
1263.584, 50.59111
1265.512, 50.85113
1267.441, 50.97666
1269.369, 50.80662
1271.298, 50.64424
1273.226, 50.60533
1275.155, 50.74392
1277.083, 50.93693
1279.012, 51.11727
1280.940, 51.10811
1282.869, 50.86124
1284.797, 50.67759
1286.725, 50.86059
1288.654, 51.30474
1290.582, 51.44243
1292.511, 51.05404
1294.439, 50.65883
1296.368, 50.61928
1298.296, 50.82050
1300.225, 51.04987
1302.153, 51.28500
1304.082, 51.38319
1306.010, 51.26575
1307.939, 51.02476
1309.867, 50.83696
1311.796, 50.73656
1313.724, 50.61405
1315.652, 50.44225
1317.581, 50.23938
1319.509, 49.85018
1321.438, 49.55034
1323.366, 49.64742
1325.295, 50.01340
1327.223, 50.10706
1329.152, 49.76962
1331.080, 49.59724
1333.009, 50.06614
1334.937, 50.49496
1336.866, 50.22754
1338.794, 49.51063
1340.723, 49.25059
1342.651, 49.71578
1344.579, 50.06144
1346.508, 49.81371
1348.436, 49.52403
1350.365, 49.50151
1352.293, 49.65553
1354.222, 49.61480
1356.150, 49.32678
1358.079, 49.15230
1360.007, 49.00977
1361.936, 48.95042
1363.864, 49.03547
1365.793, 49.23131
1367.721, 49.29932
1369.650, 49.33055
1371.578, 49.36755
1373.506, 49.12111
1375.435, 48.77023
1377.363, 48.71659
1379.292, 49.00952
1381.220, 49.23477
1383.149, 49.40343
1385.077, 49.41186
1387.006, 48.97591
1388.934, 48.40438
1390.863, 48.47103
1392.791, 49.31796
1394.720, 49.63556
1396.648, 48.60717
1398.577, 47.75308
1400.505, 48.03600
1402.433, 49.02301
1404.362, 49.40477
1406.290, 48.87685
1408.219, 48.55536
1410.147, 48.87951
1412.076, 49.26612
1414.004, 49.42204
1415.933, 49.36385
1417.861, 49.20095
1419.790, 48.76189
1421.718, 48.53041
1423.647, 48.69429
1425.575, 48.88253
1427.504, 48.72646
1429.432, 48.33210
1431.360, 48.48747
1433.289, 49.54218
1435.217, 50.19521
1437.146, 49.89965
1439.074, 49.47723
1441.003, 49.44468
1442.931, 49.69433
1444.860, 49.90381
1446.788, 50.10256
1448.717, 50.15409
1450.645, 49.83480
1452.574, 49.57178
1454.502, 49.75134
1456.431, 50.16401
1458.359, 50.31301
1460.287, 50.12836
1462.216, 49.91832
1464.144, 49.68081
1466.073, 49.52283
1468.001, 49.52174
1469.930, 49.64018
1471.858, 49.75816
1473.787, 49.89660
1475.715, 49.96095
1477.644, 49.77721
1479.572, 49.70570
1481.501, 50.05892
1483.429, 50.58026
1485.358, 50.66679
1487.286, 49.97732
1489.214, 49.62420
1491.143, 49.82420
1493.071, 50.08095
1495.000, 50.23967
1496.928, 50.33522
1498.857, 50.42305
1500.785, 50.50387
1502.714, 50.59162
1504.642, 50.71184
1506.571, 50.83003
1508.499, 50.89610
1510.428, 50.94929
1512.356, 51.11365
1514.285, 51.38862
1516.213, 51.39988
1518.141, 50.86071
1520.070, 50.53547
1521.998, 50.90937
1523.927, 51.44244
1525.855, 51.67900
1527.784, 51.61306
1529.712, 51.19176
1531.641, 50.18314
1533.569, 49.59729
1535.498, 50.07674
1537.426, 50.70768
1539.355, 50.81976
1541.283, 50.59901
1543.212, 50.54926
1545.140, 50.72052
1547.068, 50.84994
1548.997, 50.86781
1550.925, 50.86227
1552.854, 50.93982
1554.782, 50.99386
1556.711, 50.80489
1558.639, 50.33918
1560.568, 49.86833
1562.496, 49.37835
1564.425, 48.96409
1566.353, 48.58390
1568.282, 48.32982
1570.210, 48.36220
1572.139, 48.70233
1574.067, 48.94762
1575.995, 49.05872
1577.924, 49.15453
1579.852, 49.38678
1581.781, 49.44995
1583.709, 48.98798
1585.638, 48.21570
1587.566, 47.88102
1589.495, 48.22746
1591.423, 48.44316
1593.352, 48.53501
1595.280, 48.47432
1597.209, 48.14886
1599.137, 47.71259
1601.066, 47.35728
1602.994, 47.05431
1604.922, 47.00624
1606.851, 47.36373
1608.779, 47.72457
1610.708, 48.23997
1612.636, 48.55389
1614.565, 48.18217
1616.493, 47.31083
1618.422, 46.90409
1620.350, 47.17817
1622.279, 47.44403
1624.207, 47.80864
1626.136, 48.01009
1628.064, 47.75148
1629.993, 47.33619
1631.921, 47.27937
1633.849, 47.62059
1635.778, 47.73249
1637.706, 47.54910
1639.635, 47.26472
1641.563, 46.71378
1643.492, 46.26985
1645.420, 46.35560
1647.349, 46.77102
1649.277, 46.80257
1651.206, 46.27266
1653.134, 46.18949
1655.063, 47.24165
1656.991, 47.98673
1658.920, 47.66009
1660.848, 46.97979
1662.776, 46.78222
1664.705, 47.01031
1666.633, 47.01392
1668.562, 46.67326
1670.490, 46.43427
1672.419, 46.35711
1674.347, 46.41365
1676.276, 46.79209
1678.204, 47.19555
1680.133, 46.98478
1682.061, 46.16286
1683.990, 45.81099
1685.918, 46.22346
1687.847, 46.62059
1689.775, 46.88783
1691.703, 47.00739
1693.632, 46.87584
1695.560, 46.61063
1697.489, 46.46650
1699.417, 46.43470
1701.346, 46.59045
1703.274, 47.21891
1705.203, 47.54874
1707.131, 47.06446
1709.060, 46.42936
1710.988, 46.11967
1712.917, 46.11575
1714.845, 46.43026
1716.774, 47.18160
1718.702, 47.50491
1720.630, 46.96988
1722.559, 46.47482
1724.487, 46.32959
1726.416, 46.35465
1728.344, 46.42411
1730.273, 46.52791
1732.201, 46.62066
1734.130, 46.71726
1736.058, 46.75311
1737.987, 46.60958
1739.915, 46.55560
1741.844, 46.83715
1743.772, 47.12740
1745.701, 47.08017
1747.629, 46.74934
1749.557, 46.36011
1751.486, 45.77476
1753.414, 45.64729
1755.343, 46.59621
1757.271, 47.28040
1759.200, 47.12585
1761.128, 46.61479
1763.057, 46.04563
1764.985, 45.49515
1766.914, 45.40382
1768.842, 45.96401
1770.771, 46.34590
1772.699, 46.42913
1774.628, 46.45082
1776.556, 46.42033
1778.484, 46.40588
1780.413, 46.47871
1782.341, 46.60962
1784.270, 46.69886
1786.198, 46.70107
1788.127, 46.79003
1790.055, 47.19429
1791.984, 47.36472
1793.912, 46.88449
1795.841, 46.45379
1797.769, 46.77574
1799.698, 47.47966
1801.626, 47.61493
1803.555, 47.02957
1805.483, 46.64977
1807.411, 46.59163
1809.340, 46.54930
1811.268, 46.34755
1813.197, 46.30238
1815.125, 46.76915
1817.054, 47.39840
1818.982, 47.59991
1820.911, 47.36537
1822.839, 47.33452
1824.768, 47.57317
1826.696, 47.86656
1828.625, 48.32997
1830.553, 48.65837
1832.482, 48.68667
1834.410, 48.57362
1836.339, 48.46696
1838.267, 48.35158
1840.195, 48.12088
1842.124, 47.73594
1844.052, 47.54413
1845.981, 47.59715
1847.909, 47.82971
1849.838, 48.54065
1851.766, 49.06486
1853.695, 48.80336
1855.623, 48.18285
1857.552, 47.92646
1859.480, 48.00111
1861.409, 48.09135
1863.337, 48.23522
1865.266, 48.09442
1867.194, 47.24574
1869.122, 46.67296
1871.051, 47.09192
1872.979, 47.79286
1874.908, 48.07694
1876.836, 48.10727
1878.765, 48.40104
1880.693, 48.99584
1882.622, 49.33947
1884.550, 49.37335
1886.479, 49.17596
1888.407, 48.49891
1890.336, 47.90791
1892.264, 47.78009
1894.193, 47.86776
1896.121, 47.85303
1898.049, 47.75329
1899.978, 47.70456
1901.906, 47.75288
1903.835, 47.73472
1905.763, 47.43498
1907.692, 47.37532
1909.620, 47.96891
1911.549, 48.49961
1913.477, 48.39078
1915.406, 47.99503
1917.334, 47.89725
1919.263, 48.08812
1921.191, 48.20509
1923.120, 48.28770
1925.048, 48.13456
1926.976, 47.38392
1928.905, 46.99058
1930.833, 47.73441
1932.762, 48.40324
1934.690, 47.98412
1936.619, 47.16509
1938.547, 47.14148
1940.476, 47.76801
1942.404, 48.16835
1944.333, 48.30569
1946.261, 48.13330
1948.190, 47.33032
1950.118, 46.91168
1952.047, 47.77663
1953.975, 48.56495
1955.904, 48.10952
1957.832, 47.20839
1959.760, 47.11663
1961.689, 47.70150
1963.617, 47.89986
1965.546, 47.53255
1967.474, 47.45282
1969.403, 48.02560
1971.331, 48.40108
1973.260, 48.27482
1975.188, 48.09737
1977.117, 48.00343
1979.045, 48.06918
1980.974, 48.56925
1982.902, 49.32558
1984.831, 49.43859
1986.759, 48.76253
1988.688, 48.49028
1990.616, 48.94903
1992.544, 49.06453
1994.473, 48.35629
1996.401, 47.69976
1998.330, 47.43958
2000.258, 47.41172
2002.187, 47.56427
2004.115, 47.81269
2006.044, 48.02150
2007.972, 48.18454
2009.901, 48.27295
2011.829, 48.26126
2013.758, 48.32214
2015.686, 48.59919
2017.615, 48.74625
2019.543, 48.64846
2021.471, 48.42756
2023.400, 47.97552
2025.328, 47.57663
2027.257, 47.67093
2029.185, 48.09779
2031.114, 48.25152
2033.042, 48.06278
2034.971, 48.01508
2036.899, 48.25136
2038.828, 48.26320
2040.756, 47.80756
2042.685, 47.42657
2044.613, 47.40288
2046.542, 47.39017
2048.470, 47.08356
2050.398, 46.74952
2052.327, 46.76719
2054.255, 47.04128
2056.184, 47.33343
2058.112, 47.63318
2060.041, 47.56662
2061.969, 46.85350
2063.898, 46.58741
2065.826, 47.42706
2067.755, 48.10421
2069.683, 48.20226
2071.612, 48.03872
2073.540, 47.62495
2075.469, 47.21993
2077.397, 47.19173
2079.325, 47.47763
2081.254, 47.91300
2083.182, 48.57790
2085.111, 48.61362
2087.039, 47.69818
2088.968, 47.28698
2090.896, 47.97545
2092.825, 48.35109
2094.753, 47.62645
2096.682, 46.90512
2098.610, 46.90918
2100.539, 47.17348
2102.467, 47.26123
2104.396, 47.23632
2106.324, 47.23200
2108.252, 47.24964
2110.181, 47.30381
2112.109, 47.45255
2114.038, 47.46748
2115.966, 47.23383
2117.895, 47.05091
2119.823, 46.99435
2121.752, 46.94473
2123.680, 46.86011
2125.609, 46.76194
2127.537, 46.59309
2129.466, 46.46328
2131.394, 46.60076
2133.323, 46.89334
2135.251, 46.92223
2137.179, 46.70998
2139.108, 46.85043
2141.036, 47.51723
2142.965, 47.78544
2144.893, 47.27185
2146.822, 46.83008
2148.750, 46.69633
2150.679, 46.64447
2152.607, 46.58066
2154.536, 46.55714
2156.464, 46.70014
2158.393, 46.85515
2160.321, 46.69372
2162.250, 46.33451
2164.178, 46.39050
2166.106, 46.83996
2168.035, 46.81925
2169.963, 46.16799
2171.892, 45.97178
2173.820, 46.58507
2175.749, 47.09211
2177.677, 47.25540
2179.606, 47.22997
2181.534, 46.88309
2183.463, 46.59008
2185.391, 46.65421
2187.320, 46.88082
2189.248, 47.08244
2191.177, 47.23982
2193.105, 47.28144
2195.033, 47.21227
2196.962, 47.18546
2198.890, 47.20650
2200.819, 47.24688
2202.747, 47.36329
2204.676, 47.22466
2206.604, 46.58229
2208.533, 46.12671
2210.461, 46.16459
2212.390, 46.34998
2214.318, 46.56458
2216.247, 46.80354
2218.175, 47.11231
2220.104, 47.39548
2222.032, 47.55269
2223.960, 47.56738
2225.889, 47.32044
2227.817, 46.83824
2229.746, 46.65270
2231.674, 46.80251
2233.603, 46.75576
2235.531, 46.40215
2237.460, 46.16627
2239.388, 46.04350
2241.317, 46.24277
2243.245, 47.25798
2245.174, 48.00647
2247.102, 47.92881
2249.031, 47.53992
2250.959, 47.02864
2252.887, 46.55651
2254.816, 46.29319
2256.744, 46.21199
2258.673, 46.33172
2260.601, 46.58485
2262.530, 46.63835
2264.458, 46.50126
2266.387, 46.42130
2268.315, 46.41345
2270.244, 46.47654
2272.172, 46.59122
2274.101, 46.83912
2276.029, 47.56112
2277.958, 47.92213
2279.886, 47.32766
2281.814, 46.85594
2283.743, 47.16629
2285.671, 47.53988
2287.600, 47.44650
2289.528, 47.18624
2291.457, 47.02312
2293.385, 46.94787
2295.314, 46.92818
2297.242, 46.98526
2299.171, 47.27719
2301.099, 47.79697
2303.028, 47.17501
2304.956, 48.04816
2306.885, 48.51768
2308.813, 48.60531
2310.741, 47.16714
2312.670, 47.69920
2314.598, 47.44170
2316.527, 47.15179
2318.455, 47.09926
2320.384, 48.03825
2322.312, 48.57363
2324.241, 48.72710
2326.169, 47.35476
2328.098, 47.95268
2330.026, 47.76101
2331.955, 47.53697
2333.883, 48.41220
2335.812, 47.26179
2337.740, 48.11958
2339.668, 48.17574
2341.597, 48.59879
2343.525, 48.22737
2345.454, 47.23407
2347.382, 47.26895
2349.311, 48.08834
2351.239, 48.54781
2353.168, 48.36271
2355.096, 48.11472
2357.025, 47.74950
2358.953, 47.48601
2360.882, 47.41324
2362.810, 47.37106
2364.739, 47.41491
2366.667, 47.32165
2368.595, 46.60116
2370.524, 46.12038
2372.452, 46.84143
2374.381, 47.84539
2376.309, 48.13065
2378.238, 48.02465
2380.166, 48.02030
2382.095, 48.07887
2384.023, 48.13478
2385.952, 48.16167
2387.880, 47.92126
2389.809, 47.44403
2391.737, 46.95947
2393.666, 46.46125
2395.594, 46.66690
2397.522, 47.94894
2399.451, 48.66076
2401.379, 48.26431
2403.308, 47.98965
2405.236, 47.96855
2407.165, 47.95785
2409.093, 47.91433
2411.022, 47.88951
2412.950, 47.83733
2414.879, 47.92216
2416.807, 48.40334
2418.736, 48.82220
2420.664, 48.85826
2422.593, 48.75974
2424.521, 48.65304
2426.449, 48.59485
2428.378, 48.68217
2430.306, 48.83449
2432.235, 49.05563
2434.163, 49.18395
2436.092, 48.68873
2438.020, 47.83799
2439.949, 47.51882
2441.877, 47.67928
2443.806, 47.87810
2445.734, 48.12093
2447.663, 48.36448
2449.591, 48.62401
2451.520, 48.78208
2453.448, 48.83060
2455.376, 48.74245
2457.305, 48.45159
2459.233, 48.32591
2461.162, 48.50176
2463.090, 48.66178
2465.019, 48.81147
2466.947, 48.84772
2468.876, 48.68388
2470.804, 48.52739
2472.733, 48.51642
2474.661, 48.38015
2476.590, 47.79890
2478.518, 47.36322
2480.447, 47.50380
2482.375, 47.78047
2484.303, 47.89626
2486.232, 48.00822
2488.160, 48.29084
2490.089, 48.62130
2492.017, 48.94794
2493.946, 49.17491
2495.874, 49.00245
2497.803, 48.74226
2499.731, 49.07404
2501.660, 49.63403
2503.588, 49.46865
2505.517, 48.81161
2507.445, 48.51479
2509.374, 48.55974
2511.302, 48.94834
2513.230, 49.61572
2515.159, 49.90060
2517.087, 49.79124
2519.016, 49.17415
2520.944, 47.95636
2522.873, 47.54254
2524.801, 48.27269
2526.730, 48.85356
2528.658, 49.34464
2530.587, 49.38521
2532.515, 48.77930
2534.444, 48.55428
2536.372, 49.00782
2538.301, 49.22101
2540.229, 48.73020
2542.157, 48.57360
2544.086, 49.33310
2546.014, 49.81657
2547.943, 49.66071
2549.871, 49.47349
2551.800, 49.33173
2553.728, 49.32253
2555.657, 49.59841
2557.585, 49.80286
2559.514, 49.68005
2561.442, 49.57518
2563.371, 49.70337
2565.299, 49.83828
2567.228, 49.81940
2569.156, 49.81368
2571.084, 49.98216
2573.013, 50.12533
2574.941, 49.94733
2576.870, 49.85083
2578.798, 50.41460
2580.727, 50.98759
2582.655, 50.88428
2584.584, 50.46047
2586.512, 49.88300
2588.441, 49.43721
2590.369, 49.51591
2592.298, 49.88921
2594.226, 50.47059
2596.155, 50.96711
2598.083, 50.67129
2600.011, 50.06311
2601.940, 50.29889
2603.868, 50.88419
2605.797, 50.41726
2607.725, 49.48952
2609.654, 49.59343
2611.582, 50.35972
2613.511, 50.72776
2615.439, 50.80826
2617.368, 51.17647
2619.296, 51.68006
2621.225, 51.36415
2623.153, 50.46429
2625.082, 50.01298
2627.010, 49.97184
2628.938, 49.86677
2630.867, 49.73393
2632.795, 50.12051
2634.724, 51.00959
2636.652, 51.22369
2638.581, 50.84837
2640.509, 50.87923
2642.438, 51.29856
2644.366, 51.20095
2646.295, 50.51386
2648.223, 50.19684
2650.152, 50.27166
2652.080, 50.56419
2654.009, 51.07935
2655.937, 51.26331
2657.865, 51.09686
2659.794, 51.07038
2661.722, 51.25481
2663.651, 51.30517
2665.579, 51.18858
2667.508, 51.02250
2669.436, 50.78144
2671.365, 50.77721
2673.293, 51.03487
2675.222, 51.37059
2677.150, 51.86542
2679.079, 51.75196
2681.007, 50.63900
2682.936, 50.42119
2684.864, 51.24427
2686.792, 51.68521
2688.721, 51.61153
2690.649, 51.77854
2692.578, 52.37399
2694.506, 52.51503
2696.435, 51.89381
2698.363, 51.79951
2700.292, 52.34317
2702.220, 52.53383
2704.149, 52.26743
2706.077, 52.18510
2708.006, 52.40547
2709.934, 52.49286
2711.863, 52.34272
2713.791, 52.37270
2715.719, 52.61306
2717.648, 52.78272
2719.576, 52.87329
2721.505, 52.55889
2723.433, 51.62067
2725.362, 51.52082
2727.290, 52.64725
2729.219, 53.11158
2731.147, 52.86592
2733.076, 52.65731
2735.004, 52.53166
2736.933, 52.46209
2738.861, 52.45660
2740.790, 52.43419
2742.718, 52.41737
2744.646, 52.09452
2746.575, 51.46578
2748.503, 51.78975
2750.432, 53.09087
2752.360, 53.63345
2754.289, 53.30054
2756.217, 53.19648
2758.146, 53.33776
2760.074, 53.19588
2762.003, 52.82265
2763.931, 52.86552
2765.860, 53.29470
2767.788, 53.48670
2769.717, 53.44793
2771.645, 53.13634
2773.573, 52.62807
2775.502, 52.88739
2777.430, 53.67248
2779.359, 53.78821
2781.287, 53.42931
2783.216, 53.60278
2785.144, 54.13610
2787.073, 54.30848
2789.001, 54.21403
2790.930, 54.10196
2792.858, 54.01405
2794.787, 54.04007
2796.715, 54.15818
2798.644, 54.38744
2800.572, 54.62525
2802.500, 54.55359
2804.429, 54.41996
2806.357, 54.86766
2808.286, 55.34645
2810.214, 54.83543
2812.143, 54.08274
2814.071, 54.12620
2816.000, 54.50706
2817.928, 54.73338
2819.857, 54.94451
2821.785, 55.27053
2823.714, 55.63884
2825.642, 56.04781
2827.571, 56.38499
2829.499, 56.54317
2831.427, 56.61942
2833.356, 56.69195
2835.284, 56.69203
2837.213, 56.37239
2839.141, 56.27686
2841.070, 56.79544
2842.998, 57.46294
2844.927, 58.25586
2846.855, 58.83712
2848.784, 58.87943
2850.712, 58.99305
2852.641, 59.56570
2854.569, 59.84144
2856.498, 59.50261
2858.426, 59.41169
2860.354, 59.89100
2862.283, 60.18043
2864.211, 59.95518
2866.140, 59.87772
2868.068, 60.08216
2869.997, 59.92102
2871.925, 59.25665
2873.854, 59.23782
2875.782, 60.15525
2877.711, 60.51827
2879.639, 60.14579
2881.568, 60.51123
2883.496, 61.50657
2885.425, 61.44419
2887.353, 60.50043
2889.281, 60.76031
2891.210, 61.90862
2893.138, 62.08849
2895.067, 61.63008
2896.995, 61.70795
2898.924, 62.03696
2900.852, 61.95715
2902.781, 61.74043
2904.709, 61.86024
2906.638, 62.15528
2908.566, 62.54432
2910.495, 62.83646
2912.423, 62.84739
2914.352, 62.68282
2916.280, 62.03919
2918.208, 61.78954
2920.137, 61.80389
2922.065, 62.71695
2923.994, 63.22640
2925.922, 63.35394
2927.851, 61.95567
2929.779, 62.52767
2931.708, 62.31007
2933.636, 62.06010
2935.565, 62.90939
2937.493, 61.73306
2939.422, 62.56492
2941.350, 62.59515
2943.279, 62.99226
2945.207, 62.24767
2947.135, 62.23627
2949.064, 62.14939
2950.992, 61.95897
2952.921, 61.96528
2954.849, 62.15217
2956.778, 62.12976
2958.706, 61.99624
2960.635, 62.21528
2962.563, 62.52252
2964.492, 62.09406
2966.420, 61.41204
2968.349, 61.51451
2970.277, 61.71507
2972.206, 60.97493
2974.134, 60.26811
2976.063, 60.69715
2977.991, 61.26374
2979.919, 61.18413
2981.848, 61.20768
2983.776, 61.98335
2985.705, 62.37459
2987.633, 61.26538
2989.562, 61.00776
2991.490, 62.43504
2993.419, 63.27205
2995.347, 63.03074
2997.276, 62.68626
2999.204, 62.29915
3001.133, 62.09640
3003.061, 62.08458
3004.990, 62.48041
3006.918, 63.17704
3008.846, 63.18401
3010.775, 62.69817
3012.703, 62.66485
3014.632, 62.84627
3016.560, 62.68248
3018.489, 62.31287
3020.417, 61.54671
3022.346, 61.13404
3024.274, 62.65129
3026.203, 63.81004
3028.131, 62.51347
3030.060, 61.43488
3031.988, 62.17370
3033.917, 63.16233
3035.845, 64.18481
3037.773, 64.64838
3039.702, 64.22829
3041.630, 64.21651
3043.559, 65.22867
3045.487, 65.34564
3047.416, 64.43078
3049.344, 64.55379
3051.273, 65.54225
3053.201, 65.06928
3055.130, 63.64976
3057.058, 63.59001
3058.987, 64.35336
3060.915, 64.95959
3062.844, 65.36695
3064.772, 65.37817
3066.700, 65.34698
3068.629, 65.54254
3070.557, 65.90958
3072.486, 66.43703
3074.414, 67.06032
3076.343, 68.16296
3078.271, 68.50770
3080.200, 67.59180
3082.128, 66.96391
3084.057, 66.82227
3085.985, 67.09415
3087.914, 67.85983
3089.842, 68.06810
3091.771, 67.82072
3093.699, 68.02833
3095.627, 68.50316
3097.556, 68.65974
3099.484, 68.66985
3101.413, 68.88717
3103.341, 69.06905
3105.270, 68.98520
3107.198, 68.77489
3109.127, 68.34523
3111.055, 68.15097
3112.984, 68.47523
3114.912, 68.74118
3116.841, 68.67614
3118.769, 68.99770
3120.698, 70.09024
3122.626, 70.34016
3124.554, 69.75376
3126.483, 69.59582
3128.411, 69.87108
3130.340, 70.39017
3132.268, 70.99086
3134.197, 71.18337
3136.125, 71.24109
3138.054, 71.51501
3139.982, 71.81679
3141.911, 71.89913
3143.839, 72.09943
3145.768, 72.66701
3147.696, 73.14335
3149.625, 73.30115
3151.553, 73.51437
3153.481, 73.84705
3155.410, 74.03759
3157.338, 74.07114
3159.267, 74.45720
3161.195, 75.12699
3163.124, 75.67605
3165.052, 76.03558
3166.981, 75.95378
3168.909, 75.72815
3170.838, 75.54480
3172.766, 75.64568
3174.695, 76.41019
3176.623, 77.12194
3178.552, 77.33603
3180.480, 77.69648
3182.408, 78.46167
3184.337, 79.00040
3186.265, 79.27770
3188.194, 78.66589
3190.122, 77.27305
3192.051, 77.35578
3193.979, 78.49520
3195.908, 79.48933
3197.836, 80.35826
3199.765, 81.14941
3201.693, 81.78283
3203.622, 82.21045
3205.550, 82.37491
3207.479, 81.98118
3209.407, 81.80043
3211.335, 82.04787
3213.264, 82.50585
3215.192, 83.19122
3217.121, 83.49023
3219.049, 83.43790
3220.978, 83.64310
3222.906, 84.11330
3224.835, 85.11001
3226.763, 86.07369
3228.692, 85.97380
3230.620, 85.95224
3232.549, 87.30180
3234.477, 88.11259
3236.406, 87.03370
3238.334, 86.82047
3240.262, 88.29914
3242.191, 89.60867
3244.119, 90.65869
3246.048, 91.08627
3247.976, 90.99891
3249.905, 90.62376
3251.833, 90.30040
3253.762, 90.71558
3255.690, 91.43351
3257.619, 92.13091
3259.547, 92.93033
3261.476, 94.11295
3263.404, 94.78882
3265.333, 94.49621
3267.261, 94.26394
3269.189, 94.10213
3271.118, 94.97874
3273.046, 96.60556
3274.975, 97.41743
3276.903, 97.78931
3278.832, 98.58092
3280.760, 99.26893
3282.689, 99.01286
3284.617, 99.10001
3286.546, 100.5291
3288.474, 101.8553
3290.403, 102.8470
3292.331, 103.5022
3294.260, 103.7654
3296.188, 104.2849
3298.116, 104.9530
3300.045, 105.0476
3301.973, 105.0622
3303.902, 106.0501
3305.830, 106.9938
3307.759, 106.7263
3309.687, 106.7993
3311.616, 108.3132
3313.544, 109.4263
3315.473, 109.8636
3317.401, 110.1844
3319.330, 110.4884
3321.258, 111.7219
3323.187, 113.4326
3325.115, 114.1667
3327.043, 114.5258
3328.972, 114.9401
3330.900, 115.6939
3332.829, 117.2180
3334.757, 118.6105
3336.686, 119.5787
3338.614, 120.8766
3340.543, 122.7482
3342.471, 123.0252
3344.400, 122.4845
3346.328, 124.6739
3348.257, 127.5377
3350.185, 127.4495
3352.114, 127.0275
3354.042, 128.0126
3355.970, 129.2706
3357.899, 130.4276
3359.827, 131.7429
3361.756, 133.2320
3363.684, 134.9749
3365.613, 136.8201
3367.541, 137.5951
3369.470, 138.2051
3371.398, 140.5137
3373.327, 142.8331
3375.255, 143.4774
3377.184, 144.4188
3379.112, 146.2710
3381.041, 148.3826
3382.969, 150.8224
3384.897, 152.0214
3386.826, 152.5661
3388.754, 155.5574
3390.683, 159.5469
3392.611, 162.4484
3394.540, 165.0492
3396.468, 167.8077
3398.397, 170.6313
3400.325, 173.3556
3402.254, 176.7790
3404.182, 180.9112
3406.111, 182.8997
3408.039, 183.8280
3409.968, 188.5941
3411.896, 194.2475
3413.824, 196.9415
3415.753, 199.4378
3417.681, 203.5619
3419.610, 207.5549
3421.538, 211.1598
3423.467, 213.9821
3425.395, 216.1392
3427.324, 222.5123
3429.252, 230.3134
3431.181, 232.8992
3433.109, 234.5384
3435.038, 239.3150
3436.966, 244.3475
3438.895, 248.9736
3440.823, 252.5382
3442.751, 254.5519
3444.680, 259.4183
3446.608, 265.8573
3448.537, 268.9815
3450.465, 270.4924
3452.394, 271.5990
3454.322, 273.8470
3456.251, 279.4504
3458.179, 283.1790
3460.108, 283.7338
3462.036, 285.2000
3463.965, 287.5533
3465.893, 289.0009
3467.822, 289.4753
3469.750, 288.0929
3471.678, 286.7310
3473.607, 287.1854
3475.535, 286.8479
3477.464, 284.8750
3479.392, 283.8355
3481.321, 283.9139
3483.249, 282.2244
3485.178, 279.5650
3487.106, 277.8409
3489.035, 276.1911
3490.963, 273.9972
3492.892, 271.4355
3494.820, 268.4895
3496.749, 265.6388
3498.677, 262.9562
3500.605, 260.0553
3502.534, 256.7549
3504.462, 252.4858
3506.391, 247.9257
3508.319, 243.6527
3510.248, 239.4044
3512.176, 235.0886
3514.105, 230.9234
3516.033, 226.9434
3517.962, 222.1678
3519.890, 217.1473
3521.819, 213.7335
3523.747, 209.9199
3525.676, 203.5648
3527.604, 197.3513
3529.532, 192.1575
3531.461, 187.7923
3533.389, 184.1462
3535.318, 180.0075
3537.246, 175.4475
3539.175, 170.3446
3541.103, 165.3799
3543.032, 161.2265
3544.960, 156.9702
3546.889, 152.3249
3548.817, 147.7232
3550.746, 143.2182
3552.674, 139.1821
3554.603, 135.2999
3556.531, 130.9113
3558.459, 126.6431
3560.388, 122.8964
3562.316, 119.3820
3564.245, 116.0453
3566.173, 113.0203
3568.102, 110.1575
3570.030, 106.3534
3571.959, 102.8297
3573.887, 101.3889
3575.816, 99.84709
3577.744, 97.07531
3579.673, 95.04800
3581.601, 94.08054
3583.530, 92.06352
3585.458, 89.36483
3587.386, 86.58006
3589.315, 84.22562
3591.243, 82.95206
3593.172, 81.83154
3595.100, 80.65727
3597.029, 79.57186
3598.957, 78.55945
3600.886, 77.59581
3602.814, 76.43613
3604.743, 74.30075
3606.671, 72.71165
3608.600, 72.41645
3610.528, 72.42920
3612.457, 72.66334
3614.385, 72.19308
3616.313, 71.27058
3618.242, 70.37312
3620.170, 69.60384
3622.099, 69.18056
3624.027, 68.55327
3625.956, 67.45295
3627.884, 67.11777
3629.813, 67.33135
3631.741, 66.35853
3633.670, 65.19326
3635.598, 65.09217
3637.527, 64.97881
3639.455, 64.43068
3641.384, 64.15121
3643.312, 64.18408
3645.240, 63.13190
3647.169, 61.78432
3649.097, 61.47794
3651.026, 61.39658
3652.954, 61.19131
3654.883, 60.81768
3656.811, 60.20578
3658.740, 60.20459
3660.668, 60.54942
3662.597, 60.89258
3664.525, 60.74886
3666.454, 59.37606
3668.382, 58.68428
3670.311, 59.52765
3672.239, 59.17896
3674.167, 58.14227
3676.096, 58.09000
3678.024, 58.23035
3679.953, 57.72336
3681.881, 57.42163
3683.810, 57.59795
3685.738, 57.85583
3687.667, 58.12152
3689.595, 58.15668
3691.524, 58.01334
3693.452, 57.71975
3695.381, 57.23810
3697.309, 56.37091
3699.238, 56.53816
3701.166, 57.47401
3703.094, 56.88268
3705.023, 55.88205
3706.951, 55.62538
3708.880, 55.54728
3710.808, 55.44453
3712.737, 55.74959
3714.665, 56.40477
3716.594, 57.01139
3718.522, 57.22335
3720.451, 56.17565
3722.379, 55.43317
3724.308, 55.47787
3726.236, 56.05315
3728.165, 56.91633
3730.093, 56.27159
3732.021, 55.28443
3733.950, 55.10993
3735.878, 55.34584
3737.807, 55.96856
3739.735, 56.12769
3741.664, 55.88857
3743.592, 55.90841
3745.521, 56.02076
3747.449, 56.09971
3749.378, 56.17427
3751.306, 56.28571
3753.235, 55.91977
3755.163, 55.25254
3757.092, 55.20628
3759.020, 55.24720
3760.948, 54.79680
3762.877, 54.53656
3764.805, 54.58727
3766.734, 55.43238
3768.662, 56.47485
3770.591, 55.46429
3772.519, 54.24479
3774.448, 54.03866
3776.376, 54.19954
3778.305, 54.64009
3780.233, 55.08250
3782.162, 55.35071
3784.090, 54.75253
3786.019, 54.40388
3787.947, 55.57598
3789.875, 55.22736
3791.804, 53.42007
3793.732, 53.25425
3795.661, 54.00979
3797.589, 55.15774
3799.518, 55.53316
3801.446, 54.22362
3803.375, 53.69820
3805.303, 53.91288
3807.232, 53.99339
3809.160, 54.17944
3811.089, 54.93372
3813.017, 55.08531
3814.946, 54.19635
3816.874, 54.18405
3818.802, 54.73143
3820.731, 55.16953
3822.659, 55.28471
3824.588, 54.90907
3826.516, 54.34677
3828.445, 53.67540
3830.373, 53.95819
3832.302, 54.60564
3834.230, 54.99378
3836.159, 55.02447
3838.087, 54.53929
3840.016, 54.54881
3841.944, 54.91837
3843.873, 54.87812
3845.801, 54.68978
3847.729, 54.50261
3849.658, 54.33163
3851.586, 54.17082
3853.515, 54.83000
3855.443, 55.53551
3857.372, 54.54250
3859.300, 54.08242
3861.229, 55.23829
3863.157, 55.64653
3865.086, 55.26922
3867.014, 54.83339
3868.943, 54.51722
3870.871, 54.66282
3872.800, 54.43246
3874.728, 53.73287
3876.656, 53.92488
3878.585, 54.39158
3880.513, 53.61255
3882.442, 53.23589
3884.370, 54.43389
3886.299, 55.12582
3888.227, 55.30017
3890.156, 55.30721
3892.084, 55.15867
3894.013, 54.86197
3895.941, 54.04449
3897.870, 52.69656
3899.798, 53.42706
3901.727, 54.75200
3903.655, 54.69764
3905.583, 54.52586
3907.512, 54.63020
3909.440, 54.20715
3911.369, 53.59834
3913.297, 53.77363
3915.226, 54.15171
3917.154, 54.71266
3919.083, 54.64312
3921.011, 53.95140
3922.940, 53.70534
3924.868, 53.67991
3926.797, 53.99561
3928.725, 54.14239
3930.654, 54.04120
3932.582, 53.89687
3934.510, 53.72533
3936.439, 53.75256
3938.367, 53.71395
3940.296, 53.44977
3942.224, 53.95370
3944.153, 54.72301
3946.081, 54.59560
3948.010, 54.14624
3949.938, 53.64026
3951.867, 53.23347
3953.795, 52.91259
3955.724, 53.20153
3957.652, 53.63347
3959.581, 53.69731
3961.509, 53.94816
3963.438, 54.35445
3965.366, 54.63153
3967.294, 54.62138
3969.223, 54.08710
3971.151, 53.76112
3973.080, 53.71692
3975.008, 53.87091
3976.937, 53.94043
3978.865, 53.08148
3980.794, 52.56614
3982.722, 53.02116
3984.651, 53.38666
3986.579, 53.62886
3988.508, 54.05033
3990.436, 54.21521
3992.365, 53.87160
3994.293, 53.73848
3996.221, 53.78735
3998.150, 53.64062
4000.078, 53.60371
4002.007, 53.92456
4003.935, 54.20709
4005.864, 54.38739
4007.792, 54.19998
4009.721, 53.96590
4011.649, 53.98266
4013.578, 54.23228
4015.506, 54.64551
4017.435, 54.07005
4019.363, 53.58393
4021.292, 54.64182
4023.220, 55.30634
4025.148, 55.18538
4027.077, 54.59292
4029.005, 53.96530
4030.934, 53.79182
4032.862, 53.77639
4034.791, 54.18683
4036.719, 54.50325
4038.648, 54.48485
4040.576, 54.22208
4042.505, 54.22001
4044.433, 54.90225
4046.362, 54.37959
4048.290, 53.29618
4050.219, 53.88691
4052.147, 54.43600
4054.075, 54.55394
4056.004, 54.63815
4057.932, 54.36108
4059.861, 54.59642
4061.789, 54.70282
4063.718, 54.11511
4065.646, 54.06720
4067.575, 54.08228
4069.503, 54.31767
4071.432, 54.49944
4073.360, 54.27397
4075.289, 53.79187
4077.217, 53.56817
4079.146, 54.02039
4081.074, 54.62410
4083.002, 54.83020
4084.931, 54.70945
4086.859, 54.39790
4088.788, 54.24086
4090.716, 54.28295
4092.645, 54.31524
4094.573, 54.26065
4096.502, 53.72284
4098.430, 53.69608
4100.359, 54.33154
4102.287, 54.35680
4104.216, 54.18114
4106.144, 54.43980
4108.073, 54.30612
4110.001, 54.08811
4111.930, 54.39229
4113.858, 54.43070
4115.787, 54.48961
4117.715, 54.63438
4119.644, 54.70197
4121.572, 55.02800
4123.500, 55.00194
4125.429, 54.83149
4127.357, 54.81610
4129.286, 55.05543
4131.214, 54.60804
4133.143, 54.11920
4135.071, 54.65071
4137.000, 54.78605
4138.928, 54.65153
4140.856, 54.70052
4142.785, 54.67213
4144.713, 54.34347
4146.642, 54.71375
4148.570, 55.80172
4150.499, 55.41671
4152.427, 55.02375
4154.356, 55.00937
4156.284, 55.10165
4158.213, 55.97337
4160.141, 55.93001
4162.070, 55.37093
4163.998, 55.44576
4165.927, 55.69744
4167.855, 56.02538
4169.784, 56.27961
4171.712, 56.28714
4173.641, 56.15025
4175.569, 56.22608
4177.498, 56.38002
4179.426, 55.97581
4181.354, 55.76599
4183.283, 56.43653
4185.211, 56.48242
4187.140, 55.70508
4189.068, 55.34914
4190.997, 55.39566
4192.925, 55.21679
4194.854, 55.88879
4196.782, 57.02625
4198.710, 55.90935
4200.639, 55.03101
4202.567, 55.66771
4204.496, 56.34462
4206.424, 57.03399
4208.353, 56.52455
4210.281, 55.97729
4212.210, 56.63858
4214.138, 56.51952
4216.067, 55.75087
4217.995, 56.57947
4219.924, 56.87408
4221.852, 55.45373
4223.781, 54.94751
4225.709, 55.29303
4227.638, 56.78272
4229.566, 57.47583
4231.495, 56.51684
4233.423, 55.83581
4235.352, 55.51461
4237.280, 55.52749
4239.208, 55.84647
4241.137, 56.50800
4243.065, 56.24484
4244.994, 55.69997
4246.922, 55.52383
4248.851, 55.97957
4250.779, 57.05620
4252.708, 57.04754
4254.636, 56.75896
4256.564, 56.81213
4258.493, 57.02079
4260.421, 57.21527
4262.350, 56.06376
4264.278, 55.51852
4266.207, 57.12750
4268.135, 57.25108
4270.064, 56.50491
4271.992, 57.29116
4273.921, 58.05626
4275.849, 58.31133
4277.778, 57.35429
4279.706, 56.22674
4281.635, 56.70895
4283.563, 57.28801
4285.492, 57.64832
4287.420, 57.35476
4289.349, 57.14534
4291.277, 57.89757
4293.206, 58.27179
4295.134, 58.09111
4297.063, 56.65408
4298.991, 55.86277
4300.919, 56.39657
4302.848, 57.50101
4304.776, 58.20171
4306.705, 58.52063
4308.633, 57.31361
4310.562, 56.20630
4312.490, 56.83416
4314.418, 58.04134
4316.347, 58.55516
4318.275, 58.32503
4320.204, 57.53028
4322.132, 57.91990
4324.061, 58.26618
4325.989, 57.71151
4327.918, 57.87613
4329.846, 58.54491
4331.775, 59.17920
4333.703, 59.19944
4335.632, 58.46638
4337.560, 58.04477
4339.489, 58.00878
4341.417, 58.58373
4343.346, 58.85463
4345.274, 58.73091
4347.203, 58.18421
4349.131, 58.00787
4351.060, 58.67705
4352.988, 59.38996
4354.917, 59.68004
4356.845, 58.28056
4358.773, 57.72410
4360.702, 58.54161
4362.630, 57.83266
4364.559, 57.21711
4366.487, 58.63036
4368.416, 59.64321
4370.344, 59.97524
4372.272, 59.45947
4374.201, 58.82888
4376.129, 58.41541
4378.058, 57.92579
4379.986, 57.62524
4381.915, 58.01748
4383.843, 58.48544
4385.772, 58.87335
4387.700, 58.50840
4389.629, 58.22259
4391.557, 58.49140
4393.486, 59.38287
4395.414, 60.19871
4397.343, 59.31229
4399.271, 58.79951
4401.200, 59.08171
4403.128, 59.55892
4405.057, 59.52270
4406.985, 58.22876
4408.914, 58.52288
4410.842, 59.72738
4412.771, 59.74398
4414.699, 59.76375
4416.627, 60.06893
4418.556, 60.13429
4420.484, 60.11589
4422.413, 60.24584
4424.341, 59.86060
4426.270, 59.35934
4428.198, 60.22778
4430.126, 60.46679
4432.055, 59.36607
4433.983, 59.46978
4435.912, 59.94954
4437.840, 60.15895
4439.769, 59.99437
4441.697, 59.66374
4443.626, 59.77396
4445.554, 59.99506
4447.483, 60.22810
4449.411, 60.00510
4451.340, 59.83130
4453.268, 60.08281
4455.197, 60.85529
4457.125, 61.56953
4459.054, 60.72593
4460.982, 59.74200
4462.911, 59.06844
4464.839, 59.48554
4466.768, 60.08976
4468.696, 59.89125
4470.625, 60.89110
4472.553, 62.22912
4474.481, 62.08204
4476.410, 60.96577
4478.338, 59.20689
4480.267, 60.52954
4482.195, 61.87807
4484.124, 61.65148
4486.052, 60.23075
4487.980, 58.99116
4489.909, 60.36928
4491.837, 60.36583
4493.766, 59.18286
4495.694, 60.38540
4497.623, 61.34708
4499.551, 60.85071
4501.480, 60.66245
4503.408, 60.69241
4505.337, 61.01324
4507.265, 60.65151
4509.194, 59.96954
4511.122, 60.21471
4513.051, 60.65838
4514.979, 61.08955
4516.908, 61.21625
4518.836, 60.88165
4520.765, 59.86694
4522.693, 60.30545
4524.622, 61.14528
4526.550, 60.58213
4528.479, 60.03162
4530.407, 59.76942
4532.335, 60.11256
4534.264, 60.36701
4536.192, 60.20395
4538.121, 60.56649
4540.049, 61.21146
4541.978, 62.12186
4543.906, 61.80702
4545.834, 60.94381
4547.763, 60.80027
4549.691, 61.25512
4551.620, 62.08457
4553.548, 62.62462
4555.477, 62.56826
4557.405, 61.64586
4559.334, 61.12228
4561.262, 60.60370
4563.191, 59.42908
4565.119, 60.24291
4567.048, 61.89732
4568.976, 61.78603
4570.905, 61.36584
4572.833, 61.11153
4574.762, 62.16055
4576.690, 62.74805
4578.619, 62.03260
4580.547, 61.62780
4582.476, 61.46004
4584.404, 61.53101
4586.333, 61.35835
4588.261, 61.27905
4590.189, 61.90838
4592.118, 62.97679
4594.046, 64.03666
4595.975, 63.67185
4597.903, 62.99382
4599.832, 62.38410
4601.760, 61.85571
4603.688, 61.69527
4605.617, 62.30523
4607.545, 61.53656
4609.474, 60.74154
4611.402, 61.62978
4613.331, 62.73630
4615.259, 63.43023
4617.188, 62.21896
4619.116, 62.02829
4621.045, 63.14760
4622.973, 63.34954
4624.902, 63.28368
4626.830, 63.23427
4628.759, 62.18763
4630.687, 61.31398
4632.616, 61.38043
4634.544, 62.37421
4636.473, 63.28197
4638.401, 62.59953
4640.330, 62.42601
4642.258, 62.71225
4644.187, 62.77439
4646.115, 62.97654
4648.043, 63.33684
4649.972, 63.57924
4651.900, 63.49347
4653.829, 63.08982
4655.757, 63.43443
4657.686, 64.13809
4659.614, 65.18430
4661.542, 65.25829
4663.471, 64.59038
4665.399, 63.21537
4667.328, 62.58081
4669.256, 62.54419
4671.185, 62.56120
4673.113, 63.48048
4675.042, 64.68144
4676.970, 63.41002
4678.899, 62.85999
4680.827, 63.66887
4682.756, 64.46664
4684.684, 64.46810
4686.613, 63.54556
4688.541, 64.33533
4690.470, 65.07866
4692.398, 64.36676
4694.327, 63.38674
4696.255, 63.00502
4698.184, 64.30194
4700.112, 64.54373
4702.041, 64.14394
4703.969, 63.98541
4705.897, 63.62500
4707.826, 63.34491
4709.754, 64.22790
4711.683, 64.55020
4713.611, 64.24771
4715.540, 64.52428
4717.468, 64.56935
4719.396, 64.36959
4721.325, 65.86024
4723.253, 66.12855
4725.182, 63.66610
4727.110, 64.31799
4729.039, 65.18147
4730.967, 64.63313
4732.896, 65.33054
4734.824, 66.02141
4736.753, 65.39406
4738.681, 64.86049
4740.610, 64.55941
4742.538, 64.62430
4744.467, 64.74586
4746.395, 64.84489
4748.324, 64.74012
4750.252, 65.20451
4752.181, 65.72331
4754.109, 64.34951
4756.038, 64.40976
4757.966, 65.74493
4759.895, 65.71984
4761.823, 66.04106
4763.751, 66.81590
4765.680, 66.53017
4767.608, 66.41006
4769.537, 66.79772
4771.465, 66.94646
4773.394, 66.61648
4775.322, 65.85738
4777.250, 66.22676
4779.179, 66.75157
4781.107, 66.85670
4783.036, 67.23513
4784.964, 67.39550
4786.893, 67.04014
4788.821, 66.72574
4790.750, 66.49012
4792.678, 66.24871
4794.607, 66.55656
4796.535, 67.01440
4798.464, 67.25199
4800.392, 67.43993
4802.321, 67.46285
4804.249, 66.95965
4806.178, 67.26987
4808.106, 67.93210
4810.035, 68.37440
4811.963, 67.54546
4813.892, 66.32108
4815.820, 65.93404
4817.749, 67.00214
4819.677, 68.60344
4821.605, 68.98326
4823.534, 68.38262
4825.462, 67.72525
4827.391, 69.36063
4829.319, 69.84077
4831.248, 69.14777
4833.176, 68.50728
4835.104, 67.99588
4837.033, 67.87877
4838.961, 69.25266
4840.890, 70.19732
4842.818, 70.23734
4844.747, 68.57460
4846.675, 67.93290
4848.604, 68.50264
4850.532, 69.17036
4852.461, 69.63025
4854.389, 69.71327
4856.318, 68.62177
4858.246, 68.27396
4860.175, 68.87310
4862.103, 69.67182
4864.032, 70.02548
4865.960, 69.96494
4867.889, 70.64874
4869.817, 70.73305
4871.746, 70.18644
4873.674, 70.32591
4875.603, 70.24272
4877.531, 69.88033
4879.459, 70.49550
4881.388, 70.61806
4883.316, 70.11565
4885.245, 69.86162
4887.173, 69.85725
4889.102, 70.01739
4891.030, 69.97936
4892.958, 69.87263
4894.887, 69.73673
4896.815, 69.34330
4898.744, 69.77475
4900.672, 70.91959
4902.601, 71.13995
4904.529, 71.26650
4906.458, 71.54801
4908.386, 72.44529
4910.315, 72.35365
4912.243, 71.39584
4914.172, 70.92125
4916.100, 71.40939
4918.029, 72.28271
4919.957, 71.26675
4921.886, 71.38396
4923.814, 72.36182
4925.743, 72.16161
4927.671, 72.07055
4929.600, 72.18192
4931.528, 72.21988
4933.457, 72.39481
4935.385, 72.49557
4937.313, 71.90310
4939.242, 71.67761
4941.170, 72.05655
4943.099, 73.52384
4945.027, 72.99989
4946.956, 72.08592
4948.884, 73.94817
4950.813, 74.19724
4952.741, 73.60261
4954.669, 73.25912
4956.598, 73.17316
4958.526, 73.26287
4960.455, 73.45200
4962.383, 73.99853
4964.312, 74.13866
4966.240, 73.20166
4968.169, 73.15047
4970.097, 73.77372
4972.026, 74.86931
4973.954, 75.33414
4975.883, 75.54112
4977.811, 75.70666
4979.740, 75.36913
4981.668, 74.99723
4983.597, 74.75857
4985.525, 74.32890
4987.454, 74.77221
4989.382, 76.03345
4991.311, 75.32100
4993.239, 75.35683
4995.167, 76.14129
4997.096, 74.70578
4999.024, 75.11287
5000.953, 76.73782
5002.881, 76.24575
5004.810, 76.36308
5006.738, 76.92271
5008.667, 77.01917
5010.595, 77.26573
5012.523, 77.19498
5014.452, 75.68945
5016.380, 76.27386
5018.309, 77.03230
5020.237, 76.21471
5022.166, 75.70334
5024.094, 75.69113
5026.023, 76.21574
5027.951, 77.18832
5029.880, 77.26949
5031.808, 76.04775
5033.737, 77.50499
5035.665, 77.39120
5037.594, 75.64087
5039.522, 77.95677
5041.451, 77.81338
5043.379, 75.65776
5045.308, 76.85501
5047.236, 78.18514
5049.165, 78.87933
5051.093, 78.52757
5053.021, 77.07877
5054.950, 76.04404
5056.878, 77.42403
5058.807, 78.52668
5060.735, 78.71772
5062.664, 77.67805
5064.592, 79.17301
5066.521, 80.13317
5068.449, 79.27514
5070.377, 78.83110
5072.306, 78.53407
5074.234, 78.30006
5076.163, 78.26003
5078.091, 78.23330
5080.020, 78.31026
5081.948, 78.81413
5083.877, 79.45718
5085.805, 79.79454
5087.734, 78.86410
5089.662, 79.84299
5091.591, 81.08422
5093.519, 81.24690
5095.448, 81.13025
5097.376, 81.03265
5099.305, 81.08605
5101.233, 81.63340
5103.162, 81.93310
5105.090, 81.87394
5107.019, 81.81369
5108.947, 82.01510
5110.875, 82.20252
5112.804, 81.80130
5114.732, 80.96396
5116.661, 80.60815
5118.589, 81.79296
5120.518, 81.85868
5122.446, 81.43633
5124.375, 81.07272
5126.303, 82.14929
5128.231, 82.76484
5130.160, 82.48396
5132.088, 82.49991
5134.017, 82.90907
5135.945, 83.33384
5137.874, 82.96751
5139.802, 82.63696
5141.731, 82.70931
5143.659, 83.61203
5145.588, 83.66080
5147.516, 83.73254
5149.445, 84.24130
5151.373, 83.36828
5153.302, 82.31275
5155.230, 81.90955
5157.159, 84.30669
5159.087, 84.76939
5161.016, 84.03230
5162.944, 84.46960
5164.873, 84.69338
5166.801, 85.30040
5168.729, 86.71838
5170.658, 86.06241
5172.586, 85.60893
5174.515, 86.17445
5176.443, 86.13272
5178.372, 85.83221
5180.300, 85.59785
5182.229, 85.92025
5184.157, 86.36262
5186.085, 86.62524
5188.014, 86.49892
5189.942, 85.33769
5191.871, 85.02185
5193.799, 86.28533
5195.728, 87.34182
5197.656, 87.56715
5199.585, 87.19198
5201.513, 87.06247
5203.442, 86.67915
5205.370, 86.29689
5207.299, 86.32436
5209.227, 85.47446
5211.156, 86.06670
5213.084, 88.53613
5215.013, 87.07774
5216.941, 86.64350
5218.870, 87.46652
5220.798, 87.79455
5222.727, 87.41799
5224.655, 87.25698
5226.583, 88.24434
5228.512, 88.54253
5230.440, 88.70896
5232.369, 88.85634
5234.297, 88.19231
5236.226, 87.62626
5238.154, 87.55122
5240.083, 88.65777
5242.011, 88.62838
5243.939, 88.35460
5245.868, 88.53513
5247.796, 88.05250
5249.725, 88.55925
5251.653, 89.85588
5253.582, 89.64573
5255.510, 89.75243
5257.439, 89.96973
5259.367, 89.63579
5261.296, 90.25718
5263.224, 91.02260
5265.153, 91.42465
5267.081, 90.73173
5269.010, 90.81525
5270.938, 91.23444
5272.867, 90.28494
5274.795, 90.11762
5276.724, 90.45222
5278.652, 91.00024
5280.581, 92.05045
5282.509, 92.25363
5284.438, 91.74741
5286.366, 91.79113
5288.294, 91.98040
5290.223, 92.10766
5292.151, 91.98591
5294.080, 92.02743
5296.008, 92.45744
5297.937, 93.15005
5299.865, 93.48677
5301.793, 92.98917
5303.722, 92.31786
5305.650, 92.25568
5307.579, 92.84667
5309.507, 92.95480
5311.436, 92.43697
5313.364, 93.56835
5315.293, 93.70603
5317.221, 93.08128
5319.150, 92.55473
5321.078, 93.90163
5323.007, 95.01526
5324.935, 94.97321
5326.864, 94.85690
5328.792, 95.58053
5330.721, 96.29429
5332.649, 95.54492
5334.578, 94.97619
5336.506, 95.41574
5338.435, 96.62985
5340.363, 95.73799
5342.292, 94.40606
5344.220, 94.00047
5346.148, 96.62566
5348.077, 96.71146
5350.005, 96.21850
5351.934, 96.30000
5353.862, 98.27522
5355.791, 97.82027
5357.719, 96.12699
5359.647, 95.44865
5361.576, 96.73042
5363.504, 97.21213
5365.433, 96.34087
5367.361, 97.35226
5369.290, 98.22390
5371.218, 98.13438
5373.147, 96.68966
5375.075, 97.46764
5377.004, 98.22401
5378.932, 98.02848
5380.861, 96.25989
5382.789, 96.95070
5384.718, 97.91445
5386.646, 97.01398
5388.575, 98.08667
5390.503, 99.22742
5392.432, 99.48049
5394.360, 97.87437
5396.289, 98.56111
5398.217, 99.60421
5400.146, 99.72576
5402.074, 100.4544
5404.002, 100.2773
5405.931, 99.56568
5407.859, 99.13830
5409.788, 100.2654
5411.716, 101.1180
5413.645, 101.0444
5415.573, 100.6442
5417.501, 99.37935
5419.430, 98.60906
5421.358, 99.48598
5423.287, 99.25990
5425.215, 100.2869
5427.144, 101.7814
5429.072, 100.8090
5431.001, 99.51995
5432.929, 99.22988
5434.858, 100.1964
5436.786, 100.9526
5438.715, 101.2673
5440.643, 101.5045
5442.572, 102.0680
5444.500, 102.4694
5446.429, 103.6484
5448.357, 104.7328
5450.286, 102.7699
5452.214, 102.2068
5454.143, 102.2209
5456.071, 102.3073
5458.000, 104.0368
5459.928, 104.6506
5461.856, 104.1537
5463.785, 102.9744
5465.713, 102.7608
5467.642, 103.0478
5469.570, 103.5623
5471.499, 104.1840
5473.427, 104.2724
5475.355, 104.4866
5477.284, 104.9264
5479.212, 104.4737
5481.141, 103.0511
5483.069, 103.0650
5484.998, 106.2400
5486.926, 106.4207
5488.855, 105.6768
5490.783, 105.3779
5492.712, 107.0993
5494.640, 104.7224
5496.569, 104.7854
5498.497, 107.3032
5500.426, 105.1862
5502.354, 105.1736
5504.283, 106.2680
5506.211, 107.2011
5508.140, 107.3615
5510.068, 106.8658
5511.997, 106.9909
5513.925, 109.0066
5515.854, 107.8877
5517.782, 108.0912
5519.710, 109.1491
5521.639, 108.6572
5523.567, 108.5569
5525.496, 108.7170
5527.424, 108.9983
5529.353, 109.4107
5531.281, 109.4968
5533.209, 108.9344
5535.138, 108.0086
5537.066, 108.9280
5538.995, 109.4712
5540.923, 109.6426
5542.852, 109.7475
5544.780, 110.5004
5546.709, 110.2674
5548.637, 109.9899
5550.566, 110.8042
5552.494, 111.3994
5554.423, 110.6752
5556.351, 109.8569
5558.280, 111.2436
5560.208, 110.4740
5562.137, 110.8491
5564.065, 112.2435
5565.994, 111.9708
5567.922, 111.5611
5569.851, 112.0929
5571.779, 112.8636
5573.708, 110.7142
5575.636, 112.8407
5577.564, 114.7356
5579.493, 114.1358
5581.421, 113.1783
5583.350, 113.0288
5585.278, 113.0997
5587.207, 112.9340
5589.135, 112.2363
5591.063, 112.9076
5592.992, 113.6749
5594.920, 113.4563
5596.849, 113.6560
5598.777, 113.5233
5600.706, 113.7012
5602.634, 114.6933
5604.563, 114.7120
5606.491, 114.5140
5608.420, 114.3237
5610.348, 114.1709
5612.277, 114.0476
5614.205, 115.1819
5616.134, 116.2145
5618.062, 115.1076
5619.991, 115.3558
5621.919, 115.1737
5623.848, 114.8763
5625.776, 115.4275
5627.705, 115.5696
5629.633, 115.7164
5631.562, 115.9991
5633.490, 116.4028
5635.418, 115.7625
5637.347, 115.9524
5639.275, 117.1707
5641.204, 119.2287
5643.132, 118.0404
5645.061, 116.8749
5646.989, 116.9092
5648.917, 118.3595
5650.846, 118.7975
5652.774, 118.4580
5654.703, 118.0933
5656.631, 118.5537
5658.560, 118.7546
5660.488, 118.4052
5662.417, 118.2664
5664.345, 119.3775
5666.274, 118.4937
5668.202, 119.4458
5670.131, 121.0893
5672.059, 120.2143
5673.988, 119.6756
5675.916, 119.4902
5677.845, 119.8916
5679.773, 121.1362
5681.702, 119.7539
5683.630, 119.5104
5685.559, 120.2912
5687.487, 120.8434
5689.416, 119.5683
5691.344, 119.7531
5693.272, 121.0079
5695.201, 122.1081
5697.129, 121.0755
5699.058, 121.2338
5700.986, 121.8999
5702.915, 121.8849
5704.843, 118.7464
5706.771, 120.3527
5708.700, 122.0354
5710.628, 120.8241
5712.557, 122.9186
5714.485, 123.2936
5716.414, 123.1516
5718.342, 123.1863
5720.271, 121.8184
5722.199, 122.0467
5724.128, 122.2635
5726.056, 122.0112
5727.985, 122.4274
5729.913, 124.2905
5731.842, 122.5882
5733.770, 119.4946
5735.699, 122.7526
5737.627, 125.6170
5739.556, 125.0494
5741.484, 122.5152
5743.413, 120.8814
5745.341, 123.9396
5747.270, 124.3935
5749.198, 123.4258
5751.126, 123.7014
5753.055, 123.5218
5754.983, 124.2772
5756.912, 124.5621
5758.840, 123.7334
5760.769, 123.8902
5762.697, 123.3831
5764.625, 122.8884
5766.554, 123.1050
5768.482, 124.9387
5770.411, 124.1046
5772.339, 122.9790
5774.268, 122.7323
5776.196, 123.7318
5778.125, 123.3041
5780.053, 124.6625
5781.982, 126.5050
5783.910, 126.6324
5785.839, 124.9007
5787.767, 122.8180
5789.696, 123.3616
5791.624, 126.7586
5793.553, 127.1615
5795.481, 124.9375
5797.410, 124.5579
5799.338, 125.9240
5801.267, 125.0734
5803.195, 125.9685
5805.124, 125.8020
5807.052, 124.9845
5808.980, 125.0201
5810.909, 126.1082
5812.837, 126.4782
5814.766, 126.1129
5816.694, 125.5308
5818.623, 126.3781
5820.551, 126.0509
5822.479, 125.9044
5824.408, 126.6176
5826.336, 128.3515
5828.265, 128.0377
5830.193, 127.5726
5832.122, 127.1567
5834.050, 126.5620
5835.979, 127.2653
5837.907, 130.2260
5839.836, 131.5807
5841.764, 129.6899
5843.693, 126.7651
5845.621, 129.1098
5847.550, 129.8322
5849.478, 128.3643
5851.407, 127.6419
5853.335, 129.5647
5855.264, 130.4643
5857.192, 130.2141
5859.121, 129.5573
5861.049, 129.7505
5862.978, 129.0748
5864.906, 129.3397
5866.834, 130.5557
5868.763, 131.4926
5870.691, 130.8259
5872.620, 131.1418
5874.548, 131.5454
5876.477, 131.1260
5878.405, 130.7665
5880.333, 132.5437
5882.262, 134.1473
5884.190, 134.2243
5886.119, 132.4308
5888.047, 133.5840
5889.976, 133.7083
5891.904, 133.6862
5893.833, 134.2031
5895.761, 132.5000
5897.690, 133.5424
5899.618, 133.6237
5901.547, 132.3386
5903.475, 131.6084
5905.404, 134.4948
5907.332, 135.1673
5909.261, 134.9685
5911.189, 135.1591
5913.118, 134.6189
5915.046, 134.4843
5916.975, 134.9563
5918.903, 135.6749
5920.832, 136.0404
5922.760, 133.6286
5924.688, 133.8211
5926.617, 133.8549
5928.545, 132.9216
5930.474, 132.9339
5932.402, 135.1368
5934.331, 135.6076
5936.259, 135.3609
5938.188, 135.4096
5940.116, 132.5223
5942.044, 135.1120
5943.973, 135.4131
5945.901, 134.2386
5947.830, 136.0677
5949.758, 136.8416
5951.687, 138.2253
5953.615, 137.6562
5955.544, 136.0497
5957.472, 137.4311
5959.401, 136.7140
5961.329, 134.3215
5963.258, 135.2615
5965.186, 135.7979
5967.115, 135.9524
5969.043, 134.5811
5970.972, 135.1800
5972.900, 134.9893
5974.829, 134.7663
5976.757, 135.6426
5978.686, 134.4932
5980.614, 135.3520
5982.542, 135.4092
5984.471, 135.8332
5986.399, 135.4628
5988.328, 135.3378
5990.256, 136.0075
5992.185, 136.2372
5994.113, 135.7753
5996.042, 136.2227
5997.970, 135.0455
5999.898, 135.2939
6001.827, 136.1574
6003.755, 135.7354
6005.684, 136.1974
6007.612, 136.3226
6009.541, 134.9182
6011.469, 136.1741
6013.398, 136.2795
6015.326, 136.7492
6017.255, 136.4801
6019.183, 137.0477
6021.112, 139.3972
6023.040, 139.1227
6024.969, 137.8815
6026.897, 136.4909
6028.826, 137.0585
6030.754, 139.8528
6032.683, 137.4925
6034.611, 137.4946
6036.540, 137.6973
6038.468, 138.0781
6040.396, 139.0435
6042.325, 137.2205
6044.253, 137.1835
6046.182, 137.8602
6048.110, 139.0082
6050.039, 140.3530
6051.967, 137.8349
6053.896, 138.8930
6055.824, 140.4406
6057.752, 140.5680
6059.681, 139.2153
6061.609, 139.4299
6063.538, 137.3155
6065.466, 137.9823
6067.395, 139.9139
6069.323, 140.0685
6071.252, 140.2511
6073.180, 138.0621
6075.109, 139.4315
6077.037, 141.3930
6078.966, 140.2206
6080.894, 139.0867
6082.823, 139.8307
6084.751, 141.6781
6086.680, 142.0905
6088.608, 140.7961
6090.537, 142.6637
6092.465, 139.7507
6094.394, 139.9524
6096.322, 141.8674
6098.250, 142.9688
6100.179, 143.4554
6102.107, 142.1072
6104.036, 141.9439
6105.964, 142.1300
6107.893, 142.1597
6109.821, 142.7001
6111.750, 141.5992
6113.678, 142.9273
6115.606, 142.8305
6117.535, 141.8064
6119.463, 143.0999
6121.392, 142.1889
6123.320, 143.9292
6125.249, 143.8920
6127.177, 143.1104
6129.106, 143.9436
6131.034, 142.0690
6132.963, 142.6105
6134.891, 141.8115
6136.820, 139.9453
6138.748, 139.5456
6140.677, 143.6706
6142.605, 143.1718
6144.534, 142.8165
6146.462, 143.8118
6148.391, 144.5280
6150.319, 142.6703
6152.248, 143.4011
6154.176, 144.6312
6156.104, 145.2517
6158.033, 144.8457
6159.961, 143.6990
6161.890, 144.0279
6163.818, 143.7342
6165.747, 142.3959
6167.675, 142.8990
6169.604, 145.1376
6171.532, 143.7851
6173.460, 142.2131
6175.389, 142.8910
6177.317, 143.7774
6179.246, 144.5925
6181.174, 146.2044
6183.103, 143.8367
6185.031, 144.1394
6186.960, 144.8521
6188.888, 143.8868
6190.817, 141.9650
6192.745, 143.4494
6194.674, 144.9017
6196.602, 145.9156
6198.531, 144.1807
6200.459, 142.0196
6202.388, 143.4195
6204.316, 142.2766
6206.245, 142.6671
6208.173, 143.7784
6210.102, 143.8210
6212.030, 143.0533
6213.958, 144.8687
6215.887, 143.9245
6217.815, 143.7291
6219.744, 143.4800
6221.672, 143.9291
6223.601, 145.6708
6225.529, 143.9024
6227.458, 143.8889
6229.386, 143.9204
6231.314, 144.0095
6233.243, 144.0372
6235.171, 143.3956
6237.100, 142.7539
6239.028, 143.0470
6240.957, 143.6353
6242.885, 143.8669
6244.814, 143.6950
6246.742, 143.6743
6248.671, 143.1757
6250.599, 143.4937
6252.528, 143.7853
6254.456, 143.7521
6256.385, 143.4677
6258.313, 142.7422
6260.242, 143.5600
6262.170, 144.4600
6264.099, 144.4651
6266.027, 144.5292
6267.956, 145.2423
6269.884, 143.4796
6271.813, 142.7086
6273.741, 144.1547
6275.669, 144.7852
6277.598, 144.0172
6279.526, 144.1418
6281.455, 148.2219
6283.383, 146.1441
6285.312, 145.2052
6287.240, 145.3633
6289.168, 145.8665
6291.097, 146.9466
6293.025, 143.8761
6294.954, 145.7883
6296.882, 148.5855
6298.811, 147.6467
6300.739, 145.0755
6302.668, 146.1956
6304.596, 143.1764
6306.525, 145.9879
6308.453, 145.8107
6310.382, 144.5496
6312.310, 144.5116
6314.239, 144.8665
6316.167, 144.4668
6318.096, 146.4980
6320.024, 146.8094
6321.953, 145.5599
6323.881, 144.9185
6325.810, 146.1293
6327.738, 146.6710
6329.667, 147.5262
6331.595, 144.8773
6333.523, 145.6953
6335.452, 147.8351
6337.380, 145.7035
6339.309, 144.0580
6341.237, 145.1507
6343.166, 145.7075
6345.094, 145.5371
6347.022, 145.5848
6348.951, 146.8848
6350.879, 149.7632
6352.808, 148.2275
6354.736, 147.2594
6356.665, 147.5373
6358.593, 148.1288
6360.522, 148.0807
6362.450, 146.9570
6364.379, 146.5004
6366.307, 148.1631
6368.236, 147.6281
6370.164, 147.2689
6372.093, 148.1529
6374.021, 148.6446
6375.950, 147.7480
6377.878, 146.4346
6379.807, 146.4745
6381.735, 147.1384
6383.664, 147.3036
6385.592, 146.7159
6387.521, 146.3385
6389.449, 149.5401
6391.377, 147.7844
6393.306, 146.1402
6395.234, 147.4851
6397.163, 149.3010
6399.091, 148.3366
6401.020, 149.3771
6402.948, 149.4589
6404.876, 150.1109
6406.805, 149.0312
6408.733, 149.2728
6410.662, 151.6685
6412.590, 149.8702
6414.519, 151.3274
6416.447, 150.0717
6418.376, 150.8357
6420.304, 150.3081
6422.233, 149.1006
6424.161, 150.4075
6426.090, 151.6713
6428.018, 150.7597
6429.947, 150.8595
6431.875, 151.0571
6433.804, 151.1687
6435.732, 151.1765
6437.661, 150.9294
6439.589, 151.1578
6441.518, 150.8305
6443.446, 151.0441
6445.375, 150.9404
6447.303, 151.5164
6449.231, 153.1982
6451.160, 154.2044
6453.088, 150.6574
6455.017, 151.7388
6456.945, 152.3628
6458.874, 152.4559
6460.802, 152.1056
6462.730, 151.7641
6464.659, 152.7948
6466.587, 153.2018
6468.516, 154.1931
6470.444, 154.2361
6472.373, 155.8542
6474.301, 156.1859
6476.230, 154.4415
6478.158, 155.5781
6480.087, 159.1579
6482.015, 153.4837
6483.944, 155.3649
6485.872, 156.5755
6487.801, 156.1103
6489.729, 155.9172
6491.658, 154.0366
6493.586, 155.1209
6495.515, 156.8944
6497.443, 157.9048
6499.372, 158.4122
6501.300, 159.9242
6503.229, 160.5374
6505.157, 158.3203
6507.085, 160.9827
6509.014, 158.4888
6510.942, 158.6240
6512.871, 158.5678
6514.799, 159.3471
6516.728, 160.7034
6518.656, 160.2296
6520.584, 157.3973
6522.513, 159.1965
6524.441, 159.2580
6526.370, 162.0208
6528.298, 161.1581
6530.227, 159.2102
6532.155, 160.0744
6534.084, 161.1031
6536.012, 161.0014
6537.941, 160.3022
6539.869, 160.0287
6541.798, 160.0323
6543.726, 160.7680
6545.655, 161.9841
6547.583, 163.2502
6549.512, 164.8716
6551.440, 162.1974
6553.369, 161.2885
6555.297, 161.3844
6557.226, 162.4395
6559.154, 164.5039
6561.083, 165.4038
6563.011, 163.1329
6564.939, 163.5415
6566.868, 160.0387
6568.796, 161.7697
6570.725, 162.2913
6572.653, 163.3270
6574.582, 164.0279
6576.510, 163.1218
6578.438, 162.9480
6580.367, 163.8349
6582.295, 165.7154
6584.224, 165.0301
6586.152, 165.1170
6588.081, 165.8015
6590.009, 165.4040
6591.938, 164.5713
6593.866, 165.4003
6595.795, 164.0953
6597.723, 164.0146
6599.652, 165.2406
6601.580, 166.7283
6603.509, 166.7791
6605.437, 165.9440
6607.366, 165.9564
6609.294, 167.3048
6611.223, 166.8577
6613.151, 167.2750
6615.080, 168.3673
6617.008, 168.8181
6618.937, 167.3508
6620.865, 165.8699
6622.793, 165.8246
6624.722, 166.0803
6626.650, 165.5471
6628.579, 166.3410
6630.507, 167.2088
##END=



