##NAMES=Clinohumite
##RRUFFID=R040122
##IDEAL CHEMISTRY=Mg_9_(SiO_4_)_4_F_2_
##LOCALITY=Anzahamazonono,  Madagascar
##OWNER=RRUFF
##SOURCE=University of Arizona Mineral Museum
##DESCRIPTION=Orange-brown blebs embedded in calcite matrix
##STATUS=The identification of this mineral has been confirmed by X-ray diffraction and chemical analysis
##URL=https://www.rruff.net/odr/rruff_sample/R040122
##MEASURED CHEMISTRY=(Mg_0.96_Fe_0.02_Ti_0.01_Ca_0.01_)_9_(SiO_4_)_4_(F_0.59_(OH)_0.41_)_2_
##DIFFRACTION SAMPLE DESCRIPTION=Powder
##CELL PARAMETERS=a: 4.7428 b: 10.239 c: 13.6355 alpha: 100.83 beta: 90 gamma: 90 volume: 650.4 crystal system: monoclinic
##FILETYPE=Raman RAW
##RAMAN WAVELENGTH=785

172.4709, 889.4270
174.3994, 900.2180
176.3279, 910.5090
178.2563, 926.7849
180.1848, 948.7249
182.1133, 970.5479
184.0417, 996.7043
185.9702, 1012.867
187.8987, 1012.647
189.8271, 1008.119
191.7556, 1005.887
193.6841, 1004.036
195.6125, 997.8626
197.5410, 985.0057
199.4695, 980.9764
201.3979, 989.2684
203.3264, 998.4392
205.2549, 1004.860
207.1833, 1011.012
209.1118, 1021.932
211.0403, 1034.548
212.9688, 1033.144
214.8972, 1010.873
216.8257, 999.9172
218.7542, 1008.291
220.6826, 1017.452
222.6111, 1018.597
224.5396, 1016.646
226.4680, 1015.122
228.3965, 1014.185
230.3250, 1017.554
232.2534, 1027.261
234.1819, 1032.309
236.1104, 1027.560
238.0388, 1022.711
239.9673, 1021.924
241.8958, 1024.142
243.8242, 1029.479
245.7527, 1037.942
247.6812, 1040.865
249.6096, 1036.678
251.5381, 1033.391
253.4666, 1033.319
255.3950, 1034.278
257.3235, 1035.171
259.2520, 1036.304
261.1804, 1038.804
263.1089, 1042.693
265.0374, 1043.186
266.9658, 1038.651
268.8943, 1036.928
270.8228, 1042.466
272.7512, 1048.578
274.6797, 1051.424
276.6082, 1053.018
278.5366, 1055.976
280.4651, 1060.486
282.3936, 1069.420
284.3220, 1085.272
286.2505, 1095.018
288.1790, 1089.832
290.1074, 1084.391
292.0359, 1084.896
293.9644, 1089.178
295.8928, 1093.645
297.8213, 1098.934
299.7498, 1109.396
301.6782, 1125.470
303.6067, 1144.946
305.5352, 1173.433
307.4636, 1195.993
309.3921, 1204.439
311.3206, 1206.366
313.2490, 1208.187
315.1775, 1210.436
317.1060, 1216.754
319.0344, 1227.935
320.9629, 1232.104
322.8914, 1225.565
324.8198, 1214.249
326.7483, 1196.799
328.6768, 1178.872
330.6052, 1165.319
332.5337, 1154.404
334.4622, 1139.094
336.3906, 1120.425
338.3191, 1116.357
340.2476, 1136.777
342.1760, 1149.374
344.1045, 1139.838
346.0330, 1128.856
347.9614, 1125.973
349.8899, 1127.073
351.8184, 1129.013
353.7468, 1130.257
355.6753, 1124.511
357.6038, 1110.741
359.5322, 1095.643
361.4607, 1080.785
363.3892, 1064.065
365.3176, 1038.440
367.2461, 1017.423
369.1746, 1015.896
371.1030, 1023.727
373.0315, 1021.012
374.9600, 1009.561
376.8884, 1004.808
378.8169, 1012.048
380.7454, 1013.811
382.6738, 1001.576
384.6023, 991.5565
386.5308, 989.9879
388.4592, 992.2365
390.3877, 995.5428
392.3162, 999.0599
394.2446, 1000.267
396.1731, 999.2197
398.1016, 1002.330
400.0300, 1015.947
401.9585, 1021.101
403.8870, 1009.133
405.8154, 997.4409
407.7439, 991.4236
409.6724, 989.8722
411.6008, 991.6828
413.5293, 997.2075
415.4578, 1010.505
417.3862, 1032.023
419.3147, 1041.771
421.2432, 1025.540
423.1716, 1022.482
425.1001, 1044.803
427.0286, 1067.592
428.9570, 1086.407
430.8855, 1097.919
432.8140, 1096.977
434.7424, 1087.828
436.6709, 1076.317
438.5994, 1062.539
440.5278, 1047.320
442.4563, 1028.415
444.3848, 1013.071
446.3132, 1006.475
448.2417, 995.9699
450.1702, 975.2678
452.0986, 952.9957
454.0271, 933.6303
455.9556, 916.6780
457.8840, 900.8535
459.8125, 886.7505
461.7410, 878.5788
463.6694, 877.8788
465.5979, 877.9229
467.5264, 881.2347
469.4548, 880.4569
471.3833, 871.8914
473.3118, 863.0898
475.2402, 856.1557
477.1687, 851.7604
479.0972, 851.6458
481.0256, 853.5839
482.9541, 852.9141
484.8826, 849.7571
486.8110, 848.6021
488.7395, 849.5485
490.6680, 853.0463
492.5964, 863.0492
494.5249, 866.3032
496.4534, 854.0126
498.3818, 843.1382
500.3103, 845.2782
502.2388, 850.3081
504.1672, 848.8762
506.0957, 844.8612
508.0242, 846.7507
509.9526, 854.3293
511.8811, 861.7607
513.8096, 869.7372
515.7380, 873.8531
517.6665, 871.8997
519.5950, 871.8926
521.5234, 874.5946
523.4519, 881.8545
525.3804, 895.7477
527.3088, 913.5687
529.2373, 937.6984
531.1658, 962.0479
533.0942, 972.8932
535.0227, 974.1892
536.9512, 990.4726
538.8796, 1023.133
540.8081, 1056.256
542.7366, 1091.500
544.6650, 1117.642
546.5935, 1132.485
548.5220, 1138.364
550.4504, 1137.784
552.3789, 1125.719
554.3074, 1093.120
556.2358, 1054.293
558.1643, 1019.132
560.0928, 989.8852
562.0212, 972.3877
563.9497, 966.0193
565.8782, 965.3679
567.8066, 970.5098
569.7351, 974.3460
571.6636, 975.0912
573.5920, 980.8788
575.5205, 995.1789
577.4490, 1011.137
579.3774, 1025.550
581.3059, 1041.992
583.2344, 1067.905
585.1628, 1090.999
587.0913, 1095.129
589.0198, 1090.988
590.9482, 1096.844
592.8767, 1111.783
594.8052, 1132.891
596.7336, 1159.472
598.6621, 1180.190
600.5906, 1193.020
602.5190, 1211.546
604.4475, 1244.559
606.3760, 1266.124
608.3044, 1272.562
610.2329, 1261.135
612.1614, 1229.908
614.0898, 1181.404
616.0183, 1104.977
617.9468, 1022.894
619.8752, 957.5502
621.8037, 905.9453
623.7322, 862.7504
625.6606, 827.8254
627.5891, 803.7111
629.5176, 789.6600
631.4460, 772.0847
633.3745, 747.8942
635.3030, 734.3515
637.2314, 742.2667
639.1599, 741.6796
641.0884, 718.1642
643.0168, 699.2014
644.9453, 695.6973
646.8738, 694.4696
648.8022, 687.1982
650.7307, 680.3627
652.6592, 679.9544
654.5876, 683.3096
656.5161, 689.4762
658.4446, 695.3961
660.3730, 693.7647
662.3015, 685.8645
664.2300, 677.2694
666.1584, 668.0508
668.0869, 665.4784
670.0154, 672.3068
671.9438, 677.5897
673.8723, 681.1453
675.8008, 681.5415
677.7292, 673.7621
679.6577, 670.4457
681.5862, 679.0341
683.5146, 687.0936
685.4431, 688.1703
687.3716, 687.3669
689.3000, 688.2507
691.2285, 689.2313
693.1570, 687.4256
695.0854, 685.4950
697.0139, 687.4276
698.9424, 692.4753
700.8708, 699.0303
702.7993, 706.8535
704.7278, 713.2514
706.6563, 717.8599
708.5847, 723.2568
710.5132, 728.8046
712.4417, 736.8336
714.3701, 746.5105
716.2986, 760.2221
718.2271, 782.1608
720.1555, 800.6483
722.0840, 808.4744
724.0125, 820.6270
725.9409, 843.6998
727.8694, 870.9257
729.7979, 902.1011
731.7263, 931.7274
733.6548, 950.8550
735.5833, 971.3329
737.5117, 1006.395
739.4402, 1048.068
741.3687, 1088.729
743.2971, 1125.407
745.2256, 1148.503
747.1541, 1160.767
749.0825, 1177.199
751.0110, 1197.591
752.9395, 1210.854
754.8679, 1216.876
756.7964, 1215.811
758.7249, 1206.895
760.6533, 1193.521
762.5818, 1171.212
764.5103, 1163.488
766.4387, 1175.692
768.3672, 1194.546
770.2957, 1215.333
772.2241, 1247.546
774.1526, 1295.017
776.0811, 1353.367
778.0095, 1429.159
779.9380, 1501.848
781.8665, 1565.659
783.7949, 1616.508
785.7234, 1648.185
787.6519, 1670.136
789.5803, 1680.371
791.5088, 1694.175
793.4373, 1724.827
795.3657, 1772.666
797.2942, 1837.474
799.2227, 1920.316
801.1511, 2024.206
803.0796, 2147.924
805.0081, 2287.694
806.9365, 2444.046
808.8650, 2619.347
810.7935, 2813.695
812.7219, 3022.740
814.6504, 3247.135
816.5789, 3494.868
818.5073, 3766.433
820.4358, 4092.357
822.3643, 4477.703
824.2927, 4883.325
826.2212, 5320.339
828.1497, 5647.311
830.0781, 5842.168
832.0066, 5921.850
833.9351, 5869.474
835.8635, 5764.725
837.7920, 5605.792
839.7205, 5442.372
841.6489, 5277.455
843.5774, 5127.030
845.5059, 5003.128
847.4343, 4882.605
849.3628, 4768.016
851.2913, 4640.747
853.2197, 4478.852
855.1482, 4321.975
857.0767, 4216.739
859.0051, 4088.700
860.9336, 3894.423
862.8621, 3654.053
864.7905, 3367.956
866.7190, 3060.542
868.6475, 2732.612
870.5759, 2415.761
872.5044, 2134.603
874.4329, 1890.104
876.3613, 1685.203
878.2898, 1516.518
880.2183, 1385.629
882.1467, 1283.112
884.0752, 1201.128
886.0037, 1132.842
887.9321, 1064.715
889.8606, 1002.789
891.7891, 959.5359
893.7175, 931.1449
895.6460, 908.5748
897.5745, 893.8218
899.5029, 897.5081
901.4314, 912.5640
903.3599, 913.4704
905.2883, 905.0677
907.2168, 910.7845
909.1453, 927.7831
911.0737, 939.3593
913.0022, 945.0167
914.9307, 944.3657
916.8591, 937.1882
918.7876, 917.2761
920.7161, 885.0569
922.6445, 868.3127
924.5730, 867.8792
926.5015, 869.2379
928.4299, 873.0217
930.3584, 867.5261
932.2869, 851.0690
934.2153, 839.6465
936.1438, 834.8191
938.0723, 822.5602
940.0007, 798.5745
941.9292, 793.4262
943.8577, 811.1311
945.7861, 826.6529
947.7146, 837.7233
949.6431, 857.4095
951.5715, 886.2659
953.5000, 921.4761
955.4285, 963.1336
957.3569, 1010.928
959.2854, 1065.350
961.2139, 1126.302
963.1423, 1202.315
965.0708, 1250.241
966.9993, 1271.084
968.9277, 1257.201
970.8562, 1203.426
972.7847, 1138.523
974.7131, 1061.040
976.6416, 981.1934
978.5701, 896.5488
980.4985, 826.9760
982.4270, 773.7336
984.3555, 731.5193
986.2839, 700.7335
988.2124, 676.5134
990.1409, 658.9729
992.0693, 645.8923
993.9978, 637.3275
995.9263, 632.1432
997.8547, 630.5660
999.7832, 627.5552
1001.712, 622.7191
1003.640, 622.0586
1005.569, 625.9850
1007.497, 624.8636
1009.426, 618.3541
1011.354, 611.6744
1013.282, 605.2365
1015.211, 612.5342
1017.139, 632.6059
1019.068, 633.6201
1020.996, 616.9441
1022.925, 614.0427
1024.853, 623.5507
1026.782, 625.2009
1028.710, 619.7120
1030.639, 613.5406
1032.567, 607.6313
1034.496, 609.4140
1036.424, 616.3122
1038.353, 614.2952
1040.281, 606.3220
1042.209, 603.2314
1044.138, 604.2905
1046.066, 609.9843
1047.995, 616.6224
1049.923, 612.5650
1051.852, 602.5729
1053.780, 596.4873
1055.709, 593.2994
1057.637, 592.6214
1059.566, 592.1829
1061.494, 587.3052
1063.423, 580.8848
1065.351, 577.5129
1067.280, 574.8326
1069.208, 568.4518
1071.136, 562.6179
1073.065, 563.4478
1074.993, 565.5045
1076.922, 562.5699
1078.850, 559.8102
1080.779, 561.7080
1082.707, 565.1932
1084.636, 570.1105
1086.564, 572.9589
1088.493, 569.7064
1090.421, 566.7290
1092.350, 568.8859
1094.278, 569.3801
1096.207, 562.2065
1098.135, 558.3210
1100.063, 564.0577
1101.992, 568.6119
1103.920, 570.3942
1105.849, 568.8371
1107.777, 561.5674
1109.706, 555.3279
1111.634, 549.3820
1113.563, 547.6671
1115.491, 554.0192
1117.420, 554.2264
1119.348, 545.0153
1121.277, 541.2232
1123.205, 544.3112
1125.134, 544.9598
1127.062, 543.0870
1128.990, 538.7328
1130.919, 532.3238
1132.847, 530.9520
1134.776, 534.1055
1136.704, 541.5291
1138.633, 549.9590
1140.561, 546.2755
1142.490, 537.7999
1144.418, 542.1205
1146.347, 549.6827
1148.275, 544.8253
1150.204, 536.7057
1152.132, 534.4713
1154.061, 534.7106
1155.989, 536.4899
1157.917, 537.0326
1159.846, 533.2632
1161.774, 530.2900
1163.703, 530.6590
1165.631, 532.5272
1167.560, 536.8645
1169.488, 537.1714
1171.417, 528.8181
1173.345, 527.3173
1175.274, 538.4310
1177.202, 543.3279
1179.131, 538.3694
1181.059, 534.9326
1182.988, 534.1142
1184.916, 531.6933
1186.844, 527.6452
1188.773, 526.6519
1190.701, 528.5563
1192.630, 534.4688
1194.558, 541.5044
1196.487, 538.9290
1198.415, 532.3846
1200.344, 533.8721
1202.272, 536.9698
1204.201, 531.4767
1206.129, 525.7073
1208.058, 528.0606
1209.986, 531.8447
1211.915, 532.4106
1213.843, 534.2079
1215.771, 541.7572
1217.700, 544.2089
1219.628, 536.0098
1221.557, 531.4916
1223.485, 533.1910
1225.414, 541.0626
1227.342, 555.5616
1229.271, 563.2708
1231.199, 563.3411
1233.128, 558.4938
1235.056, 550.7317
1236.985, 548.0984
1238.913, 550.7224
1240.842, 563.9581
1242.770, 577.2538
1244.698, 569.2473
1246.627, 555.4674
1248.555, 550.9776
1250.484, 551.5714
1252.412, 559.3153
1254.341, 562.7653
1256.269, 549.2021
1258.198, 542.9421
1260.126, 559.6260
1262.055, 565.3049
1263.983, 552.0110
1265.912, 545.1821
1267.840, 547.1422
1269.769, 546.8146
1271.697, 544.6473
1273.625, 553.2284
1275.554, 566.9277
1277.482, 566.1410
1279.411, 555.8452
1281.339, 539.1798
1283.268, 525.9238
1285.196, 531.2495
1287.125, 537.6068
1289.053, 530.2690
1290.982, 524.0344
1292.910, 527.0929
1294.839, 529.5064
1296.767, 528.0081
1298.696, 527.6688
1300.624, 531.0350
1302.552, 525.8714
1304.481, 510.7942
1306.409, 519.3372
1308.338, 545.0609
1310.266, 554.4925
1312.195, 552.6270
1314.123, 546.2130
1316.052, 538.9371
1317.980, 534.4998
1319.909, 531.0004
1321.837, 525.0068
1323.766, 524.9150
1325.694, 537.6263
1327.623, 546.8785
1329.551, 550.2056
1331.479, 542.5816
1333.408, 519.7937
1335.336, 515.3986
1337.265, 527.0559
1339.193, 532.0793
1341.122, 532.6663
1343.050, 532.7663
1344.979, 534.3994
1346.907, 542.2053
1348.836, 549.9091
1350.764, 551.7802
1352.693, 555.8175
1354.621, 566.2959
1356.550, 575.0022
1358.478, 580.2169
1360.406, 581.1202
1362.335, 577.5226
1364.263, 584.3649
1366.192, 598.2298
1368.120, 596.5401
1370.049, 588.5488
1371.977, 592.6687
1373.906, 602.5014
1375.834, 613.6884
1377.763, 624.0192
1379.691, 632.2437
1381.620, 640.0796
1383.548, 649.5485
1385.477, 650.7692
1387.405, 642.3131
1389.333, 622.5999
1391.262, 595.3754
1393.190, 586.2544
1395.119, 587.6346
1397.047, 582.9061
1398.976, 576.8607
1400.904, 577.6276
1402.833, 575.3696
1404.761, 558.5597
1406.690, 548.1956
1408.618, 552.0618
1410.547, 551.1277
1412.475, 543.2494
1414.404, 538.2671
1416.332, 535.3809
1418.260, 525.6558
1420.189, 514.4954
1422.117, 513.6802
1424.046, 514.7663
1425.974, 509.4176
1427.903, 503.4648
1429.831, 498.3706
1431.760, 496.2365
1433.688, 497.9080
1435.617, 500.8905
1437.545, 504.8684
1439.474, 502.0769
1441.402, 496.3600
1443.331, 503.3088
1445.259, 510.7926
1447.188, 501.4028
1449.116, 491.2993
1451.044, 492.2666
1452.973, 491.9925
1454.901, 483.3965
1456.830, 481.9304
1458.758, 489.2147
1460.687, 495.3623
1462.615, 499.5591
1464.544, 496.7043
1466.472, 490.7735
1468.401, 485.5120
1470.329, 482.5247
1472.258, 482.5220
1474.186, 486.1168
1476.115, 496.0337
1478.043, 500.9474
1479.971, 499.6601
1481.900, 496.3587
1483.828, 491.6859
1485.757, 487.6245
1487.685, 484.5115
1489.614, 481.3199
1491.542, 482.1434
1493.471, 491.7263
1495.399, 497.6233
1497.328, 495.9355
1499.256, 493.3510
1501.185, 490.6478
1503.113, 494.1031
1505.042, 500.3048
1506.970, 500.0155
1508.898, 497.9850
1510.827, 499.1374
1512.755, 499.6814
1514.684, 498.1382
1516.612, 495.9438
1518.541, 493.1695
1520.469, 497.8546
1522.398, 507.2452
1524.326, 505.6554
1526.255, 500.7001
1528.183, 503.2195
1530.112, 508.3544
1532.040, 515.1584
1533.969, 518.3616
1535.897, 516.2667
1537.825, 517.8817
1539.754, 523.8552
1541.682, 533.9071
1543.611, 544.3381
1545.539, 548.2864
1547.468, 549.3141
1549.396, 548.0541
1551.325, 549.2699
1553.253, 554.9249
1555.182, 556.4504
1557.110, 554.4554
1559.039, 566.6526
1560.967, 582.8618
1562.896, 578.6733
1564.824, 570.6602
1566.752, 572.0663
1568.681, 576.0389
1570.609, 581.2535
1572.538, 586.0506
1574.466, 590.3115
1576.395, 594.5334
1578.323, 597.7380
1580.252, 596.5555
1582.180, 595.8790
1584.109, 602.5988
1586.037, 605.0654
1587.966, 595.4907
1589.894, 595.3687
1591.823, 604.5692
1593.751, 613.4954
1595.679, 620.1164
1597.608, 620.5640
1599.536, 618.7419
1601.465, 616.2211
1603.393, 614.3396
1605.322, 614.3507
1607.250, 611.5509
1609.179, 606.5242
1611.107, 605.0288
1613.036, 602.9030
1614.964, 593.5848
1616.893, 584.1184
1618.821, 578.5285
1620.750, 571.7881
1622.678, 562.9245
1624.606, 553.1161
1626.535, 544.2924
1628.463, 546.4343
1630.392, 547.6075
1632.320, 537.7861
1634.249, 524.8903
1636.177, 509.7671
1638.106, 502.4327
1640.034, 502.5135
1641.963, 499.0856
1643.891, 494.7854
1645.820, 493.1792
1647.748, 494.5084
1649.677, 501.3161
1651.605, 498.8828
1653.533, 484.2457
1655.462, 481.8825
1657.390, 487.7231
1659.319, 491.6851
1661.247, 493.4529
1663.176, 491.9303
1665.104, 490.4945
1667.033, 489.9878
1668.961, 487.0761
1670.890, 483.1221
1672.818, 484.4110
1674.747, 489.9882
1676.675, 505.9550
1678.604, 510.1022
1680.532, 492.6245
1682.460, 487.5877
1684.389, 495.3412
1686.317, 493.7671
1688.246, 486.7507
1690.174, 475.5371
1692.103, 470.7960
1694.031, 480.2157
1695.960, 485.3307
1697.888, 484.9365
1699.817, 487.0026
1701.745, 489.1315
1703.674, 485.4275
1705.602, 482.3413
1707.531, 486.3360
1709.459, 484.3782
1711.387, 475.8086
1713.316, 470.5612
1715.244, 468.7086
1717.173, 471.8936
1719.101, 473.5180
1721.030, 469.4868
1722.958, 461.9034
1724.887, 451.0210
1726.815, 447.4274
1728.744, 447.5418
1730.672, 445.0146
1732.601, 441.4608
1734.529, 434.5738
1736.458, 436.8993
1738.386, 450.3346
1740.314, 438.9457
1742.243, 419.1561
1744.171, 421.8636
1746.100, 425.4008
1748.028, 416.9479
1749.957, 412.0486
1751.885, 411.9910
1753.814, 418.6240
1755.742, 425.0629
1757.671, 419.7542
1759.599, 413.5914
1761.528, 411.3075
1763.456, 407.9614
1765.385, 403.1266
1767.313, 395.1824
1769.241, 387.1319
1771.170, 380.4912
1773.098, 380.4924
1775.027, 390.4300
1776.955, 394.3290
1778.884, 391.7660
1780.812, 378.1236
1782.741, 369.2323
1784.669, 380.8205
1786.598, 388.2047
1788.526, 386.0258
1790.455, 376.6044
1792.383, 366.0039
1794.312, 368.1846
1796.240, 373.0639
1798.168, 375.7288
1800.097, 380.2118
1802.025, 386.0184
1803.954, 384.0493
1805.882, 378.9839
1807.811, 376.4242
1809.739, 374.4888
1811.668, 372.9471
1813.596, 369.0588
1815.525, 363.7964
1817.453, 360.2296
1819.382, 358.5405
1821.310, 358.4414
1823.239, 363.9503
1825.167, 374.4749
1827.095, 370.8463
1829.024, 361.3360
1830.952, 357.0986
1832.881, 354.6191
1834.809, 353.6810
1836.738, 351.7227
1838.666, 349.4332
1840.595, 351.7764
1842.523, 354.6958
1844.452, 355.4382
1846.380, 352.8724
1848.309, 347.3466
1850.237, 353.3701
1852.166, 361.1410
1854.094, 354.5171
1856.022, 349.8737
1857.951, 354.3293
1859.879, 355.4480
1861.808, 354.8627
1863.736, 357.4573
1865.665, 361.1994
1867.593, 368.1444
1869.522, 366.6528
1871.450, 356.9993
1873.379, 352.9261
1875.307, 354.6092
1877.236, 364.7841
1879.164, 371.6914
1881.093, 372.2276
1883.021, 369.5972
1884.949, 366.1508
1886.878, 364.9004
1888.806, 365.8392
1890.735, 370.3436
1892.663, 370.9373
1894.592, 368.9114
1896.520, 371.6438
1898.449, 371.6592
1900.377, 364.0349
1902.306, 363.8940
1904.234, 370.5688
1906.163, 371.1510
1908.091, 370.5447
1910.020, 374.2472
1911.948, 376.2499
1913.876, 375.6181
1915.805, 375.9962
1917.733, 374.4674
1919.662, 371.9667
1921.590, 366.0702
1923.519, 355.2368
1925.447, 352.6200
1927.376, 354.7143
1929.304, 359.2446
1931.233, 358.5786
1933.161, 350.4465
1935.090, 342.9708
1937.018, 336.6682
1938.947, 330.8913
1940.875, 327.5652
1942.803, 327.3991
1944.732, 332.2161
1946.660, 337.8985
1948.589, 333.8610
1950.517, 328.5287
1952.446, 325.8338
1954.374, 317.8224
1956.303, 309.0955
1958.231, 316.7257
1960.160, 322.0418
1962.088, 309.9912
1964.017, 304.2157
1965.945, 305.0084
1967.874, 315.0339
1969.802, 319.4433
1971.730, 302.6332
1973.659, 295.0107
1975.587, 296.3073
1977.516, 299.8804
1979.444, 303.1154
1981.373, 304.7010
1983.301, 301.5078
1985.230, 295.4619
1987.158, 296.7751
1989.087, 300.8096
1991.015, 308.3331
1992.944, 306.7041
1994.872, 298.9526
1996.801, 307.2155
1998.729, 316.0004
2000.657, 316.5252
2002.586, 308.8099
2004.514, 298.4392
2006.443, 305.8790
2008.371, 309.3358
2010.300, 296.1475
2012.228, 291.4670
2014.157, 294.9130
2016.085, 298.4503
2018.014, 303.1667
2019.942, 310.4539
2021.871, 310.3140
2023.799, 306.4410
2025.728, 306.1049
2027.656, 307.5375
2029.584, 311.2884
2031.513, 307.6430
2033.441, 301.0831
2035.370, 302.4652
2037.298, 305.1298
2039.227, 306.6922
2041.155, 307.6245
2043.084, 307.9686
2045.012, 306.7737
2046.941, 307.4318
2048.869, 310.0369
2050.798, 309.3735
2052.726, 306.3878
2054.655, 301.7266
2056.583, 295.7697
2058.511, 289.3067
2060.440, 285.4383
2062.368, 283.3947
2064.297, 283.8384
2066.225, 279.2400
2068.154, 272.7955
2070.082, 276.0589
2072.011, 278.9068
2073.939, 275.4391
2075.868, 272.5850
2077.796, 269.3070
2079.725, 264.8013
2081.653, 259.2737
2083.582, 251.7385
2085.510, 248.7377
2087.438, 247.1172
2089.367, 240.4633
2091.295, 237.5309
2093.224, 239.7207
2095.152, 239.6384
2097.081, 238.2560
2099.009, 237.7458
2100.938, 232.4605
2102.866, 224.7361
2104.795, 226.8913
2106.723, 229.5411
2108.652, 229.1313
2110.580, 225.3311
2112.509, 221.1591
2114.437, 223.3623
2116.365, 221.5798
2118.294, 213.0177
2120.222, 215.2971
2122.151, 219.2609
2124.079, 217.0426
2126.008, 213.5838
2127.936, 210.5632
2129.865, 212.5613
2131.793, 216.4833
2133.722, 221.1102
2135.650, 215.6266
2137.579, 206.5184
2139.507, 205.5073
2141.436, 206.9263
2143.364, 208.9847
2145.292, 205.4673
2147.221, 203.2373
2149.149, 208.0651
2151.078, 207.3129
2153.006, 203.0115
2154.935, 203.3847
2156.863, 206.0022
2158.792, 208.8854
2160.720, 207.4572
2162.649, 203.3825
2164.577, 193.0031
2166.506, 189.6569
2168.434, 192.7524
2170.363, 195.9761
2172.291, 196.5516
2174.219, 192.8447
2176.148, 192.8562
2178.076, 194.8271
2180.005, 193.5949
2181.933, 191.5477
2183.862, 189.2372
2185.790, 190.2067
2187.719, 191.2861
2189.647, 187.8558
2191.576, 185.7355
2193.504, 184.8283
2195.433, 182.1565
2197.361, 180.3905
2199.290, 180.0358
2201.218, 183.5579
2203.146, 185.5655
2205.075, 181.0992
2207.003, 179.6024
2208.932, 179.8781
2210.860, 181.9833
2212.789, 178.8783
2214.717, 171.0429
2216.646, 176.1312
2218.574, 179.9210
2220.503, 175.4365
2222.431, 174.1607
2224.360, 173.6272
2226.288, 172.3947
2228.217, 171.7590
2230.145, 173.5385
2232.073, 172.3569
2234.002, 167.6117
2235.930, 164.6221
2237.859, 166.0472
2239.787, 169.3082
2241.716, 172.8674
2243.644, 172.4071
2245.573, 170.5119
2247.501, 165.4503
2249.430, 166.3517
2251.358, 175.4228
2253.287, 170.5321
2255.215, 165.1351
2257.144, 165.0811
2259.072, 164.8937
2261.000, 166.7420
2262.929, 162.8975
2264.857, 160.9357
2266.786, 163.3907
2268.714, 158.2453
2270.643, 157.3364
2272.571, 171.3849
2274.500, 172.2068
2276.428, 159.6595
2278.357, 158.6446
2280.285, 160.8279
2282.214, 156.8302
2284.142, 149.6942
2286.071, 148.2461
2287.999, 155.0999
2289.927, 153.2299
2291.856, 148.0730
2293.784, 147.8060
2295.713, 147.6994
2297.641, 148.7306
2299.570, 150.1149
2301.498, 150.8177
2303.427, 153.1665
2305.355, 153.3149
2307.284, 148.8032
2309.212, 142.4430
2311.141, 138.9996
2313.069, 139.6220
2314.998, 144.0403
2316.926, 143.3656
2318.854, 143.8504
2320.783, 144.3280
2322.711, 143.5489
2324.640, 140.7061
2326.568, 140.4883
2328.497, 142.2110
2330.425, 143.2897
2332.354, 144.7610
2334.282, 144.0495
2336.211, 140.9549
2338.139, 134.1641
2340.068, 134.1292
2341.996, 143.1663
2343.925, 139.8517
2345.853, 133.5164
2347.781, 136.6794
2349.710, 135.8606
2351.638, 126.8613
2353.567, 129.3960
2355.495, 131.9386
2357.424, 129.2932
2359.352, 130.5793
2361.281, 129.5606
2363.209, 128.4318
2365.138, 122.6202
2367.066, 122.0340
2368.995, 130.4368
2370.923, 129.1155
2372.852, 128.5277
2374.780, 127.7764
2376.708, 132.3569
2378.637, 136.0029
2380.565, 126.3223
2382.494, 122.4159
2384.422, 121.1959
2386.351, 123.9999
2388.279, 124.0235
2390.208, 121.4486
2392.136, 121.7344
2394.065, 123.4078
2395.993, 124.2901
2397.922, 123.3397
2399.850, 122.0799
2401.779, 120.3881
2403.707, 121.7075
2405.635, 123.0765
2407.564, 123.2979
2409.492, 117.6270
2411.421, 114.9790
2413.349, 118.0205
2415.278, 118.5455
2417.206, 116.9751
2419.135, 114.4734
2421.063, 116.9453
2422.992, 117.6641
2424.920, 113.0036
2426.849, 114.4482
2428.777, 119.9262
2430.706, 117.8101
2432.634, 113.5467
2434.563, 114.7755
2436.491, 112.6544
2438.419, 112.2961
2440.348, 114.8879
2442.276, 109.6630
2444.205, 109.0834
2446.133, 113.0441
2448.062, 112.4986
2449.990, 110.9827
2451.919, 112.8750
2453.847, 111.4738
2455.776, 110.1254
2457.704, 109.8806
2459.633, 106.1945
2461.561, 106.0502
2463.490, 112.1557
2465.418, 110.0914
2467.346, 105.1002
2469.275, 104.0900
2471.203, 104.9181
2473.132, 104.8912
2475.060, 98.96146
2476.989, 95.48934
2478.917, 95.54909
2480.846, 93.09141
2482.774, 94.57004
2484.703, 97.30520
2486.631, 94.94810
2488.560, 93.53937
2490.488, 92.67844
2492.417, 92.69855
2494.345, 93.32195
2496.273, 93.45460
2498.202, 96.74176
2500.130, 93.43725
2502.059, 88.28757
2503.987, 88.50552
2505.916, 87.48910
2507.844, 85.93313
2509.773, 89.49934
2511.701, 91.85658
2513.630, 92.99022
2515.558, 89.99498
2517.487, 84.68600
2519.415, 81.95586
2521.344, 83.96601
2523.272, 84.50644
2525.200, 83.24732
2527.129, 82.76530
2529.057, 81.80049
2530.986, 83.07006
2532.914, 87.85403
2534.843, 86.33661
2536.771, 82.89327
2538.700, 83.65558
2540.628, 84.68214
2542.557, 84.65512
2544.485, 81.70950
2546.414, 80.51477
2548.342, 80.00702
2550.271, 79.91256
2552.199, 79.86575
2554.127, 79.63506
2556.056, 78.04893
2557.984, 78.38459
2559.913, 79.56780
2561.841, 77.18970
2563.770, 76.40717
2565.698, 77.02259
2567.627, 79.75322
2569.555, 79.80350
2571.484, 78.01326
2573.412, 76.18794
2575.341, 73.31029
2577.269, 71.71817
2579.198, 74.75919
2581.126, 76.45880
2583.054, 76.41235
2584.983, 73.62833
2586.911, 71.19778
2588.840, 70.21864
2590.768, 70.48532
2592.697, 68.69777
2594.625, 67.89552
2596.554, 70.38585
2598.482, 72.24693
2600.411, 72.90056
2602.339, 72.19331
2604.268, 66.60174
2606.196, 64.51407
2608.125, 69.50882
2610.053, 68.38054
2611.981, 64.49735
2613.910, 60.84256
2615.838, 65.88707
2617.767, 70.20108
2619.695, 69.79434
2621.624, 64.76295
2623.552, 60.26662
2625.481, 58.40678
2627.409, 62.28264
2629.338, 62.62644
2631.266, 59.94582
2633.195, 58.95671
2635.123, 57.76328
2637.052, 57.95186
2638.980, 56.76625
2640.908, 59.49898
2642.837, 62.55879
2644.765, 59.29172
2646.694, 59.98648
2648.622, 61.28072
2650.551, 57.62082
2652.479, 57.78858
2654.408, 59.11647
2656.336, 58.27177
2658.265, 59.95104
2660.193, 60.23497
2662.122, 56.01277
2664.050, 56.82558
2665.979, 59.21238
2667.907, 57.93482
2669.835, 52.25655
2671.764, 52.46994
2673.692, 59.56102
2675.621, 60.00447
2677.549, 59.09813
2679.478, 58.12808
2681.406, 54.98785
2683.335, 53.16284
2685.263, 53.05859
2687.192, 54.52964
2689.120, 54.84354
2691.049, 55.22608
2692.977, 54.58368
2694.906, 50.16112
2696.834, 46.90908
2698.762, 49.02647
2700.691, 50.17970
2702.619, 48.31884
2704.548, 46.69530
2706.476, 49.37030
2708.405, 48.60510
2710.333, 46.92263
2712.262, 47.37955
2714.190, 47.57200
2716.119, 48.12534
2718.047, 50.24134
2719.976, 48.22052
2721.904, 45.18356
2723.833, 42.39826
2725.761, 45.11719
2727.689, 48.04726
2729.618, 50.24617
2731.546, 49.70321
2733.475, 47.35088
2735.403, 46.22569
2737.332, 45.44412
2739.260, 47.47147
2741.189, 48.47398
2743.117, 48.89251
2745.046, 43.15063
2746.974, 38.86282
2748.903, 39.85060
2750.831, 43.69426
2752.760, 47.26522
2754.688, 41.87379
2756.616, 41.37410
2758.545, 43.44774
2760.473, 46.08796
2762.402, 42.96331
2764.330, 42.47072
2766.259, 43.85827
2768.187, 42.10970
2770.116, 42.25417
2772.044, 43.40336
2773.973, 42.01622
2775.901, 39.44368
2777.830, 38.78969
2779.758, 37.94918
2781.687, 34.59777
2783.615, 36.11504
2785.543, 37.95434
2787.472, 38.63876
2789.400, 39.30933
2791.329, 38.12788
2793.257, 37.37135
2795.186, 37.76579
2797.114, 34.56378
2799.043, 30.80608
2800.971, 33.21582
2802.900, 36.69241
2804.828, 37.79202
2806.757, 36.39010
2808.685, 38.93024
2810.614, 38.73216
2812.542, 33.62864
2814.470, 33.01589
2816.399, 35.07075
2818.327, 35.04859
2820.256, 35.08097
2822.184, 34.41425
2824.113, 34.08778
2826.041, 31.53592
2827.970, 31.90824
2829.898, 32.33465
2831.827, 32.65094
2833.755, 31.91891
2835.684, 32.34421
2837.612, 32.55006
2839.541, 34.37001
2841.469, 31.47589
2843.397, 29.30926
2845.326, 29.93426
2847.254, 28.92381
2849.183, 31.68911
2851.111, 33.93866
2853.040, 30.52895
2854.968, 30.62457
2856.897, 29.54048
2858.825, 27.76855
2860.754, 28.86087
2862.682, 30.04186
2864.611, 29.31128
2866.539, 27.66363
2868.468, 26.04663
2870.396, 27.09674
2872.324, 29.17495
2874.253, 28.97820
2876.181, 30.23020
2878.110, 29.54625
2880.038, 28.25549
2881.967, 26.90990
2883.895, 24.95985
2885.824, 25.65773
2887.752, 25.70491
2889.681, 23.44365
2891.609, 22.57788
2893.538, 24.35572
2895.466, 26.49026
2897.395, 25.82947
2899.323, 27.22287
2901.251, 24.63169
2903.180, 21.51202
2905.108, 23.26188
2907.037, 25.13738
2908.965, 25.59818
2910.894, 21.75377
2912.822, 21.82342
2914.751, 22.57854
2916.679, 23.95208
2918.608, 21.31441
2920.536, 22.91193
2922.465, 23.28070
2924.393, 18.11054
2926.322, 19.31214
2928.250, 19.42131
2930.178, 19.71567
2932.107, 22.04967
2934.035, 23.10066
2935.964, 22.01028
2937.892, 22.38913
2939.821, 19.86187
2941.749, 20.24996
2943.678, 22.13133
2945.606, 24.85983
2947.535, 21.29321
2949.463, 17.71257
2951.392, 20.19401
2953.320, 22.14835
2955.249, 21.49217
2957.177, 19.67596
2959.105, 14.55502
2961.034, 17.85209
2962.962, 19.79915
2964.891, 19.82087
2966.819, 20.74445
2968.748, 22.71281
2970.676, 21.55292
2972.605, 19.11452
2974.533, 23.12052
2976.462, 21.01224
2978.390, 17.14551
2980.319, 15.64393
2982.247, 14.72141
2984.176, 16.91340
2986.104, 20.60601
2988.032, 21.27423
2989.961, 17.69380
2991.889, 15.62256
2993.818, 15.13563
2995.746, 18.50654
2997.675, 17.28924
2999.603, 13.63634
3001.532, 14.17731
3003.460, 16.79640
3005.389, 17.16499
3007.317, 14.75012
3009.246, 12.78103
3011.174, 13.57351
3013.103, 15.27154
3015.031, 15.67521
3016.959, 17.54466
3018.888, 17.99180
3020.816, 18.35727
3022.745, 18.02306
3024.673, 19.67723
3026.602, 18.98415
3028.530, 16.56527
3030.459, 17.06075
3032.387, 18.11891
3034.316, 15.90998
3036.244, 12.48414
3038.173, 14.47079
3040.101, 13.65963
3042.030, 12.83552
3043.958, 13.83290
3045.886, 14.89158
3047.815, 12.82729
3049.743, 11.90393
3051.672, 13.25194
3053.600, 11.81801
3055.529, 14.62995
3057.457, 15.68533
3059.386, 10.80462
3061.314, 10.02762
3063.243, 9.136729
3065.171, 10.28922
3067.100, 16.49957
3069.028, 12.54315
3070.957, 11.11303
3072.885, 12.31209
3074.813, 11.05103
3076.742, 11.44043
3078.670, 11.01512
3080.599, 10.03797
3082.527, 10.49936
3084.456, 10.69071
3086.384, 10.50937
3088.313, 10.03343
3090.241, 9.157465
3092.170, 9.919728
3094.098, 11.14764
3096.027, 12.77833
3097.955, 14.72408
3099.884, 11.35485
3101.812, 9.477807
3103.740, 10.32686
3105.669, 8.350677
3107.597, 9.095828
3109.526, 10.17246
3111.454, 9.963008
3113.383, 9.823958
3115.311, 8.405611
3117.240, 6.309850
3119.168, 5.390486
3121.097, 11.73194
3123.025, 12.46092
3124.954, 10.97123
3126.882, 10.94484
3128.811, 8.117811
3130.739, 8.436096
3132.667, 9.681264
3134.596, 11.08398
3136.524, 13.51466
3138.453, 12.09708
3140.381, 9.289458
3142.310, 6.740170
3144.238, 8.440327
3146.167, 9.498078
3148.095, 7.538172
3150.024, 4.043084
3151.952, 10.33785
3153.881, 9.683043
3155.809, 8.408473
3157.738, 9.129080
3159.666, 13.15061
3161.594, 9.309169
3163.523, 7.928679
3165.451, 11.34445
3167.380, 11.85745
3169.308, 8.500559
3171.237, 5.601909
3173.165, 3.789047
3175.094, 4.716781
3177.022, 2.758810
3178.951, 4.816448
3180.879, 8.750146
3182.808, 5.309177
3184.736, 6.258774
3186.665, 6.127570
3188.593, 4.941992
3190.521, 6.121572
3192.450, 6.915570
3194.378, 6.770814
3196.307, 5.381729
3198.235, 3.727055
3200.164, 6.046809
3202.092, 4.846552
3204.021, 3.926883
3205.949, 5.042686
3207.878, 7.455484
3209.806, 10.35067
3211.735, 8.865022
3213.663, 4.865189
3215.592, 4.911366
3217.520, 4.970511
3219.448, 8.726017
3221.377, 11.36050
3223.305, 2.847680
3225.234, 6.870078
3227.162, 10.20537
3229.091, 9.630651
3231.019, 8.079086
3232.948, 7.492476
3234.876, 8.962009
3236.805, 8.300916
3238.733, 3.486454
3240.662, 5.027994
3242.590, 6.252130
3244.519, 5.942943
3246.447, 5.169326
3248.375, 7.035191
3250.304, 5.431475
3252.232, 4.098114
3254.161, 5.542634
3256.089, 9.582898
3258.018, 3.167679
3259.946, 1.938637
3261.875, 5.187486
3263.803, 6.732051
3265.732, -1.400190
3267.660, -3.989308
3269.589, 0.9733737
3271.517, 7.708302
3273.446, 3.525519
3275.374, 1.564964
3277.302, 4.624232
3279.231, 6.097065
3281.159, 4.293665
3283.088, 8.522025
3285.016, 10.47014
3286.945, 8.255914
3288.873, 5.239754
3290.802, 9.172221
3292.730, 8.975822
3294.659, 4.626732
3296.587, 2.948311
3298.516, 6.781967
3300.444, 9.397641
3302.373, 5.803679
3304.301, 3.351490
3306.229, 7.095116
3308.158, 10.40392
3310.086, 8.874449
3312.015, 9.533322
3313.943, 7.765790
3315.872, -0.4310465
3317.800, 2.022264
3319.729, 7.301732
3321.657, 6.628341
3323.586, 2.735430
3325.514, 7.605167
3327.443, 6.502998
3329.371, 7.031609
3331.300, 9.104251
3333.228, 10.84278
3335.156, 10.30919
3337.085, 5.586498
3339.013, 4.943077
3340.942, 6.067039
3342.870, 2.957626
3344.799, 6.688575
3346.727, 5.690115
3348.656, 4.407681
3350.584, 5.566900
3352.513, 1.922136
3354.441, 3.220218
3356.370, 7.307273
3358.298, 8.714351
3360.227, 4.176270
3362.155, 3.457363
3364.083, 5.228395
3366.012, 9.560580
3367.940, 10.08813
3369.869, 0.6754405
3371.797, 8.108540
3373.726, 6.352937
3375.654, 3.928521
3377.583, 4.996079
3379.511, 6.424643
3381.440, 1.297640
3383.368, 3.415558
3385.297, 5.560981
3387.225, 5.227798
3389.154, 8.232387
3391.082, 8.108954
3393.010, 6.472183
3394.939, 4.752736
3396.867, 3.866151
3398.796, 6.242569
3400.724, 1.892663
3402.653, 5.895139
3404.581, 11.03664
3406.510, 9.085609
3408.438, 4.894655
3410.367, 2.805291
3412.295, 3.426059
3414.224, 5.635419
3416.152, 7.523338
3418.081, 5.560617
3420.009, 5.176936
3421.938, 4.335042
3423.866, 4.081619
3425.794, 5.016858
3427.723, 2.994848
3429.651, 2.113164
3431.580, 4.562572
3433.508, 5.564277
3435.437, 2.719275
3437.365, 7.001589
3439.294, 5.990759
3441.222, 0.4894863
3443.151, -1.492445
3445.079, 3.453031
3447.008, 4.056018
3448.936, 2.475178
3450.865, 6.9134939E-03
3452.793, -1.303658
3454.721, -2.0052349E-02
3456.650, 4.147874
3458.578, 6.727481
3460.507, 2.789077
3462.435, 1.324044
3464.364, 4.843474
3466.292, 3.124236
3468.221, -0.4481298
3470.149, 5.664154
3472.078, 8.999961
3474.006, 6.748985
3475.935, 8.763784
3477.863, 8.907175
3479.792, 2.816981
3481.720, 1.694634
3483.648, 4.976504
3485.577, 5.067628
3487.505, 6.145957
3489.434, 6.425297
3491.362, 6.427978
3493.291, 6.294427
3495.219, 6.346327
3497.148, 8.927682
3499.076, 6.149295
3501.005, 6.498082
3502.933, 7.953529
3504.862, 6.372534
3506.790, -0.5051630
3508.719, -0.1288602
3510.647, 5.132993
3512.575, 6.875635
3514.504, 5.173493
3516.432, 5.169768
3518.361, 4.913022
3520.289, 7.139837
3522.218, 6.918156
3524.146, 4.735417
3526.075, 2.752206
3528.003, 2.134279
3529.932, -4.840569
3531.860, -4.616759
3533.789, 1.088940
3535.717, 6.697423
3537.646, 7.834154
3539.574, 4.958891
3541.502, 2.094455
3543.431, 1.161729
3545.359, 4.168471
3547.288, 8.786023
3549.216, 7.029451
3551.145, 4.440848
3553.073, 4.640439
3555.002, 5.450009
3556.930, 4.713518
3558.859, 2.674485
3560.787, 4.308508
3562.716, 8.773734
3564.644, 11.37766
3566.573, 7.462872
3568.501, 4.080853
3570.429, 11.58887
3572.358, 2.650025
3574.286, 7.056102
3576.215, 6.366951
3578.143, 2.034209
3580.072, 1.460579
3582.000, 4.643701
3583.929, 6.820362
3585.857, 11.21139
3587.786, 8.841455
3589.714, 3.367012
3591.643, 1.336098
3593.571, 2.174032
3595.500, 6.262240
3597.428, 2.907695
3599.356, -1.293720
3601.285, 0.4028088
3603.213, 6.415485
3605.142, -0.2745370
3607.070, -1.463444
3608.999, -0.7213601
3610.927, -2.4386890E-02
3612.856, 2.559418
3614.784, 6.266923
3616.713, -0.2952024
3618.641, -0.8804390
3620.570, -4.678429
3622.498, -0.5749976
3624.427, 1.529915
3626.355, -5.882301
3628.283, 2.374744
3630.212, 7.979115
3632.140, 1.370520
3634.069, 3.362391
3635.997, 6.200713
3637.926, 0.3796757
3639.854, 1.188194
3641.783, 1.328482
3643.711, 1.329046
3645.640, 0.8964346
3647.568, 2.740872
3649.497, 4.668666
3651.425, 0.2802987
3653.354, 2.808220
3655.282, -1.621749
3657.210, -4.983498
3659.139, -5.046410
3661.067, -1.868841
3662.996, 3.654187
3664.924, 5.026299
3666.853, 6.900159
3668.781, 3.448913
3670.710, 2.386147
3672.638, 1.355257
3674.567, -2.652417
3676.495, 1.250180
3678.424, -3.256838
3680.352, -1.909852
3682.281, 2.369986
3684.209, 2.715710
3686.137, 0.1596031
3688.066, 1.289663
3689.994, 0.3202120
3691.923, -1.122553
3693.851, -0.7266452
3695.780, 0.1290303
3697.708, 2.620279
3699.637, 4.847328
3701.565, -0.8045925
3703.494, -0.1346725
3705.422, -1.726851
3707.351, 2.050529
3709.279, 6.234522
3711.208, 6.340433
3713.136, 2.717974
3715.064, -2.015142
3716.993, -4.744683
3718.921, 2.533241
3720.850, 3.534708
3722.778, 0.8047479
3724.707, 0.1612868
3726.635, 1.325009
3728.564, 2.731148
3730.492, 0.1728395
3732.421, 3.535693
3734.349, -0.3243066
3736.278, -2.786494
3738.206, 7.0982084E-02
3740.135, 6.5523706E-02
3742.063, -2.863736
3743.991, 2.504703
3745.920, 4.894266
3747.848, 0.8887160
3749.777, -3.546318
3751.705, -3.720170
3753.634, -0.1501542
3755.562, 5.101536
3757.491, 2.242651
3759.419, 1.861351
3761.348, -1.380152
3763.276, -7.1632713E-02
3765.205, 1.272914
3767.133, -3.791183
3769.062, -0.4686717
3770.990, 2.610712
3772.918, -4.1254619E-03
3774.847, -2.145657
3776.775, -2.592643
3778.704, -3.453709
3780.632, -3.421528
3782.561, 1.102554
3784.489, -0.6659903
3786.418, -5.563716
3788.346, 0.5943680
3790.275, 4.605422
3792.203, 2.488645
3794.132, 0.6870573
3796.060, 2.500163
3797.989, 0.1608382
3799.917, 0.8746898
3801.845, 3.804284
3803.774, 1.027427
3805.702, 3.890202
3807.631, 0.9040201
3809.559, -7.297563
3811.488, -1.604964
3813.416, 1.167116
3815.345, 0.2739093
3817.273, -0.1590793
3819.202, 1.109688
3821.130, -0.2124081
3823.059, -0.5730428
3824.987, 3.395286
3826.916, 6.752192
3828.844, -0.6335163
3830.772, 0.5436526
3832.701, 3.302932
3834.629, 4.963751
3836.558, 1.299553
3838.486, -3.261659
3840.415, -4.304491
3842.343, -2.350399
3844.272, 5.717971
3846.200, -6.230006
3848.129, -3.696225
3850.057, -7.384885
3851.986, -2.329223
3853.914, 0.3343312
3855.843, -3.662215
3857.771, -1.564502
3859.699, -1.535622
3861.628, 0.5052410
3863.556, 6.726278
3865.485, 0.3477117
3867.413, -1.144634
3869.342, -0.8168487
3871.270, -1.095179
3873.199, 2.312515
3875.127, 7.035155
3877.056, -0.6079664
3878.984, -0.2519912
3880.913, 1.093133
3882.841, -7.448969
3884.770, -4.638346
3886.698, 2.824788
3888.626, 3.482502
3890.555, -0.2664542
3892.483, -2.733238
3894.412, 1.981252
3896.340, 4.670026
3898.269, 9.932803
3900.197, 2.352685
3902.126, 2.299155
3904.054, 0.6338906
3905.983, -2.980562
3907.911, 1.478426
3909.840, 1.512976
3911.768, -1.756079
3913.697, -12.97926
3915.625, 5.168500
3917.553, 3.128775
3919.482, 3.577522
3921.410, -0.4584118
3923.339, -6.472960
3925.267, -6.829737
3927.196, -7.707069
3929.124, 4.905661
3931.053, 2.120956
3932.981, 0.9123594
3934.910, -4.890533
3936.838, -0.9375776
3938.767, 4.207811
3940.695, 5.814460
3942.624, 5.725922
3944.552, 3.560533
3946.480, -1.364453
3948.409, 2.429055
3950.337, 4.440549
3952.266, 1.409156
3954.194, -3.617967
3956.123, -0.3987517
3958.051, -1.751052
3959.980, 1.586751
3961.908, 5.281124
3963.837, 6.7217842E-02
3965.765, 1.642790
3967.694, 4.216026
3969.622, -0.6991787
3971.551, -1.569314
3973.479, -0.3927802
3975.407, 0.5031530
3977.336, -1.797083
3979.264, -6.589229
3981.193, -7.371349
3983.121, -4.023880
3985.050, -2.955018
3986.978, -2.834667
3988.907, -1.403896
3990.835, -3.656608
3992.764, -6.888566
3994.692, -5.486673
3996.621, -2.350842
3998.549, -2.199278
4000.478, -3.466090
4002.406, -0.7456772
4004.334, 2.443687
4006.263, -0.2364607
4008.191, -2.832235
4010.120, -3.009147
4012.048, -0.7851534
4013.977, 5.500331
4015.905, -1.246742
4017.834, 0.9514922
4019.762, 2.892441
4021.691, 3.055305
4023.619, 2.334361
4025.548, 1.341472
4027.476, 1.552505
4029.405, 3.396608
4031.333, 5.393253
4033.261, -1.157208
4035.190, 2.438244
4037.118, 2.146285
4039.047, -2.300135
4040.975, -0.1637435
4042.904, 3.178101
4044.832, -1.464000
4046.761, -1.378222
4048.689, -0.9037262
4050.618, -2.919276
4052.546, 1.198490
4054.475, 0.1100767
4056.403, 0.2162191
4058.332, -7.259259
4060.260, 3.206396
4062.188, -0.1304506
4064.117, -3.171060
4066.045, 0.8071707
4067.974, 4.312678
4069.902, 1.490723
4071.831, 2.997412
4073.759, 4.617527
4075.688, 0.7458934
4077.616, -1.335919
4079.545, -1.714804
4081.473, -4.353824
4083.402, -4.534503
4085.330, -0.5794382
4087.259, 1.605631
4089.187, -2.598753
4091.115, 1.009237
4093.044, 5.228988
4094.972, 3.439530
4096.901, 7.475209
4098.829, 2.802983
4100.758, 1.7588880E-02
4102.687, 3.221182
4104.615, 2.777796
4106.543, 4.997538
4108.472, 0.1931412
4110.400, 2.855854
4112.329, 2.888583
4114.257, 4.263760
4116.186, 4.024055
4118.114, 8.832029
4120.042, 1.863220
4121.971, 3.742544
4123.899, 0.7563725
4125.828, -0.9693548
4127.756, -4.489273
4129.685, -2.447816
4131.613, 0.5863197
4133.542, -2.309207
4135.470, -1.567690
4137.398, 2.330608
4139.327, -1.213095
4141.256, -1.785265
4143.184, -5.950304
4145.112, 2.331421
4147.041, 0.8442085
4148.970, -5.328815
4150.898, -3.569937
4152.826, 7.019944
4154.755, 3.340514
4156.684, 4.505571
4158.612, 5.286828
4160.540, 4.900725
4162.469, -2.130815
4164.397, -6.728898
4166.326, -2.265308
4168.254, -2.438383
4170.183, -6.786655
4172.111, 3.1073440E-02
4174.040, 6.732578
4175.968, -2.319103
4177.896, 2.474418
4179.825, -5.557165
4181.753, 0.3658415
4183.682, 8.632812
4185.610, 2.749689
4187.539, 1.210032
4189.467, 4.290491
4191.396, 1.778117
4193.324, -4.281526
4195.253, 2.128247
4197.181, 5.849213
4199.109, 8.494716
4201.038, -0.4913519
4202.967, -0.4335974
4204.895, 5.016377
4206.823, 3.048239
4208.752, -0.5882427
4210.681, -3.365458
4212.609, -0.4272630
4214.537, -1.265164
4216.466, 1.810883
4218.395, 4.332249
4220.323, -4.107035
4222.251, 1.170334
4224.180, -5.663089
4226.108, -0.8374664
4228.037, 4.478019
4229.965, -1.235857
4231.894, 5.804957
4233.822, -3.970095
4235.750, -3.762603
4237.679, 7.744130
4239.607, 0.4539538
4241.536, -2.036333
4243.464, -2.415336
4245.393, 3.734710
4247.321, 3.028032
4249.250, -1.249639
4251.178, -5.055212
4253.106, -3.886744
4255.035, -2.004390
4256.964, -3.776224
4258.892, -3.925582
4260.820, -3.781451
4262.749, -4.229399
4264.678, 0.2595971
4266.606, 3.226463
4268.534, -3.424247
4270.463, -1.882440
4272.392, 5.513131
4274.320, -1.394329
4276.248, 0.2377309
4278.177, 4.204112
4280.105, 1.859136
4282.034, 5.946456
4283.962, 0.5048695
4285.891, -1.237285
4287.819, -4.409379
4289.748, -3.685003
4291.676, 2.596668
4293.604, -1.723683
4295.533, 8.142610
4297.461, 3.829382
4299.390, -6.888295
4301.318, -0.6055424
4303.247, 2.728714
4305.175, 3.258206
4307.104, 2.644699
4309.032, -4.255682
4310.961, 4.345536
4312.889, 5.999063
4314.817, 2.767511
4316.746, 1.301781
4318.675, -4.286025
4320.603, -5.223113
4322.531, 1.517490
4324.460, 5.200332
4326.389, 1.851311
##END=



