##NAMES=Clinohumite
##RRUFFID=R060559
##IDEAL CHEMISTRY=Mg_9_(SiO_4_)_4_F_2_
##LOCALITY=Tadjikistan
##OWNER=RRUFF
##SOURCE=Gemological Institute of America
##DESCRIPTION=Yellowish-brown fragment
##STATUS=The identification of this mineral has been confirmed by X-ray diffraction and chemical analysis
##URL=https://www.rruff.net/odr/rruff_sample/R060559
##MEASURED CHEMISTRY=(Mg_8.51_Ti_0.24_[box]_0.24_Fe_0.01_)(Si_1.00_O_4_)_4_(F_1.30_(OH)_0.70_) ; OH by difference and stoichiometry
##DIFFRACTION SAMPLE DESCRIPTION=Powder
##CELL PARAMETERS=a: 4.7392 b: 10.2445 c: 13.6483 alpha: 100.911 beta: 90 gamma: 90 volume: 650.67 crystal system: monoclinic
##FILETYPE=Raman RAW
##RAMAN WAVELENGTH=532

100.3281, 26141.65
102.2566, 26132.40
104.1851, 26400.27
106.1135, 27230.08
108.0420, 29002.68
109.9705, 30745.63
111.8989, 32441.85
113.8274, 34180.99
115.7559, 35924.44
117.6843, 37972.34
119.6128, 39985.72
121.5413, 41882.21
123.4697, 43748.95
125.3982, 45218.21
127.3267, 46037.12
129.2551, 46334.97
131.1836, 46800.21
133.1121, 47339.61
135.0405, 48032.04
136.9690, 48889.51
138.8975, 49944.38
140.8259, 51117.13
142.7544, 52538.05
144.6829, 54140.55
146.6113, 55458.96
148.5398, 55996.96
150.4683, 56391.79
152.3967, 57239.80
154.3252, 58936.35
156.2537, 60752.09
158.1821, 62583.03
160.1106, 64431.59
162.0391, 66309.01
163.9675, 68170.38
165.8960, 70056.55
167.8245, 72027.99
169.7529, 74100.52
171.6814, 76168.73
173.6099, 78232.42
175.5383, 80419.50
177.4668, 82125.95
179.3953, 82924.83
181.3237, 83236.05
183.2522, 84013.13
185.1807, 85849.57
187.1091, 87616.75
189.0376, 88822.32
190.9661, 89204.48
192.8945, 89429.17
194.8230, 89146.83
196.7515, 88710.99
198.6799, 88924.56
200.6084, 90004.12
202.5369, 91663.66
204.4653, 94037.27
206.3938, 97416.73
208.3223, 100484.6
210.2507, 103086.5
212.1792, 105250.1
214.1077, 106466.3
216.0361, 106542.7
217.9646, 105918.3
219.8931, 104591.6
221.8215, 102162.1
223.7500, 100405.3
225.6785, 99632.17
227.6069, 99860.78
229.5354, 100943.8
231.4639, 103141.3
233.3923, 105971.5
235.3208, 109203.2
237.2493, 113426.2
239.1777, 116867.0
241.1062, 119163.0
243.0347, 120255.9
244.9631, 120819.5
246.8916, 120103.9
248.8201, 119383.6
250.7485, 119503.4
252.6770, 120853.6
254.6055, 122695.5
256.5339, 125415.3
258.4624, 128737.7
260.3909, 131432.9
262.3193, 133512.7
264.2478, 134759.3
266.1763, 134934.1
268.1047, 133592.4
270.0332, 131718.4
271.9617, 128910.9
273.8901, 125497.4
275.8186, 122648.3
277.7471, 120613.9
279.6755, 119117.1
281.6040, 118117.6
283.5325, 117646.9
285.4609, 117506.9
287.3894, 117738.2
289.3179, 118286.5
291.2463, 119058.3
293.1748, 120395.7
295.1033, 121694.5
297.0317, 122500.6
298.9602, 122741.1
300.8887, 122981.9
302.8171, 123453.4
304.7456, 124065.5
306.6741, 124404.6
308.6025, 124658.1
310.5310, 124534.2
312.4595, 123693.5
314.3879, 121988.0
316.3164, 120628.8
318.2449, 119832.5
320.1733, 119519.2
322.1018, 119568.7
324.0303, 120593.8
325.9587, 121256.3
327.8872, 120989.4
329.8157, 119696.7
331.7441, 118203.4
333.6726, 116505.0
335.6011, 114721.3
337.5295, 112994.9
339.4580, 111210.9
341.3865, 109663.3
343.3149, 108367.2
345.2434, 107281.0
347.1719, 106643.1
349.1003, 106797.1
351.0288, 107154.3
352.9573, 107125.1
354.8857, 106540.3
356.8142, 106048.8
358.7427, 105918.1
360.6711, 106138.7
362.5996, 106156.5
364.5281, 105719.8
366.4565, 105296.7
368.3850, 105154.8
370.3135, 105346.6
372.2419, 105608.5
374.1704, 105989.8
376.0989, 106403.2
378.0273, 106605.6
379.9558, 106710.1
381.8843, 106495.9
383.8127, 105841.0
385.7412, 104669.6
387.6697, 103470.1
389.5981, 102110.0
391.5266, 100801.7
393.4551, 99878.59
395.3835, 99517.11
397.3120, 99087.54
399.2405, 98328.39
401.1689, 97218.63
403.0974, 96242.05
405.0259, 95272.39
406.9543, 94503.70
408.8828, 94124.12
410.8113, 94181.70
412.7397, 94329.89
414.6682, 94560.22
416.5967, 94836.02
418.5251, 95027.88
420.4536, 94857.18
422.3821, 94882.94
424.3105, 95304.59
426.2390, 96084.02
428.1675, 97167.64
430.0959, 98870.52
432.0244, 100706.4
433.9529, 102211.8
435.8813, 103544.6
437.8098, 104332.6
439.7383, 104195.1
441.6667, 103377.2
443.5952, 102546.9
445.5237, 101695.5
447.4521, 100875.5
449.3806, 100162.4
451.3091, 99595.01
453.2375, 98854.11
455.1660, 97713.88
457.0945, 96426.31
459.0229, 95283.89
460.9514, 94309.55
462.8799, 93466.43
464.8083, 92798.77
466.7368, 92284.40
468.6653, 91793.42
470.5938, 91260.26
472.5222, 90817.05
474.4507, 90535.03
476.3792, 90499.24
478.3076, 90507.10
480.2361, 90633.92
482.1646, 90782.84
484.0930, 90838.55
486.0215, 90796.02
487.9500, 90650.68
489.8784, 90425.87
491.8069, 90108.80
493.7354, 89620.28
495.6638, 88725.91
497.5923, 87854.91
499.5208, 87286.27
501.4492, 87073.81
503.3777, 86736.08
505.3062, 85915.71
507.2346, 85030.12
509.1631, 84735.21
511.0916, 85376.82
513.0200, 85940.66
514.9485, 86003.70
516.8770, 85745.20
518.8054, 85749.77
520.7339, 86066.56
522.6624, 86654.15
524.5908, 87580.55
526.5193, 88888.80
528.4478, 90199.35
530.3762, 91472.53
532.3047, 92721.78
534.2332, 93950.01
536.1616, 95109.70
538.0901, 96326.06
540.0186, 97675.33
541.9470, 99102.69
543.8755, 100417.2
545.8040, 101486.2
547.7324, 102706.1
549.6609, 104513.8
551.5894, 107157.6
553.5178, 108542.3
555.4463, 108074.3
557.3748, 106968.2
559.3032, 105757.4
561.2317, 104302.6
563.1602, 103539.9
565.0886, 103865.4
567.0171, 104925.9
568.9456, 106401.3
570.8740, 108193.4
572.8025, 110548.0
574.7310, 113613.0
576.6594, 117331.7
578.5879, 121412.6
580.5164, 125865.4
582.4448, 130702.3
584.3733, 136158.1
586.3018, 142450.5
588.2302, 147857.2
590.1587, 152676.4
592.0872, 156434.8
594.0156, 158611.0
595.9441, 159058.4
597.8726, 159320.4
599.8010, 158901.6
601.7295, 158762.3
603.6580, 160327.0
605.5864, 165498.8
607.5149, 169645.0
609.4434, 173193.1
611.3718, 175049.8
613.3003, 172910.4
615.2288, 164449.0
617.1572, 154498.7
619.0857, 143889.6
621.0142, 132620.4
622.9426, 123166.1
624.8711, 115780.2
626.7996, 109950.5
628.7280, 105555.4
630.6565, 102597.2
632.5850, 100223.8
634.5134, 98586.55
636.4419, 97267.02
638.3704, 95920.78
640.2988, 94437.98
642.2273, 93175.11
644.1558, 92160.00
646.0842, 91415.18
648.0127, 90987.13
649.9412, 91073.51
651.8696, 91148.45
653.7981, 91064.98
655.7266, 90878.30
657.6550, 90787.17
659.5835, 90759.20
661.5120, 90880.20
663.4404, 91263.14
665.3689, 91863.74
667.2974, 92428.03
669.2258, 92842.47
671.1543, 93295.77
673.0828, 93862.66
675.0112, 94552.13
676.9397, 95248.37
678.8682, 95954.50
680.7966, 96625.30
682.7251, 97196.20
684.6536, 97598.45
686.5820, 98171.83
688.5105, 99029.01
690.4390, 100031.1
692.3674, 101046.5
694.2959, 102081.7
696.2244, 103158.5
698.1528, 104118.3
700.0813, 105205.1
702.0098, 106744.3
703.9382, 108962.6
705.8667, 111287.8
707.7952, 113584.1
709.7236, 115908.5
711.6521, 118447.8
713.5806, 121290.6
715.5090, 124170.7
717.4375, 126855.5
719.3660, 129476.7
721.2944, 132468.8
723.2229, 135543.6
725.1514, 139353.1
727.0798, 143981.3
729.0083, 149509.5
730.9368, 156103.9
732.8652, 163489.3
734.7937, 172237.7
736.7222, 182525.0
738.6506, 194263.1
740.5791, 207644.9
742.5076, 225547.7
744.4360, 242671.8
746.3645, 256889.8
748.2930, 268097.8
750.2214, 275700.1
752.1499, 278515.9
754.0784, 278450.3
756.0068, 276419.7
757.9353, 272107.6
759.8638, 268167.5
761.7922, 263607.0
763.7207, 260406.0
765.6492, 259779.8
767.5776, 261360.9
769.5061, 267105.1
771.4346, 276136.6
773.3630, 290556.4
775.2915, 311096.5
777.2200, 337740.0
779.1484, 370894.2
781.0769, 416778.0
783.0054, 465382.9
784.9338, 507964.9
786.8623, 550640.8
788.7908, 572737.8
790.7192, 561279.6
792.6477, 531955.1
794.5762, 499618.7
796.5046, 460201.7
798.4331, 430667.7
800.3616, 413812.2
802.2900, 407740.2
804.2185, 411367.5
806.1470, 429138.9
808.0754, 447790.7
810.0039, 467713.4
811.9324, 486660.9
813.8608, 501326.2
815.7893, 508888.7
817.7178, 519825.8
819.6462, 532044.2
821.5747, 550040.7
823.5032, 581461.6
825.4316, 629545.1
827.3601, 686184.9
829.2886, 768487.1
831.2170, 851558.9
833.1455, 904399.1
835.0740, 923287.3
837.0024, 921842.8
838.9309, 888609.1
840.8594, 843449.8
842.7878, 814873.7
844.7163, 817922.6
846.6448, 819060.4
848.5732, 818522.6
850.5017, 814342.9
852.4302, 801036.0
854.3586, 772490.3
856.2871, 756805.7
858.2156, 769014.6
860.1440, 795246.1
862.0725, 820997.3
864.0010, 869329.3
865.9294, 880574.8
867.8579, 834162.0
869.7864, 757135.1
871.7148, 679736.1
873.6433, 599443.4
875.5718, 530009.7
877.5002, 479078.0
879.4287, 439044.7
881.3572, 403553.6
883.2856, 373527.2
885.2141, 346501.1
887.1426, 321678.5
889.0710, 299801.5
890.9995, 281889.3
892.9280, 267977.1
894.8564, 256575.6
896.7849, 247876.2
898.7134, 241490.2
900.6418, 237073.8
902.5703, 234803.4
904.4988, 233604.5
906.4272, 233033.3
908.3557, 233628.8
910.2842, 236141.9
912.2126, 241115.2
914.1411, 245285.7
916.0696, 249092.6
917.9980, 251594.8
919.9265, 251695.1
921.8550, 249674.7
923.7834, 248295.0
925.7119, 246779.3
927.6404, 247335.3
929.5688, 252203.3
931.4973, 261430.6
933.4258, 267431.3
935.3542, 271693.5
937.2827, 271647.4
939.2112, 263577.3
941.1396, 250134.6
943.0681, 239063.2
944.9966, 230789.7
946.9250, 225102.9
948.8535, 221881.4
950.7820, 220968.8
952.7104, 222035.7
954.6389, 225190.7
956.5674, 230328.6
958.4958, 237532.7
960.4243, 246806.3
962.3528, 258583.0
964.2813, 273797.3
966.2097, 288007.7
968.1382, 303848.3
970.0667, 315756.9
971.9951, 317461.1
973.9236, 306209.7
975.8521, 292836.1
977.7805, 276080.4
979.7090, 259547.4
981.6375, 245713.7
983.5659, 234814.5
985.4944, 226084.2
987.4229, 220290.0
989.3513, 216047.6
991.2798, 212811.8
993.2083, 210531.2
995.1367, 208980.7
997.0652, 208485.0
998.9937, 208387.3
1000.922, 208478.4
1002.851, 208777.1
1004.779, 209381.5
1006.708, 210380.0
1008.636, 211498.3
1010.564, 212854.3
1012.493, 214203.7
1014.421, 215158.7
1016.350, 215637.2
1018.278, 215980.8
1020.207, 216102.2
1022.135, 216263.3
1024.064, 216744.6
1025.992, 217717.8
1027.921, 218615.3
1029.849, 219264.1
1031.778, 219978.8
1033.706, 221068.4
1035.635, 222548.5
1037.563, 223675.5
1039.491, 224081.6
1041.420, 224502.1
1043.348, 225360.6
1045.277, 226497.1
1047.205, 227440.0
1049.134, 228140.9
1051.062, 228696.7
1052.991, 229092.8
1054.919, 229423.5
1056.848, 229854.3
1058.776, 230529.3
1060.705, 231136.6
1062.633, 231578.0
1064.562, 231997.5
1066.490, 232448.2
1068.418, 232895.7
1070.347, 233624.1
1072.275, 234813.0
1074.204, 236095.6
1076.132, 237327.0
1078.061, 238500.0
1079.989, 239504.0
1081.918, 240110.7
1083.846, 240821.5
1085.775, 241823.3
1087.703, 243000.4
1089.632, 244098.4
1091.560, 245158.0
1093.489, 246069.9
1095.417, 246570.6
1097.345, 247121.5
1099.274, 248168.0
1101.202, 249756.9
1103.131, 251345.6
1105.059, 252860.4
1106.988, 254355.1
1108.916, 255811.9
1110.845, 257220.0
1112.773, 258669.5
1114.702, 260135.0
1116.630, 261593.8
1118.559, 263012.8
1120.487, 264406.2
1122.416, 265839.0
1124.344, 267337.8
1126.272, 268765.8
1128.201, 270013.5
1130.129, 271280.8
1132.058, 272807.7
1133.986, 274611.7
1135.915, 276108.6
1137.843, 276768.8
1139.772, 277650.6
1141.700, 279223.1
1143.629, 281299.3
1145.557, 283198.5
1147.486, 284879.4
1149.414, 286451.0
1151.343, 287745.9
1153.271, 289032.5
1155.199, 290637.6
1157.128, 292556.5
1159.056, 294449.4
1160.985, 296314.4
1162.913, 298080.3
1164.842, 299637.9
1166.770, 301058.9
1168.699, 302744.8
1170.627, 304890.4
1172.556, 307052.8
1174.484, 309245.8
1176.413, 311360.6
1178.341, 313206.9
1180.270, 314604.1
1182.198, 316190.4
1184.126, 318074.9
1186.055, 319994.6
1187.983, 321842.3
1189.912, 323606.2
1191.840, 325258.7
1193.769, 326757.5
1195.697, 328316.7
1197.626, 330040.2
1199.554, 331923.4
1201.483, 334000.5
1203.411, 336343.2
1205.340, 338726.2
1207.268, 341118.9
1209.197, 343542.7
1211.125, 345997.1
1213.053, 348432.4
1214.982, 350695.8
1216.910, 352520.3
1218.839, 354504.8
1220.767, 356936.4
1222.696, 359475.3
1224.624, 361843.7
1226.553, 364090.8
1228.481, 366127.2
1230.410, 367758.3
1232.338, 369567.2
1234.267, 371929.3
1236.195, 374670.5
1238.124, 377219.7
1240.052, 379414.2
1241.980, 381659.5
1243.909, 384077.5
1245.837, 386463.8
1247.766, 388600.3
1249.694, 390450.3
1251.623, 392465.3
1253.551, 394707.9
1255.480, 397062.4
1257.408, 399593.0
1259.337, 402178.3
1261.265, 404592.5
1263.194, 406783.7
1265.122, 409068.6
1267.051, 411654.8
1268.979, 414186.8
1270.907, 416458.6
1272.836, 418526.1
1274.764, 420605.8
1276.693, 422669.4
1278.621, 424858.6
1280.550, 427065.4
1282.478, 429488.5
1284.407, 432421.1
1286.335, 436002.3
1288.264, 439157.5
1290.192, 441599.3
1292.121, 443977.4
1294.049, 446459.5
1295.978, 449004.9
1297.906, 451513.7
1299.834, 453941.9
1301.763, 456536.8
1303.691, 459521.4
1305.620, 462483.8
1307.548, 465144.2
1309.477, 467614.8
1311.405, 470165.3
1313.334, 472828.5
1315.262, 475546.2
1317.191, 478317.9
1319.119, 481150.0
1321.048, 484037.1
1322.976, 486970.4
1324.905, 489978.2
1326.833, 493078.9
1328.761, 496169.0
1330.690, 499202.6
1332.618, 502216.3
1334.547, 505255.8
1336.475, 508312.9
1338.404, 511521.6
1340.332, 515299.6
1342.261, 518784.5
1344.189, 521225.2
1346.118, 523339.4
1348.046, 526443.5
1349.975, 530660.4
1351.903, 534541.2
1353.832, 537595.6
1355.760, 540542.3
1357.688, 543758.1
1359.617, 547176.4
1361.545, 550661.8
1363.474, 554284.5
1365.402, 557737.4
1367.331, 560774.9
1369.259, 563794.4
1371.188, 567085.0
1373.116, 570566.6
1375.045, 573744.9
1376.973, 576126.6
1378.902, 578966.1
1380.830, 582692.6
1382.759, 586650.3
1384.687, 590411.9
1386.615, 593987.9
1388.544, 597496.3
1390.472, 600921.2
1392.401, 604325.1
1394.329, 607609.4
1396.258, 610941.8
1398.186, 614489.6
1400.115, 618206.2
1402.043, 621922.4
1403.972, 625582.4
1405.900, 629311.7
1407.829, 633355.0
1409.757, 637349.4
1411.686, 640864.8
1413.614, 643986.4
1415.542, 647500.5
1417.471, 651686.4
1419.399, 655892.2
1421.328, 659931.6
1423.256, 663815.3
1425.185, 667417.1
1427.113, 670595.1
1429.042, 674194.0
1430.970, 678689.1
1432.899, 682955.9
1434.827, 686879.3
1436.756, 690551.0
1438.684, 694037.4
1440.613, 697393.2
1442.541, 700964.1
1444.469, 704519.0
1446.398, 708667.6
1448.326, 713948.5
1450.255, 719492.1
1452.183, 724171.6
1454.112, 727956.5
1456.040, 732456.5
1457.969, 738113.3
1459.897, 743507.9
1461.826, 748112.2
1463.754, 752391.8
1465.683, 756781.7
1467.611, 761300.5
1469.540, 765917.7
1471.468, 770701.6
1473.396, 775540.8
1475.325, 780389.8
1477.253, 785248.2
1479.182, 790031.1
1481.110, 794758.0
1483.039, 799630.9
1484.967, 804765.3
1486.896, 809748.9
1488.824, 814305.4
1490.753, 818861.1
1492.681, 823633.9
1494.610, 828641.5
1496.538, 833934.9
1498.467, 839794.8
1500.395, 845281.2
1502.323, 850026.4
1504.252, 854651.1
1506.180, 859495.2
1508.109, 864497.4
1510.037, 869457.5
1511.966, 874325.6
1513.894, 879342.3
1515.823, 884612.7
1517.751, 889986.7
1519.680, 895483.4
1521.608, 901007.2
1523.537, 906353.8
1525.465, 911397.9
1527.394, 916698.8
1529.322, 922388.8
1531.250, 928068.3
1533.179, 933637.3
1535.107, 939090.1
1537.036, 944379.6
1538.964, 949547.3
1540.893, 954777.8
1542.821, 960101.3
1544.750, 965528.3
1546.678, 971041.4
1548.607, 976654.3
1550.535, 982400.1
1552.464, 988211.6
1554.392, 993936.4
1556.321, 999556.9
1558.249, 1005067.
1560.177, 1010705.
1562.106, 1016053.
1564.034, 1020547.
1565.963, 1024862.
1567.891, 1030117.
1569.820, 1036395.
1571.748, 1042994.
1573.677, 1049853.
1575.605, 1056762.
1577.534, 1063655.
1579.462, 1070308.
1581.391, 1076374.
1583.319, 1081884.
1585.248, 1087586.
1587.176, 1093744.
1589.104, 1099634.
1591.033, 1104861.
1592.961, 1110091.
1594.890, 1115709.
1596.818, 1121633.
1598.747, 1127609.
1600.675, 1133647.
1602.604, 1139838.
1604.532, 1146647.
1606.461, 1153294.
1608.389, 1159452.
1610.318, 1165584.
1612.246, 1172055.
1614.175, 1178822.
1616.103, 1186504.
1618.031, 1195488.
1619.960, 1204225.
1621.888, 1211948.
1623.817, 1219392.
1625.745, 1227104.
1627.674, 1234826.
1629.602, 1242001.
1631.531, 1248662.
1633.459, 1254996.
1635.388, 1261144.
1637.316, 1267270.
1639.245, 1273424.
1641.173, 1279767.
1643.102, 1286518.
1645.030, 1293661.
1646.958, 1300691.
1648.887, 1307151.
1650.815, 1314127.
1652.744, 1321816.
1654.672, 1329750.
1656.601, 1337827.
1658.529, 1345945.
1660.458, 1353959.
1662.386, 1361851.
1664.315, 1369583.
1666.243, 1376867.
1668.172, 1384473.
1670.100, 1392729.
1672.029, 1401249.
1673.957, 1409586.
1675.885, 1417934.
1677.814, 1427010.
1679.742, 1437257.
1681.671, 1446861.
1683.599, 1455179.
1685.528, 1463464.
1687.456, 1472033.
1689.385, 1480589.
1691.313, 1488685.
1693.242, 1497221.
1695.170, 1504577.
1697.099, 1513685.
1699.027, 1522147.
1700.956, 1529839.
1702.884, 1537187.
1704.813, 1544080.
1706.741, 1551080.
1708.669, 1558930.
1710.598, 1567621.
1712.526, 1576297.
1714.455, 1584816.
1716.383, 1593590.
1718.312, 1602503.
1720.240, 1611663.
1722.169, 1621219.
1724.097, 1630824.
1726.026, 1640054.
1727.954, 1648815.
1729.883, 1656927.
1731.811, 1664007.
1733.740, 1671040.
1735.668, 1678242.
1737.596, 1685591.
1739.525, 1693543.
1741.453, 1701816.
1743.382, 1709747.
1745.310, 1717423.
1747.239, 1726442.
1749.167, 1737367.
1751.096, 1748414.
1753.024, 1759132.
1754.953, 1769718.
1756.881, 1780066.
1758.810, 1790097.
1760.738, 1799969.
1762.667, 1809697.
1764.595, 1818669.
1766.523, 1826499.
1768.452, 1834754.
1770.380, 1843755.
1772.309, 1853224.
1774.237, 1863172.
1776.166, 1873388.
1778.094, 1883616.
1780.023, 1893768.
1781.951, 1903525.
1783.880, 1912279.
1785.808, 1921834.
1787.737, 1932942.
1789.665, 1943894.
1791.594, 1954260.
1793.522, 1964127.
1795.450, 1973311.
1797.379, 1981985.
1799.307, 1991143.
1801.236, 2000976.
1803.164, 2010579.
1805.093, 2020058.
1807.021, 2029458.
1808.950, 2038601.
1810.878, 2048241.
1812.807, 2059065.
1814.735, 2070822.
1816.664, 2082704.
1818.592, 2094570.
1820.521, 2107227.
1822.449, 2120932.
1824.377, 2134062.
1826.306, 2145710.
1828.234, 2156885.
1830.163, 2168136.
1832.091, 2179215.
1834.020, 2189930.
1835.948, 2200372.
1837.877, 2210290.
1839.805, 2219656.
1841.734, 2229466.
1843.662, 2239901.
1845.591, 2250825.
1847.519, 2262379.
1849.448, 2274082.
1851.376, 2285665.
1853.304, 2297010.
1855.233, 2307750.
1857.161, 2318008.
1859.090, 2328465.
1861.018, 2339171.
1862.947, 2351034.
1864.875, 2364867.
1866.804, 2379533.
1868.732, 2394593.
1870.661, 2409784.
1872.589, 2424559.
1874.518, 2438703.
1876.446, 2452944.
1878.375, 2467091.
1880.303, 2480133.
1882.231, 2491853.
1884.160, 2502659.
1886.088, 2512836.
1888.017, 2522836.
1889.945, 2533282.
1891.874, 2544280.
1893.802, 2555519.
1895.731, 2567143.
1897.659, 2579766.
1899.588, 2593488.
1901.516, 2607147.
1903.445, 2619765.
1905.373, 2632517.
1907.302, 2645987.
1909.230, 2659147.
1911.158, 2671460.
1913.087, 2683048.
1915.015, 2693862.
1916.944, 2704046.
1918.872, 2715809.
1920.801, 2729541.
1922.729, 2743848.
1924.658, 2758986.
1926.586, 2773171.
1928.515, 2784559.
1930.443, 2795479.
1932.372, 2808233.
1934.300, 2821817.
1936.229, 2834188.
1938.157, 2845492.
1940.085, 2856788.
1942.014, 2867934.
1943.942, 2880097.
1945.871, 2894123.
1947.799, 2908152.
1949.728, 2921573.
1951.656, 2934525.
1953.585, 2946727.
1955.513, 2958779.
1957.442, 2971782.
1959.370, 2985869.
1961.299, 3000525.
1963.227, 3016137.
1965.156, 3031656.
1967.084, 3046307.
1969.012, 3061471.
1970.941, 3077451.
1972.869, 3093514.
1974.798, 3109427.
1976.726, 3124747.
1978.655, 3139042.
1980.583, 3152415.
1982.512, 3164874.
1984.440, 3176424.
1986.369, 3189897.
1988.297, 3206794.
1990.226, 3223649.
1992.154, 3239088.
1994.083, 3254659.
1996.011, 3270588.
1997.939, 3286981.
1999.868, 3304490.
2001.796, 3322332.
2003.725, 3338718.
2005.653, 3353746.
2007.582, 3369435.
2009.510, 3386345.
2011.439, 3403363.
2013.367, 3419801.
2015.296, 3436893.
2017.224, 3455048.
2019.153, 3473154.
2021.081, 3490387.
2023.010, 3506719.
2024.938, 3522540.
2026.866, 3537929.
2028.795, 3552553.
2030.723, 3566765.
2032.652, 3581144.
2034.580, 3595962.
2036.509, 3611411.
2038.437, 3626663.
2040.366, 3643441.
2042.294, 3663109.
2044.223, 3682877.
2046.151, 3699882.
2048.080, 3718594.
2050.008, 3733403.
2051.937, 3752572.
2053.865, 3769419.
2055.793, 3783768.
2057.722, 3799156.
2059.650, 3816299.
2061.579, 3834032.
2063.507, 3851864.
2065.436, 3869777.
2067.364, 3887621.
2069.293, 3904999.
2071.221, 3922299.
2073.150, 3938572.
2075.078, 3951585.
2077.007, 3961909.
2078.935, 3974582.
2080.864, 3990378.
2082.792, 4004627.
2084.720, 4016443.
2086.649, 4029697.
2088.577, 4045916.
2090.506, 4062991.
2092.434, 4080275.
2094.363, 4098017.
2096.291, 4115439.
2098.220, 4133458.
2100.148, 4153834.
2102.077, 4175238.
2104.005, 4193999.
2105.934, 4209575.
2107.862, 4224164.
2109.791, 4238575.
2111.719, 4250892.
2113.647, 4261150.
2115.576, 4271183.
2117.504, 4281666.
2119.433, 4293281.
2121.361, 4305876.
2123.290, 4320760.
2125.218, 4339842.
2127.147, 4361256.
2129.075, 4381484.
2131.004, 4400588.
2132.932, 4419780.
2134.861, 4438773.
2136.789, 4458560.
2138.718, 4479802.
2140.646, 4499367.
2142.574, 4515418.
2144.503, 4531870.
2146.431, 4550807.
2148.360, 4569605.
2150.288, 4586088.
2152.217, 4602574.
2154.145, 4622389.
2156.074, 4643395.
2158.002, 4660688.
2159.931, 4674769.
2161.859, 4690455.
2163.788, 4707752.
2165.716, 4724376.
2167.645, 4739923.
2169.573, 4756661.
2171.501, 4776125.
2173.430, 4795225.
2175.358, 4812916.
2177.287, 4830724.
2179.215, 4849033.
2181.144, 4868146.
2183.072, 4888262.
2185.001, 4908865.
2186.929, 4929070.
2188.858, 4948795.
2190.786, 4969029.
2192.715, 4989736.
2194.643, 5008837.
2196.572, 5026370.
2198.500, 5043757.
2200.428, 5061281.
2202.357, 5079397.
2204.285, 5098800.
2206.214, 5117771.
2208.142, 5133944.
2210.071, 5151085.
2211.999, 5172924.
2213.928, 5195246.
2215.856, 5213238.
2217.785, 5229622.
2219.713, 5249519.
2221.642, 5272567.
2223.570, 5295461.
2225.499, 5318166.
2227.427, 5340743.
2229.355, 5362500.
2231.284, 5386174.
2233.212, 5412842.
2235.141, 5436230.
2237.069, 5453037.
2238.998, 5468796.
2240.926, 5485915.
2242.855, 5502791.
2244.783, 5519621.
2246.712, 5536005.
2248.640, 5550880.
2250.569, 5566136.
2252.497, 5584381.
2254.426, 5605122.
2256.354, 5626554.
2258.282, 5648524.
2260.211, 5670621.
2262.139, 5692549.
2264.068, 5715160.
2265.996, 5738531.
2267.925, 5760914.
2269.853, 5781130.
2271.782, 5801596.
2273.710, 5824116.
2275.639, 5845401.
2277.567, 5863523.
2279.496, 5881460.
2281.424, 5901219.
2283.353, 5921207.
2285.281, 5939191.
2287.209, 5956914.
2289.138, 5977717.
2291.066, 5996498.
2292.995, 6019691.
2294.923, 6037505.
2296.852, 6057567.
2298.780, 6080362.
2300.709, 6103340.
2302.637, 6126532.
2304.566, 6148812.
2306.494, 6168188.
2308.423, 6189734.
2310.351, 6214861.
2312.280, 6239768.
2314.208, 6264419.
2316.136, 6286862.
2318.065, 6305513.
2319.993, 6322861.
2321.922, 6339399.
2323.850, 6356915.
2325.779, 6377756.
2327.707, 6397604.
2329.636, 6421521.
2331.564, 6442183.
2333.493, 6465486.
2335.421, 6490427.
2337.350, 6511794.
2339.278, 6529516.
2341.207, 6546113.
2343.135, 6562134.
2345.063, 6576905.
2346.992, 6589607.
2348.920, 6606189.
2350.849, 6630224.
2352.777, 6654615.
2354.706, 6676675.
2356.634, 6700132.
2358.563, 6726585.
2360.491, 6751863.
2362.420, 6773541.
2364.348, 6793542.
2366.277, 6812724.
2368.205, 6831909.
2370.134, 6853277.
2372.062, 6874916.
2373.990, 6893270.
2375.919, 6910073.
2377.847, 6928702.
2379.776, 6949210.
2381.704, 6971667.
2383.633, 6996091.
2385.561, 7022486.
2387.490, 7050783.
2389.418, 7077824.
2391.347, 7102648.
2393.275, 7129176.
2395.204, 7158564.
2397.132, 7186246.
2399.061, 7210249.
2400.989, 7233860.
2402.917, 7259157.
2404.846, 7281493.
2406.774, 7298254.
2408.703, 7315385.
2410.631, 7336207.
2412.560, 7358083.
2414.488, 7379550.
2416.417, 7401686.
2418.345, 7425787.
2420.274, 7450367.
2422.202, 7472287.
2424.131, 7494171.
2426.059, 7521809.
2427.988, 7552075.
2429.916, 7577555.
2431.844, 7599612.
2433.773, 7623429.
2435.701, 7645612.
2437.630, 7670210.
2439.558, 7688430.
2441.487, 7707536.
2443.415, 7727437.
2445.344, 7749260.
2447.272, 7773713.
2449.201, 7796595.
2451.129, 7816759.
2453.058, 7838221.
2454.986, 7861203.
2456.915, 7886764.
2458.843, 7918560.
2460.771, 7946967.
2462.700, 7967511.
2464.628, 7987262.
2466.557, 8007777.
2468.485, 8029153.
2470.414, 8052055.
2472.342, 8074964.
2474.271, 8097395.
2476.199, 8119280.
2478.128, 8139951.
2480.056, 8160897.
2481.985, 8183809.
2483.913, 8207306.
2485.842, 8229505.
2487.770, 8251100.
2489.698, 8273131.
2491.627, 8295667.
2493.555, 8319749.
2495.484, 8341533.
2497.412, 8366229.
2499.341, 8386218.
2501.269, 8407141.
2503.198, 8428969.
2505.126, 8453276.
2507.055, 8479727.
2508.983, 8505614.
2510.912, 8530478.
2512.840, 8552386.
2514.769, 8570921.
2516.697, 8590372.
2518.625, 8612163.
2520.554, 8632548.
2522.482, 8654561.
2524.411, 8677388.
2526.339, 8697912.
2528.268, 8723115.
2530.196, 8742342.
2532.125, 8763102.
2534.053, 8787722.
2535.982, 8811838.
2537.910, 8833689.
2539.839, 8854792.
2541.767, 8873783.
2543.696, 8893990.
2545.624, 8918538.
2547.552, 8941460.
2549.481, 8959503.
2551.409, 8978065.
2553.338, 9001241.
2555.266, 9025326.
2557.195, 9047879.
2559.123, 9071360.
2561.052, 9097394.
2562.980, 9125033.
2564.909, 9154246.
2566.837, 9182732.
2568.766, 9206806.
2570.694, 9233247.
2572.623, 9255104.
2574.551, 9280667.
2576.479, 9302122.
2578.408, 9323019.
2580.336, 9350576.
2582.265, 9380977.
2584.193, 9404465.
2586.122, 9426174.
2588.050, 9458219.
2589.979, 9494793.
2591.907, 9523032.
2593.836, 9544441.
2595.764, 9564837.
2597.693, 9584095.
2599.621, 9602284.
2601.550, 9620089.
2603.478, 9639921.
2605.406, 9661715.
2607.335, 9683274.
2609.263, 9704850.
2611.192, 9724846.
2613.120, 9743458.
2615.049, 9769328.
2616.977, 9802124.
2618.906, 9829824.
2620.834, 9852144.
2622.763, 9875249.
2624.691, 9899186.
2626.620, 9922645.
2628.548, 9946288.
2630.477, 9965544.
2632.405, 9988925.
2634.333, 1.0010811E+07
2636.262, 1.0030410E+07
2638.190, 1.0054630E+07
2640.119, 1.0071110E+07
2642.047, 1.0090900E+07
2643.976, 1.0115910E+07
2645.904, 1.0139360E+07
2647.833, 1.0161210E+07
2649.761, 1.0182370E+07
2651.690, 1.0203670E+07
2653.618, 1.0224550E+07
2655.547, 1.0244760E+07
2657.475, 1.0269160E+07
2659.404, 1.0300340E+07
2661.332, 1.0327260E+07
2663.260, 1.0344870E+07
2665.189, 1.0365070E+07
2667.117, 1.0388380E+07
2669.046, 1.0409840E+07
2670.974, 1.0429090E+07
2672.903, 1.0446150E+07
2674.831, 1.0461630E+07
2676.760, 1.0475910E+07
2678.688, 1.0488780E+07
2680.617, 1.0502820E+07
2682.545, 1.0518740E+07
2684.474, 1.0535660E+07
2686.402, 1.0553540E+07
2688.331, 1.0573890E+07
2690.259, 1.0598600E+07
2692.188, 1.0622530E+07
2694.116, 1.0643210E+07
2696.044, 1.0665900E+07
2697.973, 1.0689310E+07
2699.901, 1.0717910E+07
2701.830, 1.0753220E+07
2703.758, 1.0787250E+07
2705.687, 1.0819680E+07
2707.615, 1.0845010E+07
2709.544, 1.0857440E+07
2711.472, 1.0871120E+07
2713.401, 1.0886090E+07
2715.329, 1.0905780E+07
2717.258, 1.0933200E+07
2719.186, 1.0956320E+07
2721.115, 1.0972010E+07
2723.043, 1.0988840E+07
2724.971, 1.1007790E+07
2726.900, 1.1031510E+07
2728.828, 1.1061880E+07
2730.757, 1.1089400E+07
2732.685, 1.1110490E+07
2734.614, 1.1135170E+07
2736.542, 1.1167020E+07
2738.471, 1.1193080E+07
2740.399, 1.1209740E+07
2742.328, 1.1228500E+07
2744.256, 1.1251200E+07
2746.185, 1.1272800E+07
2748.113, 1.1293220E+07
2750.042, 1.1313180E+07
2751.970, 1.1333390E+07
2753.898, 1.1352040E+07
2755.827, 1.1368330E+07
2757.755, 1.1385490E+07
2759.684, 1.1403600E+07
2761.612, 1.1425560E+07
2763.541, 1.1452280E+07
2765.469, 1.1478270E+07
2767.398, 1.1502620E+07
2769.326, 1.1525590E+07
2771.255, 1.1546180E+07
2773.183, 1.1570310E+07
2775.112, 1.1597850E+07
2777.040, 1.1620440E+07
2778.969, 1.1637440E+07
2780.897, 1.1650630E+07
2782.825, 1.1659870E+07
2784.754, 1.1675330E+07
2786.682, 1.1696720E+07
2788.611, 1.1713860E+07
2790.539, 1.1727200E+07
2792.468, 1.1743320E+07
2794.396, 1.1762010E+07
2796.325, 1.1779130E+07
2798.253, 1.1794860E+07
2800.182, 1.1809620E+07
2802.110, 1.1824230E+07
2804.039, 1.1843330E+07
2805.967, 1.1865240E+07
2807.896, 1.1885110E+07
2809.824, 1.1903050E+07
2811.752, 1.1917730E+07
2813.681, 1.1931520E+07
2815.609, 1.1950340E+07
2817.538, 1.1972440E+07
2819.466, 1.1994770E+07
2821.395, 1.2016120E+07
2823.323, 1.2032890E+07
2825.252, 1.2052901E+07
2827.180, 1.2067200E+07
2829.109, 1.2086820E+07
2831.037, 1.2103790E+07
2832.966, 1.2116970E+07
2834.894, 1.2121530E+07
2836.823, 1.2126400E+07
2838.751, 1.2143060E+07
2840.679, 1.2162160E+07
2842.608, 1.2176100E+07
2844.536, 1.2188780E+07
2846.465, 1.2201810E+07
2848.393, 1.2215970E+07
2850.322, 1.2233030E+07
2852.250, 1.2249840E+07
2854.179, 1.2264910E+07
2856.107, 1.2279910E+07
2858.036, 1.2293000E+07
2859.964, 1.2311180E+07
2861.893, 1.2340650E+07
2863.821, 1.2369060E+07
2865.750, 1.2391190E+07
2867.678, 1.2411270E+07
2869.606, 1.2429090E+07
2871.535, 1.2444630E+07
2873.463, 1.2457340E+07
2875.392, 1.2470100E+07
2877.320, 1.2485280E+07
2879.249, 1.2501000E+07
2881.177, 1.2518420E+07
2883.106, 1.2535910E+07
2885.034, 1.2555929E+07
2886.963, 1.2573460E+07
2888.891, 1.2598970E+07
2890.820, 1.2624400E+07
2892.748, 1.2648770E+07
2894.677, 1.2665230E+07
2896.605, 1.2674660E+07
2898.533, 1.2689010E+07
2900.462, 1.2708230E+07
2902.390, 1.2724910E+07
2904.319, 1.2739830E+07
2906.247, 1.2751600E+07
2908.176, 1.2763480E+07
2910.104, 1.2785080E+07
2912.033, 1.2810340E+07
2913.961, 1.2827480E+07
2915.890, 1.2840720E+07
2917.818, 1.2857500E+07
2919.747, 1.2873710E+07
2921.675, 1.2883460E+07
2923.604, 1.2892970E+07
2925.532, 1.2909330E+07
2927.460, 1.2926100E+07
2929.389, 1.2940390E+07
2931.317, 1.2951080E+07
2933.246, 1.2954370E+07
2935.174, 1.2960070E+07
2937.103, 1.2971660E+07
2939.031, 1.2988340E+07
2940.960, 1.3014250E+07
2942.888, 1.3033510E+07
2944.817, 1.3040010E+07
2946.745, 1.3049420E+07
2948.674, 1.3068190E+07
2950.602, 1.3085370E+07
2952.531, 1.3099530E+07
2954.459, 1.3121380E+07
2956.387, 1.3140789E+07
2958.316, 1.3173790E+07
2960.244, 1.3184870E+07
2962.173, 1.3202350E+07
2964.101, 1.3224540E+07
2966.030, 1.3236500E+07
2967.958, 1.3241230E+07
2969.887, 1.3247470E+07
2971.815, 1.3256670E+07
2973.744, 1.3269340E+07
2975.672, 1.3285990E+07
2977.601, 1.3307190E+07
2979.529, 1.3329200E+07
2981.458, 1.3345950E+07
2983.386, 1.3360440E+07
2985.314, 1.3376530E+07
2987.243, 1.3389530E+07
2989.171, 1.3395770E+07
2991.100, 1.3401350E+07
2993.028, 1.3410660E+07
2994.957, 1.3419530E+07
2996.885, 1.3426530E+07
2998.814, 1.3434090E+07
3000.742, 1.3443740E+07
3002.671, 1.3450000E+07
3004.599, 1.3451320E+07
3006.528, 1.3455860E+07
3008.456, 1.3465400E+07
3010.385, 1.3475890E+07
3012.313, 1.3486900E+07
3014.241, 1.3508820E+07
3016.170, 1.3537960E+07
3018.098, 1.3554450E+07
3020.027, 1.3560260E+07
3021.955, 1.3566450E+07
3023.884, 1.3571450E+07
3025.812, 1.3569320E+07
3027.741, 1.3568130E+07
3029.669, 1.3580390E+07
3031.598, 1.3595530E+07
3033.526, 1.3601130E+07
3035.455, 1.3606460E+07
3037.383, 1.3617110E+07
3039.312, 1.3626120E+07
3041.240, 1.3630950E+07
3043.168, 1.3632500E+07
3045.097, 1.3630080E+07
3047.025, 1.3632650E+07
3048.954, 1.3644070E+07
3050.882, 1.3653770E+07
3052.811, 1.3657510E+07
3054.739, 1.3668030E+07
3056.668, 1.3684270E+07
3058.596, 1.3701980E+07
3060.525, 1.3718700E+07
3062.453, 1.3723310E+07
3064.382, 1.3721000E+07
3066.310, 1.3729340E+07
3068.239, 1.3742170E+07
3070.167, 1.3748270E+07
3072.095, 1.3751650E+07
3074.024, 1.3754760E+07
3075.952, 1.3757660E+07
3077.881, 1.3758830E+07
3079.809, 1.3760730E+07
3081.738, 1.3767230E+07
3083.666, 1.3771400E+07
3085.595, 1.3770670E+07
3087.523, 1.3773600E+07
3089.452, 1.3782030E+07
3091.380, 1.3798630E+07
3093.309, 1.3824590E+07
3095.237, 1.3842570E+07
3097.166, 1.3849360E+07
3099.094, 1.3861050E+07
3101.022, 1.3874720E+07
3102.951, 1.3886240E+07
3104.879, 1.3894380E+07
3106.808, 1.3895960E+07
3108.736, 1.3895410E+07
3110.665, 1.3899440E+07
3112.593, 1.3904550E+07
3114.522, 1.3906430E+07
3116.450, 1.3911140E+07
3118.379, 1.3923320E+07
3120.307, 1.3935930E+07
3122.236, 1.3945860E+07
3124.164, 1.3958690E+07
3126.093, 1.3975250E+07
3128.021, 1.3993540E+07
3129.949, 1.4012620E+07
3131.878, 1.4029680E+07
3133.806, 1.4043690E+07
3135.735, 1.4052220E+07
3137.663, 1.4056540E+07
3139.592, 1.4061440E+07
3141.520, 1.4065020E+07
3143.449, 1.4061310E+07
3145.377, 1.4057910E+07
3147.306, 1.4063610E+07
3149.234, 1.4070480E+07
3151.163, 1.4073000E+07
3153.091, 1.4075310E+07
3155.020, 1.4078360E+07
3156.948, 1.4082220E+07
3158.876, 1.4087430E+07
3160.805, 1.4092610E+07
3162.733, 1.4097910E+07
3164.662, 1.4103010E+07
3166.590, 1.4108040E+07
3168.519, 1.4112410E+07
3170.447, 1.4117930E+07
3172.376, 1.4133790E+07
3174.304, 1.4153010E+07
3176.233, 1.4166080E+07
3178.161, 1.4175840E+07
3180.090, 1.4181940E+07
3182.018, 1.4189010E+07
3183.947, 1.4199830E+07
3185.875, 1.4208540E+07
3187.803, 1.4210600E+07
3189.732, 1.4214700E+07
3191.660, 1.4222610E+07
3193.589, 1.4225310E+07
3195.517, 1.4222420E+07
3197.446, 1.4224870E+07
3199.374, 1.4220111E+07
3201.303, 1.4223240E+07
3203.231, 1.4211090E+07
3205.160, 1.4205560E+07
3207.088, 1.4202570E+07
3209.017, 1.4199190E+07
3210.945, 1.4197780E+07
3212.874, 1.4198710E+07
3214.802, 1.4204240E+07
3216.730, 1.4213330E+07
3218.659, 1.4225240E+07
3220.587, 1.4238000E+07
3222.516, 1.4245610E+07
3224.444, 1.4246680E+07
3226.373, 1.4246980E+07
3228.301, 1.4246370E+07
3230.230, 1.4241110E+07
3232.158, 1.4233200E+07
3234.087, 1.4221650E+07
3236.015, 1.4212410E+07
3237.944, 1.4207640E+07
3239.872, 1.4209530E+07
3241.801, 1.4222810E+07
3243.729, 1.4228210E+07
3245.657, 1.4214270E+07
3247.586, 1.4203180E+07
3249.514, 1.4196640E+07
3251.443, 1.4191680E+07
3253.371, 1.4188070E+07
3255.300, 1.4177940E+07
3257.228, 1.4165470E+07
3259.157, 1.4159980E+07
3261.085, 1.4157860E+07
3263.014, 1.4156450E+07
3264.942, 1.4154800E+07
3266.871, 1.4152290E+07
3268.799, 1.4148460E+07
3270.728, 1.4141710E+07
3272.656, 1.4135530E+07
3274.584, 1.4129120E+07
3276.513, 1.4127030E+07
3278.441, 1.4121675E+07
3280.370, 1.4117979E+07
3282.298, 1.4114400E+07
3284.227, 1.4109630E+07
3286.155, 1.4106140E+07
3288.084, 1.4099800E+07
3290.012, 1.4095110E+07
3291.941, 1.4095480E+07
3293.869, 1.4095090E+07
3295.798, 1.4091410E+07
3297.726, 1.4088940E+07
3299.655, 1.4088360E+07
3301.583, 1.4088290E+07
3303.511, 1.4088610E+07
3305.440, 1.4090770E+07
3307.368, 1.4092250E+07
3309.297, 1.4087040E+07
3311.225, 1.4080460E+07
3313.154, 1.4080430E+07
3315.082, 1.4078860E+07
3317.011, 1.4070150E+07
3318.939, 1.4064640E+07
3320.868, 1.4063740E+07
3322.796, 1.4071580E+07
3324.725, 1.4087440E+07
3326.653, 1.4090280E+07
3328.582, 1.4082370E+07
3330.510, 1.4075950E+07
3332.438, 1.4072150E+07
3334.367, 1.4076980E+07
3336.295, 1.4080730E+07
3338.224, 1.4074730E+07
3340.152, 1.4068870E+07
3342.081, 1.4063450E+07
3344.009, 1.4063970E+07
3345.938, 1.4071090E+07
3347.866, 1.4076450E+07
3349.795, 1.4078860E+07
3351.723, 1.4073690E+07
3353.652, 1.4065460E+07
3355.580, 1.4060660E+07
3357.509, 1.4060510E+07
3359.437, 1.4066400E+07
3361.365, 1.4074300E+07
3363.294, 1.4077490E+07
3365.222, 1.4088830E+07
3367.151, 1.4098506E+07
3369.079, 1.4108855E+07
3371.008, 1.4122350E+07
3372.936, 1.4131190E+07
3374.865, 1.4142750E+07
3376.793, 1.4148870E+07
3378.722, 1.4151390E+07
3380.650, 1.4149650E+07
3382.579, 1.4148650E+07
3384.507, 1.4149320E+07
3386.436, 1.4153730E+07
3388.364, 1.4164370E+07
3390.292, 1.4170900E+07
3392.221, 1.4174030E+07
3394.149, 1.4179000E+07
3396.078, 1.4185610E+07
3398.006, 1.4194680E+07
3399.935, 1.4203060E+07
3401.863, 1.4207340E+07
3403.792, 1.4211430E+07
3405.720, 1.4215680E+07
3407.649, 1.4222970E+07
3409.577, 1.4233780E+07
3411.506, 1.4238830E+07
3413.434, 1.4238470E+07
3415.363, 1.4236530E+07
3417.291, 1.4227085E+07
3419.219, 1.4215880E+07
3421.148, 1.4196850E+07
3423.076, 1.4175620E+07
3425.005, 1.4150640E+07
3426.933, 1.4120310E+07
3428.862, 1.4093870E+07
3430.790, 1.4073840E+07
3432.719, 1.4051850E+07
3434.647, 1.4030050E+07
3436.576, 1.4011560E+07
3438.504, 1.3996160E+07
3440.433, 1.3984100E+07
3442.361, 1.3972570E+07
3444.290, 1.3957050E+07
3446.218, 1.3946100E+07
3448.146, 1.3939550E+07
3450.075, 1.3937960E+07
3452.003, 1.3938340E+07
3453.932, 1.3931010E+07
3455.860, 1.3916660E+07
3457.789, 1.3894770E+07
3459.717, 1.3872960E+07
3461.646, 1.3860000E+07
3463.574, 1.3845870E+07
3465.503, 1.3827980E+07
3467.431, 1.3814290E+07
3469.360, 1.3804770E+07
3471.288, 1.3800270E+07
3473.217, 1.3796820E+07
3475.145, 1.3785820E+07
3477.073, 1.3773480E+07
3479.002, 1.3768820E+07
3480.930, 1.3760560E+07
3482.859, 1.3752968E+07
3484.787, 1.3748561E+07
3486.716, 1.3739410E+07
3488.644, 1.3737650E+07
3490.573, 1.3731090E+07
3492.501, 1.3722980E+07
3494.430, 1.3710930E+07
3496.358, 1.3691100E+07
3498.287, 1.3670380E+07
3500.215, 1.3651410E+07
3502.144, 1.3639690E+07
3504.072, 1.3637940E+07
3506.000, 1.3634910E+07
3507.929, 1.3630720E+07
3509.857, 1.3621910E+07
3511.786, 1.3615760E+07
3513.714, 1.3625730E+07
3515.643, 1.3630970E+07
3517.571, 1.3616350E+07
3519.500, 1.3610450E+07
3521.428, 1.3617000E+07
3523.357, 1.3614250E+07
3525.285, 1.3603420E+07
3527.214, 1.3585870E+07
3529.142, 1.3569870E+07
3531.071, 1.3566310E+07
3532.999, 1.3561840E+07
3534.927, 1.3549260E+07
3536.856, 1.3539460E+07
3538.784, 1.3533980E+07
3540.713, 1.3524330E+07
3542.641, 1.3519568E+07
3544.570, 1.3510780E+07
3546.498, 1.3511060E+07
3548.427, 1.3508450E+07
3550.355, 1.3506590E+07
3552.284, 1.3505760E+07
3554.212, 1.3509690E+07
3556.141, 1.3519530E+07
3558.069, 1.3521550E+07
3559.998, 1.3522200E+07
3561.926, 1.3539820E+07
3563.854, 1.3556630E+07
3565.783, 1.3552410E+07
3567.711, 1.3551920E+07
3569.640, 1.3560820E+07
3571.568, 1.3564380E+07
3573.497, 1.3560000E+07
3575.425, 1.3537810E+07
3577.354, 1.3506360E+07
3579.282, 1.3479560E+07
3581.211, 1.3452600E+07
3583.139, 1.3424050E+07
3585.068, 1.3397210E+07
3586.996, 1.3372270E+07
3588.925, 1.3349600E+07
3590.853, 1.3330100E+07
3592.781, 1.3321930E+07
3594.710, 1.3315210E+07
3596.638, 1.3299050E+07
3598.567, 1.3281680E+07
3600.495, 1.3268070E+07
3602.424, 1.3249850E+07
3604.352, 1.3233287E+07
3606.281, 1.3216620E+07
3608.209, 1.3198730E+07
3610.138, 1.3182290E+07
3612.066, 1.3165530E+07
3613.995, 1.3149360E+07
3615.923, 1.3138920E+07
3617.852, 1.3124471E+07
3619.780, 1.3114761E+07
3621.708, 1.3104860E+07
3623.637, 1.3098710E+07
3625.565, 1.3098380E+07
3627.494, 1.3096070E+07
3629.422, 1.3092270E+07
3631.351, 1.3087780E+07
3633.279, 1.3079460E+07
3635.208, 1.3068080E+07
3637.136, 1.3057280E+07
3639.065, 1.3046540E+07
3640.993, 1.3033120E+07
3642.922, 1.3019660E+07
3644.850, 1.3004730E+07
3646.779, 1.2995010E+07
3648.707, 1.2990650E+07
3650.635, 1.2982320E+07
3652.564, 1.2971360E+07
3654.492, 1.2962410E+07
3656.421, 1.2952800E+07
3658.349, 1.2941080E+07
3660.278, 1.2928210E+07
3662.206, 1.2914680E+07
3664.135, 1.2903720E+07
3666.063, 1.2895120E+07
3667.992, 1.2886740E+07
3669.920, 1.2877930E+07
3671.849, 1.2868666E+07
3673.777, 1.2855830E+07
3675.706, 1.2849130E+07
3677.634, 1.2840340E+07
3679.563, 1.2829300E+07
3681.491, 1.2811190E+07
3683.419, 1.2793430E+07
3685.348, 1.2783170E+07
3687.276, 1.2778060E+07
3689.205, 1.2779600E+07
3691.133, 1.2772770E+07
3693.062, 1.2756440E+07
3694.990, 1.2735760E+07
3696.919, 1.2715160E+07
3698.847, 1.2701540E+07
3700.776, 1.2691180E+07
3702.704, 1.2676201E+07
3704.633, 1.2666402E+07
3706.561, 1.2655410E+07
3708.490, 1.2646490E+07
3710.418, 1.2641530E+07
3712.346, 1.2633690E+07
3714.275, 1.2623090E+07
3716.203, 1.2607900E+07
3718.132, 1.2596520E+07
3720.060, 1.2589000E+07
3721.989, 1.2568780E+07
3723.917, 1.2541260E+07
3725.846, 1.2507020E+07
3727.774, 1.2486100E+07
3729.703, 1.2499810E+07
3731.631, 1.2502300E+07
3733.560, 1.2489830E+07
3735.488, 1.2481510E+07
3737.417, 1.2472730E+07
3739.345, 1.2454960E+07
3741.273, 1.2435030E+07
3743.202, 1.2420680E+07
3745.130, 1.2398540E+07
3747.059, 1.2370430E+07
3748.987, 1.2346690E+07
3750.916, 1.2327790E+07
3752.844, 1.2312460E+07
3754.773, 1.2302040E+07
3756.701, 1.2297770E+07
3758.630, 1.2293230E+07
3760.558, 1.2286590E+07
3762.487, 1.2276080E+07
3764.415, 1.2261470E+07
3766.344, 1.2243140E+07
3768.272, 1.2221320E+07
3770.200, 1.2195370E+07
3772.129, 1.2174660E+07
3774.057, 1.2159460E+07
3775.986, 1.2141760E+07
3777.914, 1.2125330E+07
3779.843, 1.2113010E+07
3781.771, 1.2102850E+07
3783.700, 1.2092810E+07
3785.628, 1.2082480E+07
3787.557, 1.2069720E+07
3789.485, 1.2048650E+07
3791.414, 1.2028790E+07
3793.342, 1.2020330E+07
3795.271, 1.2009740E+07
3797.199, 1.1994660E+07
3799.127, 1.1974770E+07
3801.056, 1.1951720E+07
3802.984, 1.1928330E+07
3804.913, 1.1905480E+07
3806.841, 1.1889449E+07
3808.770, 1.1867450E+07
3810.698, 1.1861680E+07
3812.627, 1.1854900E+07
3814.555, 1.1846520E+07
3816.484, 1.1835100E+07
3818.412, 1.1821490E+07
3820.341, 1.1806340E+07
3822.269, 1.1783330E+07
3824.198, 1.1753910E+07
3826.126, 1.1725860E+07
3828.054, 1.1697310E+07
3829.983, 1.1664630E+07
3831.911, 1.1636790E+07
3833.840, 1.1615910E+07
3835.768, 1.1603770E+07
3837.697, 1.1597580E+07
3839.625, 1.1595730E+07
3841.554, 1.1586880E+07
3843.482, 1.1559580E+07
3845.411, 1.1537850E+07
3847.339, 1.1524210E+07
3849.268, 1.1500290E+07
3851.196, 1.1473580E+07
3853.125, 1.1451830E+07
3855.053, 1.1435680E+07
3856.981, 1.1425260E+07
3858.910, 1.1416090E+07
3860.838, 1.1405970E+07
3862.767, 1.1388460E+07
3864.695, 1.1369620E+07
3866.624, 1.1353110E+07
3868.552, 1.1338420E+07
3870.481, 1.1325300E+07
3872.409, 1.1311120E+07
3874.338, 1.1297370E+07
3876.266, 1.1283151E+07
3878.195, 1.1266675E+07
3880.123, 1.1254470E+07
3882.052, 1.1235880E+07
3883.980, 1.1221500E+07
3885.908, 1.1212500E+07
3887.837, 1.1200850E+07
3889.765, 1.1179740E+07
3891.694, 1.1159110E+07
3893.622, 1.1140900E+07
3895.551, 1.1134580E+07
3897.479, 1.1114534E+07
3899.408, 1.1107140E+07
3901.336, 1.1085690E+07
3903.265, 1.1070020E+07
3905.193, 1.1058290E+07
3907.122, 1.1048290E+07
3909.050, 1.1036100E+07
3910.979, 1.1020970E+07
3912.907, 1.1000850E+07
3914.835, 1.0985660E+07
3916.764, 1.0975660E+07
3918.692, 1.0963980E+07
3920.621, 1.0950420E+07
3922.549, 1.0935260E+07
3924.478, 1.0918620E+07
3926.406, 1.0901610E+07
3928.335, 1.0884380E+07
3930.263, 1.0867040E+07
3932.192, 1.0847210E+07
3934.120, 1.0827910E+07
3936.049, 1.0808180E+07
3937.977, 1.0793660E+07
3939.906, 1.0783100E+07
3941.834, 1.0775210E+07
3943.762, 1.0764220E+07
3945.691, 1.0745520E+07
3947.619, 1.0728130E+07
3949.548, 1.0713370E+07
3951.476, 1.0703280E+07
3953.405, 1.0692770E+07
3955.333, 1.0674560E+07
3957.262, 1.0656970E+07
3959.190, 1.0641970E+07
3961.119, 1.0630000E+07
3963.047, 1.0619090E+07
3964.976, 1.0605320E+07
3966.904, 1.0591310E+07
3968.833, 1.0577840E+07
3970.761, 1.0560640E+07
3972.689, 1.0545926E+07
3974.618, 1.0526990E+07
3976.546, 1.0511690E+07
3978.475, 1.0492770E+07
3980.403, 1.0470910E+07
3982.332, 1.0447930E+07
3984.260, 1.0431790E+07
3986.189, 1.0416700E+07
3988.117, 1.0398040E+07
3990.046, 1.0376600E+07
3991.974, 1.0353050E+07
3993.903, 1.0335430E+07
3995.831, 1.0319550E+07
3997.760, 1.0300610E+07
3999.688, 1.0284350E+07
4001.616, 1.0273000E+07
4003.545, 1.0251600E+07
4005.473, 1.0227720E+07
4007.402, 1.0212830E+07
4009.330, 1.0199190E+07
4011.259, 1.0185120E+07
4013.187, 1.0164210E+07
4015.116, 1.0142660E+07
4017.044, 1.0133840E+07
4018.973, 1.0123370E+07
4020.901, 1.0105510E+07
4022.830, 1.0087880E+07
4024.758, 1.0069650E+07
4026.687, 1.0047700E+07
4028.615, 1.0024160E+07
4030.543, 1.0000250E+07
4032.472, 9977415.
4034.400, 9956540.
4036.329, 9940961.
4038.257, 9922133.
4040.186, 9906240.
4042.114, 9876323.
4044.043, 9872662.
4045.971, 9848749.
4047.900, 9825146.
4049.828, 9816796.
4051.757, 9797694.
4053.685, 9769009.
4055.614, 9755574.
4057.542, 9744161.
4059.470, 9723875.
4061.399, 9708145.
4063.327, 9696641.
4065.256, 9677447.
4067.184, 9658295.
4069.113, 9646171.
4071.041, 9631917.
4072.970, 9614806.
4074.898, 9598120.
4076.827, 9579540.
4078.755, 9556393.
4080.684, 9535733.
4082.612, 9517967.
4084.541, 9492171.
4086.469, 9465439.
4088.397, 9441891.
4090.326, 9427301.
4092.254, 9420684.
4094.183, 9408044.
4096.111, 9393085.
4098.040, 9378530.
4099.968, 9359895.
4101.896, 9337336.
4103.825, 9315420.
4105.754, 9294696.
4107.682, 9275992.
4109.610, 9258815.
4111.539, 9243002.
4113.468, 9228795.
4115.396, 9212384.
4117.324, 9190492.
4119.253, 9171563.
4121.182, 9156543.
4123.110, 9139149.
4125.038, 9121756.
4126.967, 9111083.
4128.896, 9092487.
4130.824, 9081273.
4132.752, 9078431.
4134.681, 9072440.
4136.609, 9053663.
4138.538, 9040179.
4140.466, 9029640.
4142.395, 9016026.
4144.323, 8999704.
4146.251, 8986958.
4148.180, 8971848.
4150.108, 8957071.
4152.037, 8942215.
4153.965, 8926024.
4155.894, 8909846.
4157.822, 8896709.
4159.751, 8884304.
4161.679, 8868038.
4163.607, 8852129.
4165.536, 8837037.
4167.465, 8822080.
4169.393, 8806521.
4171.321, 8790424.
4173.250, 8772378.
4175.179, 8758809.
4177.107, 8744690.
4179.035, 8731807.
4180.964, 8720199.
4182.893, 8709664.
4184.821, 8699158.
4186.749, 8683784.
4188.678, 8666042.
4190.606, 8646389.
4192.535, 8628054.
4194.463, 8609898.
4196.392, 8588956.
4198.320, 8566773.
4200.249, 8544267.
4202.177, 8524767.
4204.105, 8507562.
4206.034, 8491927.
4207.962, 8473526.
4209.891, 8451588.
4211.819, 8432908.
4213.748, 8418493.
4215.676, 8410993.
4217.604, 8398907.
4219.533, 8381660.
4221.462, 8368997.
4223.390, 8351885.
4225.318, 8325323.
4227.247, 8298156.
4229.176, 8273881.
4231.104, 8257751.
4233.032, 8245848.
4234.961, 8235536.
4236.890, 8221933.
4238.818, 8205505.
4240.746, 8182238.
4242.675, 8156598.
##END=



