##NAMES=Clinoptilolite-Ca
##RRUFFID=R061098
##IDEAL CHEMISTRY=Ca_3_(Si_30_Al_6_)O_72_·20H_2_O
##LOCALITY=Fish Creek Quarry, Clackamas River, Estacada, Clackamas County, Oregon, USA
##OWNER=RRUFF
##SOURCE=Michael Scott
##DESCRIPTION=Druse of colorless, clear tabular somewhat pseudohexagonal crystals in vug
##STATUS=The identification of this mineral is confirmed by single-crystal X-ray diffraction and chemical analysis
##URL=https://www.rruff.net/odr/rruff_sample/R061098
##MEASURED CHEMISTRY=(Ca_1.90_K_1.85_Na_0.23_Mg_0.11_)(Si_29.90_Al_6.10_)O_72_·21.90H_2_O ; H_2_O estimated by difference
##DIFFRACTION SAMPLE DESCRIPTION=Single crystal, powder profile is calculated
##CELL PARAMETERS=a: 17.628 b: 17.764 c: 7.4 alpha: 90 beta: 116.28 gamma: 90 volume: 2078 crystal system: monoclinic
##FILETYPE=Raman RAW
##RAMAN WAVELENGTH=532

114.0549, 739.6239
115.9834, 1095.238
117.9119, 1541.803
119.8403, 2068.536
121.7688, 2601.566
123.6973, 3191.489
125.6257, 3757.175
127.5542, 3831.433
129.4827, 3769.370
131.4111, 3704.631
133.3396, 3656.034
135.2681, 3626.165
137.1965, 3601.620
139.1250, 3587.909
141.0535, 3574.740
142.9819, 3548.829
144.9104, 3498.027
146.8389, 3439.906
148.7673, 3380.217
150.6958, 3316.167
152.6243, 3249.812
154.5527, 3178.238
156.4812, 3101.654
158.4097, 3024.626
160.3382, 2943.531
162.2666, 2862.449
164.1951, 2786.474
166.1236, 2717.885
168.0520, 2648.064
169.9805, 2571.901
171.9090, 2482.056
173.8374, 2405.961
175.7659, 2347.007
177.6944, 2300.851
179.6228, 2256.945
181.5513, 2212.441
183.4798, 2172.564
185.4082, 2139.608
187.3367, 2118.973
189.2652, 2098.444
191.1936, 2080.144
193.1221, 2062.464
195.0506, 2040.121
196.9790, 2009.949
198.9075, 1976.520
200.8360, 1941.507
202.7644, 1901.054
204.6929, 1864.807
206.6214, 1836.808
208.5498, 1816.227
210.4783, 1794.545
212.4068, 1767.450
214.3352, 1740.045
216.2637, 1718.839
218.1922, 1705.140
220.1206, 1695.211
222.0491, 1687.110
223.9776, 1679.965
225.9060, 1679.067
227.8345, 1683.141
229.7630, 1694.284
231.6914, 1714.038
233.6199, 1747.772
235.5484, 1784.062
237.4768, 1817.756
239.4053, 1845.115
241.3338, 1874.930
243.2622, 1910.905
245.1907, 1948.798
247.1192, 1980.889
249.0476, 2003.361
250.9761, 2021.917
252.9046, 2039.098
254.8330, 2056.530
256.7615, 2070.229
258.6900, 2078.804
260.6184, 2083.351
262.5469, 2085.618
264.4754, 2086.972
266.4038, 2085.210
268.3323, 2077.578
270.2608, 2062.500
272.1892, 2045.838
274.1177, 2028.675
276.0462, 2010.872
277.9746, 1990.983
279.9031, 1963.045
281.8316, 1936.793
283.7600, 1921.616
285.6885, 1921.122
287.6170, 1919.583
289.5454, 1912.212
291.4739, 1899.187
293.4024, 1887.663
295.3308, 1876.733
297.2593, 1867.545
299.1878, 1861.074
301.1162, 1857.825
303.0447, 1854.477
304.9732, 1846.687
306.9016, 1834.008
308.8301, 1832.460
310.7586, 1849.067
312.6870, 1871.686
314.6155, 1891.516
316.5440, 1907.765
318.4724, 1923.612
320.4009, 1942.433
322.3294, 1964.125
324.2578, 1978.367
326.1863, 1976.289
328.1148, 1973.283
330.0432, 1979.366
331.9717, 2000.696
333.9002, 2020.264
335.8286, 2034.253
337.7571, 2042.616
339.6856, 2050.595
341.6140, 2055.978
343.5425, 2062.346
345.4710, 2071.205
347.3994, 2080.878
349.3279, 2096.509
351.2564, 2118.132
353.1848, 2146.724
355.1133, 2182.099
357.0418, 2226.240
358.9702, 2276.144
360.8987, 2329.487
362.8272, 2385.956
364.7556, 2447.129
366.6841, 2511.264
368.6126, 2580.617
370.5410, 2657.129
372.4695, 2739.216
374.3980, 2831.449
376.3264, 2934.111
378.2549, 3046.574
380.1834, 3173.616
382.1118, 3312.692
384.0403, 3468.044
385.9688, 3639.859
387.8972, 3823.329
389.8257, 4032.171
391.7542, 4276.164
393.6826, 4574.796
395.6111, 4853.134
397.5396, 5142.551
399.4680, 5396.851
401.3965, 5582.411
403.3250, 5701.354
405.2534, 5740.603
407.1819, 5701.986
409.1104, 5577.611
411.0388, 5393.325
412.9673, 5111.749
414.8958, 4790.666
416.8242, 4470.009
418.7527, 4139.290
420.6812, 3831.126
422.6096, 3547.953
424.5381, 3292.255
426.4666, 3063.301
428.3951, 2863.680
430.3235, 2689.897
432.2520, 2537.632
434.1805, 2408.009
436.1089, 2300.249
438.0374, 2213.076
439.9659, 2146.136
441.8943, 2097.765
443.8228, 2069.908
445.7513, 2056.093
447.6797, 2051.135
449.6082, 2053.071
451.5367, 2078.942
453.4651, 2126.895
455.3936, 2197.962
457.3221, 2298.704
459.2505, 2430.982
461.1790, 2579.869
463.1075, 2740.124
465.0359, 2911.306
466.9644, 3105.517
468.8929, 3346.601
470.8214, 3590.685
472.7498, 3830.289
474.6783, 4077.962
476.6068, 4254.699
478.5352, 4348.598
480.4637, 4357.929
482.3922, 4264.607
484.3206, 3990.120
486.2491, 3683.859
488.1776, 3354.735
490.1060, 3006.985
492.0345, 2695.580
493.9630, 2425.358
495.8914, 2198.305
497.8199, 2015.465
499.7484, 1896.994
501.6768, 1797.571
503.6053, 1717.191
505.5338, 1654.571
507.4622, 1601.122
509.3907, 1557.671
511.3192, 1523.080
513.2476, 1495.880
515.1761, 1476.814
517.1046, 1462.873
519.0330, 1458.066
520.9615, 1455.257
522.8900, 1446.761
524.8184, 1430.332
526.7469, 1416.239
528.6754, 1406.060
530.6038, 1400.011
532.5323, 1400.593
534.4608, 1420.704
536.3892, 1435.320
538.3177, 1428.279
540.2462, 1400.679
542.1746, 1384.221
544.1031, 1395.877
546.0316, 1414.597
547.9600, 1423.871
549.8885, 1411.985
551.8170, 1404.456
553.7454, 1406.357
555.6739, 1413.959
557.6024, 1416.774
559.5308, 1409.956
561.4593, 1404.725
563.3878, 1405.543
565.3162, 1413.855
567.2447, 1422.155
569.1732, 1429.511
571.1016, 1437.349
573.0301, 1448.000
574.9586, 1462.983
576.8870, 1474.030
578.8155, 1472.624
580.7440, 1466.306
582.6724, 1471.262
584.6009, 1500.611
586.5294, 1527.292
588.4578, 1542.717
590.3863, 1548.540
592.3148, 1555.872
594.2432, 1562.045
596.1717, 1574.022
598.1002, 1595.586
600.0286, 1630.538
601.9571, 1669.219
603.8856, 1713.104
605.8140, 1760.110
607.7425, 1807.696
609.6710, 1856.850
611.5994, 1903.958
613.5279, 1953.650
615.4564, 2002.414
617.3848, 2031.025
619.3133, 2034.715
621.2418, 2023.731
623.1702, 1998.099
625.0987, 1958.202
627.0272, 1910.560
628.9556, 1847.968
630.8841, 1783.558
632.8126, 1725.521
634.7410, 1676.184
636.6695, 1629.698
638.5980, 1583.397
640.5264, 1540.651
642.4549, 1506.079
644.3834, 1480.752
646.3118, 1460.501
648.2403, 1445.782
650.1688, 1435.562
652.0972, 1425.979
654.0257, 1416.889
655.9542, 1408.578
657.8826, 1401.482
659.8111, 1395.464
661.7396, 1388.715
663.6680, 1378.930
665.5965, 1370.315
667.5250, 1366.025
669.4534, 1368.563
671.3819, 1367.375
673.3104, 1358.140
675.2388, 1346.767
677.1673, 1341.098
679.0958, 1343.333
681.0242, 1343.550
682.9527, 1334.773
684.8812, 1322.823
686.8096, 1318.862
688.7381, 1332.621
690.6666, 1342.696
692.5950, 1342.985
694.5235, 1334.520
696.4520, 1326.808
698.3804, 1317.109
700.3089, 1311.497
702.2374, 1315.510
704.1658, 1328.667
706.0943, 1336.423
708.0228, 1330.375
709.9512, 1323.599
711.8797, 1324.159
713.8082, 1335.612
715.7366, 1343.891
717.6651, 1345.406
719.5936, 1345.228
721.5220, 1347.812
723.4505, 1354.029
725.3790, 1360.326
727.3074, 1365.793
729.2359, 1370.840
731.1644, 1376.240
733.0928, 1384.939
735.0213, 1389.599
736.9498, 1384.947
738.8782, 1375.772
740.8067, 1372.022
742.7352, 1377.352
744.6636, 1383.337
746.5921, 1387.372
748.5206, 1389.726
750.4490, 1392.574
752.3775, 1392.823
754.3060, 1396.536
756.2344, 1407.423
758.1629, 1424.405
760.0914, 1441.367
762.0198, 1458.928
763.9483, 1474.579
765.8768, 1486.022
767.8052, 1490.591
769.7337, 1501.232
771.6622, 1522.087
773.5906, 1545.712
775.5191, 1566.775
777.4476, 1585.110
779.3760, 1605.500
781.3045, 1630.678
783.2330, 1657.119
785.1614, 1682.682
787.0899, 1709.375
789.0184, 1728.763
790.9468, 1737.154
792.8753, 1739.145
794.8038, 1740.930
796.7322, 1745.233
798.6607, 1741.546
800.5892, 1724.255
802.5176, 1698.434
804.4461, 1670.154
806.3746, 1637.128
808.3030, 1607.107
810.2315, 1582.475
812.1600, 1561.969
814.0884, 1542.904
816.0169, 1527.251
817.9454, 1510.692
819.8738, 1493.439
821.8023, 1474.414
823.7308, 1450.468
825.6593, 1415.023
827.5878, 1386.244
829.5162, 1372.206
831.4447, 1368.968
833.3732, 1360.756
835.3016, 1341.926
837.2301, 1324.654
839.1586, 1312.112
841.0870, 1303.890
843.0155, 1297.128
844.9440, 1290.399
846.8724, 1288.620
848.8009, 1297.448
850.7294, 1314.744
852.6578, 1323.506
854.5863, 1314.612
856.5148, 1306.118
858.4432, 1302.457
860.3717, 1303.195
862.3002, 1304.617
864.2286, 1305.194
866.1571, 1308.540
868.0856, 1319.558
870.0140, 1335.941
871.9425, 1346.255
873.8710, 1345.746
875.7994, 1343.369
877.7279, 1340.757
879.6564, 1337.899
881.5848, 1336.550
883.5133, 1338.527
885.4418, 1339.469
887.3702, 1334.961
889.2987, 1327.539
891.2272, 1327.136
893.1556, 1341.605
895.0841, 1353.385
897.0126, 1354.613
898.9410, 1346.341
900.8695, 1341.684
902.7980, 1340.993
904.7264, 1343.228
906.6549, 1351.422
908.5834, 1363.198
910.5118, 1367.624
912.4403, 1360.768
914.3688, 1352.924
916.2972, 1346.941
918.2257, 1343.216
920.1542, 1343.713
922.0826, 1351.354
924.0111, 1360.104
925.9396, 1369.226
927.8680, 1378.246
929.7965, 1385.654
931.7250, 1391.271
933.6534, 1395.291
935.5819, 1396.705
937.5104, 1396.652
939.4388, 1397.468
941.3673, 1399.954
943.2958, 1402.232
945.2242, 1402.948
947.1527, 1403.285
949.0812, 1405.706
951.0096, 1410.450
952.9381, 1416.652
954.8666, 1429.509
956.7950, 1441.697
958.7235, 1438.907
960.6520, 1414.895
962.5804, 1399.199
964.5089, 1407.837
966.4374, 1425.324
968.3658, 1434.392
970.2943, 1431.218
972.2228, 1431.184
974.1512, 1435.658
976.0797, 1444.233
978.0082, 1457.502
979.9366, 1478.338
981.8651, 1494.913
983.7936, 1505.717
985.7220, 1512.098
987.6505, 1512.808
989.5790, 1507.868
991.5074, 1507.140
993.4359, 1516.463
995.3644, 1526.561
997.2928, 1531.035
999.2213, 1528.233
1001.150, 1534.453
1003.078, 1562.302
1005.007, 1586.104
1006.935, 1590.727
1008.864, 1579.016
1010.792, 1578.841
1012.721, 1594.663
1014.649, 1614.687
1016.578, 1638.160
1018.506, 1661.951
1020.434, 1678.039
1022.363, 1682.415
1024.291, 1686.103
1026.220, 1691.987
1028.148, 1699.419
1030.077, 1707.085
1032.005, 1718.204
1033.934, 1725.352
1035.862, 1724.649
1037.791, 1721.388
1039.719, 1721.911
1041.648, 1726.483
1043.576, 1730.196
1045.505, 1731.878
1047.433, 1732.361
1049.361, 1732.144
1051.290, 1731.187
1053.218, 1730.096
1055.147, 1731.951
1057.075, 1730.754
1059.004, 1722.080
1060.932, 1706.261
1062.861, 1694.164
1064.789, 1686.811
1066.718, 1681.944
1068.646, 1680.009
1070.575, 1680.487
1072.503, 1681.339
1074.432, 1681.737
1076.360, 1685.359
1078.288, 1695.164
1080.217, 1708.210
1082.145, 1720.149
1084.074, 1727.183
1086.002, 1742.416
1087.931, 1771.868
1089.859, 1804.781
1091.788, 1833.467
1093.716, 1857.158
1095.645, 1876.264
1097.573, 1882.864
1099.502, 1891.963
1101.430, 1915.056
1103.359, 1947.788
1105.287, 1973.394
1107.215, 1987.342
1109.144, 2001.921
1111.072, 2024.181
1113.001, 2050.155
1114.929, 2071.370
1116.858, 2085.645
1118.786, 2098.769
1120.715, 2108.169
1122.643, 2118.010
1124.572, 2134.111
1126.500, 2159.859
1128.429, 2176.257
1130.357, 2175.188
1132.286, 2170.856
1134.214, 2171.010
1136.142, 2174.758
1138.071, 2178.450
1139.999, 2182.979
1141.928, 2185.983
1143.856, 2186.229
1145.785, 2184.762
1147.713, 2184.028
1149.642, 2187.375
1151.570, 2184.569
1153.499, 2164.606
1155.427, 2144.594
1157.356, 2143.329
1159.284, 2168.516
1161.213, 2180.795
1163.141, 2172.325
1165.069, 2158.742
1166.998, 2144.590
1168.926, 2131.179
1170.855, 2123.257
1172.783, 2123.418
1174.712, 2123.687
1176.640, 2125.903
1178.569, 2124.079
1180.497, 2107.408
1182.426, 2068.667
1184.354, 2038.101
1186.283, 2025.190
1188.211, 2016.091
1190.140, 2002.215
1192.068, 1983.273
1193.996, 1967.844
1195.925, 1963.808
1197.853, 1954.200
1199.782, 1930.030
1201.710, 1898.105
1203.639, 1871.875
1205.567, 1851.956
1207.496, 1835.189
1209.424, 1820.772
1211.353, 1809.241
1213.281, 1801.355
1215.210, 1796.845
1217.138, 1791.069
1219.067, 1780.212
1220.995, 1771.496
1222.923, 1769.299
1224.852, 1770.927
1226.780, 1768.896
1228.709, 1760.070
1230.637, 1752.880
1232.566, 1747.339
1234.494, 1744.561
1236.423, 1748.298
1238.351, 1759.656
1240.280, 1760.914
1242.208, 1741.067
1244.137, 1723.940
1246.065, 1721.687
1247.994, 1728.330
1249.922, 1732.179
1251.850, 1731.787
1253.779, 1733.332
1255.707, 1741.723
1257.636, 1749.851
1259.564, 1751.665
1261.493, 1746.587
1263.421, 1743.373
1265.350, 1742.171
1267.278, 1743.007
1269.207, 1747.628
1271.135, 1754.088
1273.064, 1758.551
1274.992, 1760.868
1276.921, 1762.236
1278.849, 1756.528
1280.777, 1755.660
1282.706, 1773.654
1284.634, 1806.669
1286.563, 1823.729
1288.491, 1818.289
1290.420, 1807.513
1292.348, 1787.735
1294.277, 1770.492
1296.205, 1772.168
1298.134, 1794.635
1300.062, 1809.087
1301.991, 1804.666
1303.919, 1799.333
1305.848, 1803.009
1307.776, 1812.819
1309.704, 1817.260
1311.633, 1812.318
1313.561, 1810.612
1315.490, 1819.527
1317.418, 1827.698
1319.347, 1822.904
1321.275, 1803.604
1323.204, 1798.001
1325.132, 1818.257
1327.061, 1835.555
1328.989, 1840.227
1330.918, 1838.803
1332.846, 1840.807
1334.775, 1846.229
1336.703, 1851.100
1338.631, 1854.322
1340.560, 1856.922
1342.488, 1858.967
1344.417, 1860.865
1346.345, 1864.652
1348.274, 1872.517
1350.202, 1875.097
1352.131, 1864.952
1354.059, 1854.158
1355.988, 1850.597
1357.916, 1853.870
1359.845, 1857.724
1361.773, 1860.131
1363.702, 1866.175
1365.630, 1879.161
1367.558, 1894.330
1369.487, 1907.195
1371.415, 1917.703
1373.344, 1925.061
1375.272, 1929.865
1377.201, 1930.776
1379.129, 1923.346
1381.058, 1913.261
1382.986, 1910.913
1384.915, 1919.018
1386.843, 1924.904
1388.772, 1928.264
1390.700, 1929.121
1392.629, 1924.116
1394.557, 1917.094
1396.485, 1917.381
1398.414, 1926.391
1400.342, 1934.640
1402.271, 1939.134
1404.199, 1943.427
1406.128, 1954.320
1408.056, 1967.072
1409.985, 1963.756
1411.913, 1935.411
1413.842, 1920.110
1415.770, 1938.330
1417.699, 1963.184
1419.627, 1979.878
1421.556, 1988.115
1423.484, 1986.143
1425.412, 1961.265
1427.341, 1950.463
1429.269, 1975.565
1431.198, 2004.775
1433.126, 2008.938
1435.055, 1987.243
1436.983, 1978.771
1438.912, 1995.285
1440.840, 2009.305
1442.769, 2015.179
1444.697, 2017.621
1446.626, 2020.851
1448.554, 2024.832
1450.483, 2028.450
1452.411, 2029.723
1454.339, 2033.896
1456.268, 2048.580
1458.196, 2062.840
1460.125, 2059.809
1462.053, 2039.926
1463.982, 2038.991
1465.910, 2073.386
1467.839, 2099.942
1469.767, 2097.115
1471.696, 2085.222
1473.624, 2085.936
1475.553, 2097.834
1477.481, 2108.073
1479.410, 2114.851
1481.338, 2120.992
1483.266, 2131.627
1485.195, 2138.723
1487.123, 2129.722
1489.052, 2107.367
1490.980, 2103.303
1492.909, 2132.729
1494.837, 2153.180
1496.766, 2139.831
1498.694, 2119.072
1500.623, 2111.639
1502.551, 2117.091
1504.480, 2131.564
1506.408, 2166.298
1508.337, 2185.846
1510.265, 2167.470
1512.193, 2142.370
1514.122, 2135.457
1516.050, 2146.088
1517.979, 2153.823
1519.907, 2155.375
1521.836, 2160.243
1523.764, 2171.269
1525.693, 2184.743
1527.621, 2201.183
1529.550, 2219.157
1531.478, 2228.005
1533.407, 2221.756
1535.335, 2216.146
1537.264, 2210.269
1539.192, 2206.619
1541.120, 2206.519
1543.049, 2209.507
1544.977, 2214.224
1546.906, 2216.570
1548.834, 2228.973
1550.763, 2265.010
1552.691, 2296.283
1554.620, 2309.260
1556.548, 2309.591
1558.477, 2307.060
1560.405, 2300.259
1562.334, 2295.741
1564.262, 2296.426
1566.191, 2295.723
1568.119, 2287.247
1570.048, 2278.716
1571.976, 2280.519
1573.905, 2293.206
1575.833, 2307.904
1577.761, 2329.299
1579.690, 2344.004
1581.618, 2340.698
1583.547, 2335.252
1585.475, 2342.011
1587.404, 2359.186
1589.332, 2375.864
1591.261, 2394.101
1593.189, 2406.760
1595.118, 2406.099
1597.046, 2406.756
1598.975, 2416.777
1600.903, 2434.477
1602.832, 2455.990
1604.760, 2481.485
1606.688, 2508.886
1608.617, 2543.382
1610.545, 2571.220
1612.474, 2584.266
1614.402, 2588.969
1616.331, 2589.878
1618.259, 2588.112
1620.188, 2596.848
1622.116, 2624.669
1624.045, 2643.532
1625.973, 2643.124
1627.902, 2631.801
1629.830, 2606.184
1631.759, 2574.837
1633.687, 2565.338
1635.615, 2582.953
1637.544, 2592.188
1639.472, 2585.510
1641.401, 2571.131
1643.329, 2546.441
1645.258, 2520.851
1647.186, 2506.889
1649.115, 2503.970
1651.043, 2502.131
1652.972, 2502.212
1654.900, 2498.350
1656.829, 2483.796
1658.757, 2468.743
1660.686, 2464.726
1662.614, 2465.553
1664.542, 2451.665
1666.471, 2419.091
1668.399, 2402.316
1670.328, 2416.567
1672.256, 2433.390
1674.185, 2443.219
1676.113, 2446.102
1678.042, 2438.047
1679.970, 2421.274
1681.899, 2415.596
1683.827, 2427.706
1685.756, 2432.475
1687.684, 2411.787
1689.613, 2394.444
1691.541, 2407.230
1693.469, 2432.315
1695.398, 2431.629
1697.326, 2403.718
1699.255, 2400.414
1701.183, 2443.942
1703.112, 2478.038
1705.040, 2476.335
1706.969, 2462.904
1708.897, 2454.599
1710.826, 2450.994
1712.754, 2451.053
1714.683, 2455.468
1716.611, 2459.828
1718.540, 2464.706
1720.468, 2467.073
1722.396, 2460.673
1724.325, 2454.217
1726.253, 2461.782
1728.182, 2479.100
1730.110, 2480.150
1732.039, 2456.546
1733.967, 2444.967
1735.896, 2463.227
1737.824, 2482.239
1739.753, 2490.505
1741.681, 2491.017
1743.610, 2485.640
1745.538, 2475.002
1747.467, 2467.725
1749.395, 2461.974
1751.323, 2465.732
1753.252, 2491.352
1755.180, 2514.882
1757.109, 2517.300
1759.037, 2512.401
1760.966, 2525.283
1762.894, 2556.963
1764.823, 2573.240
1766.751, 2565.104
1768.680, 2556.418
1770.608, 2548.000
1772.537, 2543.222
1774.465, 2549.253
1776.394, 2558.642
1778.322, 2555.743
1780.250, 2538.806
1782.179, 2535.724
1784.107, 2558.630
1786.036, 2575.780
1787.964, 2580.720
1789.893, 2583.113
1791.821, 2586.213
1793.750, 2590.858
1795.678, 2600.416
1797.607, 2615.862
1799.535, 2621.895
1801.464, 2608.515
1803.392, 2604.818
1805.321, 2626.702
1807.249, 2642.308
1809.177, 2631.378
1811.106, 2609.998
1813.034, 2597.846
1814.963, 2595.010
1816.891, 2600.588
1818.820, 2621.054
1820.748, 2629.872
1822.677, 2612.440
1824.605, 2598.274
1826.534, 2598.641
1828.462, 2607.594
1830.391, 2623.445
1832.319, 2643.101
1834.248, 2651.381
1836.176, 2645.413
1838.104, 2648.675
1840.033, 2671.895
1841.961, 2690.139
1843.890, 2686.852
1845.818, 2681.202
1847.747, 2693.101
1849.675, 2712.097
1851.604, 2713.710
1853.532, 2697.475
1855.461, 2688.997
1857.389, 2693.005
1859.318, 2700.171
1861.246, 2711.242
1863.175, 2721.562
1865.103, 2728.370
1867.031, 2732.508
1868.960, 2734.157
1870.888, 2733.155
1872.817, 2733.914
1874.745, 2736.217
1876.674, 2739.981
1878.602, 2751.318
1880.531, 2756.292
1882.459, 2744.478
1884.388, 2730.298
1886.316, 2728.111
1888.245, 2734.674
1890.173, 2738.879
1892.102, 2740.869
1894.030, 2740.299
1895.958, 2731.085
1897.887, 2729.605
1899.815, 2740.528
1901.744, 2756.217
1903.672, 2778.353
1905.601, 2798.586
1907.529, 2801.583
1909.458, 2791.182
1911.386, 2797.913
1913.315, 2828.040
1915.243, 2837.663
1917.172, 2809.989
1919.100, 2785.249
1921.029, 2777.672
1922.957, 2779.354
1924.885, 2791.841
1926.814, 2806.527
1928.742, 2806.837
1930.671, 2794.439
1932.599, 2786.365
1934.528, 2780.695
1936.456, 2787.651
1938.385, 2823.970
1940.313, 2851.665
1942.242, 2854.561
1944.170, 2847.507
1946.099, 2840.599
1948.027, 2834.208
1949.956, 2827.375
1951.884, 2819.735
1953.813, 2822.358
1955.741, 2839.491
1957.669, 2858.348
1959.598, 2885.727
1961.526, 2901.999
1963.455, 2890.938
1965.383, 2873.748
1967.312, 2867.858
1969.240, 2868.231
1971.169, 2862.893
1973.097, 2853.151
1975.026, 2850.777
1976.954, 2859.884
1978.883, 2865.229
1980.811, 2861.855
1982.740, 2859.550
1984.668, 2863.970
1986.596, 2868.659
1988.525, 2859.303
1990.453, 2849.853
1992.382, 2873.842
1994.310, 2928.900
1996.239, 2958.455
1998.167, 2954.310
2000.096, 2945.188
2002.024, 2927.520
2003.953, 2913.095
2005.881, 2905.879
2007.810, 2902.267
2009.738, 2895.952
2011.667, 2894.552
2013.595, 2916.248
2015.523, 2954.859
2017.452, 2962.482
2019.380, 2934.068
2021.309, 2926.375
2023.237, 2954.517
2025.166, 2974.905
2027.094, 2971.541
2029.023, 2966.176
2030.951, 2966.662
2032.880, 2973.396
2034.808, 2989.427
2036.737, 3010.650
2038.665, 3029.337
2040.594, 3044.918
2042.522, 3051.581
2044.450, 3044.054
2046.379, 3038.437
2048.307, 3038.496
2050.236, 3036.776
2052.164, 3028.290
2054.093, 3022.718
2056.021, 3032.039
2057.950, 3043.320
2059.878, 3034.124
2061.807, 3012.545
2063.735, 3016.349
2065.664, 3045.514
2067.592, 3064.478
2069.521, 3068.712
2071.449, 3069.879
2073.377, 3066.858
2075.306, 3067.975
2077.234, 3082.239
2079.163, 3095.094
2081.091, 3091.516
2083.020, 3083.114
2084.948, 3088.100
2086.877, 3102.694
2088.805, 3110.946
2090.734, 3113.469
2092.662, 3107.297
2094.591, 3083.429
2096.519, 3074.156
2098.448, 3094.243
2100.376, 3112.725
2102.304, 3117.608
2104.233, 3120.967
2106.161, 3126.218
2108.090, 3135.425
2110.018, 3154.474
2111.947, 3178.050
2113.875, 3192.880
2115.804, 3198.605
2117.732, 3197.722
2119.661, 3184.580
2121.589, 3184.126
2123.518, 3210.902
2125.446, 3233.563
2127.375, 3248.079
2129.303, 3253.888
2131.231, 3241.921
2133.160, 3228.744
2135.088, 3233.509
2137.017, 3247.170
2138.945, 3249.434
2140.874, 3242.786
2142.802, 3241.521
2144.731, 3246.936
2146.659, 3255.026
2148.588, 3267.791
2150.516, 3276.891
2152.445, 3282.953
2154.373, 3280.562
2156.302, 3258.845
2158.230, 3236.705
2160.158, 3227.790
2162.087, 3223.814
2164.015, 3213.228
2165.944, 3200.584
2167.872, 3202.304
2169.801, 3218.170
2171.729, 3217.313
2173.658, 3195.185
2175.586, 3197.370
2177.515, 3238.768
2179.443, 3271.458
2181.372, 3280.221
2183.300, 3278.526
2185.229, 3264.487
2187.157, 3248.847
2189.085, 3237.788
2191.014, 3231.319
2192.942, 3233.538
2194.871, 3240.115
2196.799, 3233.323
2198.728, 3214.262
2200.656, 3225.448
2202.585, 3271.531
2204.513, 3292.813
2206.442, 3277.862
2208.370, 3258.521
2210.299, 3231.624
2212.227, 3222.508
2214.156, 3263.361
2216.084, 3296.378
2218.012, 3281.609
2219.941, 3254.390
2221.869, 3243.987
2223.798, 3245.516
2225.726, 3254.242
2227.655, 3267.540
2229.583, 3272.277
2231.512, 3268.438
2233.440, 3262.041
2235.369, 3251.930
2237.297, 3251.570
2239.226, 3267.638
2241.154, 3278.078
2243.083, 3267.552
2245.011, 3264.235
2246.939, 3284.460
2248.868, 3305.484
2250.796, 3315.994
2252.725, 3318.924
2254.653, 3313.916
2256.582, 3305.602
2258.510, 3303.316
2260.439, 3305.010
2262.367, 3302.369
2264.296, 3295.799
2266.224, 3283.399
2268.153, 3262.207
2270.081, 3262.223
2272.010, 3298.727
2273.938, 3326.789
2275.866, 3335.327
2277.795, 3340.495
2279.723, 3347.992
2281.652, 3350.129
2283.580, 3338.018
2285.509, 3326.318
2287.437, 3332.660
2289.366, 3339.954
2291.294, 3320.233
2293.223, 3291.470
2295.151, 3290.497
2297.080, 3312.094
2299.008, 3329.027
2300.937, 3339.948
2302.865, 3355.131
2304.793, 3380.511
2306.722, 3389.898
2308.650, 3375.114
2310.579, 3365.616
2312.507, 3366.213
2314.436, 3373.739
2316.364, 3392.121
2318.293, 3409.905
2320.221, 3408.914
2322.150, 3365.835
2324.078, 3409.718
2326.007, 3435.475
2327.935, 3444.078
2329.864, 3384.155
2331.792, 3412.719
2333.720, 3405.821
2335.649, 3397.470
2337.577, 3441.536
2339.506, 3430.548
2341.434, 3403.304
2343.363, 3397.469
2345.291, 3422.461
2347.220, 3442.034
2349.148, 3454.822
2351.077, 3458.016
2353.005, 3443.371
2354.934, 3431.444
2356.862, 3426.928
2358.791, 3425.172
2360.719, 3425.758
2362.647, 3426.030
2364.576, 3421.996
2366.504, 3419.065
2368.433, 3424.119
2370.361, 3432.273
2372.290, 3437.006
2374.218, 3439.826
2376.147, 3442.542
2378.075, 3446.149
2380.004, 3458.006
2381.932, 3476.825
2383.861, 3482.787
2385.789, 3474.513
2387.718, 3474.572
2389.646, 3487.486
2391.574, 3494.995
2393.503, 3488.718
2395.431, 3487.893
2397.360, 3497.723
2399.288, 3508.502
2401.217, 3526.483
2403.145, 3532.465
2405.074, 3509.459
2407.002, 3489.273
2408.931, 3493.104
2410.859, 3502.372
2412.788, 3501.629
2414.716, 3500.815
2416.645, 3512.696
2418.573, 3529.286
2420.501, 3539.936
2422.430, 3544.670
2424.358, 3538.932
2426.287, 3528.174
2428.215, 3539.296
2430.144, 3567.284
2432.072, 3568.616
2434.001, 3539.062
2435.929, 3531.365
2437.858, 3558.043
2439.786, 3567.252
2441.715, 3549.823
2443.643, 3541.727
2445.572, 3547.990
2447.500, 3556.191
2449.428, 3564.812
2451.357, 3573.538
2453.285, 3587.910
2455.214, 3594.960
2457.142, 3584.408
2459.071, 3574.174
2460.999, 3572.049
2462.928, 3572.753
2464.856, 3575.273
2466.785, 3575.935
2468.713, 3564.823
2470.642, 3557.018
2472.570, 3574.322
2474.499, 3600.038
2476.427, 3613.412
2478.355, 3616.035
2480.284, 3605.846
2482.212, 3588.942
2484.141, 3586.738
2486.069, 3595.867
2487.998, 3598.667
2489.926, 3596.042
2491.855, 3600.823
2493.783, 3613.348
2495.712, 3626.590
2497.640, 3643.836
2499.569, 3643.676
2501.497, 3620.067
2503.426, 3607.283
2505.354, 3611.299
2507.282, 3612.740
2509.211, 3607.463
2511.139, 3605.685
2513.068, 3614.594
2514.996, 3619.995
2516.925, 3611.419
2518.853, 3610.732
2520.782, 3625.058
2522.710, 3642.984
2524.639, 3662.122
2526.567, 3679.752
2528.496, 3699.689
2530.424, 3710.549
2532.353, 3702.267
2534.281, 3687.451
2536.209, 3670.213
2538.138, 3657.406
2540.066, 3657.985
2541.995, 3663.507
2543.923, 3666.828
2545.852, 3668.694
2547.780, 3666.909
2549.709, 3666.431
2551.637, 3679.836
2553.566, 3697.780
2555.494, 3696.448
2557.423, 3684.564
2559.351, 3686.728
2561.280, 3700.422
2563.208, 3725.599
2565.136, 3755.907
2567.065, 3754.601
2568.993, 3725.696
2570.922, 3723.633
2572.850, 3750.358
2574.779, 3753.422
2576.707, 3733.622
2578.636, 3721.374
2580.564, 3718.079
2582.493, 3730.293
2584.421, 3766.402
2586.350, 3778.797
2588.278, 3756.196
2590.207, 3744.064
2592.135, 3745.611
2594.063, 3749.014
2595.992, 3753.359
2597.920, 3757.377
2599.849, 3759.865
2601.777, 3762.764
2603.706, 3767.357
2605.634, 3767.683
2607.563, 3756.123
2609.491, 3758.599
2611.420, 3790.882
2613.348, 3809.966
2615.277, 3795.062
2617.205, 3784.521
2619.134, 3796.255
2621.062, 3804.601
2622.990, 3793.103
2624.919, 3790.677
2626.847, 3814.049
2628.776, 3829.708
2630.704, 3811.815
2632.633, 3800.218
2634.561, 3817.834
2636.490, 3840.317
2638.418, 3858.705
2640.347, 3875.115
2642.275, 3890.484
2644.204, 3903.354
2646.132, 3916.730
2648.061, 3920.464
2649.989, 3896.099
2651.917, 3874.893
2653.846, 3885.045
2655.774, 3900.111
2657.703, 3900.420
2659.631, 3900.034
2661.560, 3910.045
2663.488, 3922.527
2665.417, 3928.912
2667.345, 3936.405
2669.274, 3954.332
2671.202, 3972.954
2673.131, 3989.336
2675.059, 3995.123
2676.988, 3968.542
2678.916, 3944.066
2680.844, 3966.640
2682.773, 3999.562
2684.701, 3998.497
2686.630, 3989.037
2688.558, 4002.193
2690.487, 4021.101
2692.415, 4030.490
2694.344, 4032.559
2696.272, 4027.044
2698.201, 4018.048
2700.129, 4005.636
2702.058, 3997.320
2703.986, 4009.021
2705.915, 4024.806
2707.843, 4022.984
2709.771, 4016.927
2711.700, 4025.675
2713.628, 4039.360
2715.557, 4041.576
2717.485, 4042.687
2719.414, 4065.153
2721.342, 4086.986
2723.271, 4076.520
2725.199, 4054.518
2727.128, 4040.551
2729.056, 4039.941
2730.985, 4076.249
2732.913, 4116.147
2734.842, 4107.226
2736.770, 4082.872
2738.698, 4082.740
2740.627, 4088.105
2742.555, 4070.975
2744.484, 4048.379
2746.412, 4043.981
2748.341, 4044.829
2750.269, 4036.075
2752.198, 4025.732
2754.126, 4025.332
2756.055, 4026.127
2757.983, 4020.094
2759.912, 4008.203
2761.840, 3984.447
2763.769, 3962.906
2765.697, 3956.704
2767.625, 3958.719
2769.554, 3966.616
2771.482, 3974.074
2773.411, 3969.289
2775.339, 3968.249
2777.268, 3988.670
2779.196, 4011.827
2781.125, 4024.145
2783.053, 4032.310
2784.982, 4049.458
2786.910, 4055.410
2788.839, 4028.502
2790.767, 3996.403
2792.696, 3959.275
2794.624, 3945.406
2796.552, 3993.550
2798.481, 4038.967
2800.409, 4034.937
2802.338, 4028.694
2804.266, 4042.117
2806.195, 4054.492
2808.123, 4061.217
2810.052, 4056.778
2811.980, 4028.343
2813.909, 4009.188
2815.837, 4014.185
2817.766, 4023.942
2819.694, 4035.100
2821.623, 4044.267
2823.551, 4044.875
2825.479, 4051.889
2827.408, 4077.972
2829.336, 4085.054
2831.265, 4055.787
2833.193, 4040.178
2835.122, 4057.624
2837.050, 4071.641
2838.979, 4074.785
2840.907, 4079.084
2842.836, 4086.452
2844.764, 4089.525
2846.693, 4087.309
2848.621, 4085.971
2850.550, 4083.017
2852.478, 4097.713
2854.406, 4132.908
2856.335, 4157.085
2858.263, 4167.355
2860.192, 4156.778
2862.120, 4122.415
2864.049, 4095.170
2865.977, 4075.148
2867.906, 4074.986
2869.834, 4091.770
2871.763, 4104.328
2873.691, 4112.946
2875.620, 4116.094
2877.548, 4116.250
2879.477, 4124.181
2881.405, 4135.251
2883.333, 4133.261
2885.262, 4128.634
2887.190, 4147.990
2889.119, 4173.184
2891.047, 4170.210
2892.976, 4158.107
2894.904, 4161.542
2896.833, 4170.365
2898.761, 4180.203
2900.690, 4184.564
2902.618, 4172.322
2904.547, 4159.739
2906.475, 4160.315
2908.404, 4160.428
2910.332, 4148.649
2912.260, 4139.281
2914.189, 4137.579
2916.117, 4143.141
2918.046, 4158.729
2919.974, 4175.100
2921.903, 4188.310
2923.831, 4204.417
2925.760, 4231.736
2927.688, 4244.933
2929.617, 4234.881
2931.545, 4239.177
2933.474, 4267.533
2935.402, 4278.556
2937.331, 4261.920
2939.259, 4256.364
2941.188, 4263.240
2943.116, 4249.708
2945.044, 4218.674
2946.973, 4213.298
2948.901, 4230.674
2950.830, 4246.451
2952.758, 4258.879
2954.687, 4255.212
2956.615, 4245.014
2958.544, 4246.541
2960.472, 4257.955
2962.401, 4282.989
2964.329, 4308.208
2966.258, 4317.408
2968.186, 4316.130
2970.115, 4305.720
2972.043, 4292.346
2973.971, 4278.586
2975.900, 4269.308
2977.828, 4270.953
2979.757, 4272.314
2981.685, 4263.747
2983.614, 4263.376
2985.542, 4281.982
2987.471, 4294.644
2989.399, 4294.649
2991.328, 4297.881
2993.256, 4307.338
2995.185, 4317.663
2997.113, 4330.880
2999.042, 4327.886
3000.970, 4310.741
3002.898, 4315.188
3004.827, 4340.806
3006.755, 4369.788
3008.684, 4397.727
3010.612, 4400.367
3012.541, 4388.564
3014.469, 4378.983
3016.398, 4376.736
3018.326, 4402.192
3020.255, 4426.042
3022.183, 4404.732
3024.112, 4384.972
3026.040, 4406.730
3027.969, 4430.309
3029.897, 4433.896
3031.825, 4433.727
3033.754, 4435.481
3035.682, 4432.563
3037.611, 4419.911
3039.539, 4411.110
3041.468, 4406.762
3043.396, 4412.301
3045.325, 4428.250
3047.253, 4442.013
3049.182, 4451.656
3051.110, 4466.899
3053.039, 4485.789
3054.967, 4494.223
3056.896, 4494.624
3058.824, 4490.023
3060.753, 4484.944
3062.681, 4484.025
3064.610, 4489.710
3066.538, 4513.885
3068.467, 4531.357
3070.395, 4512.596
3072.323, 4495.990
3074.252, 4493.229
3076.180, 4519.136
3078.109, 4602.419
3080.037, 4646.375
3081.966, 4585.601
3083.894, 4569.771
3085.823, 4612.403
3087.751, 4646.956
3089.680, 4668.479
3091.608, 4669.048
3093.537, 4653.275
3095.465, 4667.606
3097.394, 4695.604
3099.322, 4673.832
3101.250, 4641.692
3103.179, 4660.489
3105.107, 4704.589
3107.036, 4767.112
3108.964, 4813.237
3110.893, 4806.285
3112.821, 4801.089
3114.750, 4832.566
3116.678, 4852.121
3118.607, 4847.467
3120.535, 4839.846
3122.464, 4825.329
3124.392, 4839.668
3126.321, 4884.878
3128.249, 4928.981
3130.177, 4967.828
3132.106, 4985.253
3134.034, 4985.589
3135.963, 4973.449
3137.891, 4958.774
3139.820, 4953.273
3141.748, 4957.884
3143.677, 4977.688
3145.605, 5000.186
3147.534, 5014.276
3149.462, 5032.415
3151.391, 5061.065
3153.319, 5085.386
3155.248, 5095.445
3157.176, 5123.997
3159.104, 5174.438
3161.033, 5206.541
3162.961, 5219.424
3164.890, 5230.354
3166.818, 5244.106
3168.747, 5287.315
3170.675, 5338.256
3172.604, 5360.471
3174.532, 5376.144
3176.461, 5408.282
3178.389, 5441.768
3180.318, 5468.720
3182.246, 5495.376
3184.175, 5521.250
3186.103, 5554.442
3188.031, 5597.515
3189.960, 5632.128
3191.888, 5654.549
3193.817, 5693.494
3195.745, 5744.310
3197.674, 5767.045
3199.602, 5773.163
3201.531, 5780.814
3203.459, 5796.482
3205.388, 5837.025
3207.316, 5877.308
3209.245, 5909.980
3211.173, 5922.181
3213.102, 5887.907
3215.030, 5875.066
3216.958, 5896.135
3218.887, 5925.347
3220.815, 5962.810
3222.744, 5975.854
3224.672, 5969.914
3226.601, 6005.586
3228.529, 6058.559
3230.458, 6071.402
3232.386, 6074.513
3234.315, 6102.836
3236.243, 6141.504
3238.172, 6195.789
3240.100, 6230.606
3242.029, 6206.995
3243.957, 6220.731
3245.885, 6292.028
3247.814, 6316.604
3249.742, 6282.711
3251.671, 6272.026
3253.599, 6281.363
3255.528, 6297.722
3257.456, 6318.740
3259.385, 6341.458
3261.313, 6365.822
3263.242, 6397.995
3265.170, 6420.971
3267.099, 6411.847
3269.027, 6421.694
3270.956, 6465.639
3272.884, 6508.218
3274.813, 6546.276
3276.741, 6558.003
3278.669, 6550.753
3280.598, 6575.232
3282.526, 6618.375
3284.455, 6663.733
3286.383, 6701.271
3288.312, 6713.487
3290.240, 6724.775
3292.169, 6742.203
3294.097, 6769.370
3296.026, 6823.208
3297.954, 6843.783
3299.883, 6828.854
3301.811, 6837.492
3303.740, 6870.702
3305.668, 6929.114
3307.596, 6991.780
3309.525, 7014.367
3311.453, 7024.392
3313.382, 7030.596
3315.310, 7058.102
3317.239, 7129.032
3319.167, 7183.341
3321.096, 7197.160
3323.024, 7240.964
3324.953, 7318.508
3326.881, 7360.776
3328.810, 7383.985
3330.738, 7454.085
3332.667, 7527.171
3334.595, 7520.810
3336.523, 7513.846
3338.452, 7548.630
3340.380, 7611.521
3342.309, 7713.168
3344.237, 7791.794
3346.166, 7840.323
3348.094, 7871.169
3350.023, 7892.735
3351.951, 7961.381
3353.880, 8051.658
3355.808, 8119.807
3357.737, 8182.610
3359.665, 8261.083
3361.594, 8325.152
3363.522, 8348.159
3365.450, 8405.648
3367.379, 8526.894
3369.307, 8591.816
3371.236, 8609.031
3373.164, 8665.296
3375.093, 8741.635
3377.021, 8790.231
3378.950, 8835.431
3380.878, 8891.859
3382.807, 8966.600
3384.735, 9088.267
3386.664, 9163.293
3388.592, 9170.202
3390.521, 9216.102
3392.449, 9301.842
3394.377, 9344.929
3396.306, 9379.301
3398.234, 9483.964
3400.163, 9597.396
3402.091, 9660.888
3404.020, 9712.947
3405.948, 9760.625
3407.877, 9820.196
3409.805, 9898.414
3411.734, 9941.809
3413.662, 9959.005
3415.591, 10017.46
3417.519, 10090.47
3419.448, 10121.90
3421.376, 10156.22
3423.304, 10241.01
3425.233, 10310.05
3427.161, 10334.12
3429.090, 10388.41
3431.018, 10482.72
3432.947, 10568.44
3434.875, 10639.75
3436.804, 10668.81
3438.732, 10687.16
3440.661, 10736.69
3442.589, 10785.47
3444.518, 10820.31
3446.446, 10847.21
3448.375, 10860.53
3450.303, 10911.87
3452.231, 10997.50
3454.160, 11062.10
3456.088, 11109.97
3458.017, 11140.78
3459.945, 11169.46
3461.874, 11195.58
3463.802, 11242.25
3465.731, 11348.30
3467.659, 11395.66
3469.588, 11381.98
3471.516, 11386.37
3473.445, 11410.06
3475.373, 11459.04
3477.302, 11508.29
3479.230, 11529.64
3481.158, 11548.67
3483.087, 11565.55
3485.015, 11620.70
3486.944, 11723.60
3488.872, 11787.06
3490.801, 11814.38
3492.729, 11825.80
3494.658, 11839.09
3496.586, 11881.81
3498.515, 11927.13
3500.443, 11962.33
3502.372, 12002.86
3504.300, 12056.40
3506.229, 12115.64
3508.157, 12179.60
3510.085, 12222.21
3512.014, 12273.46
3513.942, 12390.35
3515.871, 12507.83
3517.799, 12590.54
3519.728, 12661.42
3521.656, 12718.53
3523.585, 12822.37
3525.513, 12954.44
3527.442, 12992.57
3529.370, 13005.88
3531.299, 13096.90
3533.227, 13205.15
3535.156, 13311.22
3537.084, 13395.41
3539.012, 13454.02
3540.941, 13548.24
3542.869, 13658.31
3544.798, 13649.53
3546.726, 13612.74
3548.655, 13662.72
3550.583, 13718.08
3552.512, 13746.32
3554.440, 13748.79
3556.369, 13724.99
3558.297, 13749.11
3560.226, 13792.47
3562.154, 13718.25
3564.083, 13613.13
3566.011, 13567.88
3567.939, 13504.36
3569.868, 13394.23
3571.796, 13276.08
3573.725, 13155.30
3575.653, 13041.44
3577.582, 12931.50
3579.510, 12826.38
3581.439, 12709.97
3583.367, 12552.02
3585.296, 12424.37
3587.224, 12363.61
3589.153, 12257.43
3591.081, 12113.16
3593.010, 12001.04
3594.938, 11911.37
3596.866, 11835.97
3598.795, 11768.86
3600.723, 11710.11
3602.652, 11639.29
3604.580, 11549.54
3606.509, 11527.47
3608.437, 11534.54
3610.366, 11436.43
3612.294, 11341.14
3614.223, 11340.42
3616.151, 11366.86
3618.080, 11422.33
3620.008, 11420.07
3621.937, 11364.85
3623.865, 11296.46
3625.793, 11229.84
3627.722, 11200.86
3629.650, 11156.70
3631.579, 11065.26
3633.507, 10967.52
3635.436, 10866.37
3637.364, 10717.40
3639.293, 10529.13
3641.221, 10304.26
3643.150, 10071.68
3645.078, 9861.914
3647.007, 9622.185
3648.935, 9338.479
3650.864, 9078.047
3652.792, 8836.100
3654.720, 8576.613
3656.649, 8311.951
3658.577, 8048.364
3660.506, 7800.532
3662.434, 7573.721
3664.363, 7370.126
3666.291, 7182.594
3668.220, 6922.163
3670.148, 6675.261
3672.077, 6587.605
3674.005, 6513.667
3675.934, 6389.420
3677.862, 6248.443
3679.791, 6095.566
3681.719, 5961.449
3683.647, 5851.542
3685.576, 5783.481
3687.504, 5730.361
3689.433, 5690.383
3691.361, 5629.370
3693.290, 5544.627
3695.218, 5485.955
3697.147, 5448.298
3699.075, 5435.775
3701.004, 5410.632
3702.932, 5326.557
3704.861, 5277.851
3706.789, 5277.855
3708.718, 5257.013
3710.646, 5224.319
3712.574, 5209.083
3714.503, 5197.356
3716.431, 5179.528
3718.360, 5157.324
3720.288, 5129.638
3722.217, 5122.843
3724.145, 5123.506
3726.074, 5076.354
3728.002, 5042.627
3729.931, 5097.536
3731.859, 5101.704
3733.788, 5034.413
3735.716, 5007.298
3737.645, 5009.554
3739.573, 5013.677
3741.501, 5005.170
3743.430, 4956.880
3745.358, 4938.149
3747.287, 4957.666
3749.215, 4938.178
3751.144, 4902.254
3753.072, 4916.372
3755.001, 4935.605
3756.929, 4936.460
3758.858, 4921.658
3760.786, 4893.504
3762.715, 4885.774
3764.643, 4884.447
3766.572, 4850.937
3768.500, 4822.799
3770.428, 4822.235
3772.357, 4826.555
3774.285, 4833.218
3776.214, 4846.313
3778.142, 4856.331
3780.071, 4838.334
3781.999, 4831.784
3783.928, 4878.971
3785.856, 4868.141
3787.785, 4811.562
3789.713, 4805.519
3791.642, 4821.101
3793.570, 4832.504
3795.499, 4831.718
3797.427, 4814.438
3799.355, 4772.001
3801.284, 4726.774
3803.212, 4772.937
3805.141, 4826.338
3807.069, 4821.857
3808.998, 4803.193
3810.926, 4777.401
3812.855, 4770.993
3814.783, 4782.148
3816.712, 4819.373
3818.640, 4842.464
3820.569, 4822.331
3822.497, 4824.038
3824.426, 4851.552
3826.354, 4837.619
3828.282, 4809.325
3830.211, 4801.985
3832.139, 4791.333
3834.068, 4761.841
3835.996, 4796.739
3837.925, 4869.477
3839.853, 4839.046
3841.782, 4799.965
3843.710, 4848.454
3845.639, 4851.240
3847.567, 4778.450
3849.496, 4789.962
3851.424, 4829.136
3853.353, 4778.688
3855.281, 4752.580
3857.209, 4805.337
3859.138, 4824.367
3861.066, 4809.253
3862.995, 4815.719
3864.923, 4830.568
3866.852, 4847.220
3868.780, 4849.239
3870.709, 4836.199
3872.637, 4843.339
3874.566, 4856.896
3876.494, 4845.367
3878.423, 4831.353
3880.351, 4822.778
3882.280, 4819.747
3884.208, 4830.610
3886.136, 4891.696
3888.065, 4925.927
3889.993, 4835.327
3891.922, 4789.555
3893.850, 4840.575
3895.779, 4846.489
3897.707, 4819.164
3899.636, 4803.472
3901.564, 4810.514
3903.493, 4848.741
3905.421, 4873.436
3907.350, 4880.854
3909.278, 4880.683
3911.207, 4877.985
3913.135, 4871.732
3915.063, 4857.604
3916.992, 4847.204
3918.920, 4850.521
3920.849, 4851.646
3922.777, 4834.988
3924.706, 4819.983
3926.634, 4809.246
3928.563, 4812.951
3930.491, 4835.284
3932.420, 4880.146
3934.348, 4896.311
3936.277, 4857.628
3938.205, 4838.812
3940.134, 4835.938
3942.062, 4812.308
3943.990, 4798.001
3945.919, 4828.170
3947.847, 4845.434
3949.776, 4843.336
3951.704, 4831.457
3953.633, 4820.083
3955.561, 4830.243
3957.490, 4846.445
3959.418, 4872.080
3961.347, 4883.640
3963.275, 4877.632
3965.204, 4846.127
3967.132, 4825.901
3969.061, 4829.309
3970.989, 4837.361
3972.917, 4848.752
3974.846, 4862.258
3976.774, 4869.882
3978.703, 4868.510
3980.631, 4870.928
3982.560, 4871.979
3984.488, 4870.869
3986.417, 4874.242
3988.345, 4885.724
3990.274, 4892.255
3992.202, 4892.156
3994.131, 4868.380
3996.059, 4843.318
3997.988, 4845.924
3999.916, 4848.338
4001.844, 4843.632
4003.773, 4836.487
4005.701, 4835.874
4007.630, 4854.293
4009.558, 4857.536
4011.487, 4842.742
4013.415, 4837.657
4015.344, 4837.246
4017.272, 4844.003
4019.201, 4842.037
4021.129, 4835.325
4023.058, 4832.958
4024.986, 4824.921
4026.915, 4804.632
4028.843, 4800.202
4030.771, 4827.346
4032.700, 4827.292
4034.628, 4814.813
4036.557, 4851.813
4038.485, 4885.117
4040.414, 4865.272
4042.342, 4840.002
4044.271, 4826.336
4046.199, 4817.361
4048.128, 4805.308
4050.056, 4772.854
4051.985, 4767.285
4053.913, 4813.932
4055.842, 4829.217
4057.770, 4805.979
4059.698, 4777.913
4061.627, 4765.167
4063.555, 4802.032
4065.484, 4839.422
4067.412, 4824.906
4069.341, 4827.993
4071.269, 4843.555
4073.198, 4825.446
4075.126, 4800.710
4077.055, 4805.175
4078.983, 4810.122
4080.912, 4810.639
4082.840, 4801.500
4084.769, 4804.957
4086.697, 4835.392
4088.625, 4843.209
4090.554, 4841.760
4092.482, 4812.464
4094.411, 4776.601
4096.339, 4801.873
4098.268, 4828.810
4100.196, 4810.484
4102.125, 4782.572
4104.053, 4777.694
4105.982, 4822.060
4107.910, 4833.769
4109.839, 4798.833
4111.767, 4805.036
4113.696, 4807.986
4115.624, 4789.541
4117.553, 4795.776
4119.481, 4835.526
4121.410, 4819.896
4123.338, 4773.757
4125.267, 4777.307
4127.195, 4802.256
4129.124, 4798.266
4131.052, 4778.927
4132.980, 4771.393
4134.909, 4800.293
4136.837, 4819.554
4138.766, 4807.624
4140.694, 4808.544
4142.623, 4822.734
4144.551, 4795.946
4146.479, 4760.041
4148.408, 4753.245
4150.336, 4751.034
4152.265, 4754.547
4154.193, 4740.752
4156.122, 4729.115
4158.050, 4745.474
4159.979, 4750.436
4161.907, 4745.423
4163.836, 4756.027
4165.764, 4766.926
4167.693, 4766.927
4169.621, 4775.438
4171.550, 4791.256
4173.478, 4769.514
4175.407, 4752.745
4177.335, 4780.031
4179.264, 4764.045
4181.192, 4710.384
4183.121, 4723.309
4185.049, 4750.302
4186.978, 4752.987
4188.906, 4750.179
4190.834, 4746.513
4192.763, 4753.853
4194.691, 4761.356
4196.620, 4767.558
4198.548, 4748.662
4200.477, 4714.079
4202.405, 4719.705
4204.333, 4732.644
4206.262, 4720.157
4208.190, 4739.641
4210.119, 4778.214
4212.047, 4742.175
4213.976, 4718.058
4215.904, 4793.659
4217.833, 4797.759
4219.761, 4741.391
4221.690, 4689.145
4223.618, 4664.339
4225.547, 4678.462
4227.475, 4738.226
4229.404, 4808.048
4231.332, 4781.154
4233.261, 4737.955
4235.189, 4714.349
4237.118, 4714.473
4239.046, 4722.950
4240.975, 4694.810
4242.903, 4684.351
4244.832, 4711.342
4246.760, 4745.312
4248.688, 4767.692
4250.617, 4747.117
4252.545, 4717.645
4254.474, 4689.578
4256.402, 4696.836
4258.331, 4714.495
4260.259, 4700.983
4262.188, 4705.980
4264.116, 4734.053
4266.044, 4724.591
4267.973, 4704.304
4269.901, 4695.845
4271.830, 4710.253
4273.758, 4740.092
4275.687, 4727.819
4277.615, 4710.822
4279.544, 4721.953
4281.472, 4708.506
4283.401, 4682.313
4285.329, 4710.995
4287.258, 4730.947
4289.186, 4705.330
4291.115, 4692.683
4293.043, 4694.856
4294.972, 4716.152
4296.900, 4721.495
4298.829, 4695.540
4300.757, 4711.367
4302.686, 4737.528
4304.614, 4724.295
4306.542, 4709.672
4308.471, 4702.770
4310.399, 4726.888
4312.328, 4746.175
4314.256, 4721.482
4316.185, 4700.612
4318.113, 4686.813
4320.042, 4665.464
4321.970, 4652.451
4323.898, 4657.912
4325.827, 4677.600
4327.755, 4701.223
4329.684, 4702.436
4331.612, 4706.765
4333.541, 4728.716
4335.469, 4696.462
4337.398, 4658.542
4339.326, 4685.392
4341.255, 4697.783
4343.183, 4685.536
4345.112, 4698.279
4347.040, 4695.168
4348.969, 4638.342
4350.897, 4632.454
4352.826, 4658.561
4354.754, 4625.794
4356.683, 4605.189
4358.611, 4619.878
4360.540, 4647.441
4362.468, 4675.310
4364.396, 4697.394
4366.325, 4691.442
4368.253, 4660.850
4370.182, 4628.434
4372.110, 4616.603
4374.039, 4642.588
4375.967, 4664.958
4377.896, 4678.236
4379.824, 4681.019
4381.752, 4673.167
4383.681, 4654.490
4385.609, 4653.611
4387.538, 4655.393
4389.466, 4632.035
4391.395, 4631.339
4393.323, 4654.570
4395.252, 4688.152
4397.180, 4690.361
4399.109, 4620.522
4401.037, 4588.384
4402.966, 4593.659
4404.894, 4645.981
4406.823, 4689.803
4408.751, 4712.240
4410.680, 4696.908
4412.608, 4668.000
4414.537, 4639.321
4416.465, 4623.871
4418.394, 4618.844
4420.322, 4613.286
4422.250, 4616.034
4424.179, 4629.474
4426.107, 4670.000
4428.036, 4689.217
4429.964, 4613.835
4431.893, 4585.056
4433.821, 4600.939
4435.750, 4602.350
4437.678, 4597.515
4439.606, 4586.723
4441.535, 4598.646
4443.463, 4614.070
4445.392, 4606.873
4447.320, 4597.019
4449.249, 4592.057
4451.177, 4635.453
4453.106, 4657.594
4455.034, 4627.051
4456.963, 4634.203
4458.891, 4645.977
4460.820, 4597.297
4462.748, 4595.330
4464.677, 4634.196
4466.605, 4610.359
4468.534, 4587.561
4470.462, 4601.392
4472.391, 4621.582
4474.319, 4635.731
4476.248, 4619.792
4478.176, 4609.452
4480.104, 4608.278
4482.033, 4616.169
4483.961, 4618.918
4485.890, 4610.532
4487.818, 4624.179
4489.747, 4631.966
4491.675, 4588.931
4493.604, 4568.107
4495.532, 4571.948
4497.460, 4584.304
4499.389, 4585.298
4501.317, 4565.413
4503.246, 4562.986
4505.174, 4563.332
4507.103, 4543.511
4509.031, 4549.138
4510.960, 4573.706
4512.888, 4597.760
4514.817, 4602.233
4516.745, 4584.628
4518.674, 4566.525
4520.602, 4551.564
4522.531, 4539.581
4524.459, 4552.963
4526.388, 4572.223
4528.316, 4546.857
4530.245, 4546.670
4532.173, 4577.339
4534.102, 4562.967
4536.030, 4550.023
4537.958, 4564.186
4539.887, 4534.980
4541.815, 4502.228
4543.744, 4522.870
4545.672, 4522.712
4547.601, 4506.965
4549.529, 4525.604
4551.458, 4525.814
4553.386, 4488.723
4555.314, 4524.426
4557.243, 4561.912
4559.171, 4545.971
4561.100, 4528.204
4563.028, 4510.057
4564.957, 4483.728
4566.885, 4474.485
4568.814, 4480.809
4570.742, 4478.728
4572.671, 4472.337
4574.599, 4460.392
4576.528, 4495.828
4578.456, 4522.248
4580.385, 4474.916
4582.313, 4481.573
4584.242, 4508.682
4586.170, 4458.833
4588.099, 4446.546
4590.027, 4476.569
4591.956, 4489.132
4593.884, 4461.482
4595.813, 4372.477
4597.741, 4416.480
4599.669, 4471.126
4601.598, 4410.126
4603.526, 4420.392
4605.455, 4468.756
4607.383, 4480.144
4609.312, 4460.612
4611.240, 4428.731
4613.168, 4461.306
4615.097, 4475.196
4617.025, 4433.959
4618.954, 4449.186
4620.882, 4463.742
4622.811, 4433.144
4624.739, 4421.326
4626.668, 4425.255
4628.596, 4446.390
4630.525, 4437.842
4632.453, 4406.212
4634.382, 4374.470
4636.310, 4379.813
4638.239, 4427.308
4640.167, 4434.221
4642.096, 4425.985
4644.024, 4414.456
4645.953, 4401.076
4647.881, 4397.317
4649.810, 4426.723
4651.738, 4405.608
4653.667, 4374.341
4655.595, 4437.551
4657.523, 4443.493
4659.452, 4394.598
4661.380, 4386.855
4663.309, 4391.154
4665.237, 4396.728
4667.166, 4386.794
4669.094, 4374.188
4671.022, 4364.665
4672.951, 4368.736
4674.879, 4374.285
4676.808, 4371.492
4678.736, 4364.360
4680.665, 4348.501
4682.593, 4302.615
4684.522, 4298.784
4686.450, 4324.678
4688.379, 4306.795
4690.307, 4308.320
4692.236, 4337.785
4694.164, 4346.708
4696.093, 4346.674
4698.021, 4343.118
4699.950, 4349.876
4701.878, 4353.617
4703.807, 4347.691
4705.735, 4288.745
4707.664, 4247.427
4709.592, 4306.880
4711.521, 4337.398
4713.449, 4337.724
4715.377, 4319.717
4717.306, 4324.564
4719.234, 4340.471
4721.163, 4296.448
4723.091, 4303.796
4725.020, 4360.987
4726.948, 4343.938
4728.876, 4315.813
4730.805, 4301.567
4732.733, 4303.971
4734.662, 4289.030
4736.590, 4237.770
4738.519, 4257.920
4740.447, 4291.764
4742.376, 4289.983
4744.304, 4292.107
4746.233, 4302.339
4748.161, 4331.143
4750.090, 4322.097
4752.018, 4295.223
4753.947, 4293.081
4755.875, 4277.027
4757.804, 4258.769
4759.732, 4292.788
4761.661, 4308.038
4763.589, 4294.502
4765.518, 4258.048
4767.446, 4245.301
4769.375, 4259.246
4771.303, 4227.446
4773.231, 4208.298
4775.160, 4225.548
4777.088, 4249.875
4779.017, 4266.727
4780.945, 4269.238
4782.874, 4258.352
4784.802, 4252.630
4786.730, 4269.850
4788.659, 4267.090
4790.587, 4256.790
4792.516, 4250.473
4794.444, 4232.170
4796.373, 4220.711
4798.301, 4253.937
4800.230, 4248.252
4802.158, 4230.319
4804.087, 4252.759
4806.015, 4263.979
4807.944, 4257.021
4809.872, 4222.398
4811.801, 4201.858
4813.729, 4199.124
4815.658, 4213.333
4817.586, 4231.249
4819.515, 4241.528
4821.443, 4214.149
4823.372, 4179.861
4825.300, 4156.354
4827.229, 4207.869
4829.157, 4248.182
4831.085, 4253.638
4833.014, 4213.848
4834.942, 4188.655
4836.871, 4195.603
4838.799, 4194.750
4840.728, 4203.628
4842.656, 4223.754
4844.584, 4195.703
4846.513, 4179.987
4848.441, 4203.585
4850.370, 4173.300
4852.298, 4143.410
4854.227, 4140.042
4856.155, 4134.709
4858.084, 4134.647
4860.012, 4143.872
4861.941, 4167.484
4863.869, 4179.129
4865.798, 4161.384
4867.726, 4152.672
4869.655, 4145.259
4871.583, 4133.784
4873.512, 4126.250
4875.440, 4130.379
4877.369, 4158.839
4879.297, 4143.580
4881.226, 4136.385
4883.154, 4177.444
4885.083, 4187.282
4887.011, 4172.687
4888.939, 4137.333
4890.868, 4104.802
4892.796, 4086.446
4894.725, 4091.117
4896.653, 4117.796
4898.582, 4136.375
4900.510, 4113.717
4902.438, 4125.556
4904.367, 4144.800
4906.295, 4149.828
4908.224, 4128.168
4910.152, 4099.335
4912.081, 4077.829
4914.009, 4088.916
4915.938, 4109.191
4917.866, 4119.571
4919.795, 4124.932
4921.723, 4122.673
4923.652, 4110.421
4925.580, 4088.207
4927.509, 4080.745
4929.437, 4123.155
4931.366, 4111.940
4933.294, 4080.290
4935.223, 4049.629
4937.151, 4049.557
4939.080, 4055.945
4941.008, 4049.797
4942.937, 4084.261
4944.865, 4086.536
4946.793, 4018.576
4948.722, 4034.777
4950.650, 4063.208
4952.579, 4064.794
4954.507, 4090.596
4956.436, 4077.162
4958.364, 3994.682
4960.292, 4013.592
4962.221, 4040.646
4964.149, 4041.403
4966.078, 4042.059
4968.006, 4045.040
4969.935, 4049.938
4971.863, 4050.288
4973.792, 4048.415
4975.720, 4047.018
4977.649, 4056.385
4979.577, 4063.485
4981.506, 4062.351
4983.434, 4034.902
4985.363, 4016.929
4987.291, 4013.784
4989.220, 4026.952
4991.148, 4004.209
4993.077, 3966.167
4995.005, 3975.291
4996.934, 4004.095
4998.862, 4023.642
5000.791, 3978.218
5002.719, 3956.923
5004.647, 3964.299
5006.576, 3998.473
5008.504, 4013.290
5010.433, 4009.233
5012.361, 3980.583
5014.290, 3999.063
5016.218, 4011.080
5018.146, 3973.313
5020.075, 3971.639
5022.003, 3982.370
5023.932, 3987.090
5025.860, 3957.387
5027.789, 3938.845
5029.717, 3951.523
5031.646, 3929.896
5033.574, 3919.849
5035.503, 3931.021
5037.431, 3930.552
5039.360, 3949.330
5041.288, 3978.305
5043.217, 3945.958
5045.145, 3930.541
5047.074, 3938.897
5049.002, 3952.995
5050.931, 3973.426
5052.859, 3980.505
5054.788, 3921.719
5056.716, 3957.007
5058.645, 4000.871
5060.573, 3954.900
5062.501, 3909.780
5064.430, 3880.072
5066.358, 3872.174
5068.287, 3933.483
5070.215, 3964.984
5072.144, 3918.552
5074.072, 3916.049
5076.000, 3925.693
5077.929, 3928.730
5079.857, 3868.402
5081.786, 3863.482
5083.714, 3905.896
5085.643, 3910.161
5087.571, 3896.104
5089.500, 3888.179
5091.428, 3926.706
5093.357, 3934.619
5095.285, 3917.189
5097.214, 3884.155
5099.142, 3894.897
5101.071, 3914.121
5102.999, 3917.479
5104.928, 3899.520
5106.856, 3893.620
5108.785, 3903.611
5110.713, 3858.843
5112.642, 3857.152
5114.570, 3889.268
5116.499, 3844.059
5118.427, 3840.051
5120.355, 3868.522
5122.284, 3885.617
5124.212, 3916.394
5126.141, 3936.090
5128.069, 3919.929
5129.998, 3861.169
5131.926, 3834.643
5133.854, 3882.906
5135.783, 3836.920
5137.711, 3824.634
5139.640, 3868.682
5141.568, 3887.132
5143.497, 3861.946
5145.425, 3829.498
5147.354, 3878.664
5149.282, 3887.317
5151.211, 3871.666
5153.139, 3856.258
5155.068, 3869.804
5156.996, 3875.136
5158.925, 3853.977
5160.853, 3858.028
5162.782, 3859.365
5164.710, 3847.863
5166.639, 3803.524
5168.567, 3838.891
5170.496, 3900.609
5172.424, 3844.077
5174.353, 3823.377
5176.281, 3819.820
5178.209, 3800.363
5180.138, 3791.920
5182.066, 3795.438
5183.995, 3808.531
5185.923, 3789.231
5187.852, 3761.605
5189.780, 3747.274
5191.708, 3802.342
5193.637, 3796.579
5195.565, 3760.973
5197.494, 3759.181
5199.422, 3768.680
5201.351, 3776.933
5203.279, 3776.513
5205.208, 3819.384
5207.136, 3819.185
5209.065, 3775.663
5210.993, 3797.013
5212.922, 3780.256
5214.850, 3750.206
5216.779, 3778.165
5218.707, 3761.095
5220.636, 3746.426
5222.564, 3768.969
5224.493, 3720.267
5226.421, 3719.149
5228.350, 3772.320
5230.278, 3753.314
5232.207, 3727.916
5234.135, 3719.693
5236.063, 3758.326
5237.992, 3748.623
5239.920, 3736.965
5241.849, 3755.892
5243.777, 3803.024
5245.706, 3791.389
5247.634, 3730.505
5249.563, 3726.019
5251.491, 3755.898
5253.419, 3778.932
5255.348, 3735.438
5257.276, 3738.762
5259.205, 3756.052
5261.133, 3766.435
5263.062, 3769.771
5264.990, 3751.687
5266.919, 3723.031
5268.847, 3712.565
5270.776, 3727.202
5272.704, 3735.885
5274.633, 3707.495
5276.561, 3709.270
5278.490, 3692.946
5280.418, 3659.049
5282.347, 3700.108
5284.275, 3734.145
5286.204, 3741.857
5288.132, 3710.947
5290.061, 3688.671
5291.989, 3678.296
5293.917, 3679.686
5295.846, 3688.790
5297.774, 3691.858
5299.703, 3690.916
5301.631, 3697.865
5303.560, 3696.104
5305.488, 3690.983
5307.417, 3687.680
5309.345, 3649.376
5311.273, 3641.995
5313.202, 3670.117
5315.130, 3686.778
5317.059, 3672.084
5318.987, 3657.927
5320.916, 3675.548
5322.844, 3686.099
5324.773, 3715.247
5326.701, 3748.825
5328.630, 3663.154
5330.558, 3630.888
5332.487, 3643.584
5334.415, 3663.672
5336.344, 3636.590
5338.272, 3622.003
5340.201, 3634.011
5342.129, 3609.361
5344.058, 3614.127
5345.986, 3633.616
5347.915, 3639.628
5349.843, 3624.954
5351.771, 3600.981
5353.700, 3575.883
5355.628, 3557.474
5357.557, 3579.459
5359.485, 3606.588
5361.414, 3588.462
5363.342, 3604.845
5365.271, 3616.213
5367.199, 3606.012
5369.127, 3594.753
5371.056, 3589.958
5372.984, 3588.584
5374.913, 3584.260
5376.841, 3595.569
5378.770, 3599.815
5380.698, 3590.226
5382.627, 3566.740
5384.555, 3602.653
5386.484, 3636.817
5388.412, 3597.321
5390.341, 3569.394
5392.269, 3550.014
5394.198, 3537.656
5396.126, 3536.025
5398.055, 3535.196
5399.983, 3541.956
5401.912, 3559.481
5403.840, 3543.175
5405.769, 3527.793
5407.697, 3526.860
5409.625, 3550.115
5411.554, 3566.228
5413.482, 3574.992
5415.411, 3578.592
5417.339, 3601.737
5419.268, 3563.189
5421.196, 3516.627
5423.125, 3559.125
5425.053, 3535.316
5426.981, 3507.177
5428.910, 3503.919
5430.838, 3511.585
5432.767, 3527.588
5434.695, 3540.592
5436.624, 3542.840
5438.552, 3507.695
5440.481, 3491.434
5442.409, 3500.145
5444.338, 3513.925
5446.266, 3493.177
5448.195, 3478.233
5450.123, 3483.881
5452.052, 3441.020
5453.980, 3457.808
5455.909, 3497.910
5457.837, 3500.538
5459.766, 3508.697
5461.694, 3510.202
5463.623, 3506.105
5465.551, 3516.194
5467.479, 3469.696
5469.408, 3448.882
5471.336, 3490.382
5473.265, 3472.936
5475.193, 3455.435
5477.122, 3437.193
5479.050, 3402.263
5480.979, 3456.469
5482.907, 3485.540
5484.835, 3466.080
5486.764, 3439.112
5488.692, 3420.937
5490.621, 3418.514
5492.549, 3428.877
5494.478, 3415.665
5496.406, 3392.753
5498.335, 3383.855
5500.263, 3405.181
5502.192, 3397.939
5504.120, 3384.979
5506.049, 3377.692
5507.977, 3382.322
5509.906, 3400.508
5511.834, 3417.087
5513.763, 3425.390
5515.691, 3428.750
5517.620, 3412.196
5519.548, 3392.400
5521.477, 3381.655
5523.405, 3360.779
5525.333, 3393.868
5527.262, 3427.117
5529.190, 3393.146
5531.119, 3386.708
5533.047, 3403.549
5534.976, 3410.467
5536.904, 3329.233
5538.833, 3363.444
5540.761, 3368.229
5542.689, 3319.821
5544.618, 3349.611
5546.546, 3346.580
5548.475, 3320.887
5550.403, 3297.906
5552.332, 3342.971
5554.260, 3326.365
5556.189, 3289.656
5558.117, 3285.982
5560.046, 3333.457
5561.974, 3355.745
5563.903, 3343.663
5565.831, 3304.144
5567.760, 3276.133
5569.688, 3284.726
5571.617, 3299.254
5573.545, 3252.460
5575.474, 3263.886
5577.402, 3278.925
5579.331, 3275.144
5581.259, 3262.689
5583.188, 3264.586
5585.116, 3248.179
5587.044, 3216.726
5588.973, 3258.011
5590.901, 3267.199
5592.830, 3268.461
5594.758, 3278.859
5596.687, 3263.604
5598.615, 3244.817
5600.543, 3246.469
5602.472, 3277.826
5604.400, 3274.708
5606.329, 3273.167
5608.257, 3274.965
5610.186, 3275.683
5612.114, 3286.107
5614.043, 3310.013
5615.971, 3318.808
5617.900, 3283.368
5619.828, 3305.578
5621.757, 3316.202
5623.685, 3309.713
5625.614, 3307.242
5627.542, 3281.139
5629.471, 3271.749
5631.399, 3268.943
5633.328, 3238.514
5635.256, 3287.295
5637.185, 3295.628
5639.113, 3270.664
5641.042, 3285.872
5642.970, 3268.158
5644.898, 3260.941
5646.827, 3261.756
5648.755, 3233.825
5650.684, 3249.953
5652.612, 3246.733
5654.541, 3226.260
5656.469, 3249.402
5658.397, 3232.231
5660.326, 3246.751
5662.254, 3278.655
5664.183, 3242.269
5666.111, 3235.064
5668.040, 3238.297
5669.968, 3233.203
5671.897, 3202.332
5673.825, 3243.871
5675.754, 3241.023
5677.682, 3190.997
5679.611, 3165.699
5681.539, 3202.747
5683.468, 3253.490
5685.396, 3273.031
5687.325, 3210.359
5689.253, 3179.313
5691.182, 3200.087
5693.110, 3224.545
5695.039, 3145.665
5696.967, 3213.574
5698.896, 3230.500
5700.824, 3196.464
5702.752, 3197.776
5704.681, 3193.267
5706.609, 3173.967
5708.538, 3148.661
5710.466, 3132.928
5712.395, 3185.234
5714.323, 3197.836
5716.251, 3190.861
5718.180, 3201.474
5720.108, 3123.182
5722.037, 3099.999
5723.965, 3119.006
5725.894, 3141.601
5727.822, 3151.979
5729.751, 3141.236
5731.679, 3118.510
5733.608, 3099.316
5735.536, 3144.208
5737.465, 3128.700
5739.393, 3125.178
5741.322, 3161.558
5743.250, 3166.400
5745.179, 3095.327
5747.107, 3082.688
5749.036, 3137.379
5750.964, 3139.354
5752.893, 3106.481
5754.821, 3100.532
5756.750, 3104.642
5758.678, 3060.244
5760.606, 3053.511
5762.535, 3074.760
5764.463, 3102.489
5766.392, 3117.425
5768.320, 3087.788
5770.249, 3068.584
5772.177, 3075.012
5774.105, 3101.888
5776.034, 3082.599
5777.962, 3044.316
5779.891, 3035.247
5781.819, 3066.166
5783.748, 3091.008
5785.676, 3072.649
5787.605, 3054.968
5789.533, 3057.977
5791.462, 3080.784
5793.390, 3063.125
5795.319, 3033.679
5797.247, 3021.774
5799.176, 3044.757
5801.104, 3043.295
5803.033, 3033.316
5804.961, 3026.798
5806.890, 3026.885
5808.818, 3014.418
5810.747, 3007.353
5812.675, 3019.057
5814.604, 3042.389
5816.532, 3043.759
5818.460, 3027.170
5820.389, 3016.453
5822.317, 3011.616
5824.246, 2998.333
5826.174, 3008.643
5828.103, 3000.132
5830.031, 2993.777
5831.959, 3011.548
5833.888, 3028.420
5835.816, 3010.036
5837.745, 2975.295
5839.673, 2957.818
5841.602, 3013.611
5843.530, 3005.694
5845.459, 2971.269
5847.387, 2952.298
5849.316, 2975.223
5851.244, 2975.329
5853.173, 2973.969
5855.101, 2963.721
5857.030, 2941.840
5858.958, 2924.462
5860.887, 2974.941
5862.815, 3000.193
5864.744, 2979.817
5866.672, 2951.353
5868.601, 2938.351
5870.529, 2918.040
5872.458, 2903.061
5874.386, 2909.227
5876.314, 2953.951
5878.243, 2950.361
5880.171, 2926.240
5882.100, 2911.838
5884.028, 2932.762
5885.957, 2948.234
5887.885, 2917.368
5889.813, 2888.614
5891.742, 2904.831
5893.670, 2909.529
5895.599, 2943.561
5897.527, 2960.592
5899.456, 2945.010
5901.384, 2911.505
5903.313, 2882.774
5905.241, 2890.178
5907.170, 2906.435
5909.098, 2900.484
5911.027, 2859.398
5912.955, 2892.776
5914.884, 2915.372
5916.812, 2905.669
5918.741, 2897.594
5920.669, 2897.928
5922.598, 2885.109
5924.526, 2867.968
5926.455, 2862.667
5928.383, 2887.267
5930.312, 2883.833
5932.240, 2881.020
5934.168, 2900.613
5936.097, 2941.742
5938.025, 2902.248
5939.954, 2855.410
5941.882, 2844.581
5943.811, 2860.299
5945.739, 2848.141
5947.667, 2842.146
5949.596, 2839.393
5951.524, 2835.342
5953.453, 2831.819
5955.381, 2849.671
5957.310, 2858.301
5959.238, 2849.138
5961.167, 2842.741
5963.095, 2862.488
5965.024, 2867.499
5966.952, 2873.778
5968.881, 2841.002
5970.809, 2791.965
5972.738, 2823.969
5974.666, 2850.095
5976.595, 2825.183
5978.523, 2814.434
5980.452, 2848.063
5982.380, 2828.483
5984.309, 2850.320
5986.237, 2838.905
5988.166, 2808.681
5990.094, 2798.440
5992.022, 2782.866
5993.951, 2827.756
5995.879, 2856.450
5997.808, 2840.950
5999.736, 2791.943
6001.665, 2797.690
6003.593, 2836.696
6005.521, 2831.148
6007.450, 2782.748
6009.379, 2762.119
6011.307, 2765.057
6013.236, 2785.100
6015.164, 2784.262
6017.093, 2768.964
6019.021, 2813.064
6020.950, 2764.729
6022.878, 2754.620
6024.807, 2770.576
6026.735, 2775.462
6028.664, 2755.084
6030.592, 2775.183
6032.521, 2776.013
6034.449, 2757.409
6036.377, 2740.303
6038.306, 2745.885
6040.234, 2763.095
6042.163, 2759.839
6044.091, 2746.296
6046.020, 2747.408
6047.948, 2804.445
6049.876, 2742.951
6051.805, 2762.139
6053.733, 2809.838
6055.662, 2789.802
6057.590, 2788.720
6059.519, 2777.330
6061.447, 2758.610
6063.376, 2749.406
6065.304, 2759.641
6067.233, 2772.022
6069.161, 2751.051
6071.090, 2726.140
6073.018, 2737.672
6074.947, 2781.840
6076.875, 2717.627
6078.804, 2701.334
6080.732, 2709.517
6082.661, 2709.509
6084.589, 2694.703
6086.518, 2711.097
6088.446, 2716.011
6090.375, 2694.922
6092.303, 2690.764
6094.231, 2716.719
6096.160, 2697.407
6098.088, 2684.817
6100.017, 2673.429
6101.945, 2668.640
6103.874, 2677.903
6105.802, 2708.589
6107.730, 2699.949
6109.659, 2668.633
6111.587, 2649.389
6113.516, 2664.353
6115.444, 2722.005
6117.373, 2662.409
6119.301, 2658.653
6121.230, 2677.164
6123.158, 2687.936
6125.087, 2697.615
6127.015, 2667.510
6128.944, 2662.891
6130.872, 2690.529
6132.801, 2704.418
6134.729, 2665.933
6136.658, 2667.099
6138.586, 2649.551
6140.515, 2656.414
6142.443, 2661.487
6144.372, 2641.469
6146.300, 2636.153
6148.229, 2667.837
6150.157, 2680.806
6152.085, 2647.164
6154.014, 2602.274
6155.942, 2643.809
6157.871, 2630.770
6159.799, 2654.788
6161.728, 2647.173
6163.656, 2623.488
6165.584, 2647.425
6167.513, 2651.588
6169.441, 2637.406
6171.370, 2595.482
6173.298, 2579.008
6175.227, 2612.702
6177.155, 2630.625
6179.084, 2630.712
6181.012, 2624.100
6182.941, 2623.996
6184.869, 2622.576
6186.798, 2601.504
6188.726, 2592.661
6190.655, 2587.926
6192.583, 2600.356
6194.512, 2610.111
6196.440, 2601.744
6198.369, 2605.542
6200.297, 2555.307
6202.226, 2587.260
6204.154, 2601.020
6206.083, 2583.016
6208.011, 2620.984
6209.939, 2563.338
6211.868, 2573.368
6213.796, 2591.685
6215.725, 2581.244
6217.653, 2568.632
6219.582, 2636.351
6221.510, 2596.566
6223.438, 2558.054
6225.367, 2549.644
6227.295, 2560.262
6229.224, 2569.102
6231.152, 2552.605
6233.081, 2559.364
6235.009, 2566.424
6236.938, 2567.025
6238.866, 2556.600
6240.795, 2526.058
6242.723, 2546.084
6244.652, 2570.065
6246.580, 2568.375
6248.509, 2555.632
6250.437, 2553.776
6252.366, 2560.999
6254.294, 2530.851
6256.223, 2538.655
6258.151, 2550.945
6260.080, 2541.461
6262.008, 2517.333
6263.937, 2529.948
6265.865, 2540.823
6267.793, 2524.478
6269.722, 2501.656
6271.650, 2499.528
6273.579, 2527.945
6275.507, 2528.457
6277.436, 2526.914
6279.364, 2544.050
6281.292, 2542.255
6283.221, 2519.512
6285.149, 2523.070
6287.078, 2521.470
6289.006, 2475.442
6290.935, 2497.248
6292.863, 2531.983
6294.792, 2514.388
6296.720, 2473.527
6298.649, 2524.795
6300.577, 2510.882
6302.506, 2504.417
6304.434, 2491.068
6306.363, 2464.857
6308.291, 2495.616
6310.220, 2548.698
6312.148, 2519.606
6314.077, 2505.517
6316.005, 2502.191
6317.934, 2491.616
6319.862, 2515.327
6321.791, 2486.146
6323.719, 2441.264
6325.647, 2493.246
6327.576, 2526.429
6329.504, 2480.171
6331.433, 2461.684
6333.361, 2489.438
6335.290, 2513.347
6337.218, 2503.207
6339.146, 2479.921
6341.075, 2466.278
6343.003, 2467.453
6344.932, 2492.978
6346.860, 2486.496
6348.789, 2482.158
6350.717, 2474.795
6352.646, 2450.219
6354.574, 2416.729
6356.503, 2430.960
6358.431, 2439.024
6360.360, 2449.497
6362.288, 2451.450
6364.217, 2445.308
6366.145, 2438.735
6368.074, 2431.921
6370.002, 2438.305
6371.931, 2444.940
6373.859, 2454.433
6375.788, 2450.902
6377.716, 2437.111
6379.645, 2446.313
6381.573, 2462.698
6383.501, 2415.152
6385.430, 2415.957
6387.358, 2425.857
6389.287, 2420.046
6391.215, 2418.096
6393.144, 2392.272
6395.072, 2420.517
6397.000, 2426.309
6398.929, 2420.884
6400.857, 2412.275
6402.786, 2397.025
6404.714, 2382.902
6406.643, 2443.212
6408.571, 2426.380
6410.500, 2421.651
6412.428, 2418.984
6414.357, 2409.431
6416.285, 2410.429
6418.214, 2400.210
6420.142, 2407.386
6422.071, 2408.873
6423.999, 2413.451
6425.928, 2397.614
6427.856, 2372.243
6429.785, 2386.687
6431.713, 2392.730
6433.642, 2355.826
6435.570, 2358.911
6437.499, 2375.472
6439.427, 2364.213
6441.355, 2330.006
6443.284, 2326.503
6445.212, 2337.200
6447.141, 2351.929
6449.069, 2355.882
6450.998, 2370.428
6452.926, 2373.683
6454.854, 2348.053
6456.783, 2373.881
6458.711, 2420.750
6460.640, 2347.183
6462.568, 2300.772
6464.497, 2295.445
6466.425, 2306.778
6468.354, 2322.755
6470.282, 2316.517
6472.211, 2336.056
6474.139, 2313.476
6476.068, 2311.151
6477.996, 2325.166
6479.925, 2330.801
6481.853, 2321.705
6483.782, 2308.663
6485.710, 2321.081
6487.639, 2304.458
6489.567, 2290.317
6491.496, 2298.712
6493.424, 2320.084
6495.353, 2334.075
6497.281, 2330.466
6499.209, 2337.714
6501.138, 2302.736
6503.066, 2297.335
6504.995, 2327.514
6506.923, 2334.885
6508.852, 2304.236
6510.780, 2312.274
6512.708, 2285.452
6514.637, 2291.341
6516.565, 2292.025
6518.494, 2258.883
6520.422, 2259.917
6522.351, 2307.114
6524.279, 2316.567
6526.208, 2310.519
6528.136, 2295.327
6530.065, 2252.571
6531.993, 2273.671
6533.922, 2297.343
6535.850, 2281.752
6537.779, 2252.004
6539.707, 2215.611
6541.636, 2254.557
6543.564, 2243.819
6545.493, 2254.390
6547.421, 2274.771
6549.350, 2290.186
6551.278, 2283.987
6553.207, 2237.457
6555.135, 2258.594
6557.063, 2249.268
6558.992, 2247.324
6560.920, 2229.743
6562.849, 2243.986
6564.777, 2257.748
6566.706, 2234.204
##END=



