##NAMES=Clinofergusonite-(Ce)
##RRUFFID=R080102
##IDEAL CHEMISTRY=CeNbO_4_
##LOCALITY=Amherst County, Virginia, USA
##OWNER=RRUFF
##SOURCE=Michael Scott
##DESCRIPTION=Tan to light brown colored fragment from metamict sample R070300, after heating at T = 1000 C for 20 hours
##STATUS=The identification of this mineral has been confirmed only by X-ray diffraction
##URL=https://www.rruff.net/odr/rruff_sample/R080102
##DIFFRACTION SAMPLE DESCRIPTION=Powder
##CELL PARAMETERS=a: 7.645 b: 11.0171 c: 5.3251 alpha: 90 beta: 138.38 gamma: 90 volume: 297.89 crystal system: monoclinic
##FILETYPE=Raman Processed
##RAMAN WAVELENGTH=532

148.6284, 11862.90
150.5569, 11523.43
152.4854, 11228.94
154.4138, 10952.59
156.3423, 10681.96
158.2708, 10415.81
160.1992, 10186.01
162.1277, 9999.635
164.0562, 9839.149
165.9846, 9689.654
167.9131, 9542.334
169.8416, 9419.157
171.7700, 9320.403
173.6985, 9246.244
175.6270, 9204.001
177.5554, 9209.492
179.4839, 9233.181
181.4124, 9249.551
183.3408, 9243.212
185.2693, 9254.422
187.1978, 9293.531
189.1262, 9360.604
191.0547, 9429.260
192.9832, 9495.829
194.9116, 9563.524
196.8401, 9634.881
198.7686, 9705.983
200.6970, 9784.032
202.6255, 9878.501
204.5540, 9984.361
206.4824, 10077.31
208.4109, 10142.07
210.3394, 10200.87
212.2678, 10270.93
214.1963, 10350.91
216.1248, 10445.72
218.0532, 10558.64
219.9817, 10686.59
221.9102, 10816.74
223.8386, 10944.04
225.7671, 11075.34
227.6956, 11221.68
229.6240, 11395.10
231.5525, 11547.22
233.4810, 11665.39
235.4094, 11748.95
237.3379, 11809.82
239.2664, 11869.78
241.1948, 11893.34
243.1233, 11863.37
245.0518, 11761.17
246.9802, 11643.73
248.9087, 11507.45
250.8372, 11359.87
252.7656, 11225.43
254.6941, 11103.53
256.6226, 10992.74
258.5510, 10900.35
260.4795, 10826.63
262.4080, 10781.08
264.3364, 10766.31
266.2649, 10782.09
268.1934, 10816.75
270.1218, 10865.76
272.0503, 10936.42
273.9788, 11039.80
275.9072, 11183.68
277.8357, 11328.58
279.7642, 11470.45
281.6926, 11598.14
283.6211, 11710.60
285.5496, 11805.96
287.4780, 11897.31
289.4065, 11983.48
291.3350, 12061.88
293.2634, 12123.45
295.1919, 12163.06
297.1204, 12193.39
299.0488, 12216.40
300.9773, 12225.34
302.9058, 12231.57
304.8342, 12237.02
306.7627, 12245.14
308.6912, 12270.70
310.6196, 12311.70
312.5481, 12364.83
314.4766, 12444.66
316.4050, 12555.93
318.3335, 12670.23
320.2620, 12770.18
322.1904, 12862.23
324.1189, 12961.59
326.0474, 13082.70
327.9758, 13204.25
329.9043, 13302.50
331.8328, 13381.06
333.7612, 13489.62
335.6897, 13635.75
337.6182, 13812.48
339.5467, 14020.87
341.4751, 14243.26
343.4036, 14526.80
345.3321, 14896.51
347.2605, 15342.40
349.1890, 15875.44
351.1175, 16473.66
353.0459, 17172.15
354.9744, 18008.20
356.9029, 18969.14
358.8313, 20079.30
360.7598, 21345.28
362.6883, 22770.49
364.6167, 24390.40
366.5452, 26326.43
368.4737, 28298.69
370.4021, 30303.10
372.3306, 32328.36
374.2591, 34198.36
376.1875, 35882.41
378.1160, 37340.87
380.0445, 38472.96
381.9729, 39268.29
383.9014, 39784.13
385.8299, 39912.03
387.7583, 39715.21
389.6868, 39287.15
391.6153, 38686.28
393.5437, 37901.00
395.4722, 36899.95
397.4007, 35721.00
399.3291, 34515.21
401.2576, 33295.61
403.1861, 32083.15
405.1145, 30879.37
407.0430, 29569.35
408.9715, 28488.03
410.8999, 27745.82
412.8284, 27332.42
414.7569, 27213.04
416.6853, 27559.38
418.6138, 28091.12
420.5423, 28836.10
422.4707, 29805.90
424.3992, 30649.52
426.3277, 31213.72
428.2561, 31523.92
430.1846, 31590.83
432.1131, 31237.61
434.0415, 30677.04
435.9700, 29914.44
437.8985, 28996.94
439.8269, 28046.28
441.7554, 27147.57
443.6839, 26319.91
445.6123, 25610.82
447.5408, 25063.47
449.4693, 24615.53
451.3977, 24169.88
453.3262, 23737.81
455.2547, 23303.66
457.1831, 22823.87
459.1116, 22432.95
461.0401, 22165.12
462.9685, 22057.52
464.8970, 22158.43
466.8255, 22524.71
468.7539, 22993.85
470.6824, 23547.02
472.6109, 24165.51
474.5393, 24734.34
476.4678, 25161.52
478.3963, 25431.50
480.3247, 25491.62
482.2532, 25339.60
484.1817, 25050.53
486.1101, 24628.72
488.0386, 24126.74
489.9671, 23548.41
491.8955, 22949.79
493.8240, 22373.77
495.7525, 21850.44
497.6809, 21365.34
499.6094, 20888.23
501.5379, 20382.25
503.4663, 19856.50
505.3948, 19307.92
507.3233, 18723.62
509.2517, 18112.14
511.1802, 17479.17
513.1086, 16889.04
515.0371, 16366.80
516.9656, 15934.00
518.8940, 15537.34
520.8225, 15145.57
522.7510, 14778.50
524.6794, 14467.17
526.6079, 14227.37
528.5364, 14013.25
530.4648, 13802.76
532.3933, 13595.20
534.3218, 13409.41
536.2502, 13262.69
538.1787, 13119.88
540.1072, 12965.26
542.0356, 12808.81
543.9641, 12679.74
545.8926, 12576.93
547.8210, 12479.10
549.7495, 12377.51
551.6780, 12283.40
553.6064, 12210.50
555.5349, 12162.63
557.4634, 12124.45
559.3918, 12086.99
561.3203, 12058.94
563.2488, 12034.26
565.1772, 12002.98
567.1057, 11977.11
569.0342, 11983.15
570.9626, 12015.95
572.8911, 12042.09
574.8196, 12047.77
576.7480, 12048.63
578.6765, 12066.40
580.6050, 12097.55
582.5335, 12138.72
584.4620, 12189.25
586.3904, 12262.31
588.3189, 12349.95
590.2474, 12445.77
592.1758, 12549.82
594.1043, 12668.28
596.0328, 12800.79
597.9612, 12921.06
599.8897, 13023.67
601.8182, 13124.19
603.7466, 13237.13
605.6751, 13355.15
607.6036, 13462.68
609.5320, 13553.73
611.4605, 13640.67
613.3890, 13729.29
615.3174, 13825.22
617.2459, 13925.71
619.1744, 14033.88
621.1028, 14134.48
623.0313, 14222.87
624.9598, 14306.33
626.8882, 14400.69
628.8167, 14496.04
630.7452, 14603.30
632.6736, 14754.48
634.6021, 14965.82
636.5306, 15199.70
638.4590, 15442.95
640.3875, 15675.91
642.3160, 15931.37
644.2444, 16232.70
646.1729, 16563.63
648.1014, 16912.88
650.0298, 17279.97
651.9583, 17683.13
653.8868, 18126.21
655.8152, 18603.84
657.7437, 19100.00
659.6722, 19626.46
661.6006, 20234.14
663.5291, 20947.80
665.4576, 21698.33
667.3860, 22436.45
669.3145, 23160.36
671.2430, 23922.93
673.1714, 24776.30
675.0999, 25639.70
677.0284, 26478.55
678.9568, 27288.82
680.8853, 28140.29
682.8138, 29049.66
684.7422, 29992.98
686.6707, 30927.27
688.5992, 31829.99
690.5276, 32858.62
692.4561, 34039.67
694.3846, 35343.00
696.3130, 36730.59
698.2415, 38196.41
700.1700, 39786.76
702.0984, 41535.81
704.0269, 43393.20
705.9554, 45343.70
707.8839, 47461.30
709.8123, 49540.04
711.7408, 51609.82
713.6693, 53590.06
715.5977, 55396.72
717.5262, 57060.85
719.4547, 58544.95
721.3831, 59829.60
723.3116, 60913.28
725.2401, 61782.30
727.1685, 62336.32
729.0970, 62775.83
731.0255, 63101.54
732.9539, 63311.16
734.8824, 63420.80
736.8109, 63408.45
738.7393, 63362.72
740.6678, 63285.21
742.5963, 63192.93
744.5247, 63148.68
746.4532, 63088.54
748.3817, 63155.31
750.3101, 63351.39
752.2386, 63703.58
754.1671, 64240.65
756.0955, 64977.61
758.0240, 65900.16
759.9525, 67119.64
761.8809, 68538.15
763.8094, 69761.84
765.7379, 70861.72
767.6663, 71686.37
769.5948, 72235.05
771.5233, 72433.25
773.4517, 72188.98
775.3802, 71404.74
777.3087, 70270.22
779.2371, 68806.02
781.1656, 67045.31
783.0941, 65249.27
785.0225, 63303.73
786.9510, 61457.34
788.8795, 59781.71
790.8079, 58296.64
792.7364, 57009.45
794.6649, 56002.11
796.5933, 55082.79
798.5218, 54180.06
800.4503, 53291.07
802.3787, 52419.46
804.3072, 51636.50
806.2357, 50784.58
808.1641, 49807.50
810.0926, 48722.69
812.0211, 47581.25
813.9495, 46406.45
815.8780, 45114.29
817.8065, 43657.30
819.7349, 42060.53
821.6634, 40432.23
823.5919, 38791.63
825.5203, 37091.51
827.4488, 35280.92
829.3773, 33387.82
831.3057, 31567.06
833.2342, 29819.59
835.1627, 28175.54
837.0911, 26638.51
839.0196, 25199.13
840.9481, 23848.51
842.8765, 22588.99
844.8050, 21415.34
846.7335, 20339.78
848.6619, 19365.23
850.5904, 18449.21
852.5189, 17582.65
854.4473, 16782.50
856.3758, 16063.67
858.3043, 15411.67
860.2327, 14813.84
862.1612, 14288.76
864.0897, 13792.91
866.0181, 13316.73
867.9466, 12862.69
869.8751, 12449.42
871.8035, 12088.65
873.7320, 11753.48
875.6605, 11435.92
877.5889, 11137.38
879.5174, 10862.62
881.4459, 10606.53
883.3743, 10374.51
885.3028, 10178.72
887.2313, 10009.36
889.1597, 9838.641
891.0882, 9665.107
893.0167, 9495.656
894.9451, 9335.182
896.8736, 9172.887
898.8021, 9001.264
900.7305, 8826.695
902.6590, 8668.994
904.5875, 8541.188
906.5159, 8417.024
908.4444, 8289.232
910.3729, 8132.999
912.3013, 7980.500
914.2298, 7840.960
916.1583, 7719.281
918.0867, 7595.559
920.0152, 7470.615
921.9437, 7339.439
923.8721, 7197.472
925.8006, 7045.598
927.7291, 6899.717
929.6575, 6759.544
931.5860, 6608.485
933.5145, 6439.820
935.4429, 6277.607
937.3714, 6141.040
939.2999, 6028.950
941.2283, 5911.579
943.1568, 5781.183
945.0853, 5648.803
947.0137, 5517.924
948.9422, 5393.708
950.8707, 5282.130
952.7991, 5183.654
954.7276, 5081.778
956.6561, 4970.013
958.5845, 4857.763
960.5130, 4752.276
962.4415, 4647.578
964.3699, 4548.823
966.2984, 4460.790
968.2269, 4383.769
970.1553, 4311.186
972.0838, 4244.005
974.0123, 4181.840
975.9407, 4122.111
977.8692, 4061.721
979.7977, 4004.111
981.7261, 3960.941
983.6546, 3917.860
985.5831, 3869.858
987.5115, 3819.753
989.4400, 3782.471
991.3685, 3746.918
993.2969, 3692.518
995.2254, 3615.642
997.1539, 3548.535
999.0823, 3510.473
1001.011, 3485.385
1002.939, 3448.321
1004.868, 3400.942
1006.796, 3359.375
1008.725, 3332.735
1010.653, 3316.137
1012.582, 3289.501
1014.510, 3248.006
1016.439, 3201.536
1018.367, 3152.131
1020.295, 3106.997
1022.224, 3073.426
1024.152, 3055.942
1026.081, 3040.020
1028.009, 3020.257
1029.938, 2996.232
1031.866, 2973.209
1033.795, 2937.669
1035.723, 2894.986
1037.652, 2855.412
1039.580, 2827.558
1041.509, 2813.256
1043.437, 2800.389
1045.365, 2775.536
1047.294, 2737.478
1049.222, 2706.371
1051.151, 2691.391
1053.079, 2682.778
1055.008, 2660.232
1056.936, 2627.287
1058.865, 2598.236
1060.793, 2577.667
1062.722, 2562.056
1064.650, 2539.544
1066.579, 2513.814
1068.507, 2496.416
1070.436, 2485.204
1072.364, 2476.183
1074.292, 2468.432
1076.221, 2459.639
1078.150, 2445.676
1080.078, 2437.446
1082.006, 2437.150
1083.935, 2441.964
1085.863, 2445.563
1087.792, 2439.093
1089.720, 2417.667
1091.649, 2391.229
1093.577, 2369.205
1095.506, 2359.741
1097.434, 2364.429
1099.363, 2371.818
1101.291, 2364.186
1103.220, 2349.846
1105.148, 2337.635
1107.077, 2327.061
1109.005, 2307.987
1110.933, 2284.723
1112.862, 2269.018
1114.790, 2262.007
1116.719, 2258.370
1118.647, 2252.528
1120.576, 2244.898
1122.504, 2244.302
1124.433, 2241.912
1126.361, 2229.191
1128.290, 2206.207
1130.218, 2182.088
1132.147, 2160.447
1134.075, 2141.439
1136.004, 2121.189
1137.932, 2100.309
1139.860, 2082.092
1141.789, 2068.914
1143.717, 2058.360
1145.646, 2042.375
1147.574, 2018.320
1149.503, 1993.899
1151.431, 1971.514
1153.360, 1945.121
1155.288, 1909.652
1157.217, 1884.375
1159.145, 1869.757
1161.074, 1857.821
1163.002, 1839.220
1164.931, 1812.777
1166.859, 1788.505
1168.787, 1777.670
1170.716, 1768.631
1172.644, 1751.582
1174.573, 1725.520
1176.501, 1703.051
1178.430, 1686.302
1180.358, 1671.948
1182.287, 1660.095
1184.215, 1651.225
1186.144, 1642.653
1188.072, 1634.495
1190.001, 1622.614
1191.929, 1598.940
1193.858, 1572.500
1195.786, 1562.769
1197.714, 1571.437
1199.643, 1576.463
1201.571, 1565.859
1203.500, 1547.562
1205.428, 1535.422
1207.357, 1530.158
1209.285, 1523.430
1211.214, 1509.779
1213.142, 1496.504
1215.071, 1491.157
1216.999, 1487.416
1218.928, 1477.940
1220.856, 1463.674
1222.785, 1459.615
1224.713, 1474.409
1226.641, 1481.450
1228.570, 1474.617
1230.498, 1463.939
1232.427, 1450.811
1234.355, 1430.181
1236.284, 1411.618
1238.212, 1406.561
1240.141, 1411.372
1242.069, 1416.968
1243.998, 1424.985
1245.926, 1428.724
1247.855, 1424.444
1249.783, 1412.110
1251.712, 1393.120
1253.640, 1379.463
1255.568, 1377.687
1257.497, 1390.273
1259.425, 1391.213
1261.354, 1374.052
1263.282, 1357.257
1265.211, 1347.036
1267.139, 1342.283
1269.068, 1337.667
1270.996, 1333.434
1272.925, 1330.780
1274.853, 1330.048
1276.782, 1326.590
1278.710, 1323.655
1280.639, 1324.252
1282.567, 1327.948
1284.495, 1335.356
1286.424, 1338.609
1288.352, 1337.526
1290.281, 1336.592
1292.209, 1333.205
1294.138, 1322.350
1296.066, 1316.474
1297.995, 1326.011
1299.923, 1336.071
1301.852, 1335.361
1303.780, 1327.107
1305.709, 1320.550
1307.637, 1315.134
1309.566, 1312.789
1311.494, 1317.661
1313.422, 1321.924
1315.351, 1319.387
1317.279, 1312.737
1319.208, 1308.495
1321.136, 1307.168
1323.065, 1306.252
1324.993, 1305.683
1326.922, 1306.176
1328.850, 1307.918
1330.779, 1311.617
1332.707, 1320.253
1334.636, 1338.708
1336.564, 1353.221
1338.493, 1360.668
1340.421, 1365.843
1342.349, 1372.908
1344.278, 1382.941
1346.206, 1392.316
1348.135, 1398.705
1350.063, 1406.306
1351.992, 1420.093
1353.920, 1437.320
1355.849, 1450.553
1357.777, 1459.398
1359.706, 1465.898
1361.634, 1468.807
1363.563, 1471.892
1365.491, 1476.611
1367.420, 1482.298
1369.348, 1489.956
1371.276, 1502.078
1373.205, 1507.565
1375.133, 1497.173
1377.062, 1485.352
1378.990, 1482.416
1380.919, 1485.970
1382.847, 1481.443
1384.776, 1464.390
1386.704, 1446.988
1388.633, 1432.941
1390.561, 1416.599
1392.490, 1392.132
1394.418, 1360.647
1396.347, 1335.005
1398.275, 1319.180
1400.203, 1302.354
1402.132, 1279.810
1404.060, 1258.327
1405.989, 1246.579
1407.917, 1242.546
1409.846, 1230.261
1411.774, 1205.376
1413.703, 1181.911
1415.631, 1161.312
1417.560, 1146.347
1419.488, 1142.559
1421.417, 1147.320
1423.345, 1144.725
1425.274, 1130.685
1427.202, 1116.739
1429.130, 1103.568
1431.059, 1093.728
1432.987, 1091.682
1434.916, 1096.993
1436.844, 1099.098
1438.773, 1097.630
1440.701, 1093.039
1442.630, 1081.863
1444.558, 1070.958
1446.487, 1065.957
1448.415, 1066.486
1450.344, 1068.919
1452.272, 1074.369
1454.201, 1079.647
1456.129, 1084.857
1458.057, 1090.110
1459.986, 1092.162
1461.914, 1089.312
1463.843, 1092.647
1465.771, 1108.435
1467.700, 1121.439
1469.628, 1125.934
1471.557, 1128.750
1473.485, 1135.342
1475.414, 1144.956
1477.342, 1155.055
1479.271, 1166.069
1481.199, 1176.281
1483.128, 1186.525
1485.056, 1194.463
1486.984, 1196.055
1488.913, 1194.744
1490.841, 1199.355
1492.770, 1211.839
1494.698, 1221.625
1496.627, 1221.163
1498.555, 1223.971
1500.484, 1240.911
1502.412, 1264.969
1504.341, 1279.232
1506.269, 1281.704
1508.198, 1286.785
1510.126, 1300.950
1512.055, 1311.718
1513.983, 1311.169
1515.911, 1307.058
1517.840, 1309.747
1519.768, 1317.815
1521.697, 1325.108
1523.625, 1331.709
1525.554, 1340.810
1527.482, 1357.375
1529.411, 1372.587
1531.339, 1375.569
1533.268, 1365.040
1535.196, 1360.271
1537.125, 1366.348
1539.053, 1373.865
1540.982, 1384.091
1542.910, 1390.550
1544.839, 1386.388
1546.767, 1375.057
1548.695, 1371.180
1550.624, 1379.625
1552.552, 1383.430
1554.481, 1377.338
1556.409, 1368.626
1558.338, 1360.366
1560.266, 1354.915
1562.195, 1353.444
1564.123, 1354.927
1566.052, 1356.107
1567.980, 1356.102
1569.909, 1356.583
1571.837, 1360.133
1573.766, 1363.014
1575.694, 1359.724
1577.622, 1350.929
1579.551, 1343.157
1581.479, 1336.611
1583.408, 1333.928
1585.336, 1338.535
1587.265, 1344.642
1589.193, 1347.950
1591.122, 1349.462
1593.050, 1353.594
1594.979, 1362.180
1596.907, 1366.369
1598.836, 1360.348
1600.764, 1354.582
1602.693, 1359.366
1604.621, 1364.264
1606.549, 1352.050
1608.478, 1324.316
1610.406, 1309.825
1612.335, 1317.459
1614.263, 1323.908
1616.192, 1322.078
1618.120, 1316.131
1620.049, 1310.439
1621.977, 1303.205
1623.906, 1285.678
1625.834, 1254.326
1627.763, 1231.419
1629.691, 1222.378
1631.620, 1218.630
1633.548, 1220.818
1635.476, 1223.668
1637.405, 1219.573
1639.333, 1208.884
1641.262, 1202.053
1643.190, 1200.255
1645.119, 1200.745
1647.047, 1207.828
1648.976, 1212.057
1650.904, 1206.949
1652.833, 1195.644
1654.761, 1183.755
1656.690, 1169.716
1658.618, 1165.632
1660.547, 1182.677
1662.475, 1193.166
1664.403, 1182.284
1666.332, 1169.217
1668.260, 1172.436
1670.189, 1188.209
1672.117, 1193.803
1674.046, 1184.167
1675.974, 1179.653
1677.903, 1186.330
1679.831, 1193.305
1681.760, 1195.386
1683.688, 1196.800
1685.617, 1203.662
1687.545, 1215.949
1689.474, 1222.963
1691.402, 1219.088
1693.330, 1223.683
1695.259, 1248.417
1697.187, 1271.965
1699.116, 1285.417
1701.044, 1291.969
1702.973, 1292.557
1704.901, 1284.965
1706.830, 1296.676
1708.758, 1342.367
1710.687, 1378.160
1712.615, 1395.758
1714.544, 1402.643
1716.472, 1392.428
1718.401, 1378.256
1720.329, 1387.515
1722.257, 1424.112
1724.186, 1452.463
1726.114, 1467.958
1728.043, 1482.659
1729.971, 1497.515
1731.900, 1513.642
1733.828, 1531.291
1735.757, 1550.630
1737.685, 1573.748
1739.614, 1601.885
1741.542, 1620.710
1743.471, 1619.924
1745.399, 1630.090
1747.328, 1664.952
1749.256, 1705.377
1751.184, 1739.490
1753.113, 1772.435
1755.041, 1814.446
1756.970, 1865.648
1758.898, 1919.813
1760.827, 1974.951
1762.755, 2035.804
1764.684, 2112.486
1766.612, 2184.729
1768.541, 2232.925
1770.469, 2274.803
1772.398, 2342.864
1774.326, 2436.371
1776.255, 2521.926
1778.183, 2595.533
1780.111, 2668.109
1782.040, 2739.596
1783.968, 2813.738
1785.897, 2900.676
1787.825, 2985.466
1789.754, 3046.420
1791.682, 3086.904
1793.611, 3130.047
1795.539, 3179.398
1797.468, 3219.579
1799.396, 3246.065
1801.325, 3265.385
1803.253, 3282.751
1805.182, 3292.655
1807.110, 3285.484
1809.038, 3267.441
1810.967, 3258.597
1812.895, 3260.432
1814.824, 3260.335
1816.752, 3249.255
1818.681, 3251.216
1820.609, 3279.336
1822.538, 3319.438
1824.466, 3361.862
1826.395, 3408.815
1828.323, 3465.271
1830.252, 3531.051
1832.180, 3598.452
1834.109, 3664.914
1836.037, 3737.650
1837.965, 3814.272
1839.894, 3901.526
1841.822, 4012.531
1843.751, 4129.775
1845.679, 4222.697
1847.608, 4298.082
1849.536, 4409.107
1851.465, 4571.755
1853.393, 4721.207
1855.322, 4850.913
1857.250, 4971.633
1859.179, 5084.090
1861.107, 5189.718
1863.036, 5290.579
1864.964, 5384.359
1866.892, 5467.504
1868.821, 5539.587
1870.749, 5604.089
1872.678, 5660.468
1874.606, 5712.238
1876.535, 5772.251
1878.463, 5813.646
1880.392, 5825.320
1882.320, 5813.875
1884.249, 5777.547
1886.177, 5722.083
1888.106, 5675.866
1890.034, 5640.316
1891.963, 5596.081
1893.891, 5533.600
1895.819, 5481.974
1897.748, 5438.626
1899.676, 5423.097
1901.605, 5464.646
1903.533, 5525.530
1905.462, 5556.497
1907.390, 5568.021
1909.319, 5606.187
1911.247, 5675.304
1913.176, 5728.850
1915.104, 5754.415
1917.033, 5777.258
1918.961, 5816.568
1920.890, 5842.427
1922.818, 5821.774
1924.746, 5786.853
1926.675, 5788.946
1928.603, 5818.386
1930.532, 5812.168
1932.460, 5758.096
1934.389, 5725.672
1936.317, 5734.305
1938.246, 5744.299
1940.174, 5729.050
1942.103, 5735.684
1944.031, 5812.173
1945.960, 5912.000
1947.888, 5962.074
1949.817, 5974.694
1951.745, 6036.124
1953.673, 6168.194
1955.602, 6273.256
1957.530, 6346.159
1959.459, 6397.100
1961.387, 6410.481
1963.316, 6424.215
1965.244, 6459.734
1967.173, 6501.077
1969.101, 6538.672
1971.030, 6567.938
1972.958, 6568.245
1974.887, 6539.644
1976.815, 6523.069
1978.744, 6525.958
1980.672, 6524.726
1982.600, 6519.467
1984.529, 6497.631
1986.457, 6446.385
1988.386, 6382.474
1990.314, 6319.338
1992.243, 6253.573
1994.171, 6174.891
1996.100, 6084.543
1998.028, 6000.956
1999.957, 5907.521
2001.885, 5866.131
2003.814, 5915.841
2005.742, 5962.979
2007.671, 5980.075
2009.599, 5999.671
2011.527, 6036.328
2013.456, 6087.559
2015.384, 6158.597
2017.313, 6241.338
2019.241, 6298.844
2021.170, 6328.718
2023.098, 6380.864
2025.027, 6466.448
2026.955, 6539.427
2028.884, 6581.743
2030.812, 6629.113
2032.741, 6704.824
2034.669, 6781.146
2036.598, 6850.048
2038.526, 6901.084
2040.454, 6911.065
2042.383, 6888.920
2044.311, 6875.345
2046.240, 6870.829
2048.168, 6866.153
2050.097, 6861.051
2052.025, 6853.681
2053.954, 6852.766
2055.882, 6836.723
2057.811, 6777.970
2059.739, 6724.905
2061.667, 6724.651
2063.596, 6745.040
2065.525, 6735.946
2067.453, 6703.046
2069.382, 6678.770
2071.310, 6663.064
2073.239, 6644.230
2075.167, 6620.415
2077.095, 6593.194
2079.024, 6573.627
2080.952, 6527.187
2082.881, 6424.980
2084.809, 6310.084
2086.738, 6208.847
2088.666, 6113.473
2090.595, 6017.837
2092.523, 5919.682
2094.452, 5809.910
2096.380, 5687.509
2098.309, 5555.513
2100.237, 5398.823
2102.166, 5260.426
2104.094, 5159.393
2106.022, 5045.927
2107.951, 4896.392
2109.879, 4752.671
2111.808, 4629.431
2113.736, 4524.787
2115.665, 4445.383
2117.593, 4378.547
2119.522, 4297.108
2121.450, 4207.737
2123.379, 4141.450
2125.307, 4099.614
2127.236, 4067.542
2129.164, 4042.852
2131.093, 4032.042
2133.021, 4045.951
2134.949, 4060.307
2136.878, 4070.788
2138.806, 4077.324
2140.735, 4072.189
2142.663, 4069.243
2144.592, 4083.151
2146.520, 4109.222
2148.449, 4144.067
2150.377, 4184.066
2152.306, 4195.200
2154.234, 4175.186
2156.163, 4197.585
2158.091, 4281.736
2160.020, 4356.447
2161.948, 4394.649
2163.876, 4444.082
2165.805, 4532.298
2167.733, 4619.903
2169.662, 4679.897
2171.590, 4735.777
2173.519, 4819.250
2175.447, 4909.017
2177.376, 4965.646
2179.304, 4993.593
2181.233, 5015.956
2183.161, 5032.180
2185.090, 5056.635
2187.018, 5096.235
2188.947, 5097.897
2190.875, 5044.164
2192.803, 4979.318
2194.732, 4909.416
2196.660, 4843.369
2198.589, 4789.535
2200.517, 4736.963
2202.446, 4675.397
2204.374, 4612.941
2206.303, 4553.665
2208.231, 4502.107
2210.160, 4471.261
2212.088, 4459.558
2214.017, 4454.640
2215.945, 4457.681
2217.874, 4438.203
2219.802, 4383.136
2221.730, 4374.949
2223.659, 4447.774
2225.587, 4511.378
2227.516, 4526.453
2229.444, 4544.475
2231.373, 4595.767
2233.301, 4645.356
2235.230, 4673.281
2237.158, 4685.102
2239.087, 4683.263
2241.015, 4671.908
2242.944, 4658.535
2244.872, 4642.596
2246.801, 4621.257
2248.729, 4594.305
2250.657, 4564.641
2252.586, 4533.300
2254.514, 4484.016
2256.443, 4402.551
2258.371, 4341.473
2260.300, 4339.125
2262.228, 4317.133
2264.157, 4229.244
2266.085, 4152.054
2268.014, 4117.770
2269.942, 4111.551
2271.871, 4133.474
2273.799, 4168.236
2275.728, 4199.253
2277.656, 4229.088
2279.584, 4259.687
2281.513, 4293.500
2283.441, 4346.518
2285.370, 4417.540
2287.298, 4456.878
2289.227, 4446.594
2291.155, 4466.534
2293.084, 4544.755
2295.012, 4608.734
2296.941, 4645.708
2298.869, 4685.669
2300.798, 4730.853
2302.726, 4785.775
2304.655, 4862.184
2306.583, 4935.572
2308.511, 4974.312
2310.440, 5020.343
2312.368, 5115.467
2314.297, 5237.821
2316.225, 5365.001
2318.154, 5491.610
2320.082, 5603.033
2322.011, 5700.602
2323.939, 5789.069
2325.868, 5867.551
2327.796, 5976.289
2329.725, 6122.271
2331.653, 6229.933
2333.582, 6286.575
2335.510, 6327.965
2337.438, 6365.650
2339.367, 6376.265
2341.295, 6356.676
2343.224, 6305.347
2345.152, 6213.108
2347.081, 6101.659
2349.009, 5986.558
2350.938, 5851.183
2352.866, 5670.975
2354.795, 5476.330
2356.723, 5294.740
2358.652, 5119.414
2360.580, 4938.923
2362.509, 4757.260
2364.437, 4577.807
2366.365, 4404.905
2368.294, 4269.009
2370.222, 4172.008
2372.151, 4070.186
2374.079, 3961.117
2376.008, 3867.865
2377.936, 3793.258
2379.865, 3724.742
2381.793, 3656.425
2383.722, 3612.434
2385.650, 3615.152
2387.579, 3609.904
2389.507, 3575.161
2391.436, 3540.049
2393.364, 3504.663
2395.292, 3484.077
2397.221, 3493.934
2399.149, 3511.200
2401.078, 3525.617
2403.006, 3534.412
2404.935, 3532.145
2406.863, 3525.460
2408.792, 3526.504
2410.720, 3527.640
2412.649, 3506.423
2414.577, 3473.438
2416.506, 3468.930
2418.434, 3489.277
2420.363, 3498.965
2422.291, 3498.287
2424.219, 3494.577
2426.148, 3488.049
2428.076, 3488.776
2430.005, 3501.130
2431.933, 3502.567
2433.862, 3489.926
2435.790, 3468.707
2437.719, 3425.508
2439.647, 3399.191
2441.576, 3408.439
2443.504, 3404.304
2445.433, 3368.083
2447.361, 3327.631
2449.290, 3298.015
2451.218, 3261.371
2453.146, 3201.261
2455.075, 3140.621
2457.003, 3094.588
2458.932, 3053.843
2460.860, 3018.425
2462.789, 2976.971
2464.717, 2913.630
2466.646, 2840.355
2468.574, 2763.485
2470.503, 2693.560
2472.431, 2656.276
2474.360, 2637.010
2476.288, 2591.206
2478.217, 2528.833
2480.145, 2499.535
2482.073, 2500.537
2484.002, 2492.144
2485.930, 2475.580
2487.859, 2471.271
2489.787, 2479.919
2491.716, 2476.098
2493.644, 2453.019
2495.573, 2445.126
2497.501, 2462.266
2499.430, 2477.150
2501.358, 2492.851
2503.287, 2496.749
2505.215, 2483.189
2507.144, 2473.426
2509.072, 2475.820
2511.000, 2470.602
2512.929, 2447.760
2514.857, 2422.747
2516.786, 2398.250
2518.714, 2374.429
2520.643, 2361.494
2522.571, 2334.854
2524.500, 2280.501
2526.428, 2218.438
2528.357, 2150.839
2530.285, 2089.581
2532.214, 2046.484
2534.142, 2006.907
2536.071, 1959.150
2537.999, 1910.005
2539.927, 1869.830
2541.856, 1827.794
2543.784, 1768.870
2545.713, 1705.176
2547.641, 1645.146
2549.570, 1593.730
2551.498, 1563.949
2553.427, 1544.105
2555.355, 1509.418
2557.284, 1468.882
2559.212, 1447.689
2561.141, 1437.548
2563.069, 1412.833
2564.998, 1378.801
2566.926, 1351.617
2568.854, 1331.164
2570.783, 1318.702
2572.711, 1313.181
2574.640, 1303.917
2576.568, 1290.872
2578.497, 1271.976
2580.425, 1248.174
2582.354, 1231.713
2584.282, 1223.265
2586.211, 1215.864
2588.139, 1209.564
2590.068, 1201.893
2591.996, 1192.197
2593.925, 1185.471
2595.853, 1182.931
2597.781, 1171.296
2599.710, 1147.845
2601.638, 1127.693
2603.567, 1110.984
2605.495, 1103.868
2607.424, 1111.611
2609.352, 1119.016
2611.281, 1127.438
2613.209, 1129.745
2615.138, 1125.080
2617.066, 1113.846
2618.995, 1089.978
2620.923, 1077.325
2622.852, 1087.907
2624.780, 1096.989
2626.708, 1104.668
2628.637, 1103.015
2630.565, 1085.235
2632.494, 1073.952
2634.422, 1080.813
2636.351, 1081.294
2638.279, 1060.927
2640.208, 1045.381
2642.136, 1042.406
2644.065, 1042.573
2645.993, 1046.633
2647.922, 1047.185
2649.850, 1039.644
2651.779, 1032.918
2653.707, 1028.094
2655.635, 1028.409
2657.564, 1040.019
2659.492, 1049.191
2661.421, 1052.388
2663.349, 1051.166
2665.278, 1042.822
2667.206, 1036.322
2669.135, 1037.705
2671.063, 1038.506
2672.992, 1037.188
2674.920, 1031.549
2676.849, 1015.537
2678.777, 1003.267
2680.706, 1001.300
2682.634, 1002.085
2684.563, 1004.871
2686.491, 1005.430
2688.419, 1000.451
2690.348, 994.9854
2692.276, 991.3962
2694.205, 987.4697
2696.133, 979.9974
2698.062, 975.8309
2699.990, 982.4324
2701.919, 986.9268
2703.847, 981.5350
2705.776, 975.4114
2707.704, 972.5150
2709.633, 970.0827
2711.561, 966.0284
2713.490, 964.2028
2715.418, 966.2831
2717.346, 971.2101
2719.275, 982.2257
2721.203, 990.1046
2723.132, 991.9605
2725.060, 988.1918
2726.989, 973.2066
2728.917, 963.4526
2730.846, 975.6179
2732.774, 979.9570
2734.703, 953.9725
2736.631, 936.1985
2738.560, 940.4550
2740.488, 950.8619
2742.417, 968.6250
2744.345, 977.7332
2746.273, 964.8465
2748.202, 953.8256
2750.130, 950.9229
2752.059, 953.1812
2753.987, 965.4639
2755.916, 968.7477
2757.844, 949.3200
2759.773, 938.7147
2761.701, 956.7592
2763.630, 966.1408
2765.558, 956.9554
2767.487, 944.2009
2769.415, 924.9091
2771.344, 921.2161
2773.272, 947.8869
2775.200, 965.7314
2777.129, 964.7266
2779.057, 957.1389
2780.986, 938.6887
2782.914, 933.5615
2784.843, 948.7390
2786.771, 958.5282
2788.700, 956.9106
2790.628, 954.6625
2792.557, 950.9835
2794.485, 952.0111
2796.414, 958.7722
2798.342, 961.7875
2800.271, 959.5357
2802.199, 959.6760
2804.127, 963.8907
2806.056, 965.8442
2807.984, 965.8246
2809.913, 960.2679
2811.841, 949.6011
2813.770, 943.2872
2815.698, 941.9366
2817.627, 944.4410
2819.555, 950.4941
2821.484, 951.1040
2823.412, 947.2643
2825.341, 945.1281
2827.269, 945.0701
2829.198, 949.5769
2831.126, 956.5610
2833.054, 957.2919
2834.983, 954.6802
2836.911, 959.5032
2838.840, 966.8151
2840.768, 962.2403
2842.697, 955.7417
2844.625, 970.6996
2846.554, 990.5092
2848.482, 986.7024
2850.411, 974.2190
2852.339, 967.1320
2854.268, 966.6268
2856.196, 980.1896
2858.125, 993.6839
2860.053, 991.4446
2861.981, 986.7334
2863.910, 987.8899
2865.838, 991.9296
2867.767, 1000.839
2869.695, 1006.295
2871.624, 997.5434
2873.552, 994.0908
2875.481, 1008.125
2877.409, 1020.295
2879.338, 1026.231
2881.266, 1024.915
2883.195, 1010.853
2885.123, 998.8587
2887.052, 989.2743
2888.980, 988.3533
2890.908, 999.3450
2892.837, 1007.271
2894.765, 1009.138
2896.694, 1008.601
2898.622, 1004.193
2900.551, 1006.753
2902.479, 1016.734
2904.408, 1019.854
2906.336, 1015.338
2908.265, 1015.149
2910.193, 1019.065
2912.122, 1022.427
2914.050, 1024.134
2915.979, 1012.924
2917.907, 998.0518
2919.835, 1011.472
2921.764, 1036.982
2923.692, 1036.226
2925.621, 1024.278
2927.549, 1023.827
2929.478, 1028.930
2931.406, 1034.653
2933.335, 1040.706
2935.263, 1049.667
2937.192, 1055.002
2939.120, 1049.250
2941.049, 1043.501
2942.977, 1041.986
2944.906, 1045.121
2946.834, 1053.833
2948.762, 1066.743
2950.691, 1088.040
2952.619, 1099.325
2954.548, 1091.297
2956.476, 1087.301
2958.405, 1097.303
2960.333, 1097.122
2962.262, 1084.499
2964.190, 1078.092
2966.119, 1079.421
2968.047, 1087.693
2969.976, 1102.331
2971.904, 1103.296
2973.833, 1093.851
2975.761, 1097.620
2977.689, 1107.219
2979.618, 1094.858
2981.546, 1078.163
2983.475, 1100.150
2985.403, 1133.238
2987.332, 1138.725
2989.260, 1135.735
2991.189, 1140.077
2993.117, 1145.045
2995.046, 1146.847
2996.974, 1145.454
2998.903, 1136.939
3000.831, 1133.542
3002.760, 1143.442
3004.688, 1153.570
3006.616, 1163.524
3008.545, 1167.059
3010.473, 1162.405
3012.402, 1158.470
3014.330, 1155.535
3016.259, 1160.787
3018.187, 1174.883
3020.116, 1184.574
3022.044, 1191.102
3023.973, 1205.755
3025.901, 1223.678
3027.830, 1225.454
3029.758, 1221.425
3031.687, 1236.895
3033.615, 1255.503
3035.543, 1254.076
3037.472, 1251.376
3039.400, 1267.507
3041.329, 1284.007
3043.257, 1289.673
3045.186, 1295.146
3047.114, 1308.564
3049.043, 1316.080
3050.971, 1305.484
3052.900, 1310.073
3054.828, 1335.791
3056.757, 1358.747
3058.685, 1376.080
3060.614, 1386.182
3062.542, 1388.989
3064.470, 1396.612
3066.399, 1407.771
3068.327, 1417.634
3070.256, 1425.838
3072.184, 1428.887
3074.113, 1432.060
3076.041, 1443.657
3077.970, 1458.776
3079.898, 1480.566
3081.827, 1493.593
3083.755, 1474.436
3085.684, 1467.495
3087.612, 1492.136
3089.541, 1516.944
3091.469, 1537.162
3093.397, 1544.605
3095.326, 1535.299
3097.254, 1538.105
3099.183, 1554.393
3101.111, 1563.659
3103.040, 1567.536
3104.968, 1588.201
3106.897, 1617.429
3108.825, 1629.185
3110.754, 1634.101
3112.682, 1646.212
3114.611, 1660.682
3116.539, 1671.467
3118.468, 1685.172
3120.396, 1710.142
3122.324, 1730.347
3124.253, 1733.291
3126.181, 1743.246
3128.110, 1765.266
3130.038, 1782.730
3131.967, 1790.305
3133.895, 1831.438
3135.824, 1907.063
3137.752, 1919.525
3139.681, 1894.041
3141.609, 1922.284
3143.538, 1975.688
3145.466, 2004.880
3147.395, 2025.242
3149.323, 2043.686
3151.251, 2075.780
3153.180, 2143.177
3155.108, 2207.904
3157.037, 2253.602
3158.965, 2299.143
3160.894, 2347.427
3162.822, 2396.124
3164.751, 2442.214
3166.679, 2504.559
3168.608, 2582.302
3170.536, 2666.970
3172.465, 2756.729
3174.393, 2843.900
3176.322, 2934.908
3178.250, 3045.024
3180.178, 3158.181
3182.107, 3253.231
3184.035, 3359.379
3185.964, 3496.380
3187.892, 3643.734
3189.821, 3801.161
3191.749, 3950.880
3193.678, 4086.833
3195.606, 4227.194
3197.535, 4371.537
3199.463, 4491.963
3201.392, 4601.193
3203.320, 4753.102
3205.249, 4918.940
3207.177, 5053.959
3209.105, 5168.201
3211.034, 5259.053
3212.962, 5353.920
3214.891, 5477.796
3216.819, 5593.344
3218.748, 5695.271
3220.676, 5774.907
3222.605, 5818.657
3224.533, 5899.205
3226.462, 6011.198
3228.390, 6071.967
3230.319, 6088.551
3232.247, 6077.753
3234.176, 6056.923
3236.104, 6057.056
3238.032, 6053.101
3239.961, 6030.083
3241.889, 5994.283
3243.818, 5926.117
3245.746, 5892.667
3247.675, 5907.931
3249.603, 5913.953
3251.532, 5902.055
3253.460, 5894.721
3255.389, 5897.386
3257.317, 5946.430
3259.246, 6017.922
3261.174, 6075.620
3263.103, 6130.637
3265.031, 6198.518
3266.959, 6257.515
3268.888, 6290.016
3270.816, 6326.502
3272.745, 6382.997
3274.673, 6401.582
3276.602, 6377.827
3278.530, 6330.743
3280.459, 6271.122
3282.387, 6253.555
3284.316, 6254.575
3286.244, 6244.608
3288.173, 6215.807
3290.101, 6139.931
3292.030, 6079.733
3293.958, 6074.879
3295.886, 6045.234
3297.815, 5944.002
3299.743, 5883.271
3301.672, 5862.723
3303.600, 5822.752
3305.529, 5772.612
3307.457, 5749.002
3309.386, 5743.524
3311.314, 5746.757
3313.243, 5757.010
3315.171, 5779.169
3317.100, 5797.789
3319.028, 5805.465
3320.957, 5822.095
3322.885, 5851.065
3324.813, 5899.049
3326.742, 5965.276
3328.670, 6038.596
3330.599, 6126.289
3332.527, 6242.169
3334.456, 6376.968
3336.384, 6536.837
3338.313, 6685.106
3340.241, 6774.227
3342.170, 6928.234
3344.098, 7183.810
3346.027, 7463.972
3347.955, 7766.283
3349.884, 8081.870
3351.812, 8419.211
3353.740, 8789.220
3355.669, 9224.518
3357.597, 9779.739
3359.526, 10369.60
3361.454, 10956.14
3363.383, 11539.57
3365.311, 12106.01
3367.240, 12778.69
3369.168, 13577.12
3371.097, 14302.89
3373.025, 14990.40
3374.954, 15742.63
3376.882, 16508.73
3378.811, 17235.09
3380.739, 17939.43
3382.667, 18658.79
3384.596, 19302.69
3386.524, 19861.41
3388.453, 20274.84
3390.381, 20546.64
3392.310, 20742.68
3394.238, 20885.79
3396.167, 21006.66
3398.095, 21120.19
3400.024, 21198.56
3401.952, 21346.27
3403.881, 21598.60
3405.809, 21976.45
3407.738, 22479.47
3409.666, 23132.12
3411.594, 23929.08
3413.523, 24865.47
3415.451, 25916.80
3417.380, 27023.88
3419.308, 28211.94
3421.237, 29547.29
3423.165, 30887.52
3425.094, 32175.64
3427.022, 33484.91
3428.951, 34840.96
3430.879, 36077.06
3432.808, 37191.28
3434.736, 38236.60
3436.665, 39147.62
3438.593, 39831.83
3440.521, 40323.28
3442.450, 40706.82
3444.378, 40759.92
3446.307, 40453.39
3448.235, 39749.36
3450.164, 38661.86
3452.092, 37425.01
3454.021, 36106.34
3455.949, 34775.01
3457.878, 33542.30
3459.806, 32446.75
3461.735, 31574.96
3463.663, 30930.81
3465.592, 30526.40
3467.520, 30376.75
3469.448, 30634.87
3471.377, 31237.39
3473.305, 32030.29
3475.234, 32995.90
3477.162, 34084.80
3479.091, 35439.71
3481.019, 37138.04
3482.948, 38914.81
3484.876, 40706.08
3486.805, 42720.94
3488.733, 44918.62
3490.662, 47169.77
3492.590, 49430.86
3494.519, 51767.73
3496.447, 53867.09
3498.375, 55569.73
3500.304, 57086.29
3502.232, 58506.47
3504.161, 59264.31
3506.089, 59359.90
3508.018, 58945.07
3509.946, 58165.24
3511.875, 57060.47
3513.803, 55934.09
3515.732, 54915.29
3517.660, 53935.22
3519.589, 52975.44
3521.517, 52309.66
3523.446, 51885.07
3525.374, 51474.31
3527.302, 51152.89
3529.231, 50958.55
3531.159, 50945.31
3533.088, 51109.11
3535.016, 51604.93
3536.945, 52459.08
3538.873, 53341.54
3540.802, 54230.86
3542.730, 55172.63
3544.659, 56017.88
3546.587, 56706.17
3548.516, 57071.88
3550.444, 57079.71
3552.373, 56775.20
3554.301, 56158.73
3556.229, 55467.11
3558.158, 54790.89
3560.086, 54294.07
3562.015, 53958.36
3563.943, 53743.88
3565.872, 53774.39
3567.800, 54126.46
3569.729, 54442.83
3571.657, 54690.66
3573.586, 54803.65
3575.514, 54754.14
3577.443, 54389.21
3579.371, 54035.15
3581.300, 53778.66
3583.228, 53825.55
3585.156, 54229.45
3587.085, 54949.75
3589.013, 55943.39
3590.942, 57131.17
3592.870, 58372.77
3594.799, 59688.04
3596.727, 60684.89
3598.656, 61197.24
3600.584, 61432.14
3602.513, 61419.32
3604.441, 61148.32
3606.370, 60708.39
3608.298, 60238.83
3610.227, 59651.91
3612.155, 58912.91
3614.083, 58025.96
3616.012, 57008.26
3617.940, 55804.31
3619.869, 54354.00
3621.797, 52484.79
3623.726, 50369.86
3625.654, 48155.38
3627.583, 45813.75
3629.511, 43250.96
3631.440, 40759.04
3633.368, 38354.01
3635.297, 36055.52
3637.225, 33858.73
3639.154, 31725.44
3641.082, 29761.24
3643.010, 27989.53
3644.939, 26486.28
3646.867, 25239.76
3648.796, 24131.57
3650.724, 23150.63
3652.653, 22287.50
3654.581, 21575.64
3656.510, 21051.33
3658.438, 20639.52
3660.367, 20326.24
3662.295, 19996.47
3664.224, 19687.07
3666.152, 19552.19
3668.081, 19460.09
3670.009, 19275.20
3671.938, 19171.69
3673.866, 19203.29
3675.794, 19247.57
3677.723, 19290.70
3679.651, 19289.89
3681.580, 19296.61
3683.508, 19373.75
3685.437, 19446.78
3687.365, 19464.28
3689.294, 19598.23
3691.222, 19823.66
3693.151, 19940.10
3695.079, 20060.83
3697.008, 20365.93
3698.936, 20626.53
3700.865, 20684.93
3702.793, 20872.69
3704.721, 21177.53
3706.650, 21469.37
3708.578, 21739.83
3710.507, 21971.89
3712.435, 22202.54
3714.364, 22477.36
3716.292, 22661.40
3718.221, 22765.57
3720.149, 22903.94
3722.078, 23033.56
3724.006, 23091.48
3725.935, 23121.79
3727.863, 23093.21
3729.792, 23212.52
3731.720, 23447.52
3733.648, 23513.33
3735.577, 23563.11
3737.505, 23846.68
3739.434, 24081.25
3741.362, 24066.53
3743.291, 24246.99
3745.219, 24583.77
3747.148, 24805.74
3749.076, 25034.01
3751.005, 25406.70
3752.933, 25856.85
3754.862, 26399.76
3756.790, 26887.13
3758.719, 27349.22
3760.647, 27946.91
3762.575, 28552.14
3764.504, 29042.89
3766.432, 29494.34
3768.361, 29880.44
3770.289, 30483.43
3772.218, 31192.16
3774.146, 31664.00
3776.075, 32109.08
3778.003, 32719.51
3779.932, 33229.28
3781.860, 33559.64
3783.789, 34021.86
3785.717, 34518.37
3787.646, 34853.75
3789.574, 35127.61
3791.502, 35404.51
3793.431, 35582.07
3795.359, 35646.19
3797.288, 35570.36
3799.216, 35480.50
3801.145, 35597.78
3803.073, 35656.25
3805.002, 35529.16
3806.930, 35626.42
3808.859, 35943.22
3810.787, 36311.11
3812.716, 36712.93
3814.644, 37039.30
3816.573, 37648.09
3818.501, 38620.51
3820.429, 39446.30
3822.358, 40183.09
3824.286, 41022.64
3826.215, 41943.30
3828.143, 42983.96
3830.072, 43982.43
3832.000, 44924.02
3833.929, 45794.19
3835.857, 46696.05
3837.786, 47732.77
3839.714, 48954.14
3841.643, 50409.87
3843.571, 51965.36
3845.500, 53623.03
3847.428, 55397.47
3849.356, 57279.80
3851.285, 59241.18
3853.213, 61358.98
3855.142, 63648.74
3857.070, 65718.51
3858.999, 67676.22
3860.927, 69768.68
3862.856, 71713.79
3864.784, 73352.85
3866.713, 75016.21
3868.641, 76713.24
3870.570, 78398.76
3872.498, 80035.55
3874.427, 81516.05
3876.355, 83345.56
3878.283, 85670.47
3880.212, 87847.90
3882.140, 89933.78
3884.069, 91948.20
3885.997, 94117.95
3887.926, 96546.02
3889.854, 98757.20
3891.783, 100728.0
3893.711, 102524.0
3895.640, 104139.5
3897.568, 105575.4
3899.497, 106721.5
3901.425, 107562.9
3903.354, 108061.0
3905.282, 108300.7
3907.210, 108444.1
3909.139, 108183.7
3911.067, 107442.4
3912.996, 106289.8
3914.924, 104769.0
3916.853, 103026.7
3918.781, 101058.2
3920.710, 98883.90
3922.638, 96372.99
3924.567, 93564.33
3926.495, 90762.20
3928.424, 87968.16
3930.352, 85112.15
3932.281, 82207.25
3934.209, 79224.80
3936.137, 76202.23
3938.066, 73195.84
3939.994, 70256.02
3941.923, 67352.62
3943.851, 64439.75
3945.780, 61445.84
3947.708, 58450.66
3949.637, 55531.33
3951.565, 52718.26
3953.494, 50079.68
3955.422, 47403.41
3957.351, 44730.76
3959.279, 42272.10
3961.208, 40061.90
3963.136, 37990.29
3965.064, 36036.07
3966.993, 34224.37
3968.921, 32648.53
3970.850, 31198.21
3972.778, 29692.32
3974.707, 28318.67
3976.635, 27158.08
3978.564, 25994.00
3980.492, 24878.02
3982.421, 23901.58
3984.349, 22980.57
3986.278, 22100.18
3988.206, 21320.63
3990.135, 20578.05
3992.063, 19820.07
3993.991, 19142.71
3995.920, 18560.83
3997.848, 17937.10
3999.777, 17330.60
4001.705, 16896.77
4003.634, 16498.27
4005.562, 16047.37
4007.491, 15626.20
4009.419, 15236.30
4011.348, 14907.54
4013.276, 14577.70
4015.205, 14199.34
4017.133, 13857.65
4019.062, 13556.83
4020.990, 13260.62
4022.918, 12961.74
4024.847, 12692.17
4026.775, 12427.78
4028.704, 12169.46
4030.632, 11914.89
4032.561, 11656.17
4034.489, 11410.15
4036.418, 11132.79
4038.346, 10835.57
4040.275, 10624.21
4042.203, 10447.10
4044.132, 10250.67
4046.060, 10030.67
4047.989, 9815.368
4049.917, 9630.129
4051.845, 9457.991
4053.774, 9301.754
4055.702, 9138.484
4057.631, 8958.920
4059.559, 8793.598
4061.488, 8647.531
4063.416, 8534.050
4065.345, 8372.552
4067.273, 8158.325
4069.202, 8045.054
4071.130, 7973.415
4073.059, 7859.142
4074.987, 7746.702
4076.916, 7647.667
4078.844, 7537.975
4080.772, 7428.745
4082.701, 7341.456
4084.629, 7253.771
4086.558, 7157.634
4088.486, 7079.762
4090.415, 7022.834
4092.343, 7014.777
4094.272, 6963.118
4096.200, 6828.141
4098.129, 6724.190
4100.057, 6647.944
4101.986, 6619.327
4103.914, 6599.292
4105.843, 6561.428
4107.771, 6501.591
4109.700, 6425.694
4111.628, 6367.218
4113.557, 6317.917
4115.485, 6264.344
4117.414, 6229.993
4119.342, 6197.147
4121.271, 6143.766
4123.199, 6091.911
4125.127, 6037.305
4127.056, 5984.000
4128.984, 5941.246
4130.913, 5883.418
4132.841, 5832.751
4134.770, 5789.195
4136.698, 5748.891
4138.626, 5725.136
4140.555, 5711.616
4142.483, 5706.770
4144.412, 5715.342
4146.340, 5673.980
4148.269, 5590.975
4150.197, 5607.326
4152.126, 5639.411
4154.054, 5589.698
4155.983, 5544.024
4157.911, 5541.214
4159.840, 5573.930
4161.768, 5562.816
4163.697, 5507.057
4165.625, 5475.779
4167.554, 5435.120
4169.482, 5378.752
4171.411, 5325.453
4173.339, 5245.513
4175.268, 5174.767
4177.196, 5131.378
4179.125, 5108.064
4181.053, 5063.098
4182.981, 4965.124
4184.910, 4906.798
4186.838, 4886.408
4188.767, 4841.751
4190.695, 4787.433
4192.624, 4728.692
4194.552, 4679.020
4196.480, 4646.068
4198.409, 4605.324
4200.337, 4561.630
4202.266, 4523.319
4204.194, 4532.761
4206.123, 4558.861
4208.051, 4535.042
4209.980, 4505.186
4211.908, 4475.414
4213.837, 4475.804
4215.765, 4492.707
4217.694, 4481.009
4219.622, 4450.084
4221.551, 4401.868
4223.479, 4355.952
4225.408, 4323.440
4227.336, 4343.423
4229.265, 4327.579
4231.193, 4250.370
4233.122, 4229.395
4235.050, 4225.802
4236.979, 4188.131
4238.907, 4165.823
4240.835, 4158.269
4242.764, 4077.482
4244.692, 4000.391
4246.621, 4008.055
4248.549, 3976.426
4250.478, 3915.660
4252.406, 3913.310
4254.334, 3914.472
4256.263, 3888.207
4258.191, 3842.418
4260.120, 3802.976
4262.048, 3852.965
4263.977, 3867.116
4265.905, 3794.538
4267.834, 3760.011
4269.762, 3751.648
4271.691, 3760.985
4273.619, 3725.795
4275.548, 3640.159
4277.476, 3642.285
4279.405, 3664.154
4281.333, 3626.513
4283.262, 3611.451
4285.190, 3616.344
4287.119, 3574.448
4289.047, 3524.372
4290.976, 3491.875
4292.904, 3456.431
4294.833, 3423.312
4296.761, 3416.122
4298.689, 3395.579
4300.618, 3345.804
4302.546, 3283.387
4304.475, 3228.327
4306.403, 3210.930
4308.332, 3201.582
4310.260, 3192.800
4312.188, 3164.834
4314.117, 3135.813
4316.045, 3123.737
4317.974, 3116.090
4319.902, 3099.602
4321.831, 3012.388
4323.759, 2944.315
4325.688, 2957.779
4327.616, 2923.429
4329.545, 2868.702
4331.473, 2837.271
4333.402, 2814.175
4335.330, 2795.235
4337.259, 2730.477
4339.187, 2663.805
4341.116, 2633.529
4343.044, 2615.302
4344.973, 2600.429
4346.901, 2561.342
4348.830, 2522.020
4350.758, 2491.199
4352.687, 2470.027
4354.615, 2450.768
4356.543, 2415.700
4358.472, 2409.069
4360.400, 2432.624
4362.329, 2405.046
4364.257, 2363.235
4366.186, 2325.641
4368.114, 2315.021
4370.042, 2318.580
4371.971, 2307.423
4373.899, 2291.168
4375.828, 2272.405
4377.756, 2245.315
4379.685, 2223.552
4381.613, 2229.685
4383.542, 2195.633
4385.470, 2141.421
4387.399, 2163.564
4389.327, 2184.653
4391.256, 2171.872
4393.184, 2148.234
4395.113, 2129.110
4397.041, 2141.138
4398.970, 2139.393
4400.898, 2120.788
4402.827, 2108.117
4404.755, 2095.370
4406.684, 2076.719
4408.612, 2072.974
4410.541, 2071.212
4412.469, 2045.677
4414.397, 2025.328
4416.326, 2015.001
4418.254, 2005.422
4420.183, 2003.689
4422.111, 2015.844
4424.040, 2016.298
4425.968, 2008.821
4427.896, 1998.770
4429.825, 1997.508
4431.753, 2004.519
4433.682, 2010.028
4435.610, 1997.696
4437.539, 1950.114
4439.467, 1935.214
4441.396, 1939.175
4443.324, 1929.898
4445.253, 1924.638
4447.181, 1927.156
4449.110, 1936.161
4451.038, 1949.393
4452.967, 1970.170
4454.895, 1965.404
4456.824, 1946.447
4458.752, 1929.549
4460.681, 1923.033
4462.609, 1926.245
4464.538, 1923.636
4466.466, 1919.472
4468.395, 1915.995
4470.323, 1908.415
4472.251, 1901.052
4474.180, 1898.802
4476.108, 1901.422
4478.037, 1908.972
4479.965, 1926.860
4481.894, 1937.456
4483.822, 1931.493
4485.750, 1919.892
4487.679, 1910.523
4489.607, 1915.169
4491.536, 1906.525
4493.464, 1891.501
4495.393, 1901.094
4497.321, 1923.478
4499.250, 1950.404
4501.178, 1908.972
4503.107, 1860.808
4505.035, 1847.907
4506.964, 1869.080
4508.892, 1900.830
4510.821, 1899.387
4512.749, 1904.408
4514.678, 1917.863
4516.606, 1884.891
4518.535, 1861.285
4520.463, 1877.560
4522.392, 1853.215
4524.320, 1823.116
4526.249, 1827.939
4528.177, 1830.236
4530.105, 1827.951
4532.034, 1825.994
4533.962, 1833.798
4535.891, 1850.965
4537.819, 1841.277
4539.748, 1818.861
4541.676, 1784.387
4543.604, 1790.865
4545.533, 1807.628
4547.461, 1786.640
4549.390, 1778.439
4551.318, 1785.658
4553.247, 1800.061
4555.175, 1796.613
4557.104, 1771.106
4559.032, 1753.949
4560.961, 1745.301
4562.889, 1750.738
4564.818, 1736.928
4566.746, 1717.852
4568.675, 1715.966
4570.603, 1712.056
4572.532, 1708.436
4574.460, 1734.164
4576.389, 1739.788
4578.317, 1716.411
4580.246, 1709.606
4582.174, 1701.446
4584.103, 1674.828
4586.031, 1675.469
4587.959, 1682.927
4589.888, 1661.901
4591.816, 1669.829
4593.745, 1694.753
4595.673, 1682.956
4597.602, 1681.270
4599.530, 1695.744
4601.458, 1701.640
4603.387, 1695.801
4605.315, 1674.846
4607.244, 1671.598
4609.172, 1676.010
4611.101, 1677.442
4613.029, 1690.725
4614.958, 1705.529
4616.886, 1702.714
4618.815, 1697.711
4620.743, 1689.487
4622.672, 1658.173
4624.600, 1638.484
4626.529, 1640.248
4628.457, 1633.744
4630.386, 1629.140
4632.314, 1633.713
4634.243, 1617.184
4636.171, 1596.966
4638.100, 1587.953
4640.028, 1594.354
4641.957, 1606.273
4643.885, 1608.106
4645.813, 1605.560
4647.742, 1600.174
4649.670, 1595.422
4651.599, 1581.907
4653.527, 1561.797
4655.456, 1590.621
4657.384, 1604.636
4659.313, 1575.774
4661.241, 1597.371
4663.169, 1632.216
4665.098, 1649.505
4667.026, 1654.520
4668.955, 1647.167
4670.883, 1620.196
4672.812, 1619.424
4674.740, 1635.105
4676.669, 1629.736
4678.597, 1649.221
4680.526, 1687.681
4682.454, 1671.834
4684.383, 1668.525
4686.311, 1694.770
4688.240, 1705.776
4690.168, 1715.553
4692.097, 1730.163
4694.025, 1709.828
4695.954, 1690.822
4697.882, 1703.428
4699.811, 1736.322
4701.739, 1764.155
4703.667, 1759.533
4705.596, 1740.275
4707.524, 1715.773
4709.453, 1689.868
4711.381, 1693.704
4713.310, 1714.170
4715.238, 1707.415
4717.167, 1674.244
4719.095, 1624.246
4721.023, 1603.850
4722.952, 1598.926
4724.880, 1601.067
4726.809, 1577.843
4728.737, 1543.785
4730.666, 1504.087
4732.594, 1504.747
4734.523, 1505.513
4736.451, 1482.411
4738.380, 1464.938
4740.308, 1451.825
4742.237, 1443.452
4744.165, 1420.842
4746.094, 1399.029
4748.022, 1395.554
4749.951, 1411.621
4751.879, 1428.670
4753.808, 1421.616
4755.736, 1389.086
4757.665, 1345.425
4759.593, 1319.604
4761.521, 1313.717
4763.450, 1321.615
4765.378, 1330.339
4767.307, 1323.979
4769.235, 1301.632
4771.164, 1271.231
4773.092, 1257.641
4775.021, 1262.852
4776.949, 1230.172
4778.877, 1213.790
4780.806, 1231.486
4782.734, 1240.219
4784.663, 1239.141
4786.591, 1227.945
4788.520, 1221.565
4790.448, 1211.853
4792.377, 1194.120
4794.305, 1195.775
4796.234, 1197.530
4798.162, 1181.545
4800.091, 1185.400
4802.019, 1194.033
4803.948, 1194.425
4805.876, 1201.007
4807.805, 1202.715
4809.733, 1185.341
4811.662, 1162.107
4813.590, 1141.147
4815.519, 1130.782
4817.447, 1130.500
4819.375, 1126.778
4821.304, 1085.400
4823.232, 1103.725
4825.161, 1142.247
4827.089, 1125.131
4829.018, 1120.772
4830.946, 1123.203
4832.875, 1100.519
4834.803, 1097.621
4836.731, 1104.064
4838.660, 1083.721
4840.588, 1083.748
4842.517, 1096.548
4844.445, 1089.852
4846.374, 1084.373
4848.302, 1084.659
4850.231, 1097.247
4852.159, 1106.267
4854.088, 1106.850
4856.016, 1090.153
4857.945, 1075.134
4859.873, 1071.622
4861.802, 1108.744
4863.730, 1127.954
4865.659, 1123.375
4867.587, 1104.515
4869.516, 1093.789
4871.444, 1088.391
4873.373, 1057.977
4875.301, 1056.460
4877.229, 1080.919
4879.158, 1098.943
4881.086, 1101.260
4883.015, 1092.608
4884.943, 1093.860
4886.872, 1080.903
4888.800, 1061.998
4890.729, 1082.155
4892.657, 1081.752
4894.585, 1061.633
4896.514, 1047.290
4898.442, 1041.386
4900.371, 1041.785
4902.299, 1045.180
4904.228, 1037.814
4906.156, 1026.989
4908.085, 1037.530
4910.013, 1039.226
4911.942, 1030.699
4913.870, 1013.310
4915.799, 1021.942
4917.727, 1041.209
4919.656, 1032.457
4921.584, 1030.345
4923.513, 1030.101
4925.441, 1013.441
4927.370, 1016.665
4929.298, 1028.997
4931.227, 1032.827
4933.155, 1005.753
4935.083, 980.6444
4937.012, 1005.156
4938.940, 1018.345
4940.869, 1019.174
4942.797, 1011.244
4944.726, 1003.383
4946.654, 1000.956
4948.583, 1011.587
4950.511, 1002.381
4952.439, 992.4187
4954.368, 997.5161
4956.296, 1001.949
4958.225, 1003.428
4960.153, 1000.733
4962.082, 997.6425
4964.010, 988.6890
4965.939, 972.5657
4967.867, 968.6256
4969.796, 978.3795
4971.724, 1000.283
4973.653, 959.4164
4975.581, 945.8671
4977.510, 979.2734
4979.438, 968.8790
4981.367, 966.4421
4983.295, 978.2582
4985.224, 961.0793
4987.152, 961.9280
4989.081, 983.8060
4991.009, 1008.990
4992.938, 1012.254
4994.866, 1003.051
4996.794, 1010.373
4998.723, 1006.127
5000.651, 996.9285
5002.580, 999.5535
5004.508, 985.3892
5006.437, 974.7120
5008.365, 996.1450
5010.293, 984.9270
5012.222, 975.3992
5014.150, 1005.158
5016.079, 995.3409
5018.007, 985.2120
5019.936, 995.4915
5021.864, 987.3670
5023.793, 988.1712
5025.721, 1007.362
5027.650, 995.0521
5029.578, 986.8044
5031.507, 990.4052
5033.435, 992.5143
5035.364, 988.1617
5037.292, 984.8957
5039.221, 1010.700
5041.149, 1019.383
5043.078, 1013.300
5045.006, 1006.319
5046.935, 992.4890
5048.863, 980.9078
5050.792, 980.8962
5052.720, 1001.083
5054.648, 1019.690
5056.577, 1021.393
5058.505, 1020.878
5060.434, 1016.108
5062.362, 1007.514
5064.291, 1011.633
5066.219, 996.2196
5068.147, 960.6154
5070.076, 944.6187
5072.004, 958.7750
5073.933, 981.6274
5075.861, 957.6303
5077.790, 949.7845
5079.718, 952.6376
5081.647, 947.5946
5083.575, 949.1973
5085.504, 951.0169
5087.432, 947.5591
5089.361, 927.9351
5091.289, 911.6138
5093.218, 908.9470
5095.146, 927.2597
5097.075, 934.8339
5099.003, 924.4702
5100.932, 903.0759
5102.860, 901.6807
5104.789, 913.0067
5106.717, 912.3286
5108.646, 913.7953
5110.574, 909.0821
5112.502, 878.8412
5114.431, 887.1841
5116.359, 898.6036
5118.288, 891.7855
5120.216, 889.2331
5122.145, 899.6136
5124.073, 919.6049
5126.001, 910.7476
5127.930, 914.5844
5129.858, 921.3597
5131.787, 881.4061
5133.715, 884.4084
5135.644, 905.7744
5137.572, 904.7859
5139.501, 902.6232
5141.429, 903.2294
5143.358, 908.1587
5145.286, 919.0404
5147.215, 920.2007
5149.143, 911.5002
5151.072, 910.7526
5153.000, 915.3732
5154.929, 923.4069
5156.857, 934.9153
5158.786, 936.7576
5160.714, 933.3983
5162.643, 929.6193
5164.571, 934.1996
5166.500, 935.7063
5168.428, 930.5309
5170.356, 937.0378
5172.285, 938.1662
5174.213, 934.5045
5176.142, 939.9117
5178.070, 945.5630
5179.999, 942.9398
5181.927, 921.8949
5183.855, 943.0743
5185.784, 957.5011
5187.712, 936.3733
5189.641, 955.7104
5191.569, 966.0650
5193.498, 961.9546
5195.426, 971.7037
5197.355, 978.3358
5199.283, 978.9342
5201.212, 972.0939
5203.140, 960.8915
5205.069, 963.5104
5206.997, 988.3950
5208.926, 985.4596
5210.854, 984.0311
5212.783, 989.8002
5214.711, 999.3836
5216.640, 990.2166
5218.568, 979.4128
5220.497, 988.2615
5222.425, 1028.623
5224.354, 1030.879
5226.282, 977.2844
5228.210, 1010.694
5230.139, 1032.245
5232.067, 1028.480
5233.996, 1017.076
5235.924, 1038.087
5237.853, 1072.929
5239.781, 1103.820
5241.709, 1073.841
5243.638, 1072.429
5245.566, 1118.567
5247.495, 1143.416
5249.423, 1147.175
5251.352, 1147.586
5253.280, 1172.572
5255.209, 1197.094
5257.137, 1214.998
5259.066, 1225.656
5260.994, 1250.472
5262.923, 1292.649
5264.851, 1339.338
5266.780, 1351.887
5268.708, 1395.809
5270.637, 1448.243
5272.565, 1482.007
5274.494, 1535.186
5276.422, 1579.004
5278.351, 1609.505
5280.279, 1649.925
5282.208, 1697.911
5284.136, 1755.254
5286.064, 1833.243
5287.993, 1866.416
5289.921, 1900.233
5291.850, 1952.359
5293.778, 1990.855
5295.707, 2010.292
5297.635, 2022.462
5299.563, 2045.507
5301.492, 2083.984
5303.420, 2108.188
5305.349, 2101.251
5307.277, 2054.998
5309.206, 2066.862
5311.134, 2118.166
5313.063, 2132.811
5314.991, 2156.856
5316.920, 2188.436
5318.848, 2224.256
5320.777, 2278.373
5322.705, 2346.947
5324.634, 2429.184
5326.562, 2532.804
5328.491, 2598.719
5330.419, 2679.100
5332.348, 2804.005
5334.276, 2882.980
5336.205, 2992.676
5338.133, 3139.050
5340.062, 3300.344
5341.990, 3437.425
5343.918, 3539.727
5345.847, 3609.187
5347.775, 3768.273
5349.704, 3892.259
5351.632, 3997.807
5353.561, 4172.705
5355.489, 4318.856
5357.417, 4429.856
5359.346, 4504.861
5361.274, 4506.054
5363.203, 4518.077
5365.131, 4514.732
5367.060, 4429.910
5368.988, 4261.131
5370.917, 4116.290
5372.845, 4038.573
5374.774, 3958.852
5376.702, 3968.467
5378.631, 3998.067
5380.559, 3924.599
5382.488, 3980.959
5384.416, 4029.950
5386.345, 4048.573
5388.273, 4158.474
5390.202, 4186.830
5392.130, 4192.899
5394.059, 4245.506
5395.987, 4268.352
5397.916, 4238.871
5399.844, 4187.732
5401.772, 4200.784
5403.701, 4174.890
5405.629, 4152.578
5407.558, 4151.146
5409.486, 4057.040
5411.415, 4053.552
5413.343, 4080.764
5415.271, 4016.150
5417.200, 3972.802
5419.128, 3969.608
5421.057, 3987.625
5422.985, 3919.286
5424.914, 3972.218
5426.842, 4067.776
5428.771, 4129.084
5430.699, 4216.477
5432.628, 4356.797
5434.556, 4517.911
5436.485, 4644.563
5438.413, 4713.140
5440.342, 4845.503
5442.270, 5062.491
5444.199, 5200.348
5446.127, 5384.665
5448.056, 5572.474
5449.984, 5719.531
5451.913, 5926.185
5453.841, 6164.412
5455.770, 6355.284
5457.698, 6369.603
5459.626, 6423.280
5461.555, 6467.073
5463.483, 6476.762
5465.412, 6477.690
5467.340, 6369.301
5469.269, 6263.602
5471.197, 6241.917
5473.125, 6155.239
5475.054, 6097.053
5476.982, 6062.125
5478.911, 6006.840
5480.839, 6040.800
5482.768, 6108.222
5484.696, 6169.605
5486.625, 6168.107
5488.553, 6243.652
5490.482, 6388.203
5492.410, 6572.326
5494.339, 6713.698
5496.267, 6867.442
5498.196, 7051.729
5500.124, 7273.748
5502.053, 7536.999
5503.981, 7740.230
5505.910, 7942.933
5507.838, 8323.450
5509.767, 8438.139
5511.695, 8523.690
5513.624, 8658.016
5515.552, 8791.787
5517.480, 8863.139
5519.409, 8936.033
5521.337, 9055.689
5523.266, 9266.961
5525.194, 9383.150
5527.123, 9449.336
5529.051, 9522.955
5530.979, 9610.068
5532.908, 9698.189
5534.836, 9789.377
5536.765, 9889.377
5538.693, 9986.099
5540.622, 10083.17
5542.550, 10196.89
5544.479, 10349.86
5546.407, 10550.56
5548.336, 10801.07
5550.264, 11069.16
5552.193, 11260.32
5554.121, 11523.23
5556.050, 11678.82
5557.978, 11674.12
5559.907, 11688.65
5561.835, 11600.97
5563.764, 11397.74
5565.692, 11110.51
5567.621, 10893.16
5569.549, 10580.83
5571.478, 10300.45
5573.406, 10155.05
5575.334, 9895.650
5577.263, 9587.009
5579.191, 9258.606
5581.120, 8920.851
5583.048, 8628.396
5584.977, 8364.335
5586.905, 8184.469
5588.833, 8161.934
5590.762, 8320.134
5592.690, 8580.949
5594.619, 8905.339
5596.547, 9277.087
5598.476, 9570.858
5600.404, 9962.020
5602.333, 10452.42
5604.261, 10932.95
5606.190, 11443.40
5608.118, 11905.68
5610.047, 12223.81
5611.975, 12263.34
5613.904, 12242.32
5615.832, 11936.86
5617.761, 11361.49
5619.689, 10747.84
5621.618, 10156.64
5623.546, 9574.310
5625.475, 9017.711
5627.403, 8538.813
5629.332, 8131.290
5631.260, 7842.769
5633.188, 7670.444
5635.117, 7584.702
5637.045, 7329.419
5638.974, 7115.256
5640.902, 6988.145
5642.831, 6775.807
5644.759, 6673.482
5646.688, 6550.248
5648.616, 6403.132
5650.544, 6425.228
5652.473, 6323.118
5654.401, 6213.249
5656.330, 6164.388
5658.258, 6193.545
5660.187, 6149.590
5662.115, 6063.828
5664.044, 5970.168
5665.972, 5925.352
5667.901, 5739.681
5669.829, 5555.078
5671.758, 5412.168
5673.686, 5256.644
5675.615, 5205.161
5677.543, 5157.442
5679.472, 5107.683
5681.400, 5121.793
5683.329, 5192.632
5685.257, 5276.714
5687.186, 5354.415
5689.114, 5438.240
5691.042, 5311.744
5692.971, 5134.703
5694.899, 4945.035
5696.828, 4723.459
5698.756, 4371.771
5700.685, 4032.415
5702.613, 3755.994
5704.542, 3550.060
5706.470, 3338.016
5708.398, 3255.356
5710.327, 3267.753
5712.255, 3319.814
5714.184, 3468.688
5716.112, 3576.090
5718.041, 3688.634
5719.969, 3860.183
5721.898, 4108.136
5723.826, 4303.808
5725.755, 4529.022
5727.683, 4788.984
5729.612, 4861.584
5731.540, 4943.948
5733.469, 4961.106
5735.397, 4851.263
5737.326, 4571.655
5739.254, 4199.097
5741.183, 3835.276
5743.111, 3496.759
5745.040, 3154.078
5746.968, 2755.612
5748.896, 2481.558
5750.825, 2316.709
5752.753, 2186.017
5754.682, 2050.713
5756.610, 1961.127
5758.539, 1889.770
5760.467, 1809.921
5762.396, 1745.664
5764.324, 1707.480
5766.252, 1701.642
5768.181, 1713.020
5770.109, 1685.803
5772.038, 1684.118
5773.966, 1665.245
5775.895, 1640.647
5777.823, 1660.924
5779.752, 1635.047
5781.680, 1614.379
5783.609, 1614.848
5785.537, 1631.791
5787.466, 1627.115
5789.394, 1638.032
5791.323, 1649.084
5793.251, 1646.742
5795.180, 1638.891
5797.108, 1647.788
5799.037, 1654.218
5800.965, 1643.101
5802.894, 1586.595
5804.822, 1647.790
5806.750, 1651.059
5808.679, 1615.718
5810.607, 1630.978
5812.536, 1616.614
5814.464, 1628.745
5816.393, 1634.142
5818.321, 1618.421
5820.250, 1649.247
5822.178, 1682.962
5824.106, 1692.202
5826.035, 1676.863
5827.963, 1654.261
5829.892, 1669.653
5831.820, 1688.029
5833.749, 1687.653
5835.677, 1667.067
5837.606, 1695.445
5839.534, 1688.329
5841.463, 1702.255
5843.391, 1748.486
5845.320, 1753.904
5847.248, 1744.083
5849.177, 1760.990
5851.105, 1781.183
5853.034, 1762.232
5854.962, 1801.734
5856.891, 1849.228
5858.819, 1872.769
5860.748, 1859.982
5862.676, 1808.713
5864.604, 1852.117
5866.533, 1898.877
5868.461, 1905.776
5870.390, 1874.310
5872.318, 1902.867
5874.247, 1894.631
5876.175, 1892.629
5878.104, 1923.716
5880.032, 1952.282
5881.960, 1908.016
5883.889, 1902.408
5885.817, 1920.491
5887.746, 1902.073
5889.674, 1938.224
5891.603, 1953.151
5893.531, 1931.773
5895.460, 1893.890
5897.388, 1904.742
5899.317, 1868.585
5901.245, 1855.406
5903.174, 1854.689
5905.102, 1832.809
5907.031, 1804.583
5908.959, 1785.766
5910.888, 1783.530
5912.816, 1782.946
5914.745, 1752.078
5916.673, 1747.099
5918.602, 1716.096
5920.530, 1682.374
5922.458, 1661.741
5924.387, 1600.913
5926.315, 1583.996
5928.244, 1587.357
5930.172, 1582.074
5932.101, 1555.160
5934.029, 1561.165
5935.958, 1551.121
5937.886, 1530.064
5939.814, 1514.436
5941.743, 1519.561
5943.671, 1495.281
5945.600, 1464.322
5947.528, 1464.380
5949.457, 1494.974
5951.385, 1456.667
5953.314, 1462.469
5955.242, 1483.892
5957.171, 1498.106
5959.099, 1496.061
5961.028, 1477.079
5962.956, 1439.642
5964.885, 1441.729
5966.813, 1475.745
5968.742, 1485.014
5970.670, 1495.608
5972.599, 1482.881
5974.527, 1510.138
5976.456, 1570.303
5978.384, 1545.282
5980.313, 1554.818
5982.241, 1560.739
5984.169, 1566.150
5986.098, 1582.199
5988.026, 1613.592
5989.955, 1613.092
5991.883, 1629.646
5993.812, 1644.629
5995.740, 1638.402
5997.668, 1675.455
5999.597, 1711.403
6001.525, 1738.711
6003.454, 1767.750
6005.382, 1804.227
6007.311, 1805.792
6009.239, 1839.712
6011.168, 1875.390
6013.096, 1922.470
6015.025, 2003.365
6016.953, 2043.310
6018.882, 2071.528
6020.810, 2119.874
6022.739, 2203.809
6024.667, 2319.475
6026.596, 2404.079
6028.524, 2514.283
6030.453, 2647.698
6032.381, 2795.267
6034.310, 2956.417
6036.238, 3190.252
6038.167, 3384.591
6040.095, 3630.299
6042.023, 3940.945
6043.952, 4241.838
6045.880, 4434.778
6047.809, 4634.745
6049.737, 4846.645
6051.666, 4998.339
6053.594, 5014.774
6055.522, 5126.409
6057.451, 5136.563
6059.379, 5076.663
6061.308, 5012.083
6063.236, 4987.124
6065.165, 4955.341
6067.093, 4925.671
6069.022, 4921.355
6070.950, 4919.523
6072.879, 4878.123
6074.807, 4809.802
6076.736, 4690.026
6078.664, 4557.145
6080.593, 4441.281
6082.521, 4354.877
6084.450, 4284.364
6086.378, 4263.831
6088.307, 4295.935
6090.235, 4328.044
6092.164, 4339.562
6094.092, 4526.938
6096.021, 4696.539
6097.949, 4888.041
6099.877, 5102.397
6101.806, 5345.897
6103.734, 5723.864
6105.663, 5987.249
6107.591, 6215.843
6109.520, 6451.973
6111.448, 6676.684
6113.376, 6817.839
6115.305, 6862.328
6117.233, 6874.341
6119.162, 6824.458
6121.090, 6733.982
6123.019, 6674.609
6124.947, 6530.726
6126.876, 6327.589
6128.804, 6122.763
6130.733, 5956.666
6132.661, 5841.815
6134.590, 5739.172
6136.518, 5643.250
6138.447, 5618.723
6140.375, 5630.404
6142.304, 5654.203
6144.232, 5764.997
6146.161, 5874.643
6148.089, 5978.631
6150.018, 6155.590
6151.946, 6360.666
6153.875, 6445.004
6155.803, 6649.027
6157.731, 6816.792
6159.660, 6985.544
6161.588, 7220.126
6163.517, 7498.733
6165.445, 7493.809
6167.374, 7553.089
6169.302, 7656.117
6171.230, 7787.561
6173.159, 7941.707
6175.087, 8117.004
6177.016, 8190.593
6178.944, 8512.089
6180.873, 8851.189
6182.801, 9207.919
6184.730, 9696.274
6186.658, 10203.62
6188.587, 10876.74
6190.515, 11505.63
6192.444, 12104.88
6194.372, 12641.05
6196.301, 12955.94
6198.229, 13220.55
6200.158, 13487.31
6202.086, 13829.75
6204.015, 14119.45
6205.943, 14284.17
6207.872, 14616.38
6209.800, 15122.32
6211.729, 15536.36
6213.657, 16082.48
6215.585, 16807.95
6217.514, 17519.95
6219.442, 18120.70
6221.371, 18752.93
6223.299, 19598.02
6225.228, 20427.30
6227.156, 21091.36
6229.084, 21729.82
6231.013, 22242.98
6232.941, 22874.71
6234.870, 23422.66
6236.798, 23965.94
6238.727, 24560.47
6240.655, 24822.78
6242.584, 25176.82
6244.512, 25287.15
6246.441, 25240.37
6248.369, 25115.99
6250.298, 24785.38
6252.226, 23752.48
6254.155, 22778.36
6256.083, 21731.85
6258.012, 20697.99
6259.940, 19813.45
6261.869, 19141.05
6263.797, 18616.16
6265.726, 18468.37
6267.654, 18519.24
6269.583, 18759.28
6271.511, 19161.25
6273.439, 19638.26
6275.368, 20410.10
6277.296, 20970.62
6279.225, 21436.95
6281.153, 21825.79
6283.082, 22083.88
6285.010, 22177.40
6286.938, 22437.94
6288.867, 22439.85
6290.795, 22285.68
6292.724, 22141.24
6294.652, 22005.90
6296.581, 21702.72
6298.509, 21591.97
6300.438, 21323.93
6302.366, 21055.68
6304.295, 20680.66
6306.223, 20189.98
6308.152, 19790.69
6310.080, 19341.36
6312.009, 18725.77
6313.937, 18162.79
6315.866, 17640.57
6317.794, 17136.77
6319.723, 16687.82
6321.651, 16111.63
6323.580, 15661.97
6325.508, 15240.47
6327.437, 14889.20
6329.365, 14712.23
6331.293, 14717.93
6333.222, 14669.26
6335.150, 14539.43
6337.079, 14422.61
6339.007, 14196.09
6340.936, 13884.23
6342.864, 13559.99
6344.792, 13117.10
6346.721, 12743.20
6348.649, 12241.38
6350.578, 11864.82
6352.506, 11664.71
6354.435, 11597.86
6356.363, 11698.61
6358.292, 11758.95
6360.220, 11932.47
6362.149, 12273.38
6364.077, 12608.90
6366.006, 12951.22
6367.934, 13487.99
6369.863, 13942.07
6371.791, 14525.89
6373.720, 15231.79
6375.648, 15921.58
6377.577, 16662.76
6379.505, 17587.40
6381.434, 18693.74
6383.362, 19595.49
6385.291, 20680.11
6387.219, 21794.27
6389.147, 22810.69
6391.076, 23793.49
6393.004, 24817.58
6394.933, 25487.92
6396.861, 26252.45
6398.790, 26816.68
6400.718, 27324.20
6402.646, 27718.50
6404.575, 27977.63
6406.503, 28428.40
6408.432, 28745.20
6410.360, 29350.31
6412.289, 30008.75
6414.217, 30778.69
6416.146, 31761.94
6418.074, 32945.84
6420.003, 34180.99
6421.931, 35541.21
6423.860, 36976.23
6425.788, 38178.32
6427.717, 39086.04
6429.645, 39848.56
6431.574, 40546.01
6433.502, 40692.06
6435.431, 40380.86
6437.359, 39744.23
6439.288, 38800.31
6441.216, 37435.87
6443.145, 35884.77
6445.073, 34610.74
6447.001, 32871.20
6448.930, 31455.10
6450.858, 29933.73
6452.787, 28656.08
6454.715, 27560.76
6456.644, 26500.04
6458.572, 25644.40
6460.500, 24867.14
6462.429, 24203.05
6464.357, 23788.81
6466.286, 23476.46
6468.214, 23174.64
6470.143, 22907.32
6472.071, 22715.44
6474.000, 22390.20
6475.928, 22296.87
6477.857, 22066.30
6479.785, 22001.05
6481.714, 22122.73
6483.642, 22224.35
6485.571, 22206.26
6487.499, 22309.46
6489.428, 22407.01
6491.356, 22403.13
6493.285, 22597.73
6495.213, 22626.48
6497.142, 22482.32
6499.070, 22575.57
6500.999, 22684.14
6502.927, 22907.91
6504.855, 23181.90
6506.784, 23548.05
6508.712, 23804.63
6510.641, 24020.88
6512.569, 24336.11
6514.498, 24590.65
6516.426, 24960.76
6518.354, 25274.27
6520.283, 25079.04
6522.211, 25032.07
6524.140, 25160.22
6526.068, 25223.00
6527.997, 25257.62
6529.925, 25344.99
6531.854, 25338.74
6533.782, 25623.16
6535.711, 25827.69
6537.639, 25954.30
6539.568, 26175.69
6541.496, 26417.66
6543.425, 26347.00
6545.353, 26668.29
6547.282, 26546.32
6549.210, 26503.69
6551.139, 26468.19
6553.067, 26296.44
6554.996, 26039.90
6556.924, 25802.95
6558.853, 25485.25
6560.781, 25015.07
6562.709, 24471.46
6564.638, 23812.73
6566.566, 22986.00
6568.495, 22281.55
6570.423, 21732.27
6572.352, 21080.79
6574.280, 20564.46
6576.208, 19853.62
6578.137, 19252.05
6580.065, 18829.71
6581.994, 18391.66
6583.922, 18013.81
6585.851, 17721.48
6587.779, 17329.00
6589.708, 16841.78
6591.636, 16409.16
6593.565, 15965.12
6595.493, 15588.97
6597.422, 15223.79
6599.350, 14907.51
6601.279, 14628.39
6603.207, 14294.28
6605.136, 13918.75
6607.064, 13544.90
6608.993, 13170.66
6610.921, 12961.35
6612.850, 12687.67
6614.778, 12485.82
6616.707, 12341.29
6618.635, 12127.81
6620.563, 12048.51
6622.492, 11871.89
6624.420, 11892.68
6626.349, 11791.62
6628.277, 11669.18
6630.206, 11679.96
##END=



