##NAMES=Cobaltite
##RRUFFID=R100119
##IDEAL CHEMISTRY=CoAsS
##LOCALITY=Deerhorn mine, Cobalt, Ontario, Canada
##OWNER=RRUFF
##SOURCE=Robert Woodside
##DESCRIPTION=Metallic silver-gray cubes
##STATUS=The identification of this mineral has been confirmed by single-crystal X-ray diffraction
##URL=https://www.rruff.net/odr/rruff_sample/R100119
##DIFFRACTION SAMPLE DESCRIPTION=Single crystal, powder profile is calculated
##CELL PARAMETERS=a: 5.593 b: 5.594 c: 5.59 alpha: 90 beta: 90 gamma: 90 volume: 174.91 crystal system: orthorhombic
##FILETYPE=Raman RAW
##RAMAN WAVELENGTH=532

210.6707, 88.19833
212.5992, 88.95577
214.5276, 89.74377
216.4561, 90.54846
218.3846, 91.23099
220.3130, 91.69292
222.2415, 92.02148
224.1700, 92.29129
226.0984, 92.50324
228.0269, 92.69042
229.9554, 92.68748
231.8838, 92.49173
233.8123, 92.63281
235.7408, 93.40086
237.6692, 94.34451
239.5977, 95.15858
241.5262, 95.84757
243.4546, 96.34803
245.3831, 96.67301
247.3116, 96.85447
249.2400, 96.94871
251.1685, 96.72814
253.0970, 96.63597
255.0254, 96.95085
256.9539, 97.87610
258.8824, 98.75027
260.8108, 99.51799
262.7393, 100.1822
264.6678, 100.7285
266.5962, 101.1530
268.5247, 101.3376
270.4532, 101.2214
272.3816, 100.6435
274.3101, 100.1164
276.2386, 99.50278
278.1670, 99.04004
280.0955, 99.00850
282.0240, 99.95195
283.9524, 100.7716
285.8809, 101.1388
287.8094, 101.0390
289.7378, 100.8747
291.6663, 100.4068
293.5948, 99.92472
295.5232, 99.74639
297.4517, 100.3813
299.3802, 101.0083
301.3086, 101.3920
303.2371, 101.5334
305.1656, 101.5774
307.0940, 101.5027
309.0225, 101.4154
310.9510, 101.3227
312.8794, 101.1264
314.8079, 101.0933
316.7364, 101.6118
318.6648, 102.4297
320.5933, 103.0136
322.5218, 102.9488
324.4502, 102.8534
326.3787, 102.8905
328.3072, 103.0447
330.2356, 103.2242
332.1641, 103.6761
334.0926, 104.2754
336.0210, 104.8149
337.9495, 104.7723
339.8780, 104.8086
341.8064, 105.3243
343.7349, 106.1897
345.6634, 106.8214
347.5918, 107.1964
349.5203, 107.4737
351.4488, 107.5131
353.3772, 107.0150
355.3057, 106.5418
357.2342, 106.6417
359.1626, 107.1348
361.0911, 107.6056
363.0196, 107.6955
364.9480, 107.6601
366.8765, 107.5673
368.8050, 107.4899
370.7334, 107.5525
372.6619, 108.0269
374.5904, 108.5586
376.5188, 108.8671
378.4473, 108.5799
380.3758, 108.2803
382.3042, 108.0854
384.2327, 108.0229
386.1612, 108.0653
388.0896, 108.4146
390.0181, 108.9584
391.9466, 109.6468
393.8750, 110.3230
395.8035, 110.8670
397.7320, 111.3085
399.6604, 111.6981
401.5889, 112.0486
403.5174, 112.4797
405.4458, 112.8948
407.3743, 113.2725
409.3028, 113.5514
411.2312, 113.7272
413.1597, 113.5826
415.0882, 113.3508
417.0166, 113.1208
418.9451, 113.0553
420.8736, 113.2321
422.8020, 113.9221
424.7305, 114.6813
426.6590, 115.1066
428.5874, 114.8866
430.5159, 114.7663
432.4444, 114.9382
434.3728, 115.2999
436.3013, 115.4954
438.2298, 115.3678
440.1582, 115.3747
442.0867, 115.7521
444.0152, 116.6771
445.9436, 117.2442
447.8721, 117.3821
449.8006, 117.3536
451.7290, 117.3790
453.6575, 117.3074
455.5860, 117.2138
457.5144, 117.2095
459.4429, 117.3775
461.3714, 117.6791
463.2998, 117.8217
465.2283, 117.9558
467.1568, 118.1765
469.0852, 118.3678
471.0137, 118.6192
472.9422, 118.8517
474.8706, 119.1559
476.7991, 119.4649
478.7276, 119.5070
480.6560, 119.6120
482.5845, 119.8397
484.5130, 120.1046
486.4414, 120.2763
488.3699, 120.6850
490.2984, 121.2109
492.2268, 121.9978
494.1553, 122.6783
496.0838, 122.9318
498.0122, 122.5000
499.9407, 122.0624
501.8692, 121.8761
503.7976, 121.8537
505.7261, 122.0443
507.6546, 122.8533
509.5830, 123.7839
511.5115, 124.3506
513.4399, 124.2416
515.3684, 124.0643
517.2969, 124.0050
519.2253, 124.1574
521.1538, 124.4549
523.0823, 124.4839
525.0107, 124.5086
526.9392, 124.7309
528.8677, 125.3787
530.7961, 125.6212
532.7246, 125.1414
534.6531, 124.7276
536.5815, 124.7880
538.5100, 125.1303
540.4385, 125.4523
542.3669, 125.6567
544.2954, 125.8220
546.2239, 125.9956
548.1523, 126.5020
550.0808, 126.8797
552.0093, 126.9736
553.9377, 126.8826
555.8662, 126.9041
557.7947, 127.2730
559.7231, 127.6451
561.6516, 127.7819
563.5801, 127.7053
565.5085, 128.0190
567.4370, 129.0609
569.3655, 129.8991
571.2939, 130.0609
573.2224, 129.6993
575.1509, 129.4551
577.0793, 129.6409
579.0078, 129.8747
580.9363, 129.8734
582.8647, 129.4298
584.7932, 129.1838
586.7217, 129.3442
588.6501, 129.7318
590.5786, 130.0953
592.5071, 130.2877
594.4355, 130.5492
596.3640, 131.0109
598.2925, 131.5663
600.2209, 131.9724
602.1494, 132.1124
604.0779, 132.2100
606.0063, 132.4379
607.9348, 132.8110
609.8633, 132.8834
611.7917, 132.2733
613.7202, 131.7961
615.6487, 131.7703
617.5771, 132.0842
619.5056, 132.3288
621.4341, 132.4882
623.3625, 132.5061
625.2910, 132.3143
627.2195, 132.0008
629.1479, 132.0415
631.0764, 132.8699
633.0049, 133.6429
634.9333, 133.7658
636.8618, 133.1395
638.7903, 132.7575
640.7188, 132.9345
642.6472, 133.3500
644.5757, 133.6395
646.5042, 133.7065
648.4326, 133.8317
650.3611, 134.1758
652.2896, 134.5368
654.2180, 134.7246
656.1465, 134.6461
658.0750, 134.5930
660.0034, 134.4568
661.9319, 134.4144
663.8604, 134.8267
665.7888, 135.9769
667.7173, 136.7770
669.6458, 136.6570
671.5742, 135.9638
673.5027, 135.4707
675.4312, 135.2122
677.3596, 135.1641
679.2881, 135.5089
681.2166, 136.0660
683.1450, 136.2957
685.0735, 135.9554
687.0020, 135.6786
688.9304, 135.7214
690.8589, 136.0616
692.7874, 136.3463
694.7158, 136.4656
696.6443, 136.6126
698.5728, 136.8655
700.5012, 137.1968
702.4297, 137.5567
704.3582, 138.1324
706.2866, 138.5494
708.2151, 138.5607
710.1436, 137.9687
712.0720, 137.6522
714.0005, 137.8192
715.9290, 138.1170
717.8574, 138.2402
719.7859, 138.1656
721.7144, 138.1509
723.6428, 138.1898
725.5713, 138.3843
727.4998, 138.8057
729.4282, 139.6169
731.3567, 140.0524
733.2852, 139.8186
735.2136, 139.3789
737.1421, 139.1387
739.0706, 139.1500
740.9990, 139.3218
742.9275, 139.8049
744.8560, 140.2798
746.7844, 140.4897
748.7129, 140.1907
750.6414, 140.2486
752.5698, 141.1452
754.4983, 142.2285
756.4268, 142.7139
758.3552, 142.3493
760.2837, 142.0779
762.2122, 142.1055
764.1406, 142.4372
766.0691, 142.9436
767.9976, 143.6776
769.9260, 144.1938
771.8545, 144.3834
773.7830, 144.3936
775.7114, 144.2977
777.6399, 144.0923
779.5684, 143.9740
781.4968, 144.0486
783.4253, 144.1093
785.3538, 144.1028
787.2822, 144.0087
789.2107, 144.0157
791.1392, 144.2090
793.0676, 144.5252
794.9961, 144.7688
796.9246, 144.8228
798.8530, 144.8831
800.7815, 144.9124
802.7100, 145.1905
804.6384, 145.7573
806.5669, 146.5929
808.4954, 147.0883
810.4238, 147.0965
812.3523, 146.8859
814.2808, 146.6280
816.2092, 146.2772
818.1377, 146.0661
820.0662, 146.0430
821.9946, 146.3263
823.9231, 146.7459
825.8516, 147.0953
827.7800, 147.2941
829.7085, 147.3674
831.6370, 147.6235
833.5654, 147.9182
835.4939, 148.3217
837.4224, 148.5473
839.3508, 148.3973
841.2793, 147.8995
843.2078, 147.6715
845.1362, 148.0911
847.0647, 148.5033
848.9932, 148.5878
850.9216, 148.3490
852.8501, 148.1567
854.7786, 148.0975
856.7070, 148.2428
858.6355, 148.7215
860.5640, 149.0208
862.4924, 149.0158
864.4209, 149.0497
866.3494, 149.3104
868.2778, 149.2943
870.2063, 149.3764
872.1348, 149.4649
874.0632, 149.4678
875.9917, 149.5929
877.9202, 149.7020
879.8486, 149.6799
881.7771, 149.5457
883.7056, 149.3572
885.6340, 149.4341
887.5625, 149.8845
889.4910, 150.4001
891.4194, 150.6607
893.3479, 150.7997
895.2764, 151.1438
897.2048, 151.9961
899.1333, 152.5997
901.0618, 152.4082
902.9902, 151.6176
904.9187, 151.0402
906.8472, 150.9370
908.7756, 151.1656
910.7041, 151.4666
912.6326, 151.6514
914.5610, 151.7483
916.4895, 151.7862
918.4180, 151.7994
920.3464, 151.6151
922.2749, 151.4728
924.2034, 151.6289
926.1318, 152.0945
928.0603, 152.5537
929.9888, 152.9367
931.9172, 153.3272
933.8457, 153.4950
935.7742, 153.4570
937.7026, 153.4525
939.6311, 153.7740
941.5596, 153.6270
943.4880, 153.1343
945.4165, 152.8787
947.3450, 153.0263
949.2734, 153.2922
951.2019, 153.2756
953.1304, 153.2881
955.0588, 153.5509
956.9873, 153.8158
958.9158, 153.8888
960.8442, 153.8233
962.7727, 153.8216
964.7012, 153.8760
966.6296, 154.1597
968.5581, 154.8199
970.4866, 155.4798
972.4150, 155.5896
974.3435, 155.2186
976.2720, 154.9976
978.2004, 155.0724
980.1289, 155.2176
982.0574, 155.0689
983.9858, 154.8137
985.9143, 154.6903
987.8428, 154.8488
989.7712, 155.3358
991.6997, 156.0992
993.6282, 156.3864
995.5566, 156.3640
997.4851, 156.5380
999.4136, 156.6815
1001.342, 156.3111
1003.271, 155.4337
1005.199, 155.0699
1007.127, 155.4222
1009.056, 156.0862
1010.984, 156.7002
1012.913, 157.0456
1014.841, 156.8950
1016.770, 156.6220
1018.698, 156.8052
1020.627, 157.3054
1022.555, 157.5783
1024.484, 157.4524
1026.412, 157.5367
1028.341, 157.7239
1030.269, 157.7070
1032.198, 157.9034
1034.126, 158.0061
1036.054, 158.0917
1037.983, 158.1999
1039.911, 158.0237
1041.840, 157.9579
1043.768, 158.2845
1045.697, 158.7415
1047.625, 159.0557
1049.554, 159.0951
1051.482, 159.0371
1053.411, 159.0443
1055.339, 159.1243
1057.268, 159.1241
1059.196, 159.3779
1061.125, 159.7822
1063.053, 159.9862
1064.981, 159.8059
1066.910, 159.5768
1068.838, 159.5534
1070.767, 159.7235
1072.695, 159.7960
1074.624, 159.5817
1076.552, 159.2960
1078.481, 159.3067
1080.409, 159.6869
1082.338, 160.2820
1084.266, 160.9226
1086.195, 161.2349
1088.123, 160.9008
1090.052, 160.5180
1091.980, 160.7346
1093.908, 161.3657
1095.837, 161.7197
1097.765, 161.4368
1099.694, 160.9546
1101.622, 160.7563
1103.551, 161.0495
1105.479, 161.4066
1107.408, 161.6523
1109.336, 161.8261
1111.265, 162.0951
1113.193, 162.1522
1115.122, 161.7801
1117.050, 161.5271
1118.979, 161.5612
1120.907, 161.8101
1122.835, 161.6983
1124.764, 161.7441
1126.692, 162.3431
1128.621, 162.9121
1130.549, 163.0219
1132.478, 162.8277
1134.406, 162.6263
1136.335, 162.8708
1138.263, 163.3414
1140.192, 163.9473
1142.120, 164.4269
1144.049, 164.6704
1145.977, 164.8999
1147.906, 164.6924
1149.834, 164.8839
1151.762, 164.8656
1153.691, 164.5224
1155.619, 164.4134
1157.548, 164.5758
1159.476, 164.9439
1161.405, 165.5203
1163.333, 165.9701
1165.262, 166.0823
1167.190, 165.8959
1169.119, 165.5784
1171.047, 164.9442
1172.976, 164.6060
1174.904, 164.6263
1176.833, 164.9889
1178.761, 165.0708
1180.689, 164.7591
1182.618, 164.4331
1184.546, 164.2224
1186.475, 164.1475
1188.403, 164.2337
1190.332, 164.0385
1192.260, 164.5679
1194.189, 167.0208
1196.117, 169.7010
1198.046, 170.1843
1199.974, 168.4316
1201.903, 167.1053
1203.831, 166.9451
1205.760, 167.1812
1207.688, 167.2709
1209.616, 167.1268
1211.545, 166.8763
1213.473, 166.2338
1215.402, 166.0679
1217.330, 166.9057
1219.259, 168.2013
1221.187, 169.1705
1223.116, 169.7690
1225.044, 169.8396
1226.973, 168.8990
1228.901, 168.0283
1230.830, 167.8506
1232.758, 168.0748
1234.687, 168.2489
1236.615, 168.4258
1238.543, 168.6876
1240.472, 169.0114
1242.400, 169.2742
1244.329, 169.4423
1246.257, 169.4869
1248.186, 169.4671
1250.114, 169.3111
1252.043, 169.2523
1253.971, 169.2750
1255.900, 169.3127
1257.828, 169.5870
1259.757, 170.3612
1261.685, 171.0326
1263.614, 171.4830
1265.542, 171.7752
1267.470, 171.9624
1269.399, 172.1860
1271.327, 172.4975
1273.256, 172.8909
1275.184, 173.1699
1277.113, 173.3396
1279.041, 173.4283
1280.970, 173.3317
1282.898, 173.0615
1284.827, 172.7960
1286.755, 172.4231
1288.684, 172.3095
1290.612, 172.9323
1292.541, 173.8842
1294.469, 174.1525
1296.397, 173.2185
1298.326, 172.6421
1300.254, 172.5089
1302.183, 172.6653
1304.111, 173.1593
1306.040, 173.9616
1307.968, 174.6404
1309.897, 175.3867
1311.825, 175.6660
1313.754, 174.8495
1315.682, 173.9210
1317.611, 173.9372
1319.539, 174.7849
1321.468, 175.4583
1323.396, 175.8334
1325.324, 176.0877
1327.253, 176.2020
1329.181, 176.2830
1331.110, 176.4356
1333.038, 176.6473
1334.967, 176.9583
1336.895, 177.5588
1338.824, 178.0178
1340.752, 178.1069
1342.681, 177.9509
1344.609, 177.8359
1346.538, 177.7964
1348.466, 177.7753
1350.395, 177.7119
1352.323, 177.7302
1354.251, 178.0088
1356.180, 178.5123
1358.108, 178.9234
1360.037, 179.2263
1361.965, 179.4065
1363.894, 179.4570
1365.822, 179.4236
1367.751, 179.1764
1369.679, 178.7860
1371.608, 178.7360
1373.536, 179.2315
1375.465, 179.6349
1377.393, 179.6817
1379.322, 179.5975
1381.250, 179.4326
1383.178, 179.1788
1385.107, 179.5155
1387.035, 181.2366
1388.964, 182.3319
1390.892, 181.8930
1392.821, 180.9426
1394.749, 180.4120
1396.678, 180.2968
1398.606, 180.5938
1400.535, 181.8159
1402.463, 182.6753
1404.392, 182.7050
1406.320, 182.4000
1408.249, 182.3032
1410.177, 182.4054
1412.105, 182.1667
1414.034, 181.0467
1415.962, 180.3840
1417.891, 180.9146
1419.819, 182.0325
1421.748, 183.0355
1423.676, 183.8748
1425.605, 184.3687
1427.533, 184.3523
1429.462, 184.1958
1431.390, 183.8411
1433.319, 183.5761
1435.247, 183.9082
1437.176, 184.8340
1439.104, 185.1423
1441.032, 184.3548
1442.961, 183.6741
1444.889, 183.5762
1446.818, 183.6578
1448.746, 183.4444
1450.675, 182.8347
1452.603, 182.7011
1454.532, 183.3074
1456.460, 183.9736
1458.389, 184.6138
1460.317, 185.1888
1462.246, 185.6707
1464.174, 186.2412
1466.103, 186.4533
1468.031, 185.7104
1469.959, 185.1777
1471.888, 185.2369
1473.816, 185.6690
1475.745, 186.3193
1477.673, 187.2072
1479.602, 187.5932
1481.530, 186.8867
1483.459, 186.5849
1485.387, 187.7413
1487.316, 188.9782
1489.244, 188.7573
1491.173, 187.5974
1493.101, 187.0898
1495.030, 187.3763
1496.958, 187.4492
1498.886, 186.7810
1500.815, 186.3050
1502.743, 186.7575
1504.672, 187.8571
1506.600, 188.6051
1508.529, 188.8460
1510.457, 188.7535
1512.386, 188.2729
1514.314, 187.8082
1516.243, 187.3769
1518.171, 186.9313
1520.100, 186.8017
1522.028, 187.1048
1523.957, 187.7530
1525.885, 189.2380
1527.813, 190.2543
1529.742, 189.8961
1531.670, 188.9696
1533.599, 188.9393
1535.527, 190.3250
1537.456, 191.0134
1539.384, 190.3018
1541.313, 189.7018
1543.241, 189.8055
1545.170, 190.1477
1547.098, 190.1147
1549.027, 189.7652
1550.955, 189.7636
1552.884, 190.2851
1554.812, 190.6565
1556.740, 190.5675
1558.669, 190.5233
1560.597, 191.0918
1562.526, 192.0957
1564.454, 192.5048
1566.383, 192.1365
1568.311, 191.8753
1570.240, 191.8214
1572.168, 191.7468
1574.097, 191.5011
1576.025, 191.2177
1577.954, 191.0730
1579.882, 191.0108
1581.811, 191.1850
1583.739, 191.8148
1585.667, 192.4082
1587.596, 192.8509
1589.524, 193.1635
1591.453, 193.3055
1593.381, 193.2744
1595.310, 193.2227
1597.238, 193.1416
1599.167, 193.1292
1601.095, 193.1992
1603.024, 193.3391
1604.952, 193.7314
1606.881, 194.2317
1608.809, 194.4032
1610.738, 194.1627
1612.666, 193.9893
1614.594, 193.9886
1616.523, 194.1588
1618.451, 194.5181
1620.380, 194.9449
1622.308, 195.4039
1624.237, 195.8556
1626.165, 196.0244
1628.094, 195.7534
1630.022, 195.5650
1631.951, 195.7749
1633.879, 195.9169
1635.808, 195.6658
1637.736, 195.1964
1639.665, 194.8892
1641.593, 194.7783
1643.521, 194.4707
1645.450, 193.5907
1647.378, 193.1262
1649.307, 193.6753
1651.235, 194.5901
1653.164, 195.5085
1655.092, 196.3807
1657.021, 196.9512
1658.949, 197.1587
1660.878, 197.2788
1662.806, 197.4302
1664.735, 197.3640
1666.663, 196.5619
1668.592, 195.7241
1670.520, 195.9355
1672.448, 197.1597
1674.377, 198.0117
1676.305, 198.4184
1678.234, 198.5040
1680.162, 198.1826
1682.091, 197.6993
1684.019, 197.0015
1685.948, 196.3082
1687.876, 196.1397
1689.805, 196.5703
1691.733, 196.7263
1693.662, 196.2423
1695.590, 196.0751
1697.519, 196.7408
1699.447, 197.5364
1701.375, 197.9982
1703.304, 198.2064
1705.232, 198.4450
1707.161, 198.7366
1709.089, 198.8156
1711.018, 198.2295
1712.946, 198.1443
1714.875, 199.3738
1716.803, 200.8230
1718.732, 201.8957
1720.660, 202.4881
1722.589, 201.8405
1724.517, 199.4969
1726.446, 198.2463
1728.374, 198.9421
1730.302, 199.9218
1732.231, 200.9078
1734.159, 201.6834
1736.088, 201.9551
1738.016, 201.8439
1739.945, 201.9507
1741.873, 202.3699
1743.802, 202.6016
1745.730, 202.6546
1747.659, 202.3648
1749.587, 201.0613
1751.516, 199.8672
1753.444, 199.9232
1755.373, 200.8967
1757.301, 201.5132
1759.229, 201.7296
1761.158, 201.7328
1763.086, 201.5596
1765.015, 201.2396
1766.943, 200.3545
1768.872, 199.8092
1770.800, 200.7133
1772.729, 202.4973
1774.657, 203.4104
1776.586, 203.3400
1778.514, 203.1331
1780.443, 202.7519
1782.371, 202.4650
1784.300, 202.4229
1786.228, 202.4142
1788.156, 202.3034
1790.085, 202.1317
1792.013, 201.9368
1793.942, 201.7378
1795.870, 201.7622
1797.799, 202.1032
1799.727, 202.4932
1801.656, 202.8710
1803.584, 203.1975
1805.513, 203.2776
1807.441, 203.3504
1809.370, 204.0224
1811.298, 205.1837
1813.227, 205.5011
1815.155, 204.6693
1817.083, 203.8745
1819.012, 203.3109
1820.940, 202.9627
1822.869, 202.9324
1824.797, 203.0269
1826.726, 202.8792
1828.654, 202.6116
1830.583, 203.0764
1832.511, 204.6146
1834.440, 205.3811
1836.368, 204.3997
1838.297, 203.7078
1840.225, 204.0322
1842.154, 204.6690
1844.082, 205.1544
1846.010, 205.5174
1847.939, 205.9245
1849.867, 206.4785
1851.796, 206.3621
1853.724, 204.7945
1855.653, 203.8649
1857.581, 204.0922
1859.510, 204.6125
1861.438, 205.2616
1863.367, 205.8321
1865.295, 206.1227
1867.224, 206.1157
1869.152, 205.6091
1871.081, 204.2068
1873.009, 203.4434
1874.938, 203.4161
1876.866, 203.9567
1878.794, 205.9850
1880.723, 207.5135
1882.651, 206.7266
1884.580, 204.8946
1886.508, 204.4158
1888.437, 205.2085
1890.365, 205.2986
1892.294, 204.3690
1894.222, 203.8465
1896.151, 204.0956
1898.079, 204.6095
1900.008, 205.4256
1901.936, 206.2081
1903.865, 206.6214
1905.793, 206.8556
1907.721, 207.4367
1909.650, 208.3036
1911.578, 208.3173
1913.507, 206.9984
1915.435, 206.1475
1917.364, 206.4714
1919.292, 206.8268
1921.221, 206.5341
1923.149, 206.2113
1925.078, 206.8630
1927.006, 207.8793
1928.935, 207.3236
1930.863, 204.9129
1932.792, 203.7855
1934.720, 205.0008
1936.648, 205.6319
1938.577, 204.7514
1940.505, 204.1470
1942.434, 204.5798
1944.362, 205.5064
1946.291, 206.8546
1948.219, 208.2127
1950.148, 208.2543
1952.076, 206.6930
1954.005, 206.1062
1955.933, 207.0565
1957.862, 207.4112
1959.790, 206.2529
1961.719, 205.4006
1963.647, 205.7593
1965.575, 206.4295
1967.504, 206.8640
1969.432, 207.1253
1971.361, 207.3921
1973.289, 207.6137
1975.218, 207.2966
1977.146, 206.2528
1979.075, 205.7339
1981.003, 206.2357
1982.932, 206.7075
1984.860, 206.9585
1986.789, 206.8779
1988.717, 205.9662
1990.646, 204.9645
1992.574, 205.0987
1994.502, 206.1004
1996.431, 206.4390
1998.359, 205.8154
2000.288, 205.6057
2002.216, 206.4752
2004.145, 206.7054
2006.073, 205.3319
2008.002, 204.3508
2009.930, 204.9269
2011.859, 205.9371
2013.787, 206.2760
2015.716, 206.3206
2017.644, 207.1716
2019.573, 207.3001
2021.501, 207.3649
2023.429, 208.0353
2025.358, 207.4295
2027.286, 207.8376
2029.215, 208.1879
2031.143, 208.1581
2033.072, 207.9586
2035.000, 207.5959
2036.929, 207.2636
2038.857, 207.2710
2040.786, 207.4714
2042.714, 207.3155
2044.643, 206.7276
2046.571, 206.6531
2048.500, 207.5091
2050.428, 207.9182
2052.356, 207.2936
2054.285, 206.9088
2056.213, 207.5426
2058.142, 207.9621
2060.070, 207.0146
2061.999, 205.8526
2063.927, 205.9365
2065.856, 206.9715
2067.784, 208.1064
2069.713, 209.3278
2071.641, 209.4538
2073.570, 208.1102
2075.498, 207.4407
2077.427, 208.2613
2079.355, 208.7509
2081.283, 207.7569
2083.212, 206.8288
2085.140, 206.8511
2087.069, 207.3216
2088.997, 207.8031
2090.926, 208.2872
2092.854, 208.8671
2094.783, 209.5493
2096.711, 209.6404
2098.640, 209.0376
2100.568, 208.1343
2102.497, 206.3022
2104.425, 205.3982
2106.354, 206.3404
2108.282, 207.4524
2110.210, 208.4253
2112.139, 208.9526
2114.067, 208.5295
2115.996, 207.6692
2117.924, 207.0019
2119.853, 206.5416
2121.781, 206.4221
2123.710, 206.6567
2125.638, 206.6593
2127.567, 206.2278
2129.495, 206.0656
2131.424, 206.4857
2133.352, 206.8640
2135.281, 207.2132
2137.209, 207.3032
2139.137, 206.6732
2141.066, 206.0639
2142.994, 206.3437
2144.923, 207.0516
2146.851, 207.2493
2148.780, 207.0510
2150.708, 207.1720
2152.637, 207.6243
2154.565, 207.6881
2156.494, 207.1343
2158.422, 206.9207
2160.351, 207.4416
2162.279, 207.8901
2164.208, 208.0963
2166.136, 208.0670
2168.064, 207.6140
2169.993, 207.1294
2171.921, 206.9712
2173.850, 207.0361
2175.778, 207.1617
2177.707, 207.3591
2179.635, 207.7807
2181.564, 208.4373
2183.492, 208.2336
2185.421, 206.9080
2187.349, 206.0886
2189.278, 206.1699
2191.206, 206.2694
2193.135, 206.1597
2195.063, 205.9975
2196.991, 205.5145
2198.920, 205.4294
2200.848, 206.8382
2202.777, 208.4219
2204.705, 208.4105
2206.634, 207.4626
2208.562, 207.0776
2210.491, 207.2065
2212.419, 207.5451
2214.348, 208.1168
2216.276, 208.0728
2218.205, 207.1818
2220.133, 206.6968
2222.062, 207.0613
2223.990, 207.2774
2225.918, 206.9397
2227.847, 206.5646
2229.775, 206.3656
2231.704, 206.2050
2233.632, 205.8193
2235.561, 205.5590
2237.489, 205.9396
2239.418, 206.6894
2241.346, 207.3458
2243.275, 207.8641
2245.203, 207.8358
2247.132, 207.2750
2249.060, 206.9013
2250.989, 206.7242
2252.917, 207.1884
2254.845, 209.0037
2256.774, 209.5719
2258.702, 206.8526
2260.631, 204.9948
2262.559, 205.9846
2264.488, 207.1406
2266.416, 207.0253
2268.345, 206.5863
2270.273, 206.4741
2272.202, 206.5841
2274.130, 206.8739
2276.059, 207.2481
2277.987, 207.5802
2279.916, 207.8057
2281.844, 207.4075
2283.772, 207.6893
2285.701, 207.9952
2287.629, 207.7356
2289.558, 208.6245
2291.486, 208.7226
2293.415, 208.4765
2295.343, 207.5848
2297.272, 206.8819
2299.200, 206.6217
2301.129, 206.5065
2303.057, 206.6118
2304.986, 206.5951
2306.914, 205.9681
2308.843, 205.3362
2310.771, 205.3623
2312.699, 205.7605
2314.628, 206.0670
2316.556, 206.3520
2318.485, 206.9146
2320.413, 207.7339
2322.342, 208.3231
2324.270, 208.6938
2326.199, 208.6053
2328.127, 207.9133
2330.056, 207.6844
2331.984, 208.2160
2333.913, 208.5825
2335.841, 208.6837
2337.770, 208.3932
2339.698, 207.3092
2341.626, 206.3662
2343.555, 205.7376
2345.483, 205.6285
2347.412, 206.6702
2349.340, 207.7543
2351.269, 207.8400
2353.197, 207.4748
2355.126, 207.2994
2357.054, 207.1929
2358.983, 206.7985
2360.911, 206.2814
2362.840, 206.2724
2364.768, 206.7410
2366.697, 207.3818
2368.625, 208.4028
2370.553, 208.1882
2372.482, 206.2825
2374.410, 205.1469
2376.339, 205.0818
2378.267, 205.4142
2380.196, 206.3778
2382.124, 206.7059
2384.053, 205.3590
2385.981, 204.4551
2387.910, 205.3051
2389.838, 205.9541
2391.767, 204.9548
2393.695, 204.1021
2395.624, 204.9671
2397.552, 206.1414
2399.480, 206.4482
2401.409, 206.2784
2403.337, 205.8302
2405.266, 205.3863
2407.194, 205.5922
2409.123, 205.2489
2411.051, 205.9989
2412.980, 205.3096
2414.908, 205.2155
2416.837, 205.7549
2418.765, 206.3055
2420.694, 206.9100
2422.622, 206.7578
2424.551, 207.3089
2426.479, 207.8749
2428.407, 207.5846
2430.336, 208.8171
2432.264, 208.4162
2434.193, 207.9669
2436.121, 208.0272
2438.050, 207.5662
2439.978, 205.6028
2441.907, 204.2538
2443.835, 204.6882
2445.764, 205.1682
2447.692, 204.1752
2449.621, 203.6536
2451.549, 205.8122
2453.478, 207.9789
2455.406, 207.3647
2457.334, 205.8075
2459.263, 205.3403
2461.191, 205.4487
2463.120, 205.5984
2465.048, 205.6280
2466.977, 204.8669
2468.905, 203.8098
2470.834, 204.0372
2472.762, 203.7337
2474.691, 205.4025
2476.619, 204.5709
2478.548, 204.8226
2480.476, 206.3188
2482.405, 206.5722
2484.333, 205.4277
2486.261, 204.5950
2488.190, 204.1883
2490.118, 204.5276
2492.047, 206.2091
2493.975, 206.8641
2495.904, 204.9396
2497.832, 204.3029
2499.761, 206.5553
2501.689, 207.5713
2503.618, 206.0967
2505.546, 204.6517
2507.475, 203.6578
2509.403, 203.4437
2511.332, 204.8550
2513.260, 206.0229
2515.188, 206.0668
2517.117, 205.6716
2519.045, 204.8390
2520.974, 204.1431
2522.902, 204.0310
2524.831, 204.1367
2526.759, 204.1089
2528.688, 204.2840
2530.616, 205.3235
2532.545, 206.4175
2534.473, 206.4505
2536.402, 206.0647
2538.330, 206.2311
2540.259, 206.5991
2542.187, 206.5377
2544.115, 206.1968
2546.044, 205.9833
2547.972, 205.7063
2549.901, 204.5869
2551.829, 203.0191
2553.758, 202.6171
2555.686, 203.2500
2557.615, 204.0628
2559.543, 205.0051
2561.472, 205.5369
2563.400, 205.6558
2565.329, 205.2437
2567.257, 205.5767
2569.186, 205.6864
2571.114, 205.5250
2573.042, 206.1159
2574.971, 205.9156
2576.899, 205.8341
2578.828, 205.9391
2580.756, 205.7556
2582.685, 205.1340
2584.613, 204.9994
2586.542, 205.6918
2588.470, 206.2639
2590.399, 206.8769
2592.327, 206.8069
2594.256, 205.6975
2596.184, 204.9595
2598.113, 204.9193
2600.041, 204.8452
2601.969, 204.3040
2603.898, 204.3201
2605.826, 205.7398
2607.755, 206.6921
2609.683, 206.6151
2611.612, 206.4410
2613.540, 206.3302
2615.469, 206.1850
2617.397, 205.9423
2619.326, 205.6889
2621.254, 205.2193
2623.183, 205.1174
2625.111, 206.2841
2627.040, 206.8152
2628.968, 205.3621
2630.896, 204.4433
2632.825, 205.7784
2634.753, 206.7519
2636.682, 205.7851
2638.610, 204.4654
2640.539, 203.0195
2642.467, 202.2014
2644.396, 202.6535
2646.324, 203.5433
2648.253, 204.9804
2650.181, 205.9744
2652.110, 205.5366
2654.038, 204.9768
2655.967, 205.2535
2657.895, 205.5714
2659.823, 205.3156
2661.752, 204.9875
2663.680, 204.9439
2665.609, 204.9006
2667.537, 204.5088
2669.466, 204.2113
2671.394, 204.4542
2673.323, 204.7888
2675.251, 205.1065
2677.180, 205.0655
2679.108, 204.1435
2681.037, 203.0967
2682.965, 202.1228
2684.894, 201.7707
2686.822, 203.1166
2688.750, 204.5924
2690.679, 204.5338
2692.607, 204.2645
2694.536, 204.8732
2696.464, 205.7900
2698.393, 207.1471
2700.321, 207.8980
2702.250, 206.4707
2704.178, 204.7861
2706.107, 204.7228
2708.035, 205.0717
2709.964, 204.8889
2711.892, 204.5779
2713.821, 204.3429
2715.749, 204.2601
2717.677, 204.3127
2719.606, 204.6067
2721.534, 205.5549
2723.463, 206.3612
2725.391, 206.3117
2727.320, 205.9713
2729.248, 205.6391
2731.177, 205.4008
2733.105, 205.4858
2735.034, 205.5295
2736.962, 204.9461
2738.891, 204.5937
2740.819, 205.2885
2742.748, 206.0074
2744.676, 205.9582
2746.604, 205.7321
2748.533, 205.7518
2750.461, 205.7201
2752.390, 205.3894
2754.318, 205.0683
2756.247, 204.9588
2758.175, 204.9059
2760.104, 204.6859
2762.032, 204.6984
2763.961, 205.4722
2765.889, 206.0445
2767.818, 205.7884
2769.746, 205.4821
2771.675, 205.3835
2773.603, 205.4318
2775.531, 205.9554
2777.460, 206.0815
2779.388, 205.1963
2781.317, 204.3790
2783.245, 204.0131
2785.174, 203.6856
2787.102, 203.0926
2789.031, 202.8324
2790.959, 203.0983
2792.888, 203.6612
2794.816, 204.6563
2796.745, 205.2970
2798.673, 205.3375
2800.602, 205.1076
2802.530, 204.4908
2804.458, 204.0765
2806.387, 204.0792
2808.315, 204.1975
2810.244, 204.5647
2812.172, 204.5013
2814.101, 203.7449
2816.029, 203.3211
2817.958, 203.5431
2819.886, 203.5779
2821.815, 203.3539
2823.743, 203.2020
2825.672, 203.1595
2827.600, 202.6071
2829.529, 201.3395
2831.457, 201.6901
2833.385, 201.2970
2835.314, 201.6660
2837.242, 202.2939
2839.171, 202.6869
2841.099, 202.9674
2843.028, 203.0431
2844.956, 203.3825
2846.885, 202.6352
2848.813, 202.6381
2850.742, 201.9292
2852.670, 201.9162
2854.599, 201.9138
2856.527, 201.9081
2858.456, 202.2654
2860.384, 202.3974
2862.313, 202.8683
2864.241, 203.2877
2866.169, 202.8406
2868.098, 202.1991
2870.026, 202.0457
2871.955, 202.2595
2873.883, 202.8162
2875.812, 203.5287
2877.740, 204.6536
2879.669, 205.2743
2881.597, 204.4224
2883.526, 203.2945
2885.454, 201.9644
2887.383, 201.6735
2889.311, 203.9071
2891.240, 205.3492
2893.168, 204.0656
2895.096, 202.8688
2897.025, 202.7959
2898.953, 202.6791
2900.882, 202.0578
2902.810, 202.2449
2904.739, 203.8969
2906.667, 204.6484
2908.596, 203.5118
2910.524, 202.8523
2912.453, 202.8803
2914.381, 202.4311
2916.310, 202.3725
2918.238, 202.5548
2920.167, 202.4052
2922.095, 203.0271
2924.023, 203.2402
2925.952, 203.4235
2927.880, 203.4970
2929.809, 203.1249
2931.737, 202.4596
2933.666, 201.7970
2935.594, 201.3027
2937.523, 201.3468
2939.451, 201.7981
2941.380, 202.7712
2943.308, 203.6448
2945.237, 203.4637
2947.165, 203.1095
2949.094, 203.6208
2951.022, 203.8444
2952.950, 202.6437
2954.879, 201.6648
2956.807, 202.1631
2958.736, 202.5137
2960.664, 201.8332
2962.593, 201.5951
2964.521, 202.3052
2966.450, 202.9434
2968.378, 203.3971
2970.307, 203.3322
2972.235, 202.4723
2974.164, 202.2404
2976.092, 202.7336
2978.021, 202.8261
2979.949, 202.4083
2981.877, 201.9677
2983.806, 201.5378
2985.734, 201.8149
2987.663, 202.4080
2989.591, 201.6867
2991.520, 200.4675
2993.448, 200.6148
2995.377, 201.3414
2997.305, 201.4817
2999.234, 201.4240
3001.162, 201.6499
3003.091, 201.7211
3005.019, 201.0265
3006.948, 200.4292
3008.876, 200.2661
3010.804, 200.5663
3012.733, 201.8334
3014.661, 202.5760
3016.590, 202.2192
3018.518, 201.4347
3020.447, 200.0065
3022.375, 199.7206
3024.304, 200.9624
3026.232, 201.7099
3028.161, 201.8235
3030.089, 201.5393
3032.018, 200.9304
3033.946, 200.5540
3035.875, 200.3202
3037.803, 199.6437
3039.731, 199.0263
3041.660, 199.9017
3043.588, 201.0552
3045.517, 200.9733
3047.445, 200.4996
3049.374, 200.1426
3051.302, 200.0012
3053.231, 200.3485
3055.159, 200.5160
3057.088, 199.9499
3059.016, 199.8236
3060.945, 199.7954
3062.873, 199.5676
3064.802, 200.0345
3066.730, 199.5551
3068.658, 200.3286
3070.587, 200.6127
3072.515, 200.3541
3074.444, 199.4696
3076.372, 199.7130
3078.301, 198.5650
3080.229, 199.4866
3082.158, 199.7101
3084.086, 199.5922
3086.015, 199.3216
3087.943, 199.3358
3089.872, 200.2091
3091.800, 201.1077
3093.729, 201.9263
3095.657, 201.8578
3097.585, 200.2452
3099.514, 199.1510
3101.442, 199.3977
3103.371, 199.2068
3105.299, 198.2590
3107.228, 198.1626
3109.156, 197.8776
3111.085, 197.5220
3113.013, 197.7322
3114.942, 197.4507
3116.870, 197.6467
3118.799, 198.2363
3120.727, 198.8181
3122.656, 199.1016
3124.584, 198.9115
3126.512, 197.5054
3128.441, 196.5734
3130.369, 197.0643
3132.298, 197.7569
3134.226, 198.3840
3136.155, 198.9042
3138.083, 199.4296
3140.012, 198.8462
3141.940, 199.0933
3143.869, 199.6127
3145.797, 198.8773
3147.726, 200.0341
3149.654, 200.4204
3151.583, 198.9598
3153.511, 197.3767
3155.439, 198.7696
3157.368, 200.3883
3159.296, 199.6267
3161.225, 198.6938
3163.153, 198.8314
3165.082, 198.8356
3167.010, 198.2226
3168.939, 197.9005
3170.867, 198.0756
3172.796, 197.2498
3174.724, 197.5182
3176.653, 197.2586
3178.581, 197.1064
3180.510, 196.7503
3182.438, 195.3023
3184.366, 194.3463
3186.295, 194.1502
3188.223, 195.9669
3190.152, 197.3463
3192.080, 195.8168
3194.009, 195.0592
3195.937, 197.8069
3197.866, 198.7022
3199.794, 196.5893
3201.723, 195.9622
3203.651, 197.7082
3205.580, 197.4399
3207.508, 195.5611
3209.437, 195.4675
3211.365, 196.3285
3213.293, 196.4107
3215.222, 196.3076
3217.150, 196.7684
3219.079, 197.3124
3221.007, 198.1682
3222.936, 198.0784
3224.864, 195.4703
3226.793, 194.1363
3228.721, 194.6338
3230.650, 195.2298
3232.578, 195.7610
3234.507, 195.7644
3236.435, 195.3983
3238.364, 195.4792
3240.292, 195.7727
3242.220, 196.0018
3244.149, 196.0911
3246.077, 195.9172
3248.006, 195.6556
3249.934, 195.2405
3251.863, 195.0623
3253.791, 195.3015
3255.720, 195.5455
3257.648, 195.7606
3259.577, 195.8755
3261.505, 195.9219
3263.434, 196.4028
3265.362, 196.9354
3267.291, 196.3532
3269.219, 195.6704
3271.147, 196.5639
3273.076, 196.7411
3275.004, 194.3030
3276.933, 192.6655
3278.861, 193.1426
3280.790, 194.1504
3282.718, 195.6881
3284.647, 195.8961
3286.575, 194.9893
3288.504, 194.8497
3290.432, 195.1653
3292.361, 195.1781
3294.289, 195.2115
3296.218, 195.7173
3298.146, 196.1185
3300.074, 195.7750
3302.003, 195.9946
3303.931, 195.6126
3305.860, 195.0213
3307.788, 195.0381
3309.717, 194.1622
3311.645, 194.4343
3313.574, 195.3705
3315.502, 196.1864
3317.431, 195.0071
3319.359, 193.9273
3321.288, 194.7276
3323.216, 195.8113
3325.145, 197.0691
3327.073, 197.0008
3329.001, 195.2480
3330.930, 193.9627
3332.858, 193.2967
3334.787, 192.6309
3336.715, 192.2063
3338.644, 193.0011
3340.572, 194.1075
3342.501, 194.7655
3344.429, 195.0682
3346.358, 194.9761
3348.286, 194.8021
3350.215, 194.7038
3352.143, 194.0432
3354.072, 192.7702
3356.000, 192.1160
3357.928, 192.0223
3359.857, 192.3853
3361.785, 192.8137
3363.714, 192.6551
3365.642, 192.5152
3367.571, 192.7182
3369.499, 193.0889
3371.428, 193.6830
3373.356, 193.9274
3375.285, 193.7449
3377.213, 193.1401
3379.142, 192.3364
3381.070, 192.3151
3382.999, 192.5752
3384.927, 192.3466
3386.855, 192.3958
3388.784, 193.8030
3390.712, 194.2510
3392.641, 192.9377
3394.569, 191.6960
3396.498, 190.6186
3398.426, 191.5990
3400.355, 193.6351
3402.283, 193.8411
3404.212, 193.3991
3406.140, 193.9821
3408.069, 194.0726
3409.997, 192.2172
3411.926, 191.2000
3413.854, 191.5597
3415.782, 192.5238
3417.711, 193.8117
3419.639, 193.0561
3421.568, 191.3415
3423.496, 191.0263
3425.425, 191.3461
3427.353, 191.8310
3429.282, 192.4927
3431.210, 193.5653
3433.139, 193.8511
3435.067, 193.0655
3436.996, 192.5137
3438.924, 192.1987
3440.853, 192.0641
3442.781, 192.0480
3444.709, 192.3150
3446.638, 192.2613
3448.566, 191.3336
3450.495, 190.7402
3452.423, 190.8905
3454.352, 191.3721
3456.280, 192.0535
3458.209, 191.6385
3460.137, 190.5866
3462.066, 189.3483
3463.994, 188.6462
3465.923, 189.2715
3467.851, 189.9347
3469.780, 189.9728
3471.708, 190.5887
3473.636, 190.4519
3475.565, 191.4485
3477.493, 190.3219
3479.422, 190.2409
3481.350, 190.5604
3483.279, 190.8908
3485.207, 190.9723
3487.136, 190.6500
3489.064, 190.2898
3490.993, 189.9480
3492.921, 189.5417
3494.850, 189.1765
3496.778, 189.2873
3498.707, 189.6373
3500.635, 190.3534
3502.563, 190.4324
3504.492, 189.2521
3506.420, 188.1731
3508.349, 187.3296
3510.277, 188.0106
3512.206, 189.6642
3514.134, 190.1995
3516.063, 190.0118
3517.991, 188.8309
3519.920, 188.3235
3521.848, 189.3125
3523.777, 190.5060
3525.705, 191.7578
3527.634, 192.6064
3529.562, 192.7471
3531.490, 190.7977
3533.419, 188.6156
3535.347, 188.1972
3537.276, 188.6533
3539.204, 190.5915
3541.133, 190.9769
3543.061, 189.6301
3544.990, 189.6613
3546.918, 190.3385
3548.847, 188.7722
3550.775, 187.4089
3552.704, 188.9678
3554.632, 190.1377
3556.561, 189.5610
3558.489, 188.9592
3560.417, 188.4150
3562.346, 187.2630
3564.274, 186.1944
3566.203, 187.1425
3568.131, 188.3663
3570.060, 188.5269
3571.988, 189.0214
3573.917, 190.2408
3575.845, 190.4051
3577.774, 189.5806
3579.702, 189.0384
3581.631, 188.5421
3583.559, 188.0817
3585.488, 186.8694
3587.416, 187.4392
3589.344, 187.7392
3591.273, 187.5474
3593.201, 188.4788
3595.130, 189.8751
3597.058, 189.4702
3598.987, 188.3503
3600.915, 186.7158
3602.844, 186.2007
3604.772, 187.4725
3606.701, 187.7148
3608.629, 186.8382
3610.558, 186.4433
3612.486, 186.5190
3614.415, 187.2894
3616.343, 188.0611
3618.271, 188.7146
3620.200, 188.3447
3622.128, 188.4935
3624.057, 188.5281
3625.985, 187.9832
3627.914, 188.5182
3629.842, 188.6702
3631.771, 188.9331
3633.699, 188.4445
3635.628, 186.7008
3637.556, 186.1682
3639.485, 186.6830
3641.413, 186.7423
3643.342, 186.4348
3645.270, 186.5975
3647.198, 184.9179
3649.127, 186.3559
3651.055, 187.1491
3652.984, 187.0658
3654.912, 185.7522
3656.841, 184.7132
3658.769, 187.5966
3660.698, 189.5790
3662.626, 187.9907
3664.555, 186.8005
3666.483, 186.7972
3668.412, 186.4789
3670.340, 186.0374
3672.269, 185.5791
3674.197, 185.7057
3676.125, 187.2591
3678.054, 187.9548
3679.982, 187.0102
3681.911, 186.2464
3683.839, 185.5865
3685.768, 184.6260
3687.696, 183.8866
3689.625, 183.6748
3691.553, 184.2421
3693.482, 184.4523
3695.410, 186.4931
3697.339, 185.9153
3699.267, 186.4721
3701.196, 187.2048
3703.124, 187.1788
3705.052, 186.9546
3706.981, 186.5287
3708.909, 187.0289
3710.838, 186.1976
3712.766, 186.7711
3714.695, 185.1873
3716.623, 185.3657
3718.552, 185.3631
3720.480, 184.6209
3722.409, 183.5327
3724.337, 182.5004
3726.266, 184.0984
3728.194, 185.9727
3730.123, 185.3486
3732.051, 184.9478
3733.979, 185.5691
3735.908, 185.8178
3737.836, 185.7079
3739.765, 185.6953
3741.693, 185.5611
3743.622, 184.8963
3745.550, 184.4851
3747.479, 184.5925
3749.407, 183.9992
3751.336, 183.0886
3753.264, 183.8852
3755.193, 184.9800
3757.121, 185.4500
3759.050, 185.0464
3760.978, 183.5320
3762.906, 184.4247
3764.835, 183.5219
3766.763, 185.0783
3768.692, 183.3965
3770.620, 183.6376
3772.549, 184.6586
3774.477, 186.3570
3776.406, 185.4466
3778.334, 183.2408
3780.263, 182.2484
3782.191, 182.2093
3784.120, 183.5676
3786.048, 184.0508
3787.977, 183.4494
3789.905, 183.4171
3791.833, 183.6141
3793.762, 183.5765
3795.690, 183.4589
3797.619, 183.3484
3799.547, 182.9805
3801.476, 182.5045
3803.404, 183.1128
3805.333, 183.8671
3807.261, 183.7019
3809.190, 183.6555
3811.118, 184.0053
3813.047, 183.8100
3814.975, 183.4069
3816.904, 184.3625
3818.832, 185.0935
3820.760, 184.0020
3822.689, 183.9723
3824.617, 185.2581
3826.546, 184.2845
3828.474, 182.5816
3830.403, 182.8730
3832.331, 183.4191
3834.260, 183.5765
3836.188, 183.1594
3838.117, 182.4515
3840.045, 183.4967
3841.974, 184.3551
3843.902, 182.6814
3845.831, 181.4387
3847.759, 181.5356
3849.688, 181.4681
3851.616, 181.6182
3853.544, 181.5027
3855.473, 181.1526
3857.401, 181.7190
3859.330, 181.7638
3861.258, 181.5702
3863.187, 182.2859
3865.115, 182.6999
3867.044, 182.5597
3868.972, 182.1534
3870.901, 181.4489
3872.829, 182.6030
3874.758, 184.5237
3876.686, 184.5155
3878.615, 183.1575
3880.543, 179.5121
3882.471, 178.5324
3884.400, 180.3994
3886.328, 181.8953
3888.257, 182.5654
3890.185, 181.7251
3892.114, 181.2405
3894.042, 181.5417
3895.971, 181.7437
3897.899, 181.7325
3899.828, 181.3875
3901.756, 181.2000
3903.685, 180.6370
3905.613, 181.1197
3907.542, 179.6340
3909.470, 179.1000
3911.398, 179.2162
3913.327, 180.1673
3915.255, 180.6372
3917.184, 180.7183
3919.112, 180.3098
3921.041, 179.5474
3922.969, 179.7568
3924.898, 179.8313
3926.826, 178.9973
3928.755, 178.7873
3930.683, 179.2799
3932.612, 180.6747
3934.540, 181.5968
3936.469, 180.6444
3938.397, 180.4222
3940.325, 181.0619
3942.254, 179.4172
3944.182, 177.6485
3946.111, 178.1891
3948.039, 178.6826
3949.968, 178.7633
3951.896, 179.2798
3953.825, 179.8515
3955.753, 180.1494
3957.682, 179.7186
3959.610, 178.0395
3961.539, 177.4814
3963.467, 177.4518
3965.396, 177.0913
3967.324, 177.1697
3969.252, 176.9305
3971.181, 177.1081
3973.109, 176.9239
3975.038, 177.4067
3976.966, 178.1801
3978.895, 178.0779
3980.823, 177.7844
3982.752, 177.6741
3984.680, 176.9824
3986.609, 176.3573
3988.537, 176.7050
3990.466, 176.8526
3992.394, 176.6208
3994.323, 176.2584
3996.251, 175.8033
3998.179, 174.8345
4000.108, 174.9730
4002.036, 176.9427
4003.965, 177.5575
4005.893, 177.2031
4007.822, 176.2108
4009.750, 175.8649
4011.679, 176.8115
4013.607, 176.7120
4015.536, 175.9176
4017.464, 175.0868
4019.393, 175.1352
4021.321, 176.3932
4023.250, 176.6349
4025.178, 176.1346
4027.106, 176.3863
4029.035, 176.4474
4030.963, 176.1692
4032.892, 176.3494
4034.820, 175.8137
4036.749, 176.0892
4038.677, 175.8942
4040.606, 175.1627
4042.534, 174.8662
4044.463, 174.8065
4046.391, 173.9630
4048.320, 173.6981
4050.248, 174.9184
4052.177, 175.6077
4054.105, 175.6929
4056.033, 175.8949
4057.962, 175.7633
4059.890, 175.5331
4061.819, 175.3400
4063.747, 174.5081
4065.676, 174.7740
4067.604, 173.7016
4069.533, 173.6384
4071.461, 174.4641
4073.390, 174.8611
4075.318, 174.2329
4077.247, 173.1673
4079.175, 172.2052
4081.104, 171.7410
4083.032, 172.7995
4084.960, 172.9304
4086.889, 172.3940
4088.817, 171.9847
4090.746, 172.0001
4092.674, 172.3259
4094.603, 172.2172
4096.531, 172.6047
4098.460, 172.9807
4100.388, 172.6954
4102.317, 173.8183
4104.245, 174.3681
4106.174, 174.0682
4108.102, 172.2516
4110.031, 173.4630
4111.959, 171.7420
4113.888, 170.9700
4115.816, 172.1928
4117.745, 172.4803
4119.673, 172.2004
4121.602, 172.3901
4123.530, 172.6650
4125.458, 172.1994
4127.387, 172.3290
4129.315, 173.0441
4131.244, 171.8357
4133.172, 171.0810
4135.101, 171.9294
4137.029, 172.4286
4138.958, 172.0647
4140.886, 171.4071
4142.814, 170.6047
4144.743, 170.5973
4146.671, 169.8505
4148.600, 170.5943
4150.528, 170.7359
4152.457, 171.0741
4154.385, 171.7898
4156.314, 170.8083
4158.242, 168.7538
4160.171, 168.7073
4162.099, 169.6908
4164.028, 170.0247
4165.956, 170.0582
4167.885, 169.9817
4169.813, 170.1421
4171.742, 169.6186
4173.670, 169.9053
4175.599, 169.5591
4177.527, 169.8714
4179.456, 169.2451
4181.384, 168.5404
4183.313, 168.7511
4185.241, 169.0396
4187.169, 169.0278
4189.098, 168.5222
4191.026, 168.1532
4192.955, 167.8949
4194.883, 168.1899
4196.812, 168.7724
4198.740, 168.0386
4200.668, 167.3333
4202.597, 167.8730
4204.525, 167.6128
4206.454, 166.7409
4208.382, 166.1535
4210.311, 166.5681
4212.239, 168.0362
4214.168, 168.7034
4216.096, 168.7648
4218.025, 168.3279
4219.953, 167.2240
4221.882, 165.5228
4223.810, 165.0426
4225.739, 165.1871
4227.667, 165.4159
4229.596, 165.7899
4231.524, 166.4047
4233.453, 167.8573
4235.381, 168.6572
4237.310, 167.6105
4239.238, 167.1834
4241.167, 167.1936
4243.095, 166.3913
4245.023, 165.9329
4246.952, 166.6182
4248.880, 166.0387
4250.809, 164.9859
4252.737, 165.3681
4254.666, 165.3270
4256.594, 164.1515
4258.522, 164.7566
4260.451, 165.5898
4262.379, 164.5328
4264.308, 163.0002
4266.236, 161.4214
4268.165, 163.5714
4270.093, 166.0680
4272.022, 166.0780
4273.950, 165.0212
4275.879, 163.4497
4277.807, 163.5047
4279.736, 163.4995
4281.664, 162.4046
4283.593, 160.9189
4285.521, 159.9835
4287.450, 162.2094
4289.378, 164.6016
4291.307, 166.4666
4293.235, 165.7369
4295.164, 164.2211
4297.092, 164.2256
4299.021, 163.9544
4300.949, 163.2330
4302.877, 163.3490
4304.806, 163.5890
4306.734, 163.5845
4308.663, 162.8082
4310.591, 163.0305
4312.520, 162.1558
4314.448, 162.5781
4316.376, 162.4689
4318.305, 161.7713
4320.233, 161.3221
4322.162, 161.2724
4324.090, 161.0860
4326.019, 161.4010
4327.947, 161.4196
4329.876, 162.0743
4331.804, 162.6722
4333.733, 163.5284
4335.661, 164.3374
4337.590, 163.8901
4339.518, 163.1682
4341.447, 162.4844
4343.375, 162.3837
4345.304, 162.5276
4347.232, 162.5653
4349.161, 162.2692
4351.089, 161.7771
4353.018, 162.4547
4354.946, 163.1593
4356.875, 163.3122
4358.803, 162.5008
4360.731, 161.1715
4362.660, 159.9661
4364.588, 159.4180
4366.517, 159.6400
4368.445, 160.9913
4370.374, 162.2391
4372.302, 162.0667
4374.230, 161.8705
4376.159, 161.6943
4378.087, 161.1733
4380.016, 160.6142
4381.944, 160.1665
4383.873, 160.1337
4385.801, 159.9189
4387.730, 158.0850
4389.658, 157.4682
4391.587, 158.3514
4393.515, 160.1408
4395.444, 160.7998
4397.372, 158.5391
4399.301, 157.9001
4401.229, 158.4088
4403.158, 159.4067
4405.086, 159.7310
4407.015, 159.1729
4408.943, 157.6002
4410.872, 156.8594
4412.800, 158.3222
4414.729, 159.0369
4416.657, 159.1735
4418.585, 159.8717
4420.514, 159.2457
4422.442, 159.3610
4424.371, 159.3456
4426.299, 158.5633
4428.228, 158.7615
4430.156, 157.8119
4432.084, 156.6482
4434.013, 157.5542
4435.941, 158.2392
4437.870, 158.1050
4439.798, 157.3039
4441.727, 156.6749
4443.655, 156.9989
4445.584, 157.2031
4447.512, 157.1697
4449.441, 157.1329
4451.369, 156.3672
4453.298, 156.5600
4455.226, 155.9622
4457.155, 155.2503
4459.083, 154.8388
4461.012, 154.3648
4462.940, 154.1801
4464.869, 154.2815
4466.797, 155.6532
4468.726, 154.9683
4470.654, 155.9788
4472.583, 156.7403
4474.511, 155.5306
4476.439, 156.2715
4478.368, 157.4495
4480.296, 156.4702
4482.225, 155.9165
4484.153, 155.8358
4486.082, 154.0944
4488.010, 152.9341
4489.938, 153.2252
4491.867, 154.3805
4493.795, 154.9383
4495.724, 153.0877
4497.652, 152.2403
4499.581, 152.5117
4501.509, 153.3333
4503.438, 154.2917
4505.366, 155.2019
4507.295, 154.6655
4509.223, 153.4828
4511.152, 151.7138
4513.080, 152.5203
4515.009, 151.2064
4516.937, 151.7444
4518.866, 150.8165
4520.794, 151.6013
4522.723, 152.8149
4524.651, 153.4185
4526.580, 153.0604
4528.508, 152.3863
4530.437, 151.5882
4532.365, 150.2624
4534.293, 151.2326
4536.222, 153.2785
4538.150, 153.0639
4540.079, 152.7686
4542.007, 152.7651
4543.936, 152.5645
4545.864, 152.6296
4547.792, 152.3044
4549.721, 152.7822
4551.649, 152.6048
4553.578, 152.5643
4555.506, 152.7463
4557.435, 152.7872
4559.363, 151.4665
4561.292, 150.6381
4563.220, 150.7337
4565.149, 151.6252
4567.077, 151.9206
4569.006, 150.8283
4570.934, 150.9452
4572.863, 151.0810
4574.791, 150.7593
4576.720, 149.7322
4578.648, 150.9798
4580.577, 151.0690
4582.505, 151.5157
4584.434, 152.4589
4586.362, 152.3429
4588.291, 151.9394
4590.219, 151.6135
4592.147, 150.9409
4594.076, 148.8660
4596.004, 149.2410
4597.933, 148.2368
4599.861, 147.0405
4601.790, 147.9565
4603.718, 149.9946
4605.646, 152.0899
4607.575, 150.2863
4609.503, 148.4447
4611.432, 147.7696
4613.360, 148.4119
4615.289, 149.1731
4617.217, 149.4228
4619.146, 149.0934
4621.074, 148.5030
4623.003, 147.9101
4624.931, 147.5643
4626.860, 147.1858
4628.788, 146.9775
4630.717, 147.0949
4632.645, 146.9012
4634.574, 147.5500
4636.502, 147.9294
4638.431, 148.1491
4640.359, 147.7691
4642.288, 147.0799
4644.216, 145.9729
4646.145, 146.0547
4648.073, 146.6902
4650.001, 147.4934
4651.930, 146.6182
4653.858, 147.1176
4655.787, 146.7292
4657.715, 146.8249
4659.644, 145.7428
4661.572, 145.3338
4663.500, 145.9189
4665.429, 147.3140
4667.357, 145.8902
4669.286, 145.2166
4671.214, 146.5756
4673.143, 145.3268
4675.071, 144.2409
4677.000, 145.7711
4678.928, 146.6621
4680.857, 146.5669
4682.785, 147.5775
4684.714, 147.3483
4686.642, 147.8697
4688.571, 146.7776
4690.499, 145.5016
4692.428, 144.6097
4694.356, 144.2031
4696.285, 144.0582
4698.213, 144.0992
4700.142, 143.7646
4702.070, 143.6823
4703.999, 143.4674
4705.927, 143.3879
4707.855, 143.4803
4709.784, 143.4742
4711.712, 143.2521
4713.641, 143.2617
4715.569, 143.9933
4717.498, 143.6599
4719.426, 143.1933
4721.354, 143.8940
4723.283, 144.5302
4725.211, 144.5933
4727.140, 142.9200
4729.068, 142.2455
4730.997, 142.5594
4732.925, 143.3045
4734.854, 142.7706
4736.782, 141.2833
4738.711, 141.4199
4740.639, 141.0088
4742.568, 139.6735
4744.496, 140.6629
4746.425, 141.6417
4748.353, 141.8012
4750.282, 141.8109
4752.210, 141.5414
4754.139, 140.8821
4756.067, 139.8569
4757.996, 139.2752
4759.924, 139.7451
4761.853, 140.2390
4763.781, 140.7417
4765.709, 141.4337
4767.638, 141.2964
4769.566, 140.6140
4771.495, 139.5423
4773.423, 139.3390
4775.352, 139.6419
4777.280, 139.9734
4779.208, 139.3321
4781.137, 138.8625
4783.065, 138.5414
4784.994, 138.3577
4786.922, 138.1042
4788.851, 138.5335
4790.779, 139.7789
4792.708, 140.5024
4794.636, 140.4593
4796.565, 140.5420
4798.493, 140.1846
4800.422, 139.9543
4802.350, 139.7646
4804.279, 139.5078
4806.207, 140.5261
4808.136, 139.0733
4810.064, 139.1125
4811.993, 138.8535
4813.921, 137.8604
4815.850, 138.3999
4817.778, 138.1502
4819.707, 137.5977
4821.635, 136.9737
4823.563, 137.0269
4825.492, 137.4031
4827.420, 137.0141
4829.349, 138.1842
4831.277, 138.2385
4833.206, 137.1201
4835.134, 138.0969
4837.063, 138.4023
4838.991, 136.5499
4840.919, 136.5833
4842.848, 137.3048
4844.776, 137.9290
4846.705, 137.6983
4848.633, 136.6951
4850.562, 137.0748
4852.490, 135.8864
4854.419, 136.9690
4856.347, 135.5825
4858.276, 135.6829
4860.204, 136.2093
4862.133, 136.4080
4864.061, 136.3002
4865.990, 136.1617
4867.918, 135.7671
4869.847, 135.6539
4871.775, 135.6013
4873.704, 135.3309
4875.632, 135.6183
4877.561, 135.4621
4879.489, 135.4521
4881.417, 135.3864
4883.346, 134.7659
4885.274, 134.9146
4887.203, 134.1515
4889.131, 133.4871
4891.060, 133.9014
4892.988, 133.5061
4894.917, 132.9639
4896.845, 132.7863
4898.773, 132.0805
4900.702, 132.1241
4902.630, 134.0828
4904.559, 133.8291
4906.487, 132.5880
4908.416, 131.1597
4910.344, 131.4287
4912.273, 131.9720
4914.201, 131.8824
4916.130, 132.2896
4918.058, 131.5914
4919.987, 132.8198
4921.915, 132.5769
4923.844, 132.8773
4925.772, 134.4830
4927.701, 133.1528
4929.629, 131.6962
4931.558, 131.4865
4933.486, 131.8332
4935.415, 131.8889
4937.343, 131.3466
4939.271, 129.7745
4941.200, 129.4718
4943.128, 130.8386
4945.057, 129.1617
4946.985, 129.1320
4948.914, 131.1556
4950.842, 130.7683
4952.771, 129.7631
4954.699, 128.9185
4956.627, 129.7637
4958.556, 129.5570
4960.484, 128.5254
4962.413, 129.3330
4964.341, 129.6665
4966.270, 129.2526
4968.198, 127.4983
4970.127, 129.0979
4972.055, 128.2923
4973.984, 130.7412
4975.912, 129.1110
4977.841, 128.2135
4979.769, 129.8246
4981.698, 129.8225
4983.626, 129.0139
4985.555, 128.3270
4987.483, 128.9695
4989.412, 129.1042
4991.340, 127.1218
4993.269, 126.1872
4995.197, 126.3736
4997.125, 127.7322
4999.054, 128.6672
5000.982, 128.2177
5002.911, 128.5713
5004.839, 127.2748
5006.768, 128.0696
5008.696, 127.8777
5010.625, 128.1669
5012.553, 127.4941
5014.481, 125.8817
5016.410, 124.1171
5018.338, 124.2147
5020.267, 125.5715
5022.195, 126.1207
5024.124, 126.8145
5026.052, 127.3728
5027.981, 127.1951
5029.909, 126.3088
5031.838, 125.1707
5033.766, 123.8917
5035.695, 123.7809
5037.623, 123.7181
5039.552, 124.0119
5041.480, 124.6009
5043.409, 125.7709
5045.337, 126.1201
5047.266, 125.1785
5049.194, 124.2145
5051.123, 123.7459
5053.051, 124.1160
5054.979, 124.7572
5056.908, 125.0767
5058.836, 125.4809
5060.765, 125.6003
5062.693, 125.7638
5064.622, 125.3591
5066.550, 124.5630
5068.479, 123.7793
5070.407, 123.2324
5072.335, 122.8244
5074.264, 122.6591
5076.192, 122.5696
5078.121, 122.9455
5080.049, 123.4770
5081.978, 124.2197
5083.906, 123.2844
5085.835, 122.8896
5087.763, 123.1163
5089.692, 122.0001
5091.620, 122.5516
5093.549, 123.6855
5095.477, 122.3690
5097.406, 122.6987
5099.334, 123.1959
5101.263, 121.9288
5103.191, 120.5588
5105.120, 120.2328
5107.048, 121.6340
5108.977, 122.4066
5110.905, 121.6617
5112.833, 119.9378
5114.762, 121.5817
5116.690, 121.7475
5118.619, 120.7695
5120.547, 122.2959
5122.476, 121.6496
5124.404, 120.2480
5126.333, 120.3548
5128.261, 120.5225
5130.189, 121.0968
5132.118, 122.2907
5134.046, 120.3254
5135.975, 119.2982
5137.903, 120.3767
5139.832, 120.8421
5141.760, 120.8331
5143.689, 120.4372
5145.617, 119.5974
5147.546, 119.4675
5149.474, 119.3082
5151.403, 117.7151
5153.331, 118.7140
5155.260, 119.3169
5157.188, 118.0789
5159.117, 117.9409
5161.045, 117.9886
5162.974, 118.1312
5164.902, 119.4987
5166.831, 119.9543
5168.759, 119.9051
5170.688, 120.5703
5172.616, 120.5655
5174.544, 119.6947
5176.473, 119.9800
5178.401, 118.5458
5180.330, 119.0514
5182.258, 118.6281
5184.187, 117.1077
5186.115, 116.6946
5188.043, 117.3052
5189.972, 118.0772
5191.900, 118.4083
5193.829, 118.2751
5195.757, 117.7007
5197.686, 117.9779
5199.614, 117.6650
5201.543, 117.9221
5203.471, 117.4293
5205.400, 117.1921
5207.328, 117.0369
5209.257, 116.6869
5211.185, 116.6258
5213.114, 116.3886
5215.042, 116.4319
5216.971, 116.7338
5218.899, 116.6568
5220.828, 116.2270
5222.756, 117.0558
5224.685, 116.5225
5226.613, 116.7537
5228.542, 116.4185
5230.470, 116.8402
5232.398, 116.9318
5234.327, 116.8574
5236.255, 114.6080
5238.184, 114.7178
5240.112, 113.8140
5242.041, 113.9366
5243.969, 113.3068
5245.897, 114.3764
5247.826, 115.6839
5249.754, 116.3273
5251.683, 115.7395
5253.611, 114.0540
5255.540, 113.7722
5257.468, 113.8069
5259.397, 113.8458
5261.325, 113.6916
5263.254, 114.4862
5265.182, 115.0895
5267.111, 114.6034
5269.039, 114.1584
5270.968, 114.1681
5272.896, 114.4522
5274.825, 114.2244
5276.753, 113.2203
5278.682, 112.1270
5280.610, 111.4298
5282.539, 113.2879
5284.467, 114.3778
5286.396, 113.7170
5288.324, 113.8764
5290.252, 113.2069
5292.181, 112.3169
5294.109, 112.4249
5296.038, 112.1904
5297.966, 112.1364
5299.895, 112.7035
5301.823, 112.5310
5303.751, 112.5218
5305.680, 112.4133
5307.608, 112.2370
5309.537, 111.7677
5311.465, 111.6258
5313.394, 111.1597
5315.322, 111.0817
5317.251, 110.7353
5319.179, 110.1878
5321.108, 109.8697
5323.036, 110.5943
5324.965, 110.6760
5326.893, 109.2462
5328.822, 110.3187
5330.750, 109.8606
5332.679, 108.4714
5334.607, 110.4821
5336.536, 111.1416
5338.464, 111.1533
5340.393, 111.2153
5342.321, 110.2018
5344.250, 109.3434
5346.178, 109.0902
5348.106, 108.4276
5350.035, 108.8809
5351.963, 107.6564
5353.892, 108.1929
5355.820, 107.7823
5357.749, 107.0770
5359.677, 106.9231
5361.605, 108.5854
5363.534, 108.9986
5365.462, 108.9062
5367.391, 108.8475
5369.319, 108.0918
5371.248, 107.2098
5373.176, 106.7016
5375.105, 107.1577
5377.033, 106.9507
5378.962, 106.6910
5380.890, 106.6028
5382.819, 105.9166
5384.747, 106.5407
5386.676, 107.5171
5388.604, 107.5806
5390.533, 106.5882
5392.461, 106.1058
5394.390, 106.2706
5396.318, 105.6973
5398.247, 106.5571
5400.175, 106.9511
5402.104, 105.5271
5404.032, 105.6438
5405.960, 104.9482
5407.889, 103.9566
5409.817, 105.3138
5411.746, 104.5851
5413.674, 103.7409
5415.603, 103.8627
5417.531, 104.8365
5419.459, 104.5249
5421.388, 103.3221
5423.316, 102.0664
5425.245, 103.9128
5427.173, 103.5046
5429.102, 101.2287
5431.030, 103.9699
5432.959, 103.3820
5434.887, 102.5196
5436.816, 103.5380
5438.744, 103.4840
5440.673, 103.3251
5442.601, 103.0427
5444.530, 102.3613
5446.458, 102.5782
5448.387, 102.2005
5450.315, 102.7652
5452.244, 102.0223
5454.172, 102.0544
5456.101, 102.1966
5458.029, 101.7823
5459.958, 100.1836
5461.886, 101.3264
5463.814, 102.3338
5465.743, 98.94507
5467.671, 100.7417
5469.600, 102.1602
5471.528, 101.7176
5473.457, 101.3634
5475.385, 100.6414
5477.313, 100.2252
5479.242, 100.4066
5481.170, 100.4846
5483.099, 100.3600
5485.027, 100.0312
5486.956, 99.52544
5488.884, 98.94759
5490.813, 99.20995
5492.741, 100.1269
5494.670, 101.3617
5496.598, 99.85238
5498.527, 99.41923
5500.455, 100.3714
5502.384, 98.01257
5504.312, 97.91634
5506.241, 99.17496
5508.169, 100.2991
5510.098, 98.77074
5512.026, 98.65634
5513.955, 99.32722
5515.883, 99.44344
5517.812, 99.04787
5519.740, 98.70818
5521.668, 98.50813
5523.597, 98.38909
5525.525, 98.32811
5527.454, 98.57299
5529.382, 98.25610
5531.311, 98.18788
5533.239, 98.57264
5535.167, 97.81657
5537.096, 97.13148
5539.024, 97.02618
5540.953, 97.89970
5542.881, 96.99242
5544.810, 97.16760
5546.738, 97.76495
5548.667, 97.10609
5550.595, 97.35386
5552.524, 97.43256
5554.452, 96.80725
5556.381, 97.29754
5558.309, 96.42171
5560.238, 95.60308
5562.166, 94.72848
5564.095, 94.64367
5566.023, 94.97099
5567.952, 94.10721
5569.880, 94.55433
5571.809, 95.29403
5573.737, 95.58525
5575.666, 95.55101
5577.594, 95.49803
5579.522, 94.97920
5581.451, 94.53455
5583.379, 93.86276
5585.308, 92.86153
5587.236, 92.59949
5589.165, 93.46160
5591.093, 93.97690
5593.021, 93.19675
5594.950, 92.52811
5596.878, 92.96538
5598.807, 93.69279
5600.735, 93.48971
5602.664, 93.02262
5604.592, 92.92966
5606.521, 91.91732
5608.449, 91.92397
5610.378, 92.49902
5612.306, 92.75325
5614.235, 90.60668
5616.163, 91.85117
5618.092, 93.57406
5620.020, 91.09945
5621.949, 90.65507
5623.877, 91.38667
5625.806, 92.05309
5627.734, 91.54941
5629.663, 91.98986
5631.591, 91.55882
5633.520, 90.96043
5635.448, 91.47646
5637.376, 90.61472
5639.305, 90.40770
5641.233, 90.34316
5643.162, 89.07641
5645.090, 90.31438
5647.019, 90.83700
5648.947, 89.94485
5650.875, 90.26991
5652.804, 89.05566
5654.732, 89.48266
5656.661, 88.85706
5658.589, 88.74187
5660.518, 89.07670
5662.446, 89.66602
5664.375, 89.63697
5666.303, 88.21889
5668.232, 87.41751
5670.160, 88.34927
5672.089, 90.05990
5674.017, 91.26176
5675.946, 88.93496
5677.874, 87.94871
5679.803, 87.91084
5681.731, 87.24729
5683.660, 86.99326
5685.588, 87.03601
5687.517, 87.52822
5689.445, 87.37882
5691.374, 88.12302
5693.302, 87.60859
5695.230, 87.40665
5697.159, 87.59651
5699.087, 87.31326
5701.016, 86.85725
5702.944, 86.63673
5704.873, 86.79865
5706.801, 87.00510
5708.729, 86.68105
5710.658, 85.75785
5712.586, 84.78028
5714.515, 85.87189
5716.443, 87.10070
5718.372, 86.79770
5720.300, 85.57026
5722.229, 86.47947
5724.157, 84.89488
5726.086, 83.75227
5728.014, 83.96126
5729.943, 84.83718
5731.871, 85.41541
5733.800, 84.67798
5735.728, 83.45937
5737.657, 83.10713
5739.585, 83.26249
5741.514, 83.39443
5743.442, 83.95052
5745.371, 83.62691
5747.299, 84.09599
5749.228, 83.15739
5751.156, 82.59261
5753.084, 82.31828
5755.013, 83.92807
5756.941, 83.75802
5758.870, 83.55087
5760.798, 83.86805
5762.727, 83.01259
5764.655, 82.94917
5766.583, 83.14554
5768.512, 82.98337
5770.440, 82.00883
5772.369, 81.75127
5774.297, 81.91796
5776.226, 82.05560
5778.154, 81.80812
5780.083, 81.69309
5782.011, 81.60271
5783.940, 81.43264
5785.868, 81.32715
5787.797, 81.21758
5789.725, 81.13493
5791.654, 81.10006
5793.582, 81.20216
5795.511, 81.75899
5797.439, 80.10700
5799.368, 80.70728
5801.296, 81.49592
5803.225, 78.42304
5805.153, 79.23704
5807.082, 79.93968
5809.010, 79.68335
5810.938, 78.88056
5812.867, 79.09609
5814.795, 79.47485
5816.724, 79.86810
5818.652, 79.88549
5820.581, 79.99776
5822.509, 80.14244
5824.438, 79.74433
5826.366, 80.14242
5828.294, 79.75766
5830.223, 79.41658
5832.151, 77.99535
5834.080, 77.98180
5836.008, 77.66518
5837.937, 78.64670
5839.865, 77.93408
5841.794, 78.42953
5843.722, 79.25123
5845.651, 78.92915
5847.579, 78.11162
5849.508, 77.87868
5851.436, 77.38794
5853.365, 77.34237
5855.293, 77.15142
5857.222, 77.42437
5859.150, 77.25801
5861.079, 77.12136
5863.007, 77.37003
5864.936, 75.74305
5866.864, 74.93364
5868.792, 75.46581
5870.721, 76.80231
5872.649, 77.21550
5874.578, 76.18616
5876.506, 75.94700
5878.435, 76.81871
5880.363, 77.09740
5882.292, 74.97659
5884.220, 75.06017
5886.148, 75.07166
5888.077, 72.37997
5890.005, 74.61577
5891.934, 74.42585
5893.862, 74.35284
5895.791, 75.08867
5897.719, 74.69717
5899.648, 74.89368
5901.576, 75.05214
5903.505, 74.94073
5905.433, 74.68916
5907.362, 74.87637
5909.290, 73.62817
5911.219, 72.90102
5913.147, 73.15072
5915.076, 73.61047
5917.004, 73.54553
5918.933, 74.57455
5920.861, 74.25983
5922.790, 72.26210
5924.718, 73.51590
5926.646, 71.44763
5928.575, 71.97486
5930.503, 73.76579
5932.432, 73.43879
5934.360, 72.34791
5936.289, 72.02246
5938.217, 72.16369
5940.146, 72.34012
5942.074, 72.24108
5944.002, 71.23319
5945.931, 71.35053
5947.859, 72.25844
5949.788, 72.87711
5951.716, 71.42400
5953.645, 70.45635
5955.573, 70.43677
5957.502, 70.58756
5959.430, 70.21397
5961.359, 69.07850
5963.287, 70.08754
5965.216, 70.67030
5967.144, 70.84867
5969.073, 69.46633
5971.001, 70.05741
5972.930, 69.83199
5974.858, 69.55557
5976.787, 70.37207
5978.715, 69.12261
5980.644, 69.88488
5982.572, 69.81856
5984.500, 70.10480
5986.429, 69.56956
5988.357, 69.26419
5990.286, 69.74378
5992.214, 69.76038
5994.143, 69.05947
5996.071, 69.25959
5998.000, 67.79900
5999.928, 67.76131
6001.856, 68.32717
6003.785, 68.49129
6005.713, 67.52743
6007.642, 68.85829
6009.570, 68.64780
6011.499, 67.89051
6013.427, 67.53955
6015.356, 67.86096
6017.284, 67.42221
6019.213, 68.51839
6021.141, 68.48734
6023.070, 67.62070
6024.998, 68.40047
6026.927, 68.37122
6028.855, 67.91595
6030.784, 66.84334
6032.712, 66.14334
6034.641, 66.02972
6036.569, 65.91111
6038.498, 65.90715
6040.426, 65.99127
6042.354, 66.42712
6044.283, 66.19058
6046.211, 66.42755
6048.140, 66.31644
6050.068, 66.48203
6051.997, 66.18277
6053.925, 66.28654
6055.854, 65.91378
6057.782, 65.38124
6059.710, 65.24720
6061.639, 65.30711
6063.567, 64.77242
6065.496, 64.31083
6067.424, 64.97575
6069.353, 65.55101
6071.281, 65.07507
6073.210, 63.25997
6075.138, 63.66814
6077.067, 63.78965
6078.995, 64.03680
6080.924, 64.05191
6082.852, 62.99611
6084.781, 64.01461
6086.709, 64.63983
6088.638, 64.13113
6090.566, 62.77087
6092.495, 61.44073
6094.423, 62.91368
6096.352, 63.43255
6098.280, 63.88276
6100.208, 63.84114
6102.137, 62.75006
6104.065, 62.54268
6105.994, 61.91893
6107.922, 61.23212
6109.851, 61.76668
6111.779, 63.28708
6113.708, 62.25994
6115.636, 62.49856
6117.564, 62.12048
6119.493, 61.16481
6121.421, 60.71597
6123.350, 62.08686
6125.278, 62.96893
6127.207, 62.13445
6129.135, 60.71863
6131.064, 60.10094
6132.992, 60.97891
6134.921, 60.82804
6136.849, 60.61452
6138.778, 61.02265
6140.706, 60.82033
6142.635, 59.24755
6144.563, 59.93068
6146.492, 59.29689
6148.420, 59.44521
6150.349, 60.01863
6152.277, 60.15728
6154.206, 59.75694
6156.134, 59.37716
6158.063, 60.21719
6159.991, 60.55297
6161.919, 59.93415
6163.848, 59.17574
6165.776, 58.37414
6167.705, 57.91671
6169.633, 59.57180
6171.562, 60.48894
6173.490, 58.79889
6175.418, 59.13825
6177.347, 57.92788
6179.275, 58.23152
6181.204, 58.09245
6183.132, 56.99186
6185.061, 56.78683
6186.989, 58.43195
6188.918, 58.88349
6190.846, 58.57069
6192.775, 58.52454
6194.703, 58.34059
6196.632, 57.82766
6198.560, 57.56469
6200.489, 56.95667
6202.417, 56.26958
6204.346, 56.24345
6206.274, 56.16461
6208.203, 55.78621
6210.131, 56.50143
6212.060, 55.74502
6213.988, 55.62581
6215.917, 56.47712
6217.845, 58.50559
6219.773, 55.53822
6221.702, 59.98195
6223.630, 60.59391
6225.559, 56.77317
6227.487, 55.62587
6229.416, 55.20545
6231.344, 55.87523
6233.272, 54.57544
6235.201, 54.40199
6237.129, 55.84490
6239.058, 55.50224
6240.986, 54.00495
6242.915, 55.75684
6244.843, 55.04578
6246.772, 54.25489
6248.700, 55.59700
6250.629, 55.53902
6252.557, 55.50246
6254.486, 54.89415
6256.414, 54.10986
6258.343, 53.55741
6260.271, 53.52808
6262.200, 53.30222
6264.128, 53.97657
6266.057, 53.52739
6267.985, 53.78559
6269.914, 54.02498
6271.842, 53.39864
6273.771, 53.09285
6275.699, 53.76556
6277.627, 54.16140
6279.556, 53.95804
6281.484, 52.99923
6283.413, 53.34194
6285.341, 52.92363
6287.270, 52.98748
6289.198, 53.11325
6291.126, 52.48206
6293.055, 51.54694
6294.983, 51.84399
6296.912, 53.19947
6298.840, 51.98030
6300.769, 52.13618
6302.697, 52.16335
6304.626, 51.52431
6306.554, 51.41903
6308.483, 50.89527
6310.411, 50.65825
6312.340, 49.99377
6314.268, 50.23096
6316.197, 50.74997
6318.125, 49.93887
6320.054, 49.31375
6321.982, 49.81961
6323.911, 50.47833
6325.839, 50.94261
6327.768, 50.92267
6329.696, 50.51554
6331.625, 51.01009
6333.553, 50.48262
6335.481, 49.89704
6337.410, 49.45740
6339.338, 49.41966
6341.267, 49.87196
6343.195, 50.35944
6345.124, 50.75558
6347.052, 50.87569
6348.980, 50.72576
6350.909, 50.07759
6352.837, 49.30211
6354.766, 49.39996
6356.694, 49.07337
6358.623, 48.51762
6360.551, 48.32744
6362.480, 48.43100
6364.408, 48.60246
6366.337, 48.73542
6368.265, 48.63662
6370.194, 49.52379
6372.122, 48.75214
6374.051, 48.63843
6375.979, 48.49456
6377.908, 47.10875
6379.836, 47.70819
6381.765, 48.43991
6383.693, 47.62197
6385.622, 47.27763
6387.550, 48.18752
6389.479, 48.94704
6391.407, 47.84606
6393.335, 47.71825
6395.264, 47.84577
6397.192, 47.15115
6399.121, 47.34953
6401.049, 47.78477
6402.978, 46.88585
6404.906, 47.43478
6406.834, 46.43341
6408.763, 47.39574
6410.691, 46.75785
6412.620, 45.95196
6414.548, 46.01369
6416.477, 46.45279
6418.405, 46.13655
6420.334, 45.86666
6422.262, 46.41983
6424.191, 45.96014
6426.119, 45.58522
6428.048, 45.90913
6429.976, 44.97997
6431.905, 45.55466
6433.833, 45.14112
6435.762, 46.11687
6437.690, 46.74421
6439.619, 46.64142
6441.547, 45.40154
6443.476, 44.09656
6445.404, 45.22487
6447.333, 45.31895
6449.261, 46.06333
6451.189, 45.79929
6453.118, 44.74174
6455.046, 44.22974
6456.975, 43.34555
6458.903, 44.64056
6460.832, 44.96112
6462.760, 44.62329
6464.688, 44.42671
6466.617, 44.14469
6468.545, 43.54188
6470.474, 44.06939
6472.402, 43.53317
6474.331, 42.88483
6476.259, 42.78827
6478.188, 43.51744
6480.116, 43.66288
6482.045, 42.61329
6483.973, 42.97701
6485.902, 42.65159
6487.830, 43.39296
6489.759, 42.12130
6491.687, 41.08106
6493.616, 41.96923
6495.544, 43.63454
6497.473, 43.13601
6499.401, 43.16265
6501.330, 42.05265
6503.258, 41.92842
6505.187, 42.42271
6507.115, 41.65989
6509.043, 40.71342
6510.972, 42.54387
6512.900, 40.83587
6514.829, 41.87426
6516.757, 42.12864
6518.686, 42.01232
6520.614, 41.22554
6522.542, 40.57198
6524.471, 41.11915
6526.399, 40.07177
6528.328, 40.33289
6530.256, 40.13253
6532.185, 40.37733
6534.113, 41.42896
6536.042, 41.48176
6537.970, 41.02857
6539.899, 40.34010
6541.827, 40.76926
6543.756, 40.77825
6545.684, 40.16309
6547.613, 39.89375
6549.541, 41.03571
6551.470, 41.30943
6553.398, 41.07557
6555.327, 39.56642
6557.255, 40.62184
6559.184, 39.78748
6561.112, 39.64894
6563.041, 40.55310
6564.969, 40.28477
6566.897, 39.00574
6568.826, 39.14610
6570.754, 39.11882
6572.683, 38.61438
6574.611, 39.28382
6576.540, 38.45874
6578.468, 38.83071
6580.396, 39.21493
6582.325, 39.27565
6584.253, 38.99290
6586.182, 38.59051
6588.110, 38.19297
6590.039, 38.14764
6591.967, 37.90942
6593.896, 38.10770
6595.824, 37.97957
6597.753, 38.03019
6599.681, 38.59566
6601.610, 39.11147
6603.538, 38.62609
6605.467, 38.89671
6607.395, 37.96964
6609.324, 38.48782
6611.252, 38.06700
6613.181, 37.59538
6615.109, 38.06282
6617.038, 38.99596
6618.966, 37.52731
6620.895, 37.60587
6622.823, 38.35946
6624.751, 37.93628
6626.680, 37.45769
6628.608, 37.29608
6630.537, 36.67455
##END=



