##NAMES=Cobaltaustinite
##RRUFFID=R050536
##IDEAL CHEMISTRY=CaCo(AsO_4_)(OH)
##LOCALITY=Dome Rock, Mingary, South Australia, Australia
##OWNER=RRUFF
##SOURCE=University of Arizona Mineral Museum
##DESCRIPTION=Dark-green drusy coating
##STATUS=The identification of this mineral is confirmed by single-crystal X-ray diffraction and chemical analysis
##URL=https://www.rruff.net/odr/rruff_sample/R050536
##MEASURED CHEMISTRY=Ca_1.00_(Co_0.95_Cu_0.05_)As_1.00_O_4_(OH) ; (OH) estimated by difference and stoichiometry
##DIFFRACTION SAMPLE DESCRIPTION=Single crystal, powder profile is calculated
##CELL PARAMETERS=a: 7.495 b: 9.001 c: 5.909 alpha: 90 beta: 90 gamma: 90 volume: 398.6 crystal system: orthorhombic
##FILETYPE=Raman RAW
##RAMAN WAVELENGTH=780

83.81592, 1132.931
85.74438, 1196.114
87.67285, 1284.269
89.60132, 1368.340
91.52979, 1448.416
93.45825, 1493.048
95.38672, 1430.626
97.31519, 1378.765
99.24365, 1334.471
101.1721, 1297.299
103.1006, 1266.450
105.0291, 1241.254
106.9575, 1221.685
108.8860, 1206.982
110.8145, 1194.332
112.7429, 1182.102
114.6714, 1170.422
116.5999, 1156.979
118.5283, 1143.610
120.4568, 1135.297
122.3853, 1133.375
124.3137, 1131.833
126.2422, 1129.307
128.1707, 1126.924
130.0991, 1124.675
132.0276, 1122.845
133.9561, 1122.292
135.8845, 1123.216
137.8130, 1124.352
139.7415, 1126.054
141.6699, 1127.210
143.5984, 1126.887
145.5269, 1125.831
147.4553, 1125.103
149.3838, 1124.731
151.3123, 1124.943
153.2407, 1126.743
155.1692, 1127.941
157.0977, 1126.116
159.0261, 1124.226
160.9546, 1126.108
162.8831, 1132.597
164.8115, 1138.006
166.7400, 1142.682
168.6685, 1145.689
170.5969, 1144.574
172.5254, 1143.406
174.4539, 1146.620
176.3823, 1154.118
178.3108, 1157.983
180.2393, 1157.742
182.1677, 1156.217
184.0962, 1152.132
186.0247, 1149.251
187.9531, 1150.619
189.8816, 1155.092
191.8101, 1158.315
193.7385, 1160.163
195.6670, 1161.425
197.5955, 1162.246
199.5239, 1162.202
201.4524, 1160.404
203.3809, 1158.041
205.3093, 1157.422
207.2378, 1158.652
209.1663, 1158.103
211.0947, 1154.312
213.0232, 1152.098
214.9517, 1156.117
216.8801, 1159.863
218.8086, 1157.134
220.7371, 1149.090
222.6655, 1142.896
224.5940, 1138.949
226.5225, 1134.314
228.4509, 1126.858
230.3794, 1120.051
232.3079, 1115.680
234.2363, 1112.769
236.1648, 1110.032
238.0933, 1107.398
240.0217, 1103.089
241.9502, 1094.607
243.8787, 1089.085
245.8071, 1089.943
247.7356, 1092.769
249.6641, 1094.552
251.5925, 1095.295
253.5210, 1094.767
255.4495, 1092.497
257.3779, 1091.459
259.3064, 1093.397
261.2349, 1095.106
263.1633, 1095.025
265.0918, 1094.444
267.0203, 1094.840
268.9487, 1096.130
270.8772, 1097.997
272.8057, 1101.176
274.7341, 1103.444
276.6626, 1103.268
278.5911, 1103.546
280.5195, 1106.265
282.4480, 1110.322
284.3765, 1113.947
286.3049, 1116.941
288.2334, 1121.277
290.1619, 1128.227
292.0903, 1134.810
294.0188, 1140.192
295.9473, 1145.459
297.8757, 1151.416
299.8042, 1157.794
301.7327, 1163.954
303.6611, 1169.648
305.5896, 1175.974
307.5181, 1182.693
309.4465, 1190.310
311.3750, 1199.510
313.3035, 1209.030
315.2319, 1217.607
317.1604, 1225.738
319.0889, 1235.505
321.0173, 1248.325
322.9458, 1257.750
324.8743, 1262.802
326.8027, 1266.594
328.7312, 1271.263
330.6597, 1273.971
332.5882, 1272.676
334.5166, 1267.853
336.4451, 1260.166
338.3736, 1248.673
340.3020, 1240.267
342.2305, 1236.563
344.1590, 1232.638
346.0874, 1226.305
348.0159, 1219.343
349.9444, 1213.055
351.8728, 1206.966
353.8013, 1199.479
355.7298, 1190.593
357.6582, 1182.810
359.5867, 1177.424
361.5152, 1169.883
363.4436, 1155.491
365.3721, 1141.850
367.3006, 1133.801
369.2290, 1128.737
371.1575, 1121.505
373.0860, 1112.484
375.0144, 1105.306
376.9429, 1100.268
378.8714, 1096.708
380.7998, 1095.971
382.7283, 1094.951
384.6568, 1091.743
386.5852, 1088.206
388.5137, 1087.187
390.4422, 1087.774
392.3706, 1086.405
394.2991, 1082.499
396.2276, 1080.207
398.1560, 1082.325
400.0845, 1083.183
402.0130, 1080.586
403.9414, 1077.135
405.8699, 1074.232
407.7984, 1072.247
409.7268, 1071.948
411.6553, 1073.304
413.5838, 1074.876
415.5122, 1077.592
417.4407, 1078.219
419.3692, 1074.094
421.2976, 1070.674
423.2261, 1071.811
425.1546, 1073.668
427.0830, 1072.049
429.0115, 1067.927
430.9400, 1064.558
432.8684, 1062.817
434.7969, 1058.754
436.7254, 1050.885
438.6538, 1042.992
440.5823, 1034.691
442.5108, 1027.640
444.4392, 1023.319
446.3677, 1020.487
448.2962, 1018.033
450.2246, 1015.887
452.1531, 1013.121
454.0816, 1008.904
456.0100, 1006.315
457.9385, 1006.417
459.8670, 1006.071
461.7954, 1003.788
463.7239, 1001.540
465.6524, 1000.803
467.5808, 1000.662
469.5093, 1000.356
471.4378, 999.7180
473.3662, 996.6693
475.2947, 990.9176
477.2232, 983.9764
479.1516, 975.0171
481.0801, 967.2254
483.0086, 961.6693
484.9370, 957.6488
486.8655, 955.9489
488.7940, 954.5966
490.7224, 950.5077
492.6509, 944.3263
494.5794, 940.1498
496.5078, 938.0518
498.4363, 934.7969
500.3648, 929.6954
502.2932, 925.0046
504.2217, 922.3337
506.1502, 918.9325
508.0786, 912.0861
510.0071, 905.3763
511.9356, 903.0203
513.8640, 903.3376
515.7925, 901.8260
517.7209, 898.7385
519.6494, 895.8810
521.5779, 893.3618
523.5063, 891.1735
525.4348, 889.6551
527.3633, 887.9339
529.2917, 885.3615
531.2202, 883.0037
533.1487, 882.2118
535.0771, 881.5795
537.0056, 878.4200
538.9341, 873.9147
540.8625, 871.6263
542.7910, 871.6588
544.7195, 870.9147
546.6479, 869.1439
548.5764, 866.3509
550.5049, 861.1287
552.4333, 857.0510
554.3618, 855.9088
556.2903, 855.6660
558.2188, 854.7383
560.1472, 853.8990
562.0757, 854.7181
564.0042, 856.4161
565.9326, 855.8120
567.8611, 852.2746
569.7896, 850.0021
571.7180, 849.8410
573.6465, 849.8374
575.5750, 851.0518
577.5034, 850.7215
579.4319, 846.6621
581.3604, 842.2707
583.2889, 839.5872
585.2173, 838.0076
587.1458, 837.2117
589.0743, 836.9733
591.0027, 836.4782
592.9312, 835.7371
594.8597, 834.8561
596.7881, 834.1792
598.7166, 832.3076
600.6451, 828.3278
602.5735, 825.1215
604.5020, 823.8231
606.4305, 822.9432
608.3589, 821.5974
610.2874, 820.4307
612.2159, 820.1703
614.1443, 820.2733
616.0728, 819.8486
618.0013, 818.9010
619.9297, 817.5656
621.8582, 815.7838
623.7867, 813.6969
625.7151, 811.0660
627.6436, 809.5374
629.5721, 810.2411
631.5005, 809.9142
633.4290, 806.8141
635.3575, 803.3189
637.2859, 800.2781
639.2144, 797.6173
641.1429, 794.4946
643.0714, 792.1848
644.9998, 794.1397
646.9283, 798.7570
648.8568, 799.1967
650.7852, 795.8569
652.7137, 792.8068
654.6422, 790.2256
656.5706, 788.6406
658.4991, 788.7274
660.4276, 788.1449
662.3560, 785.8369
664.2845, 783.4523
666.2130, 780.9608
668.1414, 779.2923
670.0699, 779.8317
671.9984, 780.9094
673.9268, 780.8632
675.8553, 779.9442
677.7838, 778.3226
679.7122, 776.2569
681.6407, 774.6530
683.5692, 773.5026
685.4976, 772.4149
687.4261, 771.1204
689.3546, 770.5930
691.2830, 772.2161
693.2115, 772.4131
695.1400, 769.1921
697.0684, 766.8703
698.9969, 767.7011
700.9254, 768.7968
702.8538, 768.0651
704.7823, 767.2701
706.7108, 768.5208
708.6392, 770.3691
710.5677, 771.1252
712.4962, 770.8491
714.4246, 768.9945
716.3531, 765.6476
718.2816, 765.8412
720.2100, 770.6738
722.1385, 774.5909
724.0670, 778.0562
725.9954, 779.1547
727.9239, 774.8446
729.8524, 775.2852
731.7808, 785.4808
733.7093, 795.0198
735.6378, 799.0767
737.5662, 802.3256
739.4947, 807.1634
741.4232, 812.7140
743.3516, 818.8314
745.2801, 824.9369
747.2086, 829.3380
749.1370, 833.6096
751.0655, 840.9561
752.9940, 851.3612
754.9224, 864.9759
756.8509, 881.8631
758.7794, 900.3133
760.7078, 920.4198
762.6363, 940.1162
764.5648, 958.7850
766.4932, 980.3708
768.4217, 1005.690
770.3502, 1033.672
772.2786, 1064.797
774.2071, 1096.956
776.1356, 1130.670
778.0640, 1163.599
779.9925, 1194.248
781.9210, 1224.468
783.8494, 1251.313
785.7779, 1282.514
787.7064, 1326.290
789.6348, 1378.495
791.5633, 1438.192
793.4918, 1499.837
795.4202, 1556.620
797.3487, 1604.307
799.2772, 1627.223
801.2056, 1628.164
803.1341, 1621.778
805.0626, 1609.044
806.9910, 1598.627
808.9195, 1590.710
810.8480, 1589.942
812.7764, 1602.385
814.7049, 1605.844
816.6334, 1600.003
818.5618, 1580.646
820.4903, 1544.436
822.4188, 1499.188
824.3472, 1444.521
826.2757, 1384.277
828.2042, 1319.435
830.1326, 1250.018
832.0611, 1170.891
833.9896, 1093.580
835.9180, 1024.319
837.8465, 962.6995
839.7750, 907.8319
841.7034, 860.7931
843.6319, 824.4266
845.5604, 795.9274
847.4888, 770.6336
849.4173, 749.2797
851.3458, 734.5475
853.2742, 725.6524
855.2027, 719.3859
857.1312, 715.5214
859.0596, 709.2023
860.9881, 700.0128
862.9166, 694.4313
864.8450, 693.6296
866.7735, 689.9399
868.7020, 682.8268
870.6304, 675.4911
872.5589, 667.5422
874.4874, 662.8541
876.4158, 663.0556
878.3443, 661.7938
880.2728, 657.1818
882.2012, 652.8887
884.1297, 649.4573
886.0582, 647.7028
887.9866, 649.1996
889.9151, 649.7531
891.8436, 647.6049
893.7720, 644.3514
895.7005, 639.8463
897.6290, 635.6009
899.5574, 632.1508
901.4859, 629.5135
903.4144, 627.7891
905.3428, 626.7426
907.2713, 627.0106
909.1998, 626.9242
911.1282, 624.3903
913.0567, 621.0256
914.9852, 618.0479
916.9136, 616.0480
918.8421, 616.7859
920.7706, 618.4810
922.6990, 618.4949
924.6275, 617.0443
926.5560, 613.8143
928.4844, 609.7267
930.4129, 606.4600
932.3414, 604.1403
934.2698, 603.7223
936.1983, 604.4379
938.1268, 603.5311
940.0552, 601.3030
941.9837, 599.2804
943.9122, 597.6962
945.8406, 598.6434
947.7691, 601.9649
949.6976, 600.8768
951.6260, 594.9352
953.5545, 591.0850
955.4830, 589.6227
957.4114, 589.6225
959.3399, 591.8271
961.2684, 591.7542
963.1968, 588.2929
965.1253, 586.0237
967.0538, 585.4601
968.9822, 584.6085
970.9107, 583.3978
972.8392, 582.0802
974.7676, 581.0277
976.6961, 578.5161
978.6246, 573.2880
980.5530, 570.4429
982.4815, 571.0227
984.4100, 572.2199
986.3384, 574.4017
988.2669, 574.5287
990.1954, 571.5674
992.1238, 568.6901
994.0523, 566.2849
995.9808, 564.8224
997.9092, 564.7314
999.8377, 564.1891
1001.766, 562.5292
1003.695, 561.4280
1005.623, 561.6402
1007.552, 561.1480
1009.480, 559.2793
1011.409, 557.1732
1013.337, 554.7192
1015.265, 553.4142
1017.194, 554.1118
1019.122, 554.6667
1021.051, 554.9262
1022.979, 553.6530
1024.908, 549.1483
1026.836, 546.6304
1028.765, 548.9342
1030.693, 549.8335
1032.622, 546.8295
1034.550, 544.4614
1036.479, 543.9913
1038.407, 543.8918
1040.335, 544.2394
1042.264, 544.1528
1044.192, 543.8826
1046.121, 542.3306
1048.049, 536.6816
1049.978, 534.3004
1051.906, 539.7100
1053.835, 542.6428
1055.763, 539.7436
1057.692, 537.2833
1059.620, 537.2679
1061.549, 535.9962
1063.477, 531.1104
1065.406, 528.2070
1067.334, 530.1432
1069.262, 530.2874
1071.191, 526.0809
1073.120, 523.1530
1075.048, 522.5883
1076.976, 522.6080
1078.905, 524.0255
1080.833, 524.0179
1082.762, 521.3497
1084.690, 519.6710
1086.619, 520.0557
1088.547, 519.2338
1090.476, 515.9280
1092.404, 514.3615
1094.333, 515.5373
1096.261, 515.7599
1098.190, 514.5248
1100.118, 513.7165
1102.047, 513.5397
1103.975, 513.3406
1105.903, 513.4164
1107.832, 511.4725
1109.760, 507.0392
1111.689, 504.4434
1113.617, 503.8966
1115.546, 503.0562
1117.474, 501.8006
1119.403, 501.7390
1121.331, 502.8953
1123.260, 502.0531
1125.188, 499.3983
1127.117, 498.1212
1129.045, 498.0289
1130.974, 497.8399
1132.902, 497.3893
1134.830, 495.7398
1136.759, 493.5405
1138.687, 491.9937
1140.616, 491.4079
1142.544, 494.4187
1144.473, 498.5367
1146.401, 498.1676
1148.330, 495.4252
1150.258, 493.2628
1152.187, 491.9083
1154.115, 492.0685
1156.044, 492.2438
1157.972, 490.1222
1159.901, 488.3343
1161.829, 490.4124
1163.757, 492.5287
1165.686, 491.1486
1167.614, 488.9727
1169.543, 487.1256
1171.471, 486.1697
1173.400, 487.5279
1175.328, 488.0797
1177.257, 485.4618
1179.185, 483.4973
1181.114, 484.2719
1183.042, 484.7548
1184.971, 483.8370
1186.899, 483.1066
1188.828, 482.3260
1190.756, 482.3940
1192.684, 485.0045
1194.613, 485.5722
1196.541, 483.0087
1198.470, 480.2963
1200.398, 476.9112
1202.327, 476.1492
1204.255, 478.5461
1206.184, 478.9377
1208.112, 477.2687
1210.041, 474.4295
1211.969, 471.2054
1213.898, 471.7726
1215.826, 474.5994
1217.755, 475.6176
1219.683, 475.4178
1221.611, 474.6086
1223.540, 473.2332
1225.468, 470.9625
1227.397, 469.2950
1229.325, 470.4357
1231.254, 471.6754
1233.182, 471.3389
1235.111, 470.5914
1237.039, 469.5297
1238.968, 468.2966
1240.896, 466.5792
1242.825, 465.5487
1244.753, 465.4943
1246.682, 466.8988
1248.610, 470.4420
1250.538, 472.1568
1252.467, 471.2558
1254.395, 470.2824
1256.324, 469.5747
1258.252, 469.0103
1260.181, 468.4890
1262.109, 468.9674
1264.038, 470.3635
1265.966, 471.8387
1267.895, 473.4962
1269.823, 474.7697
1271.752, 475.3380
1273.680, 475.5471
1275.609, 475.5762
1277.537, 474.3083
1279.465, 473.5648
1281.394, 476.2920
1283.322, 479.1969
1285.251, 479.3295
1287.179, 479.0710
1289.108, 480.1967
1291.036, 481.1918
1292.965, 481.0590
1294.893, 480.6152
1296.822, 481.0708
1298.750, 480.0436
1300.679, 475.9716
1302.607, 475.3557
1304.536, 478.9161
1306.464, 479.5062
1308.392, 477.3262
1310.321, 474.3477
1312.249, 471.1359
1314.178, 470.0352
1316.106, 470.2874
1318.035, 470.5897
1319.963, 470.1784
1321.892, 467.0767
1323.820, 464.8791
1325.749, 467.7755
1327.677, 469.2207
1329.606, 465.0187
1331.534, 462.0429
1333.463, 462.4531
1335.391, 463.6296
1337.319, 465.6217
1339.248, 464.9802
1341.176, 461.2146
1343.105, 459.4235
1345.033, 459.0536
1346.962, 456.7225
1348.890, 453.5200
1350.819, 451.3104
1352.747, 449.6746
1354.676, 448.2423
1356.604, 447.6784
1358.533, 449.8212
1360.461, 450.7368
1362.390, 446.8495
1364.318, 443.4998
1366.246, 442.3456
1368.175, 441.7910
1370.103, 441.7720
1372.032, 441.0204
1373.960, 439.0518
1375.889, 438.1969
1377.817, 439.1099
1379.746, 441.2103
1381.674, 442.5809
1383.603, 439.9578
1385.531, 436.4213
1387.460, 435.1428
1389.388, 434.5186
1391.317, 433.9152
1393.245, 433.5344
1395.173, 433.3026
1397.102, 432.7692
1399.030, 432.5291
1400.959, 431.1754
1402.887, 427.3462
1404.816, 426.6456
1406.744, 429.4045
1408.673, 429.5129
1410.601, 427.7179
1412.530, 426.2613
1414.458, 425.2407
1416.387, 424.7619
1418.315, 423.7013
1420.244, 422.6264
1422.172, 421.6299
1424.100, 419.5036
1426.029, 417.2274
1427.957, 415.2039
1429.886, 414.9525
1431.814, 416.8501
1433.743, 416.5187
1435.671, 414.4269
1437.600, 413.5534
1439.528, 413.5000
1441.457, 413.1504
1443.385, 412.9958
1445.314, 414.1760
1447.242, 414.8036
1449.171, 413.5120
1451.099, 412.7338
1453.027, 413.1815
1454.956, 413.3909
1456.884, 413.4697
1458.813, 412.2694
1460.741, 409.4946
1462.670, 408.2014
1464.598, 408.4979
1466.527, 408.1767
1468.455, 407.9162
1470.384, 410.8227
1472.312, 412.3458
1474.241, 407.9042
1476.169, 405.0647
1478.098, 406.4655
1480.026, 406.7861
1481.954, 405.2368
1483.883, 402.2297
1485.811, 398.2698
1487.740, 398.3291
1489.668, 400.6647
1491.597, 401.6099
1493.525, 401.7372
1495.454, 399.3414
1497.382, 396.4672
1499.311, 396.3457
1501.239, 395.6325
1503.168, 392.2346
1505.096, 390.7240
1507.025, 391.5616
1508.953, 391.7495
1510.881, 390.8516
1512.810, 387.6297
1514.738, 384.2979
1516.667, 383.8661
1518.595, 383.9223
1520.524, 383.3813
1522.452, 381.8223
1524.381, 378.0043
1526.309, 375.6771
1528.238, 375.9945
1530.166, 376.5805
1532.095, 376.4880
1534.023, 374.8848
1535.952, 373.1290
1537.880, 372.5354
1539.808, 371.9927
1541.737, 371.7386
1543.665, 370.1877
1545.594, 365.8363
1547.522, 365.3620
1549.451, 369.9351
1551.379, 368.7079
1553.308, 363.5076
1555.236, 363.2265
1557.165, 365.0292
1559.093, 364.9587
1561.022, 364.6060
1562.950, 364.9537
1564.879, 364.8442
1566.807, 363.6872
1568.735, 362.4749
1570.664, 361.5721
1572.592, 360.8016
1574.521, 360.1313
1576.449, 360.0449
1578.378, 359.9652
1580.306, 359.6293
1582.235, 358.5595
1584.163, 356.0179
1586.092, 355.2263
1588.020, 356.7734
1589.949, 356.6544
1591.877, 354.6219
1593.806, 353.2797
1595.734, 352.7570
1597.662, 353.2561
1599.591, 352.7506
1601.519, 349.1776
1603.448, 348.1070
1605.376, 350.0541
1607.305, 349.5623
1609.233, 348.0472
1611.162, 347.1685
1613.090, 345.7433
1615.019, 342.0524
1616.947, 338.8128
1618.876, 338.6262
1620.804, 338.8745
1622.733, 338.3838
1624.661, 337.2114
1626.589, 336.1036
1628.518, 335.9201
1630.446, 335.1617
1632.375, 332.7901
1634.303, 331.9743
1636.232, 334.1162
1638.160, 335.1671
1640.089, 334.4504
1642.017, 332.6108
1643.946, 330.0780
1645.874, 329.2265
1647.803, 328.7563
1649.731, 326.4071
1651.660, 323.8418
1653.588, 323.8864
1655.516, 325.2593
1657.445, 326.4417
1659.373, 326.6662
1661.302, 325.8310
1663.230, 323.7453
1665.159, 321.6745
1667.087, 321.8309
1669.016, 320.8567
1670.944, 316.5340
1672.873, 315.4337
1674.801, 317.7813
1676.730, 317.6432
1678.658, 315.8433
1680.587, 316.5167
1682.515, 317.5276
1684.443, 314.6008
1686.372, 311.8592
1688.300, 312.6321
1690.229, 312.7497
1692.157, 312.2158
1694.086, 312.2129
1696.014, 311.8655
1697.943, 311.7034
1699.871, 311.4225
1701.800, 310.7823
1703.728, 310.1621
1705.657, 308.3826
1707.585, 307.5594
1709.514, 307.9780
1711.442, 307.0687
1713.370, 305.4786
1715.299, 304.8203
1717.227, 304.6635
1719.156, 304.1923
1721.084, 303.6582
1723.013, 303.2564
1724.941, 302.8756
1726.870, 302.6494
1728.798, 301.7042
1730.727, 300.9214
1732.655, 299.9742
1734.584, 298.5908
1736.512, 297.9919
1738.441, 298.1768
1740.369, 298.2352
1742.297, 299.5780
1744.226, 300.3797
1746.154, 296.5379
1748.083, 294.0631
1750.011, 295.0404
1751.940, 294.8610
1753.868, 293.6907
1755.797, 292.7841
1757.725, 291.9756
1759.654, 292.4981
1761.582, 292.2109
1763.511, 290.4406
1765.439, 289.7689
1767.368, 289.8976
1769.296, 288.5304
1771.224, 286.8762
1773.153, 286.9492
1775.081, 286.2967
1777.010, 284.9130
1778.938, 283.1453
1780.867, 280.8798
1782.795, 281.0651
1784.724, 281.9005
1786.652, 281.3699
1788.581, 280.0305
1790.509, 279.0708
1792.438, 277.5921
1794.366, 275.5166
1796.295, 273.2853
1798.223, 271.0777
1800.151, 270.2583
1802.080, 269.8669
1804.008, 270.5676
1805.937, 269.0162
1807.865, 264.6722
1809.794, 263.0590
1811.722, 263.4873
1813.651, 264.1667
1815.579, 265.1497
1817.508, 265.2268
1819.436, 263.8319
1821.365, 262.1901
1823.293, 258.6343
1825.222, 256.0121
1827.150, 256.8409
1829.078, 256.7858
1831.007, 255.4968
1832.935, 254.0486
1834.864, 252.3627
1836.792, 251.0445
1838.721, 249.5812
1840.649, 248.3501
1842.578, 247.2165
1844.506, 245.4234
1846.435, 245.6528
1848.363, 246.4635
1850.292, 243.6453
1852.220, 241.5981
1854.149, 243.3820
1856.077, 243.0292
1858.005, 240.3056
1859.934, 239.4124
1861.862, 239.3686
1863.791, 239.5619
1865.719, 238.8501
1867.648, 237.1766
1869.576, 235.2583
1871.505, 233.9030
1873.433, 234.2015
1875.362, 234.3180
1877.290, 233.0246
1879.219, 232.3577
1881.147, 231.9035
1883.076, 230.2803
1885.004, 228.4317
1886.932, 226.5258
1888.861, 224.9804
1890.789, 224.7526
1892.718, 223.9362
1894.646, 222.6749
1896.575, 221.6497
1898.503, 220.7142
1900.432, 221.0753
1902.360, 221.2587
1904.289, 219.5789
1906.217, 219.4960
1908.146, 219.3470
1910.074, 216.9041
1912.003, 215.2545
1913.931, 215.6237
1915.859, 214.8965
1917.788, 213.0632
1919.716, 212.1904
1921.645, 211.8037
1923.573, 211.7367
1925.502, 212.2481
1927.430, 211.8799
1929.359, 208.8388
1931.287, 206.0391
1933.216, 206.0772
1935.144, 206.3783
1937.073, 206.6837
1939.001, 205.3579
1940.930, 202.6646
1942.858, 202.0779
1944.786, 202.3870
1946.715, 202.2704
1948.643, 202.1595
1950.572, 201.1743
1952.500, 198.8139
1954.429, 197.5383
1956.357, 197.7912
1958.286, 196.2035
1960.214, 194.9912
1962.143, 195.2544
1964.071, 194.9046
1966.000, 194.2882
1967.928, 193.0578
1969.857, 191.5363
1971.785, 190.4617
1973.714, 189.4323
1975.642, 189.7428
1977.570, 190.1153
1979.499, 188.7180
1981.427, 188.0508
1983.356, 188.6355
1985.284, 187.6961
1987.213, 186.6233
1989.141, 187.2136
1991.070, 186.7611
1992.998, 185.1615
1994.927, 184.4932
1996.855, 183.5555
1998.784, 183.6196
2000.712, 184.5064
2002.641, 183.9144
2004.569, 181.1826
2006.497, 178.2549
2008.426, 179.4743
2010.354, 180.6873
2012.283, 178.9249
2014.211, 178.2365
2016.140, 178.2317
2018.068, 177.4961
2019.997, 175.8027
2021.925, 173.9435
2023.854, 173.8768
2025.782, 173.9901
2027.711, 173.0944
2029.639, 171.8143
2031.568, 171.4031
2033.496, 171.7049
2035.424, 171.5301
2037.353, 170.4305
2039.281, 169.0814
2041.210, 168.5082
2043.138, 167.7346
2045.067, 166.4366
2046.995, 166.5846
2048.924, 165.6251
2050.852, 163.8244
2052.781, 164.0384
2054.709, 163.9742
2056.637, 162.3982
2058.566, 162.1267
2060.495, 162.7082
2062.423, 161.0067
2064.352, 159.5632
2066.280, 160.4059
2068.208, 160.3686
2070.137, 159.0959
2072.065, 158.1962
2073.994, 157.7421
2075.922, 156.7439
2077.851, 155.5430
2079.779, 155.1805
2081.708, 154.4892
2083.636, 154.4330
2085.565, 153.2856
2087.493, 151.7030
2089.422, 152.0492
2091.350, 152.5169
2093.279, 151.7356
2095.207, 149.7975
2097.135, 148.8287
2099.064, 148.9771
2100.992, 147.5207
2102.921, 145.5947
2104.849, 146.1995
2106.778, 146.1470
2108.706, 144.8760
2110.635, 144.1704
2112.563, 143.9092
2114.492, 142.4822
2116.420, 141.7784
2118.349, 141.6455
2120.277, 140.2364
2122.206, 138.7957
2124.134, 138.9603
2126.063, 138.9225
2127.991, 138.9173
2129.919, 139.4427
2131.848, 138.0953
2133.776, 135.7694
2135.705, 136.9021
2137.633, 138.2018
2139.562, 136.5490
2141.490, 134.9868
2143.419, 134.2851
2145.347, 133.3944
2147.276, 133.4022
2149.204, 133.9660
2151.133, 133.0579
2153.061, 132.0707
2154.990, 131.3935
2156.918, 130.5251
2158.846, 130.4658
2160.775, 130.5983
2162.703, 129.7544
2164.632, 128.1182
2166.560, 127.7290
2168.489, 128.5738
2170.417, 128.2925
2172.346, 126.7632
2174.274, 124.9486
2176.203, 125.1638
2178.131, 125.8818
2180.060, 125.3735
2181.988, 124.6496
2183.917, 124.1552
2185.845, 123.0727
2187.773, 121.4855
2189.702, 120.6175
2191.630, 120.2214
2193.559, 120.5664
2195.487, 120.3312
2197.416, 120.4720
2199.344, 121.4076
2201.273, 120.1099
2203.201, 117.3652
2205.130, 117.4927
2207.058, 117.8016
2208.987, 116.8952
2210.915, 116.4798
2212.844, 115.6342
2214.772, 114.5072
2216.700, 115.0833
2218.629, 115.3105
2220.557, 113.2608
2222.486, 112.1723
2224.414, 113.1317
2226.343, 113.0505
2228.271, 111.8230
2230.200, 111.6813
2232.128, 111.1839
2234.057, 109.9981
2235.985, 109.7304
2237.914, 109.6047
2239.842, 109.4237
2241.771, 108.9306
2243.699, 107.7893
2245.627, 106.9689
2247.556, 106.0445
2249.484, 105.0047
2251.413, 105.3138
2253.341, 104.6940
2255.270, 104.9123
2257.198, 106.0180
2259.127, 104.7349
2261.055, 104.0499
2262.984, 104.2158
2264.912, 102.0679
2266.841, 100.5261
2268.769, 100.8931
2270.698, 101.9793
2272.626, 101.8697
2274.554, 100.2426
2276.483, 99.20746
2278.411, 99.23271
2280.340, 99.02460
2282.268, 98.32986
2284.197, 98.11610
2286.125, 98.75970
2288.054, 98.56203
2289.982, 97.00581
2291.911, 96.38998
2293.839, 95.63240
2295.768, 94.48271
2297.696, 94.72484
2299.625, 94.78560
2301.553, 95.02079
2303.481, 94.45753
2305.410, 93.77750
2307.338, 93.52032
2309.267, 92.92559
2311.195, 93.01589
2313.124, 92.29857
2315.052, 90.94007
2316.981, 90.25082
2318.909, 89.67835
2320.838, 89.68404
2322.766, 90.20222
2324.695, 89.71092
2326.623, 88.73547
2328.552, 88.55955
2330.480, 88.24383
2332.408, 86.87802
2334.337, 86.46887
2336.265, 87.53849
2338.194, 87.23966
2340.122, 85.94794
2342.051, 85.13615
2343.979, 85.73345
2345.908, 86.02915
2347.836, 85.02531
2349.765, 83.85555
2351.693, 83.46043
2353.622, 83.72777
2355.550, 83.36813
2357.479, 82.66503
2359.407, 81.94060
2361.335, 82.04994
2363.264, 82.19997
2365.192, 81.84769
2367.121, 80.81002
2369.049, 79.34846
2370.978, 79.55867
2372.906, 79.78578
2374.835, 79.32716
2376.763, 78.47803
2378.692, 78.00625
2380.620, 78.14353
2382.549, 78.56995
2384.477, 78.90209
2386.406, 78.51923
2388.334, 78.45563
2390.262, 77.70573
2392.191, 76.97148
2394.119, 76.54323
2396.048, 75.55319
2397.976, 75.17757
2399.905, 75.32235
2401.833, 74.71224
2403.762, 73.97182
2405.690, 73.63970
2407.619, 73.96696
2409.547, 74.12228
2411.476, 74.35727
2413.404, 73.34560
2415.333, 72.16856
2417.261, 72.30396
2419.189, 71.13972
2421.118, 69.97215
2423.046, 70.48791
2424.975, 71.18479
2426.903, 70.92543
2428.832, 69.33815
2430.760, 68.24147
2432.689, 68.25291
2434.617, 69.04707
2436.546, 69.16686
2438.474, 68.70538
2440.403, 67.62564
2442.331, 66.40520
2444.260, 65.50107
2446.188, 65.53004
2448.116, 65.80575
2450.045, 66.21455
2451.973, 65.10228
2453.902, 64.43919
2455.830, 64.19687
2457.759, 64.10532
2459.687, 64.19344
2461.616, 63.23085
2463.544, 62.31658
2465.473, 61.96346
2467.401, 61.85505
2469.330, 62.01017
2471.258, 62.32914
2473.187, 60.75014
2475.115, 60.36553
2477.043, 61.85644
2478.972, 61.09753
2480.900, 60.70975
2482.829, 61.11795
2484.757, 59.56535
2486.686, 58.82506
2488.614, 60.50931
2490.543, 60.38591
2492.471, 58.90105
2494.400, 57.42944
2496.328, 57.46829
2498.257, 57.60684
2500.185, 56.21556
2502.114, 56.00300
2504.042, 56.18480
2505.970, 55.75347
2507.899, 56.17330
2509.827, 56.80173
2511.756, 55.82792
2513.684, 54.90899
2515.613, 54.76310
2517.541, 54.47022
2519.470, 53.99297
2521.398, 53.95761
2523.327, 53.91066
2525.255, 53.42079
2527.184, 52.85922
2529.112, 51.68680
2531.041, 51.62962
2532.969, 52.90690
2534.897, 51.93771
2536.826, 51.68233
2538.754, 52.46999
2540.683, 51.63225
2542.611, 50.93597
2544.540, 50.53933
2546.468, 51.02916
2548.397, 51.29018
2550.325, 50.90970
2552.254, 49.77818
2554.182, 49.18724
2556.111, 49.42269
2558.039, 49.64735
2559.968, 49.52900
2561.896, 49.16444
2563.824, 48.43804
2565.753, 48.26160
2567.681, 49.97474
2569.610, 49.44590
2571.538, 47.86799
2573.467, 47.03563
2575.395, 47.21342
2577.324, 47.05715
2579.252, 45.86305
2581.181, 46.56037
2583.109, 46.97892
2585.038, 46.41745
2586.966, 45.77747
2588.895, 44.83371
2590.823, 44.87362
2592.751, 45.22474
2594.680, 45.15260
2596.608, 44.92275
2598.537, 43.93364
2600.465, 42.79697
2602.394, 43.60619
2604.322, 43.76490
2606.251, 43.18927
2608.179, 42.91722
2610.108, 42.94332
2612.036, 43.00039
2613.965, 42.46322
2615.893, 42.06278
2617.822, 41.55778
2619.750, 41.13121
2621.678, 40.75451
2623.607, 40.54713
2625.535, 40.56800
2627.464, 40.23082
2629.392, 39.86707
2631.321, 40.39788
2633.249, 40.19791
2635.178, 39.79171
2637.106, 40.01563
2639.035, 39.80646
2640.963, 39.18689
2642.892, 38.26563
2644.820, 38.29165
2646.749, 38.51090
2648.677, 36.86154
2650.605, 36.31063
2652.534, 36.58288
2654.462, 36.09119
2656.391, 35.92028
2658.319, 36.29844
2660.248, 36.61021
2662.176, 36.28442
2664.105, 35.91016
2666.033, 35.29338
2667.962, 35.13020
2669.890, 35.26421
2671.819, 35.35640
2673.747, 35.47810
2675.676, 35.27088
2677.604, 34.41544
2679.532, 33.89142
2681.461, 33.80631
2683.389, 33.64762
2685.318, 33.28183
2687.246, 33.11547
2689.175, 32.93147
2691.103, 33.60478
2693.032, 33.23106
2694.960, 31.74509
2696.889, 32.24599
2698.817, 32.42293
2700.746, 31.96366
2702.674, 32.66290
2704.603, 32.70489
2706.531, 31.72332
2708.459, 29.79706
2710.388, 30.48073
2712.316, 31.76558
2714.245, 29.87569
2716.173, 29.57256
2718.102, 30.14195
2720.030, 30.06861
2721.959, 29.63947
2723.887, 29.78900
2725.816, 31.37178
2727.744, 30.64354
2729.673, 29.48387
2731.601, 28.69603
2733.530, 29.12494
2735.458, 29.18801
2737.386, 28.47989
2739.315, 28.35982
2741.243, 27.93393
2743.172, 27.23939
2745.100, 26.27369
2747.029, 26.94070
2748.957, 28.24523
2750.886, 28.11388
2752.814, 27.23405
2754.743, 26.56600
2756.671, 27.11071
2758.600, 26.24608
2760.528, 25.76523
2762.457, 26.56363
2764.385, 26.09780
2766.313, 25.68480
2768.242, 25.75627
2770.170, 26.23281
2772.099, 25.62967
2774.027, 24.22686
2775.956, 25.38375
2777.884, 24.74586
2779.813, 23.27568
2781.741, 23.80777
2783.670, 24.43898
2785.598, 24.72644
2787.527, 24.39893
2789.455, 23.94072
2791.384, 23.71442
2793.312, 23.91529
2795.240, 23.56035
2797.169, 23.27634
2799.097, 23.29470
2801.026, 22.75120
2802.954, 22.42161
2804.883, 22.46428
2806.811, 22.56242
2808.740, 22.76201
2810.668, 22.84232
2812.597, 22.49050
2814.525, 21.81968
2816.454, 21.41201
2818.382, 21.60866
2820.311, 21.33511
2822.239, 21.06883
2824.167, 21.08601
2826.096, 21.96329
2828.024, 21.59463
2829.953, 20.70725
2831.881, 20.84877
2833.810, 20.88389
2835.738, 20.53657
2837.667, 19.77156
2839.595, 20.09032
2841.524, 20.07554
2843.452, 19.36640
2845.381, 18.42469
2847.309, 18.65599
2849.238, 19.34905
2851.166, 18.75991
2853.094, 18.76278
2855.023, 18.96717
2856.951, 19.03018
2858.880, 18.80066
2860.808, 18.45886
2862.737, 18.26845
2864.665, 18.55233
2866.594, 18.44624
2868.522, 18.06277
2870.451, 17.59786
2872.379, 17.34097
2874.308, 17.09508
2876.236, 16.61417
2878.165, 16.90156
2880.093, 17.27697
2882.021, 17.33048
2883.950, 16.45975
2885.878, 16.11468
2887.807, 16.25935
2889.735, 16.68637
2891.664, 16.48825
2893.592, 16.36781
2895.521, 16.54045
2897.449, 15.26441
2899.378, 14.99451
2901.306, 15.54340
2903.235, 15.50489
2905.163, 15.20610
2907.092, 15.36322
2909.020, 16.37486
2910.948, 16.56416
2912.877, 15.88526
2914.805, 14.75733
2916.734, 14.40184
2918.662, 14.62429
2920.591, 14.81290
2922.519, 14.45907
2924.448, 14.58688
2926.376, 14.40544
2928.305, 13.86068
2930.233, 14.43059
2932.162, 14.04736
2934.090, 13.25033
2936.019, 13.20681
2937.947, 13.10272
2939.875, 13.06907
2941.804, 13.17478
2943.732, 13.63246
2945.661, 13.39483
2947.589, 12.93078
2949.518, 13.45423
2951.446, 13.62383
2953.375, 13.46692
2955.303, 13.04682
2957.232, 12.33756
2959.160, 12.34874
2961.089, 12.81165
2963.017, 13.20760
2964.946, 13.16034
2966.874, 12.56099
2968.802, 11.49455
2970.731, 11.83146
2972.659, 12.18198
2974.588, 12.33582
2976.516, 12.60057
2978.445, 12.49264
2980.373, 12.08075
2982.302, 11.69507
2984.230, 12.47855
2986.159, 11.94962
2988.087, 10.94313
2990.016, 10.60235
2991.944, 11.12642
2993.873, 11.36613
2995.801, 11.11534
2997.729, 10.81683
2999.658, 11.09291
3001.586, 11.15837
3003.515, 10.49860
3005.443, 10.23500
3007.372, 10.51923
3009.300, 10.98690
3011.229, 10.78733
3013.157, 10.62674
3015.086, 10.32293
3017.014, 9.827129
3018.943, 9.571481
3020.871, 10.11367
3022.800, 10.62251
3024.728, 9.965554
3026.656, 10.13693
3028.585, 9.949422
3030.513, 9.417654
3032.442, 9.429268
3034.370, 9.438172
3036.299, 9.537591
3038.227, 9.770777
3040.156, 9.927991
3042.084, 9.617075
3044.013, 9.106705
3045.941, 8.901596
3047.870, 9.152700
3049.798, 9.011577
3051.727, 8.514062
3053.655, 8.773694
3055.583, 8.823534
3057.512, 8.799867
3059.440, 8.641404
3061.369, 8.059851
3063.297, 8.159918
3065.226, 8.569498
3067.154, 8.715808
3069.083, 8.650408
3071.011, 8.520829
3072.940, 8.152297
3074.868, 7.256396
3076.797, 7.658273
3078.725, 8.227363
3080.654, 8.348972
3082.582, 7.746368
3084.510, 7.951965
3086.439, 8.418093
3088.367, 8.613449
3090.296, 7.787156
3092.224, 7.546526
3094.153, 7.738432
3096.081, 7.556399
3098.010, 6.838911
3099.938, 6.721275
3101.867, 7.126790
3103.795, 7.518573
3105.724, 7.387877
3107.652, 7.239053
3109.581, 7.159038
3111.509, 7.374589
3113.438, 7.199197
3115.366, 6.965811
3117.294, 6.886079
3119.223, 6.837635
3121.151, 6.626301
3123.080, 6.758044
3125.008, 7.498998
3126.937, 7.003550
3128.865, 6.653005
3130.794, 6.732230
3132.722, 7.376975
3134.651, 6.426333
3136.579, 6.303226
3138.508, 6.888260
3140.436, 7.012857
3142.365, 7.146584
3144.293, 6.736205
3146.221, 5.910039
3148.150, 5.504839
3150.078, 6.182869
3152.007, 6.830011
3153.935, 6.908310
3155.864, 6.360860
3157.792, 6.466586
3159.721, 6.399714
3161.649, 5.918022
3163.578, 6.006242
3165.506, 5.942201
3167.435, 5.764774
3169.363, 5.732896
3171.292, 5.765429
3173.220, 5.939737
3175.148, 6.321864
3177.077, 6.424057
3179.005, 5.432249
3180.934, 5.661181
3182.862, 5.807878
3184.791, 5.169272
3186.719, 5.261890
3188.648, 5.396238
3190.576, 5.328823
3192.505, 5.000742
3194.433, 4.933197
3196.362, 5.609955
3198.290, 5.778036
3200.219, 5.193917
3202.147, 5.216734
3204.075, 5.334629
3206.004, 5.441384
3207.932, 5.521452
3209.861, 5.965555
3211.789, 5.589951
3213.718, 5.161554
3215.646, 5.033346
3217.575, 5.068380
3219.503, 5.453658
3221.432, 5.186039
3223.360, 4.533211
3225.289, 5.174632
3227.217, 5.135207
3229.146, 4.929370
3231.074, 4.841511
3233.002, 5.367591
3234.931, 4.972584
3236.859, 4.508012
3238.788, 4.220113
3240.716, 3.945882
3242.645, 4.414741
3244.573, 4.950465
3246.502, 5.306848
3248.430, 5.323346
3250.359, 5.326056
3252.287, 5.298113
3254.216, 5.271047
3256.144, 5.255599
3258.073, 5.067772
3260.001, 4.492785
3261.929, 4.270289
3263.858, 4.965968
3265.786, 5.392083
3267.715, 5.270064
3269.643, 5.288161
3271.572, 5.755896
3273.500, 5.768022
3275.429, 5.806290
3277.357, 5.780177
3279.286, 5.657929
3281.214, 5.865490
3283.143, 5.996745
3285.071, 6.424632
3287.000, 6.846894
3288.928, 6.380194
3290.856, 5.787158
3292.785, 5.797538
3294.713, 6.280897
3296.642, 6.669223
3298.570, 6.726663
3300.499, 5.800968
3302.427, 5.360555
3304.356, 6.084780
3306.284, 6.156824
3308.213, 6.554298
3310.141, 6.397283
3312.070, 5.959289
3313.998, 6.294842
3315.927, 6.239856
3317.855, 6.416815
3319.783, 6.712843
3321.712, 6.564719
3323.640, 6.864784
3325.569, 6.406640
3327.497, 5.927975
3329.426, 6.154710
3331.354, 7.777759
3333.283, 7.436477
3335.211, 6.523419
3337.140, 6.051968
3339.068, 6.319025
3340.997, 6.590041
3342.925, 6.846175
3344.854, 6.429923
3346.782, 5.199687
3348.710, 5.442882
3350.639, 5.839591
3352.567, 5.720587
3354.496, 5.245173
3356.424, 4.959015
3358.353, 4.881241
3360.281, 4.443992
3362.210, 4.419875
3364.138, 5.095337
3366.067, 4.475104
3367.995, 4.779393
3369.924, 5.201556
3371.852, 5.104231
3373.781, 4.343154
3375.709, 4.799569
3377.637, 4.478922
3379.566, 4.237826
3381.494, 4.806153
3383.423, 4.731719
3385.351, 4.392001
3387.280, 3.889240
3389.208, 3.598808
3391.137, 4.330651
3393.065, 4.483338
3394.994, 4.300681
3396.922, 4.393122
3398.851, 4.878131
3400.779, 4.619573
3402.708, 4.139574
3404.636, 4.231758
3406.564, 4.796187
3408.493, 5.352325
3410.421, 4.913737
3412.350, 3.841972
3414.278, 3.872925
3416.207, 4.906770
3418.135, 5.111830
3420.064, 4.736012
3421.992, 3.948723
3423.921, 3.746257
3425.849, 4.124975
3427.778, 2.997790
3429.706, 2.825245
3431.635, 4.246128
3433.563, 5.211074
3435.491, 4.092785
3437.420, 3.992958
3439.348, 3.977626
3441.277, 3.643961
3443.205, 3.331478
3445.134, 3.629671
3447.062, 3.422239
3448.991, 3.024034
3450.919, 3.574389
3452.848, 4.474940
3454.776, 3.265944
3456.705, 2.926914
3458.633, 3.205833
3460.562, 3.309897
3462.490, 3.080736
3464.418, 3.335076
3466.347, 2.295998
3468.275, 2.797146
3470.204, 3.188936
3472.132, 2.708423
3474.061, 4.065797
3475.989, 3.078905
3477.918, 2.459576
3479.846, 2.536240
3481.775, 2.685339
3483.703, 2.430308
3485.632, 3.088841
3487.560, 3.696971
3489.489, 3.783745
3491.417, 3.329849
3493.345, 2.501974
3495.274, 2.600628
3497.202, 3.144537
3499.131, 3.294156
3501.059, 2.781815
3502.988, 2.642151
3504.916, 2.777111
3506.845, 3.033575
3508.773, 3.094495
3510.702, 2.824391
3512.630, 2.504139
3514.559, 2.539526
3516.487, 2.503133
3518.416, 2.829490
3520.344, 3.408174
3522.272, 2.313811
3524.201, 2.398478
3526.129, 2.379903
3528.058, 2.531799
3529.986, 2.948939
3531.915, 2.790870
3533.843, 2.483363
3535.772, 2.216166
3537.700, 2.506959
3539.629, 2.818103
3541.557, 1.864141
3543.486, 2.030085
3545.414, 2.056885
3547.343, 1.979672
3549.271, 1.776372
3551.199, 1.464545
3553.128, 2.751275
3555.056, 1.895117
3556.985, 2.261988
3558.913, 2.709814
3560.842, 1.458823
3562.770, 2.278108
3564.699, 1.817579
3566.627, 1.589810
3568.556, 1.704299
3570.484, 1.786820
3572.413, 1.651507
3574.341, 2.059691
3576.270, 1.985343
3578.198, 1.729847
3580.126, 1.746716
3582.055, 2.185514
3583.983, 1.198395
3585.912, 2.002619
3587.840, 2.102633
3589.769, 1.701633
3591.697, 1.950910
3593.626, 2.734996
3595.554, 2.023933
3597.483, 2.155673
3599.411, 2.250964
3601.340, 1.864905
3603.268, 1.720409
3605.197, 2.461205
3607.125, 2.096576
3609.053, 2.071286
3610.982, 2.062993
3612.910, 1.535541
3614.839, 1.595780
3616.767, 1.619577
3618.696, 1.524159
3620.624, 1.428933
3622.553, 1.755656
3624.481, 2.592022
3626.410, 1.469222
3628.338, 1.531538
3630.267, 1.255980
3632.195, 1.214349
3634.124, 1.702738
3636.052, 1.482605
3637.980, 2.158720
3639.909, 1.606852
3641.837, 1.158054
3643.766, 1.294949
3645.694, 1.571316
3647.623, 1.209656
3649.551, 0.6266401
3651.480, 1.244177
3653.408, 1.745022
3655.337, 1.537153
3657.265, 1.024697
3659.194, 0.8123609
3661.122, 1.665348
3663.051, 1.591136
3664.979, 1.115842
3666.907, 1.102722
3668.836, 1.699659
3670.764, 1.765174
3672.693, 1.468461
3674.621, 1.312918
3676.550, 1.430874
3678.478, 1.530336
3680.407, 1.333505
3682.335, 1.536194
3684.264, 1.579551
3686.192, 0.8752083
3688.121, 1.033530
3690.049, 1.706124
3691.978, 1.127450
3693.906, 0.6789848
3695.834, 1.493647
3697.763, 1.000108
3699.691, 0.5785613
3701.620, 0.8139863
3703.548, 0.9245402
3705.477, 1.670474
3707.405, 1.630127
3709.334, 1.513136
3711.262, 1.257914
3713.191, 1.404096
3715.119, 2.086872
3717.048, 0.8988174
3718.976, 0.7815443
3720.905, 1.619344
3722.833, 2.077582
3724.761, 1.802817
3726.690, 1.393343
3728.618, 1.691299
3730.547, 1.591373
3732.475, 1.968315
3734.404, 1.395362
3736.332, 1.050746
3738.261, 1.198356
3740.189, 0.5833661
3742.118, 2.048783
3744.046, 1.028491
3745.975, 0.7463080
3747.903, 1.521461
3749.832, 1.833227
3751.760, 0.9735082
3753.688, 0.9310679
3755.617, 1.227652
3757.545, 0.5618801
3759.474, 0.2579303
3761.402, 0.7392251
3763.331, 1.284502
3765.259, 0.8698344
3767.188, 1.219925
3769.116, 1.749982
3771.045, 1.759151
3772.973, 1.148983
3774.902, 0.6443228
3776.830, 0.7719100
3778.759, 0.9977556
3780.687, 1.265812
3782.615, 0.1504636
3784.544, 0.5629868
3786.472, 1.144340
3788.401, 1.049488
3790.329, 1.066412
3792.258, 1.284070
3794.186, 1.674074
3796.115, 0.8178765
3798.043, 0.4045393
3799.972, 0.7188691
3801.900, 0.9784243
3803.829, 0.7701685
3805.757, 1.266869
3807.686, 0.7106847
3809.614, 0.2054172
3811.542, 0.9052125
3813.471, 0.9550765
3815.399, 0.3036974
3817.328, 0.6995158
3819.256, 0.6193795
3821.185, 0.3081251
3823.113, 0.8647726
3825.042, 1.705544
3826.970, 1.750901
3828.899, 1.046393
3830.827, 0.4831271
3832.756, 0.4354402
3834.684, 0.6547089
3836.613, 1.495218
3838.541, 0.9343014
3840.469, 0.7802457
3842.398, 1.096830
3844.326, 0.7273619
3846.255, 0.8039900
3848.183, 1.954249
3850.112, 1.105263
3852.040, 1.067631
3853.969, 1.068320
3855.897, 0.5540200
3857.826, 0.6722433
3859.754, 2.304759
3861.683, 1.640402
3863.611, 1.660691
3865.540, 1.848871
3867.468, 0.9637281
3869.396, 0.6794091
3871.325, 1.130205
3873.253, 1.117968
3875.182, 0.9986227
3877.110, 0.5824826
3879.039, 0.8195218
3880.967, 1.152482
3882.896, 1.116839
3884.824, 0.8041028
3886.753, 0.7246057
3888.681, 1.143975
3890.610, 1.265604
3892.538, 1.109541
3894.467, 0.3392609
3896.395, 0.8193542
3898.323, 1.275837
3900.252, 1.047576
3902.180, 0.8487247
3904.109, 1.035442
3906.037, 4.6694290E-02
3907.966, 0.7381263
3909.894, 1.468575
3911.823, 1.293064
3913.751, 1.298330
3915.680, 0.8729404
3917.608, 0.2021071
3919.537, 0.5048056
3921.465, 0.4563228
3923.394, 1.729684
3925.322, 0.9942247
3927.250, 0.4065220
3929.179, 0.7726721
3931.107, 0.8446360
3933.036, 0.5602282
3934.964, 0.6646620
3936.893, 0.5354871
3938.821, -4.0023819E-02
3940.750, 1.168162
3942.678, 0.5404383
3944.607, 0.6720229
3946.535, 0.9102316
3948.464, 0.7421958
3950.392, 0.7403010
3952.321, 1.021886
3954.249, 0.7896766
3956.177, 1.068712
3958.106, 0.3461905
3960.034, -2.4944611E-02
3961.963, 0.6572865
3963.891, 1.075812
3965.820, 0.9847711
3967.748, 0.7807080
3969.677, 0.4670123
3971.605, 0.4927337
3973.534, 0.4270678
3975.462, 0.8230323
3977.391, 0.6213309
3979.319, 0.1987958
3981.248, 0.2506861
3983.176, 0.6609703
3985.104, 0.6274894
3987.033, 0.1199843
3988.961, 0.6907070
3990.890, 0.5768530
3992.818, 0.6665604
3994.747, 0.2632066
3996.675, 0.1722154
3998.604, 0.4643442
4000.532, 0.2706480
4002.461, -0.3836192
4004.389, -0.5696014
4006.318, 0.1002139
4008.246, 0.8553670
4010.175, 0.1460685
4012.103, 1.214498
4014.031, 0.4226455
4015.960, 0.4481209
4017.888, 0.6197306
4019.817, 0.3549973
4021.745, 0.2231667
4023.674, 0.1322560
4025.602, 0.3471004
4027.531, 0.7198551
4029.459, 0.7425166
4031.388, -3.9059959E-02
4033.316, 0.7972633
4035.245, 0.5672360
4037.173, -0.3664895
4039.102, -0.3030324
4041.030, 0.5984916
4042.958, 1.144343
4044.887, 0.4642816
4046.815, -0.1210600
4048.744, 0.5084922
4050.672, 0.4017486
4052.601, 5.6002282E-02
4054.529, 0.2320603
4056.458, 0.1954475
4058.386, 4.6337631E-02
4060.315, 0.5235655
4062.243, 1.081477
4064.172, 0.1915169
4066.100, 0.1825201
4068.029, 0.8527629
4069.957, 1.389643
4071.885, 0.2028614
4073.814, 3.0098300E-02
4075.742, 1.201310
4077.671, 1.119630
4079.599, 0.2529736
4081.528, 0.6349725
4083.456, 0.3499731
4085.385, -0.3875235
4087.313, 0.5421426
4089.242, 0.2208901
4091.170, 0.1624336
4093.099, 0.7054446
4095.027, 0.1786827
4096.956, -0.1164040
4098.884, -0.1768742
4100.813, -3.5813309E-02
4102.741, 0.8154866
4104.669, 1.006594
4106.598, 0.5373163
4108.526, 0.7810048
4110.455, 0.3623511
4112.383, 0.2321090
4114.312, -0.4420770
4116.240, 0.2268277
4118.169, 0.4682664
4120.097, 0.2199449
4122.026, 5.6996841E-02
4123.954, 7.5795457E-02
4125.883, 0.3753742
4127.811, 0.3889366
4129.740, 1.041549
4131.668, -0.3003922
4133.597, 0.6106318
4135.525, 0.4865080
4137.454, 0.3908471
4139.382, 0.4534866
4141.311, 0.1335507
4143.239, -0.2434609
4145.167, -0.1065665
4147.096, 0.3146638
4149.024, 0.5507331
4150.953, 0.6535357
4152.881, 0.3987211
4154.810, -0.3278018
4156.738, -0.6386579
4158.667, 0.9121669
4160.595, 0.7468458
4162.523, 9.0017550E-02
4164.452, 0.4732975
4166.380, 0.2464747
4168.309, 0.2777782
4170.237, 0.3492727
4172.166, 0.2365426
4174.094, 0.5751377
4176.023, 0.3939300
4177.951, -0.3364299
4179.880, 0.3487370
4181.808, 0.4968217
4183.737, 0.8259638
4185.665, 3.9113801E-02
4187.594, -1.9895000E-02
4189.522, -4.3021251E-02
4191.451, -0.4207633
4193.379, -0.3927160
4195.308, 0.3117359
4197.236, -0.1252889
4199.165, -0.3231755
4201.093, 0.8158913
4203.021, 0.9398028
4204.950, 0.9135659
4206.878, 0.5431387
4208.807, 0.4010119
4210.735, 0.4818354
4212.664, 1.005943
4214.592, 0.8629804
4216.521, 0.7264720
4218.449, 0.4650505
4220.377, 0.4821488
4222.306, 0.6085396
4224.234, 9.8590717E-02
4226.163, 0.2256664
4228.091, 1.038145
4230.020, 0.8751639
4231.948, 0.2558632
4233.877, 0.3856840
4235.805, -0.1217818
4237.734, 0.9785859
4239.662, 0.3176703
4241.591, 0.2500033
4243.519, 0.5600546
4245.448, -0.2580996
4247.376, 1.020660
4249.305, 0.1352482
4251.233, 0.4018346
4253.162, 6.7305349E-02
4255.090, 9.7137988E-02
4257.019, 0.3481852
4258.947, -0.2410775
4260.875, 0.5008562
4262.804, 0.8240656
4264.732, -6.9923237E-02
4266.661, 0.8611690
4268.589, 1.196909
4270.518, 0.4214840
4272.446, 0.3956127
4274.375, 0.3841249
4276.303, 1.058183
4278.231, 0.4910687
4280.160, 0.1715945
4282.088, 0.1736871
4284.017, -0.1707042
4285.945, -0.4285238
4287.874, -2.4349870E-02
4289.802, 0.1027369
4291.731, 0.4032888
4293.659, -8.8068709E-02
4295.588, -0.3110561
4297.516, 6.9433242E-02
4299.445, 0.1289868
4301.373, 0.4467847
4303.302, 0.9171611
4305.230, 0.8242564
4307.159, 0.5393788
4309.087, -1.9551899E-02
4311.016, 0.2294914
4312.944, 1.065078
4314.873, 0.7799365
4316.801, 6.0988650E-02
4318.729, 0.7693075
4320.658, 0.3104246
4322.586, 0.4117144
4324.515, 0.1653411
4326.443, 0.2358279
4328.372, 0.4757654
4330.300, -0.2913867
4332.229, -0.8560562
4334.157, -0.1368324
4336.085, -9.6494250E-02
4338.014, 0.8804382
4339.942, 0.5993916
4341.871, 0.5616609
4343.799, 0.9074637
4345.728, 0.9675409
4347.656, 0.4653149
4349.585, 0.3411740
4351.513, 0.8341466
4353.442, 0.3757350
4355.370, 0.1580891
4357.299, 0.3486788
4359.227, -0.3415069
4361.156, 0.7399856
4363.084, 0.2409431
4365.013, 2.3985580E-03
4366.941, 0.1519713
4368.870, 0.5473873
4370.798, 0.1515822
4372.727, 0.1423963
4374.655, -0.3951390
4376.583, 0.2133432
4378.512, 0.5626337
4380.440, -0.2188660
4382.369, 0.2305731
##END=



