##NAMES=Columbite-(Mn)
##RRUFFID=R040083
##IDEAL CHEMISTRY=Mn^2+^Nb_2_O_6_
##LOCALITY=Mina Miramica, Santa Cruz, Bolivia
##OWNER=RRUFF
##SOURCE=University of Arizona Mineral Museum
##DESCRIPTION=Fragment consisting of multiple phases as shown by both X-ray diffraction and microprobe.
##STATUS=The identification of this mineral has been confirmed by X-ray diffraction and chemical analysis
##URL=https://www.rruff.net/odr/rruff_sample/R040083
##MEASURED CHEMISTRY=(Mn^2+^_0.78_Fe^2+^_0.21_Ti_0.01_)(Nb_0.74_Ta_0.25_Ti_0.01_)_2_O_6_ ; Chemistry represents light bands. The dark bands are  (Mn^2+^_0.73_Fe^2+^_0.26_Ti_0.01_)(Nb_0.86_Ta_0.13_Ti_0.01_)_2_O_6_
##DIFFRACTION SAMPLE DESCRIPTION=Powder
##CELL PARAMETERS=a: 14.317 b: 5.7444 c: 5.1089 alpha: 90 beta: 90 gamma: 90 volume: 420.2 crystal system: orthorhombic
##FILETYPE=Raman RAW
##RAMAN WAVELENGTH=785

117.7385, 1672.488
119.6670, 2111.667
121.5955, 2744.519
123.5239, 3713.119
125.4524, 5248.510
127.3809, 7376.915
129.3093, 9617.208
131.2378, 12132.91
133.1663, 14333.29
135.0947, 15665.37
137.0232, 17016.45
138.9517, 18782.44
140.8801, 21036.75
142.8086, 24455.53
144.7371, 29415.55
146.6655, 34084.10
148.5940, 38324.75
150.5225, 38913.47
152.4509, 38424.61
154.3794, 37387.83
156.3079, 36432.68
158.2363, 35425.56
160.1648, 35050.78
162.0933, 35352.73
164.0217, 35933.92
165.9502, 36801.32
167.8787, 37695.26
169.8071, 38426.01
171.7356, 39000.89
173.6641, 39380.10
175.5925, 39516.55
177.5210, 39710.66
179.4495, 39996.52
181.3779, 40394.61
183.3064, 40902.57
185.2349, 41501.36
187.1633, 42180.30
189.0918, 42937.68
191.0203, 43668.64
192.9487, 44368.14
194.8772, 45033.91
196.8057, 45703.86
198.7341, 46333.02
200.6626, 46864.77
202.5911, 47308.87
204.5195, 47749.80
206.4480, 48199.22
208.3765, 48580.73
210.3049, 48807.36
212.2334, 49033.82
214.1619, 49360.15
216.0903, 49723.19
218.0188, 50013.47
219.9473, 50230.64
221.8757, 50402.37
223.8042, 50555.87
225.7327, 50610.33
227.6611, 50451.12
229.5896, 50270.66
231.5181, 50185.19
233.4465, 50178.96
235.3750, 50211.72
237.3035, 50284.60
239.2319, 50336.13
241.1604, 50367.91
243.0889, 50351.27
245.0173, 50260.83
246.9458, 50134.37
248.8743, 49984.75
250.8027, 49824.18
252.7312, 49727.26
254.6597, 49699.70
256.5881, 49677.69
258.5166, 49656.62
260.4451, 49628.46
262.3735, 49599.05
264.3020, 49558.25
266.2305, 49497.11
268.1589, 49413.39
270.0874, 49296.14
272.0159, 49137.26
273.9443, 48982.28
275.8728, 48831.05
277.8013, 48697.13
279.7297, 48602.55
281.6582, 48517.27
283.5867, 48400.49
285.5151, 48260.63
287.4436, 48147.06
289.3721, 48070.45
291.3005, 47963.71
293.2290, 47770.23
295.1575, 47596.72
297.0859, 47471.66
299.0144, 47387.29
300.9429, 47340.46
302.8713, 47328.96
304.7998, 47345.43
306.7283, 47396.23
308.6567, 47435.99
310.5852, 47448.45
312.5137, 47464.11
314.4421, 47461.79
316.3706, 47491.91
318.2991, 47615.44
320.2275, 47809.28
322.1560, 47999.27
324.0845, 48185.04
326.0129, 48365.57
327.9414, 48562.02
329.8699, 48717.53
331.7983, 48819.77
333.7268, 48883.72
335.6553, 48896.46
337.5837, 48885.49
339.5122, 48903.57
341.4407, 48947.25
343.3691, 49007.90
345.2976, 49079.31
347.2261, 49179.83
349.1545, 49330.52
351.0830, 49492.55
353.0115, 49639.68
354.9399, 49798.21
356.8684, 50010.12
358.7969, 50261.16
360.7253, 50499.40
362.6538, 50712.70
364.5823, 50963.11
366.5107, 51286.81
368.4392, 51605.18
370.3677, 51907.70
372.2961, 52192.09
374.2246, 52532.05
376.1531, 52823.86
378.0815, 52878.22
380.0100, 52711.45
381.9385, 52425.53
383.8669, 52003.46
385.7954, 51535.67
387.7239, 51028.67
389.6523, 50485.26
391.5808, 49919.05
393.5093, 49301.73
395.4377, 48594.31
397.3662, 47816.92
399.2947, 47008.85
401.2231, 46171.59
403.1516, 45322.72
405.0801, 44438.38
407.0085, 43596.00
408.9370, 42823.44
410.8655, 42072.47
412.7939, 41321.43
414.7224, 40582.79
416.6509, 39873.02
418.5793, 39185.80
420.5078, 38506.48
422.4363, 37834.97
424.3647, 37189.81
426.2932, 36586.57
428.2217, 35982.82
430.1501, 35348.78
432.0786, 34740.38
434.0071, 34174.43
435.9355, 33650.15
437.8640, 33193.46
439.7925, 32770.95
441.7209, 32308.31
443.6494, 31803.82
445.5779, 31338.41
447.5063, 30939.20
449.4348, 30544.22
451.3633, 30123.76
453.2917, 29740.08
455.2202, 29433.56
457.1487, 29151.13
459.0771, 28850.07
461.0056, 28543.42
462.9341, 28253.87
464.8625, 27979.81
466.7910, 27705.77
468.7195, 27430.50
470.6479, 27157.33
472.5764, 26894.10
474.5049, 26620.37
476.4333, 26324.66
478.3618, 26025.48
480.2903, 25721.86
482.2188, 25430.48
484.1472, 25191.89
486.0757, 24974.87
488.0042, 24673.22
489.9326, 24271.77
491.8611, 23908.85
493.7896, 23617.15
495.7180, 23315.72
497.6465, 22993.78
499.5750, 22673.22
501.5034, 22367.72
503.4319, 22055.97
505.3604, 21710.76
507.2888, 21359.53
509.2173, 21033.37
511.1458, 20730.77
513.0742, 20448.38
515.0027, 20196.59
516.9312, 19912.46
518.8596, 19553.13
520.7881, 19244.36
522.7166, 19017.48
524.6450, 18799.57
526.5735, 18581.48
528.5020, 18347.48
530.4304, 18064.47
532.3589, 17778.70
534.2874, 17552.54
536.2158, 17364.29
538.1443, 17137.29
540.0728, 16867.71
542.0012, 16604.35
543.9297, 16350.84
545.8582, 16091.57
547.7866, 15814.17
549.7151, 15553.57
551.6436, 15324.73
553.5720, 15105.39
555.5005, 14879.66
557.4290, 14663.76
559.3574, 14479.95
561.2859, 14310.51
563.2144, 14121.73
565.1428, 13917.57
567.0713, 13729.80
568.9998, 13562.68
570.9282, 13385.65
572.8567, 13195.49
574.7852, 13001.58
576.7136, 12791.89
578.6421, 12609.50
580.5706, 12492.70
582.4990, 12372.61
584.4275, 12206.93
586.3560, 12024.89
588.2844, 11845.53
590.2129, 11668.85
592.1414, 11498.43
594.0698, 11330.54
595.9983, 11135.62
597.9268, 10905.14
599.8552, 10723.16
601.7837, 10602.40
603.7122, 10467.15
605.6406, 10303.94
607.5691, 10138.09
609.4976, 9984.397
611.4260, 9817.567
613.3545, 9602.101
615.2830, 9395.208
617.2114, 9235.041
619.1399, 9101.732
621.0684, 8983.545
622.9968, 8868.570
624.9253, 8720.017
626.8538, 8541.231
628.7822, 8380.656
630.7107, 8239.438
632.6392, 8091.235
634.5676, 7931.851
636.4961, 7783.701
638.4246, 7654.535
640.3530, 7525.920
642.2815, 7387.788
644.2100, 7256.208
646.1384, 7148.770
648.0669, 7037.458
649.9954, 6898.870
651.9238, 6752.793
653.8523, 6616.654
655.7808, 6491.878
657.7092, 6382.944
659.6377, 6287.967
661.5662, 6198.912
663.4946, 6114.997
665.4231, 6030.740
667.3516, 5946.192
669.2800, 5849.683
671.2085, 5734.796
673.1370, 5632.468
675.0654, 5556.001
676.9939, 5478.704
678.9224, 5390.764
680.8508, 5302.609
682.7793, 5217.749
684.7078, 5134.390
686.6362, 5048.845
688.5647, 4966.162
690.4932, 4890.660
692.4216, 4821.863
694.3501, 4763.054
696.2786, 4709.776
698.2070, 4646.095
700.1355, 4574.819
702.0640, 4512.650
703.9924, 4459.456
705.9209, 4392.050
707.8494, 4304.817
709.7778, 4239.729
711.7063, 4210.809
713.6348, 4176.396
715.5632, 4118.672
717.4917, 4071.647
719.4202, 4066.435
721.3486, 4040.397
723.2771, 3940.133
725.2056, 3851.848
727.1340, 3838.852
729.0625, 3847.363
730.9910, 3837.081
732.9194, 3814.155
734.8479, 3780.859
736.7764, 3743.543
738.7048, 3716.898
740.6333, 3695.535
742.5618, 3659.829
744.4902, 3615.528
746.4187, 3597.854
748.3472, 3606.383
750.2756, 3597.053
752.2041, 3564.211
754.1326, 3536.830
756.0610, 3519.949
757.9895, 3501.589
759.9180, 3479.834
761.8464, 3457.065
763.7749, 3436.035
765.7034, 3410.380
767.6318, 3371.638
769.5603, 3338.440
771.4888, 3323.803
773.4172, 3308.735
775.3457, 3280.216
777.2742, 3249.841
779.2026, 3227.181
781.1311, 3206.014
783.0596, 3181.826
784.9880, 3154.046
786.9165, 3118.406
788.8450, 3081.155
790.7734, 3051.520
792.7019, 3028.972
794.6304, 3015.728
796.5588, 3008.049
798.4873, 2988.386
800.4158, 2957.153
802.3442, 2924.510
804.2727, 2889.778
806.2012, 2866.728
808.1296, 2859.210
810.0581, 2845.619
811.9866, 2815.292
813.9150, 2804.647
815.8435, 2839.019
817.7720, 2850.111
819.7004, 2818.127
821.6289, 2793.307
823.5574, 2777.651
825.4858, 2777.030
827.4143, 2806.380
829.3428, 2829.118
831.2712, 2827.706
833.1997, 2825.429
835.1282, 2829.818
837.0566, 2839.189
838.9851, 2864.762
840.9136, 2879.392
842.8420, 2848.358
844.7705, 2819.412
846.6990, 2836.658
848.6274, 2867.103
850.5559, 2883.493
852.4844, 2894.082
854.4128, 2901.772
856.3413, 2914.194
858.2698, 2942.797
860.1982, 2983.385
862.1267, 3023.974
864.0552, 3072.525
865.9836, 3148.875
867.9121, 3249.753
869.8406, 3377.047
871.7690, 3518.714
873.6975, 3619.048
875.6260, 3676.990
877.5544, 3688.311
879.4829, 3652.159
881.4114, 3531.741
883.3398, 3323.614
885.2683, 3123.719
887.1968, 2930.451
889.1252, 2756.554
891.0537, 2596.103
892.9822, 2493.312
894.9106, 2455.277
896.8391, 2437.885
898.7676, 2446.289
900.6960, 2443.326
902.6245, 2429.823
904.5530, 2388.723
906.4814, 2317.090
908.4099, 2220.842
910.3384, 2091.066
912.2668, 1983.921
914.1953, 1911.118
916.1238, 1846.077
918.0522, 1780.316
919.9807, 1739.366
921.9092, 1737.720
923.8376, 1725.893
925.7661, 1688.587
927.6946, 1652.559
929.6230, 1623.949
931.5515, 1600.261
933.4800, 1582.968
935.4084, 1563.889
937.3369, 1537.308
939.2654, 1518.236
941.1938, 1516.499
943.1223, 1510.058
945.0508, 1488.150
946.9792, 1468.594
948.9077, 1459.871
950.8362, 1449.160
952.7646, 1430.950
954.6931, 1411.926
956.6216, 1392.536
958.5500, 1376.465
960.4785, 1368.470
962.4070, 1358.242
964.3354, 1336.567
966.2639, 1320.888
968.1924, 1322.947
970.1208, 1323.582
972.0493, 1313.098
973.9778, 1304.359
975.9063, 1302.834
977.8347, 1302.708
979.7632, 1303.595
981.6917, 1302.865
983.6201, 1301.477
985.5486, 1295.327
987.4771, 1275.794
989.4055, 1261.992
991.3340, 1266.650
993.2625, 1269.830
995.1909, 1260.968
997.1194, 1254.001
999.0479, 1256.765
1000.976, 1258.229
1002.905, 1255.154
1004.833, 1249.068
1006.762, 1236.076
1008.690, 1227.241
1010.619, 1229.517
1012.547, 1231.132
1014.476, 1192.570
1016.404, 1205.360
1018.333, 1212.655
1020.261, 1214.750
1022.189, 1196.069
1024.118, 1204.216
1026.046, 1201.611
1027.975, 1198.566
1029.903, 1210.487
1031.832, 1194.829
1033.760, 1206.513
1035.689, 1211.026
1037.617, 1203.164
1039.546, 1199.919
1041.474, 1205.359
1043.403, 1212.708
1045.331, 1224.873
1047.260, 1231.357
1049.188, 1229.320
1051.116, 1225.342
1053.045, 1217.391
1054.973, 1214.279
1056.902, 1218.994
1058.830, 1221.517
1060.759, 1218.680
1062.687, 1223.137
1064.616, 1238.873
1066.544, 1247.679
1068.473, 1247.166
1070.401, 1248.574
1072.330, 1252.955
1074.258, 1252.683
1076.187, 1246.548
1078.115, 1250.893
1080.043, 1266.319
1081.972, 1276.869
1083.900, 1282.462
1085.829, 1285.014
1087.757, 1285.313
1089.686, 1291.353
1091.614, 1302.414
1093.543, 1317.666
1095.471, 1333.663
1097.400, 1333.888
1099.328, 1326.636
1101.257, 1333.768
1103.185, 1349.675
1105.114, 1366.803
1107.042, 1381.867
1108.970, 1386.597
1110.899, 1389.238
1112.827, 1400.479
1114.756, 1414.658
1116.684, 1428.306
1118.613, 1439.562
1120.541, 1442.371
1122.470, 1448.860
1124.398, 1470.171
1126.327, 1492.837
1128.255, 1512.345
1130.184, 1524.772
1132.112, 1520.734
1134.041, 1527.324
1135.969, 1561.577
1137.897, 1590.033
1139.826, 1599.134
1141.754, 1611.490
1143.683, 1632.598
1145.611, 1656.223
1147.540, 1681.135
1149.468, 1709.082
1151.397, 1741.382
1153.325, 1769.593
1155.254, 1793.237
1157.182, 1811.211
1159.111, 1823.231
1161.039, 1850.029
1162.968, 1889.675
1164.896, 1919.346
1166.824, 1942.045
1168.753, 1972.919
1170.681, 2008.402
1172.610, 2038.286
1174.538, 2066.176
1176.467, 2097.076
1178.395, 2132.142
1180.324, 2170.481
1182.252, 2216.681
1184.181, 2286.941
1186.109, 2350.860
1188.038, 2377.333
1189.966, 2404.681
1191.895, 2448.506
1193.823, 2503.221
1195.751, 2569.610
1197.680, 2641.670
1199.608, 2720.047
1201.537, 2796.567
1203.465, 2868.741
1205.394, 2947.319
1207.322, 3034.287
1209.251, 3109.958
1211.179, 3173.706
1213.108, 3255.175
1215.036, 3353.652
1216.965, 3450.408
1218.893, 3548.902
1220.822, 3662.635
1222.750, 3788.976
1224.678, 3931.127
1226.607, 4073.700
1228.535, 4182.625
1230.464, 4293.911
1232.392, 4446.367
1234.321, 4613.239
1236.249, 4786.009
1238.178, 4950.949
1240.106, 5082.607
1242.035, 5239.871
1243.963, 5456.542
1245.892, 5659.492
1247.820, 5827.172
1249.749, 6030.748
1251.677, 6280.545
1253.605, 6522.532
1255.534, 6753.907
1257.462, 6989.135
1259.391, 7229.842
1261.319, 7478.077
1263.248, 7738.177
1265.176, 8027.469
1267.105, 8328.602
1269.033, 8604.813
1270.962, 8895.977
1272.890, 9245.800
1274.819, 9617.364
1276.747, 9977.881
1278.676, 10369.51
1280.604, 10813.01
1282.532, 11281.96
1284.461, 11762.50
1286.389, 12282.49
1288.318, 12836.25
1290.246, 13464.19
1292.175, 14170.08
1294.103, 14887.28
1296.032, 15624.68
1297.960, 16436.93
1299.889, 17323.89
1301.817, 18280.83
1303.746, 19316.49
1305.674, 20469.17
1307.603, 21665.07
1309.531, 22887.05
1311.459, 24073.03
1313.388, 25264.47
1315.316, 26262.70
1317.245, 27058.61
1319.173, 27524.15
1321.102, 27647.56
1323.030, 27370.54
1324.959, 26683.18
1326.887, 25733.08
1328.816, 24551.79
1330.744, 23225.30
1332.673, 21875.66
1334.601, 20687.79
1336.530, 19720.94
1338.458, 19036.77
1340.386, 18616.55
1342.315, 18432.67
1344.243, 18551.59
1346.172, 18969.74
1348.100, 19796.02
1350.029, 21060.20
1351.957, 22705.49
1353.886, 24731.50
1355.814, 27224.99
1357.743, 30163.62
1359.671, 33534.90
1361.600, 37163.28
1363.528, 40887.84
1365.457, 44341.68
1367.385, 47303.53
1369.313, 49479.65
1371.242, 50759.28
1373.170, 51136.75
1375.099, 50503.20
1377.027, 49371.40
1378.956, 47810.85
1380.884, 46033.28
1382.813, 44065.31
1384.741, 42063.77
1386.670, 40066.35
1388.598, 38167.24
1390.527, 36376.74
1392.455, 34700.95
1394.384, 33153.66
1396.312, 31717.46
1398.240, 30468.89
1400.169, 29470.08
1402.097, 28534.84
1404.026, 27619.96
1405.954, 26825.40
1407.883, 26154.35
1409.811, 25503.76
1411.740, 24891.13
1413.668, 24394.72
1415.597, 23981.08
1417.525, 23602.56
1419.454, 23272.42
1421.382, 22993.55
1423.311, 22777.29
1425.239, 22630.94
1427.167, 22533.76
1429.096, 22483.65
1431.024, 22470.07
1432.953, 22494.79
1434.881, 22568.98
1436.810, 22704.21
1438.738, 22921.10
1440.667, 23206.82
1442.595, 23546.04
1444.524, 23945.35
1446.452, 24380.18
1448.381, 24930.50
1450.309, 25638.47
1452.238, 26379.68
1454.166, 27146.27
1456.094, 27956.57
1458.023, 28794.85
1459.951, 29606.06
1461.880, 30394.68
1463.808, 31206.41
1465.737, 31946.05
1467.665, 32561.95
1469.594, 33050.16
1471.522, 33432.78
1473.451, 33625.80
1475.379, 33636.50
1477.308, 33356.89
1479.236, 32810.29
1481.165, 32077.90
1483.093, 31217.51
1485.021, 30293.67
1486.950, 29325.39
1488.878, 28305.13
1490.807, 27281.98
1492.735, 26230.63
1494.664, 25282.51
1496.592, 24443.04
1498.521, 23694.53
1500.449, 23044.49
1502.378, 22535.60
1504.306, 22135.26
1506.235, 21809.23
1508.163, 21553.27
1510.092, 21365.48
1512.020, 21250.45
1513.948, 21221.82
1515.877, 21216.76
1517.805, 21231.98
1519.734, 21304.13
1521.662, 21407.41
1523.591, 21501.69
1525.519, 21554.03
1527.448, 21530.62
1529.376, 21469.24
1531.305, 21368.92
1533.233, 21305.31
1535.162, 21298.24
1537.090, 21204.09
1539.019, 21049.47
1540.947, 20947.71
1542.875, 20885.73
1544.804, 20868.77
1546.732, 20846.89
1548.661, 20801.01
1550.589, 20727.97
1552.518, 20624.75
1554.446, 20533.56
1556.375, 20452.63
1558.303, 20357.13
1560.232, 20236.73
1562.160, 20086.98
1564.089, 19881.08
1566.017, 19591.12
1567.946, 19269.09
1569.874, 18923.24
1571.802, 18553.06
1573.731, 18165.65
1575.659, 17825.46
1577.588, 17498.45
1579.516, 17116.96
1581.445, 16730.82
1583.373, 16374.62
1585.302, 16023.13
1587.230, 15669.91
1589.159, 15338.05
1591.087, 15029.22
1593.016, 14750.53
1594.944, 14485.93
1596.873, 14215.73
1598.801, 13943.44
1600.729, 13664.97
1602.658, 13398.72
1604.586, 13144.46
1606.515, 12964.98
1608.443, 12826.74
1610.372, 12551.19
1612.300, 12243.21
1614.229, 12037.34
1616.157, 11848.63
1618.086, 11634.09
1620.014, 11430.71
1621.943, 11242.24
1623.871, 11058.97
1625.800, 10867.00
1627.728, 10614.68
1629.656, 10357.58
1631.585, 10145.75
1633.513, 9946.811
1635.442, 9753.259
1637.370, 9564.967
1639.299, 9381.531
1641.227, 9184.915
1643.156, 8991.068
1645.084, 8812.475
1647.013, 8667.848
1648.941, 8612.816
1650.870, 8490.203
1652.798, 8254.938
1654.727, 8071.776
1656.655, 7929.366
1658.583, 7793.302
1660.512, 7663.865
1662.440, 7541.249
1664.369, 7423.635
1666.297, 7307.976
1668.226, 7208.755
1670.154, 7123.729
1672.083, 7034.459
1674.011, 6937.401
1675.940, 6819.708
1677.868, 6709.940
1679.797, 6625.313
1681.725, 6528.371
1683.654, 6414.002
1685.582, 6313.135
1687.510, 6231.093
1689.439, 6203.664
1691.367, 6155.813
1693.296, 6034.964
1695.224, 5933.175
1697.153, 5870.328
1699.081, 5804.290
1701.010, 5738.621
1702.938, 5690.178
1704.867, 5642.495
1706.795, 5584.377
1708.724, 5519.174
1710.652, 5446.044
1712.581, 5405.166
1714.509, 5384.280
1716.438, 5351.931
1718.366, 5297.801
1720.294, 5187.875
1722.223, 5121.047
1724.151, 5121.251
1726.080, 5074.097
1728.008, 4993.873
1729.937, 4955.893
1731.865, 4932.735
1733.794, 4899.524
1735.722, 4873.244
1737.651, 4858.229
1739.579, 4822.282
1741.508, 4774.688
1743.436, 4750.142
1745.365, 4736.867
1747.293, 4739.205
1749.221, 4711.774
1751.150, 4644.682
1753.078, 4600.804
1755.007, 4578.764
1756.935, 4568.282
1758.864, 4557.265
1760.792, 4522.780
1762.721, 4521.410
1764.649, 4561.904
1766.578, 4557.768
1768.506, 4531.337
1770.435, 4538.875
1772.363, 4549.953
1774.292, 4544.212
1776.220, 4539.101
1778.148, 4537.473
1780.077, 4555.341
1782.005, 4588.785
1783.934, 4636.083
1785.862, 4681.893
1787.791, 4720.757
1789.719, 4743.607
1791.648, 4756.794
1793.576, 4816.855
1795.505, 4909.527
1797.433, 5043.629
1799.362, 5151.591
1801.290, 5192.522
1803.219, 5266.992
1805.147, 5374.954
1807.075, 5543.636
1809.004, 5712.570
1810.932, 5829.119
1812.861, 5972.142
1814.789, 6158.218
1816.718, 6334.319
1818.646, 6497.156
1820.575, 6643.890
1822.503, 6782.585
1824.432, 6918.959
1826.360, 7029.781
1828.289, 7112.347
1830.217, 7157.420
1832.146, 7178.577
1834.074, 7195.399
1836.002, 7153.969
1837.931, 7036.710
1839.859, 6926.715
1841.788, 6815.362
1843.716, 6661.954
1845.645, 6523.954
1847.573, 6425.152
1849.502, 6329.044
1851.430, 6237.620
1853.359, 6167.315
1855.287, 6130.826
1857.216, 6144.365
1859.144, 6184.141
1861.073, 6243.088
1863.001, 6296.958
1864.929, 6368.442
1866.858, 6511.041
1868.786, 6649.390
1870.715, 6758.812
1872.643, 6849.820
1874.572, 6921.148
1876.500, 6966.760
1878.429, 7013.914
1880.357, 7114.294
1882.286, 7137.770
1884.214, 7076.263
1886.143, 6966.121
1888.071, 6822.730
1890.000, 6666.795
1891.928, 6492.147
1893.856, 6300.751
1895.785, 6117.799
1897.713, 5937.092
1899.642, 5755.729
1901.570, 5583.254
1903.499, 5417.775
1905.427, 5249.111
1907.356, 5089.032
1909.284, 4957.088
1911.213, 4845.271
1913.141, 4770.508
1915.070, 4657.965
1916.998, 4510.432
1918.927, 4396.438
1920.855, 4312.629
1922.783, 4256.779
1924.712, 4188.354
1926.640, 4107.172
1928.569, 4015.691
1930.497, 3932.475
1932.426, 3879.218
1934.354, 3828.081
1936.283, 3767.881
1938.211, 3676.230
1940.140, 3584.313
1942.068, 3536.520
1943.997, 3501.148
1945.925, 3474.244
1947.854, 3413.287
1949.782, 3341.368
1951.710, 3318.919
1953.639, 3289.420
1955.567, 3228.490
1957.496, 3159.275
1959.424, 3088.167
1961.353, 3047.846
1963.281, 3015.243
1965.210, 2972.162
1967.138, 2936.166
1969.067, 2904.432
1970.995, 2847.724
1972.924, 2787.081
1974.852, 2739.171
1976.781, 2698.694
1978.709, 2654.354
1980.637, 2599.842
1982.566, 2554.045
1984.494, 2518.014
1986.423, 2477.659
1988.351, 2435.039
1990.280, 2389.871
1992.208, 2350.871
1994.137, 2329.138
1996.065, 2281.322
1997.994, 2211.429
1999.922, 2174.185
2001.851, 2139.074
2003.779, 2085.074
2005.708, 2050.951
2007.636, 2026.989
2009.564, 1987.658
2011.493, 1948.423
2013.421, 1906.784
2015.350, 1872.357
2017.278, 1848.377
2019.207, 1838.408
2021.135, 1813.791
2023.064, 1753.913
2024.992, 1709.416
2026.921, 1683.804
2028.849, 1668.349
2030.778, 1646.998
2032.706, 1616.925
2034.635, 1581.568
2036.563, 1547.977
2038.491, 1525.972
2040.420, 1509.993
2042.348, 1502.717
2044.277, 1487.627
2046.205, 1465.526
2048.134, 1435.178
2050.062, 1414.314
2051.991, 1402.440
2053.919, 1389.620
2055.848, 1373.845
2057.776, 1342.263
2059.705, 1315.558
2061.633, 1292.532
2063.562, 1289.268
2065.490, 1289.175
2067.418, 1268.476
2069.347, 1256.513
2071.275, 1253.419
2073.204, 1226.233
2075.132, 1201.562
2077.061, 1193.940
2078.989, 1185.072
2080.918, 1173.752
2082.846, 1161.489
2084.775, 1145.931
2086.703, 1123.866
2088.632, 1100.965
2090.560, 1087.906
2092.489, 1111.103
2094.417, 1113.645
2096.345, 1080.467
2098.274, 1060.945
2100.202, 1053.639
2102.131, 1054.131
2104.059, 1045.914
2105.988, 1030.661
2107.916, 1021.204
2109.845, 1022.160
2111.773, 1035.971
2113.702, 1025.043
2115.630, 1000.356
2117.559, 992.2205
2119.487, 977.5479
2121.416, 952.3235
2123.344, 950.5466
2125.272, 955.8469
2127.201, 954.2006
2129.129, 947.8868
2131.058, 938.1924
2132.986, 922.9359
2134.915, 913.8141
2136.843, 923.8277
2138.772, 912.5985
2140.700, 890.8962
2142.629, 887.1962
2144.557, 885.0192
2146.486, 879.7554
2148.414, 865.0846
2150.343, 852.9172
2152.271, 853.5929
2154.199, 861.6499
2156.128, 872.4008
2158.056, 874.7928
2159.985, 869.2623
2161.913, 851.8081
2163.842, 847.5287
2165.770, 848.5918
2167.699, 848.7253
2169.627, 842.1147
2171.556, 828.0754
2173.484, 820.4455
2175.413, 821.7512
2177.341, 837.0522
2179.270, 839.2397
2181.198, 830.3095
2183.126, 809.3798
2185.055, 800.8289
2186.983, 809.6240
2188.912, 806.9560
2190.840, 805.4293
2192.769, 813.9586
2194.697, 824.8653
2196.626, 833.3154
2198.554, 825.3407
2200.483, 819.8297
2202.411, 821.4771
2204.340, 811.5579
2206.268, 806.2643
2208.197, 817.7742
2210.125, 823.4468
2212.053, 824.4530
2213.982, 825.0930
2215.910, 829.2458
2217.839, 838.2516
2219.767, 841.8181
2221.696, 842.2150
2223.624, 843.5980
2225.553, 844.0798
2227.481, 844.2871
2229.410, 847.0866
2231.338, 842.9003
2233.267, 831.6479
2235.195, 832.4640
2237.124, 837.1378
2239.052, 843.2142
2240.980, 847.8917
2242.909, 848.7480
2244.837, 852.3986
2246.766, 860.1978
2248.694, 867.7957
2250.623, 855.8305
2252.551, 848.9670
2254.480, 863.6091
2256.408, 875.4519
2258.337, 880.1339
2260.265, 866.0871
2262.194, 864.8875
2264.122, 875.2348
2266.051, 864.1884
2267.979, 865.6370
2269.907, 890.8977
2271.836, 882.8906
2273.764, 868.1842
2275.693, 875.2177
2277.621, 879.3796
2279.550, 881.4911
2281.478, 890.8746
2283.407, 889.7877
2285.335, 884.7698
2287.264, 900.4698
2289.192, 906.5860
2291.121, 888.1828
2293.049, 884.4108
2294.978, 890.7471
2296.906, 894.3939
2298.834, 897.1132
2300.763, 896.4796
2302.691, 878.1419
2304.620, 863.2423
2306.548, 862.0562
2308.477, 886.3344
2310.405, 889.6316
2312.334, 861.3177
2314.262, 863.2712
2316.191, 876.4963
2318.119, 874.7405
2320.048, 870.5158
2321.976, 866.0416
2323.905, 853.2930
2325.833, 848.0962
2327.761, 846.6823
2329.690, 837.4192
2331.618, 830.6661
2333.547, 828.6721
2335.475, 823.0087
2337.404, 811.6507
2339.332, 805.2877
2341.261, 792.1230
2343.189, 778.1243
2345.118, 786.0508
2347.046, 780.2857
2348.975, 761.8671
2350.903, 755.1979
2352.832, 756.4077
2354.760, 754.9617
2356.688, 743.2270
2358.617, 737.7628
2360.545, 733.0480
2362.474, 729.7921
2364.402, 731.9715
2366.331, 729.6736
2368.259, 725.7281
2370.188, 723.2760
2372.116, 708.1699
2374.045, 699.2759
2375.973, 702.5950
2377.902, 700.6511
2379.830, 707.2318
2381.759, 713.3262
2383.687, 700.3489
2385.615, 696.6711
2387.544, 706.6273
2389.472, 699.6255
2391.401, 688.5405
2393.329, 678.9811
2395.258, 682.8148
2397.186, 683.2017
2399.115, 673.6050
2401.043, 675.8425
2402.972, 682.9961
2404.900, 681.3071
2406.829, 681.3386
2408.757, 690.3958
2410.686, 689.5335
2412.614, 673.9532
2414.542, 660.1301
2416.471, 660.0494
2418.399, 669.0876
2420.328, 680.0140
2422.256, 673.1304
2424.185, 676.9975
2426.113, 687.4413
2428.042, 687.5667
2429.970, 691.4727
2431.899, 696.5900
2433.827, 695.6695
2435.756, 700.5728
2437.684, 714.9717
2439.613, 720.9930
2441.541, 725.1732
2443.469, 728.4864
2445.398, 731.3856
2447.326, 745.8677
2449.255, 761.4489
2451.183, 771.4418
2453.112, 784.6066
2455.040, 795.6534
2456.969, 819.6392
2458.897, 849.4082
2460.826, 871.7765
2462.754, 890.5268
2464.683, 917.0234
2466.611, 961.4064
2468.540, 1002.702
2470.468, 1037.729
2472.396, 1070.423
2474.325, 1126.136
2476.253, 1183.181
2478.182, 1241.099
2480.110, 1298.767
2482.039, 1349.270
2483.967, 1396.751
2485.896, 1422.612
2487.824, 1434.933
2489.753, 1470.845
2491.681, 1514.030
2493.610, 1524.991
2495.538, 1514.284
2497.467, 1518.610
2499.395, 1530.328
2501.323, 1513.005
2503.252, 1478.072
2505.180, 1438.376
2507.109, 1413.156
2509.037, 1398.165
2510.966, 1380.043
2512.894, 1351.305
2514.823, 1314.177
2516.751, 1276.535
2518.680, 1236.106
2520.608, 1195.490
2522.537, 1169.378
2524.465, 1150.397
2526.394, 1114.654
2528.322, 1075.249
2530.250, 1044.879
2532.179, 1019.263
2534.107, 995.8428
2536.036, 952.5855
2537.964, 925.3945
2539.893, 914.8818
2541.821, 880.6555
2543.750, 857.5540
2545.678, 854.1542
2547.607, 837.3837
2549.535, 813.6241
2551.464, 791.7771
2553.392, 782.7232
2555.321, 777.1710
2557.249, 764.3754
2559.177, 739.7457
2561.106, 729.0353
2563.034, 726.7419
2564.963, 704.0675
2566.891, 689.8977
2568.820, 686.0141
2570.748, 687.9694
2572.677, 677.7425
2574.605, 659.5289
2576.534, 663.7547
2578.462, 652.3261
2580.391, 633.6575
2582.319, 619.6166
2584.248, 624.0102
2586.176, 638.3097
2588.104, 619.8299
2590.033, 607.2307
2591.961, 601.7198
2593.890, 592.2930
2595.818, 584.1576
2597.747, 576.7550
2599.675, 584.0061
2601.604, 582.3729
2603.532, 575.6309
2605.461, 569.4124
2607.389, 553.7596
2609.318, 543.8237
2611.246, 550.3251
2613.175, 550.4998
2615.103, 546.2065
2617.031, 540.3046
2618.960, 542.3230
2620.888, 541.4935
2622.817, 535.6796
2624.745, 530.3953
2626.674, 520.9479
2628.602, 508.1517
2630.531, 505.7398
2632.459, 505.1800
2634.388, 505.6436
2636.316, 499.9196
2638.245, 495.4174
2640.173, 493.5215
2642.102, 484.1434
2644.030, 478.2650
2645.958, 476.7508
2647.887, 473.6970
2649.815, 468.9878
2651.744, 463.8518
2653.672, 467.9709
2655.601, 462.8800
2657.529, 456.3326
2659.458, 466.1119
2661.386, 457.8929
2663.315, 449.4174
2665.243, 462.2009
2667.172, 459.6569
2669.100, 454.8354
2671.029, 458.1597
2672.957, 460.4666
2674.885, 459.7921
2676.814, 455.1939
2678.742, 453.8366
2680.671, 457.8445
2682.599, 465.2161
2684.528, 459.5816
2686.456, 453.0336
2688.385, 451.1422
2690.313, 459.9403
2692.242, 462.7582
2694.170, 461.6092
2696.099, 458.1827
2698.027, 463.2194
2699.956, 470.8828
2701.884, 472.4308
2703.813, 475.7513
2705.741, 475.4651
2707.669, 474.1833
2709.598, 484.2041
2711.526, 485.1450
2713.455, 477.7167
2715.383, 492.2524
2717.312, 494.9066
2719.240, 488.4720
2721.169, 497.6620
2723.097, 503.7956
2725.026, 505.0544
2726.954, 502.6927
2728.883, 495.3810
2730.811, 496.4108
2732.740, 510.2894
2734.668, 516.8373
2736.596, 518.7427
2738.525, 521.2125
2740.453, 521.0175
2742.382, 515.6920
2744.310, 514.7911
2746.239, 523.4519
2748.167, 528.5665
2750.096, 527.5077
2752.024, 507.7565
2753.953, 509.5699
2755.881, 519.6113
2757.810, 515.7178
2759.738, 513.9408
2761.667, 510.7546
2763.595, 504.8443
2765.523, 501.9908
2767.452, 501.5293
2769.380, 500.0804
2771.309, 498.4641
2773.237, 490.8171
2775.166, 488.3787
2777.094, 495.3305
2779.023, 484.2074
2780.951, 471.2721
2782.880, 466.7530
2784.808, 467.1076
2786.737, 464.0514
2788.665, 457.9885
2790.594, 451.5694
2792.522, 444.1165
2794.450, 443.1305
2796.379, 444.1725
2798.307, 436.9081
2800.236, 429.1821
2802.164, 422.5306
2804.093, 414.5715
2806.021, 415.3930
2807.950, 414.5313
2809.878, 400.1103
2811.807, 394.3906
2813.735, 391.7683
2815.664, 393.3038
2817.592, 393.5936
2819.521, 384.7294
2821.449, 381.6138
2823.377, 378.7810
2825.306, 371.2079
2827.234, 369.6446
2829.163, 363.0845
2831.091, 361.6202
2833.020, 360.9808
2834.948, 353.4839
2836.877, 351.2823
2838.805, 349.7379
2840.734, 335.4539
2842.662, 331.0469
2844.591, 325.5408
2846.519, 320.5145
2848.448, 316.1627
2850.376, 310.0589
2852.304, 314.7599
2854.233, 321.7244
2856.161, 317.8513
2858.090, 309.8270
2860.018, 307.2596
2861.947, 298.4064
2863.875, 290.5812
2865.804, 292.7429
2867.732, 294.7994
2869.661, 289.1233
2871.589, 284.9101
2873.518, 275.9025
2875.446, 277.1230
2877.375, 274.6336
2879.303, 272.3208
2881.231, 267.4337
2883.160, 263.4088
2885.088, 258.2099
2887.017, 259.2077
2888.945, 261.4045
2890.874, 255.1964
2892.802, 247.6211
2894.731, 248.3928
2896.659, 241.4450
2898.588, 232.0391
2900.516, 236.0232
2902.445, 234.2841
2904.373, 233.7591
2906.302, 238.0269
2908.230, 230.3350
2910.158, 223.0966
2912.087, 216.2836
2914.015, 211.9101
2915.944, 210.8649
2917.872, 215.6542
2919.801, 217.3705
2921.729, 209.7573
2923.658, 209.1246
2925.586, 206.1650
2927.515, 201.1155
2929.443, 187.9274
2931.372, 192.2136
2933.300, 202.7355
2935.229, 197.4453
2937.157, 190.9523
2939.085, 185.5230
2941.014, 189.7783
2942.942, 182.5850
2944.871, 181.6689
2946.799, 186.3190
2948.728, 174.4928
2950.656, 168.1603
2952.585, 167.2396
2954.513, 165.9223
2956.442, 175.1051
2958.370, 175.0092
2960.299, 168.5539
2962.227, 167.5298
2964.156, 168.5768
2966.084, 165.8519
2968.012, 163.4641
2969.941, 161.5663
2971.869, 155.6585
2973.798, 154.7335
2975.726, 153.6734
2977.655, 149.9565
2979.583, 152.2836
2981.512, 153.4034
2983.440, 145.7764
2985.369, 153.6762
2987.297, 154.9242
2989.226, 145.1256
2991.154, 141.0521
2993.083, 142.2010
2995.011, 139.8086
2996.939, 131.4119
2998.868, 135.6743
3000.796, 137.2707
3002.725, 133.6854
3004.653, 125.8182
3006.582, 125.1368
3008.510, 129.2063
3010.439, 132.0393
3012.367, 129.2485
3014.296, 122.6517
3016.224, 121.0435
3018.153, 132.7875
3020.081, 125.0125
3022.010, 124.1131
3023.938, 132.5999
3025.866, 132.3041
3027.795, 129.6344
3029.723, 128.3528
3031.652, 127.6249
3033.580, 128.7480
3035.509, 123.8453
3037.437, 118.5651
3039.366, 114.5787
3041.294, 120.7535
3043.223, 121.6337
3045.151, 119.5504
3047.080, 117.3563
3049.008, 110.6904
3050.937, 110.1573
3052.865, 114.8094
3054.793, 117.0825
3056.722, 107.3520
3058.650, 111.9328
3060.579, 124.4041
3062.507, 119.4057
3064.436, 111.6740
3066.364, 111.0204
3068.293, 115.8168
3070.221, 109.4117
3072.150, 108.7732
3074.078, 111.6331
3076.007, 115.8037
3077.935, 122.6743
3079.864, 122.6736
3081.792, 118.4637
3083.720, 113.8649
3085.649, 110.8098
3087.577, 108.1412
3089.506, 109.1451
3091.434, 111.7892
3093.363, 106.6894
3095.291, 109.1480
3097.220, 115.0796
3099.148, 118.0183
3101.077, 119.8218
3103.005, 117.2534
3104.934, 114.6483
3106.862, 117.2898
3108.791, 116.5498
3110.719, 119.8214
3112.647, 125.5785
3114.576, 128.9615
3116.504, 138.2304
3118.433, 138.4995
3120.361, 132.7348
3122.290, 129.3709
3124.218, 126.0058
3126.147, 133.1786
3128.075, 141.5387
3130.004, 133.5609
3131.932, 134.7500
3133.861, 138.9872
3135.789, 140.8365
3137.718, 135.7330
3139.646, 128.0130
3141.574, 125.0225
3143.503, 128.3071
3145.431, 137.9827
3147.360, 138.1706
3149.288, 139.6935
3151.217, 140.5663
3153.145, 134.6061
3155.074, 132.1242
3157.002, 127.5641
3158.931, 125.0737
3160.859, 132.0483
3162.788, 122.0479
3164.716, 119.6560
3166.645, 125.1986
3168.573, 131.6572
3170.501, 130.0967
3172.430, 128.9789
3174.358, 128.4276
3176.287, 126.4465
3178.215, 133.7186
3180.144, 133.9761
3182.072, 132.2193
3184.001, 134.7197
3185.929, 136.7805
3187.858, 142.3205
3189.786, 146.8757
3191.715, 145.8250
3193.643, 143.4591
3195.572, 146.6412
3197.500, 149.2622
3199.428, 147.2236
3201.357, 140.9050
3203.285, 153.9683
3205.214, 165.5832
3207.142, 165.0038
3209.071, 157.0659
3210.999, 165.8841
3212.928, 168.5286
3214.856, 166.7805
3216.785, 165.7254
3218.713, 171.5856
3220.642, 182.5381
3222.570, 179.4943
3224.499, 162.0250
3226.427, 180.0565
3228.355, 195.5058
3230.284, 200.6520
3232.212, 197.3963
3234.141, 201.5946
3236.069, 209.6373
3237.998, 212.5757
3239.926, 209.0318
3241.855, 202.5363
3243.783, 219.4869
3245.712, 229.5889
3247.640, 229.0204
3249.569, 227.7594
3251.497, 234.1661
3253.426, 249.3280
3255.354, 266.1426
3257.282, 273.4849
3259.211, 282.2743
3261.139, 290.6376
3263.068, 299.0252
3264.996, 306.7989
3266.925, 324.2780
3268.853, 334.6748
3270.782, 348.3201
3272.710, 359.6409
3274.639, 360.8781
3276.567, 375.8521
3278.496, 395.2112
3280.424, 406.2166
3282.353, 408.2232
3284.281, 409.6442
3286.209, 423.2348
3288.138, 435.2502
3290.066, 447.6671
3291.995, 469.5789
3293.923, 480.4807
3295.852, 496.3586
3297.780, 528.3689
3299.709, 569.1156
3301.637, 602.2333
3303.566, 631.9981
3305.494, 664.0421
3307.423, 701.5612
3309.351, 748.7501
3311.280, 778.4783
3313.208, 815.0062
3315.136, 847.0756
3317.065, 865.4029
3318.993, 859.2827
3320.922, 859.3577
3322.850, 827.5416
3324.779, 775.7693
3326.707, 751.5844
3328.636, 734.3913
3330.564, 710.5861
3332.493, 696.3478
3334.421, 691.2975
3336.350, 666.4496
3338.278, 650.0948
3340.207, 631.0799
3342.135, 608.6282
3344.063, 585.0375
3345.992, 568.3484
3347.920, 557.2090
3349.849, 530.0211
3351.777, 499.5575
3353.706, 494.9539
3355.634, 475.4511
3357.563, 447.1890
3359.491, 422.2891
3361.420, 403.6043
3363.348, 381.4287
3365.277, 384.9662
3367.205, 384.5636
3369.134, 377.3195
3371.062, 368.3344
3372.990, 362.6540
3374.919, 345.8830
3376.847, 348.6226
3378.776, 349.9726
3380.704, 313.0530
3382.633, 318.9309
3384.561, 313.8147
3386.490, 306.5910
3388.418, 304.6053
3390.347, 302.0345
3392.275, 295.1661
3394.204, 283.0100
3396.132, 269.5168
3398.061, 260.3921
3399.989, 259.9767
3401.917, 269.3890
3403.846, 262.1991
3405.774, 248.2764
3407.703, 238.3079
3409.631, 231.1757
3411.560, 232.8495
3413.488, 230.0350
3415.417, 222.4238
3417.345, 215.3836
3419.274, 216.9579
3421.202, 209.5740
3423.131, 202.7213
3425.059, 194.5384
3426.988, 183.1487
3428.916, 179.0653
3430.844, 169.3257
3432.773, 160.0679
3434.701, 156.3436
3436.630, 157.0908
3438.558, 149.8551
3440.487, 150.2538
3442.415, 149.8733
3444.344, 147.4237
3446.272, 144.1675
3448.201, 138.4655
3450.129, 138.0486
3452.058, 134.8428
3453.986, 132.2798
3455.915, 132.9048
3457.843, 129.5261
3459.771, 128.9882
3461.700, 123.9017
3463.628, 120.1761
3465.557, 123.3512
3467.485, 134.5952
3469.414, 120.0419
3471.342, 119.8717
3473.271, 119.7505
3475.199, 112.5773
3477.128, 113.6151
3479.056, 110.6844
3480.985, 108.1697
3482.913, 105.4602
3484.842, 104.8457
3486.770, 110.0726
3488.698, 103.8780
3490.627, 103.8184
3492.555, 101.0669
3494.484, 96.52865
3496.412, 95.45019
3498.341, 95.06355
3500.269, 86.08865
3502.198, 83.22104
3504.126, 86.05653
3506.055, 89.06858
3507.983, 88.26457
3509.912, 88.56061
3511.840, 87.13477
3513.769, 84.95587
3515.697, 81.48276
3517.625, 76.33604
3519.554, 87.07797
3521.482, 92.30710
3523.411, 90.16413
3525.339, 81.72216
3527.268, 72.69183
3529.196, 79.94771
3531.125, 85.17070
3533.053, 84.17884
3534.982, 84.50326
3536.910, 89.56700
3538.839, 95.40365
3540.767, 91.15906
3542.696, 88.57291
3544.624, 92.81324
3546.552, 96.97603
3548.481, 94.92653
3550.409, 92.40550
3552.338, 94.93002
3554.266, 100.0806
3556.195, 101.7199
3558.123, 100.9271
3560.052, 103.5491
3561.980, 108.9453
3563.909, 100.0903
3565.837, 101.9020
3567.766, 113.4714
3569.694, 121.4635
3571.623, 109.5206
3573.551, 114.1823
3575.479, 95.97346
3577.408, 95.68463
3579.336, 104.5582
3581.265, 97.80871
3583.193, 92.45836
3585.122, 80.40970
3587.050, 83.27193
3588.979, 85.94474
3590.907, 84.02197
3592.836, 85.09726
3594.764, 88.70583
3596.693, 91.90224
3598.621, 79.16164
3600.550, 78.66007
3602.478, 87.78632
3604.406, 80.11700
3606.335, 86.00802
3608.263, 75.87119
3610.192, 75.06305
3612.120, 76.73405
3614.049, 75.02808
3615.977, 75.23401
3617.906, 78.56128
3619.834, 73.98618
3621.763, 64.35223
3623.691, 63.80897
3625.620, 68.30970
3627.548, 61.75797
3629.477, 49.37203
3631.405, 56.77445
3633.333, 51.84497
3635.262, 51.18957
3637.190, 58.92958
3639.119, 60.52779
3641.047, 58.27621
3642.976, 61.38575
3644.904, 64.57108
3646.833, 61.48116
3648.761, 57.94946
3650.690, 59.45232
3652.618, 47.58660
3654.547, 51.58775
3656.475, 60.98346
3658.404, 58.62656
3660.332, 49.49705
3662.260, 46.15271
3664.189, 53.58843
3666.117, 60.17847
3668.046, 48.58291
3669.974, 36.73721
3671.903, 35.95230
3673.831, 44.91639
3675.760, 53.95707
3677.688, 44.91151
3679.617, 42.95220
3681.545, 50.29708
3683.474, 48.02293
3685.402, 39.64658
3687.331, 40.49829
3689.259, 48.74516
3691.188, 46.18209
3693.116, 44.28157
3695.044, 49.86671
3696.973, 47.01015
3698.901, 37.56224
3700.830, 41.70071
3702.758, 43.02594
3704.687, 44.02930
3706.615, 46.54395
3708.544, 48.27157
3710.472, 43.50908
3712.401, 36.69199
3714.329, 44.96556
3716.258, 45.99348
3718.186, 45.44798
3720.115, 41.41891
3722.043, 37.58817
3723.971, 38.22156
3725.900, 42.92408
3727.828, 44.35947
3729.757, 47.31537
3731.685, 47.83653
3733.614, 41.94258
3735.542, 41.44778
3737.471, 48.79073
3739.399, 55.05642
3741.328, 52.94278
3743.256, 46.84917
3745.185, 43.54594
3747.113, 48.30772
3749.042, 50.57258
3750.970, 43.63868
3752.898, 34.51086
3754.827, 41.23534
3756.755, 43.37901
3758.684, 42.05148
3760.612, 35.68172
3762.541, 35.96202
3764.469, 35.90609
3766.398, 27.94124
3768.326, 30.05386
3770.255, 28.66403
3772.183, 32.84102
3774.112, 33.71100
3776.040, 38.16605
3777.969, 34.81786
3779.897, 24.26148
3781.825, 29.70499
3783.754, 27.67225
3785.682, 28.11493
3787.611, 22.65008
3789.539, 23.16906
3791.468, 23.72225
3793.396, 20.62032
3795.325, 19.65590
3797.253, 22.18336
3799.182, 23.09128
3801.110, 27.38656
3803.039, 31.96775
3804.967, 27.70671
3806.896, 21.72366
3808.824, 22.84931
3810.752, 27.62489
3812.681, 22.20958
3814.609, 17.36396
3816.538, 21.99924
3818.466, 17.33062
3820.395, 18.61046
3822.323, 20.53366
3824.252, 15.26067
3826.180, 21.06773
3828.109, 18.75400
3830.037, 22.13707
3831.966, 22.73248
3833.894, 15.78382
3835.823, 20.40136
3837.751, 24.96478
3839.679, 16.87865
3841.608, 17.74769
3843.536, 17.60823
3845.465, 21.88815
3847.393, 18.41299
3849.322, 17.17012
3851.250, 19.87378
3853.179, 17.96685
3855.107, 15.34418
3857.036, 24.38409
3858.964, 18.50295
3860.893, 17.20047
3862.821, 24.17219
3864.750, 17.73809
3866.678, 15.91900
3868.606, 22.26423
3870.535, 22.69184
3872.463, 14.11356
3874.392, 21.54358
3876.320, 21.62709
3878.249, 13.41206
3880.177, 19.60699
3882.106, 18.58005
3884.034, 19.33675
3885.963, 21.94606
3887.891, 18.82735
3889.820, 14.04012
3891.748, 13.56696
3893.677, 18.71623
3895.605, 16.51178
3897.533, 11.32127
3899.462, 14.46603
3901.390, 20.86929
3903.319, 19.91692
3905.247, 15.32150
3907.176, 17.88661
3909.104, 12.13860
3911.033, 15.61392
3912.961, 11.80421
3914.890, 9.671606
3916.818, 13.84169
3918.747, 16.66523
3920.675, 16.10739
3922.604, 14.94748
3924.532, 13.62732
3926.460, 11.15410
3928.389, 16.05438
3930.317, 9.755276
3932.246, 11.60870
3934.174, 17.08218
3936.103, 18.29736
3938.031, 13.84346
3939.960, 14.45467
3941.888, 19.25318
3943.817, 8.328090
3945.745, 12.19898
3947.674, 16.42395
3949.602, 10.87957
3951.531, 14.18206
3953.459, 16.87826
3955.387, 19.15180
3957.316, 21.60897
3959.244, 18.84292
3961.173, 12.21241
3963.101, 12.94742
3965.030, 11.69109
3966.958, 11.05137
3968.887, 16.69186
3970.815, 6.048569
3972.744, 11.33925
3974.672, 21.58046
3976.601, 21.22719
3978.529, 15.36723
3980.458, 15.07982
3982.386, 18.95685
3984.314, 15.37938
3986.243, 21.40351
3988.171, 15.12803
3990.100, 13.46306
3992.028, 15.74620
3993.957, 15.03262
3995.885, 13.46179
3997.814, 16.17929
3999.742, 22.74543
4001.671, 23.95591
4003.599, 13.87707
4005.528, 12.17225
4007.456, 11.63169
4009.385, 16.11617
4011.313, 13.45235
4013.241, 15.98773
4015.170, 12.55834
4017.098, 11.56964
4019.027, 12.11364
4020.955, 14.78782
4022.884, 17.76735
4024.812, 13.54035
4026.741, 11.77746
4028.669, 16.92970
4030.598, 13.08729
4032.526, 11.60561
4034.455, 9.072659
4036.383, 11.50749
4038.312, 9.182276
4040.240, 7.868373
4042.168, 13.43233
4044.097, 15.61175
4046.025, 13.14406
4047.954, 12.93223
4049.882, 2.492846
4051.811, 12.39166
4053.739, 12.08855
4055.668, 12.96748
4057.596, 14.61358
4059.525, 12.02043
4061.453, 12.70379
4063.382, 14.09535
4065.310, 17.25378
4067.239, 12.51559
4069.167, 5.820513
4071.095, 9.007307
4073.024, 14.95819
4074.952, 17.40989
4076.881, 13.43418
4078.809, 7.754583
4080.738, 13.28804
4082.666, 13.89321
4084.595, 8.748470
4086.523, 9.943664
4088.452, 11.12308
4090.380, 10.98622
4092.309, 12.18627
4094.237, 15.03461
4096.166, 15.31618
4098.094, 13.07544
4100.022, 12.51142
4101.951, 9.368459
4103.879, 10.44500
4105.808, 12.80414
4107.736, 8.439483
4109.665, 10.91924
4111.593, 11.43471
4113.521, 12.02767
4115.450, 7.090961
4117.379, 8.266217
4119.307, 11.37164
4121.235, 9.918889
4123.164, 8.100658
4125.093, 11.37451
4127.021, 15.09238
4128.949, 12.48793
4130.878, 11.84380
4132.807, 17.75709
4134.735, 11.37128
4136.663, 12.26400
4138.592, 12.63645
4140.521, 10.18850
4142.449, 12.19892
4144.377, 10.54291
4146.306, 10.70692
4148.234, 12.09966
4150.163, 13.69771
4152.091, 7.898919
4154.020, 4.922872
4155.948, 9.729218
4157.876, 11.54447
4159.805, 11.22572
4161.733, 15.36145
4163.662, 17.47308
4165.590, 21.58165
4167.519, 12.52416
4169.447, 10.77839
4171.376, 3.828781
4173.304, 14.90860
4175.232, 11.26720
4177.161, 15.09499
4179.090, 16.76307
4181.018, 12.84039
4182.946, 16.44966
4184.875, 14.48234
4186.804, 12.00370
4188.732, 14.20265
4190.660, 13.00501
4192.589, 11.67498
4194.518, 15.52369
4196.446, 16.93540
4198.374, 13.34980
4200.303, 13.19071
4202.231, 16.95075
4204.160, 16.72945
4206.088, 9.937395
4208.017, 4.421729
4209.945, 14.56746
4211.874, 16.46968
4213.802, 25.27239
4215.730, 18.99764
4217.659, 12.55371
4219.587, 10.86944
4221.516, 16.53356
4223.444, 10.76173
4225.373, 18.04387
4227.301, 20.13524
4229.229, 17.61446
4231.158, 13.92604
4233.087, 9.653606
4235.015, 10.63334
4236.943, 14.64975
4238.872, 10.11417
4240.801, 10.52973
4242.729, 18.67175
4244.657, 15.70247
4246.586, 10.07407
4248.515, 5.429430
4250.443, 10.11793
4252.371, 9.289391
4254.300, 14.81755
4256.229, 12.18270
4258.157, 14.91384
4260.085, 13.80848
4262.014, 16.79485
4263.942, 10.03521
4265.871, 5.440085
4267.799, 18.43187
4269.728, 15.02965
4271.656, 11.30615
4273.584, 10.60762
4275.513, 11.63483
4277.441, 14.99652
4279.370, 12.48495
4281.298, 16.66476
4283.227, 19.46347
4285.155, 12.68392
4287.084, 17.03562
4289.012, 10.43081
4290.940, 18.05243
4292.869, 11.02020
4294.798, 10.68672
4296.726, 20.06073
4298.654, 20.39155
4300.583, 14.62560
4302.512, 9.852968
4304.440, 11.68518
4306.368, 12.18207
4308.297, 14.94897
4310.226, 17.90890
4312.154, 17.57409
4314.082, 22.88735
4316.011, 15.02896
4317.939, 8.386588
4319.868, 12.32839
4321.796, 15.40005
4323.725, 12.59840
4325.653, 13.56571
4327.582, 17.83928
4329.510, 17.35270
4331.438, 12.60888
4333.367, 10.11220
4335.295, 14.57641
4337.224, 14.55346
4339.152, 11.41235
4341.081, 9.829514
4343.009, 8.170972
4344.938, 13.01347
4346.866, 20.81791
4348.795, 7.409736
4350.723, 15.75149
4352.651, 15.00845
4354.580, 16.47637
4356.509, 7.108186
4358.437, 15.85837
4360.365, 14.81947
4362.294, 20.07785
4364.223, 10.60697
4366.151, 12.90266
4368.079, 14.73829
4370.008, 16.62396
4371.937, 15.21929
4373.865, 15.17856
4375.793, 14.07113
4377.722, 8.280034
##END=



