##NAMES=Conichalcite
##RRUFFID=R050028
##IDEAL CHEMISTRY=CaCu(AsO_4_)(OH)
##LOCALITY=Mapimi, Durango, Mexico
##OWNER=RRUFF
##SOURCE=Eugene Schlepp
##DESCRIPTION=Green botryoidal groups covering adamite
##STATUS=The identification of this mineral has been confirmed by X-ray diffraction and chemical analysis
##URL=https://www.rruff.net/odr/rruff_sample/R050028
##MEASURED CHEMISTRY=Ca_1.00_(Cu_0.70_Zn_0.30_)(As_1.00_O_4_)(OH)
##DIFFRACTION SAMPLE DESCRIPTION=Powder, mixed with adamite
##CELL PARAMETERS=a: 7.449 b: 5.86 c: 9.131 alpha: 90 beta: 90 gamma: 90 volume: 398.6 crystal system: orthorhombic
##FILETYPE=Raman RAW
##RAMAN WAVELENGTH=785

141.6157, 604.6239
143.5442, 683.6507
145.4727, 751.8578
147.4011, 811.0656
149.3296, 867.2863
151.2581, 918.9484
153.1865, 974.5666
155.1150, 1045.173
157.0435, 1108.088
158.9719, 1146.081
160.9004, 1171.348
162.8289, 1203.071
164.7573, 1242.258
166.6858, 1271.015
168.6143, 1278.985
170.5427, 1289.695
172.4712, 1313.593
174.3997, 1336.509
176.3281, 1344.116
178.2566, 1343.223
180.1851, 1353.345
182.1135, 1378.420
184.0420, 1404.237
185.9705, 1430.624
187.8989, 1455.540
189.8274, 1474.595
191.7559, 1498.580
193.6843, 1536.566
195.6128, 1586.773
197.5413, 1641.799
199.4697, 1703.945
201.3982, 1757.047
203.3267, 1802.026
205.2551, 1832.898
207.1836, 1840.264
209.1121, 1836.892
211.0405, 1837.236
212.9690, 1837.459
214.8975, 1816.525
216.8259, 1775.264
218.7544, 1723.791
220.6829, 1661.098
222.6113, 1596.293
224.5398, 1527.802
226.4683, 1461.515
228.3967, 1404.970
230.3252, 1358.412
232.2537, 1313.902
234.1821, 1268.969
236.1106, 1229.655
238.0391, 1203.551
239.9675, 1179.682
241.8960, 1147.540
243.8245, 1120.358
245.7529, 1113.603
247.6814, 1121.246
249.6099, 1131.305
251.5383, 1145.016
253.4668, 1157.685
255.3953, 1161.517
257.3237, 1170.231
259.2522, 1191.877
261.1807, 1215.510
263.1091, 1230.220
265.0376, 1241.455
266.9661, 1261.203
268.8945, 1292.937
270.8230, 1316.598
272.7515, 1329.267
274.6799, 1335.341
276.6084, 1328.839
278.5369, 1325.559
280.4653, 1337.854
282.3938, 1356.097
284.3223, 1368.764
286.2507, 1375.089
288.1792, 1380.382
290.1077, 1379.707
292.0361, 1391.101
293.9646, 1418.548
295.8931, 1461.450
297.8215, 1522.166
299.7500, 1593.269
301.6785, 1666.556
303.6069, 1747.844
305.5354, 1855.554
307.4639, 1990.954
309.3923, 2140.967
311.3208, 2306.790
313.2493, 2469.644
315.1777, 2640.291
317.1062, 2788.877
319.0347, 2899.924
320.9631, 2975.432
322.8916, 3024.812
324.8201, 3048.310
326.7485, 3043.241
328.6770, 3007.558
330.6055, 2952.716
332.5340, 2883.463
334.4624, 2803.651
336.3909, 2710.896
338.3194, 2613.080
340.2478, 2511.297
342.1763, 2408.492
344.1048, 2304.318
346.0332, 2201.337
347.9617, 2115.178
349.8902, 2049.240
351.8186, 1989.378
353.7471, 1936.334
355.6756, 1882.486
357.6040, 1824.498
359.5325, 1766.746
361.4610, 1712.015
363.3894, 1660.862
365.3179, 1611.162
367.2464, 1561.952
369.1748, 1515.068
371.1033, 1473.745
373.0318, 1432.456
374.9602, 1388.378
376.8887, 1347.768
378.8172, 1312.927
380.7456, 1282.708
382.6741, 1255.760
384.6026, 1231.948
386.5310, 1212.637
388.4595, 1197.828
390.3880, 1183.142
392.3164, 1166.937
394.2449, 1152.805
396.1734, 1139.875
398.1018, 1136.354
400.0303, 1146.896
401.9588, 1163.238
403.8872, 1180.413
405.8157, 1202.203
407.7442, 1236.637
409.6726, 1280.951
411.6011, 1320.316
413.5296, 1355.600
415.4580, 1401.450
417.3865, 1460.673
419.3150, 1518.456
421.2434, 1572.218
423.1719, 1623.399
425.1004, 1678.078
427.0288, 1723.141
428.9573, 1749.274
430.8858, 1763.969
432.8142, 1775.922
434.7427, 1783.453
436.6712, 1781.316
438.5996, 1769.221
440.5281, 1757.877
442.4566, 1747.518
444.3850, 1738.954
446.3135, 1727.945
448.2420, 1724.624
450.1704, 1740.297
452.0989, 1755.335
454.0274, 1751.032
455.9558, 1743.840
457.8843, 1756.150
459.8128, 1781.473
461.7412, 1793.021
463.6697, 1789.675
465.5982, 1780.503
467.5266, 1764.559
469.4551, 1744.641
471.3836, 1724.798
473.3120, 1694.801
475.2405, 1642.675
477.1690, 1588.893
479.0974, 1547.682
481.0259, 1509.867
482.9544, 1466.431
484.8828, 1417.451
486.8113, 1366.960
488.7398, 1317.001
490.6682, 1266.374
492.5967, 1214.378
494.5252, 1163.719
496.4536, 1113.690
498.3821, 1070.489
500.3106, 1038.109
502.2390, 1008.745
504.1675, 980.6237
506.0960, 956.1920
508.0244, 936.9235
509.9529, 920.9492
511.8814, 904.3068
513.8098, 886.2328
515.7383, 870.8697
517.6667, 860.7156
519.5952, 856.4836
521.5237, 858.7610
523.4521, 853.4249
525.3806, 833.6843
527.3091, 818.6196
529.2375, 814.1534
531.1660, 808.1002
533.0945, 789.9961
535.0229, 769.1805
536.9514, 760.3820
538.8799, 759.0114
540.8083, 750.6492
542.7368, 735.4610
544.6653, 725.4048
546.5938, 722.5848
548.5222, 717.3146
550.4507, 706.8080
552.3792, 701.2018
554.3076, 701.6019
556.2361, 698.8157
558.1646, 693.8819
560.0930, 688.5144
562.0215, 676.0048
563.9500, 664.0941
565.8784, 669.0455
567.8069, 677.1448
569.7354, 671.1300
571.6638, 661.8627
573.5923, 661.4076
575.5208, 663.6469
577.4493, 660.3497
579.3777, 653.8865
581.3062, 651.3206
583.2347, 653.1101
585.1631, 653.1346
587.0916, 648.1077
589.0201, 641.7599
590.9485, 638.7357
592.8770, 639.5082
594.8055, 642.7440
596.7339, 645.1732
598.6624, 640.3246
600.5909, 632.8711
602.5193, 633.6072
604.4478, 641.8485
606.3763, 649.6885
608.3047, 650.5393
610.2332, 639.9698
612.1617, 624.0016
614.0901, 618.5107
616.0186, 621.3585
617.9471, 620.8851
619.8755, 620.6616
621.8040, 626.3743
623.7325, 631.7347
625.6609, 630.1006
627.5894, 624.9248
629.5179, 623.6082
631.4464, 627.1991
633.3748, 628.9570
635.3033, 628.2479
637.2318, 630.6445
639.1602, 633.6787
641.0887, 634.1635
643.0172, 634.2667
644.9456, 633.3207
646.8741, 629.2270
648.8026, 624.1107
650.7310, 625.7086
652.6595, 634.5471
654.5880, 636.2561
656.5164, 624.2066
658.4449, 612.1346
660.3734, 608.6991
662.3018, 611.5156
664.2303, 617.4103
666.1588, 628.7094
668.0872, 639.9659
670.0157, 640.9373
671.9442, 634.8475
673.8726, 633.8826
675.8011, 644.6760
677.7296, 650.5063
679.6580, 638.5793
681.5865, 625.8720
683.5150, 626.6068
685.4434, 634.2750
687.3719, 636.2640
689.3004, 632.2903
691.2288, 630.9885
693.1573, 634.0994
695.0858, 641.6260
697.0142, 654.1726
698.9427, 665.9214
700.8712, 670.7087
702.7996, 668.2756
704.7281, 663.5878
706.6566, 669.1677
708.5850, 686.6385
710.5135, 698.8862
712.4420, 701.0327
714.3704, 703.4196
716.2989, 709.0380
718.2274, 715.3563
720.1558, 723.8417
722.0843, 733.6975
724.0128, 742.5229
725.9412, 754.4054
727.8697, 771.0374
729.7982, 790.6135
731.7266, 813.7686
733.6551, 836.4581
735.5836, 856.7563
737.5120, 883.5802
739.4405, 917.1612
741.3690, 947.4894
743.2974, 974.9213
745.2259, 1009.424
747.1544, 1053.847
749.0828, 1103.433
751.0113, 1153.305
752.9398, 1205.062
754.8682, 1262.917
756.7967, 1324.125
758.7252, 1389.407
760.6536, 1464.858
762.5821, 1548.438
764.5106, 1628.948
766.4390, 1703.800
768.3675, 1791.851
770.2960, 1904.217
772.2244, 2023.138
774.1529, 2135.171
776.0814, 2255.466
778.0098, 2385.927
779.9383, 2510.640
781.8668, 2645.295
783.7952, 2808.074
785.7237, 2974.649
787.6522, 3136.537
789.5806, 3300.632
791.5091, 3476.187
793.4376, 3679.694
795.3660, 3898.047
797.2945, 4135.374
799.2230, 4391.378
801.1514, 4654.285
803.0799, 4917.375
805.0084, 5199.380
806.9368, 5515.312
808.8653, 5861.626
810.7938, 6232.566
812.7222, 6623.464
814.6507, 7033.897
816.5792, 7445.863
818.5076, 7898.721
820.4361, 8342.381
822.3646, 8735.003
824.2930, 8967.929
826.2215, 8986.425
828.1500, 8816.177
830.0784, 8494.841
832.0069, 7990.926
833.9354, 7306.575
835.8638, 6554.813
837.7923, 5735.457
839.7208, 4971.916
841.6492, 4252.921
843.5777, 3615.668
845.5062, 3077.925
847.4346, 2603.757
849.3631, 2231.311
851.2916, 1937.532
853.2200, 1725.732
855.1485, 1563.501
857.0770, 1430.313
859.0054, 1322.559
860.9339, 1230.619
862.8624, 1154.799
864.7908, 1096.031
866.7193, 1045.010
868.6478, 996.9669
870.5762, 957.3976
872.5047, 914.1934
874.4332, 870.2851
876.3616, 835.8591
878.2901, 806.4203
880.2186, 782.3817
882.1470, 765.3867
884.0755, 752.3187
886.0040, 744.0883
887.9324, 725.6812
889.8609, 698.9803
891.7894, 694.9656
893.7178, 707.4988
895.6463, 702.6913
897.5748, 687.3926
899.5032, 682.8137
901.4317, 685.2182
903.3602, 691.7378
905.2886, 701.6351
907.2171, 703.6617
909.1456, 699.2175
911.0740, 697.4987
913.0025, 697.9219
914.9310, 700.4866
916.8594, 705.5350
918.7879, 706.6532
920.7164, 703.2109
922.6448, 700.0120
924.5733, 697.8810
926.5018, 687.5250
928.4302, 667.2302
930.3587, 651.8463
932.2872, 641.9777
934.2156, 635.5939
936.1441, 633.3244
938.0726, 631.3658
940.0010, 629.4426
941.9295, 628.7589
943.8580, 629.9576
945.7864, 628.4171
947.7149, 624.9999
949.6434, 617.0534
951.5718, 601.3107
953.5003, 594.2577
955.4288, 598.6006
957.3572, 599.0660
959.2857, 595.6818
961.2142, 591.0690
963.1426, 583.3593
965.0711, 579.1432
966.9996, 579.8366
968.9280, 579.9149
970.8565, 578.2929
972.7850, 580.7479
974.7134, 589.0969
976.6419, 592.3264
978.5704, 588.8873
980.4988, 583.5859
982.4273, 576.1807
984.3558, 576.1795
986.2842, 585.9843
988.2127, 582.6286
990.1412, 563.3851
992.0696, 554.4307
993.9981, 556.6946
995.9266, 557.6652
997.8550, 558.0309
999.7835, 558.6503
1001.712, 559.0223
1003.640, 565.6563
1005.569, 577.4764
1007.497, 572.2426
1009.426, 552.0126
1011.354, 548.4864
1013.283, 560.5637
1015.211, 567.2416
1017.140, 568.4885
1019.068, 565.9004
1020.997, 558.8746
1022.925, 557.2526
1024.854, 561.9464
1026.782, 565.4605
1028.710, 568.5379
1030.639, 573.3565
1032.567, 577.1904
1034.496, 580.6701
1036.424, 585.2545
1038.353, 584.4610
1040.281, 578.6074
1042.210, 575.4657
1044.138, 574.1882
1046.067, 565.9240
1047.995, 556.1177
1049.924, 562.6428
1051.852, 576.2099
1053.781, 578.5148
1055.709, 572.4261
1057.637, 560.1926
1059.566, 549.6444
1061.494, 553.7604
1063.423, 561.8254
1065.351, 557.2352
1067.280, 545.3332
1069.208, 539.7980
1071.137, 539.9088
1073.065, 535.7299
1074.994, 528.6489
1076.922, 525.3575
1078.851, 526.0129
1080.779, 525.8540
1082.708, 522.8962
1084.636, 523.0854
1086.565, 527.4737
1088.493, 532.9607
1090.422, 534.5453
1092.350, 526.6437
1094.278, 519.5900
1096.207, 522.2994
1098.135, 522.8715
1100.064, 514.9070
1101.992, 510.5820
1103.921, 512.6765
1105.849, 516.5577
1107.778, 523.1725
1109.706, 529.6797
1111.635, 535.8868
1113.563, 537.1727
1115.492, 533.4815
1117.420, 527.4757
1119.349, 517.8683
1121.277, 511.6751
1123.205, 509.6336
1125.134, 513.3169
1127.062, 520.3618
1128.991, 525.4048
1130.919, 531.9645
1132.848, 538.3935
1134.776, 541.3169
1136.705, 538.5134
1138.633, 532.0652
1140.562, 526.4973
1142.490, 521.3123
1144.419, 512.9979
1146.347, 508.9019
1148.276, 520.3727
1150.204, 531.6818
1152.132, 527.5739
1154.061, 523.3536
1155.989, 529.8649
1157.918, 532.2819
1159.846, 519.4658
1161.775, 511.2313
1163.703, 521.5104
1165.632, 527.9061
1167.560, 516.8429
1169.489, 510.9657
1171.417, 520.9588
1173.346, 530.6625
1175.274, 534.0275
1177.203, 531.7248
1179.131, 525.9367
1181.059, 520.8806
1182.988, 518.2968
1184.916, 520.3341
1186.845, 523.1060
1188.773, 520.7573
1190.702, 517.7719
1192.630, 539.0325
1194.559, 567.6834
1196.487, 556.0286
1198.416, 530.3323
1200.344, 524.1713
1202.273, 524.2710
1204.201, 527.2886
1206.130, 529.3431
1208.058, 524.3495
1209.986, 521.7753
1211.915, 522.2281
1213.843, 525.2916
1215.772, 536.5195
1217.700, 540.0590
1219.629, 531.7265
1221.557, 527.4365
1223.486, 528.2886
1225.414, 528.7758
1227.343, 527.7383
1229.271, 526.2703
1231.200, 526.5848
1233.128, 534.3343
1235.057, 545.9378
1236.985, 546.9507
1238.913, 539.0723
1240.842, 526.3189
1242.770, 516.5436
1244.699, 519.2755
1246.627, 527.8644
1248.556, 541.3992
1250.484, 549.7370
1252.413, 543.7602
1254.341, 539.4614
1256.270, 545.5209
1258.198, 547.5059
1260.127, 538.5339
1262.055, 533.3597
1263.984, 532.8291
1265.912, 536.4468
1267.840, 545.7643
1269.769, 542.3436
1271.697, 528.1569
1273.626, 532.5433
1275.554, 547.4092
1277.483, 547.1185
1279.411, 539.9967
1281.340, 536.3802
1283.268, 533.7168
1285.197, 529.5216
1287.125, 527.9881
1289.054, 535.1628
1290.982, 539.8253
1292.911, 531.8823
1294.839, 528.8884
1296.767, 541.5799
1298.696, 547.9276
1300.624, 543.0099
1302.553, 542.1073
1304.481, 546.1903
1306.410, 545.6339
1308.338, 540.2192
1310.267, 529.8892
1312.195, 519.5741
1314.124, 520.6821
1316.052, 526.2878
1317.981, 531.0873
1319.909, 534.4974
1321.838, 536.5611
1323.766, 536.0544
1325.694, 528.8730
1327.623, 528.3723
1329.551, 540.2615
1331.480, 549.8629
1333.408, 556.6108
1335.337, 552.3223
1337.265, 538.3636
1339.194, 533.8404
1341.122, 534.8478
1343.051, 528.1977
1344.979, 519.9399
1346.908, 517.6858
1348.836, 519.3866
1350.765, 525.0104
1352.693, 531.7772
1354.621, 540.3625
1356.550, 542.6299
1358.478, 535.0148
1360.407, 533.6281
1362.335, 540.6591
1364.264, 539.2006
1366.192, 531.7112
1368.121, 538.1989
1370.049, 548.7454
1371.978, 539.3389
1373.906, 525.2288
1375.835, 520.4402
1377.763, 522.0222
1379.692, 535.2238
1381.620, 537.7357
1383.548, 519.6550
1385.477, 513.7315
1387.405, 524.8787
1389.334, 533.6489
1391.262, 538.0775
1393.191, 534.0609
1395.119, 525.5082
1397.048, 518.7206
1398.976, 515.6591
1400.905, 521.7993
1402.833, 527.6189
1404.762, 526.9536
1406.690, 525.1184
1408.619, 523.3300
1410.547, 520.2089
1412.475, 515.5146
1414.404, 515.0413
1416.332, 518.0134
1418.261, 520.4650
1420.189, 520.7686
1422.118, 513.8041
1424.046, 506.5621
1425.975, 506.5759
1427.903, 507.3303
1429.832, 506.7013
1431.760, 503.6301
1433.689, 496.2057
1435.617, 493.0561
1437.546, 494.6512
1439.474, 506.6848
1441.402, 522.3279
1443.331, 516.1960
1445.259, 506.1006
1447.188, 516.9266
1449.116, 526.7881
1451.045, 520.3143
1452.973, 512.3657
1454.902, 503.5849
1456.830, 503.5727
1458.759, 514.7388
1460.687, 514.0264
1462.616, 505.3977
1464.544, 508.8492
1466.473, 514.8056
1468.401, 508.1526
1470.329, 501.5958
1472.258, 503.7332
1474.186, 506.4353
1476.115, 507.8597
1478.043, 506.7362
1479.972, 502.4811
1481.900, 503.2323
1483.829, 507.1575
1485.757, 507.1261
1487.686, 505.2754
1489.614, 502.3890
1491.543, 502.4961
1493.471, 509.5307
1495.400, 514.2919
1497.328, 514.1121
1499.256, 512.6096
1501.185, 510.1840
1503.113, 510.9271
1505.042, 510.9889
1506.970, 493.7278
1508.899, 478.9663
1510.827, 492.9406
1512.756, 503.8469
1514.684, 498.9878
1516.613, 497.8444
1518.541, 504.0593
1520.470, 506.8682
1522.398, 506.4079
1524.327, 504.4654
1526.255, 503.3745
1528.183, 510.0097
1530.112, 513.3333
1532.040, 503.4567
1533.969, 499.2391
1535.897, 505.6160
1537.826, 502.9431
1539.754, 491.1954
1541.683, 483.4582
1543.611, 479.0975
1545.540, 474.7779
1547.468, 475.6044
1549.397, 490.9361
1551.325, 502.5853
1553.254, 507.2311
1555.182, 498.9328
1557.110, 480.2139
1559.039, 484.7476
1560.967, 498.2833
1562.896, 484.2590
1564.824, 470.0402
1566.753, 484.2673
1568.681, 495.5062
1570.610, 493.6836
1572.538, 490.9942
1574.467, 488.4219
1576.395, 487.7079
1578.324, 487.8914
1580.252, 487.2377
1582.181, 485.9038
1584.109, 484.3598
1586.037, 481.3476
1587.966, 473.8221
1589.894, 474.1862
1591.823, 481.9744
1593.751, 486.9883
1595.680, 487.8460
1597.608, 477.5772
1599.537, 470.8683
1601.465, 485.0353
1603.394, 489.9047
1605.322, 469.0582
1607.251, 471.8353
1609.179, 492.8952
1611.108, 491.3811
1613.036, 478.8385
1614.964, 466.6056
1616.893, 457.5674
1618.821, 451.3971
1620.750, 455.5459
1622.678, 473.7025
1624.607, 478.2634
1626.535, 473.8611
1628.464, 476.0291
1630.392, 476.7108
1632.321, 466.7435
1634.249, 461.3503
1636.178, 467.7679
1638.106, 464.0876
1640.035, 451.0799
1641.963, 458.3413
1643.891, 471.1435
1645.820, 460.6566
1647.748, 454.4008
1649.677, 467.9570
1651.605, 474.3378
1653.534, 468.4235
1655.462, 465.8940
1657.391, 465.4365
1659.319, 462.8983
1661.248, 458.8927
1663.176, 453.4322
1665.105, 447.4236
1667.033, 440.7204
1668.962, 439.1246
1670.890, 442.5957
1672.818, 450.8367
1674.747, 458.9026
1676.675, 462.4414
1678.604, 460.0901
1680.532, 450.2357
1682.461, 443.0168
1684.389, 439.9682
1686.318, 447.2098
1688.246, 454.4042
1690.175, 440.1330
1692.103, 431.9344
1694.032, 446.3399
1695.960, 451.9603
1697.889, 447.0282
1699.817, 446.9055
1701.745, 449.2221
1703.674, 449.6049
1705.602, 449.3948
1707.531, 448.1085
1709.459, 451.1815
1711.388, 458.3882
1713.316, 448.9229
1715.245, 434.1801
1717.173, 436.3798
1719.102, 442.1572
1721.030, 446.4252
1722.959, 443.4784
1724.887, 432.8419
1726.816, 433.5943
1728.744, 437.6682
1730.672, 428.5902
1732.601, 417.7151
1734.529, 408.1186
1736.458, 408.6321
1738.386, 420.4328
1740.315, 420.4843
1742.243, 415.1320
1744.172, 413.3743
1746.100, 416.1932
1748.029, 428.7879
1749.957, 430.5233
1751.886, 420.4422
1753.814, 421.1432
1755.743, 426.8164
1757.671, 431.6351
1759.599, 431.1250
1761.528, 420.6932
1763.456, 417.4700
1765.385, 421.1827
1767.313, 419.0331
1769.242, 416.3953
1771.170, 421.3524
1773.099, 421.6332
1775.027, 411.7166
1776.956, 413.3755
1778.884, 422.6294
1780.813, 417.8744
1782.741, 412.7579
1784.670, 420.9251
1786.598, 420.0328
1788.526, 405.0653
1790.455, 399.4398
1792.383, 401.0697
1794.312, 407.4352
1796.240, 411.1046
1798.169, 408.0192
1800.097, 404.6284
1802.026, 402.0912
1803.954, 402.6027
1805.883, 404.1904
1807.811, 403.6625
1809.740, 404.6698
1811.668, 408.6637
1813.597, 407.0627
1815.525, 400.3769
1817.453, 386.1386
1819.382, 380.2832
1821.310, 406.8333
1823.239, 415.1671
1825.167, 401.7595
1827.096, 398.8018
1829.024, 399.7292
1830.953, 392.5928
1832.881, 386.0252
1834.810, 382.8183
1836.738, 380.4390
1838.667, 379.9005
1840.595, 389.0319
1842.524, 395.8958
1844.452, 387.6272
1846.380, 380.6621
1848.309, 376.7622
1850.237, 388.7983
1852.166, 401.4490
1854.094, 389.7088
1856.023, 377.3451
1857.951, 373.4396
1859.880, 366.7334
1861.808, 359.3813
1863.737, 360.7812
1865.665, 365.2881
1867.594, 369.4922
1869.522, 375.4686
1871.451, 382.9384
1873.379, 379.8811
1875.307, 373.5219
1877.236, 370.3964
1879.164, 367.6974
1881.093, 364.8421
1883.021, 366.6656
1884.950, 368.3665
1886.878, 357.6115
1888.807, 351.4951
1890.735, 359.5118
1892.664, 353.2125
1894.592, 338.5855
1896.521, 338.7971
1898.449, 342.0909
1900.378, 341.0800
1902.306, 348.6159
1904.234, 362.2402
1906.163, 353.6035
1908.091, 341.2043
1910.020, 340.1594
1911.948, 336.3555
1913.877, 328.3401
1915.805, 340.9224
1917.734, 357.2209
1919.662, 351.0289
1921.591, 347.6262
1923.519, 351.0758
1925.448, 348.1207
1927.376, 344.5176
1929.305, 346.8182
1931.233, 348.0536
1933.161, 348.2271
1935.090, 334.5898
1937.018, 318.1420
1938.947, 331.4150
1940.875, 340.6227
1942.804, 330.4682
1944.732, 325.8546
1946.661, 327.3842
1948.589, 327.5424
1950.518, 325.6521
1952.446, 323.5917
1954.375, 323.4278
1956.303, 322.9967
1958.232, 322.9721
1960.160, 324.1301
1962.089, 323.1709
1964.017, 325.5045
1965.945, 329.8457
1967.874, 325.5846
1969.802, 319.5039
1971.731, 314.2853
1973.659, 312.8376
1975.588, 315.4498
1977.516, 317.4590
1979.445, 319.5546
1981.373, 325.4479
1983.302, 328.3722
1985.230, 327.5257
1987.159, 325.2406
1989.087, 320.1898
1991.016, 309.3247
1992.944, 303.1389
1994.872, 300.7811
1996.801, 305.0785
1998.729, 308.0193
2000.658, 303.0721
2002.586, 296.2299
2004.515, 290.7710
2006.443, 293.3696
2008.372, 298.0086
2010.300, 303.3423
2012.229, 305.0148
2014.157, 303.8427
2016.086, 303.5414
2018.014, 301.6194
2019.943, 298.6573
2021.871, 288.7986
2023.799, 278.6552
2025.728, 290.7164
2027.656, 299.8891
2029.585, 298.0893
2031.513, 297.1600
2033.442, 295.9078
2035.370, 293.3134
2037.299, 289.7530
2039.227, 284.5404
2041.156, 288.0468
2043.084, 292.5108
2045.013, 287.5842
2046.941, 281.0936
2048.869, 274.5714
2050.798, 271.5132
2052.726, 272.3099
2054.655, 281.1045
2056.583, 282.0856
2058.512, 275.4687
2060.440, 267.6145
2062.369, 264.1440
2064.297, 276.1182
2066.226, 276.6122
2068.154, 267.8020
2070.083, 266.5746
2072.011, 268.1159
2073.940, 270.9537
2075.868, 267.4828
2077.797, 263.0935
2079.725, 273.4464
2081.654, 278.1132
2083.582, 270.0137
2085.510, 263.9097
2087.439, 261.3904
2089.367, 265.4529
2091.296, 267.0859
2093.224, 265.7356
2095.153, 264.1301
2097.081, 262.8078
2099.010, 263.5543
2100.938, 261.4770
2102.867, 256.8008
2104.795, 250.0978
2106.724, 246.4201
2108.652, 250.2180
2110.581, 246.0702
2112.509, 239.7314
2114.438, 243.3262
2116.366, 246.0830
2118.294, 245.2762
2120.223, 250.8334
2122.151, 254.2322
2124.080, 247.8763
2126.008, 240.2757
2127.937, 233.3263
2129.865, 226.1722
2131.794, 228.3355
2133.722, 245.0391
2135.651, 247.4081
2137.579, 242.2549
2139.508, 243.4023
2141.436, 241.3129
2143.365, 235.8799
2145.293, 233.5975
2147.221, 231.0303
2149.150, 224.6207
2151.078, 223.9025
2153.007, 226.7812
2154.935, 223.0437
2156.864, 222.6517
2158.792, 227.9936
2160.721, 233.9601
2162.649, 237.9450
2164.578, 237.4206
2166.506, 231.6174
2168.435, 222.5170
2170.363, 221.0468
2172.292, 225.3713
2174.220, 235.3097
2176.148, 226.7488
2178.077, 212.7481
2180.005, 213.6881
2181.934, 219.8930
2183.862, 227.6381
2185.791, 222.7823
2187.719, 215.7990
2189.648, 213.4240
2191.576, 211.6984
2193.505, 211.0102
2195.433, 214.3473
2197.362, 215.5076
2199.290, 215.4683
2201.219, 212.6132
2203.147, 210.0931
2205.075, 212.5900
2207.004, 209.0764
2208.932, 203.9851
2210.861, 204.2783
2212.789, 204.4735
2214.718, 202.3379
2216.646, 205.7487
2218.575, 209.6279
2220.503, 205.6588
2222.432, 199.6253
2224.360, 199.4938
2226.289, 207.6792
2228.217, 210.3706
2230.146, 209.3904
2232.074, 200.1957
2234.002, 192.4395
2235.931, 192.0805
2237.859, 193.7923
2239.788, 195.0583
2241.716, 188.9652
2243.645, 187.2287
2245.573, 192.8463
2247.502, 194.2396
2249.430, 192.0888
2251.359, 189.1532
2253.287, 194.1460
2255.216, 195.8149
2257.144, 191.0263
2259.073, 189.2945
2261.001, 186.5949
2262.929, 182.3290
2264.858, 181.7556
2266.786, 185.4080
2268.715, 186.3237
2270.643, 186.2477
2272.572, 182.4865
2274.500, 182.0469
2276.429, 185.2738
2278.357, 183.4557
2280.286, 184.4190
2282.214, 186.1919
2284.143, 182.4895
2286.071, 180.9193
2288.000, 181.3857
2289.928, 175.8135
2291.856, 173.9049
2293.785, 181.9090
2295.713, 182.3240
2297.642, 174.8960
2299.570, 171.7162
2301.499, 174.7181
2303.427, 177.7870
2305.356, 179.3760
2307.284, 175.4865
2309.213, 167.3605
2311.141, 162.1249
2313.070, 160.9230
2314.998, 166.0240
2316.927, 165.8535
2318.855, 166.6510
2320.783, 162.9551
2322.712, 163.6006
2324.640, 169.5755
2326.569, 165.4793
2328.497, 166.3638
2330.426, 171.7469
2332.354, 166.0684
2334.283, 158.2524
2336.211, 154.5815
2338.140, 152.2495
2340.068, 153.5100
2341.997, 156.9038
2343.925, 150.7776
2345.854, 146.1150
2347.782, 149.0400
2349.710, 149.9200
2351.639, 151.5345
2353.567, 154.9430
2355.496, 150.9460
2357.424, 143.4907
2359.353, 140.8336
2361.281, 143.8165
2363.210, 147.3100
2365.138, 147.9513
2367.067, 145.1864
2368.995, 147.3050
2370.924, 151.7691
2372.852, 150.9427
2374.781, 144.9481
2376.709, 154.4898
2378.637, 162.1475
2380.566, 149.4664
2382.494, 145.2607
2384.423, 142.8762
2386.351, 138.4862
2388.280, 135.3859
2390.208, 135.1173
2392.137, 133.7643
2394.065, 134.4156
2395.994, 141.3624
2397.922, 142.7589
2399.851, 140.0489
2401.779, 133.3109
2403.708, 137.2127
2405.636, 142.7800
2407.564, 141.0107
2409.493, 130.0108
2411.421, 127.2070
2413.350, 131.7103
2415.278, 128.1472
2417.207, 127.8346
2419.135, 137.8386
2421.064, 139.9091
2422.992, 135.8000
2424.921, 130.6215
2426.849, 132.1953
2428.778, 135.9177
2430.706, 124.4746
2432.635, 117.2287
2434.563, 121.4313
2436.491, 126.1454
2438.420, 133.0852
2440.348, 135.1916
2442.277, 123.3631
2444.205, 121.5349
2446.134, 126.4859
2448.062, 112.8486
2449.991, 106.5580
2451.919, 115.2673
2453.848, 122.4782
2455.776, 126.3253
2457.705, 127.5319
2459.633, 121.6424
2461.562, 115.1206
2463.490, 112.7519
2465.418, 106.8578
2467.347, 100.0450
2469.275, 101.4607
2471.204, 108.9485
2473.132, 113.9932
2475.061, 106.2926
2476.989, 109.6611
2478.918, 113.6132
2480.846, 116.1262
2482.775, 113.3482
2484.703, 108.8462
2486.632, 107.2267
2488.560, 113.9684
2490.489, 117.6174
2492.417, 109.1587
2494.345, 110.9094
2496.274, 114.1459
2498.202, 105.7344
2500.131, 106.2154
2502.059, 108.6227
2503.988, 105.9636
2505.916, 108.8479
2507.845, 110.2342
2509.773, 103.1594
2511.702, 99.44091
2513.630, 98.08170
2515.559, 104.3852
2517.487, 102.9589
2519.416, 101.7780
2521.344, 104.5878
2523.272, 98.12015
2525.201, 90.43414
2527.129, 93.62427
2529.058, 100.1917
2530.986, 105.5358
2532.915, 107.4410
2534.843, 104.9834
2536.772, 98.85647
2538.700, 96.51094
2540.629, 96.69667
2542.557, 97.61839
2544.486, 97.45626
2546.414, 97.91634
2548.343, 99.36036
2550.271, 97.60297
2552.199, 95.79608
2554.128, 94.74047
2556.056, 96.05386
2557.985, 94.74802
2559.913, 91.15395
2561.842, 88.73571
2563.770, 88.74438
2565.699, 88.79845
2567.627, 82.11832
2569.556, 82.40024
2571.484, 87.43130
2573.413, 92.41933
2575.341, 89.43010
2577.270, 84.93436
2579.198, 86.37959
2581.126, 89.94962
2583.055, 92.19540
2584.983, 89.10791
2586.912, 80.36475
2588.840, 76.13377
2590.769, 85.63913
2592.697, 81.60387
2594.626, 78.76560
2596.554, 89.46729
2598.483, 84.00613
2600.411, 76.98776
2602.340, 78.62312
2604.268, 80.66550
2606.197, 81.74762
2608.125, 82.41074
2610.053, 89.35560
2611.982, 90.39990
2613.910, 82.20728
2615.839, 79.35258
2617.767, 79.78284
2619.696, 82.71947
2621.624, 78.55523
2623.553, 77.26945
2625.481, 80.90777
2627.410, 77.15821
2629.338, 73.28187
2631.267, 72.22646
2633.195, 73.71848
2635.124, 74.88152
2637.052, 75.64841
2638.980, 74.87424
2640.909, 71.46796
2642.837, 68.62995
2644.766, 69.98256
2646.694, 76.41267
2648.623, 80.34354
2650.551, 71.11687
2652.480, 63.85967
2654.408, 64.57738
2656.337, 70.94868
2658.265, 75.23359
2660.194, 76.09048
2662.122, 70.12383
2664.051, 61.10603
2665.979, 59.54640
2667.907, 64.97714
2669.836, 67.38448
2671.764, 69.70853
2673.693, 70.14620
2675.621, 64.25094
2677.550, 60.60299
2679.478, 62.07869
2681.407, 68.94595
2683.335, 68.13641
2685.264, 62.10814
2687.192, 60.75520
2689.121, 65.78613
2691.049, 71.13958
2692.978, 69.38199
2694.906, 61.20615
2696.834, 60.49791
2698.763, 61.56532
2700.691, 62.01327
2702.620, 64.58120
2704.548, 68.06169
2706.477, 62.30844
2708.405, 61.50138
2710.334, 66.62189
2712.262, 66.90552
2714.191, 63.37762
2716.119, 58.09460
2718.048, 59.71865
2719.976, 59.54150
2721.905, 57.96927
2723.833, 56.65982
2725.761, 59.11432
2727.690, 61.40125
2729.618, 59.81958
2731.547, 58.38886
2733.475, 58.32710
2735.404, 60.81036
2737.332, 54.83645
2739.261, 52.38151
2741.189, 56.94763
2743.118, 55.93134
2745.046, 54.78354
2746.975, 54.20682
2748.903, 54.21176
2750.832, 61.03971
2752.760, 57.64209
2754.688, 56.77536
2756.617, 59.39061
2758.545, 55.97533
2760.474, 51.72474
2762.402, 56.70210
2764.331, 58.97337
2766.259, 52.35941
2768.188, 50.05742
2770.116, 52.24354
2772.045, 54.01029
2773.973, 50.85338
2775.902, 46.62477
2777.830, 47.75621
2779.759, 51.78495
2781.687, 55.55177
2783.615, 55.67735
2785.544, 55.57679
2787.472, 53.90129
2789.401, 51.82470
2791.329, 52.75233
2793.258, 51.05239
2795.186, 44.03599
2797.115, 39.86530
2799.043, 48.78852
2800.972, 49.82492
2802.900, 40.98248
2804.829, 48.92986
2806.757, 51.98334
2808.686, 49.49449
2810.614, 51.32624
2812.542, 43.50687
2814.471, 46.21608
2816.399, 51.84614
2818.328, 43.32227
2820.256, 43.56714
2822.185, 46.41135
2824.113, 44.99170
2826.042, 40.18752
2827.970, 38.53142
2829.899, 40.15832
2831.827, 43.49113
2833.756, 44.05731
2835.684, 41.72477
2837.613, 39.59736
2839.541, 48.48722
2841.469, 46.63143
2843.398, 41.93953
2845.326, 44.24057
2847.255, 42.66908
2849.183, 41.33769
2851.112, 43.83611
2853.040, 43.96747
2854.969, 39.19776
2856.897, 35.48799
2858.826, 38.61288
2860.754, 43.31233
2862.683, 44.43175
2864.611, 44.76941
2866.540, 38.45229
2868.468, 34.31040
2870.396, 33.06451
2872.325, 34.05355
2874.253, 37.20467
2876.182, 34.14003
2878.110, 34.80251
2880.039, 35.13823
2881.967, 34.01965
2883.896, 38.65211
2885.824, 37.51019
2887.753, 37.85318
2889.681, 35.53624
2891.610, 29.47589
2893.538, 30.36997
2895.467, 31.51722
2897.395, 29.66569
2899.323, 31.31168
2901.252, 32.30377
2903.180, 38.64824
2905.109, 39.30334
2907.037, 37.14611
2908.966, 33.07922
2910.894, 36.24212
2912.823, 35.66957
2914.751, 33.53890
2916.680, 34.69745
2918.608, 40.40728
2920.537, 35.49142
2922.465, 33.38827
2924.394, 34.91996
2926.322, 30.21677
2928.250, 28.17435
2930.179, 28.72836
2932.107, 34.09314
2934.036, 33.05038
2935.964, 32.64869
2937.893, 34.64401
2939.821, 27.64281
2941.750, 28.35212
2943.678, 33.54806
2945.607, 27.95834
2947.535, 31.90401
2949.464, 33.83203
2951.392, 28.46775
2953.321, 25.25689
2955.249, 26.30605
2957.177, 32.70590
2959.106, 26.23647
2961.034, 27.30189
2962.963, 30.37974
2964.891, 24.94362
2966.820, 21.67585
2968.748, 27.23647
2970.677, 23.08130
2972.605, 10.57902
2974.534, 23.54663
2976.462, 28.34439
2978.391, 25.40961
2980.319, 26.31341
2982.248, 22.31938
2984.176, 21.32590
2986.104, 25.85453
2988.033, 31.00817
2989.961, 28.51435
2991.890, 23.87146
2993.818, 24.53954
2995.747, 26.25468
2997.675, 23.68467
2999.604, 20.73145
3001.532, 22.09330
3003.461, 33.15741
3005.389, 35.10996
3007.318, 28.41193
3009.246, 23.99935
3011.175, 21.92696
3013.103, 19.69012
3015.031, 18.92222
3016.960, 27.37832
3018.888, 28.52003
3020.817, 23.98148
3022.745, 22.41285
3024.674, 23.97768
3026.602, 24.18533
3028.531, 22.53760
3030.459, 19.87165
3032.388, 26.00194
3034.316, 25.84253
3036.245, 20.10292
3038.173, 18.87873
3040.102, 21.55160
3042.030, 20.72771
3043.958, 14.99370
3045.887, 15.58285
3047.815, 20.67220
3049.744, 21.07657
3051.672, 17.29970
3053.601, 24.47730
3055.529, 23.50630
3057.458, 21.20905
3059.386, 23.58541
3061.315, 20.51088
3063.243, 22.46604
3065.172, 22.99263
3067.100, 14.12960
3069.029, 19.73048
3070.957, 20.20537
3072.885, 16.17672
3074.814, 14.58902
3076.742, 27.88472
3078.671, 30.00279
3080.599, 21.41752
3082.528, 16.37232
3084.456, 13.70661
3086.385, 12.25825
3088.313, 12.07714
3090.242, 14.54930
3092.170, 14.55860
3094.099, 16.46952
3096.027, 18.78704
3097.956, 11.55119
3099.884, 17.68471
3101.813, 20.73863
3103.741, 15.50244
3105.669, 18.99557
3107.598, 15.17825
3109.526, 14.21437
3111.455, 20.37904
3113.383, 21.93873
3115.312, 23.52573
3117.240, 24.17978
3119.169, 21.62720
3121.097, 10.04572
3123.026, 9.203151
3124.954, 13.08991
3126.883, 16.76330
3128.811, 21.74188
3130.740, 15.34138
3132.668, 13.42480
3134.596, 21.78115
3136.525, 21.64314
3138.453, 18.12298
3140.382, 12.97732
3142.310, 10.02462
3144.239, 18.58954
3146.167, 12.85181
3148.096, 10.87967
3150.024, 21.82863
3151.953, 19.07731
3153.881, 19.38948
3155.810, 16.42042
3157.738, 10.44479
3159.667, 16.91017
3161.595, 21.37311
3163.523, 19.74070
3165.452, 16.41102
3167.380, 30.31857
3169.309, 18.96869
3171.237, 13.09786
3173.166, 19.72977
3175.094, 15.67721
3177.023, 19.45895
3178.951, 18.29815
3180.880, 13.10627
3182.808, 12.60932
3184.737, 15.58555
3186.665, 14.61154
3188.594, 11.84127
3190.522, 15.68861
3192.450, 16.67333
3194.379, 20.60035
3196.307, 25.65593
3198.236, 21.90977
3200.164, 13.54320
3202.093, 17.16401
3204.021, 15.99910
3205.950, 6.421947
3207.878, 8.600524
3209.807, 9.086626
3211.735, 12.69688
3213.664, 20.92294
3215.592, 18.07011
3217.521, 21.17716
3219.449, 19.37432
3221.377, 15.42621
3223.306, 18.20665
3225.234, 11.86055
3227.163, 13.41105
3229.091, 20.72000
3231.020, 19.07432
3232.948, 9.673491
3234.877, 18.71040
3236.805, 22.74384
3238.734, 8.929252
3240.662, 12.28664
3242.591, 13.84448
3244.519, 13.05127
3246.448, 10.75198
3248.376, 13.82639
3250.304, 16.31846
3252.233, 11.01706
3254.161, 7.564356
3256.090, 16.26672
3258.018, 10.22303
3259.947, 8.755817
3261.875, 11.04806
3263.804, 15.07765
3265.732, 12.23496
3267.661, 10.45612
3269.589, 12.28210
3271.518, 14.34586
3273.446, 14.68534
3275.375, 19.14204
3277.303, 21.73300
3279.231, 20.12828
3281.160, 14.77456
3283.088, 13.55216
3285.017, 14.43869
3286.945, 15.78109
3288.874, 14.02217
3290.802, 7.244023
3292.731, 20.37881
3294.659, 18.59676
3296.588, 8.147409
3298.516, 5.424239
3300.445, 3.966824
3302.373, 7.280720
3304.302, 12.00493
3306.230, 15.86385
3308.158, 10.68519
3310.087, 16.74647
3312.015, 14.91151
3313.944, 4.829042
3315.872, -2.943155
3317.801, 10.14873
3319.729, 4.805717
3321.658, 3.165802
3323.586, 11.72293
3325.515, 8.428205
3327.443, 21.51655
3329.372, 8.776183
3331.300, -1.224003
3333.229, 12.42110
3335.157, 14.84607
3337.085, 10.38940
3339.014, 10.89836
3340.942, 14.93462
3342.871, 15.66073
3344.799, 14.78618
3346.728, 10.44759
3348.656, 6.968400
3350.585, 7.204042
3352.513, 9.964298
3354.442, 8.412232
3356.370, 7.233871
3358.299, 10.15055
3360.227, 13.66268
3362.156, 14.19257
3364.084, 12.81719
3366.012, 14.34326
3367.941, 12.80810
3369.869, 2.261451
3371.798, 8.501498
3373.726, 8.476547
3375.655, 10.17392
3377.583, 13.31292
3379.512, 7.657836
3381.440, 11.91092
3383.369, 10.41649
3385.297, 9.958062
3387.226, 14.20656
3389.154, 15.83633
3391.083, 15.43391
3393.011, 4.871344
3394.939, 3.901967
3396.868, 14.91907
3398.796, 5.947018
3400.725, 1.682740
3402.653, 2.869923
3404.582, 4.726625
3406.510, 4.713347
3408.439, 4.996129
3410.367, 4.621455
3412.296, -1.241147
3414.224, -4.249354
3416.153, 2.219139
3418.081, 10.92587
3420.010, 6.000163
3421.938, 3.708535
3423.866, 2.728277
3425.795, -0.7638622
3427.723, 4.894955
3429.652, 7.425831
3431.580, 5.581078
3433.509, 2.110291
3435.437, 0.1839158
3437.366, 6.246108
3439.294, 3.210789
3441.223, 10.79592
3443.151, 16.54238
3445.080, 8.824753
3447.008, 7.607415
3448.937, 6.534254
3450.865, 3.549804
3452.793, 1.807471
3454.722, 4.558235
3456.650, 12.99696
3458.579, 14.40549
3460.507, 11.74660
3462.436, 10.79270
3464.364, 11.69448
3466.293, 7.604670
3468.221, 1.353774
3470.150, 5.820293
3472.078, 12.88214
3474.007, 10.89640
3475.935, -5.331825
3477.864, 5.604211
3479.792, 10.97796
3481.720, 13.22306
3483.649, 11.17865
3485.577, 1.541581
3487.506, 6.652269
3489.434, 3.117667
3491.363, 3.074148
3493.291, 1.146568
3495.220, -7.235035
3497.148, 1.950609
3499.077, 1.386097
3501.005, 5.749366
3502.934, 12.25136
3504.862, 14.67030
3506.791, 11.17637
3508.719, 5.348133
3510.647, 3.218824
3512.576, 8.857178
3514.504, 11.09386
3516.433, -2.314265
3518.361, 11.25759
3520.290, 8.577649
3522.218, 4.579911
3524.147, 7.727592
3526.075, 14.38377
3528.004, 8.961831
3529.932, 11.36836
3531.861, 5.778406
3533.789, 2.416804
3535.718, 6.167041
3537.646, 12.41906
3539.574, 13.80403
3541.503, 8.687567
3543.431, -1.344590
3545.360, 1.385235
3547.288, 15.52144
3549.217, 7.385523
3551.145, 4.348237
3553.074, -16.70043
3555.002, -17.03633
3556.931, -3.715111
3558.859, -3.850392
3560.788, 7.401659
3562.716, 7.003976
3564.645, 3.658221
3566.573, 6.676942
3568.501, 11.34823
3570.430, 6.237770
3572.358, 3.830351
3574.287, 6.064178
3576.215, 3.755780
3578.144, 3.003082
3580.072, 9.000227
3582.001, 15.87333
3583.929, -5.819957
3585.858, -0.7870486
3587.786, -1.207454
3589.715, -1.676193
3591.643, 10.05908
3593.572, 11.89486
3595.500, 13.30872
3597.428, 10.96284
3599.357, 11.06483
3601.285, 5.805505
3603.214, -7.127639
3605.142, 5.833321
3607.071, 4.157818
3608.999, 7.985877
3610.928, 5.751365
3612.856, 1.652112
3614.785, 4.572789
3616.713, 3.383281
3618.642, -1.410214
3620.570, 6.427629
3622.499, 13.40357
3624.427, 12.77477
3626.355, 11.28004
3628.284, 23.85273
3630.212, 15.82784
3632.141, 4.966256
3634.069, 1.344715
3635.998, 3.811865
3637.926, 6.382478
3639.855, 4.217695
3641.783, 1.920033
3643.712, 3.709839
3645.640, 8.782289
3647.569, 8.580897
3649.497, 1.321084
3651.426, -3.128729
3653.354, 8.257016
3655.282, 1.136349
3657.211, 0.8226401
3659.139, 6.750357
3661.068, 10.66352
3662.996, 9.078504
3664.925, -3.139610
3666.853, 4.986150
3668.782, 20.61600
3670.710, 14.74950
3672.639, 7.402750
3674.567, 16.23315
3676.496, 0.8542635
3678.424, -2.431116
3680.353, 8.561906
3682.281, 14.14718
3684.209, 5.615650
3686.138, -2.197691
3688.066, 11.50172
3689.995, 8.306056
3691.923, 10.74028
3693.852, -4.425417
3695.780, -9.190536
3697.709, -5.521218
3699.637, -5.393064
3701.566, 1.846208
3703.494, 9.305670
3705.423, 1.142012
3707.351, 4.066018
3709.280, 12.45568
3711.208, 12.35274
3713.136, 2.800636
3715.065, 2.913406
3716.993, -10.67160
3718.922, -4.774305
3720.850, 2.243121
3722.779, 0.4010351
3724.707, -2.745199
3726.636, -0.3769344
3728.564, -9.122001
3730.493, 9.506353
3732.421, 0.5550116
3734.350, 3.766594
3736.278, 6.303155
3738.207, 0.8003837
3740.135, 3.831897
3742.063, 0.5696258
3743.992, 10.10032
3745.920, 6.040883
3747.849, 4.197490
3749.777, -1.490999
3751.706, -8.107320
3753.634, -3.118791
3755.563, 1.331536
3757.491, 2.218970
3759.420, 6.049565
3761.348, 8.737279
3763.277, 7.059414
3765.205, 4.771464
3767.134, 8.438661
3769.062, 19.72594
3770.990, 13.41847
3772.919, 12.07635
3774.847, 6.316319
3776.776, 0.1959476
3778.704, -4.133372
3780.633, -4.792257
3782.561, 0.4510711
3784.490, -7.977296
3786.418, 7.624098
3788.347, -3.251812
3790.275, -4.220016
3792.204, 4.793138
3794.132, 8.532440
3796.061, 2.283095
3797.989, -11.00312
3799.917, -4.611411
3801.846, -1.803553
3803.774, -5.119236
3805.703, -1.709496
3807.631, -3.644503
3809.560, -6.753839
3811.488, 7.723102
3813.417, -5.286809
3815.345, 6.151539
3817.274, 0.6461490
3819.202, -0.4437291
3821.131, 5.086631
3823.059, 7.244859
3824.988, 0.4347108
3826.916, -10.36171
3828.844, -1.308566
3830.773, 7.2454312E-03
3832.701, 6.581907
3834.630, 8.236412
3836.558, 8.353801
3838.487, 8.192099
3840.415, 10.47871
3842.344, 17.99051
3844.272, 8.695131
3846.201, 11.43807
3848.129, 10.37754
3850.058, 6.342011
3851.986, 1.785104
3853.915, 3.378733
3855.843, 7.526965
3857.771, 5.730144
3859.700, 6.195880
3861.628, 20.16624
3863.557, 7.298133
3865.485, 9.423220
3867.414, 5.785439
3869.342, 6.602301
3871.271, 9.547180
3873.199, 6.588490
3875.128, 8.122189
3877.056, 0.8355867
3878.985, -2.110912
3880.913, 18.74913
3882.842, -2.097882
3884.770, 0.1862921
3886.698, 3.563697
3888.627, 1.377946
3890.555, 14.54435
3892.484, 5.566148
3894.412, -0.5897635
3896.341, 2.035343
3898.269, 4.215036
3900.198, 7.315547
3902.126, 1.361940
3904.055, 1.815474
3905.983, 10.53552
3907.912, 8.914061
3909.840, -4.866506
3911.769, 5.071657
3913.697, 3.292738
3915.625, 5.144805
3917.554, 7.399776
3919.482, 1.598187
3921.411, 9.739438
3923.339, 18.18396
3925.268, 7.891692
3927.196, 1.166152
3929.125, 14.56753
3931.053, 7.422002
3932.982, 5.167915
3934.910, 5.994301
3936.839, 4.495998
3938.767, 7.184508
3940.696, 0.3116507
3942.624, -4.778193
3944.552, 4.838257
3946.481, 3.097276
3948.409, 1.987052
3950.338, 5.532943
3952.266, -2.672137
3954.195, -5.547145
3956.123, -7.308887
3958.052, -7.807875
3959.980, -11.27827
3961.909, -5.709375
3963.837, 8.726964
3965.766, 1.442519
3967.694, -8.691625
3969.623, 3.356180
3971.551, 3.695571
3973.479, 7.805302
3975.408, 13.84147
3977.336, 20.33308
3979.265, 6.394102
3981.193, -1.653689
3983.122, 8.651856
3985.050, 7.325648
3986.979, 0.1698270
3988.907, -0.7055593
3990.836, 11.95521
3992.764, 7.231658
3994.693, 9.981822
3996.621, 5.525781
3998.550, 0.5460311
4000.478, 0.1045208
4002.406, -9.300958
4004.335, -12.61986
4006.263, 7.704418
4008.192, 11.28480
4010.120, 4.931445
4012.049, -6.267799
4013.977, 11.28709
4015.906, -8.334230
4017.834, -2.875463
4019.763, 0.2804995
4021.691, 3.427647
4023.620, 2.779409
4025.548, -6.782440
4027.477, -7.845874
4029.405, 6.313094
4031.333, 1.090301
4033.262, -1.423401
4035.190, 8.272120
4037.119, 6.174800
4039.047, 3.755331
4040.976, 2.058798
4042.904, 3.545361
4044.833, 6.777149
4046.761, 9.555123
4048.690, 3.792784
4050.618, -3.024888
4052.547, 2.941294
4054.475, 6.988167
4056.404, 1.233393
4058.332, 3.403725
4060.260, 11.49310
4062.189, 12.31029
4064.117, -1.395630
4066.046, 4.186336
4067.974, -1.653492
4069.903, -1.238165
4071.831, 7.897231
4073.760, 10.08703
4075.688, 4.973812
4077.617, 2.913072
4079.545, 5.977305
4081.474, 2.113218
4083.402, -1.853165
4085.331, -0.2275180
4087.259, -0.4465870
4089.188, 5.739820
4091.116, -9.402577
4093.044, 7.065812
4094.973, 22.41539
4096.901, 4.719294
4098.830, 4.655203
4100.758, 12.33082
4102.687, 2.020992
4104.615, -6.785040
4106.544, -6.945748
4108.472, -1.762706
4110.401, 4.294544
4112.329, -7.681501
4114.258, -5.866773
4116.186, 11.71760
4118.115, -0.5359759
4120.043, -13.31861
4121.972, -10.07056
4123.900, 5.458755
4125.829, 1.375209
4127.757, 1.259871
4129.686, 8.175831
4131.614, 4.778858
4133.542, 3.193293
4135.471, 5.890993
4137.399, -3.893099
4139.328, -2.506448
4141.256, -0.6088879
4143.185, 11.16791
4145.113, 4.937214
4147.042, 4.889093
4148.970, -4.416815
4150.898, 9.762650
4152.827, 15.64676
4154.755, 14.64524
4156.684, 14.95538
4158.612, 2.092924
4160.541, 7.537960
4162.469, 9.732966
4164.398, -4.136357
4166.326, -4.464777
4168.255, 7.115786
4170.183, 9.987038
4172.112, 12.01812
4174.040, 12.91694
4175.969, 9.006053
4177.897, -3.156403
4179.826, 6.016487
4181.754, -10.09179
4183.683, -12.54070
4185.611, -4.120740
4187.540, 0.8574721
4189.468, 6.949323
4191.396, -4.532013
4193.325, -2.312576
4195.253, -2.061568
4197.182, 7.013175
4199.110, 3.664065
4201.039, 9.579971
4202.967, 13.25165
4204.896, 2.7042910E-02
4206.824, -0.2485255
4208.752, 3.682685
4210.681, -0.3504881
4212.609, 10.09355
4214.538, 2.839409
4216.466, -4.597569
4218.395, 7.283427
4220.323, 0.1792048
4222.252, 5.068911
4224.180, 18.76684
4226.109, 4.382618
4228.037, 10.62451
4229.966, 15.23347
4231.894, 10.16111
4233.823, 6.328729
4235.751, 5.539834
4237.680, -10.89856
4239.608, 0.7464840
4241.537, -0.1108893
4243.465, 0.3033857
4245.394, 3.729656
4247.322, 4.699277
4249.250, -6.929643
4251.179, 0.2248779
4253.107, -2.769039
4255.036, -2.823690
4256.964, 10.18056
4258.893, 2.720147
4260.821, -3.890496
4262.750, 1.949975
4264.678, 3.420228
4266.606, 3.052311
4268.535, -0.5676228
4270.463, 13.48440
4272.392, 8.214245
4274.320, 8.506244
4276.249, -3.985984
4278.177, 8.535471
4280.106, 0.8112663
4282.034, 14.41896
4283.963, 10.16891
4285.891, 11.71788
4287.820, 14.71358
4289.748, 21.83337
4291.677, 9.7388914E-03
4293.605, 8.975699
4295.534, 0.3396567
4297.462, 1.765429
4299.391, 10.21463
4301.319, 6.410321
4303.248, 0.6569000
4305.176, -5.710707
4307.104, 2.610445
4309.033, 12.96681
4310.961, 2.737158
4312.890, 1.516376
4314.818, 7.571515
4316.747, -5.914179
4318.675, -2.478174
4320.604, 15.45588
4322.532, 3.471547
##END=



