##NAMES=Conichalcite
##RRUFFID=R070430
##IDEAL CHEMISTRY=CaCu(AsO_4_)(OH)
##LOCALITY=Maria Catalina mine, Pampa Larga Mining District, Tierra Amarilla, Chile
##OWNER=RRUFF
##SOURCE=Bob Jenkins
##DESCRIPTION=Apple-green prismatic crystals, associated with pale blue blocky rruffite (R070431), and pale blue granular barahonite-(Al)
##STATUS=The identification of this mineral is confirmed by single-crystal X-ray diffraction and chemical analysis
##URL=https://www.rruff.net/odr/rruff_sample/R070430
##MEASURED CHEMISTRY=Ca_1.00_(Cu_0.99_Zn_0.01_)As_1.00_O_4_(OH) ; OH estimated by charge balance
##DIFFRACTION SAMPLE DESCRIPTION=Single crystal, powder profile is calculated
##CELL PARAMETERS=a: 7.3822 b: 5.8146 c: 9.2136 alpha: 90 beta: 90 gamma: 90 volume: 395.49 crystal system: orthorhombic
##FILETYPE=Raman RAW
##RAMAN WAVELENGTH=785

137.5991, 1127.739
139.5276, 1222.322
141.4560, 1367.532
143.3845, 1513.294
145.3130, 1584.411
147.2414, 1595.931
149.1699, 1603.362
151.0984, 1610.574
153.0268, 1617.314
154.9553, 1623.323
156.8838, 1629.630
158.8122, 1637.775
160.7407, 1645.471
162.6692, 1649.947
164.5976, 1651.227
166.5261, 1649.412
168.4546, 1637.455
170.3830, 1632.184
172.3115, 1640.383
174.2400, 1653.952
176.1684, 1668.086
178.0969, 1682.305
180.0254, 1694.291
181.9538, 1698.885
183.8823, 1714.948
185.8108, 1747.359
187.7392, 1782.523
189.6677, 1818.722
191.5962, 1854.577
193.5246, 1885.620
195.4531, 1912.341
197.3816, 1947.894
199.3100, 2004.174
201.2385, 2029.462
203.1670, 2005.328
205.0954, 1965.426
207.0239, 1922.484
208.9524, 1878.053
210.8808, 1835.495
212.8093, 1794.450
214.7378, 1750.729
216.6662, 1705.660
218.5947, 1648.248
220.5232, 1567.615
222.4516, 1491.637
224.3801, 1428.406
226.3086, 1374.150
228.2370, 1327.344
230.1655, 1287.923
232.0940, 1251.498
234.0224, 1217.417
235.9509, 1184.702
237.8794, 1149.343
239.8078, 1125.978
241.7363, 1121.484
243.6648, 1124.249
245.5932, 1125.365
247.5217, 1126.013
249.4502, 1128.132
251.3786, 1132.312
253.3071, 1141.567
255.2356, 1147.374
257.1640, 1163.875
259.0925, 1206.120
261.0210, 1255.424
262.9494, 1294.017
264.8779, 1326.032
266.8064, 1361.911
268.7348, 1402.894
270.6633, 1436.737
272.5918, 1465.652
274.5202, 1497.656
276.4487, 1533.099
278.3772, 1562.821
280.3056, 1583.321
282.2341, 1592.772
284.1626, 1583.643
286.0910, 1558.839
288.0195, 1556.303
289.9480, 1582.085
291.8764, 1598.077
293.8049, 1597.563
295.7334, 1604.972
297.6618, 1627.005
299.5903, 1662.345
301.5188, 1710.508
303.4472, 1772.415
305.3757, 1852.939
307.3042, 1954.333
309.2326, 2064.468
311.1611, 2183.295
313.0896, 2302.051
315.0180, 2414.104
316.9465, 2524.058
318.8750, 2642.577
320.8034, 2750.667
322.7319, 2827.279
324.6604, 2875.441
326.5888, 2908.760
328.5173, 2921.041
330.4458, 2892.317
332.3742, 2819.367
334.3027, 2725.720
336.2312, 2604.231
338.1596, 2482.704
340.0881, 2380.938
342.0166, 2288.719
343.9450, 2185.067
345.8735, 2076.401
347.8020, 1985.359
349.7304, 1913.987
351.6589, 1846.610
353.5874, 1779.999
355.5158, 1719.744
357.4443, 1665.854
359.3728, 1617.722
361.3012, 1576.774
363.2297, 1543.691
365.1582, 1519.759
367.0866, 1499.272
369.0151, 1469.628
370.9436, 1432.349
372.8720, 1395.350
374.8005, 1354.643
376.7290, 1320.240
378.6574, 1300.374
380.5859, 1282.236
382.5144, 1255.051
384.4428, 1226.016
386.3713, 1206.548
388.2998, 1193.236
390.2282, 1173.473
392.1567, 1148.535
394.0852, 1125.913
396.0136, 1104.097
397.9421, 1088.478
399.8706, 1082.722
401.7990, 1084.473
403.7275, 1090.573
405.6560, 1099.394
407.5844, 1112.579
409.5129, 1133.887
411.4414, 1165.350
413.3698, 1203.835
415.2983, 1243.614
417.2268, 1283.900
419.1552, 1323.239
421.0837, 1363.286
423.0122, 1402.129
424.9406, 1435.646
426.8691, 1469.348
428.7976, 1509.768
430.7260, 1552.051
432.6545, 1587.315
434.5830, 1619.540
436.5114, 1657.996
438.4399, 1700.341
440.3684, 1728.562
442.2968, 1744.582
444.2253, 1744.551
446.1538, 1714.825
448.0822, 1686.227
450.0107, 1668.186
451.9392, 1656.310
453.8676, 1645.087
455.7961, 1639.463
457.7246, 1640.614
459.6530, 1650.424
461.5815, 1678.100
463.5100, 1725.581
465.4384, 1788.688
467.3669, 1868.411
469.2954, 1957.846
471.2238, 2060.796
473.1523, 2161.634
475.0808, 2266.148
477.0092, 2351.423
478.9377, 2420.718
480.8662, 2450.402
482.7946, 2417.347
484.7231, 2334.993
486.6516, 2222.989
488.5800, 2084.750
490.5085, 1952.553
492.4370, 1827.828
494.3654, 1701.437
496.2939, 1569.643
498.2224, 1444.838
500.1508, 1325.407
502.0793, 1222.212
504.0078, 1141.629
505.9362, 1075.958
507.8647, 1021.073
509.7932, 976.6581
511.7216, 944.0861
513.6501, 921.4496
515.5786, 903.5457
517.5070, 890.5793
519.4355, 886.7694
521.3640, 894.5492
523.2924, 901.2182
525.2209, 906.6348
527.1494, 908.7437
529.0778, 906.4185
531.0063, 900.6321
532.9348, 893.9625
534.8632, 883.1681
536.7917, 861.8441
538.7202, 835.2728
540.6486, 810.9711
542.5771, 788.6080
544.5056, 767.0286
546.4340, 746.3547
548.3625, 728.5403
550.2910, 714.4683
552.2194, 697.5737
554.1479, 676.4197
556.0764, 659.8798
558.0048, 649.5129
559.9333, 642.3178
561.8618, 638.9525
563.7902, 634.7151
565.7187, 625.4604
567.6472, 616.0740
569.5756, 613.1164
571.5041, 615.5234
573.4326, 618.1285
575.3610, 618.0049
577.2895, 610.3427
579.2180, 597.5505
581.1464, 591.4189
583.0749, 590.5714
585.0034, 587.7186
586.9318, 583.1946
588.8603, 581.0551
590.7888, 580.8284
592.7172, 579.9717
594.6457, 580.5764
596.5742, 582.2720
598.5026, 583.7135
600.4311, 582.2831
602.3596, 575.6821
604.2880, 572.9089
606.2165, 579.7859
608.1450, 586.1796
610.0734, 585.6454
612.0019, 583.3627
613.9304, 582.4639
615.8588, 579.2516
617.7873, 576.5228
619.7158, 579.1131
621.6442, 583.5087
623.5727, 586.3641
625.5012, 583.3461
627.4296, 573.5267
629.3581, 570.8992
631.2866, 582.1758
633.2150, 593.7294
635.1435, 596.4509
637.0720, 591.7613
639.0004, 583.0734
640.9289, 580.3162
642.8574, 587.5695
644.7858, 595.6343
646.7143, 598.1551
648.6428, 594.9282
650.5712, 583.2392
652.4997, 568.0051
654.4282, 563.9760
656.3566, 567.8385
658.2851, 570.9222
660.2136, 576.2127
662.1420, 580.7667
664.0705, 582.4597
665.9990, 585.6296
667.9274, 592.9739
669.8559, 597.3926
671.7844, 592.0757
673.7128, 584.9425
675.6413, 583.5533
677.5698, 590.3541
679.4982, 601.9431
681.4267, 608.6909
683.3552, 609.4700
685.2836, 610.1924
687.2121, 612.2992
689.1406, 613.6581
691.0690, 613.9928
692.9975, 620.6531
694.9260, 638.6983
696.8544, 658.2603
698.7829, 665.8417
700.7114, 664.3880
702.6398, 665.1913
704.5683, 670.8681
706.4968, 680.4743
708.4252, 692.7535
710.3537, 704.3123
712.2822, 711.5782
714.2106, 726.2072
716.1391, 745.7747
718.0676, 758.2676
719.9960, 771.6475
721.9245, 788.8007
723.8530, 807.7666
725.7814, 828.3596
727.7099, 844.3900
729.6384, 862.2120
731.5668, 893.8258
733.4953, 929.5585
735.4238, 956.9622
737.3522, 983.1345
739.2807, 1014.618
741.2092, 1050.521
743.1376, 1092.751
745.0661, 1137.455
746.9946, 1173.448
748.9230, 1201.929
750.8515, 1236.969
752.7800, 1282.964
754.7084, 1326.885
756.6369, 1363.495
758.5654, 1408.735
760.4938, 1466.790
762.4223, 1529.208
764.3508, 1601.430
766.2792, 1687.099
768.2077, 1779.193
770.1362, 1871.902
772.0646, 1971.275
773.9931, 2069.641
775.9216, 2140.708
777.8500, 2186.155
779.7785, 2220.694
781.7070, 2263.687
783.6354, 2319.854
785.5639, 2375.947
787.4924, 2434.433
789.4208, 2507.472
791.3493, 2614.927
793.2778, 2779.665
795.2062, 2999.182
797.1347, 3273.238
799.0632, 3595.116
800.9916, 3961.892
802.9201, 4364.545
804.8486, 4796.912
806.7770, 5249.798
808.7055, 5713.686
810.6340, 6174.520
812.5624, 6628.293
814.4909, 7113.429
816.4194, 7633.557
818.3478, 8172.669
820.2763, 8686.536
822.2048, 9179.561
824.1332, 9574.420
826.0617, 9801.581
827.9902, 9798.564
829.9186, 9554.688
831.8471, 9071.722
833.7756, 8379.522
835.7040, 7591.245
837.6325, 6698.349
839.5610, 5855.566
841.4894, 5052.902
843.4179, 4350.282
845.3464, 3753.373
847.2748, 3236.406
849.2033, 2832.582
851.1318, 2481.625
853.0602, 2195.224
854.9887, 1966.147
856.9172, 1796.455
858.8456, 1660.756
860.7741, 1534.283
862.7026, 1421.062
864.6310, 1326.327
866.5595, 1242.338
868.4880, 1174.047
870.4164, 1127.509
872.3449, 1086.207
874.2734, 1042.151
876.2018, 993.2456
878.1303, 946.1084
880.0588, 910.9881
881.9872, 883.5403
883.9157, 851.7679
885.8442, 822.7299
887.7726, 808.2123
889.7011, 798.9698
891.6296, 783.4365
893.5580, 765.2986
895.4865, 752.3126
897.4150, 743.0057
899.3434, 732.0315
901.2719, 723.4211
903.2004, 717.4066
905.1288, 709.8947
907.0573, 705.6777
908.9858, 705.6252
910.9142, 702.8764
912.8427, 698.0052
914.7712, 694.9163
916.6996, 689.8137
918.6281, 677.0244
920.5566, 662.0984
922.4850, 652.9432
924.4135, 645.0057
926.3420, 632.9866
928.2704, 620.9137
930.1989, 616.1149
932.1274, 615.5437
934.0558, 605.5229
935.9843, 590.0821
937.9128, 581.4050
939.8412, 573.7434
941.7697, 564.6071
943.6982, 558.0494
945.6266, 554.1375
947.5551, 551.1198
949.4836, 551.8709
951.4120, 559.3739
953.3405, 565.0042
955.2690, 564.6257
957.1974, 561.5245
959.1259, 557.4178
961.0544, 559.7033
962.9828, 568.7201
964.9113, 571.7539
966.8398, 568.8872
968.7682, 568.8126
970.6967, 570.7567
972.6252, 573.5345
974.5536, 577.9944
976.4821, 579.4592
978.4106, 577.2286
980.3391, 573.3977
982.2675, 568.3895
984.1960, 565.6689
986.1245, 564.3163
988.0529, 555.5693
989.9814, 541.8724
991.9099, 536.0426
993.8383, 535.6201
995.7668, 530.0353
997.6953, 520.8292
999.6237, 513.1451
1001.552, 507.8170
1003.481, 508.1652
1005.409, 512.2163
1007.338, 515.4026
1009.266, 516.4105
1011.195, 509.6136
1013.123, 499.2949
1015.051, 495.1913
1016.980, 495.6427
1018.908, 499.6366
1020.837, 504.8869
1022.765, 505.5460
1024.694, 503.1261
1026.622, 501.7191
1028.551, 502.4081
1030.479, 504.6250
1032.408, 506.6634
1034.336, 506.8060
1036.265, 507.0127
1038.193, 511.5420
1040.121, 515.9081
1042.050, 513.0378
1043.978, 507.2454
1045.907, 505.8751
1047.835, 506.7183
1049.764, 502.2871
1051.692, 498.4880
1053.621, 504.9488
1055.549, 510.1936
1057.478, 503.0719
1059.406, 496.3706
1061.335, 503.4687
1063.263, 510.2571
1065.192, 502.7275
1067.120, 491.4353
1069.048, 484.9208
1070.977, 480.3873
1072.905, 474.1834
1074.834, 471.7686
1076.762, 475.8576
1078.691, 480.4497
1080.619, 485.1049
1082.548, 486.6960
1084.476, 484.4021
1086.405, 480.9879
1088.333, 475.3463
1090.262, 474.6898
1092.190, 480.7344
1094.119, 483.3723
1096.047, 482.5211
1097.975, 480.5588
1099.904, 474.7670
1101.832, 469.9361
1103.761, 472.9284
1105.689, 479.7201
1107.618, 483.3775
1109.546, 480.0873
1111.475, 472.0457
1113.403, 472.6500
1115.332, 481.4863
1117.260, 481.7585
1119.189, 473.8407
1121.117, 468.5280
1123.046, 465.5648
1124.974, 461.3005
1126.902, 459.5258
1128.831, 464.4400
1130.759, 469.6801
1132.688, 471.2243
1134.616, 472.0835
1136.545, 474.0605
1138.473, 477.4218
1140.402, 483.6774
1142.330, 486.6841
1144.259, 477.6656
1146.187, 471.6090
1148.116, 481.7318
1150.044, 489.6262
1151.973, 483.3543
1153.901, 475.3145
1155.829, 473.4310
1157.758, 473.1761
1159.686, 466.4966
1161.615, 464.9614
1163.543, 476.7650
1165.472, 487.4062
1167.400, 494.0346
1169.329, 493.9586
1171.257, 485.2663
1173.186, 480.7446
1175.114, 481.4708
1177.043, 476.6371
1178.971, 470.4138
1180.900, 476.7853
1182.828, 487.5771
1184.756, 484.8286
1186.685, 475.5332
1188.613, 472.2402
1190.542, 474.6386
1192.470, 487.2134
1194.399, 502.2856
1196.327, 505.8605
1198.256, 500.9527
1200.184, 491.4944
1202.113, 482.9211
1204.041, 478.0990
1205.970, 479.5288
1207.898, 488.0063
1209.827, 489.5459
1211.755, 482.6895
1213.683, 482.5846
1215.612, 485.2867
1217.540, 483.5566
1219.469, 484.4498
1221.397, 487.3375
1223.326, 488.6695
1225.254, 485.3337
1227.183, 477.7759
1229.111, 484.8021
1231.040, 501.4609
1232.968, 501.5712
1234.897, 491.6422
1236.825, 489.7991
1238.754, 492.2009
1240.682, 488.0060
1242.610, 485.5128
1244.539, 496.0044
1246.467, 503.6965
1248.396, 498.7291
1250.324, 492.2302
1252.253, 486.9282
1254.181, 483.6673
1256.110, 484.0143
1258.038, 489.6051
1259.967, 496.9460
1261.895, 502.4042
1263.824, 510.6402
1265.752, 509.0303
1267.681, 497.5084
1269.609, 498.2086
1271.537, 507.1722
1273.466, 502.3029
1275.394, 494.6500
1277.323, 509.2959
1279.251, 523.9291
1281.180, 514.4329
1283.108, 504.7500
1285.037, 513.9853
1286.965, 519.2581
1288.894, 502.6887
1290.822, 493.7415
1292.751, 506.5721
1294.679, 512.4793
1296.608, 504.9878
1298.536, 500.6870
1300.464, 500.2208
1302.393, 499.0402
1304.321, 497.5796
1306.250, 493.4991
1308.178, 490.8491
1310.107, 500.6921
1312.035, 509.2979
1313.964, 500.3477
1315.892, 492.3989
1317.821, 494.8389
1319.749, 499.0703
1321.678, 506.3520
1323.606, 506.9586
1325.535, 496.3505
1327.463, 487.6512
1329.391, 483.0675
1331.320, 490.7573
1333.248, 507.7604
1335.177, 513.7763
1337.105, 512.4668
1339.034, 509.8361
1340.962, 506.6152
1342.891, 500.0414
1344.819, 500.5779
1346.748, 531.3152
1348.676, 542.5766
1350.605, 500.2436
1352.533, 482.2495
1354.462, 507.6988
1356.390, 521.7986
1358.318, 518.7193
1360.247, 501.4418
1362.175, 476.4954
1364.104, 470.8196
1366.032, 477.3974
1367.961, 486.1153
1369.889, 494.0464
1371.818, 498.8219
1373.746, 500.9957
1375.675, 498.1206
1377.603, 497.5006
1379.532, 504.4305
1381.460, 505.5161
1383.389, 498.8286
1385.317, 490.0544
1387.245, 481.0496
1389.174, 486.8976
1391.102, 499.6112
1393.031, 497.3035
1394.959, 491.2682
1396.888, 494.5027
1398.816, 499.5858
1400.745, 501.4988
1402.673, 504.2357
1404.602, 511.4851
1406.530, 514.3740
1408.459, 511.4543
1410.387, 508.4233
1412.316, 505.1608
1414.244, 496.4821
1416.172, 487.3261
1418.101, 492.2307
1420.029, 500.5590
1421.958, 503.4843
1423.886, 502.9753
1425.815, 497.6996
1427.743, 494.7876
1429.672, 497.9625
1431.600, 497.9956
1433.529, 494.0627
1435.457, 488.9047
1437.386, 484.4662
1439.314, 493.1542
1441.243, 506.0058
1443.171, 512.7700
1445.099, 510.7438
1447.028, 491.7557
1448.956, 479.7122
1450.885, 485.8955
1452.813, 488.3806
1454.742, 482.6531
1456.670, 482.5398
1458.599, 486.8315
1460.527, 483.1982
1462.456, 478.4578
1464.384, 488.9030
1466.313, 499.8828
1468.241, 499.9186
1470.170, 497.0326
1472.098, 492.6582
1474.026, 491.7931
1475.955, 495.5206
1477.883, 497.4965
1479.812, 498.0423
1481.740, 503.3811
1483.669, 507.6609
1485.597, 498.3297
1487.526, 486.1155
1489.454, 475.7585
1491.383, 472.6593
1493.311, 480.5394
1495.240, 482.0709
1497.168, 475.4216
1499.097, 481.1411
1501.025, 495.0708
1502.953, 499.1328
1504.882, 499.4393
1506.810, 508.4935
1508.739, 510.2853
1510.667, 486.0435
1512.596, 472.6669
1514.524, 477.6831
1516.453, 481.0358
1518.381, 481.3156
1520.310, 481.8684
1522.238, 482.0723
1524.167, 479.2966
1526.095, 477.1486
1528.024, 481.1155
1529.952, 482.1682
1531.880, 475.5143
1533.809, 471.0312
1535.737, 469.5264
1537.666, 472.6479
1539.594, 478.4783
1541.523, 483.5993
1543.451, 485.2675
1545.380, 477.4689
1547.308, 470.5826
1549.237, 469.8755
1551.165, 470.1996
1553.094, 470.7395
1555.022, 476.3942
1556.951, 484.8726
1558.879, 487.3949
1560.807, 485.1871
1562.736, 475.1487
1564.664, 469.2752
1566.593, 477.4887
1568.521, 483.2556
1570.450, 484.2983
1572.378, 481.8029
1574.307, 476.7965
1576.235, 472.7451
1578.164, 472.0306
1580.092, 481.0258
1582.021, 486.3041
1583.949, 479.5983
1585.878, 473.0728
1587.806, 469.2465
1589.734, 460.1123
1591.663, 448.7805
1593.591, 446.3718
1595.520, 451.6075
1597.448, 468.6200
1599.377, 479.4236
1601.305, 475.2753
1603.234, 470.7877
1605.162, 468.1015
1607.091, 458.1908
1609.019, 448.8351
1610.948, 469.7173
1612.876, 488.4315
1614.805, 476.1436
1616.733, 465.3400
1618.661, 465.1367
1620.590, 469.6370
1622.518, 476.8465
1624.447, 473.3083
1626.375, 465.7162
1628.304, 465.6596
1630.232, 465.3611
1632.161, 458.9704
1634.089, 460.9940
1636.018, 474.1071
1637.946, 474.1357
1639.875, 465.3140
1641.803, 460.9078
1643.732, 461.8167
1645.660, 475.0826
1647.589, 480.8204
1649.517, 472.3094
1651.445, 471.1015
1653.374, 476.7453
1655.302, 472.6566
1657.231, 462.6594
1659.159, 446.8296
1661.088, 438.2594
1663.016, 447.6440
1664.945, 451.7733
1666.873, 448.7558
1668.802, 454.4039
1670.730, 463.3840
1672.659, 461.3697
1674.587, 459.0079
1676.516, 468.0638
1678.444, 470.2851
1680.372, 462.7300
1682.301, 445.5318
1684.229, 426.8041
1686.158, 434.7108
1688.086, 448.0371
1690.015, 448.7176
1691.943, 446.1950
1693.872, 441.6765
1695.800, 440.3380
1697.729, 442.2661
1699.657, 450.5339
1701.586, 456.9913
1703.514, 448.2245
1705.443, 444.8821
1707.371, 463.3795
1709.299, 461.8385
1711.228, 443.4755
1713.156, 438.1311
1715.085, 439.0037
1717.013, 438.8879
1718.942, 441.0965
1720.870, 450.5944
1722.799, 447.6337
1724.727, 434.0162
1726.656, 430.7682
1728.584, 431.3467
1730.513, 427.4900
1732.441, 427.0030
1734.370, 434.8315
1736.298, 434.4338
1738.226, 427.4988
1740.155, 434.8259
1742.083, 441.2797
1744.012, 426.1943
1745.940, 417.1154
1747.869, 423.9944
1749.797, 428.1480
1751.726, 428.5803
1753.654, 424.3864
1755.583, 420.7017
1757.511, 421.9195
1759.440, 427.2657
1761.368, 437.3912
1763.297, 435.0513
1765.225, 425.0667
1767.153, 424.3507
1769.082, 424.0471
1771.010, 415.0098
1772.939, 415.0103
1774.867, 426.8157
1776.796, 428.6144
1778.724, 426.4940
1780.653, 437.7411
1782.581, 445.1919
1784.510, 439.3125
1786.438, 432.4968
1788.367, 425.7294
1790.295, 411.0420
1792.224, 397.6426
1794.152, 397.0590
1796.080, 406.6905
1798.009, 428.4135
1799.937, 430.9077
1801.866, 418.4979
1803.794, 413.4865
1805.723, 413.3309
1807.651, 419.9483
1809.580, 421.0797
1811.508, 414.8593
1813.437, 398.5338
1815.365, 384.6861
1817.294, 403.2885
1819.222, 419.3391
1821.151, 406.7676
1823.079, 407.7859
1825.007, 419.9634
1826.936, 406.8530
1828.864, 390.7020
1830.793, 398.3166
1832.721, 402.9790
1834.650, 396.8298
1836.578, 389.9540
1838.507, 386.9999
1840.435, 403.0640
1842.364, 413.7539
1844.292, 401.8424
1846.221, 394.4083
1848.149, 392.3601
1850.078, 388.3562
1852.006, 384.4845
1853.934, 381.7873
1855.863, 379.7427
1857.791, 378.9758
1859.720, 384.1084
1861.648, 390.2009
1863.577, 389.3840
1865.505, 385.0267
1867.434, 376.8112
1869.362, 383.6893
1871.291, 397.2922
1873.219, 380.2439
1875.148, 363.5988
1877.076, 367.1045
1879.005, 370.8378
1880.933, 371.1615
1882.861, 364.1502
1884.790, 361.8295
1886.718, 383.9133
1888.647, 394.3293
1890.575, 384.6713
1892.504, 378.6888
1894.432, 376.8136
1896.361, 379.8454
1898.289, 375.6819
1900.218, 360.5292
1902.146, 361.6849
1904.075, 373.2061
1906.003, 373.9425
1907.932, 370.1281
1909.860, 366.6057
1911.788, 359.9205
1913.717, 352.0805
1915.645, 353.6328
1917.574, 356.3188
1919.502, 353.3969
1921.431, 350.9402
1923.359, 349.9588
1925.288, 350.5363
1927.216, 350.1018
1929.145, 343.0087
1931.073, 346.5424
1933.002, 362.9060
1934.930, 357.5534
1936.859, 344.2266
1938.787, 343.5397
1940.715, 349.5014
1942.644, 360.6053
1944.572, 368.7310
1946.501, 370.1301
1948.429, 351.3070
1950.358, 337.2106
1952.286, 338.6754
1954.215, 343.2314
1956.143, 347.7201
1958.072, 346.1516
1960.000, 345.3919
1961.929, 350.3325
1963.857, 337.0957
1965.786, 320.5082
1967.714, 336.7575
1969.642, 347.9355
1971.571, 333.5893
1973.499, 327.9584
1975.428, 329.3290
1977.356, 328.1223
1979.285, 329.6961
1981.213, 324.7093
1983.142, 339.3376
1985.070, 347.0345
1986.999, 348.1709
1988.927, 323.1016
1990.856, 331.8719
1992.784, 327.0811
1994.713, 321.7337
1996.641, 335.2675
1998.569, 314.0098
2000.498, 327.2435
2002.426, 326.7093
2004.355, 332.4760
2006.283, 324.5979
2008.212, 320.9337
2010.140, 330.9201
2012.069, 333.3478
2013.997, 323.8989
2015.926, 330.0661
2017.854, 310.4165
2019.783, 308.4037
2021.711, 310.3958
2023.640, 313.7671
2025.568, 313.6605
2027.496, 317.0623
2029.425, 326.1210
2031.353, 317.0595
2033.282, 302.7614
2035.210, 306.2057
2037.139, 300.8554
2039.067, 284.2929
2040.996, 290.8523
2042.924, 303.1826
2044.853, 304.7614
2046.781, 305.5001
2048.709, 305.1906
2050.638, 297.2462
2052.566, 291.2750
2054.495, 298.6408
2056.423, 302.7417
2058.352, 301.5450
2060.280, 300.1476
2062.209, 300.9244
2064.137, 305.0573
2066.066, 298.8185
2067.994, 287.6148
2069.923, 281.4850
2071.851, 280.3809
2073.780, 287.8948
2075.708, 290.1798
2077.636, 287.5807
2079.565, 278.1167
2081.493, 275.1794
2083.422, 282.7247
2085.350, 283.6231
2087.279, 282.6076
2089.207, 286.4809
2091.136, 282.3871
2093.064, 271.4837
2094.993, 276.2814
2096.921, 280.5043
2098.850, 274.7706
2100.778, 262.6434
2102.707, 250.5555
2104.635, 257.2531
2106.563, 266.7693
2108.492, 273.8647
2110.420, 273.5973
2112.349, 271.4279
2114.277, 278.0979
2116.206, 273.2268
2118.134, 254.5108
2120.063, 252.2985
2121.991, 256.0269
2123.920, 258.7026
2125.848, 260.0881
2127.777, 259.6274
2129.705, 254.6549
2131.634, 253.3804
2133.562, 258.4533
2135.490, 257.6013
2137.419, 253.2594
2139.347, 247.8687
2141.276, 250.2049
2143.204, 258.5201
2145.133, 252.9189
2147.061, 246.7697
2148.990, 252.8228
2150.918, 254.0779
2152.847, 251.0541
2154.775, 253.5379
2156.704, 250.2955
2158.632, 242.2081
2160.561, 247.2278
2162.489, 251.3021
2164.417, 241.6943
2166.346, 238.6344
2168.274, 238.8840
2170.203, 235.9538
2172.131, 234.2959
2174.060, 234.9305
2175.988, 229.2838
2177.917, 225.3530
2179.845, 231.4470
2181.774, 237.9850
2183.702, 240.3304
2185.631, 235.4634
2187.559, 230.5586
2189.488, 222.2648
2191.416, 225.5844
2193.344, 232.5232
2195.273, 234.2173
2197.201, 233.1067
2199.130, 228.9488
2201.058, 224.3886
2202.987, 221.8499
2204.915, 226.2835
2206.844, 219.9581
2208.772, 209.8147
2210.701, 217.7568
2212.629, 227.8936
2214.558, 232.8466
2216.486, 228.5837
2218.415, 219.6144
2220.343, 209.2797
2222.271, 215.2250
2224.200, 223.1705
2226.128, 219.0842
2228.057, 216.7731
2229.985, 216.9752
2231.914, 217.8118
2233.842, 213.2246
2235.771, 206.2460
2237.699, 213.4702
2239.628, 223.6515
2241.556, 231.2393
2243.485, 226.9474
2245.413, 216.9866
2247.342, 212.2993
2249.270, 207.7451
2251.198, 206.3461
2253.127, 214.4434
2255.055, 220.9034
2256.984, 220.3870
2258.912, 210.4685
2260.841, 199.3643
2262.769, 198.4295
2264.698, 201.3697
2266.626, 209.3793
2268.555, 232.6657
2270.483, 234.7713
2272.412, 215.8559
2274.340, 213.6206
2276.269, 209.8127
2278.197, 195.7908
2280.125, 192.5232
2282.054, 195.8306
2283.982, 196.6251
2285.911, 197.5455
2287.839, 196.2348
2289.768, 188.5737
2291.696, 186.9121
2293.625, 195.5867
2295.553, 194.2773
2297.482, 191.9436
2299.410, 200.4021
2301.339, 205.6108
2303.267, 203.4412
2305.196, 198.9879
2307.124, 191.3593
2309.052, 180.7187
2310.981, 180.8700
2312.909, 185.9350
2314.838, 188.7846
2316.766, 192.1257
2318.695, 195.8607
2320.623, 196.1307
2322.552, 198.1369
2324.480, 198.3051
2326.409, 188.8577
2328.337, 184.9991
2330.266, 189.0242
2332.194, 182.0811
2334.123, 177.0028
2336.051, 176.3568
2337.979, 179.2266
2339.908, 180.3092
2341.836, 176.1649
2343.765, 177.7348
2345.693, 174.9607
2347.622, 167.5951
2349.550, 173.2273
2351.479, 177.5042
2353.407, 169.0688
2355.336, 166.0882
2357.264, 165.0674
2359.193, 166.8744
2361.121, 165.9179
2363.050, 166.4915
2364.978, 169.3049
2366.906, 175.8731
2368.835, 181.7475
2370.763, 170.4566
2372.692, 162.9974
2374.620, 160.5315
2376.549, 160.7360
2378.477, 166.1783
2380.406, 162.1650
2382.334, 160.5308
2384.263, 166.3584
2386.191, 163.2590
2388.120, 162.4549
2390.048, 166.9831
2391.977, 163.7966
2393.905, 156.6338
2395.833, 152.7857
2397.762, 160.7039
2399.690, 163.9575
2401.619, 157.7707
2403.547, 151.3232
2405.476, 150.1895
2407.404, 162.0241
2409.333, 161.2176
2411.261, 154.3750
2413.190, 151.3305
2415.118, 149.8068
2417.047, 149.6020
2418.975, 152.0469
2420.904, 149.0088
2422.832, 146.0657
2424.760, 154.5712
2426.689, 147.3762
2428.617, 136.5840
2430.546, 148.2374
2432.474, 143.1592
2434.403, 136.4405
2436.331, 142.0661
2438.260, 145.2393
2440.188, 143.0321
2442.117, 141.6506
2444.045, 138.3112
2445.974, 134.4012
2447.902, 130.4516
2449.831, 128.2752
2451.759, 132.8384
2453.688, 127.2507
2455.616, 126.0223
2457.544, 134.5158
2459.473, 140.1577
2461.401, 143.0062
2463.330, 139.2917
2465.258, 132.5112
2467.187, 132.5666
2469.115, 131.2091
2471.044, 129.2319
2472.972, 128.3958
2474.901, 126.0337
2476.829, 119.9434
2478.758, 121.1862
2480.686, 135.0747
2482.615, 133.4622
2484.543, 128.6364
2486.471, 126.0642
2488.400, 127.2774
2490.328, 131.2115
2492.257, 124.6689
2494.185, 122.0689
2496.114, 125.3049
2498.042, 126.8526
2499.971, 128.0750
2501.899, 125.9608
2503.828, 118.8153
2505.756, 117.0793
2507.685, 118.4224
2509.613, 125.4021
2511.542, 123.7236
2513.470, 116.3408
2515.398, 105.7877
2517.327, 113.8227
2519.255, 121.2020
2521.184, 106.0760
2523.112, 111.2913
2525.041, 126.0807
2526.969, 125.8322
2528.898, 119.4551
2530.826, 114.2283
2532.755, 114.3445
2534.683, 111.4883
2536.612, 107.4869
2538.540, 111.3075
2540.469, 117.8683
2542.397, 118.5771
2544.325, 104.7086
2546.254, 105.4794
2548.182, 114.6743
2550.111, 104.5194
2552.039, 106.1844
2553.968, 114.6288
2555.896, 110.7578
2557.825, 110.9308
2559.753, 113.9662
2561.682, 108.5569
2563.610, 107.0246
2565.539, 105.5676
2567.467, 95.47945
2569.396, 95.10266
2571.324, 97.58560
2573.252, 95.26467
2575.181, 95.78131
2577.109, 98.73082
2579.038, 101.8856
2580.966, 97.36060
2582.895, 93.32166
2584.823, 95.58303
2586.752, 99.32204
2588.680, 101.4721
2590.609, 99.80273
2592.537, 99.65898
2594.466, 95.93775
2596.394, 85.77816
2598.323, 87.79528
2600.251, 91.38116
2602.179, 90.47001
2604.108, 92.02602
2606.036, 93.70225
2607.965, 94.31712
2609.893, 93.80102
2611.822, 94.79184
2613.750, 97.19522
2615.679, 91.38663
2617.607, 92.37516
2619.536, 100.3982
2621.464, 93.67434
2623.393, 90.91738
2625.321, 95.40797
2627.250, 95.97770
2629.178, 92.04354
2631.106, 86.25855
2633.035, 88.46829
2634.963, 94.71188
2636.892, 98.76073
2638.820, 92.85545
2640.749, 82.05976
2642.677, 74.20088
2644.606, 82.73872
2646.534, 80.00346
2648.463, 76.93203
2650.391, 88.16611
2652.320, 86.91207
2654.248, 82.92659
2656.177, 83.87365
2658.105, 79.23483
2660.033, 76.96246
2661.962, 77.79203
2663.890, 75.84627
2665.819, 75.27473
2667.747, 74.32005
2669.676, 73.56960
2671.604, 73.85219
2673.533, 74.34743
2675.461, 75.86670
2677.390, 75.70667
2679.318, 77.35538
2681.247, 80.90917
2683.175, 80.12646
2685.104, 77.08217
2687.032, 74.45029
2688.960, 79.27877
2690.889, 81.96329
2692.817, 73.90087
2694.746, 84.29446
2696.674, 86.76319
2698.603, 75.61772
2700.531, 75.96206
2702.460, 76.76977
2704.388, 73.33582
2706.317, 68.36977
2708.245, 68.32976
2710.174, 69.13463
2712.102, 63.74917
2714.031, 61.96820
2715.959, 64.60735
2717.887, 61.28542
2719.816, 62.32095
2721.744, 64.64822
2723.673, 64.62140
2725.601, 70.18320
2727.530, 65.49035
2729.458, 59.72944
2731.387, 61.58057
2733.315, 63.82421
2735.244, 64.32912
2737.172, 74.89600
2739.101, 74.68868
2741.029, 69.00770
2742.958, 65.06329
2744.886, 63.27117
2746.814, 64.59419
2748.743, 54.35740
2750.671, 65.41039
2752.600, 68.81488
2754.528, 55.64736
2756.457, 58.63620
2758.385, 58.28698
2760.314, 55.58903
2762.242, 57.16452
2764.171, 60.35593
2766.099, 58.64786
2768.028, 60.53889
2769.956, 57.25512
2771.885, 54.66873
2773.813, 57.71213
2775.741, 61.19494
2777.670, 62.72422
2779.598, 65.51472
2781.527, 56.81678
2783.455, 51.52828
2785.384, 56.79482
2787.312, 58.04173
2789.241, 63.82800
2791.169, 67.67173
2793.098, 64.97747
2795.026, 57.08814
2796.955, 53.77969
2798.883, 55.80269
2800.812, 51.36183
2802.740, 49.76474
2804.668, 50.66376
2806.597, 51.59647
2808.525, 54.81022
2810.454, 53.54975
2812.382, 45.38404
2814.311, 46.27827
2816.239, 56.70541
2818.168, 58.36967
2820.096, 48.30236
2822.025, 45.67142
2823.953, 43.04785
2825.882, 41.95884
2827.810, 46.76363
2829.739, 42.98592
2831.667, 34.67531
2833.595, 48.80747
2835.524, 51.57424
2837.452, 50.34097
2839.381, 46.26316
2841.309, 47.25615
2843.238, 52.72379
2845.166, 55.64495
2847.095, 45.78929
2849.023, 42.80714
2850.952, 49.39383
2852.880, 49.05435
2854.809, 49.65712
2856.737, 53.69081
2858.666, 50.73020
2860.594, 49.07962
2862.522, 48.85592
2864.451, 47.14485
2866.379, 51.54174
2868.308, 49.18178
2870.236, 41.16421
2872.165, 47.05106
2874.093, 46.94941
2876.022, 42.61735
2877.950, 40.38365
2879.879, 38.34090
2881.807, 38.70336
2883.736, 43.58774
2885.664, 40.70745
2887.593, 42.05519
2889.521, 48.28199
2891.449, 50.51914
2893.378, 46.20428
2895.306, 34.55281
2897.235, 32.79134
2899.163, 33.63104
2901.092, 34.16932
2903.020, 39.18956
2904.949, 43.96904
2906.877, 37.97746
2908.806, 34.72777
2910.734, 46.21046
2912.663, 55.87469
2914.591, 52.45491
2916.520, 44.41236
2918.448, 32.41294
2920.376, 32.94444
2922.305, 39.14144
2924.233, 31.47198
2926.162, 36.20546
2928.090, 39.30439
2930.019, 34.81644
2931.947, 36.82388
2933.876, 26.57710
2935.804, 23.27475
2937.733, 32.81350
2939.661, 26.50088
2941.590, 27.02839
2943.518, 27.71932
2945.447, 32.39686
2947.375, 34.54295
2949.303, 32.83461
2951.232, 31.61168
2953.160, 30.83037
2955.089, 35.59652
2957.017, 36.00557
2958.946, 30.30008
2960.874, 29.58130
2962.803, 27.72703
2964.731, 30.50321
2966.660, 42.43423
2968.588, 36.86691
2970.517, 36.08301
2972.445, 43.71590
2974.374, 36.73742
2976.302, 36.21356
2978.230, 35.02018
2980.159, 37.73966
2982.087, 28.97398
2984.016, 22.64099
2985.944, 31.20398
2987.873, 43.77425
2989.801, 38.66412
2991.730, 30.18668
2993.658, 29.59418
2995.587, 34.18106
2997.515, 30.72350
2999.444, 26.63171
3001.372, 25.55656
3003.301, 27.69406
3005.229, 29.98223
3007.157, 31.00865
3009.086, 28.26019
3011.014, 28.87990
3012.943, 24.27608
3014.871, 16.45650
3016.800, 26.67522
3018.728, 33.07895
3020.657, 35.35273
3022.585, 31.52134
3024.514, 19.73053
3026.442, 24.81637
3028.371, 33.51928
3030.299, 25.56351
3032.228, 30.52222
3034.156, 21.38585
3036.084, 12.85095
3038.013, 29.47659
3039.941, 15.48510
3041.870, 15.00615
3043.798, 27.65903
3045.727, 27.30613
3047.655, 30.22379
3049.584, 27.26319
3051.512, 22.20085
3053.441, 17.68048
3055.369, 22.19302
3057.298, 28.27889
3059.226, 29.51260
3061.155, 31.24837
3063.083, 33.23800
3065.011, 31.93695
3066.940, 25.69418
3068.868, 32.09720
3070.797, 32.69977
3072.725, 30.05692
3074.654, 30.67570
3076.582, 35.84086
3078.511, 20.94534
3080.439, 7.404360
3082.368, 24.35188
3084.296, 29.13415
3086.225, 23.09610
3088.153, 14.70685
3090.082, 16.17241
3092.010, 24.62773
3093.938, 26.80712
3095.867, 23.60472
3097.795, 22.38344
3099.724, 29.27826
3101.652, 34.09961
3103.581, 30.52868
3105.509, 16.05334
3107.438, 21.64833
3109.366, 28.80602
3111.295, 29.60580
3113.223, 25.68461
3115.152, 21.38298
3117.080, 20.63048
3119.009, 24.15307
3120.937, 30.74740
3122.865, 20.92352
3124.794, 14.44194
3126.722, 17.32028
3128.651, 24.70783
3130.579, 24.71644
3132.508, 22.57779
3134.436, 22.48213
3136.365, 30.81639
3138.293, 24.28585
3140.222, 19.80072
3142.150, 20.53598
3144.079, 11.22607
3146.007, 18.97402
3147.936, 31.30799
3149.864, 35.51818
3151.792, 19.33053
3153.721, 14.14679
3155.649, 22.08066
3157.578, 32.42134
3159.506, 22.50857
3161.435, 28.07832
3163.363, 27.06166
3165.292, 20.71763
3167.220, 34.00838
3169.149, 27.37543
3171.077, 20.37058
3173.006, 20.22166
3174.934, 26.30198
3176.863, 13.27527
3178.791, 19.82806
3180.719, 25.18539
3182.648, 7.775039
3184.576, 17.22356
3186.505, 20.96137
3188.433, 21.15953
3190.362, 20.08926
3192.290, 16.38618
3194.219, 13.76889
3196.147, 15.85300
3198.076, 22.82671
3200.004, 11.50659
3201.933, 3.430635
3203.861, 11.24650
3205.790, 23.39243
3207.718, 12.71757
3209.646, 17.40690
3211.575, 14.17021
3213.503, 8.750523
3215.432, 17.40882
3217.360, 29.83228
3219.289, 29.75897
3221.217, 18.80314
3223.146, 5.037330
3225.074, 10.12933
3227.003, 13.37499
3228.931, 9.606551
3230.860, 4.306407
3232.788, 15.67928
3234.717, 25.88251
3236.645, 25.81428
3238.573, 16.33930
3240.502, 10.64498
3242.430, 16.40233
3244.359, 14.73662
3246.287, 11.40522
3248.216, 24.78296
3250.144, 28.83351
3252.073, 24.06675
3254.001, 18.12708
3255.930, 17.92496
3257.858, 23.86898
3259.787, 23.45666
3261.715, 15.64989
3263.644, 10.49723
3265.572, 14.70174
3267.500, 9.091978
3269.429, 6.415346
3271.357, 10.69792
3273.286, 23.20424
3275.214, 13.35609
3277.143, 9.132606
3279.071, 13.85679
3281.000, 20.03353
3282.928, 8.857842
3284.857, 3.928342
3286.785, 11.60907
3288.714, 17.46217
3290.642, 13.50317
3292.571, 14.31811
3294.499, 13.69695
3296.427, 13.84175
3298.356, 12.78572
3300.284, 8.482070
3302.213, 15.37254
3304.141, 9.235752
3306.070, 0.6251534
3307.998, 8.884037
3309.927, 14.26859
3311.855, 9.779769
3313.784, 6.577511
3315.712, 8.549097
3317.641, 1.776526
3319.569, 11.54174
3321.498, 9.686375
3323.426, 5.721004
3325.354, 11.82528
3327.283, 10.65726
3329.211, 7.861520
3331.140, 5.226918
3333.068, 6.539253
3334.997, 17.39259
3336.925, 12.70857
3338.854, 13.99712
3340.782, 16.38162
3342.711, 13.96903
3344.639, 15.13728
3346.568, 13.13338
3348.496, 12.85218
3350.425, 6.286234
3352.353, -5.401795
3354.281, 4.190719
3356.210, 0.4135623
3358.138, -1.323068
3360.067, 4.033313
3361.995, 11.21271
3363.924, 14.24078
3365.852, 3.979619
3367.781, -0.7845379
3369.709, 5.412855
3371.638, 6.386816
3373.566, 3.721367
3375.495, 5.372367
3377.423, 6.417484
3379.352, 1.135896
3381.280, 1.604714
3383.208, -6.901873
3385.137, -6.241765
3387.065, -1.293673
3388.994, -3.464971
3390.922, 3.506934
3392.851, 2.743063
3394.779, 4.795820
3396.708, 8.759959
3398.636, 5.433788
3400.565, 12.85741
3402.493, 8.321107
3404.422, 2.960233
3406.350, 2.015563
3408.279, 1.882412
3410.207, 5.508921
3412.135, -1.514878
3414.064, 2.318440
3415.992, 15.08995
3417.921, 11.25418
3419.849, 12.77248
3421.778, 17.25765
3423.706, 20.78251
3425.635, 16.40648
3427.563, -0.8244862
3429.492, 16.02451
3431.420, 10.89619
3433.349, -5.148817
3435.277, -11.40107
3437.206, 4.855492
3439.134, 27.13692
3441.063, 21.28856
3442.991, 7.933967
3444.919, 2.035609
3446.848, 4.331246
3448.776, 14.14785
3450.705, 14.46589
3452.633, 8.627326
3454.562, 0.7884511
3456.490, -5.716002
3458.419, 6.017040
3460.347, 17.79636
3462.276, 16.69580
3464.204, 5.568804
3466.133, -4.936659
3468.061, 1.733317
3469.990, 2.312849
3471.918, 7.862027
3473.846, 15.78635
3475.775, 17.00587
3477.703, -1.379562
3479.632, 4.100697
3481.560, 11.25952
3483.489, 15.98979
3485.417, 18.18259
3487.346, 9.963095
3489.274, 14.32205
3491.203, 7.797272
3493.131, 6.157259
3495.060, 14.87537
3496.988, 22.40848
3498.917, 34.40314
3500.845, 21.91141
3502.773, 20.26698
3504.702, 23.06993
3506.630, 11.92031
3508.559, 28.39762
3510.487, 24.65477
3512.416, 24.28256
3514.344, 29.22445
3516.273, 30.34802
3518.201, 20.61909
3520.130, 32.69562
3522.058, 27.13911
3523.987, 24.83809
3525.915, 28.91613
3527.844, 27.50754
3529.772, 35.35559
3531.700, 22.78499
3533.629, 26.18599
3535.557, 30.09218
3537.486, 25.46595
3539.414, 40.69548
3541.343, 18.08906
3543.271, 25.47499
3545.200, 31.80149
3547.128, 23.68394
3549.057, 14.79760
3550.985, 31.69061
3552.914, 23.07834
3554.842, 20.02028
3556.771, 24.26758
3558.699, 25.36997
3560.627, 15.34276
3562.556, 24.18882
3564.484, 23.79461
3566.413, 14.42889
3568.341, 16.14016
3570.270, 31.09328
3572.198, 19.88713
3574.127, 22.62405
3576.055, 26.47532
3577.984, 20.94289
3579.912, 19.50183
3581.841, 33.08269
3583.769, 34.03424
3585.698, 13.41824
3587.626, 21.76986
3589.554, 26.00617
3591.483, 19.07586
3593.411, 20.63476
3595.340, 19.75385
3597.268, 14.91202
3599.197, 5.383346
3601.125, -0.3115110
3603.054, 3.9726871E-04
3604.982, 3.211034
3606.911, 13.42171
3608.839, 11.83411
3610.768, 14.70430
3612.696, 16.70509
3614.625, 11.54067
3616.553, 2.257054
3618.481, 6.244801
3620.410, 9.724616
3622.338, 14.67194
3624.267, 10.02309
3626.195, 7.072033
3628.124, 19.02156
3630.052, -3.314874
3631.981, 5.711818
3633.909, 15.83375
3635.838, 12.91992
3637.766, 5.902042
3639.695, 5.767323
3641.623, 2.557503
3643.552, -0.5329511
3645.480, 6.242165
3647.408, 5.619810
3649.337, 7.694814
3651.265, 18.27663
3653.194, 5.201070
3655.122, 6.359469
3657.051, 11.18271
3658.979, 5.116610
3660.908, 6.950173
3662.836, 18.28706
3664.765, 13.75524
3666.693, 17.17917
3668.622, 12.10501
3670.550, 7.648858
3672.479, 9.996296
3674.407, 16.44798
3676.335, 18.66332
3678.264, 9.090096
3680.192, 9.362470
3682.121, -2.615865
3684.049, -5.041360
3685.978, 1.317503
3687.906, 8.546364
3689.835, 16.80569
3691.763, 14.79323
3693.692, 8.948716
3695.620, 1.252986
3697.549, -1.014536
3699.477, -0.8588455
3701.406, -1.657805
3703.334, 5.439549
3705.262, -0.3205763
3707.191, -2.379397
3709.119, 9.1484683E-03
3711.048, 1.399872
3712.976, 2.425540
3714.905, 7.383568
3716.833, 15.87986
3718.762, 0.3235174
3720.690, -2.364157
3722.619, 4.512701
3724.547, 5.240252
3726.476, 0.2704651
3728.404, 1.680569
3730.333, -0.6969128
3732.261, 9.989646
3734.189, 1.862590
3736.118, 10.26582
3738.046, 20.59801
3739.975, 19.77773
3741.903, 21.37679
3743.832, 18.86015
3745.760, 8.815153
3747.689, 2.782857
3749.617, 11.71690
3751.546, 20.25583
3753.474, 14.55388
3755.403, 0.8959041
3757.331, 5.294812
3759.260, 3.064953
3761.188, 0.6662759
3763.116, 17.28547
3765.045, 26.35658
3766.973, 28.28579
3768.902, 1.680753
3770.830, 11.92167
3772.759, 7.396245
3774.687, 2.265647
3776.616, 17.69211
3778.544, -4.762354
3780.473, 10.33810
3782.401, 10.44750
3784.330, 17.41769
3786.258, 9.531039
3788.187, 6.233002
3790.115, 17.79727
3792.043, 21.13233
3793.972, 11.53506
3795.900, 18.94177
3797.829, -4.032080
3799.757, -0.3465143
3801.686, 14.84090
3803.614, 5.990967
3805.543, 13.66901
3807.471, 15.05247
3809.400, -12.17199
3811.328, 10.35537
3813.257, 11.36644
3815.185, -9.714223
3817.114, -7.271906
3819.042, 8.855115
3820.970, -12.89910
3822.899, 2.901958
3824.827, 3.711609
3826.756, 11.38249
3828.684, 4.196087
3830.613, 1.598654
3832.541, 13.86317
3834.470, 17.89852
3836.398, 9.001817
3838.327, 17.10882
3840.255, -5.164386
3842.184, -0.7785184
3844.112, 15.10946
3846.041, 6.959823
3847.969, 8.859953
3849.897, -9.181049
3851.826, 4.685049
3853.754, 6.191490
3855.683, -5.733332
3857.611, -12.19367
3859.540, -9.641798
3861.468, 1.011670
3863.397, 16.21831
3865.325, 15.25828
3867.254, 12.46858
3869.182, 4.878749
3871.111, -2.817732
3873.039, -1.889164
3874.968, 7.764533
3876.896, 15.30340
3878.824, 8.834294
3880.753, 5.158475
3882.681, 0.6173595
3884.610, -11.02697
3886.538, -0.9607793
3888.467, 12.82256
3890.395, 14.37780
3892.324, 13.94153
3894.252, 19.66422
3896.181, 5.429734
3898.109, 3.302165
3900.038, 11.12457
3901.966, 7.461605
3903.895, -8.971010
3905.823, -3.575124
3907.751, -2.747406
3909.680, -11.91405
3911.608, 15.83004
3913.537, 20.46595
3915.465, 6.613977
3917.394, -0.1170649
3919.322, 8.109808
3921.251, 4.768358
3923.179, -2.968124
3925.108, -0.3003797
3927.036, 4.706780
3928.965, 3.144188
3930.893, 11.43670
3932.822, 6.395833
3934.750, 10.32136
3936.678, 2.132364
3938.607, 2.853142
3940.535, 3.429972
3942.464, 1.341175
3944.392, -6.759195
3946.321, -7.475910
3948.249, 6.152832
3950.178, -5.716159
3952.106, 1.666364
3954.035, -4.085472
3955.963, -11.52719
3957.892, -7.640893
3959.820, -1.658499
3961.749, 8.403426
3963.677, 0.2918811
3965.605, -14.66251
3967.534, -3.075774
3969.462, 11.66069
3971.391, 20.23518
3973.319, 13.69881
3975.248, -9.499098
3977.176, 5.543824
3979.105, -2.354953
3981.033, -0.1635063
3982.962, -3.782873
3984.890, -8.211790
3986.819, -2.899988
3988.747, -4.854589
3990.676, 22.99664
3992.604, 9.573522
3994.532, -19.55358
3996.461, 9.799310
3998.389, 18.75451
4000.318, 7.751133
4002.246, 1.071533
4004.175, 5.438030
4006.103, 12.29954
4008.032, 3.629169
4009.960, -10.70328
4011.889, 11.60332
4013.817, 0.7363970
4015.746, 3.426605
4017.674, 6.644942
4019.603, 0.5964746
4021.531, -6.996212
4023.459, 6.478806
4025.388, 3.101522
4027.316, 0.6886856
4029.245, 9.377959
4031.173, 5.316829
4033.102, -5.352836
4035.030, 3.450014
4036.959, -5.498843
4038.887, -2.578510
4040.816, -2.268282
4042.744, -1.428110
4044.673, 8.395436
4046.601, -6.625429
4048.530, -10.58852
4050.458, 2.329977
4052.386, 3.762927
4054.315, 2.190825
4056.243, 7.108366
4058.172, -7.915154
4060.100, -4.489628
4062.029, 8.943525
4063.957, 15.40189
4065.886, 23.86182
4067.814, 7.679630
4069.743, -0.7767645
4071.671, -3.616986
4073.600, 5.688745
4075.528, 6.838241
4077.457, 0.2832812
4079.385, 3.822175
4081.313, 8.158451
4083.242, 0.7647473
4085.170, 5.945288
4087.099, 0.3125163
4089.027, 1.696720
4090.956, 5.414367
4092.884, 11.28276
4094.813, -3.381366
4096.741, 1.109409
4098.669, 4.702501
4100.598, 2.067214
4102.526, -0.5643407
4104.455, -7.120860
4106.383, 5.678310
4108.312, 21.16757
4110.240, 11.43679
4112.169, 15.18750
4114.097, 14.25595
4116.026, 2.649734
4117.954, -1.215101
4119.883, 25.87202
4121.811, 4.930181
4123.740, 13.75836
4125.668, 17.39838
4127.597, 13.08683
4129.525, 19.85200
4131.454, 11.96187
4133.382, 10.74407
4135.311, 16.16601
4137.239, 3.002131
4139.167, -0.4542545
4141.096, 10.38133
4143.024, -6.161441
4144.953, -0.9599776
4146.881, 5.056073
4148.810, -11.49699
4150.738, -4.461607
4152.667, -12.21595
4154.595, -6.883348
4156.523, -15.09848
4158.452, 19.84155
4160.380, -10.62178
4162.309, -9.109411
4164.237, 10.31424
4166.166, 10.06489
4168.094, -1.380274
4170.023, 1.503010
4171.951, 6.947282
4173.880, 9.699619
4175.808, 14.40979
4177.737, 5.651920
4179.665, -6.085286
4181.594, -2.036060
4183.522, 2.137828
4185.451, 8.316245
4187.379, 10.69388
4189.308, 4.726927
4191.236, 8.565284
4193.165, 2.079569
4195.093, 12.27353
4197.021, 17.17030
4198.950, 16.10022
4200.878, -0.4480864
4202.807, 3.501870
4204.735, 10.70539
4206.664, 17.65406
4208.592, 6.997050
4210.521, -3.032198
4212.449, 8.218025
4214.377, 13.15147
4216.306, 8.461930
4218.234, 4.723957
4220.163, -7.571449
4222.091, -6.767892
4224.020, 1.497442
4225.948, 0.7166929
4227.877, 12.86662
4229.805, 6.580944
4231.734, 0.1446598
4233.662, 16.01643
4235.591, 24.57203
4237.519, 1.043313
4239.448, -7.328968
4241.376, 8.703246
4243.305, 3.880034
4245.233, 1.502638
4247.162, 8.319615
4249.090, -1.221622
4251.019, 12.67160
4252.947, -2.846204
4254.875, 3.362365
4256.804, 11.70243
4258.732, 18.24398
4260.661, 3.883123
4262.589, 2.571054
4264.518, 14.93769
4266.446, 12.80838
4268.375, 12.70186
4270.303, 16.94608
4272.231, 9.238163
4274.160, 1.786624
4276.088, 8.315933
4278.017, 15.78656
4279.945, 12.75023
4281.874, 12.64777
4283.802, -2.394396
4285.731, -4.765673
4287.659, -6.365005
4289.588, -1.949495
4291.516, 4.412675
4293.445, 8.994833
4295.373, 8.567980
4297.302, -8.015855
4299.230, -9.269582
4301.159, 1.988335
4303.087, -8.726961
4305.016, 4.755507
4306.944, 13.65007
4308.873, -2.569392
4310.801, -8.2342751E-02
4312.729, -5.674428
4314.658, -6.840547
4316.586, -6.060403
4318.515, 6.837080
4320.443, 4.015100
4322.372, 15.34636
4324.300, 14.98387
4326.229, 8.699626
4328.157, 3.323377
4330.085, 2.220838
4332.014, 1.193039
4333.942, 10.50415
4335.871, -2.795419
4337.799, 13.86776
4339.728, 11.14032
4341.656, 17.42262
4343.585, 15.45168
4345.513, 2.582520
4347.442, 7.167480
4349.370, 12.47548
4351.299, 4.155855
4353.227, -0.8148548
4355.156, 4.675466
4357.084, 4.265844
4359.013, 4.437048
4360.941, -19.05852
4362.870, -23.66828
4364.798, 6.748156
4366.727, 7.697985
4368.655, -0.2595852
4370.583, 1.000818
4372.512, 3.235736
4374.440, 7.550661
4376.369, -4.286798
4378.297, 1.886649
4380.226, 14.32154
4382.154, 4.836927
##END=



