##NAMES=Copper
##RRUFFID=R070329
##IDEAL CHEMISTRY=Cu
##LOCALITY=Bad Ems, Lahn Valley, Rhineland-Palatinate, Germany
##OWNER=RRUFF
##SOURCE=James Shigley
##DESCRIPTION=Reddish metallic wires
##STATUS=The identification of this mineral is not yet confirmed
##URL=https://www.rruff.net/odr/rruff_sample/R070329
##FILETYPE=Raman Processed
##RAMAN WAVELENGTH=532

224.0620, 4041.736
225.9904, 4056.920
227.9189, 4078.023
229.8474, 4091.531
231.7758, 4093.916
233.7043, 4091.315
235.6328, 4089.934
237.5612, 4091.029
239.4897, 4090.492
241.4182, 4086.782
243.3466, 4077.528
245.2751, 4072.635
247.2036, 4072.759
249.1320, 4078.011
251.0605, 4087.038
252.9890, 4104.161
254.9174, 4119.994
256.8459, 4132.098
258.7744, 4140.397
260.7029, 4149.608
262.6313, 4165.987
264.5598, 4180.504
266.4883, 4184.574
268.4167, 4164.252
270.3452, 4147.078
272.2737, 4136.111
274.2021, 4131.256
276.1306, 4130.881
278.0591, 4137.202
279.9875, 4146.199
281.9160, 4157.470
283.8445, 4173.667
285.7729, 4186.241
287.7014, 4191.044
289.6299, 4190.329
291.5583, 4190.940
293.4868, 4191.234
295.4153, 4194.120
297.3437, 4204.075
299.2722, 4222.224
301.2007, 4234.185
303.1291, 4228.551
305.0576, 4215.601
306.9861, 4215.510
308.9145, 4240.906
310.8430, 4264.963
312.7715, 4279.284
314.6999, 4284.969
316.6284, 4289.131
318.5569, 4294.166
320.4853, 4297.230
322.4138, 4293.409
324.3423, 4276.122
326.2707, 4266.719
328.1992, 4276.676
330.1277, 4304.843
332.0561, 4323.651
333.9846, 4328.074
335.9131, 4327.031
337.8415, 4325.997
339.7700, 4325.424
341.6985, 4326.666
343.6269, 4326.908
345.5554, 4327.864
347.4839, 4338.125
349.4123, 4371.773
351.3408, 4399.391
353.2693, 4407.561
355.1977, 4396.873
357.1262, 4388.675
359.0547, 4389.400
360.9831, 4391.531
362.9116, 4386.101
364.8401, 4368.469
366.7685, 4357.647
368.6970, 4360.931
370.6255, 4376.110
372.5539, 4390.611
374.4824, 4404.721
376.4109, 4417.188
378.3393, 4431.364
380.2678, 4449.197
382.1963, 4459.099
384.1247, 4449.072
386.0532, 4430.514
387.9817, 4423.854
389.9101, 4434.418
391.8386, 4453.249
393.7671, 4478.594
395.6955, 4502.648
397.6240, 4516.780
399.5525, 4511.632
401.4809, 4508.682
403.4094, 4517.765
405.3379, 4543.732
407.2663, 4561.211
409.1948, 4554.567
411.1233, 4533.773
413.0517, 4524.026
414.9802, 4540.365
416.9087, 4556.287
418.8371, 4560.918
420.7656, 4556.729
422.6941, 4559.951
424.6225, 4580.246
426.5510, 4603.479
428.4795, 4619.103
430.4079, 4618.702
432.3364, 4621.197
434.2649, 4633.025
436.1933, 4649.842
438.1218, 4661.417
440.0503, 4661.053
441.9787, 4661.766
443.9072, 4672.136
445.8357, 4692.423
447.7641, 4701.575
449.6926, 4684.593
451.6211, 4667.178
453.5495, 4671.299
455.4780, 4711.314
457.4065, 4741.606
459.3349, 4743.666
461.2634, 4730.750
463.1919, 4726.670
465.1203, 4736.109
467.0488, 4743.836
468.9773, 4750.200
470.9057, 4758.186
472.8342, 4767.303
474.7627, 4765.242
476.6911, 4759.158
478.6196, 4767.726
480.5481, 4794.869
482.4765, 4824.858
484.4050, 4842.404
486.3335, 4848.104
488.2619, 4847.711
490.1904, 4840.875
492.1189, 4842.152
494.0473, 4849.805
495.9758, 4861.126
497.9043, 4874.595
499.8327, 4902.042
501.7612, 4921.219
503.6897, 4920.333
505.6181, 4899.524
507.5466, 4895.416
509.4751, 4923.391
511.4035, 4952.742
513.3320, 4966.093
515.2604, 4954.168
517.1889, 4958.556
519.1174, 4983.528
521.0458, 5010.780
522.9743, 5022.228
524.9028, 5018.820
526.8312, 5017.692
528.7597, 5024.721
530.6882, 5037.764
532.6166, 5049.612
534.5451, 5050.848
536.4736, 5051.223
538.4020, 5052.475
540.3305, 5055.081
542.2590, 5062.276
544.1874, 5094.811
546.1159, 5127.475
548.0444, 5141.857
549.9728, 5118.171
551.9013, 5102.393
553.8298, 5118.595
555.7582, 5146.021
557.6867, 5161.981
559.6152, 5152.506
561.5436, 5144.693
563.4721, 5146.931
565.4006, 5156.889
567.3290, 5167.104
569.2575, 5179.143
571.1860, 5189.041
573.1144, 5193.312
575.0429, 5194.014
576.9714, 5202.107
578.8998, 5220.630
580.8283, 5237.158
582.7568, 5246.762
584.6852, 5252.393
586.6137, 5260.830
588.5422, 5274.428
590.4706, 5285.872
592.3991, 5289.462
594.3276, 5275.652
596.2560, 5280.389
598.1845, 5322.825
600.1130, 5371.442
602.0414, 5392.814
603.9699, 5377.157
605.8984, 5365.180
607.8268, 5376.369
609.7553, 5400.117
611.6838, 5415.169
613.6122, 5407.673
615.5407, 5400.225
617.4692, 5395.232
619.3976, 5396.646
621.3261, 5408.098
623.2546, 5429.417
625.1830, 5446.519
627.1115, 5454.887
629.0400, 5457.470
630.9684, 5457.922
632.8969, 5463.467
634.8254, 5476.801
636.7538, 5503.662
638.6823, 5527.177
640.6108, 5542.583
642.5392, 5544.987
644.4677, 5546.232
646.3962, 5552.076
648.3246, 5570.452
650.2531, 5585.068
652.1816, 5591.362
654.1100, 5591.471
656.0385, 5586.598
657.9670, 5579.085
659.8954, 5580.892
661.8239, 5595.142
663.7524, 5610.080
665.6808, 5618.170
667.6093, 5622.859
669.5378, 5623.808
671.4662, 5613.574
673.3947, 5604.686
675.3232, 5608.343
677.2516, 5630.588
679.1801, 5643.489
681.1086, 5633.881
683.0370, 5620.740
684.9655, 5632.348
686.8940, 5676.327
688.8224, 5710.495
690.7509, 5716.092
692.6794, 5708.638
694.6078, 5710.086
696.5363, 5714.011
698.4648, 5718.370
700.3932, 5723.346
702.3217, 5736.539
704.2502, 5751.277
706.1786, 5767.351
708.1071, 5778.356
710.0356, 5782.217
711.9641, 5784.015
713.8925, 5791.158
715.8210, 5808.055
717.7495, 5823.033
719.6779, 5832.113
721.6064, 5834.525
723.5349, 5834.801
725.4633, 5829.171
727.3918, 5829.266
729.3203, 5836.710
731.2487, 5850.253
733.1772, 5868.944
735.1057, 5899.464
737.0341, 5925.814
738.9626, 5937.789
740.8911, 5938.863
742.8195, 5943.770
744.7480, 5960.247
746.6765, 5975.550
748.6049, 5981.381
750.5334, 5973.955
752.4619, 5976.061
754.3903, 6006.801
756.3188, 6028.078
758.2473, 6007.368
760.1757, 5950.347
762.1042, 5923.052
764.0327, 5962.136
765.9611, 6008.389
767.8896, 6036.322
769.8181, 6041.951
771.7465, 6052.044
773.6750, 6073.137
775.6035, 6092.646
777.5319, 6101.787
779.4604, 6100.722
781.3889, 6104.277
783.3173, 6120.660
785.2458, 6137.388
787.1743, 6146.856
789.1027, 6147.273
791.0312, 6151.671
792.9597, 6164.599
794.8881, 6177.188
796.8166, 6183.146
798.7451, 6181.795
800.6735, 6184.663
802.6020, 6197.728
804.5305, 6214.065
806.4589, 6226.352
808.3874, 6232.077
810.3159, 6244.159
812.2443, 6266.194
814.1728, 6288.770
816.1013, 6312.169
818.0297, 6341.006
819.9582, 6361.570
821.8867, 6359.981
823.8151, 6351.818
825.7436, 6351.952
827.6721, 6363.524
829.6005, 6379.022
831.5290, 6404.462
833.4575, 6430.056
835.3859, 6442.292
837.3144, 6436.073
839.2429, 6432.709
841.1713, 6439.158
843.0998, 6456.015
845.0283, 6474.815
846.9567, 6488.157
848.8852, 6498.392
850.8137, 6506.652
852.7421, 6517.236
854.6706, 6528.517
856.5991, 6539.709
858.5275, 6548.707
860.4560, 6550.990
862.3845, 6556.296
864.3129, 6572.359
866.2414, 6596.190
868.1699, 6618.332
870.0983, 6640.008
872.0268, 6658.544
873.9553, 6665.535
875.8837, 6670.290
877.8122, 6681.387
879.7407, 6700.784
881.6691, 6713.080
883.5976, 6712.963
885.5261, 6710.097
887.4545, 6719.578
889.3830, 6749.323
891.3115, 6773.005
893.2399, 6777.807
895.1684, 6781.610
897.0969, 6794.370
899.0253, 6818.124
900.9538, 6834.688
902.8823, 6826.033
904.8107, 6807.308
906.7392, 6809.590
908.6677, 6845.812
910.5961, 6878.887
912.5246, 6887.572
914.4531, 6878.604
916.3815, 6876.010
918.3100, 6888.781
920.2385, 6910.622
922.1669, 6934.222
924.0954, 6952.332
926.0239, 6976.500
927.9523, 7003.499
929.8808, 7024.699
931.8093, 7036.683
933.7377, 7050.342
935.6662, 7059.700
937.5947, 7070.835
939.5231, 7090.839
941.4516, 7122.109
943.3801, 7141.957
945.3085, 7134.030
947.2370, 7110.159
949.1655, 7098.930
951.0939, 7113.089
953.0224, 7142.809
954.9509, 7177.976
956.8793, 7211.705
958.8078, 7241.550
960.7363, 7268.740
962.6647, 7289.600
964.5932, 7291.668
966.5217, 7285.002
968.4501, 7288.731
970.3786, 7302.737
972.3071, 7316.010
974.2355, 7326.017
976.1640, 7335.542
978.0925, 7338.932
980.0209, 7334.336
981.9494, 7333.807
983.8779, 7351.830
985.8063, 7396.341
987.7348, 7447.115
989.6633, 7475.142
991.5917, 7476.729
993.5202, 7462.272
995.4487, 7463.512
997.3771, 7478.828
999.3056, 7502.258
1001.234, 7525.556
1003.163, 7541.389
1005.091, 7548.683
1007.019, 7560.652
1008.948, 7575.569
1010.876, 7581.778
1012.805, 7581.417
1014.733, 7586.116
1016.662, 7609.314
1018.590, 7624.046
1020.519, 7619.548
1022.447, 7620.578
1024.376, 7649.706
1026.304, 7696.343
1028.233, 7722.095
1030.161, 7715.362
1032.090, 7700.521
1034.018, 7704.888
1035.947, 7740.392
1037.875, 7786.628
1039.803, 7808.218
1041.732, 7830.095
1043.660, 7866.801
1045.589, 7898.501
1047.517, 7886.746
1049.446, 7845.972
1051.374, 7839.033
1053.303, 7865.776
1055.231, 7897.009
1057.160, 7917.863
1059.088, 7936.122
1061.017, 7956.141
1062.945, 7973.304
1064.874, 7989.306
1066.802, 8011.585
1068.730, 8043.130
1070.659, 8070.488
1072.587, 8064.831
1074.516, 8060.418
1076.444, 8070.459
1078.373, 8095.667
1080.301, 8133.559
1082.230, 8153.390
1084.158, 8155.355
1086.087, 8151.220
1088.015, 8154.774
1089.944, 8164.557
1091.872, 8185.382
1093.801, 8224.058
1095.729, 8258.267
1097.657, 8268.771
1099.586, 8250.787
1101.514, 8239.935
1103.443, 8258.181
1105.371, 8293.021
1107.300, 8322.982
1109.228, 8342.886
1111.157, 8352.285
1113.085, 8345.003
1115.014, 8343.340
1116.942, 8352.175
1118.871, 8366.884
1120.799, 8381.422
1122.728, 8394.767
1124.656, 8417.509
1126.584, 8458.065
1128.513, 8498.627
1130.441, 8525.925
1132.370, 8538.188
1134.298, 8542.907
1136.227, 8532.995
1138.155, 8527.245
1140.084, 8537.209
1142.012, 8561.064
1143.941, 8584.704
1145.869, 8609.568
1147.798, 8637.245
1149.726, 8661.393
1151.655, 8667.652
1153.583, 8672.194
1155.511, 8683.089
1157.440, 8704.421
1159.368, 8736.915
1161.297, 8756.483
1163.225, 8764.940
1165.154, 8768.445
1167.082, 8776.393
1169.011, 8791.148
1170.939, 8804.718
1172.868, 8812.512
1174.796, 8816.601
1176.725, 8825.747
1178.653, 8844.792
1180.582, 8861.590
1182.510, 8874.657
1184.438, 8887.478
1186.367, 8899.456
1188.295, 8905.781
1190.224, 8924.220
1192.152, 8971.987
1194.081, 9018.139
1196.009, 9034.511
1197.938, 9025.939
1199.866, 9031.191
1201.795, 9061.146
1203.723, 9089.060
1205.652, 9098.640
1207.580, 9103.889
1209.509, 9121.017
1211.437, 9154.342
1213.365, 9176.555
1215.294, 9175.430
1217.222, 9176.258
1219.151, 9187.388
1221.079, 9207.547
1223.008, 9232.033
1224.936, 9270.206
1226.865, 9297.209
1228.793, 9304.123
1230.722, 9300.188
1232.650, 9290.090
1234.579, 9275.068
1236.507, 9279.849
1238.436, 9319.891
1240.364, 9361.863
1242.292, 9389.403
1244.221, 9407.325
1246.149, 9428.013
1248.078, 9454.425
1250.006, 9479.215
1251.935, 9500.812
1253.863, 9516.613
1255.792, 9526.767
1257.720, 9536.479
1259.649, 9552.873
1261.577, 9578.131
1263.506, 9598.062
1265.434, 9604.380
1267.363, 9613.650
1269.291, 9637.702
1271.219, 9675.568
1273.148, 9704.394
1275.076, 9709.581
1277.005, 9713.474
1278.933, 9734.321
1280.862, 9772.512
1282.790, 9802.550
1284.719, 9818.232
1286.647, 9835.098
1288.576, 9864.221
1290.504, 9887.620
1292.433, 9898.810
1294.361, 9906.958
1296.290, 9917.021
1298.218, 9927.898
1300.146, 9936.881
1302.075, 9941.272
1304.003, 9945.924
1305.932, 9961.287
1307.860, 9985.839
1309.789, 10008.29
1311.717, 10031.62
1313.646, 10057.75
1315.574, 10086.82
1317.503, 10113.04
1319.431, 10126.84
1321.360, 10119.41
1323.288, 10118.20
1325.217, 10135.31
1327.145, 10160.25
1329.073, 10184.88
1331.002, 10213.29
1332.930, 10231.60
1334.859, 10232.84
1336.787, 10232.28
1338.716, 10228.92
1340.644, 10226.46
1342.573, 10247.87
1344.501, 10303.52
1346.430, 10344.09
1348.358, 10352.25
1350.287, 10357.97
1352.215, 10380.96
1354.144, 10418.87
1356.072, 10442.81
1358.000, 10431.14
1359.929, 10427.59
1361.857, 10442.60
1363.786, 10463.18
1365.714, 10473.90
1367.643, 10476.01
1369.571, 10497.89
1371.500, 10564.53
1373.428, 10608.06
1375.357, 10587.79
1377.285, 10548.98
1379.214, 10543.38
1381.142, 10565.02
1383.071, 10584.31
1384.999, 10605.12
1386.927, 10634.16
1388.856, 10674.51
1390.784, 10711.82
1392.713, 10735.58
1394.641, 10748.57
1396.570, 10755.29
1398.498, 10751.91
1400.427, 10756.53
1402.355, 10775.85
1404.284, 10799.56
1406.212, 10814.81
1408.141, 10822.87
1410.069, 10842.17
1411.998, 10881.44
1413.926, 10914.40
1415.854, 10927.23
1417.783, 10932.28
1419.711, 10955.63
1421.640, 10996.73
1423.568, 11022.36
1425.497, 11033.22
1427.425, 11046.15
1429.354, 11074.15
1431.282, 11108.92
1433.211, 11121.19
1435.139, 11095.94
1437.068, 11083.25
1438.996, 11103.24
1440.925, 11134.41
1442.853, 11170.47
1444.781, 11206.18
1446.710, 11222.96
1448.638, 11210.90
1450.567, 11204.15
1452.495, 11214.26
1454.424, 11233.27
1456.352, 11256.24
1458.281, 11281.87
1460.209, 11310.56
1462.138, 11346.06
1464.066, 11374.80
1465.995, 11398.09
1467.923, 11408.77
1469.852, 11390.80
1471.780, 11353.85
1473.708, 11342.23
1475.637, 11365.88
1477.565, 11395.88
1479.494, 11428.52
1481.422, 11461.14
1483.351, 11491.51
1485.279, 11517.58
1487.208, 11536.22
1489.136, 11544.23
1491.065, 11556.47
1492.993, 11583.27
1494.922, 11604.04
1496.850, 11604.39
1498.779, 11593.83
1500.707, 11594.84
1502.635, 11608.03
1504.564, 11628.41
1506.492, 11673.37
1508.421, 11710.14
1510.349, 11708.10
1512.278, 11686.92
1514.206, 11695.02
1516.135, 11746.52
1518.063, 11790.94
1519.992, 11816.65
1521.920, 11842.22
1523.849, 11880.61
1525.777, 11921.76
1527.706, 11949.15
1529.634, 11961.77
1531.563, 11968.35
1533.491, 11963.30
1535.419, 11964.23
1537.348, 11974.55
1539.276, 11992.48
1541.205, 12028.22
1543.133, 12080.84
1545.062, 12114.90
1546.990, 12118.29
1548.919, 12117.86
1550.847, 12122.62
1552.776, 12132.63
1554.704, 12138.32
1556.633, 12141.63
1558.561, 12168.67
1560.490, 12232.45
1562.418, 12279.46
1564.346, 12283.90
1566.275, 12277.85
1568.203, 12281.92
1570.132, 12288.88
1572.060, 12287.13
1573.989, 12275.81
1575.917, 12269.30
1577.846, 12265.58
1579.774, 12273.09
1581.703, 12303.70
1583.631, 12342.15
1585.560, 12375.67
1587.488, 12404.63
1589.417, 12418.45
1591.345, 12403.61
1593.273, 12401.39
1595.202, 12434.89
1597.130, 12477.71
1599.059, 12516.33
1600.987, 12548.95
1602.916, 12564.36
1604.844, 12554.34
1606.773, 12558.70
1608.701, 12606.47
1610.630, 12642.59
1612.558, 12635.15
1614.487, 12603.58
1616.415, 12577.94
1618.344, 12557.04
1620.272, 12555.84
1622.200, 12585.14
1624.129, 12618.29
1626.057, 12662.12
1627.986, 12694.55
1629.914, 12684.10
1631.843, 12637.32
1633.771, 12630.50
1635.700, 12683.82
1637.628, 12722.46
1639.557, 12714.59
1641.485, 12710.98
1643.414, 12744.15
1645.342, 12791.96
1647.271, 12813.00
1649.199, 12802.38
1651.127, 12802.74
1653.056, 12833.94
1654.984, 12846.07
1656.913, 12797.55
1658.841, 12753.62
1660.770, 12773.51
1662.698, 12844.38
1664.627, 12898.67
1666.555, 12936.93
1668.484, 12956.66
1670.412, 12940.23
1672.341, 12926.12
1674.269, 12926.17
1676.198, 12936.61
1678.126, 12955.60
1680.054, 12983.65
1681.983, 13004.46
1683.911, 13012.43
1685.840, 13024.96
1687.768, 13060.71
1689.697, 13085.02
1691.625, 13060.92
1693.554, 13018.58
1695.482, 13028.98
1697.411, 13102.81
1699.339, 13148.23
1701.268, 13151.28
1703.196, 13140.73
1705.125, 13098.53
1707.053, 13069.98
1708.981, 13097.56
1710.910, 13165.11
1712.838, 13216.97
1714.767, 13254.54
1716.695, 13266.74
1718.624, 13225.15
1720.552, 13202.19
1722.481, 13235.52
1724.409, 13285.21
1726.338, 13320.27
1728.266, 13341.85
1730.195, 13353.20
1732.123, 13350.75
1734.052, 13356.00
1735.980, 13380.18
1737.908, 13400.05
1739.837, 13394.10
1741.765, 13388.88
1743.694, 13415.34
1745.622, 13467.00
1747.551, 13511.40
1749.479, 13548.53
1751.408, 13571.73
1753.336, 13572.15
1755.265, 13570.69
1757.193, 13582.25
1759.122, 13592.76
1761.050, 13580.17
1762.979, 13552.44
1764.907, 13549.29
1766.835, 13576.97
1768.764, 13603.85
1770.692, 13615.21
1772.621, 13638.36
1774.549, 13711.33
1776.478, 13783.38
1778.406, 13795.84
1780.335, 13762.69
1782.263, 13736.86
1784.192, 13719.15
1786.120, 13715.65
1788.049, 13734.40
1789.977, 13756.21
1791.906, 13776.38
1793.834, 13793.36
1795.762, 13803.23
1797.691, 13808.42
1799.619, 13818.82
1801.548, 13835.22
1803.476, 13852.68
1805.405, 13876.49
1807.333, 13892.76
1809.262, 13889.88
1811.190, 13884.88
1813.119, 13887.14
1815.047, 13898.82
1816.976, 13931.39
1818.904, 13996.55
1820.833, 14030.76
1822.761, 14003.70
1824.689, 13990.61
1826.618, 14008.92
1828.546, 14039.39
1830.475, 14079.48
1832.403, 14119.61
1834.332, 14139.48
1836.260, 14136.78
1838.189, 14143.15
1840.117, 14165.04
1842.046, 14183.99
1843.974, 14203.92
1845.903, 14213.83
1847.831, 14195.39
1849.760, 14175.03
1851.688, 14189.60
1853.616, 14232.23
1855.545, 14245.83
1857.473, 14219.06
1859.402, 14224.85
1861.330, 14299.27
1863.259, 14353.89
1865.187, 14350.67
1867.116, 14326.06
1869.044, 14289.62
1870.973, 14255.22
1872.901, 14249.85
1874.830, 14272.86
1876.758, 14314.90
1878.687, 14388.01
1880.615, 14430.24
1882.543, 14401.58
1884.472, 14375.56
1886.400, 14392.28
1888.329, 14426.66
1890.257, 14459.51
1892.186, 14487.73
1894.114, 14495.97
1896.043, 14478.46
1897.971, 14478.97
1899.900, 14521.05
1901.828, 14548.59
1903.757, 14539.81
1905.685, 14525.33
1907.614, 14514.16
1909.542, 14513.56
1911.470, 14542.25
1913.399, 14597.15
1915.327, 14628.64
1917.256, 14621.88
1919.184, 14627.35
1921.113, 14657.80
1923.041, 14684.92
1924.970, 14704.16
1926.898, 14716.30
1928.827, 14719.31
1930.755, 14716.81
1932.684, 14710.08
1934.612, 14701.08
1936.541, 14716.50
1938.469, 14764.27
1940.397, 14798.70
1942.326, 14810.98
1944.254, 14810.87
1946.183, 14791.92
1948.111, 14772.86
1950.040, 14763.50
1951.968, 14765.02
1953.897, 14785.79
1955.825, 14822.52
1957.754, 14840.87
1959.682, 14831.70
1961.611, 14834.02
1963.539, 14866.48
1965.468, 14890.89
1967.396, 14901.82
1969.324, 14896.44
1971.253, 14848.96
1973.181, 14797.01
1975.110, 14811.21
1977.038, 14886.85
1978.967, 14942.60
1980.895, 14976.44
1982.824, 14996.32
1984.752, 14991.69
1986.681, 14993.94
1988.609, 15023.16
1990.538, 15046.38
1992.466, 15041.22
1994.395, 15024.96
1996.323, 15009.07
1998.251, 14999.53
2000.180, 15019.66
2002.108, 15070.70
2004.037, 15121.17
2005.965, 15177.96
2007.894, 15204.28
2009.822, 15157.85
2011.751, 15123.08
2013.679, 15146.54
2015.608, 15185.25
2017.536, 15205.86
2019.465, 15211.54
2021.393, 15205.70
2023.322, 15187.97
2025.250, 15179.30
2027.178, 15182.42
2029.107, 15187.46
2031.035, 15191.82
2032.964, 15201.56
2034.892, 15221.52
2036.821, 15243.36
2038.749, 15258.92
2040.678, 15277.18
2042.606, 15318.10
2044.535, 15367.74
2046.463, 15384.16
2048.392, 15367.65
2050.320, 15353.49
2052.249, 15344.18
2054.177, 15338.40
2056.105, 15330.86
2058.034, 15334.18
2059.962, 15362.20
2061.891, 15391.07
2063.819, 15404.22
2065.748, 15409.46
2067.676, 15412.80
2069.605, 15417.26
2071.533, 15443.18
2073.462, 15497.55
2075.390, 15516.25
2077.319, 15482.46
2079.247, 15464.13
2081.176, 15485.98
2083.104, 15497.85
2085.032, 15458.45
2086.961, 15431.12
2088.889, 15478.42
2090.818, 15545.37
2092.746, 15564.69
2094.675, 15548.37
2096.603, 15530.97
2098.532, 15511.21
2100.460, 15506.15
2102.389, 15519.16
2104.317, 15540.14
2106.246, 15580.17
2108.174, 15611.25
2110.103, 15623.11
2112.031, 15630.03
2113.959, 15636.64
2115.888, 15643.95
2117.816, 15656.63
2119.745, 15669.30
2121.673, 15668.67
2123.602, 15656.75
2125.530, 15642.67
2127.459, 15624.84
2129.387, 15630.14
2131.316, 15677.45
2133.244, 15709.27
2135.173, 15707.08
2137.101, 15696.63
2139.030, 15681.35
2140.958, 15667.24
2142.886, 15657.31
2144.815, 15651.94
2146.743, 15648.96
2148.672, 15651.36
2150.600, 15678.46
2152.529, 15727.54
2154.457, 15732.76
2156.386, 15680.53
2158.314, 15679.97
2160.243, 15779.86
2162.171, 15836.80
2164.100, 15757.18
2166.028, 15702.05
2167.957, 15763.38
2169.885, 15841.94
2171.813, 15866.52
2173.742, 15864.14
2175.670, 15870.42
2177.599, 15879.73
2179.527, 15865.13
2181.456, 15827.22
2183.384, 15841.44
2185.313, 15920.25
2187.241, 15950.84
2189.170, 15904.36
2191.098, 15865.76
2193.027, 15855.68
2194.955, 15857.12
2196.884, 15863.16
2198.812, 15879.04
2200.740, 15921.80
2202.669, 15963.37
2204.597, 15966.71
2206.526, 15950.52
2208.454, 15954.98
2210.383, 15976.91
2212.311, 15991.81
2214.240, 15999.84
2216.168, 15989.78
2218.097, 15953.75
2220.025, 15945.58
2221.954, 15987.42
2223.882, 16021.75
2225.811, 16024.79
2227.739, 16026.47
2229.667, 16032.66
2231.596, 16048.36
2233.524, 16091.76
2235.453, 16133.85
2237.381, 16134.75
2239.310, 16111.60
2241.238, 16096.87
2243.167, 16091.85
2245.095, 16114.38
2247.024, 16163.04
2248.952, 16163.77
2250.881, 16097.66
2252.809, 16072.60
2254.738, 16128.50
2256.666, 16173.00
2258.594, 16192.91
2260.523, 16189.37
2262.451, 16146.30
2264.380, 16100.28
2266.308, 16063.06
2268.237, 16040.99
2270.165, 16049.51
2272.094, 16070.12
2274.022, 16068.98
2275.951, 16059.47
2277.879, 16083.72
2279.808, 16136.48
2281.736, 16165.41
2283.665, 16165.23
2285.593, 16165.52
2287.521, 16157.32
2289.450, 16168.60
2291.378, 16231.48
2293.307, 16253.40
2295.235, 16182.87
2297.164, 16132.51
2299.092, 16153.12
2301.021, 16188.17
2302.949, 16210.18
2304.878, 16227.25
2306.806, 16244.65
2308.735, 16262.66
2310.663, 16279.84
2312.592, 16298.63
2314.520, 16332.37
2316.448, 16375.97
2318.377, 16377.58
2320.305, 16336.02
2322.234, 16338.90
2324.162, 16394.12
2326.091, 16446.83
2328.019, 16496.82
2329.948, 16516.62
2331.876, 16474.64
2333.805, 16450.37
2335.733, 16487.96
2337.662, 16510.10
2339.590, 16475.94
2341.519, 16434.64
2343.447, 16405.21
2345.375, 16389.07
2347.304, 16402.99
2349.232, 16417.92
2351.161, 16398.30
2353.089, 16356.29
2355.018, 16295.48
2356.946, 16232.77
2358.875, 16250.40
2360.803, 16346.61
2362.732, 16386.59
2364.660, 16362.72
2366.589, 16327.33
2368.517, 16275.18
2370.446, 16251.20
2372.374, 16267.27
2374.302, 16285.78
2376.231, 16302.03
2378.159, 16312.27
2380.088, 16304.90
2382.016, 16306.83
2383.945, 16350.45
2385.873, 16376.20
2387.802, 16325.98
2389.730, 16276.04
2391.659, 16298.73
2393.587, 16333.76
2395.516, 16307.67
2397.444, 16266.42
2399.373, 16284.50
2401.301, 16335.70
2403.229, 16358.36
2405.158, 16357.16
2407.086, 16359.90
2409.015, 16366.72
2410.943, 16334.91
2412.872, 16261.92
2414.800, 16264.79
2416.729, 16360.87
2418.657, 16428.30
2420.586, 16450.48
2422.514, 16448.10
2424.443, 16389.85
2426.371, 16365.86
2428.300, 16422.55
2430.228, 16460.19
2432.156, 16450.29
2434.085, 16429.83
2436.013, 16399.78
2437.942, 16382.04
2439.870, 16390.39
2441.799, 16413.88
2443.727, 16476.60
2445.656, 16517.57
2447.584, 16446.33
2449.513, 16345.67
2451.441, 16326.47
2453.370, 16351.70
2455.298, 16355.93
2457.227, 16351.31
2459.155, 16372.76
2461.083, 16410.64
2463.012, 16422.89
2464.940, 16411.58
2466.869, 16409.08
2468.797, 16417.55
2470.726, 16406.73
2472.654, 16372.52
2474.583, 16368.33
2476.511, 16402.50
2478.440, 16418.64
2480.368, 16402.60
2482.297, 16395.58
2484.225, 16423.26
2486.154, 16427.14
2488.082, 16381.09
2490.010, 16342.52
2491.939, 16309.96
2493.867, 16307.41
2495.796, 16361.21
2497.724, 16410.91
2499.653, 16443.21
2501.581, 16444.54
2503.510, 16361.03
2505.438, 16303.74
2507.367, 16379.75
2509.295, 16470.21
2511.224, 16489.50
2513.152, 16470.30
2515.081, 16418.27
2517.009, 16367.94
2518.938, 16361.65
2520.866, 16380.05
2522.794, 16402.93
2524.723, 16423.67
2526.651, 16419.13
2528.580, 16404.50
2530.508, 16438.45
2532.437, 16496.36
2534.365, 16483.56
2536.294, 16419.19
2538.222, 16418.74
2540.151, 16476.47
2542.079, 16474.51
2544.008, 16406.32
2545.936, 16389.23
2547.865, 16424.81
2549.793, 16465.26
2551.721, 16509.89
2553.650, 16508.61
2555.578, 16444.46
2557.507, 16399.64
2559.435, 16379.81
2561.364, 16385.60
2563.292, 16434.26
2565.221, 16450.68
2567.149, 16411.75
2569.078, 16402.98
2571.006, 16461.01
2572.935, 16493.78
2574.863, 16455.31
2576.792, 16429.09
2578.720, 16447.35
2580.648, 16451.75
2582.577, 16417.69
2584.505, 16394.57
2586.434, 16398.91
2588.362, 16416.07
2590.291, 16452.46
2592.219, 16481.62
2594.148, 16492.77
2596.076, 16493.00
2598.005, 16482.06
2599.933, 16465.74
2601.862, 16440.03
2603.790, 16419.70
2605.719, 16405.37
2607.647, 16410.69
2609.575, 16471.84
2611.504, 16524.57
2613.432, 16496.77
2615.361, 16462.41
2617.289, 16504.83
2619.218, 16547.26
2621.146, 16504.32
2623.075, 16448.54
2625.003, 16466.87
2626.932, 16500.79
2628.860, 16469.14
2630.789, 16424.88
2632.717, 16445.55
2634.646, 16486.34
2636.574, 16497.80
2638.502, 16485.10
2640.431, 16429.17
2642.359, 16373.42
2644.288, 16409.87
2646.216, 16484.11
2648.145, 16497.81
2650.073, 16474.79
2652.002, 16442.48
2653.930, 16418.98
2655.859, 16454.06
2657.787, 16516.78
2659.716, 16533.91
2661.644, 16522.01
2663.573, 16524.88
2665.501, 16534.10
2667.429, 16524.09
2669.358, 16503.75
2671.286, 16499.93
2673.215, 16504.64
2675.143, 16485.13
2677.072, 16454.29
2679.000, 16469.23
2680.929, 16510.25
2682.857, 16504.38
2684.786, 16469.93
2686.714, 16473.65
2688.643, 16504.83
2690.571, 16527.07
2692.500, 16537.62
2694.428, 16511.84
2696.356, 16464.62
2698.285, 16449.63
2700.213, 16463.87
2702.142, 16503.03
2704.070, 16555.04
2705.999, 16556.27
2707.927, 16520.06
2709.856, 16519.46
2711.784, 16541.81
2713.713, 16537.00
2715.641, 16512.93
2717.570, 16506.52
2719.498, 16511.66
2721.427, 16494.80
2723.355, 16464.65
2725.283, 16473.29
2727.212, 16503.06
2729.140, 16487.22
2731.069, 16441.50
2732.997, 16418.43
2734.926, 16414.81
2736.854, 16420.24
2738.783, 16433.71
2740.711, 16452.75
2742.640, 16476.21
2744.568, 16508.85
2746.497, 16539.90
2748.425, 16530.66
2750.354, 16496.92
2752.282, 16480.62
2754.210, 16479.61
2756.139, 16497.48
2758.067, 16521.58
2759.996, 16522.16
2761.924, 16510.32
2763.853, 16512.28
2765.781, 16519.07
2767.710, 16501.54
2769.638, 16483.16
2771.567, 16512.96
2773.495, 16561.39
2775.424, 16588.82
2777.352, 16595.60
2779.281, 16564.79
2781.209, 16528.53
2783.137, 16546.67
2785.066, 16574.08
2786.994, 16543.28
2788.923, 16505.39
2790.851, 16536.84
2792.780, 16579.00
2794.708, 16549.01
2796.637, 16517.58
2798.565, 16564.80
2800.494, 16620.42
2802.422, 16622.63
2804.351, 16604.95
2806.279, 16591.71
2808.208, 16573.74
2810.136, 16535.91
2812.064, 16504.92
2813.993, 16493.24
2815.921, 16501.16
2817.850, 16547.52
2819.778, 16586.06
2821.707, 16589.15
2823.635, 16589.42
2825.564, 16602.02
2827.492, 16613.82
2829.421, 16617.34
2831.349, 16622.62
2833.278, 16636.58
2835.206, 16641.41
2837.135, 16607.60
2839.063, 16631.08
2840.991, 16816.52
2842.920, 16921.84
2844.848, 16855.15
2846.777, 16824.45
2848.705, 16860.34
2850.634, 16897.07
2852.562, 16928.40
2854.491, 16939.73
2856.419, 16919.53
2858.348, 16899.09
2860.276, 16872.74
2862.205, 16915.80
2864.133, 17038.51
2866.062, 17093.35
2867.990, 17066.27
2869.918, 17025.74
2871.847, 16972.21
2873.775, 16969.91
2875.704, 17008.97
2877.632, 17017.58
2879.561, 17003.53
2881.489, 17020.58
2883.418, 17054.17
2885.346, 17025.96
2887.275, 16981.31
2889.203, 17066.40
2891.132, 17186.89
2893.060, 17151.17
2894.989, 17056.04
2896.917, 17044.07
2898.845, 17070.41
2900.774, 17107.81
2902.702, 17126.85
2904.631, 17067.65
2906.559, 17019.09
2908.488, 17099.30
2910.416, 17148.36
2912.345, 17027.22
2914.273, 16935.78
2916.202, 17006.80
2918.130, 17087.60
2920.059, 17137.88
2921.987, 17148.84
2923.916, 17101.63
2925.844, 17063.39
2927.772, 17053.84
2929.701, 17052.64
2931.629, 17058.82
2933.558, 17070.55
2935.486, 17091.24
2937.415, 17084.09
2939.343, 17039.42
2941.272, 17020.95
2943.200, 17034.03
2945.129, 17034.53
2947.057, 17024.32
2948.986, 17029.19
2950.914, 17038.74
2952.843, 16989.40
2954.771, 16907.38
2956.699, 16877.42
2958.628, 16878.07
2960.556, 16864.63
2962.485, 16852.33
2964.413, 16878.07
2966.342, 16898.52
2968.270, 16846.35
2970.199, 16791.15
2972.127, 16792.04
2974.056, 16797.52
2975.984, 16764.04
2977.913, 16745.87
2979.841, 16789.69
2981.770, 16810.84
2983.698, 16777.24
2985.626, 16745.43
2987.555, 16724.94
2989.483, 16723.75
2991.412, 16750.26
2993.340, 16759.73
2995.269, 16748.64
2997.197, 16711.06
2999.126, 16643.35
3001.054, 16607.85
3002.983, 16604.17
3004.911, 16635.04
3006.840, 16689.31
3008.768, 16740.60
3010.697, 16776.08
3012.625, 16751.33
3014.553, 16704.60
3016.482, 16704.24
3018.410, 16703.56
3020.339, 16635.70
3022.267, 16576.94
3024.196, 16608.33
3026.124, 16633.78
3028.053, 16602.61
3029.981, 16570.28
3031.910, 16534.65
3033.838, 16552.86
3035.767, 16668.03
3037.695, 16730.26
3039.624, 16716.85
3041.552, 16673.08
3043.480, 16588.62
3045.409, 16575.15
3047.337, 16629.41
3049.266, 16667.03
3051.194, 16689.08
3053.123, 16710.33
3055.051, 16726.61
3056.980, 16730.39
3058.908, 16718.26
3060.837, 16667.98
3062.765, 16620.47
3064.694, 16610.00
3066.622, 16626.17
3068.551, 16694.50
3070.479, 16733.67
3072.407, 16695.58
3074.336, 16657.16
3076.264, 16640.43
3078.193, 16636.03
3080.121, 16648.41
3082.050, 16638.09
3083.978, 16597.21
3085.907, 16575.14
3087.835, 16573.50
3089.764, 16597.55
3091.692, 16638.96
3093.621, 16670.62
3095.549, 16687.81
3097.478, 16658.85
3099.406, 16630.64
3101.334, 16696.35
3103.263, 16756.71
3105.191, 16727.22
3107.120, 16675.82
3109.048, 16620.66
3110.977, 16588.38
3112.905, 16589.72
3114.834, 16602.08
3116.762, 16620.91
3118.691, 16651.43
3120.619, 16697.11
3122.548, 16719.87
3124.476, 16719.45
3126.405, 16707.56
3128.333, 16690.83
3130.261, 16708.70
3132.190, 16729.48
3134.118, 16662.41
3136.047, 16597.01
3137.975, 16661.12
3139.904, 16725.88
3141.832, 16692.60
3143.761, 16650.61
3145.689, 16620.63
3147.618, 16621.84
3149.546, 16674.79
3151.475, 16721.50
3153.403, 16760.18
3155.332, 16754.42
3157.260, 16701.33
3159.188, 16647.70
3161.117, 16601.24
3163.045, 16610.81
3164.974, 16648.93
3166.902, 16685.46
3168.831, 16699.62
3170.759, 16637.56
3172.688, 16587.46
3174.616, 16607.50
3176.545, 16643.85
3178.473, 16690.30
3180.402, 16719.97
3182.330, 16728.89
3184.259, 16723.65
3186.187, 16703.22
3188.115, 16677.65
3190.044, 16649.06
3191.972, 16639.58
3193.901, 16650.67
3195.829, 16704.87
3197.758, 16756.20
3199.686, 16723.68
3201.615, 16682.34
3203.543, 16679.34
3205.472, 16694.70
3207.400, 16740.68
3209.329, 16759.73
3211.257, 16737.13
3213.186, 16721.06
3215.114, 16720.08
3217.042, 16713.40
3218.971, 16701.08
3220.899, 16678.46
3222.828, 16656.35
3224.756, 16661.70
3226.685, 16678.74
3228.613, 16697.68
3230.542, 16703.70
3232.470, 16676.66
3234.399, 16652.98
3236.327, 16640.70
3238.256, 16653.32
3240.184, 16700.01
3242.113, 16710.01
3244.041, 16674.53
3245.969, 16606.94
3247.898, 16530.55
3249.826, 16595.92
3251.755, 16695.05
3253.683, 16636.84
3255.612, 16543.59
3257.540, 16495.14
3259.469, 16507.30
3261.397, 16641.57
3263.326, 16735.29
3265.254, 16752.43
3267.183, 16740.65
3269.111, 16703.19
3271.040, 16702.45
3272.968, 16728.33
3274.896, 16693.94
3276.825, 16637.37
3278.753, 16625.34
3280.682, 16634.25
3282.610, 16658.05
3284.539, 16666.34
3286.467, 16642.74
3288.396, 16610.99
3290.324, 16549.36
3292.253, 16562.36
3294.181, 16652.18
3296.110, 16676.56
3298.038, 16649.38
3299.967, 16674.45
3301.895, 16711.03
3303.823, 16674.98
3305.752, 16626.60
3307.680, 16609.94
3309.609, 16604.39
3311.537, 16600.94
3313.466, 16610.65
3315.394, 16642.08
3317.323, 16656.44
3319.251, 16652.40
3321.180, 16650.11
3323.108, 16643.13
3325.037, 16594.71
3326.965, 16553.66
3328.894, 16608.17
3330.822, 16661.98
3332.750, 16656.02
3334.679, 16639.91
3336.607, 16616.88
3338.536, 16628.84
3340.464, 16681.10
3342.393, 16671.75
3344.321, 16617.04
3346.250, 16633.21
3348.178, 16663.28
3350.107, 16603.42
3352.035, 16542.65
3353.964, 16554.96
3355.892, 16588.92
3357.821, 16649.59
3359.749, 16653.90
3361.677, 16568.42
3363.606, 16557.75
3365.534, 16605.86
3367.463, 16621.35
3369.391, 16614.69
3371.320, 16600.87
3373.248, 16585.24
3375.177, 16560.66
3377.105, 16556.60
3379.034, 16600.87
3380.962, 16625.50
3382.891, 16622.74
3384.819, 16612.82
3386.748, 16599.25
3388.676, 16606.03
3390.604, 16609.20
3392.533, 16543.97
3394.461, 16496.79
3396.390, 16563.06
3398.318, 16627.01
3400.247, 16664.50
3402.175, 16655.26
3404.104, 16586.31
3406.032, 16576.06
3407.961, 16609.40
3409.889, 16631.01
3411.818, 16638.80
3413.746, 16623.34
3415.675, 16602.66
3417.603, 16576.75
3419.531, 16572.05
3421.460, 16602.43
3423.388, 16614.90
3425.317, 16605.62
3427.245, 16590.36
3429.174, 16570.52
3431.102, 16533.30
3433.031, 16513.50
3434.959, 16561.88
3436.888, 16610.04
3438.816, 16637.12
3440.745, 16633.91
3442.673, 16589.94
3444.602, 16571.90
3446.530, 16577.58
3448.458, 16605.18
3450.387, 16621.17
3452.315, 16540.30
3454.244, 16486.47
3456.172, 16554.07
3458.101, 16597.68
3460.029, 16541.18
3461.958, 16534.96
3463.886, 16574.38
3465.815, 16610.45
3467.743, 16636.00
3469.672, 16644.29
3471.600, 16625.15
3473.529, 16535.28
3475.457, 16490.51
3477.385, 16558.23
3479.314, 16568.68
3481.242, 16513.83
3483.171, 16555.00
3485.099, 16644.95
3487.028, 16624.87
3488.956, 16577.92
3490.885, 16584.53
3492.813, 16584.65
3494.742, 16553.73
3496.670, 16529.18
3498.599, 16517.27
3500.527, 16508.68
3502.456, 16506.06
3504.384, 16526.01
3506.313, 16547.39
3508.241, 16541.17
3510.169, 16541.66
3512.098, 16561.48
3514.026, 16595.32
3515.955, 16654.82
3517.883, 16582.33
3519.812, 16447.79
3521.740, 16460.77
3523.669, 16518.73
3525.597, 16518.80
3527.526, 16510.85
3529.454, 16510.53
3531.383, 16516.12
3533.311, 16527.19
3535.240, 16512.48
3537.168, 16486.32
3539.096, 16490.00
3541.025, 16501.92
3542.953, 16508.54
3544.882, 16505.46
3546.810, 16486.07
3548.739, 16470.97
3550.667, 16461.56
3552.596, 16467.52
3554.524, 16471.69
3556.453, 16413.45
3558.381, 16368.06
3560.310, 16408.34
3562.238, 16434.87
3564.167, 16425.46
3566.095, 16422.83
3568.023, 16429.81
3569.952, 16446.34
3571.880, 16459.00
3573.809, 16444.84
3575.737, 16428.54
3577.666, 16419.67
3579.594, 16423.47
3581.523, 16442.13
3583.451, 16456.71
3585.380, 16466.35
3587.308, 16465.97
3589.237, 16464.70
3591.165, 16467.05
3593.094, 16482.81
3595.022, 16522.81
3596.950, 16521.88
3598.879, 16477.26
3600.807, 16456.72
3602.736, 16445.53
3604.664, 16410.67
3606.593, 16388.94
3608.521, 16404.01
3610.450, 16425.08
3612.378, 16447.84
3614.307, 16466.32
3616.235, 16476.21
3618.164, 16465.83
3620.092, 16439.46
3622.021, 16381.83
3623.949, 16347.07
3625.877, 16354.58
3627.806, 16385.57
3629.734, 16430.80
3631.663, 16416.37
3633.591, 16376.76
3635.520, 16344.77
3637.448, 16336.17
3639.377, 16370.53
3641.305, 16380.37
3643.234, 16357.12
3645.162, 16365.94
3647.091, 16395.13
3649.019, 16434.18
3650.948, 16451.52
3652.876, 16420.15
3654.804, 16391.53
3656.733, 16374.15
3658.661, 16385.98
3660.590, 16416.04
3662.518, 16431.69
3664.447, 16439.62
3666.375, 16444.38
3668.304, 16447.24
3670.232, 16447.70
3672.161, 16447.90
3674.089, 16449.33
3676.018, 16474.18
3677.946, 16480.20
3679.875, 16387.60
3681.803, 16329.81
3683.731, 16403.31
3685.660, 16382.94
3687.588, 16292.57
3689.517, 16304.17
3691.445, 16359.20
3693.374, 16390.03
3695.302, 16410.46
3697.231, 16438.62
3699.159, 16402.52
3701.088, 16318.23
3703.016, 16346.71
3704.945, 16406.76
3706.873, 16368.59
3708.802, 16330.48
3710.730, 16338.11
3712.658, 16335.11
3714.587, 16323.70
3716.515, 16374.64
3718.444, 16431.53
3720.372, 16395.06
3722.301, 16356.55
3724.229, 16360.21
3726.158, 16338.91
3728.086, 16299.57
3730.015, 16373.81
3731.943, 16466.77
3733.872, 16416.52
3735.800, 16377.97
3737.729, 16428.57
3739.657, 16443.35
3741.585, 16422.11
3743.514, 16424.91
3745.442, 16423.99
3747.371, 16360.95
3749.299, 16321.32
3751.228, 16349.14
3753.156, 16349.83
3755.085, 16324.27
3757.013, 16290.13
3758.942, 16268.92
3760.870, 16300.32
3762.799, 16322.40
3764.727, 16308.95
3766.656, 16337.99
3768.584, 16389.20
3770.512, 16374.10
3772.441, 16340.91
3774.369, 16313.59
3776.298, 16335.09
3778.226, 16442.75
3780.155, 16403.45
3782.083, 16286.38
3784.012, 16248.27
3785.940, 16268.32
3787.869, 16359.37
3789.797, 16408.28
3791.726, 16393.32
3793.654, 16387.01
3795.583, 16381.36
3797.511, 16365.71
3799.439, 16341.18
3801.368, 16307.56
3803.296, 16264.57
3805.225, 16219.56
3807.153, 16253.86
3809.082, 16305.92
3811.010, 16307.60
3812.939, 16295.69
3814.867, 16275.35
3816.796, 16329.64
3818.724, 16416.26
3820.653, 16348.68
3822.581, 16274.34
3824.510, 16317.27
3826.438, 16344.79
3828.366, 16340.62
3830.295, 16327.12
3832.223, 16317.37
3834.152, 16345.03
3836.080, 16360.14
3838.009, 16333.30
3839.937, 16297.89
3841.866, 16268.30
3843.794, 16316.51
3845.723, 16382.05
3847.651, 16421.82
3849.580, 16410.71
3851.508, 16355.21
3853.437, 16304.62
3855.365, 16264.05
3857.293, 16237.98
3859.222, 16235.68
3861.150, 16278.44
3863.079, 16263.03
3865.007, 16196.32
3866.936, 16162.52
3868.864, 16157.76
3870.793, 16204.83
3872.721, 16212.90
3874.650, 16147.60
3876.578, 16141.48
3878.507, 16159.95
3880.435, 16120.72
3882.364, 16098.49
3884.292, 16135.08
3886.220, 16143.88
3888.149, 16124.10
3890.077, 16145.12
3892.006, 16154.80
3893.934, 16085.51
3895.863, 16036.96
3897.791, 16025.24
3899.720, 15999.82
3901.648, 15980.80
3903.577, 16025.76
3905.505, 16057.60
3907.434, 16048.79
3909.362, 15988.02
3911.291, 15906.17
3913.219, 15919.93
3915.147, 15940.64
3917.076, 15905.59
3919.004, 15873.50
3920.933, 15851.64
3922.861, 15848.55
3924.790, 15854.60
3926.718, 15879.40
3928.647, 15883.89
3930.575, 15852.97
3932.504, 15886.03
3934.432, 15913.22
3936.361, 15808.80
3938.289, 15736.58
3940.218, 15777.74
3942.146, 15823.42
3944.074, 15852.90
3946.003, 15818.18
3947.931, 15787.80
3949.860, 15807.84
3951.788, 15776.19
3953.717, 15702.98
3955.645, 15688.18
3957.574, 15711.72
3959.502, 15717.54
3961.431, 15719.13
3963.359, 15729.60
3965.288, 15693.55
3967.216, 15654.73
3969.145, 15672.82
3971.073, 15682.69
3973.001, 15641.28
3974.930, 15594.86
3976.858, 15570.76
3978.787, 15603.09
3980.715, 15641.71
3982.644, 15600.24
3984.572, 15574.63
3986.501, 15583.41
3988.429, 15506.45
3990.358, 15451.66
3992.286, 15549.82
3994.215, 15599.11
3996.143, 15546.02
3998.072, 15521.81
4000.000, 15520.37
4001.928, 15473.41
4003.857, 15437.91
4005.785, 15435.19
4007.714, 15431.29
4009.642, 15432.61
4011.571, 15434.71
4013.499, 15441.01
4015.428, 15463.24
4017.356, 15449.97
4019.285, 15420.05
4021.213, 15405.53
4023.142, 15436.51
4025.070, 15464.42
4026.999, 15411.23
4028.927, 15361.24
4030.855, 15369.77
4032.784, 15389.64
4034.712, 15411.17
4036.641, 15412.35
4038.569, 15405.71
4040.498, 15402.39
4042.426, 15332.08
4044.355, 15266.97
4046.283, 15305.05
4048.212, 15350.93
4050.140, 15359.72
4052.069, 15329.83
4053.997, 15296.27
4055.926, 15298.20
4057.854, 15286.42
4059.782, 15267.62
4061.711, 15253.75
4063.639, 15230.45
4065.568, 15235.92
4067.496, 15243.79
4069.425, 15263.11
4071.353, 15301.37
4073.282, 15357.26
4075.210, 15306.70
4077.139, 15216.47
4079.067, 15214.23
4080.996, 15190.22
4082.924, 15154.51
4084.853, 15161.79
4086.781, 15166.41
4088.709, 15156.99
4090.638, 15157.98
4092.566, 15145.20
4094.495, 15149.55
4096.423, 15159.17
4098.352, 15129.28
4100.280, 15112.27
4102.208, 15112.97
4104.137, 15075.12
4106.065, 15050.67
4107.994, 15095.95
4109.922, 15111.28
4111.851, 15088.06
4113.779, 15073.81
4115.708, 15058.29
4117.636, 15024.23
4119.565, 14997.97
4121.493, 14984.43
4123.422, 15060.63
4125.350, 15121.39
4127.279, 15007.68
4129.207, 14956.18
4131.136, 15006.69
4133.064, 15032.30
4134.993, 15041.03
4136.921, 15042.87
4138.850, 15011.01
4140.778, 14956.87
4142.707, 14917.54
4144.635, 14903.12
4146.563, 14919.04
4148.492, 14939.94
4150.420, 14964.78
4152.349, 15010.81
4154.277, 15052.35
4156.206, 15051.18
4158.134, 15011.44
4160.063, 14950.38
4161.991, 14899.31
4163.919, 14865.90
4165.848, 14881.76
4167.776, 14878.84
4169.705, 14853.02
4171.633, 14855.25
4173.562, 14871.81
4175.490, 14891.34
4177.419, 14897.54
4179.347, 14885.81
4181.276, 14893.28
4183.204, 14909.84
4185.133, 14907.22
4187.061, 14907.23
4188.990, 14916.65
4190.918, 14856.61
4192.847, 14805.23
4194.775, 14888.22
4196.704, 14920.09
4198.632, 14872.51
4200.561, 14853.05
4202.489, 14846.96
4204.417, 14844.56
4206.346, 14850.61
4208.274, 14871.30
4210.203, 14861.40
4212.131, 14839.03
4214.060, 14844.35
4215.988, 14855.15
4217.917, 14860.08
4219.845, 14800.84
4221.773, 14763.41
4223.702, 14868.63
4225.630, 14896.62
4227.559, 14839.24
4229.487, 14850.80
4231.416, 14882.34
4233.344, 14885.45
4235.273, 14874.08
4237.201, 14855.95
4239.130, 14828.24
4241.058, 14800.28
4242.987, 14762.81
4244.915, 14808.69
4246.844, 14892.38
4248.772, 14890.49
4250.701, 14871.77
4252.629, 14866.62
4254.558, 14845.58
4256.486, 14837.76
4258.415, 14939.09
4260.343, 14983.49
4262.271, 14893.19
4264.200, 14935.62
4266.128, 15010.31
4268.057, 14947.05
4269.985, 14941.25
4271.914, 15030.51
4273.842, 14975.24
4275.771, 14905.24
4277.699, 14977.33
4279.627, 15006.42
4281.556, 14978.37
4283.484, 14924.28
4285.413, 14903.22
4287.341, 14981.65
4289.270, 15042.00
4291.198, 15077.88
4293.127, 15074.27
4295.055, 15077.11
4296.984, 15118.68
4298.912, 15097.35
4300.841, 15060.48
4302.769, 15123.53
4304.698, 15133.70
4306.626, 15046.60
4308.555, 15031.19
4310.483, 15053.40
4312.412, 15095.18
4314.340, 15108.12
4316.269, 15093.24
4318.197, 15103.18
4320.125, 15124.99
4322.054, 15156.98
4323.982, 15164.64
4325.911, 15154.62
4327.839, 15139.98
4329.768, 15142.02
4331.696, 15168.49
4333.625, 15159.91
4335.553, 15157.03
4337.481, 15237.39
4339.410, 15245.39
4341.338, 15181.10
4343.267, 15262.66
4345.195, 15334.93
4347.124, 15286.51
4349.052, 15245.45
4350.981, 15233.43
4352.909, 15299.43
4354.838, 15327.03
4356.766, 15276.55
4358.695, 15242.60
4360.623, 15237.91
4362.552, 15298.61
4364.480, 15292.60
4366.409, 15225.95
4368.337, 15310.50
4370.266, 15404.43
4372.194, 15403.97
4374.123, 15386.30
4376.051, 15370.81
4377.979, 15414.29
4379.908, 15426.64
4381.836, 15374.14
4383.765, 15355.55
4385.693, 15393.55
4387.622, 15564.12
4389.550, 15586.48
4391.479, 15472.24
4393.407, 15378.55
4395.335, 15347.96
4397.264, 15401.21
4399.192, 15474.88
4401.121, 15529.01
4403.049, 15495.79
4404.978, 15483.15
4406.906, 15500.93
4408.835, 15488.41
4410.763, 15489.51
4412.692, 15537.38
4414.620, 15561.14
4416.549, 15569.96
4418.477, 15590.12
4420.406, 15613.44
4422.334, 15634.61
4424.263, 15546.05
4426.191, 15479.25
4428.120, 15559.77
4430.048, 15635.84
4431.977, 15681.17
4433.905, 15626.39
4435.833, 15604.94
4437.762, 15650.96
4439.690, 15652.20
4441.619, 15645.79
4443.547, 15670.21
4445.476, 15640.18
4447.404, 15588.47
4449.333, 15641.81
4451.261, 15658.15
4453.189, 15599.30
4455.118, 15618.51
4457.046, 15662.69
4458.975, 15685.41
4460.903, 15680.72
4462.832, 15676.51
4464.760, 15797.28
4466.689, 15831.68
4468.617, 15711.18
4470.546, 15704.34
4472.474, 15724.08
4474.403, 15695.42
4476.331, 15747.03
4478.260, 15829.36
4480.188, 15791.55
4482.117, 15747.67
4484.045, 15730.58
4485.974, 15777.93
4487.902, 15830.62
4489.831, 15835.35
4491.759, 15870.53
4493.688, 15901.31
4495.616, 15817.50
4497.544, 15808.83
4499.473, 15892.55
4501.401, 15759.49
4503.330, 15718.20
4505.258, 15942.16
4507.187, 15998.52
4509.115, 15955.85
4511.043, 15915.82
4512.972, 15935.31
4514.900, 15994.26
4516.829, 15982.97
4518.757, 15952.84
4520.686, 15923.91
4522.614, 15869.02
4524.543, 15867.22
4526.471, 16031.08
4528.400, 16061.11
4530.328, 16000.96
4532.257, 16013.17
4534.185, 16031.68
4536.114, 16040.89
4538.042, 16049.88
4539.971, 16052.35
4541.899, 16044.12
4543.828, 16018.41
4545.756, 15999.51
4547.685, 16023.89
4549.613, 16069.68
4551.542, 16122.02
4553.470, 16131.09
4555.398, 16140.25
4557.327, 16160.16
4559.255, 16122.74
4561.184, 16111.58
4563.112, 16223.30
4565.041, 16218.13
4566.969, 16161.58
4568.897, 16200.17
4570.826, 16182.60
4572.754, 16115.94
4574.683, 16166.00
4576.611, 16215.41
4578.540, 16224.59
4580.468, 16206.28
4582.397, 16200.52
4584.325, 16248.03
4586.254, 16270.91
4588.182, 16275.04
4590.111, 16276.60
4592.039, 16268.87
4593.968, 16252.84
4595.896, 16222.46
4597.825, 16232.03
4599.753, 16290.99
4601.682, 16304.58
4603.610, 16297.61
4605.539, 16286.37
4607.467, 16283.54
4609.396, 16280.89
4611.324, 16247.99
4613.252, 16300.13
4615.181, 16395.78
4617.109, 16344.18
4619.038, 16323.48
4620.966, 16370.27
4622.895, 16438.58
4624.823, 16492.73
4626.751, 16525.06
4628.680, 16405.52
4630.608, 16317.67
4632.537, 16468.07
4634.465, 16483.14
4636.394, 16422.08
4638.322, 16433.03
4640.251, 16489.36
4642.179, 16552.53
4644.108, 16485.82
4646.036, 16426.59
4647.965, 16418.89
4649.893, 16478.00
4651.822, 16522.85
4653.750, 16511.48
4655.679, 16482.42
4657.607, 16484.48
4659.536, 16606.74
4661.464, 16586.07
4663.393, 16497.18
4665.321, 16495.15
4667.250, 16523.66
4669.178, 16563.15
4671.106, 16587.18
4673.035, 16579.21
4674.963, 16547.67
4676.892, 16599.08
4678.820, 16636.86
4680.749, 16605.75
4682.677, 16639.63
4684.605, 16681.32
4686.534, 16691.81
4688.462, 16665.66
4690.391, 16639.01
4692.319, 16662.38
4694.248, 16670.92
4696.176, 16675.31
4698.105, 16717.41
4700.033, 16749.04
4701.962, 16758.21
4703.890, 16717.84
4705.819, 16696.76
4707.747, 16709.25
4709.676, 16681.71
4711.604, 16676.05
4713.533, 16719.61
4715.461, 16784.87
4717.390, 16804.27
4719.318, 16726.76
4721.247, 16773.79
4723.175, 16842.25
4725.104, 16794.53
4727.032, 16803.46
4728.960, 16846.68
4730.889, 16877.00
4732.817, 16933.31
4734.746, 16975.06
4736.674, 16858.46
4738.603, 16863.63
4740.531, 16989.69
4742.459, 17041.03
4744.388, 17022.79
4746.316, 16954.14
4748.245, 16907.77
4750.173, 16887.55
4752.102, 16894.63
4754.030, 16967.48
4755.959, 17003.38
4757.887, 16952.69
4759.816, 16993.73
4761.744, 17032.63
4763.673, 16973.99
4765.601, 16991.79
4767.530, 17006.68
4769.458, 16926.45
4771.387, 16917.29
4773.315, 16952.64
4775.244, 16983.03
4777.172, 17022.31
4779.101, 17072.08
4781.029, 17154.24
4782.958, 17136.63
4784.886, 17062.96
4786.814, 17081.78
4788.743, 17077.00
4790.671, 17053.13
4792.600, 17133.08
4794.528, 17133.88
4796.457, 17057.37
4798.385, 17138.55
4800.313, 17167.25
4802.242, 17098.59
4804.170, 17103.26
4806.099, 17119.39
4808.027, 17127.48
4809.956, 17178.29
4811.884, 17192.82
4813.813, 17135.44
4815.741, 17200.39
4817.670, 17225.22
4819.598, 17128.22
4821.527, 17189.35
4823.455, 17261.70
4825.384, 17247.13
4827.312, 17160.29
4829.241, 17121.04
4831.169, 17222.69
4833.098, 17204.71
4835.026, 17171.89
4836.955, 17243.38
4838.883, 17236.67
4840.812, 17223.25
4842.740, 17282.50
4844.668, 17257.73
4846.597, 17215.06
4848.525, 17238.77
4850.454, 17287.35
4852.382, 17318.01
4854.311, 17271.01
4856.239, 17309.45
4858.167, 17386.38
4860.096, 17434.49
4862.024, 17430.46
4863.953, 17399.33
4865.881, 17373.06
4867.810, 17355.23
4869.738, 17357.15
4871.667, 17412.33
4873.595, 17424.85
4875.524, 17405.13
4877.452, 17367.58
4879.381, 17411.13
4881.309, 17468.20
4883.238, 17368.32
4885.166, 17408.79
4887.095, 17504.78
4889.023, 17444.35
4890.952, 17478.13
4892.880, 17567.11
4894.809, 17611.74
4896.737, 17581.79
4898.666, 17532.84
4900.594, 17568.11
4902.522, 17568.27
4904.451, 17554.61
4906.379, 17588.68
4908.308, 17573.38
4910.236, 17553.10
4912.165, 17626.73
4914.093, 17650.37
4916.021, 17659.61
4917.950, 17736.09
4919.878, 17739.47
4921.807, 17698.78
4923.735, 17669.56
4925.664, 17642.76
4927.592, 17632.92
4929.521, 17664.10
4931.449, 17685.15
4933.378, 17695.71
4935.306, 17706.26
4937.235, 17645.13
4939.163, 17590.09
4941.092, 17633.86
4943.020, 17675.95
4944.949, 17692.98
4946.877, 17666.02
4948.806, 17668.15
4950.734, 17684.66
4952.663, 17698.65
4954.591, 17726.61
4956.520, 17746.16
4958.448, 17742.80
4960.376, 17784.58
4962.305, 17852.48
4964.233, 17933.67
4966.162, 17854.47
4968.090, 17783.01
4970.019, 17805.31
4971.947, 17818.40
4973.875, 17810.43
4975.804, 17787.28
4977.732, 17840.22
4979.661, 17886.16
4981.589, 17893.85
4983.518, 17841.11
4985.446, 17842.63
4987.375, 17892.68
4989.303, 17801.61
4991.232, 17821.59
4993.160, 17939.42
4995.089, 17947.74
4997.017, 17884.48
4998.946, 17823.28
5000.874, 17920.45
5002.803, 18024.70
5004.731, 18076.17
5006.660, 17982.05
5008.588, 17985.63
5010.517, 18009.64
5012.445, 17924.80
5014.374, 17871.36
5016.302, 17903.44
5018.230, 18067.60
5020.159, 18179.82
5022.087, 18175.45
5024.016, 17981.98
5025.944, 17930.96
5027.873, 18001.95
5029.801, 18156.85
5031.729, 18059.10
5033.658, 18021.70
5035.586, 18129.40
5037.515, 18113.79
5039.443, 18071.52
5041.372, 18036.88
5043.300, 18031.73
5045.229, 18026.51
5047.157, 18021.06
5049.086, 18008.42
5051.014, 18098.19
5052.943, 18210.25
5054.871, 18203.99
5056.800, 18190.34
5058.728, 18189.76
5060.657, 18216.10
5062.585, 18125.21
5064.514, 18055.15
5066.442, 18108.81
5068.371, 18179.38
5070.299, 18201.51
5072.228, 18158.29
5074.156, 18167.16
5076.084, 18215.33
5078.013, 18267.04
5079.941, 18189.36
5081.870, 18154.70
5083.798, 18177.30
5085.727, 18227.85
5087.655, 18228.12
5089.583, 18217.19
5091.512, 18263.83
5093.440, 18218.92
5095.369, 18150.13
5097.297, 18113.18
5099.226, 18209.56
5101.154, 18264.29
5103.083, 18205.24
5105.011, 18184.80
5106.940, 18210.44
5108.868, 18275.10
5110.797, 18375.80
5112.725, 18405.63
5114.654, 18359.36
5116.582, 18239.96
5118.511, 18181.98
5120.439, 18207.52
5122.368, 18332.45
5124.296, 18346.71
5126.225, 18340.53
5128.153, 18388.39
5130.082, 18342.25
5132.010, 18279.98
5133.938, 18242.70
5135.867, 18295.36
5137.795, 18346.82
5139.724, 18378.48
5141.652, 18402.72
5143.581, 18383.25
5145.509, 18349.05
5147.438, 18329.53
5149.366, 18396.70
5151.294, 18446.13
5153.223, 18414.62
5155.151, 18464.95
5157.080, 18462.05
5159.008, 18389.63
5160.937, 18470.72
5162.865, 18567.33
5164.794, 18615.40
5166.722, 18527.82
5168.651, 18516.11
5170.579, 18549.44
5172.508, 18572.34
5174.436, 18526.56
5176.365, 18488.73
5178.293, 18502.16
5180.222, 18524.84
5182.150, 18573.55
5184.079, 18636.99
5186.007, 18679.74
5187.936, 18626.38
5189.864, 18546.99
5191.792, 18541.81
5193.721, 18633.71
5195.649, 18717.30
5197.578, 18722.38
5199.506, 18650.33
5201.435, 18660.12
5203.363, 18748.49
5205.292, 18700.41
5207.220, 18623.14
5209.148, 18573.14
5211.077, 18610.58
5213.005, 18703.57
5214.934, 18765.26
5216.862, 18738.05
5218.791, 18713.75
5220.719, 18707.72
5222.648, 18717.18
5224.576, 18703.11
5226.505, 18757.89
5228.433, 18831.27
5230.362, 18819.36
5232.290, 18835.10
5234.219, 18807.41
5236.147, 18703.13
5238.076, 18814.78
5240.004, 18870.85
5241.933, 18822.07
5243.861, 18753.40
5245.790, 18804.94
5247.718, 18872.65
5249.646, 18781.51
5251.575, 18834.88
5253.503, 18928.12
5255.432, 18987.58
5257.360, 18878.51
5259.289, 18912.70
5261.217, 19030.90
5263.146, 18940.45
5265.074, 18878.67
5267.002, 18882.46
5268.931, 18971.05
5270.859, 18997.85
5272.788, 19013.11
5274.716, 19030.51
5276.645, 19029.92
5278.573, 19013.91
5280.502, 19011.59
5282.430, 19081.58
5284.359, 18983.24
5286.287, 18927.82
5288.216, 19003.91
5290.144, 19013.56
5292.073, 18981.57
5294.001, 18942.67
5295.930, 18939.46
5297.858, 19014.26
5299.787, 19067.83
5301.715, 19033.72
5303.644, 19069.92
5305.572, 19113.17
5307.500, 19134.12
5309.429, 19104.95
5311.357, 19088.22
5313.286, 19084.28
5315.214, 19086.62
5317.143, 19086.87
5319.071, 19126.17
5321.000, 19189.64
5322.928, 19190.91
5324.856, 19147.42
5326.785, 19103.10
5328.713, 19095.82
5330.642, 19182.28
5332.570, 19195.62
5334.499, 19120.64
5336.427, 19092.01
5338.356, 19135.32
5340.284, 19173.25
5342.213, 19097.50
5344.141, 19284.75
5346.070, 19355.98
5347.998, 19241.18
5349.927, 19198.72
5351.855, 19228.96
5353.784, 19264.47
5355.712, 19241.85
5357.641, 19164.71
5359.569, 19154.09
5361.498, 19213.03
5363.426, 19198.95
5365.354, 19178.49
5367.283, 19151.87
5369.211, 19113.77
5371.140, 19298.02
5373.068, 19357.61
5374.997, 19282.13
5376.925, 19349.96
5378.854, 19338.43
5380.782, 19295.92
5382.710, 19276.77
5384.639, 19324.12
5386.567, 19334.91
5388.496, 19325.64
5390.424, 19395.73
5392.353, 19421.05
5394.281, 19386.18
5396.210, 19316.74
5398.138, 19387.50
5400.067, 19472.66
5401.995, 19512.77
5403.924, 19448.26
5405.852, 19402.60
5407.781, 19386.81
5409.709, 19405.13
5411.638, 19487.10
5413.566, 19438.29
5415.495, 19404.17
5417.423, 19539.96
5419.352, 19511.55
5421.280, 19482.27
5423.208, 19497.32
5425.137, 19515.51
5427.065, 19567.28
5428.994, 19572.25
5430.922, 19491.63
5432.851, 19454.02
5434.779, 19553.36
5436.708, 19664.42
5438.636, 19601.47
5440.564, 19565.35
5442.493, 19577.59
5444.421, 19613.84
5446.350, 19569.29
5448.278, 19662.10
5450.207, 19687.56
5452.135, 19486.04
5454.064, 19641.54
5455.992, 19669.17
5457.921, 19607.50
5459.849, 19697.16
5461.778, 19748.31
5463.706, 19697.42
5465.635, 19586.17
5467.563, 19611.52
5469.492, 19669.20
5471.420, 19732.28
5473.349, 19788.57
5475.277, 19701.16
5477.206, 19671.92
5479.134, 19689.37
5481.063, 19668.15
5482.991, 19682.10
5484.919, 19694.94
5486.848, 19701.88
5488.776, 19732.01
5490.705, 19766.86
5492.633, 19825.61
5494.562, 19895.67
5496.490, 19726.97
5498.418, 19779.16
5500.347, 19891.00
5502.275, 19785.85
5504.204, 19792.06
5506.132, 19837.40
5508.061, 19873.12
5509.989, 19857.22
5511.918, 19787.22
5513.846, 19781.68
5515.775, 19843.33
5517.703, 19796.03
5519.632, 19795.28
5521.560, 19816.29
5523.489, 19843.22
5525.417, 20098.88
5527.346, 20035.19
5529.274, 19868.72
5531.203, 19926.33
5533.131, 19824.42
5535.060, 19810.21
5536.988, 19888.18
5538.917, 19962.17
5540.845, 19985.99
5542.773, 19952.89
5544.702, 19897.10
5546.630, 19895.57
5548.559, 19986.39
5550.487, 20006.30
5552.416, 19920.78
5554.344, 19982.12
5556.272, 20025.62
5558.201, 20020.64
5560.129, 19971.57
5562.058, 19937.96
5563.986, 20016.66
5565.915, 20067.66
5567.843, 19964.71
5569.772, 19940.69
5571.700, 19976.37
5573.629, 19999.53
5575.557, 19925.98
5577.486, 19997.62
5579.414, 20071.14
5581.343, 20093.30
5583.271, 20043.29
5585.200, 20075.59
5587.128, 20076.95
5589.057, 20030.76
5590.985, 19990.61
5592.914, 20089.09
5594.842, 20145.09
5596.771, 20115.60
5598.699, 20138.96
5600.627, 20062.52
5602.556, 20029.82
5604.484, 20090.45
5606.413, 20095.41
5608.341, 20098.97
5610.270, 20053.82
5612.198, 19964.52
5614.126, 20060.38
5616.055, 20020.29
5617.983, 20077.44
5619.912, 20343.74
5621.840, 20278.42
5623.769, 20256.67
5625.697, 20259.24
5627.626, 20220.46
5629.554, 20116.78
5631.483, 20095.28
5633.411, 20134.20
5635.340, 20181.33
5637.268, 20037.93
5639.197, 20115.88
5641.125, 20262.22
5643.054, 20275.57
5644.982, 20062.57
5646.911, 20153.06
5648.839, 20262.07
5650.768, 20074.60
5652.696, 20155.04
5654.625, 20217.14
5656.553, 20223.42
5658.481, 20205.48
5660.410, 20238.72
5662.338, 20283.11
5664.267, 20295.75
5666.195, 20250.62
5668.124, 20152.62
5670.052, 20139.36
5671.980, 20221.73
5673.909, 20371.59
5675.837, 20353.83
5677.766, 20288.09
5679.694, 20303.83
5681.623, 20445.40
5683.551, 20287.29
5685.480, 20331.50
5687.408, 20370.41
5689.337, 20243.04
5691.265, 20301.29
5693.194, 20351.10
5695.122, 20380.44
5697.051, 20391.92
5698.979, 20312.52
5700.908, 20359.45
5702.836, 20376.08
5704.765, 20312.55
5706.693, 20413.72
5708.622, 20517.65
5710.550, 20475.47
5712.479, 20324.69
5714.407, 20400.39
5716.335, 20394.71
5718.264, 20368.79
5720.192, 20366.18
5722.121, 20401.97
5724.049, 20425.33
5725.978, 20439.50
5727.906, 20434.39
5729.834, 20391.65
5731.763, 20395.57
5733.691, 20455.91
5735.620, 20494.51
5737.548, 20434.02
5739.477, 20537.36
5741.405, 20500.27
5743.334, 20464.28
5745.262, 20589.40
5747.191, 20426.91
5749.119, 20475.82
5751.048, 20504.60
5752.976, 20363.36
5754.905, 20567.70
5756.833, 20519.69
5758.762, 20449.90
5760.690, 20485.74
5762.619, 20511.54
5764.547, 20582.08
5766.476, 20569.26
5768.404, 20501.06
5770.333, 20515.61
5772.261, 20636.58
5774.189, 20631.27
5776.118, 20551.50
5778.046, 20535.62
5779.975, 20591.70
5781.903, 20634.61
5783.832, 20635.69
5785.760, 20598.73
5787.688, 20581.50
5789.617, 20600.35
5791.545, 20639.23
5793.474, 20670.86
5795.402, 20625.03
5797.331, 20686.49
5799.259, 20661.23
5801.188, 20607.02
5803.116, 20773.91
5805.045, 20862.92
5806.973, 20830.28
5808.902, 20758.91
5810.830, 20735.61
5812.759, 20720.63
5814.687, 20629.62
5816.616, 20628.14
5818.544, 20748.17
5820.473, 20757.37
5822.401, 20838.96
5824.330, 20833.99
5826.258, 20770.91
5828.187, 20786.71
5830.115, 20760.59
5832.043, 20754.28
5833.972, 20759.43
5835.900, 20758.89
5837.829, 20794.63
5839.757, 20716.24
5841.686, 20701.07
5843.614, 20771.00
5845.542, 20708.51
5847.471, 20656.33
5849.399, 20795.90
5851.328, 20971.79
5853.256, 20945.86
5855.185, 20909.25
5857.113, 20803.19
5859.042, 20744.90
5860.970, 20779.03
5862.899, 20782.96
5864.827, 20854.38
5866.756, 20844.28
5868.684, 20826.29
5870.613, 20971.04
5872.541, 20898.78
5874.470, 20823.28
5876.398, 20805.31
5878.327, 20821.05
5880.255, 20747.46
5882.184, 20801.97
5884.112, 20837.83
5886.041, 20887.30
5887.969, 21053.84
5889.897, 20895.90
5891.826, 20985.98
5893.754, 21103.65
5895.683, 21049.01
5897.611, 20939.37
5899.540, 20894.65
5901.468, 20950.69
5903.396, 21015.56
5905.325, 20984.30
5907.253, 21016.08
5909.182, 21063.92
5911.110, 21058.96
5913.039, 21001.60
5914.967, 20986.28
5916.896, 21044.36
5918.824, 21035.09
5920.753, 21032.60
5922.681, 21126.30
5924.610, 21009.94
5926.538, 21030.48
5928.467, 21042.09
5930.395, 21006.25
5932.324, 21014.43
5934.252, 21191.47
5936.181, 21130.50
5938.109, 21073.12
5940.038, 21173.57
5941.966, 21057.71
5943.895, 21125.63
5945.823, 21136.48
5947.751, 21087.39
5949.680, 21081.49
5951.608, 21073.44
5953.537, 21099.38
5955.465, 21146.13
5957.394, 21183.56
5959.322, 21175.91
5961.250, 21074.72
5963.179, 21006.07
5965.107, 21087.90
5967.036, 21241.60
5968.964, 21079.15
5970.893, 21052.01
5972.821, 21111.99
5974.750, 21148.08
5976.678, 21110.14
5978.607, 21132.42
5980.535, 21140.57
5982.464, 21234.25
5984.392, 21304.18
5986.321, 21194.03
5988.249, 21092.80
5990.178, 21133.87
5992.106, 21175.33
5994.035, 21180.73
5995.963, 21218.71
5997.892, 21165.61
5999.820, 21142.56
6001.749, 21170.99
6003.677, 21236.22
6005.605, 21309.78
6007.534, 21279.83
6009.462, 21176.86
6011.391, 21227.78
6013.319, 21408.39
6015.248, 21232.42
6017.176, 21245.94
6019.104, 21261.64
6021.033, 21241.53
6022.961, 21232.99
6024.890, 21334.13
6026.818, 21335.54
6028.747, 21243.08
6030.675, 21190.73
6032.604, 21258.97
6034.532, 21345.98
6036.461, 21234.77
6038.389, 21265.59
6040.318, 21394.39
6042.246, 21442.30
6044.175, 21280.40
6046.103, 21385.04
6048.032, 21396.44
6049.960, 21353.55
6051.889, 21418.30
6053.817, 21487.30
6055.746, 21487.18
6057.674, 21485.95
6059.603, 21517.10
6061.531, 21568.18
6063.459, 21561.63
6065.388, 21429.43
6067.316, 21301.94
6069.245, 21237.67
6071.173, 21239.50
6073.102, 21299.01
6075.030, 21392.21
6076.958, 21451.40
6078.887, 21432.26
6080.815, 21367.56
6082.744, 21497.47
6084.672, 21481.94
6086.601, 21477.79
6088.529, 21527.21
6090.458, 21548.69
6092.386, 21241.64
6094.315, 21542.28
6096.243, 21471.09
6098.172, 21334.37
6100.100, 21408.03
6102.029, 21344.02
6103.957, 21445.14
6105.886, 21391.85
6107.814, 21429.86
6109.743, 21560.92
6111.671, 21444.36
6113.600, 21460.89
6115.528, 21497.04
6117.457, 21423.09
6119.385, 21354.11
6121.313, 21480.63
6123.242, 21507.96
6125.170, 21428.96
6127.099, 21343.09
6129.027, 21370.64
6130.956, 21517.68
6132.884, 21432.85
6134.813, 21396.96
6136.741, 21414.95
6138.669, 21469.96
6140.598, 21494.50
6142.526, 21340.10
6144.455, 21209.83
6146.383, 21327.46
6148.312, 21359.38
6150.240, 21323.72
6152.169, 21556.82
6154.097, 21414.70
6156.026, 21441.79
6157.954, 21489.24
6159.883, 21443.84
6161.811, 21339.33
6163.740, 21347.36
6165.668, 21576.35
6167.597, 21546.80
6169.525, 21436.21
6171.454, 21456.16
6173.382, 21518.04
6175.311, 21564.09
6177.239, 21489.48
6179.167, 21354.25
6181.096, 21356.50
6183.024, 21585.74
6184.953, 21387.02
6186.881, 21423.06
6188.810, 21434.65
6190.738, 21443.45
6192.667, 21480.41
6194.595, 21352.30
6196.523, 21308.59
6198.452, 21497.28
6200.380, 21502.80
6202.309, 21356.75
6204.237, 21377.03
6206.166, 21451.16
6208.094, 21516.19
6210.023, 21418.59
6211.951, 21355.71
6213.880, 21412.55
6215.808, 21369.78
6217.737, 21455.68
6219.665, 21332.34
6221.594, 21368.45
6223.522, 21535.92
6225.451, 21578.43
6227.379, 21365.17
6229.308, 21279.61
6231.236, 21369.78
6233.165, 21409.94
6235.093, 21398.25
6237.021, 21520.20
6238.950, 21387.39
6240.878, 21407.87
6242.807, 21400.25
6244.735, 21403.34
6246.664, 21442.83
6248.592, 21390.66
6250.521, 21427.94
6252.449, 21442.52
6254.377, 21371.39
6256.306, 21334.84
6258.234, 21373.29
6260.163, 21252.50
6262.091, 21395.52
6264.020, 21534.71
6265.948, 21488.25
6267.877, 21322.54
6269.805, 21242.07
6271.734, 21454.75
6273.662, 21259.94
6275.591, 21391.85
6277.519, 21520.54
6279.448, 21460.13
6281.376, 21381.89
6283.305, 21570.65
6285.233, 21504.98
6287.162, 21302.96
6289.090, 21235.39
6291.019, 21324.42
6292.947, 21415.55
6294.875, 21427.41
6296.804, 21364.23
6298.732, 21404.39
6300.661, 21424.96
6302.589, 21383.78
6304.518, 21370.64
6306.446, 21481.11
6308.375, 21549.77
6310.303, 21582.63
6312.231, 21534.43
6314.160, 21436.05
6316.088, 21363.40
6318.017, 21282.39
6319.945, 21376.73
6321.874, 21380.81
6323.802, 21457.30
6325.731, 21524.71
6327.659, 21401.09
6329.588, 21311.21
6331.516, 21401.64
6333.445, 21325.74
6335.373, 21398.43
6337.302, 21506.48
6339.230, 21393.41
6341.159, 21263.66
6343.087, 21403.18
6345.016, 21478.54
6346.944, 21562.83
6348.873, 21546.15
6350.801, 21403.55
6352.729, 21415.11
6354.658, 21508.41
6356.586, 21543.45
6358.515, 21430.96
6360.443, 21358.93
6362.372, 21381.54
6364.300, 21358.32
6366.229, 21399.39
6368.157, 21436.13
6370.085, 21399.68
6372.014, 21395.40
6373.942, 21412.46
6375.871, 21390.52
6377.799, 21412.24
6379.728, 21472.43
6381.656, 21294.58
6383.585, 21386.96
6385.513, 21508.18
6387.442, 21434.49
6389.370, 21465.17
6391.299, 21488.41
6393.227, 21523.51
6395.156, 21378.76
6397.084, 21374.16
6399.013, 21441.46
6400.941, 21331.76
6402.870, 21471.36
6404.798, 21342.34
6406.727, 21404.54
6408.655, 21449.17
6410.583, 21386.89
6412.512, 21358.90
6414.440, 21502.15
6416.369, 21385.15
6418.297, 21457.70
6420.226, 21472.69
6422.154, 21501.35
6424.083, 21527.42
6426.011, 21508.73
6427.939, 21543.12
6429.868, 21562.01
6431.796, 21444.70
6433.725, 21497.21
6435.653, 21503.08
6437.582, 21503.36
6439.510, 21646.97
6441.439, 21440.66
6443.367, 21429.86
6445.296, 21523.00
6447.224, 21565.41
6449.153, 21538.61
6451.081, 21479.45
6453.010, 21452.30
6454.938, 21587.51
6456.867, 21489.42
6458.795, 21476.39
6460.724, 21558.53
6462.652, 21595.53
6464.581, 21551.59
6466.509, 21507.81
6468.438, 21509.53
6470.366, 21488.53
6472.294, 21405.08
6474.223, 21561.86
6476.151, 21653.29
6478.080, 21555.97
6480.008, 21503.75
6481.937, 21520.29
6483.865, 21520.96
6485.793, 21567.86
6487.722, 21454.05
6489.650, 21482.41
6491.579, 21686.62
6493.507, 21746.06
6495.436, 21546.42
6497.364, 21561.43
6499.293, 21590.43
6501.221, 21614.42
6503.150, 21634.92
6505.078, 21629.22
6507.007, 21605.09
6508.935, 21645.89
6510.864, 21613.29
6512.792, 21578.47
6514.721, 21556.08
6516.649, 21644.55
6518.578, 21641.41
6520.506, 21512.40
##END=



