##NAMES=Cordierite
##RRUFFID=R040081
##IDEAL CHEMISTRY=Mg_2_Al_4_Si_5_O_18_
##LOCALITY=Laramie Range, Wyoming, USA
##OWNER=RRUFF
##SOURCE=University of Arizona Mineral Museum
##DESCRIPTION=Blue to purple coarsely crystalline
##STATUS=The identification of this mineral has been confirmed by X-ray diffraction and chemical analysis
##URL=https://www.rruff.net/odr/rruff_sample/R040081
##MEASURED CHEMISTRY=(Mg_1.80_Fe^2+^_0.20_)Al_4.00_(Si_4.96_Al_0.04_)O_182_O·Na_0.04_ ; H_2_O estimated by difference and verified by Raman spectroscopy
##DIFFRACTION SAMPLE DESCRIPTION=Powder
##CELL PARAMETERS=a: 17.0777 b: 9.73 c: 9.347 alpha: 90 beta: 90 gamma: 90 volume: 1553.2 crystal system: orthorhombic
##FILETYPE=Raman RAW
##RAMAN WAVELENGTH=532

86.13044, 67.54966
88.05891, 68.36651
89.98737, 66.62437
91.91584, 66.10019
93.84431, 67.14729
95.77277, 69.43254
97.70124, 72.26659
99.62971, 72.77046
101.5582, 76.07492
103.4866, 83.78368
105.4151, 94.17139
107.3436, 113.6104
109.2720, 143.5816
111.2005, 183.0636
113.1290, 234.4982
115.0574, 303.4478
116.9859, 378.5429
118.9144, 452.4897
120.8428, 523.0133
122.7713, 597.9205
124.6998, 679.9730
126.6283, 769.3881
128.5567, 857.9305
130.4852, 946.2733
132.4137, 1033.025
134.3421, 1117.243
136.2706, 1195.519
138.1991, 1274.123
140.1275, 1353.357
142.0560, 1394.620
143.9845, 1459.070
145.9129, 1456.214
147.8414, 1454.825
149.7699, 1456.338
151.6983, 1463.214
153.6268, 1468.391
155.5553, 1470.897
157.4837, 1471.576
159.4122, 1469.194
161.3407, 1462.778
163.2691, 1454.580
165.1976, 1447.125
167.1261, 1439.250
169.0545, 1433.687
170.9830, 1430.931
172.9115, 1431.284
174.8399, 1432.184
176.7684, 1433.097
178.6969, 1434.553
180.6253, 1436.932
182.5538, 1441.591
184.4823, 1445.570
186.4107, 1447.412
188.3392, 1446.982
190.2677, 1447.817
192.1961, 1451.925
194.1246, 1457.424
196.0531, 1461.507
197.9815, 1461.338
199.9100, 1462.499
201.8385, 1467.421
203.7669, 1475.917
205.6954, 1484.688
207.6239, 1493.059
209.5523, 1501.175
211.4808, 1509.240
213.4093, 1516.381
215.3377, 1524.505
217.2662, 1533.795
219.1947, 1544.135
221.1231, 1555.026
223.0516, 1565.374
224.9801, 1576.715
226.9085, 1591.194
228.8370, 1611.310
230.7655, 1630.856
232.6939, 1648.295
234.6224, 1663.855
236.5509, 1678.799
238.4793, 1691.953
240.4078, 1704.602
242.3363, 1717.712
244.2647, 1727.966
246.1932, 1742.185
248.1217, 1765.512
250.0501, 1796.146
251.9786, 1821.328
253.9071, 1836.445
255.8355, 1847.585
257.7640, 1857.913
259.6925, 1871.601
261.6209, 1879.822
263.5494, 1876.958
265.4779, 1864.174
267.4063, 1851.450
269.3348, 1840.656
271.2633, 1830.881
273.1917, 1820.906
275.1202, 1808.661
277.0487, 1803.392
278.9771, 1810.884
280.9056, 1827.266
282.8341, 1839.676
284.7625, 1845.871
286.6910, 1851.049
288.6195, 1857.114
290.5479, 1864.473
292.4764, 1870.965
294.4049, 1875.786
296.3333, 1879.125
298.2618, 1880.621
300.1903, 1879.940
302.1187, 1877.985
304.0472, 1875.401
305.9757, 1871.892
307.9041, 1867.967
309.8326, 1862.595
311.7611, 1857.968
313.6895, 1857.451
315.6180, 1862.829
317.5465, 1867.794
319.4749, 1869.013
321.4034, 1866.518
323.3319, 1866.683
325.2603, 1871.754
327.1888, 1878.254
329.1173, 1882.112
331.0457, 1881.576
332.9742, 1882.382
334.9027, 1887.433
336.8311, 1895.463
338.7596, 1902.695
340.6881, 1909.144
342.6165, 1914.370
344.5450, 1918.789
346.4735, 1922.622
348.4019, 1926.466
350.3304, 1928.364
352.2589, 1930.052
354.1873, 1934.429
356.1158, 1943.230
358.0443, 1951.393
359.9727, 1957.646
361.9012, 1964.313
363.8297, 1967.892
365.7581, 1974.369
367.6866, 1979.378
369.6151, 1982.087
371.5435, 1982.411
373.4720, 1981.052
375.4005, 1978.099
377.3289, 1974.518
379.2574, 1971.853
381.1859, 1969.481
383.1143, 1968.211
385.0428, 1970.476
386.9713, 1977.591
388.8997, 1984.052
390.8282, 1986.547
392.7567, 1987.417
394.6852, 1989.044
396.6136, 1991.586
398.5421, 1995.884
400.4706, 2003.283
402.3990, 2012.062
404.3275, 2017.240
406.2560, 2015.187
408.1844, 2015.614
410.1129, 2021.018
412.0414, 2030.523
413.9698, 2040.231
415.8983, 2053.931
417.8268, 2068.656
419.7552, 2080.744
421.6837, 2089.112
423.6122, 2097.484
425.5406, 2106.513
427.4691, 2116.286
429.3976, 2126.455
431.3260, 2136.005
433.2545, 2140.128
435.1830, 2138.134
437.1115, 2132.171
439.0399, 2127.956
440.9684, 2127.297
442.8969, 2130.150
444.8253, 2136.441
446.7538, 2147.451
448.6823, 2156.601
450.6107, 2161.533
452.5392, 2163.826
454.4677, 2166.739
456.3961, 2173.385
458.3246, 2180.576
460.2531, 2186.492
462.1815, 2189.991
464.1100, 2191.869
466.0385, 2191.645
467.9669, 2192.077
469.8954, 2194.736
471.8239, 2200.481
473.7523, 2206.586
475.6808, 2213.428
477.6093, 2221.909
479.5377, 2232.454
481.4662, 2242.691
483.3947, 2249.130
485.3231, 2253.438
487.2516, 2257.613
489.1801, 2261.837
491.1085, 2262.658
493.0370, 2262.369
494.9655, 2261.962
496.8939, 2261.968
498.8224, 2264.438
500.7509, 2272.091
502.6793, 2281.591
504.6078, 2289.787
506.5363, 2295.126
508.4647, 2299.300
510.3932, 2301.389
512.3217, 2303.366
514.2501, 2308.802
516.1786, 2319.695
518.1071, 2331.021
520.0355, 2341.959
521.9640, 2353.373
523.8925, 2365.767
525.8209, 2377.557
527.7494, 2390.834
529.6779, 2406.699
531.6063, 2426.804
533.5348, 2449.977
535.4633, 2475.370
537.3917, 2504.504
539.3202, 2538.607
541.2487, 2575.579
543.1771, 2616.797
545.1056, 2666.494
547.0341, 2722.606
548.9625, 2776.720
550.8910, 2828.677
552.8195, 2876.902
554.7479, 2919.375
556.6764, 2949.459
558.6049, 2967.448
560.5333, 2970.590
562.4618, 2968.538
564.3903, 2963.481
566.3187, 2961.273
568.2472, 2956.156
570.1757, 2948.291
572.1041, 2943.812
574.0326, 2947.329
575.9611, 2956.740
577.8895, 2959.326
579.8180, 2952.988
581.7465, 2935.334
583.6749, 2904.265
585.6034, 2865.157
587.5319, 2824.780
589.4603, 2782.331
591.3888, 2741.327
593.3173, 2708.293
595.2457, 2685.823
597.1742, 2667.361
599.1027, 2652.015
601.0311, 2638.534
602.9596, 2628.349
604.8881, 2624.024
606.8165, 2621.012
608.7450, 2617.079
610.6735, 2611.017
612.6019, 2607.163
614.5304, 2604.756
616.4589, 2603.481
618.3873, 2603.031
620.3158, 2604.315
622.2443, 2607.077
624.1727, 2611.409
626.1012, 2616.611
628.0297, 2623.043
629.9581, 2629.168
631.8866, 2633.350
633.8151, 2634.345
635.7435, 2635.829
637.6720, 2638.522
639.6005, 2643.295
641.5289, 2649.670
643.4574, 2658.315
645.3859, 2667.251
647.3143, 2674.007
649.2428, 2677.435
651.1713, 2682.611
653.0997, 2691.085
655.0282, 2702.558
656.9567, 2715.783
658.8851, 2731.518
660.8136, 2748.590
662.7421, 2766.979
664.6705, 2787.469
666.5990, 2809.117
668.5275, 2832.936
670.4559, 2848.913
672.3844, 2855.820
674.3129, 2854.789
676.2413, 2847.532
678.1698, 2832.211
680.0983, 2816.754
682.0267, 2804.686
683.9552, 2796.552
685.8837, 2789.699
687.8121, 2781.763
689.7406, 2777.204
691.6691, 2778.860
693.5975, 2786.634
695.5260, 2794.034
697.4545, 2801.566
699.3829, 2808.360
701.3114, 2812.982
703.2399, 2814.532
705.1683, 2816.274
707.0968, 2818.752
709.0253, 2822.104
710.9537, 2826.424
712.8822, 2831.941
714.8107, 2837.373
716.7391, 2843.237
718.6676, 2848.874
720.5961, 2853.713
722.5245, 2857.441
724.4530, 2860.566
726.3815, 2863.198
728.3099, 2865.956
730.2384, 2868.625
732.1669, 2872.126
734.0953, 2875.666
736.0238, 2878.019
737.9523, 2880.090
739.8807, 2884.030
741.8092, 2890.488
743.7377, 2895.916
745.6661, 2899.707
747.5946, 2902.790
749.5231, 2904.818
751.4515, 2905.384
753.3800, 2906.020
755.3085, 2907.802
757.2369, 2910.740
759.1654, 2913.694
761.0939, 2915.605
763.0223, 2918.878
764.9508, 2924.768
766.8793, 2932.278
768.8078, 2938.264
770.7363, 2941.903
772.6647, 2944.706
774.5932, 2945.857
776.5217, 2946.539
778.4501, 2948.523
780.3786, 2955.216
782.3071, 2959.217
784.2355, 2958.422
786.1640, 2955.588
788.0925, 2955.300
790.0209, 2957.719
791.9494, 2961.762
793.8779, 2968.137
795.8063, 2976.395
797.7348, 2984.182
799.6633, 2991.729
801.5917, 2997.754
803.5202, 2999.523
805.4487, 2999.639
807.3771, 3004.421
809.3056, 3015.108
811.2341, 3026.406
813.1625, 3038.348
815.0910, 3049.455
817.0195, 3056.560
818.9479, 3055.024
820.8764, 3055.865
822.8049, 3061.956
824.7333, 3071.092
826.6618, 3078.900
828.5903, 3085.262
830.5187, 3090.583
832.4472, 3094.676
834.3757, 3098.087
836.3041, 3101.030
838.2326, 3102.696
840.1611, 3105.321
842.0895, 3109.738
844.0180, 3115.753
845.9465, 3122.094
847.8749, 3128.330
849.8034, 3134.794
851.7319, 3142.531
853.6603, 3150.228
855.5888, 3155.888
857.5173, 3157.840
859.4457, 3161.371
861.3742, 3167.629
863.3027, 3176.290
865.2311, 3185.663
867.1596, 3194.808
869.0881, 3204.179
871.0165, 3214.651
872.9450, 3224.994
874.8735, 3232.959
876.8019, 3237.168
878.7304, 3242.751
880.6589, 3252.230
882.5873, 3262.167
884.5158, 3269.688
886.4443, 3274.471
888.3727, 3280.370
890.3012, 3288.147
892.2297, 3297.227
894.1581, 3307.447
896.0866, 3318.647
898.0151, 3328.918
899.9435, 3338.100
901.8720, 3346.836
903.8005, 3353.741
905.7289, 3356.957
907.6574, 3361.697
909.5859, 3368.841
911.5143, 3376.250
913.4428, 3382.562
915.3713, 3387.080
917.2997, 3390.547
919.2282, 3391.829
921.1567, 3395.599
923.0851, 3404.266
925.0136, 3414.577
926.9421, 3421.858
928.8705, 3424.364
930.7990, 3427.991
932.7275, 3435.707
934.6559, 3449.435
936.5844, 3458.833
938.5129, 3458.297
940.4413, 3460.509
942.3698, 3472.705
944.2983, 3491.085
946.2267, 3511.269
948.1552, 3533.085
950.0837, 3552.791
952.0121, 3568.859
953.9406, 3586.257
955.8691, 3601.756
957.7975, 3612.659
959.7260, 3628.820
961.6545, 3654.458
963.5829, 3683.110
965.5114, 3715.958
967.4399, 3752.792
969.3683, 3784.348
971.2968, 3813.478
973.2253, 3837.861
975.1537, 3847.477
977.0822, 3838.308
979.0107, 3822.366
980.9391, 3793.939
982.8676, 3761.629
984.7961, 3733.726
986.7245, 3711.439
988.6530, 3691.582
990.5815, 3672.536
992.5099, 3660.486
994.4384, 3659.154
996.3669, 3665.642
998.2953, 3673.425
1000.224, 3679.491
1002.152, 3684.185
1004.081, 3688.327
1006.009, 3695.453
1007.938, 3701.992
1009.866, 3708.663
1011.795, 3715.660
1013.723, 3725.447
1015.652, 3732.906
1017.580, 3733.337
1019.508, 3722.186
1021.437, 3712.079
1023.365, 3707.399
1025.294, 3708.105
1027.222, 3711.913
1029.151, 3715.685
1031.079, 3717.268
1033.008, 3716.724
1034.936, 3718.406
1036.865, 3724.460
1038.793, 3729.856
1040.722, 3734.195
1042.650, 3739.596
1044.579, 3744.239
1046.507, 3746.109
1048.436, 3745.961
1050.364, 3748.171
1052.292, 3751.419
1054.221, 3757.107
1056.149, 3767.481
1058.078, 3780.899
1060.006, 3791.889
1061.935, 3798.244
1063.863, 3805.121
1065.792, 3816.109
1067.720, 3828.842
1069.649, 3839.264
1071.577, 3843.251
1073.506, 3845.219
1075.434, 3847.713
1077.363, 3852.118
1079.291, 3859.607
1081.219, 3868.499
1083.148, 3871.126
1085.076, 3868.133
1087.005, 3869.115
1088.933, 3877.446
1090.862, 3888.883
1092.790, 3899.805
1094.719, 3910.433
1096.647, 3920.816
1098.576, 3929.795
1100.504, 3938.328
1102.433, 3948.032
1104.361, 3961.714
1106.290, 3976.015
1108.218, 3987.492
1110.146, 3994.960
1112.075, 3999.223
1114.003, 4004.110
1115.932, 4006.496
1117.860, 4001.188
1119.789, 3997.872
1121.717, 4000.685
1123.646, 4006.969
1125.574, 4011.995
1127.503, 4014.831
1129.431, 4018.085
1131.360, 4026.513
1133.288, 4038.026
1135.217, 4048.872
1137.145, 4054.878
1139.073, 4062.355
1141.002, 4070.887
1142.930, 4079.958
1144.859, 4092.277
1146.787, 4108.952
1148.716, 4121.367
1150.644, 4127.578
1152.573, 4134.024
1154.501, 4140.950
1156.430, 4150.921
1158.358, 4165.846
1160.287, 4181.810
1162.215, 4194.110
1164.144, 4207.424
1166.072, 4225.345
1168.000, 4248.378
1169.929, 4274.284
1171.857, 4297.564
1173.786, 4319.354
1175.714, 4340.368
1177.643, 4358.835
1179.571, 4376.762
1181.500, 4397.933
1183.428, 4420.117
1185.357, 4430.796
1187.285, 4431.185
1189.214, 4424.993
1191.142, 4412.474
1193.071, 4393.517
1194.999, 4372.860
1196.927, 4353.190
1198.856, 4337.159
1200.784, 4321.094
1202.713, 4312.286
1204.641, 4298.132
1206.570, 4301.437
1208.498, 4303.695
1210.427, 4304.451
1212.355, 4304.330
1214.284, 4302.045
1216.212, 4297.451
1218.141, 4296.930
1220.069, 4304.194
1221.998, 4314.757
1223.926, 4325.782
1225.854, 4335.339
1227.783, 4341.975
1229.711, 4345.350
1231.640, 4346.789
1233.568, 4349.522
1235.497, 4356.428
1237.425, 4365.287
1239.354, 4374.213
1241.282, 4382.247
1243.211, 4389.806
1245.139, 4401.005
1247.068, 4416.919
1248.996, 4433.417
1250.925, 4445.538
1252.853, 4452.146
1254.781, 4456.710
1256.710, 4459.265
1258.638, 4466.702
1260.567, 4481.057
1262.495, 4496.882
1264.424, 4505.730
1266.352, 4506.640
1268.281, 4512.027
1270.209, 4525.851
1272.138, 4538.913
1274.066, 4549.759
1275.995, 4559.878
1277.923, 4570.607
1279.852, 4578.707
1281.780, 4586.603
1283.708, 4593.454
1285.637, 4596.243
1287.565, 4594.904
1289.494, 4589.547
1291.422, 4589.482
1293.351, 4598.927
1295.279, 4606.643
1297.208, 4605.418
1299.136, 4601.577
1301.065, 4609.382
1302.993, 4632.457
1304.922, 4648.386
1306.850, 4646.469
1308.779, 4644.347
1310.707, 4651.901
1312.635, 4668.226
1314.564, 4683.200
1316.492, 4697.198
1318.421, 4705.165
1320.349, 4707.089
1322.278, 4709.920
1324.206, 4716.833
1326.135, 4727.588
1328.063, 4737.585
1329.992, 4747.272
1331.920, 4758.390
1333.849, 4770.996
1335.777, 4782.486
1337.706, 4791.448
1339.634, 4798.943
1341.563, 4806.583
1343.491, 4810.186
1345.419, 4819.634
1347.348, 4821.813
1349.276, 4835.751
1351.205, 4846.932
1353.133, 4854.492
1355.062, 4862.534
1356.990, 4870.728
1358.919, 4878.566
1360.847, 4888.079
1362.776, 4900.326
1364.704, 4913.780
1366.633, 4926.992
1368.561, 4940.313
1370.490, 4955.548
1372.418, 4973.202
1374.346, 4991.548
1376.275, 5010.457
1378.203, 5029.404
1380.132, 5051.211
1382.060, 5067.078
1383.989, 5076.445
1385.917, 5082.653
1387.846, 5084.511
1389.774, 5079.816
1391.703, 5074.021
1393.631, 5069.696
1395.560, 5067.259
1397.488, 5061.923
1399.417, 5055.539
1401.345, 5057.418
1403.273, 5068.766
1405.202, 5080.500
1407.130, 5089.727
1409.059, 5099.955
1410.987, 5112.172
1412.916, 5124.987
1414.844, 5139.288
1416.773, 5155.785
1418.701, 5167.856
1420.630, 5170.167
1422.558, 5172.088
1424.487, 5178.115
1426.415, 5184.728
1428.344, 5188.906
1430.272, 5189.725
1432.200, 5196.339
1434.129, 5216.007
1436.057, 5231.744
1437.986, 5233.596
1439.914, 5228.801
1441.843, 5232.386
1443.771, 5247.201
1445.700, 5261.080
1447.628, 5271.253
1449.557, 5281.307
1451.485, 5294.505
1453.414, 5309.428
1455.342, 5321.225
1457.271, 5329.548
1459.199, 5338.252
1461.127, 5349.627
1463.056, 5358.797
1464.984, 5360.854
1466.913, 5360.418
1468.841, 5365.073
1470.770, 5375.240
1472.698, 5382.672
1474.627, 5383.219
1476.555, 5387.138
1478.484, 5403.090
1480.412, 5421.751
1482.341, 5432.297
1484.269, 5434.357
1486.198, 5437.618
1488.126, 5442.127
1490.054, 5448.236
1491.983, 5457.003
1493.911, 5466.292
1495.840, 5474.183
1497.768, 5480.741
1499.697, 5489.412
1501.625, 5502.843
1503.554, 5514.779
1505.482, 5522.717
1507.411, 5530.299
1509.339, 5541.252
1511.268, 5554.778
1513.196, 5563.808
1515.125, 5563.962
1517.053, 5566.688
1518.981, 5575.431
1520.910, 5584.924
1522.838, 5591.051
1524.767, 5595.558
1526.695, 5604.132
1528.624, 5618.222
1530.552, 5631.278
1532.481, 5642.060
1534.409, 5651.707
1536.338, 5659.536
1538.266, 5666.515
1540.195, 5675.079
1542.123, 5685.167
1544.052, 5692.394
1545.980, 5694.105
1547.908, 5697.203
1549.837, 5704.683
1551.765, 5715.614
1553.694, 5730.960
1555.622, 5749.831
1557.551, 5762.984
1559.479, 5767.186
1561.408, 5771.750
1563.336, 5777.515
1565.265, 5786.183
1567.193, 5800.101
1569.122, 5817.442
1571.050, 5833.200
1572.979, 5847.786
1574.907, 5858.659
1576.835, 5861.798
1578.764, 5866.274
1580.692, 5879.335
1582.621, 5895.041
1584.549, 5901.579
1586.478, 5897.354
1588.406, 5896.262
1590.335, 5900.484
1592.263, 5905.929
1594.192, 5910.937
1596.120, 5917.517
1598.049, 5929.349
1599.977, 5945.558
1601.906, 5954.401
1603.834, 5951.948
1605.762, 5950.667
1607.691, 5950.937
1609.619, 5953.979
1611.548, 5961.269
1613.476, 5971.582
1615.405, 5983.042
1617.333, 5997.533
1619.262, 6008.796
1621.190, 6012.072
1623.119, 6019.418
1625.047, 6035.888
1626.976, 6055.328
1628.904, 6071.417
1630.833, 6083.915
1632.761, 6096.885
1634.689, 6110.101
1636.618, 6121.873
1638.546, 6132.948
1640.475, 6141.112
1642.403, 6144.054
1644.332, 6144.761
1646.260, 6148.895
1648.189, 6158.274
1650.117, 6164.857
1652.046, 6162.938
1653.974, 6168.055
1655.903, 6189.476
1657.831, 6212.413
1659.760, 6222.821
1661.688, 6224.772
1663.616, 6234.927
1665.545, 6258.066
1667.473, 6275.038
1669.402, 6281.292
1671.330, 6285.903
1673.259, 6293.200
1675.187, 6299.364
1677.116, 6298.942
1679.044, 6293.300
1680.973, 6293.464
1682.901, 6303.079
1684.830, 6313.517
1686.758, 6324.506
1688.687, 6337.071
1690.615, 6351.999
1692.543, 6367.838
1694.472, 6381.485
1696.400, 6391.632
1698.329, 6404.838
1700.257, 6423.903
1702.186, 6438.696
1704.114, 6446.413
1706.043, 6451.066
1707.971, 6455.272
1709.900, 6459.019
1711.828, 6462.558
1713.757, 6467.252
1715.685, 6467.501
1717.614, 6452.724
1719.542, 6450.309
1721.470, 6475.856
1723.399, 6503.442
1725.327, 6514.513
1727.256, 6515.028
1729.184, 6517.980
1731.113, 6522.135
1733.041, 6531.722
1734.970, 6551.903
1736.898, 6568.743
1738.827, 6580.040
1740.755, 6587.269
1742.684, 6589.642
1744.612, 6590.137
1746.541, 6595.341
1748.469, 6606.576
1750.397, 6619.351
1752.326, 6635.569
1754.254, 6649.671
1756.183, 6656.374
1758.111, 6663.288
1760.040, 6676.789
1761.968, 6693.541
1763.897, 6707.125
1765.825, 6718.563
1767.754, 6724.004
1769.682, 6716.626
1771.611, 6715.107
1773.539, 6726.440
1775.468, 6739.806
1777.396, 6747.906
1779.324, 6753.349
1781.253, 6761.893
1783.181, 6774.173
1785.110, 6783.392
1787.038, 6785.468
1788.967, 6792.038
1790.895, 6808.082
1792.824, 6824.988
1794.752, 6839.699
1796.681, 6851.815
1798.609, 6860.328
1800.538, 6864.751
1802.466, 6866.771
1804.395, 6863.446
1806.323, 6863.890
1808.251, 6872.663
1810.180, 6881.577
1812.108, 6889.704
1814.037, 6896.249
1815.965, 6897.866
1817.894, 6896.877
1819.822, 6906.401
1821.751, 6928.719
1823.679, 6948.973
1825.608, 6965.631
1827.536, 6979.273
1829.465, 6987.638
1831.393, 6994.830
1833.322, 7006.763
1835.250, 7017.963
1837.178, 7010.980
1839.107, 6986.533
1841.035, 6985.114
1842.964, 7018.620
1844.892, 7046.996
1846.821, 7060.804
1848.749, 7066.551
1850.678, 7062.694
1852.606, 7056.722
1854.535, 7056.742
1856.463, 7061.721
1858.392, 7067.426
1860.320, 7073.463
1862.249, 7082.325
1864.177, 7095.494
1866.105, 7109.692
1868.034, 7128.182
1869.962, 7142.863
1871.891, 7141.995
1873.819, 7134.810
1875.748, 7140.293
1877.676, 7158.331
1879.605, 7176.423
1881.533, 7196.694
1883.462, 7212.302
1885.390, 7221.889
1887.319, 7228.745
1889.247, 7227.765
1891.176, 7230.723
1893.104, 7252.739
1895.032, 7287.233
1896.961, 7312.869
1898.889, 7327.531
1900.818, 7337.123
1902.746, 7337.931
1904.675, 7338.207
1906.603, 7341.826
1908.532, 7343.011
1910.460, 7337.082
1912.389, 7330.940
1914.317, 7332.388
1916.246, 7340.782
1918.174, 7350.554
1920.103, 7361.092
1922.031, 7376.468
1923.959, 7400.443
1925.888, 7418.489
1927.816, 7420.560
1929.745, 7423.466
1931.673, 7441.361
1933.602, 7461.408
1935.530, 7466.370
1937.459, 7462.017
1939.387, 7467.159
1941.316, 7482.538
1943.244, 7501.595
1945.173, 7527.994
1947.101, 7544.640
1949.030, 7536.788
1950.958, 7530.188
1952.886, 7542.702
1954.815, 7560.538
1956.743, 7566.580
1958.672, 7565.465
1960.600, 7573.380
1962.529, 7592.810
1964.457, 7608.512
1966.386, 7616.279
1968.314, 7624.098
1970.243, 7629.173
1972.171, 7636.384
1974.100, 7651.731
1976.028, 7666.823
1977.957, 7672.867
1979.885, 7674.143
1981.813, 7681.906
1983.742, 7696.866
1985.670, 7703.908
1987.599, 7697.358
1989.527, 7702.843
1991.456, 7731.935
1993.384, 7756.819
1995.313, 7763.160
1997.241, 7766.365
1999.170, 7779.970
2001.098, 7795.638
2003.027, 7799.213
2004.955, 7810.187
2006.884, 7818.092
2008.812, 7818.923
2010.741, 7829.683
2012.669, 7824.863
2014.598, 7823.785
2016.526, 7833.690
2018.454, 7843.849
2020.383, 7846.692
2022.311, 7850.410
2024.240, 7865.223
2026.168, 7886.219
2028.097, 7901.143
2030.025, 7909.884
2031.954, 7921.372
2033.882, 7937.281
2035.811, 7950.077
2037.739, 7955.705
2039.668, 7963.595
2041.596, 7977.409
2043.525, 7991.076
2045.453, 8001.128
2047.381, 8008.819
2049.310, 8013.679
2051.238, 8018.227
2053.167, 8031.686
2055.095, 8053.465
2057.024, 8062.196
2058.952, 8053.282
2060.881, 8048.712
2062.809, 8054.854
2064.738, 8060.693
2066.666, 8057.855
2068.594, 8060.013
2070.523, 8078.510
2072.451, 8102.081
2074.380, 8120.638
2076.308, 8134.219
2078.237, 8140.680
2080.165, 8139.530
2082.094, 8147.426
2084.022, 8167.965
2085.951, 8179.932
2087.879, 8175.441
2089.808, 8176.777
2091.736, 8195.813
2093.665, 8213.902
2095.593, 8216.639
2097.521, 8218.748
2099.450, 8236.393
2101.378, 8259.984
2103.307, 8270.572
2105.235, 8269.942
2107.164, 8276.230
2109.092, 8292.189
2111.021, 8304.095
2112.949, 8309.658
2114.878, 8316.295
2116.806, 8326.506
2118.735, 8336.835
2120.663, 8348.387
2122.592, 8358.485
2124.520, 8360.034
2126.448, 8363.325
2128.377, 8383.678
2130.305, 8413.232
2132.234, 8433.138
2134.162, 8443.322
2136.091, 8450.607
2138.019, 8454.510
2139.948, 8458.966
2141.876, 8467.442
2143.805, 8471.480
2145.733, 8462.318
2147.662, 8460.612
2149.590, 8484.065
2151.519, 8507.835
2153.447, 8508.550
2155.375, 8503.893
2157.304, 8518.011
2159.232, 8544.569
2161.161, 8565.332
2163.089, 8580.142
2165.018, 8592.021
2166.946, 8600.479
2168.875, 8611.110
2170.803, 8625.750
2172.732, 8638.666
2174.660, 8650.220
2176.589, 8657.293
2178.517, 8654.054
2180.446, 8651.962
2182.374, 8657.359
2184.302, 8668.482
2186.231, 8688.256
2188.159, 8710.606
2190.088, 8718.690
2192.016, 8715.201
2193.945, 8727.201
2195.873, 8755.980
2197.802, 8779.814
2199.730, 8795.951
2201.659, 8812.952
2203.587, 8833.183
2205.516, 8848.975
2207.444, 8854.035
2209.373, 8858.217
2211.301, 8864.726
2213.229, 8873.980
2215.158, 8888.189
2217.086, 8905.188
2219.015, 8922.782
2220.943, 8940.864
2222.872, 8959.068
2224.800, 8976.818
2226.729, 8990.607
2228.657, 8999.879
2230.586, 9001.643
2232.514, 8992.444
2234.443, 8994.265
2236.371, 9017.594
2238.300, 9037.335
2240.228, 9045.381
2242.156, 9051.911
2244.085, 9058.980
2246.013, 9069.745
2247.942, 9088.398
2249.870, 9109.354
2251.799, 9124.268
2253.727, 9136.530
2255.656, 9154.175
2257.584, 9174.478
2259.513, 9189.288
2261.441, 9198.490
2263.370, 9208.513
2265.298, 9220.880
2267.227, 9230.584
2269.155, 9238.428
2271.083, 9245.425
2273.012, 9249.401
2274.940, 9258.959
2276.869, 9281.586
2278.797, 9302.271
2280.726, 9309.471
2282.654, 9316.234
2284.583, 9330.743
2286.511, 9347.929
2288.440, 9364.092
2290.368, 9378.296
2292.297, 9390.193
2294.225, 9399.939
2296.154, 9406.780
2298.082, 9411.924
2300.010, 9416.371
2301.939, 9417.285
2303.867, 9434.244
2305.796, 9477.594
2307.724, 9510.562
2309.653, 9528.678
2311.581, 9536.376
2313.510, 9523.849
2315.438, 9519.818
2317.367, 9541.776
2319.295, 9565.365
2321.224, 9576.213
2323.152, 9586.539
2325.081, 9609.994
2327.009, 9635.141
2328.938, 9648.225
2330.866, 9653.037
2332.794, 9650.779
2334.723, 9646.619
2336.651, 9668.239
2338.580, 9711.260
2340.508, 9735.388
2342.437, 9739.614
2344.365, 9743.753
2346.294, 9749.205
2348.222, 9756.600
2350.151, 9765.896
2352.079, 9777.898
2354.008, 9795.355
2355.936, 9811.655
2357.865, 9821.885
2359.793, 9836.349
2361.721, 9863.354
2363.650, 9888.571
2365.578, 9902.563
2367.507, 9913.193
2369.435, 9923.981
2371.364, 9936.031
2373.292, 9953.740
2375.221, 9971.601
2377.149, 9977.732
2379.078, 9994.474
2381.006, 10005.22
2382.935, 10015.43
2384.863, 10028.37
2386.792, 10039.68
2388.720, 10054.12
2390.648, 10064.36
2392.577, 10083.38
2394.505, 10096.54
2396.434, 10109.66
2398.362, 10125.82
2400.291, 10135.89
2402.219, 10133.06
2404.148, 10136.69
2406.076, 10157.94
2408.005, 10177.17
2409.933, 10184.49
2411.862, 10196.19
2413.790, 10225.07
2415.719, 10253.33
2417.647, 10264.71
2419.575, 10272.49
2421.504, 10289.29
2423.432, 10308.36
2425.361, 10322.67
2427.289, 10333.42
2429.218, 10342.39
2431.146, 10350.43
2433.075, 10358.48
2435.003, 10367.16
2436.932, 10376.88
2438.860, 10387.80
2440.789, 10402.76
2442.717, 10412.45
2444.646, 10421.42
2446.574, 10434.24
2448.502, 10437.79
2450.431, 10445.72
2452.359, 10456.41
2454.288, 10469.51
2456.216, 10487.03
2458.145, 10509.48
2460.073, 10533.85
2462.002, 10564.11
2463.930, 10585.93
2465.859, 10588.08
2467.787, 10591.49
2469.716, 10605.62
2471.644, 10621.54
2473.573, 10637.45
2475.501, 10652.98
2477.429, 10668.33
2479.358, 10682.81
2481.286, 10689.67
2483.215, 10700.25
2485.143, 10733.27
2487.072, 10741.40
2489.000, 10780.45
2490.929, 10780.82
2492.857, 10803.16
2494.786, 10833.34
2496.714, 10835.10
2498.643, 10820.56
2500.571, 10823.19
2502.500, 10840.70
2504.428, 10863.18
2506.357, 10889.57
2508.285, 10907.46
2510.214, 10926.43
2512.142, 10931.21
2514.071, 10953.06
2515.999, 10965.29
2517.927, 10965.93
2519.856, 10977.63
2521.784, 11008.14
2523.713, 11032.41
2525.641, 11042.14
2527.570, 11058.11
2529.498, 11083.04
2531.427, 11103.79
2533.355, 11116.36
2535.284, 11129.55
2537.212, 11150.20
2539.141, 11162.98
2541.069, 11151.82
2542.998, 11152.96
2544.926, 11191.22
2546.854, 11221.59
2548.783, 11218.73
2550.711, 11220.34
2552.640, 11245.33
2554.568, 11272.05
2556.497, 11289.25
2558.425, 11304.35
2560.354, 11325.14
2562.282, 11343.08
2564.211, 11345.19
2566.139, 11349.33
2568.068, 11374.83
2569.996, 11402.58
2571.925, 11417.05
2573.853, 11423.86
2575.781, 11426.99
2577.710, 11429.13
2579.638, 11430.80
2581.567, 11437.74
2583.495, 11464.34
2585.424, 11498.07
2587.352, 11511.90
2589.281, 11517.31
2591.209, 11534.31
2593.138, 11558.61
2595.066, 11584.38
2596.995, 11609.11
2598.923, 11628.84
2600.852, 11643.30
2602.780, 11651.19
2604.708, 11654.52
2606.637, 11656.45
2608.565, 11659.17
2610.494, 11667.29
2612.422, 11681.14
2614.351, 11694.25
2616.279, 11706.96
2618.208, 11746.15
2620.136, 11807.00
2622.065, 11836.75
2623.993, 11835.31
2625.922, 11841.13
2627.850, 11856.14
2629.779, 11868.68
2631.707, 11879.80
2633.635, 11884.55
2635.564, 11904.18
2637.492, 11899.98
2639.421, 11938.61
2641.349, 11967.44
2643.278, 11982.69
2645.206, 11993.42
2647.135, 11995.80
2649.063, 12009.47
2650.992, 12039.45
2652.920, 12053.82
2654.849, 12049.69
2656.777, 12048.91
2658.706, 12053.79
2660.634, 12065.31
2662.563, 12086.35
2664.491, 12105.53
2666.419, 12120.42
2668.348, 12138.99
2670.276, 12162.64
2672.205, 12180.46
2674.133, 12190.08
2676.062, 12198.42
2677.990, 12205.05
2679.919, 12214.80
2681.847, 12228.23
2683.776, 12247.63
2685.704, 12255.09
2687.633, 12291.55
2689.561, 12279.56
2691.490, 12279.09
2693.418, 12299.39
2695.346, 12323.68
2697.275, 12352.98
2699.203, 12377.78
2701.132, 12397.37
2703.060, 12410.16
2704.989, 12414.87
2706.917, 12422.12
2708.846, 12439.41
2710.774, 12448.57
2712.703, 12438.11
2714.631, 12454.01
2716.560, 12504.64
2718.488, 12551.83
2720.417, 12590.11
2722.345, 12611.92
2724.273, 12603.42
2726.202, 12604.45
2728.130, 12619.75
2730.059, 12639.93
2731.987, 12669.75
2733.916, 12680.01
2735.844, 12660.83
2737.773, 12660.28
2739.701, 12696.98
2741.630, 12718.22
2743.558, 12716.54
2745.487, 12727.13
2747.415, 12753.85
2749.344, 12773.88
2751.272, 12783.40
2753.200, 12799.92
2755.129, 12831.05
2757.057, 12847.19
2758.986, 12845.83
2760.914, 12845.02
2762.843, 12844.76
2764.771, 12860.42
2766.700, 12896.49
2768.628, 12918.46
2770.557, 12924.10
2772.485, 12935.27
2774.414, 12952.27
2776.342, 12964.11
2778.271, 12970.44
2780.199, 12983.49
2782.127, 12991.34
2784.056, 12997.41
2785.984, 13008.48
2787.913, 13010.96
2789.841, 13018.47
2791.770, 13030.82
2793.698, 13035.13
2795.627, 13052.68
2797.555, 13051.84
2799.484, 13057.36
2801.412, 13069.72
2803.341, 13098.40
2805.269, 13132.53
2807.198, 13135.38
2809.126, 13159.98
2811.054, 13143.21
2812.983, 13177.03
2814.911, 13176.42
2816.840, 13161.81
2818.768, 13177.17
2820.697, 13201.73
2822.625, 13205.25
2824.554, 13199.68
2826.482, 13192.68
2828.411, 13196.08
2830.339, 13236.46
2832.268, 13281.07
2834.196, 13291.88
2836.125, 13297.53
2838.053, 13329.33
2839.981, 13357.46
2841.910, 13349.12
2843.838, 13338.65
2845.767, 13347.56
2847.695, 13362.39
2849.624, 13381.76
2851.552, 13398.55
2853.481, 13408.52
2855.409, 13419.20
2857.338, 13427.12
2859.266, 13447.05
2861.195, 13438.08
2863.123, 13433.78
2865.052, 13437.66
2866.980, 13454.96
2868.908, 13462.87
2870.837, 13474.11
2872.765, 13502.55
2874.694, 13502.38
2876.622, 13536.77
2878.551, 13564.24
2880.479, 13582.05
2882.408, 13597.98
2884.336, 13612.52
2886.265, 13626.16
2888.193, 13638.95
2890.122, 13652.26
2892.050, 13665.68
2893.979, 13686.69
2895.907, 13711.67
2897.835, 13714.69
2899.764, 13702.08
2901.692, 13709.40
2903.621, 13730.50
2905.549, 13744.79
2907.478, 13754.46
2909.406, 13755.49
2911.335, 13760.09
2913.263, 13789.90
2915.192, 13828.63
2917.120, 13857.85
2919.049, 13877.61
2920.977, 13885.03
2922.906, 13887.09
2924.834, 13887.00
2926.762, 13890.17
2928.691, 13906.50
2930.619, 13922.14
2932.548, 13929.56
2934.476, 13937.50
2936.405, 13951.65
2938.333, 13958.34
2940.262, 13963.47
2942.190, 13971.52
2944.119, 13965.30
2946.047, 13979.92
2947.976, 13971.54
2949.904, 13970.51
2951.833, 13981.11
2953.761, 14004.06
2955.689, 14040.71
2957.618, 14055.51
2959.546, 14048.86
2961.475, 14039.03
2963.403, 14028.71
2965.332, 14031.45
2967.260, 14045.28
2969.189, 14067.77
2971.117, 14091.74
2973.046, 14105.08
2974.974, 14110.48
2976.903, 14107.83
2978.831, 14106.35
2980.760, 14123.49
2982.688, 14139.00
2984.616, 14132.47
2986.545, 14126.80
2988.473, 14137.33
2990.402, 14146.64
2992.330, 14144.49
2994.259, 14146.67
2996.187, 14164.29
2998.116, 14175.20
3000.044, 14173.65
3001.973, 14172.71
3003.901, 14173.19
3005.830, 14187.42
3007.758, 14218.69
3009.687, 14233.96
3011.615, 14231.05
3013.543, 14228.11
3015.472, 14227.40
3017.400, 14250.19
3019.329, 14285.05
3021.257, 14302.64
3023.186, 14309.66
3025.114, 14313.40
3027.043, 14318.08
3028.971, 14328.37
3030.900, 14339.61
3032.828, 14348.51
3034.757, 14355.66
3036.685, 14363.59
3038.614, 14369.13
3040.542, 14377.43
3042.470, 14374.69
3044.399, 14343.45
3046.327, 14331.99
3048.256, 14346.36
3050.184, 14365.81
3052.113, 14388.08
3054.041, 14401.92
3055.970, 14406.32
3057.898, 14415.21
3059.827, 14427.60
3061.755, 14441.31
3063.684, 14453.87
3065.612, 14455.96
3067.541, 14456.48
3069.469, 14476.59
3071.397, 14495.46
3073.326, 14495.63
3075.254, 14487.79
3077.183, 14472.62
3079.111, 14465.09
3081.040, 14471.23
3082.968, 14483.83
3084.897, 14498.52
3086.825, 14522.21
3088.754, 14528.60
3090.682, 14538.54
3092.611, 14551.53
3094.539, 14548.88
3096.468, 14568.31
3098.396, 14576.26
3100.324, 14575.23
3102.253, 14567.02
3104.181, 14559.04
3106.110, 14563.51
3108.038, 14573.25
3109.967, 14579.17
3111.895, 14586.79
3113.824, 14608.14
3115.752, 14616.23
3117.681, 14583.88
3119.609, 14562.94
3121.538, 14567.04
3123.466, 14587.35
3125.395, 14578.54
3127.323, 14585.38
3129.251, 14594.51
3131.180, 14589.38
3133.108, 14614.02
3135.037, 14627.66
3136.965, 14633.89
3138.894, 14640.92
3140.822, 14650.63
3142.751, 14676.21
3144.679, 14691.29
3146.608, 14660.06
3148.536, 14633.05
3150.465, 14642.90
3152.393, 14658.07
3154.322, 14673.84
3156.250, 14687.07
3158.178, 14699.90
3160.107, 14700.62
3162.035, 14711.16
3163.964, 14723.54
3165.892, 14724.87
3167.821, 14745.82
3169.749, 14759.16
3171.678, 14760.33
3173.606, 14763.04
3175.535, 14796.02
3177.463, 14824.72
3179.392, 14822.11
3181.320, 14808.68
3183.249, 14785.73
3185.177, 14774.35
3187.105, 14784.21
3189.034, 14788.91
3190.962, 14781.90
3192.891, 14790.46
3194.819, 14811.35
3196.748, 14801.00
3198.676, 14773.83
3200.605, 14776.66
3202.533, 14792.75
3204.462, 14796.70
3206.390, 14797.57
3208.319, 14797.76
3210.247, 14804.28
3212.176, 14825.58
3214.104, 14840.35
3216.032, 14841.42
3217.961, 14840.72
3219.889, 14837.63
3221.818, 14845.10
3223.746, 14859.60
3225.675, 14843.76
3227.603, 14812.12
3229.532, 14800.70
3231.460, 14803.81
3233.389, 14818.94
3235.317, 14836.59
3237.246, 14857.36
3239.174, 14864.29
3241.103, 14838.64
3243.031, 14833.92
3244.959, 14865.17
3246.888, 14888.50
3248.816, 14897.36
3250.745, 14913.90
3252.673, 14933.47
3254.602, 14940.96
3256.530, 14940.64
3258.459, 14942.08
3260.387, 14940.25
3262.316, 14931.97
3264.244, 14920.17
3266.173, 14906.20
3268.101, 14890.15
3270.030, 14877.64
3271.958, 14856.84
3273.886, 14849.31
3275.815, 14835.67
3277.743, 14820.01
3279.672, 14839.62
3281.600, 14874.30
3283.529, 14884.39
3285.457, 14891.02
3287.386, 14919.68
3289.314, 14945.14
3291.243, 14950.91
3293.171, 14961.68
3295.100, 14988.18
3297.028, 15006.07
3298.957, 15013.50
3300.885, 14989.90
3302.813, 14995.51
3304.742, 14952.31
3306.670, 14976.94
3308.599, 14984.21
3310.527, 14977.58
3312.456, 14943.76
3314.384, 14927.01
3316.313, 14950.22
3318.241, 14963.06
3320.170, 14947.11
3322.098, 14944.84
3324.027, 14956.31
3325.955, 14974.96
3327.884, 14992.83
3329.812, 14984.79
3331.740, 14968.57
3333.669, 14963.55
3335.597, 14961.11
3337.526, 14956.13
3339.454, 14952.31
3341.383, 14952.78
3343.311, 14945.21
3345.240, 14929.49
3347.168, 14931.85
3349.097, 14926.31
3351.025, 14922.94
3352.954, 14927.18
3354.882, 14924.12
3356.811, 14927.30
3358.739, 14934.97
3360.667, 14942.80
3362.596, 14948.91
3364.524, 14951.39
3366.453, 14948.81
3368.381, 14947.84
3370.310, 14948.58
3372.238, 14953.81
3374.167, 14956.73
3376.095, 14942.07
3378.024, 14924.23
3379.952, 14906.35
3381.881, 14901.42
3383.809, 14921.82
3385.738, 14928.39
3387.666, 14917.22
3389.594, 14904.46
3391.523, 14894.51
3393.451, 14909.08
3395.380, 14932.50
3397.308, 14942.47
3399.237, 14949.56
3401.165, 14962.67
3403.094, 14968.30
3405.022, 14960.61
3406.951, 14950.26
3408.879, 14937.39
3410.808, 14942.18
3412.736, 14954.91
3414.665, 14940.25
3416.593, 14922.30
3418.521, 14940.47
3420.450, 14953.55
3422.378, 14933.24
3424.307, 14918.70
3426.235, 14915.94
3428.164, 14926.56
3430.092, 14948.39
3432.021, 14966.17
3433.949, 14976.50
3435.878, 14963.43
3437.806, 14951.12
3439.735, 14966.63
3441.663, 14973.16
3443.592, 14955.61
3445.520, 14940.72
3447.448, 14932.64
3449.377, 14930.91
3451.305, 14933.21
3453.234, 14929.36
3455.162, 14922.46
3457.091, 14913.67
3459.019, 14908.07
3460.948, 14908.65
3462.876, 14913.01
3464.805, 14924.21
3466.733, 14920.18
3468.662, 14924.53
3470.590, 14929.30
3472.519, 14923.91
3474.447, 14934.35
3476.375, 14932.99
3478.304, 14929.11
3480.232, 14893.22
3482.161, 14897.33
3484.089, 14878.09
3486.018, 14841.72
3487.946, 14853.36
3489.875, 14885.95
3491.803, 14875.79
3493.732, 14860.51
3495.660, 14869.45
3497.589, 14877.75
3499.517, 14876.98
3501.446, 14878.31
3503.374, 14883.25
3505.302, 14905.37
3507.231, 14932.60
3509.159, 14936.97
3511.088, 14926.66
3513.016, 14896.82
3514.945, 14876.37
3516.873, 14877.70
3518.802, 14866.56
3520.730, 14870.26
3522.659, 14852.32
3524.587, 14882.52
3526.516, 14899.77
3528.444, 14904.54
3530.373, 14879.40
3532.301, 14869.63
3534.229, 14888.22
3536.158, 14904.68
3538.086, 14915.32
3540.015, 14907.69
3541.943, 14889.12
3543.872, 14868.34
3545.800, 14855.86
3547.729, 14849.16
3549.657, 14840.94
3551.586, 14839.57
3553.514, 14838.44
3555.443, 14843.20
3557.371, 14849.09
3559.300, 14856.25
3561.228, 14866.71
3563.156, 14877.48
3565.085, 14892.43
3567.013, 14893.06
3568.942, 14873.90
3570.870, 14886.69
3572.799, 14925.74
3574.727, 14963.26
3576.656, 14998.64
3578.584, 15038.49
3580.513, 15061.15
3582.441, 15041.21
3584.370, 15036.90
3586.298, 15051.87
3588.227, 15097.74
3590.155, 15160.26
3592.083, 15210.58
3594.012, 15259.65
3595.940, 15335.16
3597.869, 15370.01
3599.797, 15353.62
3601.726, 15313.10
3603.654, 15252.67
3605.583, 15163.81
3607.511, 15073.47
3609.440, 15000.61
3611.368, 14960.47
3613.297, 14976.83
3615.225, 14974.36
3617.154, 14943.83
3619.082, 14881.81
3621.010, 14807.65
3622.939, 14769.84
3624.867, 14742.21
3626.796, 14703.08
3628.724, 14682.99
3630.653, 14688.87
3632.581, 14697.73
3634.510, 14705.49
3636.438, 14700.92
3638.367, 14688.95
3640.295, 14667.58
3642.224, 14656.21
3644.152, 14643.21
3646.081, 14655.23
3648.009, 14627.36
3649.938, 14619.63
3651.866, 14626.76
3653.794, 14650.62
3655.723, 14662.11
3657.651, 14638.29
3659.580, 14627.86
3661.508, 14638.39
3663.437, 14632.63
3665.365, 14618.89
3667.294, 14619.91
3669.222, 14617.82
3671.151, 14598.36
3673.079, 14578.55
3675.008, 14560.94
3676.936, 14566.18
3678.865, 14586.37
3680.793, 14603.39
3682.721, 14606.47
3684.650, 14573.82
3686.578, 14544.92
3688.507, 14526.31
3690.435, 14543.84
3692.364, 14581.47
3694.292, 14559.27
3696.221, 14518.05
3698.149, 14478.87
3700.078, 14468.58
3702.006, 14498.34
3703.935, 14498.36
3705.863, 14471.49
3707.792, 14440.71
3709.720, 14421.33
3711.648, 14443.11
3713.577, 14449.94
3715.505, 14423.85
3717.434, 14410.85
3719.362, 14411.66
3721.291, 14423.10
3723.219, 14427.60
3725.148, 14393.55
3727.076, 14375.72
3729.005, 14390.53
3730.933, 14405.00
3732.862, 14411.77
3734.790, 14370.64
3736.719, 14323.42
3738.647, 14308.60
3740.575, 14310.83
3742.504, 14327.01
3744.432, 14332.00
3746.361, 14325.24
3748.289, 14311.87
3750.218, 14295.99
3752.146, 14284.33
3754.075, 14265.86
3756.003, 14237.20
3757.932, 14225.91
3759.860, 14228.79
3761.789, 14236.60
3763.717, 14243.55
3765.646, 14251.48
3767.574, 14239.44
3769.502, 14239.87
3771.431, 14229.21
3773.359, 14218.19
3775.288, 14199.62
3777.216, 14173.89
3779.145, 14148.25
3781.073, 14149.34
3783.002, 14177.70
3784.930, 14181.14
3786.859, 14169.09
3788.787, 14157.29
3790.716, 14143.67
3792.644, 14119.19
3794.573, 14111.33
3796.501, 14119.03
3798.429, 14130.11
3800.358, 14131.87
3802.286, 14099.17
3804.215, 14071.36
3806.143, 14064.14
3808.072, 14066.49
3810.000, 14072.40
3811.929, 14060.74
3813.857, 14044.81
3815.786, 14036.58
3817.714, 14029.14
3819.643, 14022.97
3821.571, 14011.65
3823.500, 13998.91
3825.428, 13987.67
3827.356, 13984.80
3829.285, 13997.99
3831.213, 13990.07
3833.142, 13957.62
3835.070, 13930.42
3836.999, 13916.40
3838.927, 13943.51
3840.856, 13951.53
3842.784, 13920.27
3844.713, 13897.63
3846.641, 13885.59
3848.570, 13886.30
3850.498, 13884.50
3852.427, 13863.37
3854.355, 13847.63
3856.283, 13841.12
3858.212, 13844.82
3860.140, 13849.45
3862.069, 13840.21
3863.997, 13823.58
3865.926, 13799.75
3867.854, 13772.71
3869.783, 13748.18
3871.711, 13759.53
3873.640, 13773.70
3875.568, 13758.45
3877.497, 13761.73
3879.425, 13748.10
3881.354, 13763.32
3883.282, 13719.32
3885.210, 13702.01
3887.139, 13696.04
3889.067, 13706.36
3890.996, 13698.18
3892.924, 13697.11
3894.853, 13681.65
3896.781, 13685.82
3898.710, 13681.17
3900.638, 13668.10
3902.567, 13651.20
3904.495, 13660.90
3906.424, 13668.72
3908.352, 13632.90
3910.281, 13598.00
3912.209, 13577.53
3914.137, 13586.54
3916.066, 13609.88
3917.994, 13597.85
3919.923, 13578.86
3921.851, 13574.30
3923.780, 13576.63
3925.708, 13573.34
3927.637, 13567.52
3929.565, 13557.65
3931.494, 13531.69
3933.422, 13518.79
3935.351, 13516.90
3937.279, 13513.38
3939.208, 13509.79
3941.136, 13494.66
3943.064, 13490.58
3944.993, 13476.58
3946.921, 13493.28
3948.850, 13455.49
3950.778, 13447.27
3952.707, 13450.33
3954.635, 13465.74
3956.564, 13447.64
3958.492, 13405.24
3960.421, 13391.29
3962.349, 13388.99
3964.278, 13391.31
3966.206, 13382.44
3968.135, 13384.91
3970.063, 13375.37
3971.991, 13384.93
3973.920, 13384.58
3975.848, 13385.06
3977.777, 13382.62
3979.705, 13358.86
3981.634, 13328.45
3983.562, 13307.61
3985.491, 13295.19
3987.419, 13298.85
3989.348, 13293.38
3991.276, 13273.72
3993.205, 13267.62
3995.133, 13260.09
3997.062, 13236.08
3998.990, 13217.52
4000.918, 13208.77
4002.847, 13219.08
4004.775, 13225.23
4006.704, 13211.32
4008.632, 13203.93
4010.561, 13199.33
4012.489, 13189.51
4014.418, 13184.66
4016.346, 13174.40
4018.275, 13158.46
4020.203, 13145.55
4022.132, 13135.02
4024.060, 13125.59
4025.989, 13113.78
4027.917, 13107.23
4029.845, 13110.06
4031.774, 13106.76
4033.702, 13099.34
4035.631, 13100.27
4037.559, 13097.77
4039.488, 13087.12
4041.416, 13062.80
4043.345, 13034.77
4045.273, 13013.47
4047.202, 12999.76
4049.130, 12992.46
4051.059, 12996.27
4052.987, 12999.79
4054.916, 12983.37
4056.844, 12966.95
4058.772, 12956.07
4060.701, 12939.91
4062.629, 12925.83
4064.558, 12932.73
4066.486, 12932.39
4068.415, 12911.08
4070.343, 12899.12
4072.272, 12895.74
4074.200, 12895.51
4076.129, 12882.76
4078.057, 12869.34
4079.986, 12839.09
4081.914, 12832.60
4083.843, 12811.62
4085.771, 12794.29
4087.699, 12789.64
4089.628, 12775.26
4091.556, 12759.73
4093.485, 12750.45
4095.413, 12742.94
4097.342, 12747.21
4099.271, 12743.54
4101.199, 12728.92
4103.127, 12716.57
4105.056, 12710.01
4106.984, 12718.92
4108.913, 12702.72
4110.841, 12694.45
4112.770, 12661.42
4114.698, 12666.26
4116.626, 12643.08
4118.555, 12630.27
4120.483, 12636.09
4122.412, 12617.66
4124.340, 12601.63
4126.269, 12616.91
4128.197, 12596.56
4130.126, 12554.46
4132.054, 12549.51
4133.983, 12548.89
4135.911, 12536.55
4137.840, 12513.54
4139.768, 12486.75
4141.697, 12492.58
4143.625, 12507.49
4145.554, 12514.69
4147.482, 12506.02
4149.411, 12494.41
4151.339, 12485.09
4153.268, 12460.32
4155.196, 12438.46
4157.125, 12418.19
4159.053, 12387.59
4160.981, 12395.12
4162.910, 12413.32
4164.838, 12387.83
4166.767, 12367.04
4168.695, 12367.71
4170.624, 12343.36
4172.552, 12313.39
4174.480, 12306.42
4176.409, 12295.85
4178.337, 12280.72
4180.266, 12247.69
4182.194, 12218.53
4184.123, 12228.47
4186.051, 12236.44
4187.980, 12229.41
4189.908, 12212.79
4191.837, 12191.92
4193.765, 12164.96
4195.694, 12153.63
4197.622, 12154.74
4199.551, 12160.27
4201.479, 12150.60
4203.408, 12105.83
4205.336, 12088.07
4207.265, 12097.55
4209.193, 12116.94
4211.122, 12117.82
4213.050, 12109.74
4214.979, 12096.54
4216.907, 12073.76
4218.835, 12049.92
4220.764, 12018.84
4222.692, 11999.93
4224.621, 11994.31
4226.549, 11991.82
4228.478, 11983.85
4230.406, 11966.10
4232.334, 11936.24
4234.263, 11914.16
4236.191, 11902.27
4238.120, 11888.20
4240.048, 11907.63
4241.977, 11878.67
4243.905, 11877.71
4245.834, 11881.65
4247.762, 11859.33
4249.691, 11816.85
4251.619, 11807.41
4253.548, 11783.20
4255.476, 11763.86
4257.405, 11752.92
4259.333, 11741.85
4261.262, 11732.51
4263.190, 11714.42
4265.119, 11693.14
4267.047, 11670.18
4268.976, 11664.18
4270.904, 11671.44
4272.833, 11676.71
4274.761, 11676.98
4276.689, 11671.59
4278.618, 11659.43
4280.546, 11648.46
4282.475, 11630.43
4284.403, 11608.22
4286.332, 11583.32
4288.260, 11573.25
4290.188, 11571.32
4292.117, 11575.83
4294.045, 11565.27
4295.974, 11538.36
4297.902, 11501.09
4299.831, 11472.83
4301.759, 11466.22
4303.688, 11475.83
4305.616, 11487.59
4307.545, 11459.03
4309.473, 11436.01
4311.402, 11435.92
4313.330, 11409.40
4315.259, 11381.29
4317.187, 11389.23
4319.116, 11392.82
4321.044, 11384.16
4322.973, 11364.37
4324.901, 11339.51
4326.830, 11312.98
4328.758, 11286.60
4330.687, 11266.42
4332.615, 11277.55
4334.543, 11283.34
4336.472, 11271.50
4338.400, 11251.19
4340.329, 11234.52
4342.257, 11242.91
4344.186, 11236.60
4346.114, 11213.64
4348.042, 11207.20
4349.971, 11192.37
4351.899, 11172.03
4353.828, 11133.89
4355.756, 11134.90
4357.685, 11112.14
4359.613, 11098.12
4361.542, 11101.26
4363.470, 11105.89
4365.399, 11095.53
4367.327, 11082.03
4369.256, 11066.58
4371.184, 11039.20
4373.113, 11023.74
4375.041, 11000.35
4376.970, 10982.34
4378.898, 10952.16
4380.827, 10924.74
4382.755, 10931.72
4384.684, 10932.82
4386.612, 10920.98
4388.541, 10897.43
4390.469, 10875.05
4392.397, 10863.20
4394.326, 10850.47
4396.254, 10836.36
4398.183, 10824.56
4400.111, 10799.54
4402.040, 10760.12
4403.968, 10772.13
4405.896, 10788.25
4407.825, 10772.62
4409.753, 10734.20
4411.682, 10690.48
4413.610, 10689.49
4415.539, 10681.29
4417.467, 10654.45
4419.396, 10653.98
4421.324, 10663.53
4423.253, 10671.16
4425.181, 10659.68
4427.110, 10634.39
4429.038, 10616.04
4430.967, 10598.42
4432.895, 10579.98
4434.824, 10561.13
4436.752, 10543.51
4438.681, 10526.15
4440.609, 10524.50
4442.538, 10529.81
4444.466, 10502.01
4446.395, 10488.24
4448.323, 10502.08
4450.251, 10475.39
4452.180, 10444.15
4454.108, 10443.79
4456.037, 10433.81
4457.965, 10417.92
4459.894, 10417.27
4461.822, 10417.79
4463.750, 10413.68
4465.679, 10405.35
4467.607, 10395.80
4469.536, 10375.16
4471.464, 10360.95
4473.393, 10327.02
4475.321, 10290.35
4477.250, 10276.17
4479.178, 10250.18
4481.107, 10250.01
4483.035, 10221.30
4484.964, 10239.70
4486.892, 10240.17
4488.821, 10223.72
4490.749, 10196.50
4492.678, 10167.03
4494.606, 10141.95
4496.535, 10145.28
4498.463, 10144.15
4500.392, 10120.06
4502.320, 10100.66
4504.249, 10087.09
4506.177, 10085.23
4508.105, 10075.71
4510.034, 10060.75
4511.962, 10046.07
4513.891, 10050.51
4515.819, 10022.94
4517.748, 10032.25
4519.676, 9984.783
4521.604, 9973.631
4523.533, 9968.133
4525.461, 9954.196
4527.390, 9905.585
4529.318, 9878.162
4531.247, 9877.242
4533.175, 9880.986
4535.104, 9879.957
4537.032, 9868.689
4538.961, 9848.833
4540.889, 9830.394
4542.818, 9823.894
4544.746, 9809.700
4546.675, 9789.467
4548.603, 9766.164
4550.532, 9753.361
4552.460, 9750.936
4554.389, 9745.784
4556.317, 9731.634
4558.246, 9701.752
4560.174, 9675.702
4562.103, 9662.673
4564.031, 9641.066
4565.959, 9626.519
4567.888, 9614.904
4569.816, 9602.209
4571.745, 9597.304
4573.673, 9591.943
4575.602, 9570.957
4577.530, 9552.546
4579.458, 9547.097
4581.387, 9526.584
4583.315, 9503.785
4585.244, 9490.506
4587.172, 9482.939
4589.101, 9476.895
4591.029, 9463.682
4592.958, 9453.335
4594.886, 9445.290
4596.815, 9432.903
4598.743, 9417.393
4600.672, 9399.333
4602.600, 9390.229
4604.529, 9383.126
4606.457, 9374.355
4608.386, 9357.682
4610.314, 9338.814
4612.243, 9325.531
4614.171, 9304.623
4616.100, 9280.037
4618.028, 9264.859
4619.957, 9259.195
4621.885, 9258.881
4623.813, 9222.936
4625.742, 9194.745
4627.670, 9192.735
4629.599, 9193.803
4631.527, 9185.562
4633.456, 9157.512
4635.384, 9149.496
4637.313, 9148.428
4639.241, 9129.830
4641.169, 9122.665
4643.098, 9123.033
4645.026, 9110.474
4646.955, 9098.865
4648.883, 9088.334
4650.812, 9052.292
4652.740, 9024.067
4654.669, 9015.213
4656.597, 9017.690
4658.526, 9014.018
4660.454, 8985.852
4662.383, 8972.419
4664.311, 8967.514
4666.240, 8968.100
4668.168, 8946.522
4670.097, 8913.357
4672.025, 8888.113
4673.954, 8870.556
4675.882, 8863.614
4677.811, 8887.791
4679.739, 8891.363
4681.667, 8863.960
4683.596, 8849.671
4685.524, 8833.438
4687.453, 8809.670
4689.381, 8789.166
4691.310, 8775.282
4693.238, 8761.133
4695.167, 8759.385
4697.095, 8739.619
4699.023, 8734.253
4700.952, 8719.779
4702.880, 8701.213
4704.809, 8693.121
4706.737, 8666.175
4708.666, 8632.789
4710.594, 8636.258
4712.523, 8649.477
4714.451, 8657.418
4716.380, 8599.239
4718.308, 8560.626
4720.237, 8560.623
4722.165, 8571.313
4724.094, 8559.070
4726.022, 8504.316
4727.951, 8486.533
4729.879, 8485.793
4731.808, 8491.357
4733.736, 8471.066
4735.665, 8447.088
4737.593, 8441.589
4739.521, 8445.768
4741.450, 8443.883
4743.378, 8413.607
4745.307, 8378.600
4747.235, 8355.695
4749.164, 8380.121
4751.092, 8384.584
4753.021, 8371.337
4754.949, 8371.022
4756.877, 8354.732
4758.806, 8327.149
4760.734, 8333.998
4762.663, 8319.234
4764.591, 8280.322
4766.520, 8272.919
4768.448, 8270.441
4770.377, 8263.640
4772.305, 8237.330
4774.234, 8202.283
4776.162, 8165.418
4778.091, 8178.112
4780.019, 8184.242
4781.948, 8145.094
4783.876, 8147.216
4785.805, 8153.056
4787.733, 8139.818
4789.662, 8109.513
4791.590, 8083.314
4793.519, 8084.210
4795.447, 8072.094
4797.375, 8052.950
4799.304, 8031.831
4801.232, 8027.158
4803.161, 8021.033
4805.089, 7984.532
4807.018, 7969.610
4808.946, 7966.741
4810.875, 7959.754
4812.803, 7937.359
4814.731, 7914.530
4816.660, 7922.310
4818.588, 7912.175
4820.517, 7895.770
4822.445, 7888.486
4824.374, 7872.247
4826.302, 7858.555
4828.231, 7842.966
4830.159, 7829.032
4832.088, 7815.711
4834.016, 7815.999
4835.945, 7806.113
4837.873, 7787.002
4839.802, 7770.459
4841.730, 7758.831
4843.659, 7752.819
4845.587, 7734.495
4847.516, 7727.798
4849.444, 7708.306
4851.373, 7707.402
4853.301, 7705.627
4855.229, 7692.924
4857.158, 7659.446
4859.086, 7635.645
4861.015, 7624.932
4862.943, 7612.866
4864.872, 7609.177
4866.800, 7594.358
4868.729, 7592.728
4870.657, 7571.699
4872.585, 7555.095
4874.514, 7548.506
4876.442, 7550.727
4878.371, 7557.950
4880.299, 7559.901
4882.228, 7527.839
4884.156, 7474.291
4886.085, 7493.763
4888.013, 7482.892
4889.942, 7430.423
4891.870, 7433.534
4893.799, 7430.151
4895.727, 7410.542
4897.656, 7393.838
4899.584, 7377.349
4901.513, 7363.301
4903.441, 7374.783
4905.370, 7371.733
4907.298, 7351.587
4909.227, 7336.595
4911.155, 7327.911
4913.083, 7321.562
4915.012, 7299.436
4916.940, 7275.495
4918.869, 7256.444
4920.797, 7259.073
4922.726, 7243.542
4924.654, 7217.095
4926.583, 7225.908
4928.511, 7209.417
4930.439, 7178.014
4932.368, 7181.850
4934.296, 7165.788
4936.225, 7139.884
4938.153, 7137.454
4940.082, 7133.130
4942.010, 7120.761
4943.939, 7092.880
4945.867, 7076.005
4947.796, 7070.494
4949.724, 7078.800
4951.653, 7075.038
4953.581, 7058.821
4955.510, 7028.892
4957.438, 7007.619
4959.367, 6993.275
4961.295, 6981.473
4963.224, 6985.466
4965.152, 6986.534
4967.081, 6970.486
4969.009, 6950.772
4970.938, 6930.232
4972.866, 6910.890
4974.794, 6898.570
4976.723, 6889.455
4978.651, 6879.005
4980.580, 6874.381
4982.508, 6870.827
4984.437, 6851.772
4986.365, 6846.268
4988.293, 6815.923
4990.222, 6822.782
4992.150, 6797.237
4994.079, 6781.643
4996.007, 6778.824
4997.936, 6756.028
4999.864, 6744.590
5001.793, 6741.745
5003.721, 6728.143
5005.650, 6710.546
5007.578, 6695.845
5009.507, 6696.022
5011.435, 6688.385
5013.364, 6672.429
5015.292, 6648.780
5017.221, 6629.181
5019.149, 6620.354
5021.078, 6628.776
5023.006, 6610.710
5024.935, 6591.171
5026.863, 6586.044
5028.792, 6569.923
5030.720, 6549.562
5032.648, 6529.832
5034.577, 6539.434
5036.505, 6533.838
5038.434, 6505.621
5040.362, 6511.026
5042.291, 6468.592
5044.219, 6492.071
5046.147, 6471.546
5048.076, 6448.722
5050.004, 6434.815
5051.933, 6416.903
5053.861, 6402.654
5055.790, 6389.144
5057.718, 6378.817
5059.647, 6369.063
5061.575, 6361.170
5063.504, 6356.373
5065.432, 6342.318
5067.361, 6333.534
5069.289, 6314.498
5071.218, 6306.487
5073.146, 6289.388
5075.075, 6267.513
5077.003, 6256.082
5078.932, 6240.603
5080.860, 6222.977
5082.789, 6214.020
5084.717, 6205.198
5086.646, 6195.409
5088.574, 6187.014
5090.502, 6174.712
5092.431, 6167.834
5094.359, 6149.286
5096.288, 6147.495
5098.216, 6134.435
5100.145, 6113.076
5102.073, 6112.047
5104.001, 6109.416
5105.930, 6100.902
5107.858, 6099.065
5109.787, 6087.564
5111.715, 6071.618
5113.644, 6064.211
5115.572, 6049.646
5117.501, 6033.300
5119.429, 6029.083
5121.358, 6009.375
5123.286, 6008.890
5125.215, 5993.681
5127.143, 5992.644
5129.072, 5971.597
5131.000, 5970.861
5132.929, 5967.884
5134.857, 5967.561
5136.786, 5960.529
5138.714, 5923.594
5140.643, 5905.704
5142.571, 5897.849
5144.500, 5883.521
5146.428, 5892.285
5148.356, 5896.685
5150.285, 5882.708
5152.213, 5872.279
5154.142, 5863.284
5156.070, 5854.077
5157.999, 5842.128
5159.927, 5828.316
5161.855, 5816.186
5163.784, 5812.806
5165.712, 5804.218
5167.641, 5786.758
5169.569, 5759.430
5171.498, 5743.487
5173.426, 5739.098
5175.355, 5742.676
5177.283, 5738.032
5179.212, 5718.773
5181.140, 5698.463
5183.069, 5709.687
5184.997, 5707.333
5186.926, 5690.794
5188.854, 5686.614
5190.783, 5657.771
5192.711, 5654.100
5194.640, 5641.374
5196.568, 5616.359
5198.497, 5604.743
5200.425, 5602.239
5202.354, 5581.352
5204.282, 5583.287
5206.210, 5585.165
5208.139, 5554.416
5210.067, 5537.182
5211.996, 5535.039
5213.924, 5544.091
5215.853, 5525.951
5217.781, 5513.869
5219.709, 5507.708
5221.638, 5490.781
5223.566, 5471.604
5225.495, 5455.803
5227.423, 5449.151
5229.352, 5429.658
5231.280, 5425.242
5233.209, 5414.596
5235.137, 5414.896
5237.066, 5399.516
5238.994, 5393.477
5240.923, 5389.054
5242.851, 5378.967
5244.780, 5365.884
5246.708, 5352.834
5248.637, 5345.163
5250.565, 5352.649
5252.494, 5324.825
5254.422, 5320.831
5256.351, 5301.589
5258.279, 5280.386
5260.208, 5279.112
5262.136, 5281.979
5264.064, 5274.070
5265.993, 5252.139
5267.921, 5233.307
5269.850, 5219.751
5271.778, 5211.168
5273.707, 5207.642
5275.635, 5202.589
5277.563, 5188.450
5279.492, 5161.745
5281.420, 5162.189
5283.349, 5172.640
5285.277, 5178.564
5287.206, 5151.845
5289.134, 5146.187
5291.063, 5140.645
5292.991, 5110.021
5294.920, 5085.533
5296.848, 5068.146
5298.777, 5060.331
5300.705, 5042.796
5302.634, 5051.172
5304.562, 5017.223
5306.491, 5029.067
5308.419, 5013.358
5310.348, 5003.647
5312.276, 5010.308
5314.205, 4999.618
5316.133, 4990.681
5318.062, 4983.606
5319.990, 4974.286
5321.918, 4975.254
5323.847, 4957.530
5325.775, 4945.817
5327.704, 4934.249
5329.632, 4911.983
5331.561, 4905.566
5333.489, 4889.027
5335.417, 4876.474
5337.346, 4877.329
5339.274, 4861.644
5341.203, 4868.894
5343.131, 4843.506
5345.060, 4822.468
5346.988, 4815.544
5348.917, 4809.820
5350.845, 4806.909
5352.774, 4805.978
5354.702, 4802.514
5356.631, 4790.734
5358.559, 4758.776
5360.488, 4761.237
5362.416, 4739.509
5364.345, 4718.402
5366.273, 4709.720
5368.202, 4715.651
5370.130, 4713.517
5372.059, 4708.214
5373.987, 4707.268
5375.916, 4677.908
5377.844, 4662.610
5379.772, 4665.364
5381.701, 4651.923
5383.629, 4644.053
5385.558, 4639.149
5387.486, 4633.598
5389.415, 4609.711
5391.343, 4597.850
5393.271, 4593.029
5395.200, 4567.911
5397.128, 4560.991
5399.057, 4560.069
5400.985, 4555.370
5402.914, 4548.557
5404.842, 4541.913
5406.771, 4532.379
5408.699, 4521.138
5410.628, 4510.311
5412.556, 4493.534
5414.485, 4479.755
5416.413, 4480.968
5418.342, 4469.153
5420.270, 4450.117
5422.199, 4432.139
5424.127, 4433.241
5426.056, 4422.101
5427.984, 4400.892
5429.913, 4391.731
5431.841, 4371.282
5433.770, 4355.397
5435.698, 4351.776
5437.626, 4355.593
5439.555, 4351.161
5441.483, 4339.349
5443.412, 4322.880
5445.340, 4314.820
5447.269, 4301.811
5449.197, 4285.042
5451.125, 4276.304
5453.054, 4268.545
5454.982, 4268.221
5456.911, 4258.635
5458.840, 4265.315
5460.768, 4246.440
5462.697, 4229.499
5464.625, 4225.284
5466.554, 4224.740
5468.482, 4211.742
5470.411, 4188.354
5472.339, 4164.346
5474.268, 4172.046
5476.196, 4180.625
5478.125, 4172.347
5480.053, 4166.179
5481.981, 4155.787
5483.910, 4134.324
5485.838, 4125.892
5487.767, 4102.084
5489.695, 4088.786
5491.624, 4083.137
5493.552, 4070.462
5495.480, 4062.075
5497.409, 4047.603
5499.337, 4030.202
5501.266, 4029.805
5503.194, 4014.927
5505.123, 4005.612
5507.051, 4010.442
5508.980, 3998.398
5510.908, 3984.093
5512.837, 3974.224
5514.765, 3972.833
5516.694, 3959.488
5518.622, 3952.332
5520.551, 3925.734
5522.479, 3932.269
5524.408, 3914.876
5526.336, 3901.826
5528.265, 3898.943
5530.193, 3892.103
5532.122, 3893.472
5534.050, 3883.404
5535.979, 3859.408
5537.907, 3863.875
5539.835, 3845.312
5541.764, 3830.694
5543.692, 3839.760
5545.621, 3827.557
5547.549, 3808.275
5549.478, 3799.375
5551.406, 3810.678
5553.334, 3784.501
5555.263, 3777.333
5557.191, 3776.480
5559.120, 3741.131
5561.048, 3729.868
5562.977, 3723.916
5564.905, 3721.605
5566.834, 3713.256
5568.762, 3719.425
5570.691, 3703.301
5572.619, 3699.585
5574.548, 3697.132
5576.476, 3682.630
5578.405, 3664.640
5580.333, 3651.936
5582.262, 3658.443
5584.190, 3663.697
5586.119, 3658.191
5588.047, 3639.968
5589.976, 3624.079
5591.904, 3614.387
5593.833, 3603.783
5595.761, 3588.745
5597.689, 3586.981
5599.618, 3579.842
5601.546, 3573.708
5603.475, 3564.142
5605.403, 3551.658
5607.332, 3539.191
5609.260, 3530.476
5611.188, 3513.150
5613.117, 3494.991
5615.045, 3477.639
5616.974, 3471.007
5618.902, 3487.046
5620.831, 3466.683
5622.759, 3461.865
5624.688, 3461.816
5626.616, 3438.855
5628.545, 3443.469
5630.473, 3440.168
5632.402, 3428.389
5634.330, 3420.348
5636.259, 3413.866
5638.187, 3391.737
5640.116, 3395.176
5642.044, 3392.275
5643.973, 3374.334
5645.901, 3367.537
5647.830, 3364.688
5649.758, 3343.408
5651.687, 3346.316
5653.615, 3329.874
5655.543, 3307.891
5657.472, 3315.015
5659.400, 3308.313
5661.329, 3296.604
5663.257, 3283.049
5665.186, 3267.259
5667.114, 3279.974
5669.042, 3270.637
5670.971, 3250.709
5672.899, 3256.644
5674.828, 3240.372
5676.756, 3224.443
5678.685, 3214.404
5680.613, 3202.588
5682.542, 3197.617
5684.470, 3185.601
5686.399, 3175.990
5688.327, 3169.621
5690.256, 3158.164
5692.184, 3156.064
5694.113, 3150.914
5696.041, 3132.815
5697.970, 3140.961
5699.898, 3125.072
5701.827, 3104.920
5703.755, 3101.442
5705.684, 3099.921
5707.612, 3092.897
5709.541, 3087.259
5711.469, 3086.184
5713.397, 3078.979
5715.326, 3068.805
5717.254, 3053.314
5719.183, 3037.681
5721.111, 3043.412
5723.040, 3036.537
5724.968, 3020.147
5726.896, 3007.727
5728.825, 2998.885
5730.753, 2987.688
5732.682, 2979.124
5734.610, 2972.901
5736.539, 2962.049
5738.467, 2958.723
5740.396, 2961.619
5742.324, 2961.793
5744.253, 2947.738
5746.181, 2951.345
5748.110, 2943.191
5750.038, 2931.410
5751.967, 2928.171
5753.895, 2916.751
5755.824, 2909.333
5757.752, 2900.750
5759.681, 2893.477
5761.609, 2880.979
5763.538, 2873.522
5765.466, 2862.025
5767.395, 2847.783
5769.323, 2843.209
5771.251, 2848.679
5773.180, 2847.913
5775.108, 2834.350
5777.037, 2833.125
5778.965, 2813.775
5780.894, 2816.271
5782.822, 2807.522
5784.750, 2797.629
5786.679, 2790.866
5788.607, 2790.143
5790.536, 2782.443
5792.464, 2763.261
5794.393, 2748.046
5796.321, 2734.239
5798.250, 2727.979
5800.178, 2727.534
5802.107, 2724.834
5804.035, 2711.645
5805.964, 2706.260
5807.892, 2704.418
5809.821, 2695.118
5811.749, 2673.418
5813.678, 2666.240
5815.606, 2669.380
5817.535, 2673.166
5819.463, 2662.062
5821.392, 2658.248
5823.320, 2635.965
5825.249, 2635.365
5827.177, 2618.468
5829.105, 2600.572
5831.034, 2613.050
5832.962, 2623.838
5834.891, 2598.308
5836.819, 2600.148
5838.748, 2583.588
5840.676, 2570.330
5842.604, 2571.722
5844.533, 2570.730
5846.461, 2568.057
5848.390, 2547.422
5850.318, 2525.331
5852.247, 2526.839
5854.175, 2529.583
5856.104, 2523.152
5858.032, 2518.869
5859.961, 2519.533
5861.889, 2496.498
5863.818, 2493.322
5865.746, 2493.549
5867.675, 2484.960
5869.603, 2481.367
5871.532, 2473.773
5873.460, 2471.726
5875.389, 2464.343
5877.317, 2465.353
5879.246, 2443.552
5881.174, 2431.244
5883.103, 2431.783
5885.031, 2434.778
5886.959, 2425.000
5888.888, 2416.656
5890.816, 2415.633
5892.745, 2410.177
5894.673, 2395.597
5896.602, 2389.209
5898.530, 2386.539
5900.458, 2384.538
5902.387, 2377.805
5904.315, 2362.350
5906.244, 2354.281
5908.172, 2350.801
5910.101, 2344.850
5912.029, 2338.458
5913.958, 2334.827
5915.886, 2327.079
5917.815, 2324.082
5919.743, 2315.240
5921.672, 2304.996
5923.600, 2303.625
5925.529, 2296.107
5927.457, 2289.043
5929.386, 2282.866
5931.314, 2269.003
5933.243, 2266.115
5935.171, 2254.979
5937.100, 2258.357
5939.028, 2254.974
5940.957, 2256.119
5942.885, 2230.734
5944.813, 2229.997
5946.742, 2236.231
5948.670, 2209.931
5950.599, 2206.737
5952.527, 2204.057
5954.456, 2196.679
5956.384, 2188.446
5958.313, 2187.077
5960.241, 2180.437
5962.169, 2169.791
5964.098, 2159.545
5966.026, 2153.423
5967.955, 2153.063
5969.883, 2163.470
5971.812, 2149.980
5973.740, 2133.562
5975.669, 2135.406
5977.597, 2117.094
5979.526, 2110.037
5981.454, 2117.724
5983.383, 2123.825
5985.311, 2111.164
5987.240, 2093.311
5989.168, 2093.295
5991.097, 2088.324
5993.025, 2074.362
5994.954, 2066.210
5996.882, 2057.127
5998.811, 2053.920
6000.739, 2047.906
6002.667, 2040.498
6004.596, 2049.626
6006.524, 2036.423
6008.453, 2036.833
6010.381, 2037.766
6012.310, 2026.206
6014.238, 2021.184
6016.167, 1997.419
6018.095, 1996.996
6020.023, 1988.670
6021.952, 1968.725
6023.880, 1989.901
6025.809, 1971.229
6027.737, 1960.223
6029.666, 1958.994
6031.594, 1953.523
6033.523, 1950.726
6035.451, 1940.263
6037.380, 1944.837
6039.308, 1941.723
6041.237, 1931.604
6043.165, 1920.557
6045.094, 1917.586
6047.022, 1918.394
6048.951, 1915.007
6050.879, 1902.452
6052.808, 1884.794
6054.736, 1886.879
6056.665, 1876.304
6058.593, 1863.145
6060.521, 1865.828
6062.450, 1866.051
6064.378, 1842.784
6066.307, 1837.350
6068.235, 1845.105
6070.164, 1846.612
6072.092, 1838.461
6074.021, 1833.384
6075.949, 1828.827
6077.877, 1821.561
6079.806, 1812.250
6081.734, 1809.869
6083.663, 1804.641
6085.591, 1798.080
6087.520, 1794.624
6089.448, 1791.553
6091.377, 1772.486
6093.305, 1760.225
6095.234, 1755.425
6097.162, 1758.928
6099.091, 1763.659
6101.019, 1752.864
6102.948, 1750.914
6104.876, 1746.045
6106.805, 1738.279
6108.733, 1729.676
6110.662, 1721.276
6112.590, 1722.116
6114.519, 1725.607
6116.447, 1713.848
6118.375, 1699.059
6120.304, 1704.185
6122.232, 1696.422
6124.161, 1695.115
6126.089, 1686.150
6128.018, 1682.553
6129.946, 1679.482
6131.875, 1673.148
6133.803, 1672.074
6135.731, 1667.095
6137.660, 1659.731
6139.588, 1650.330
6141.517, 1642.315
6143.445, 1634.387
6145.374, 1626.602
6147.302, 1620.837
6149.231, 1611.375
6151.159, 1614.094
6153.088, 1605.812
6155.016, 1610.922
6156.945, 1616.154
6158.873, 1609.600
6160.802, 1609.686
6162.730, 1588.357
6164.659, 1596.513
6166.587, 1585.745
6168.516, 1571.378
6170.444, 1567.101
6172.373, 1562.935
6174.301, 1554.137
6176.229, 1551.581
6178.158, 1548.281
6180.086, 1542.496
6182.015, 1537.863
6183.943, 1535.671
6185.872, 1525.543
6187.800, 1513.314
6189.729, 1516.904
6191.657, 1510.976
6193.585, 1519.945
6195.514, 1509.985
6197.442, 1506.641
6199.371, 1503.642
6201.299, 1499.188
6203.228, 1495.529
6205.156, 1495.532
6207.085, 1479.978
6209.013, 1473.666
6210.942, 1464.822
6212.870, 1449.168
6214.799, 1453.178
6216.727, 1441.887
6218.656, 1444.612
6220.584, 1451.384
6222.513, 1448.424
6224.441, 1434.117
6226.370, 1439.222
6228.298, 1417.506
6230.227, 1429.078
6232.155, 1438.318
6234.083, 1427.196
6236.012, 1416.600
6237.940, 1416.156
6239.869, 1419.570
6241.797, 1401.822
6243.726, 1390.142
6245.654, 1393.978
6247.583, 1376.080
6249.511, 1382.310
6251.439, 1362.598
6253.368, 1358.070
6255.296, 1364.538
6257.225, 1361.165
6259.153, 1356.707
6261.082, 1357.389
6263.010, 1355.983
6264.939, 1353.348
6266.867, 1348.953
6268.796, 1344.032
6270.724, 1339.958
6272.653, 1333.605
6274.581, 1327.354
6276.510, 1320.075
6278.438, 1313.974
6280.367, 1305.654
6282.295, 1303.633
6284.224, 1298.059
6286.152, 1296.304
6288.081, 1296.455
6290.009, 1296.356
6291.938, 1295.175
6293.866, 1284.565
6295.794, 1282.662
6297.723, 1278.669
6299.651, 1275.864
6301.580, 1271.151
6303.508, 1255.753
6305.437, 1251.342
6307.365, 1242.797
6309.293, 1237.926
6311.222, 1243.840
6313.150, 1249.919
6315.079, 1239.672
6317.007, 1238.359
6318.936, 1235.937
6320.864, 1229.301
6322.793, 1225.593
6324.721, 1220.783
6326.650, 1207.597
6328.578, 1202.076
6330.507, 1201.550
6332.435, 1196.305
6334.364, 1199.579
6336.292, 1201.076
6338.221, 1188.938
6340.149, 1190.452
6342.078, 1180.701
6344.006, 1186.826
6345.935, 1179.619
6347.863, 1167.768
6349.792, 1166.940
6351.720, 1159.263
6353.648, 1160.475
6355.577, 1161.820
6357.505, 1149.023
6359.434, 1146.455
6361.362, 1141.755
6363.291, 1142.996
6365.219, 1133.100
6367.147, 1136.034
6369.076, 1133.524
6371.004, 1130.536
6372.933, 1129.281
6374.861, 1125.253
6376.790, 1125.457
6378.718, 1119.662
6380.647, 1115.577
6382.575, 1109.340
6384.504, 1105.008
6386.432, 1100.858
6388.361, 1096.334
6390.289, 1092.997
6392.218, 1090.083
6394.146, 1090.603
6396.075, 1086.104
6398.003, 1077.994
6399.932, 1074.065
6401.860, 1062.260
6403.789, 1065.838
6405.717, 1067.891
6407.646, 1060.441
6409.574, 1057.216
6411.502, 1061.007
6413.431, 1047.518
6415.359, 1047.614
6417.288, 1042.459
6419.216, 1045.809
6421.145, 1041.466
6423.073, 1034.051
6425.001, 1036.954
6426.930, 1027.086
6428.858, 1017.952
6430.787, 1008.672
6432.715, 1014.986
6434.644, 1017.036
6436.572, 1007.001
6438.501, 1000.454
6440.429, 999.8892
6442.358, 996.6382
6444.286, 990.5901
6446.215, 987.5626
6448.143, 986.3408
6450.072, 985.0277
6452.000, 984.6450
6453.929, 980.3368
6455.857, 977.7054
6457.786, 976.5059
6459.714, 972.8524
6461.643, 965.9431
6463.571, 959.5314
6465.500, 958.5895
6467.428, 954.2384
6469.356, 960.9982
6471.285, 956.9484
6473.213, 940.6457
6475.142, 939.8097
6477.070, 951.0243
6478.999, 934.4608
6480.927, 930.6262
6482.855, 941.5658
6484.784, 940.7357
6486.712, 923.0088
6488.641, 913.1989
6490.569, 919.4977
6492.498, 921.0477
6494.426, 913.4120
6496.355, 915.6965
6498.283, 915.2742
6500.212, 910.7252
6502.140, 906.1478
6504.069, 904.6379
6505.997, 903.8354
6507.926, 900.4867
6509.854, 897.9947
6511.783, 893.8346
6513.711, 890.5788
6515.640, 882.7621
6517.568, 877.4162
6519.497, 877.9142
6521.425, 875.3742
6523.354, 874.2868
6525.282, 867.9660
6527.210, 865.1227
6529.139, 859.2101
6531.067, 856.1320
6532.996, 853.0015
6534.924, 849.9080
6536.853, 849.2505
6538.781, 845.6327
6540.709, 847.4373
6542.638, 845.7731
6544.566, 844.9308
6546.495, 843.7094
6548.423, 840.7701
6550.352, 838.9093
6552.280, 834.0845
6554.209, 830.8405
6556.137, 826.3168
6558.066, 823.3337
6559.994, 820.7441
6561.923, 815.9880
6563.851, 814.0510
6565.780, 815.6716
6567.708, 814.7726
6569.637, 808.1586
6571.565, 806.3970
6573.494, 810.4425
6575.422, 808.6870
6577.351, 800.2744
6579.279, 799.2071
6581.208, 795.3135
6583.136, 794.6544
6585.064, 792.2128
6586.993, 785.2914
6588.921, 786.7010
6590.850, 784.0862
6592.778, 778.0538
6594.707, 776.3320
6596.635, 773.3246
6598.563, 769.9409
6600.492, 767.7859
6602.420, 766.2695
6604.349, 760.9799
6606.277, 761.6406
6608.206, 756.9827
6610.134, 757.3922
6612.063, 749.4745
6613.991, 752.2881
6615.920, 748.5607
6617.848, 744.3254
6619.777, 744.0164
6621.705, 746.9850
6623.634, 745.1273
6625.562, 735.1559
6627.491, 734.1927
6629.419, 731.1069
##END=



