##NAMES=Coronadite
##RRUFFID=R090056
##IDEAL CHEMISTRY=Pb(Mn^4+^_6_Mn^3+^_2_)O_16_
##LOCALITY=Taouz, Er Rachidia Province, Meknès-Tafilalet Region, Morocco
##OWNER=RRUFF
##SOURCE=Bob Downs
##DESCRIPTION=Spherical aggregates of black fine-grained material associated with vanadinite
##STATUS=The identification of this mineral has been confirmed by X-ray diffraction
##URL=https://www.rruff.net/odr/rruff_sample/R090056
##DIFFRACTION SAMPLE DESCRIPTION=Powder, cannot refine cell parameters, though search match routines identify this is coronadite
##FILETYPE=Raman RAW
##RAMAN WAVELENGTH=780

83.37718, 114.0044
85.30565, 131.0464
87.23412, 151.8916
89.16258, 177.8249
91.09105, 206.1764
93.01952, 224.5872
94.94798, 234.8132
96.87645, 242.5594
98.80492, 249.0347
100.7334, 252.5477
102.6618, 252.7959
104.5903, 251.9291
106.5188, 250.6736
108.4473, 248.9369
110.3757, 246.0690
112.3042, 241.9940
114.2327, 238.8399
116.1611, 236.9441
118.0896, 235.5814
120.0180, 234.3944
121.9465, 233.4160
123.8750, 232.7695
125.8034, 232.3724
127.7319, 232.1732
129.6604, 232.2519
131.5889, 232.2762
133.5173, 231.9137
135.4458, 231.5130
137.3743, 231.6926
139.3027, 232.3868
141.2312, 232.9273
143.1597, 233.0780
145.0881, 233.2138
147.0166, 233.2432
148.9450, 233.4319
150.8735, 234.3563
152.8020, 235.8659
154.7304, 236.7161
156.6589, 236.0733
158.5874, 235.7740
160.5158, 236.4544
162.4443, 237.4309
164.3728, 238.0222
166.3012, 238.3369
168.2297, 238.8090
170.1582, 239.7028
172.0866, 240.3197
174.0151, 240.2360
175.9436, 240.1538
177.8720, 240.8296
179.8005, 241.8771
181.7290, 242.2858
183.6574, 241.5173
185.5859, 241.3168
187.5144, 242.4130
189.4428, 243.4291
191.3713, 243.4385
193.2998, 243.0363
195.2282, 243.0677
197.1567, 243.6138
199.0852, 244.3098
201.0136, 245.4392
202.9421, 246.3351
204.8706, 246.5314
206.7990, 246.5638
208.7275, 247.0071
210.6560, 247.8933
212.5844, 248.4324
214.5129, 247.9836
216.4414, 248.2323
218.3698, 250.2321
220.2983, 252.1011
222.2268, 252.4580
224.1552, 251.7791
226.0837, 251.5567
228.0122, 251.9172
229.9406, 252.5014
231.8691, 253.4323
233.7976, 254.3937
235.7260, 255.3823
237.6545, 256.2745
239.5830, 256.8518
241.5114, 257.0879
243.4399, 257.3503
245.3684, 257.5637
247.2968, 258.0032
249.2253, 259.1079
251.1538, 260.0431
253.0822, 259.9746
255.0107, 259.3114
256.9392, 259.5290
258.8676, 260.8414
260.7961, 261.7655
262.7246, 262.0810
264.6530, 262.1981
266.5815, 262.0881
268.5100, 262.0392
270.4384, 262.3510
272.3669, 263.0089
274.2954, 263.7628
276.2238, 264.5865
278.1523, 265.5708
280.0808, 267.1310
282.0092, 268.3407
283.9377, 268.4636
285.8662, 268.0887
287.7946, 268.3059
289.7231, 269.1056
291.6516, 269.6778
293.5800, 269.8802
295.5085, 270.1487
297.4370, 270.6820
299.3654, 271.2199
301.2939, 271.5826
303.2224, 271.8685
305.1508, 272.3297
307.0793, 272.9317
309.0078, 273.2165
310.9362, 272.9367
312.8647, 272.7998
314.7932, 273.0662
316.7216, 273.4514
318.6501, 273.6372
320.5786, 273.8399
322.5070, 274.7583
324.4355, 276.4260
326.3640, 277.4516
328.2924, 277.0402
330.2209, 276.8665
332.1494, 277.5050
334.0778, 278.3665
336.0063, 279.0935
337.9348, 279.7079
339.8632, 280.2144
341.7917, 280.6183
343.7202, 280.8428
345.6486, 280.3238
347.5771, 280.4624
349.5056, 282.2899
351.4340, 284.0703
353.3625, 284.2890
355.2910, 283.7546
357.2194, 283.7252
359.1479, 284.2272
361.0764, 284.8352
363.0048, 285.7459
364.9333, 286.4430
366.8618, 286.4982
368.7902, 286.6943
370.7187, 287.9255
372.6472, 289.3744
374.5756, 289.8045
376.5041, 289.1664
378.4326, 288.8701
380.3610, 289.0351
382.2895, 289.4351
384.2180, 290.3098
386.1464, 291.0593
388.0749, 291.1983
390.0034, 291.2585
391.9318, 291.9408
393.8603, 293.1418
395.7888, 293.7282
397.7172, 293.1684
399.6457, 293.1987
401.5742, 294.1429
403.5026, 295.1495
405.4311, 295.9123
407.3596, 296.6004
409.2880, 297.3210
411.2165, 298.0758
413.1450, 298.9002
415.0734, 299.8244
417.0019, 300.2579
418.9304, 299.9946
420.8588, 300.0293
422.7873, 300.8419
424.7158, 301.5702
426.6442, 301.4533
428.5727, 301.3268
430.5012, 302.3437
432.4296, 304.3059
434.3581, 305.5843
436.2866, 306.0736
438.2150, 306.6299
440.1435, 307.2321
442.0720, 308.0981
444.0004, 309.7090
445.9289, 311.1078
447.8574, 311.5763
449.7858, 311.5620
451.7143, 311.6879
453.6428, 312.0327
455.5712, 312.8788
457.4997, 314.3076
459.4282, 315.2605
461.3566, 315.2826
463.2851, 315.4920
465.2136, 316.5680
467.1420, 317.5964
469.0705, 317.8666
470.9990, 317.7625
472.9274, 317.8319
474.8559, 318.1474
476.7844, 319.2827
478.7128, 321.4337
480.6413, 322.8338
482.5698, 322.7093
484.4982, 322.5199
486.4267, 322.5718
488.3552, 322.8256
490.2836, 323.3363
492.2121, 324.0228
494.1406, 324.7036
496.0690, 325.3267
497.9975, 326.1489
499.9260, 327.2956
501.8544, 328.5434
503.7829, 330.1445
505.7114, 331.1567
507.6398, 331.0188
509.5683, 330.5994
511.4968, 330.2155
513.4252, 330.1351
515.3537, 331.2236
517.2822, 333.1856
519.2106, 334.1571
521.1391, 333.8167
523.0676, 333.5995
524.9960, 333.7827
526.9245, 334.2999
528.8530, 335.1084
530.7814, 336.1346
532.7099, 337.6612
534.6384, 339.2407
536.5668, 340.1936
538.4953, 340.6360
540.4238, 341.0264
542.3522, 341.3310
544.2807, 341.6131
546.2092, 341.9449
548.1376, 342.5079
550.0661, 343.2878
551.9946, 343.7208
553.9230, 343.7096
555.8515, 343.9648
557.7800, 344.7749
559.7084, 345.8433
561.6369, 346.6427
563.5654, 347.5638
565.4938, 350.0386
567.4223, 353.9678
569.3508, 355.3124
571.2792, 352.6587
573.2077, 351.6271
575.1362, 353.0417
577.0646, 353.9589
578.9931, 353.2905
580.9216, 352.7497
582.8500, 353.2163
584.7785, 354.1187
586.7070, 355.4330
588.6354, 356.7128
590.5639, 356.8181
592.4924, 355.9501
594.4208, 356.4588
596.3493, 358.5755
598.2778, 360.3099
600.2062, 361.6270
602.1347, 362.4879
604.0632, 362.6988
605.9916, 362.8518
607.9201, 362.7940
609.8486, 363.1798
611.7770, 364.7641
613.7055, 366.7148
615.6340, 368.1162
617.5624, 369.0643
619.4909, 369.7442
621.4194, 370.0682
623.3478, 369.8882
625.2763, 369.1792
627.2048, 369.7523
629.1332, 372.4216
631.0617, 374.2258
632.9902, 373.7647
634.9186, 373.3334
636.8471, 373.6584
638.7756, 374.2338
640.7040, 374.6037
642.6325, 375.1516
644.5610, 376.5576
646.4894, 378.4975
648.4179, 380.1131
650.3464, 381.2826
652.2748, 381.9218
654.2033, 382.0576
656.1318, 382.0655
658.0602, 381.7563
659.9887, 381.9444
661.9172, 382.9071
663.8456, 384.1762
665.7741, 386.1847
667.7026, 387.9087
669.6310, 388.7320
671.5595, 389.0480
673.4880, 388.9493
675.4164, 388.7364
677.3449, 388.7757
679.2734, 389.0307
681.2018, 389.5953
683.1303, 390.5103
685.0588, 391.5620
686.9872, 392.8549
688.9157, 393.7379
690.8442, 394.0760
692.7726, 394.3061
694.7011, 394.0902
696.6296, 394.2565
698.5580, 395.0509
700.4865, 396.1971
702.4149, 397.8963
704.3434, 399.4749
706.2719, 400.4174
708.2003, 401.0591
710.1288, 401.5128
712.0573, 401.7925
713.9857, 402.2758
715.9142, 403.0827
717.8427, 403.8755
719.7711, 404.5126
721.6996, 405.2363
723.6281, 406.1161
725.5565, 407.4032
727.4850, 409.2273
729.4135, 410.8379
731.3419, 412.0533
733.2704, 413.1128
735.1989, 413.9806
737.1273, 414.9304
739.0558, 416.2939
740.9843, 417.4474
742.9127, 417.9198
744.8412, 417.9572
746.7697, 417.6435
748.6981, 417.3227
750.6266, 417.9510
752.5551, 419.2929
754.4835, 419.8479
756.4120, 419.6674
758.3405, 420.3438
760.2689, 421.8195
762.1974, 423.0329
764.1259, 423.9979
766.0543, 424.9501
767.9828, 425.8193
769.9113, 426.6666
771.8397, 427.6061
773.7682, 428.4906
775.6967, 429.1200
777.6251, 429.8085
779.5536, 430.5567
781.4821, 431.4198
783.4105, 432.5978
785.3390, 434.1021
787.2675, 435.9250
789.1959, 437.7972
791.1244, 439.5860
793.0529, 440.9612
794.9813, 440.8784
796.9098, 440.0692
798.8383, 441.0236
800.7667, 443.3649
802.6952, 444.5871
804.6237, 444.6413
806.5521, 445.1140
808.4806, 446.1675
810.4091, 447.2472
812.3375, 448.3719
814.2660, 449.2897
816.1945, 449.4965
818.1229, 450.4113
820.0514, 452.7017
821.9799, 454.7111
823.9083, 456.0912
825.8368, 457.2228
827.7653, 458.1148
829.6937, 458.8066
831.6222, 459.1486
833.5507, 459.6590
835.4791, 460.9151
837.4076, 462.3346
839.3361, 463.4760
841.2645, 464.1602
843.1930, 463.7243
845.1215, 463.1324
847.0499, 464.7591
848.9784, 467.7645
850.9069, 468.8722
852.8353, 468.3133
854.7638, 468.5956
856.6923, 469.7561
858.6207, 470.6675
860.5492, 471.3644
862.4777, 471.8591
864.4061, 471.8249
866.3346, 472.2107
868.2631, 473.2082
870.1915, 474.7045
872.1200, 477.0063
874.0485, 478.3527
875.9769, 478.1688
877.9054, 478.0445
879.8339, 478.3957
881.7623, 478.8648
883.6908, 479.0153
885.6193, 479.8849
887.5477, 482.6577
889.4762, 484.8056
891.4047, 484.6827
893.3331, 484.2260
895.2616, 484.0964
897.1901, 484.2419
899.1185, 484.5944
901.0470, 485.3975
902.9755, 487.3791
904.9039, 489.3234
906.8324, 489.8072
908.7609, 489.7137
910.6893, 490.1605
912.6178, 491.0930
914.5463, 492.2674
916.4747, 493.3225
918.4032, 493.6978
920.3317, 493.9459
922.2601, 495.3687
924.1886, 497.3958
926.1171, 498.4821
928.0455, 498.9271
929.9740, 499.5674
931.9025, 500.3610
933.8309, 500.6556
935.7594, 500.5487
937.6879, 501.9854
939.6163, 504.9051
941.5448, 506.2206
943.4733, 505.7516
945.4017, 506.8358
947.3302, 509.8665
949.2587, 510.8916
951.1871, 509.2345
953.1156, 509.1455
955.0441, 511.4018
956.9725, 512.9393
958.9010, 513.1415
960.8295, 514.0084
962.7579, 516.0776
964.6864, 517.7195
966.6149, 518.6419
968.5433, 519.4061
970.4718, 519.7617
972.4003, 520.5913
974.3287, 521.2769
976.2572, 523.7609
978.1857, 530.5484
980.1141, 534.5286
982.0426, 533.4628
983.9711, 532.5717
985.8995, 532.8648
987.8280, 532.8567
989.7565, 531.8507
991.6849, 531.5842
993.6134, 532.5931
995.5419, 533.9030
997.4703, 535.5058
999.3988, 536.9824
1001.327, 538.2319
1003.256, 539.2070
1005.184, 539.7151
1007.113, 540.1840
1009.041, 540.8414
1010.970, 541.3464
1012.898, 541.2766
1014.827, 541.7680
1016.755, 543.5541
1018.683, 545.3870
1020.612, 546.7726
1022.540, 548.2040
1024.469, 549.9760
1026.397, 551.4662
1028.326, 552.3699
1030.254, 553.1071
1032.183, 553.7402
1034.111, 554.2366
1036.040, 554.3905
1037.968, 555.0684
1039.897, 556.8473
1041.825, 558.4998
1043.754, 559.5771
1045.682, 560.8925
1047.610, 563.0841
1049.539, 564.6914
1051.467, 564.4695
1053.396, 564.8262
1055.324, 567.4191
1057.253, 569.2983
1059.181, 568.3553
1061.110, 568.2362
1063.038, 571.1699
1064.967, 573.7836
1066.895, 574.8672
1068.824, 575.3831
1070.752, 575.0768
1072.681, 575.4152
1074.609, 577.5882
1076.537, 579.2838
1078.466, 579.3128
1080.394, 579.5754
1082.323, 580.4504
1084.251, 581.8645
1086.180, 584.3412
1088.108, 586.1763
1090.037, 586.6848
1091.965, 587.2490
1093.894, 588.0349
1095.822, 588.9018
1097.751, 589.7457
1099.679, 590.8922
1101.608, 593.0236
1103.536, 594.2761
1105.464, 593.2180
1107.393, 593.8867
1109.321, 598.0563
1111.250, 600.4160
1113.178, 599.8276
1115.107, 599.7609
1117.035, 600.3196
1118.964, 601.6310
1120.892, 604.0068
1122.821, 605.7621
1124.749, 606.6868
1126.678, 607.9724
1128.606, 609.7228
1130.535, 610.7041
1132.463, 610.7980
1134.391, 611.5411
1136.320, 613.0929
1138.248, 614.6303
1140.177, 615.8646
1142.105, 617.3624
1144.034, 619.3522
1145.962, 620.8224
1147.891, 621.8489
1149.819, 623.6225
1151.748, 625.8529
1153.676, 626.9261
1155.605, 627.1849
1157.533, 628.0300
1159.462, 629.3751
1161.390, 630.9656
1163.318, 632.7600
1165.247, 634.7056
1167.175, 636.5881
1169.104, 638.2363
1171.032, 639.6266
1172.961, 640.8878
1174.889, 641.9753
1176.818, 642.3917
1178.746, 643.2233
1180.675, 645.3226
1182.603, 647.6262
1184.532, 650.2277
1186.460, 651.9500
1188.389, 651.5959
1190.317, 651.4915
1192.245, 652.2150
1194.174, 653.4085
1196.102, 655.2179
1198.031, 657.1400
1199.959, 659.1660
1201.888, 661.1725
1203.816, 663.0447
1205.745, 664.7562
1207.673, 666.4500
1209.602, 667.6794
1211.530, 668.3917
1213.459, 669.1403
1215.387, 670.0084
1217.316, 670.9129
1219.244, 671.8419
1221.172, 673.4560
1223.101, 675.5811
1225.029, 677.2432
1226.958, 678.4479
1228.886, 680.2653
1230.815, 682.3352
1232.743, 682.9456
1234.672, 682.9280
1236.600, 682.4205
1238.529, 682.4819
1240.457, 685.6184
1242.386, 688.9738
1244.314, 689.8481
1246.243, 690.3342
1248.171, 692.0374
1250.099, 693.3439
1252.028, 692.9736
1253.956, 694.1578
1255.885, 698.1545
1257.813, 701.1567
1259.742, 702.6598
1261.670, 704.3598
1263.599, 706.1635
1265.527, 707.5594
1267.456, 708.5873
1269.384, 709.8720
1271.313, 711.3410
1273.241, 712.3691
1275.170, 713.4078
1277.098, 716.8904
1279.026, 721.3555
1280.955, 723.0222
1282.883, 723.4496
1284.812, 724.6641
1286.740, 726.4516
1288.669, 729.5458
1290.597, 732.3014
1292.526, 732.8392
1294.454, 733.2864
1296.383, 734.2285
1298.311, 736.0156
1300.240, 739.1364
1302.168, 741.6889
1304.097, 743.4621
1306.025, 744.9467
1307.953, 746.1218
1309.882, 747.1141
1311.810, 748.1155
1313.739, 750.1877
1315.667, 752.5418
1317.596, 753.6349
1319.524, 754.5821
1321.453, 756.7533
1323.381, 759.2949
1325.310, 761.2773
1327.238, 763.3873
1329.167, 766.1707
1331.095, 767.9837
1333.024, 767.6453
1334.952, 767.9896
1336.880, 770.2487
1338.809, 772.5416
1340.737, 775.0371
1342.666, 777.2187
1344.594, 778.6352
1346.523, 779.2626
1348.451, 779.1689
1350.380, 779.6841
1352.308, 781.0867
1354.237, 784.0286
1356.165, 787.2323
1358.094, 789.1913
1360.022, 790.7383
1361.951, 791.3182
1363.879, 791.8473
1365.807, 793.7982
1367.736, 795.8687
1369.664, 796.9121
1371.593, 798.2377
1373.521, 800.7126
1375.450, 803.6633
1377.378, 806.6012
1379.307, 808.3027
1381.235, 809.0201
1383.164, 810.6458
1385.092, 812.7982
1387.021, 813.2120
1388.949, 812.9739
1390.878, 815.5612
1392.806, 819.1287
1394.734, 821.1471
1396.663, 822.8198
1398.591, 825.1623
1400.520, 827.1398
1402.448, 827.8370
1404.377, 829.5434
1406.305, 832.9480
1408.234, 835.1459
1410.162, 835.8423
1412.091, 837.9988
1414.019, 841.3132
1415.948, 843.0357
1417.876, 844.2047
1419.805, 846.0486
1421.733, 847.9748
1423.661, 850.7325
1425.590, 853.3152
1427.518, 853.4037
1429.447, 854.2420
1431.375, 857.8214
1433.304, 860.7830
1435.232, 863.2714
1437.161, 865.5236
1439.089, 867.0207
1441.018, 868.1994
1442.946, 869.4487
1444.875, 872.0430
1446.803, 875.4302
1448.731, 878.5230
1450.660, 880.6779
1452.588, 881.5182
1454.517, 882.6529
1456.445, 884.5313
1458.374, 886.4577
1460.302, 887.8431
1462.231, 889.2757
1464.159, 891.7698
1466.088, 893.9322
1468.016, 895.2062
1469.945, 896.3098
1471.873, 897.6302
1473.802, 900.2953
1475.730, 902.8088
1477.658, 903.2989
1479.587, 904.1746
1481.515, 907.0013
1483.444, 909.0750
1485.372, 909.1239
1487.301, 909.9943
1489.229, 912.1933
1491.158, 913.8643
1493.086, 915.1960
1495.015, 915.8854
1496.943, 916.2938
1498.872, 918.3495
1500.800, 920.3790
1502.729, 921.1465
1504.657, 922.0253
1506.585, 922.4475
1508.514, 923.3007
1510.442, 924.9995
1512.371, 927.0950
1514.299, 929.5610
1516.228, 931.0600
1518.156, 932.5353
1520.085, 935.6026
1522.013, 938.6596
1523.942, 941.5222
1525.870, 943.7723
1527.799, 944.5280
1529.727, 945.1962
1531.656, 946.2578
1533.584, 947.6367
1535.512, 949.0928
1537.441, 952.9410
1539.369, 957.4949
1541.298, 959.2663
1543.226, 960.7802
1545.155, 964.5721
1547.083, 967.6219
1549.012, 968.4567
1550.940, 969.7267
1552.869, 971.5125
1554.797, 972.6027
1556.726, 973.3978
1558.654, 975.4219
1560.583, 978.0695
1562.511, 981.5123
1564.439, 984.6007
1566.368, 985.4647
1568.296, 985.9301
1570.225, 987.1877
1572.153, 989.1490
1574.082, 991.7717
1576.010, 993.4609
1577.939, 994.1229
1579.867, 996.3929
1581.796, 999.5293
1583.724, 1001.202
1585.653, 1001.850
1587.581, 1002.246
1589.510, 1003.050
1591.438, 1004.225
1593.366, 1006.397
1595.295, 1009.400
1597.223, 1012.139
1599.152, 1014.405
1601.080, 1016.273
1603.009, 1018.359
1604.937, 1021.175
1606.866, 1023.135
1608.794, 1023.620
1610.723, 1024.577
1612.651, 1026.513
1614.580, 1028.497
1616.508, 1029.819
1618.437, 1031.234
1620.365, 1033.296
1622.293, 1035.911
1624.222, 1037.753
1626.150, 1038.536
1628.079, 1040.389
1630.007, 1043.384
1631.936, 1045.134
1633.864, 1045.993
1635.793, 1047.250
1637.721, 1048.889
1639.650, 1052.157
1641.578, 1053.997
1643.507, 1052.509
1645.435, 1053.604
1647.364, 1057.477
1649.292, 1060.450
1651.220, 1061.904
1653.149, 1062.597
1655.077, 1064.438
1657.006, 1066.940
1658.934, 1067.923
1660.863, 1069.365
1662.791, 1073.345
1664.720, 1076.571
1666.648, 1078.712
1668.577, 1081.327
1670.505, 1083.754
1672.434, 1085.356
1674.362, 1086.508
1676.291, 1088.985
1678.219, 1091.947
1680.147, 1094.771
1682.076, 1097.677
1684.004, 1099.034
1685.933, 1100.220
1687.861, 1102.012
1689.790, 1104.086
1691.718, 1106.898
1693.647, 1109.297
1695.575, 1110.793
1697.504, 1112.777
1699.432, 1115.287
1701.361, 1116.445
1703.289, 1118.609
1705.218, 1124.190
1707.146, 1128.072
1709.074, 1129.130
1711.003, 1129.983
1712.931, 1131.043
1714.860, 1131.970
1716.788, 1133.266
1718.717, 1134.977
1720.645, 1137.150
1722.574, 1139.075
1724.502, 1139.835
1726.431, 1141.139
1728.359, 1143.939
1730.288, 1145.703
1732.216, 1147.038
1734.145, 1147.938
1736.073, 1147.252
1738.001, 1148.283
1739.930, 1150.902
1741.858, 1153.299
1743.787, 1155.189
1745.715, 1157.291
1747.644, 1159.345
1749.572, 1160.654
1751.501, 1162.366
1753.429, 1165.011
1755.358, 1166.979
1757.286, 1168.673
1759.215, 1170.547
1761.143, 1172.289
1763.072, 1173.351
1765.000, 1174.203
1766.928, 1176.303
1768.857, 1178.187
1770.785, 1180.007
1772.714, 1181.769
1774.642, 1183.236
1776.571, 1186.658
1778.499, 1189.331
1780.428, 1189.970
1782.356, 1190.292
1784.285, 1190.558
1786.213, 1190.957
1788.142, 1192.399
1790.070, 1194.832
1791.999, 1196.939
1793.927, 1199.772
1795.855, 1202.359
1797.784, 1203.429
1799.712, 1205.521
1801.641, 1207.680
1803.569, 1208.030
1805.498, 1208.730
1807.426, 1210.377
1809.355, 1210.250
1811.283, 1210.199
1813.212, 1212.651
1815.140, 1214.621
1817.069, 1217.116
1818.997, 1219.229
1820.926, 1220.252
1822.854, 1223.014
1824.782, 1225.835
1826.711, 1225.334
1828.639, 1226.209
1830.568, 1230.822
1832.496, 1234.068
1834.425, 1235.399
1836.353, 1233.922
1838.282, 1231.976
1840.210, 1233.636
1842.139, 1235.913
1844.067, 1236.158
1845.996, 1237.306
1847.924, 1240.171
1849.853, 1243.343
1851.781, 1244.986
1853.709, 1244.741
1855.638, 1244.719
1857.566, 1244.203
1859.495, 1244.485
1861.423, 1245.785
1863.352, 1247.031
1865.280, 1249.145
1867.209, 1251.511
1869.137, 1252.054
1871.066, 1252.289
1872.994, 1254.246
1874.923, 1255.711
1876.851, 1257.822
1878.780, 1259.790
1880.708, 1259.464
1882.636, 1260.846
1884.565, 1263.874
1886.493, 1263.074
1888.422, 1262.952
1890.350, 1266.111
1892.279, 1268.017
1894.207, 1268.444
1896.136, 1270.009
1898.064, 1271.243
1899.993, 1271.786
1901.921, 1272.882
1903.850, 1273.600
1905.778, 1273.361
1907.707, 1273.165
1909.635, 1276.156
1911.563, 1280.885
1913.492, 1283.662
1915.420, 1284.342
1917.349, 1284.847
1919.277, 1285.630
1921.206, 1286.672
1923.134, 1287.882
1925.063, 1288.551
1926.991, 1288.862
1928.920, 1291.564
1930.848, 1294.535
1932.777, 1295.694
1934.705, 1295.610
1936.634, 1295.113
1938.562, 1295.530
1940.490, 1296.540
1942.419, 1298.135
1944.347, 1299.776
1946.276, 1300.066
1948.204, 1300.936
1950.133, 1302.649
1952.061, 1303.808
1953.990, 1305.822
1955.918, 1307.048
1957.847, 1308.044
1959.775, 1310.455
1961.704, 1311.740
1963.632, 1312.459
1965.561, 1314.005
1967.489, 1314.785
1969.417, 1314.272
1971.346, 1314.678
1973.274, 1315.348
1975.203, 1313.770
1977.131, 1313.904
1979.060, 1319.350
1980.988, 1321.518
1982.917, 1320.376
1984.845, 1322.495
1986.774, 1324.594
1988.702, 1324.660
1990.631, 1324.751
1992.559, 1324.718
1994.488, 1325.774
1996.416, 1327.337
1998.344, 1328.964
2000.273, 1330.340
2002.201, 1330.279
2004.130, 1329.461
2006.058, 1329.349
2007.987, 1332.588
2009.915, 1336.395
2011.844, 1336.958
2013.772, 1337.439
2015.701, 1339.131
2017.629, 1339.066
2019.558, 1339.714
2021.486, 1340.863
2023.415, 1340.792
2025.343, 1341.264
2027.271, 1342.649
2029.200, 1343.738
2031.128, 1345.389
2033.057, 1344.851
2034.985, 1342.697
2036.914, 1342.408
2038.842, 1343.471
2040.771, 1344.105
2042.699, 1344.548
2044.628, 1346.622
2046.556, 1349.080
2048.485, 1350.377
2050.413, 1350.483
2052.342, 1349.978
2054.270, 1349.542
2056.198, 1351.972
2058.127, 1353.555
2060.055, 1351.023
2061.984, 1348.885
2063.912, 1348.541
2065.841, 1351.404
2067.769, 1354.405
2069.698, 1355.271
2071.626, 1355.270
2073.555, 1356.138
2075.483, 1358.585
2077.412, 1359.535
2079.340, 1358.923
2081.269, 1358.977
2083.197, 1360.277
2085.125, 1362.205
2087.054, 1362.863
2088.982, 1361.094
2090.911, 1359.747
2092.839, 1359.745
2094.768, 1360.558
2096.696, 1361.690
2098.625, 1362.840
2100.553, 1362.547
2102.482, 1362.747
2104.410, 1364.376
2106.339, 1363.632
2108.267, 1361.622
2110.196, 1359.393
2112.124, 1358.281
2114.052, 1360.695
2115.981, 1364.461
2117.909, 1368.514
2119.838, 1369.891
2121.766, 1369.704
2123.695, 1367.320
2125.623, 1366.618
2127.552, 1369.007
2129.480, 1370.759
2131.409, 1371.664
2133.337, 1371.734
2135.266, 1371.768
2137.194, 1372.047
2139.123, 1370.037
2141.051, 1368.146
2142.979, 1367.617
2144.908, 1369.005
2146.836, 1370.745
2148.765, 1370.404
2150.693, 1369.739
2152.622, 1368.905
2154.550, 1370.213
2156.479, 1372.962
2158.407, 1376.095
2160.336, 1377.405
2162.264, 1377.159
2164.193, 1378.150
2166.121, 1377.973
2168.050, 1376.123
2169.978, 1375.909
2171.906, 1377.025
2173.835, 1376.954
2175.763, 1376.289
2177.692, 1375.507
2179.620, 1377.510
2181.549, 1379.469
2183.477, 1376.342
2185.406, 1374.799
2187.334, 1375.819
2189.263, 1375.825
2191.191, 1376.251
2193.120, 1378.183
2195.048, 1377.433
2196.977, 1375.706
2198.905, 1376.072
2200.833, 1375.970
2202.762, 1374.780
2204.690, 1372.406
2206.619, 1371.547
2208.547, 1374.012
2210.476, 1375.787
2212.404, 1377.328
2214.333, 1379.891
2216.261, 1380.566
2218.190, 1378.756
2220.118, 1376.963
2222.047, 1374.691
2223.975, 1374.158
2225.904, 1377.115
2227.832, 1382.405
2229.760, 1382.632
2231.689, 1380.502
2233.617, 1377.615
2235.546, 1376.245
2237.474, 1375.856
2239.403, 1375.102
2241.331, 1374.984
2243.260, 1375.654
2245.188, 1376.339
2247.117, 1376.970
2249.045, 1379.362
2250.974, 1380.534
2252.902, 1379.802
2254.831, 1378.148
2256.759, 1377.266
2258.688, 1377.933
2260.616, 1375.968
2262.544, 1374.215
2264.473, 1375.542
2266.401, 1374.558
2268.330, 1372.748
2270.258, 1375.634
2272.187, 1378.533
2274.115, 1379.078
2276.044, 1377.310
2277.972, 1374.970
2279.901, 1373.505
2281.829, 1372.529
2283.758, 1371.927
2285.686, 1371.426
2287.615, 1372.072
2289.543, 1373.480
2291.471, 1376.478
2293.400, 1378.674
2295.328, 1375.565
2297.257, 1373.598
2299.185, 1372.988
2301.114, 1371.069
2303.042, 1369.477
2304.971, 1368.641
2306.899, 1365.872
2308.828, 1363.427
2310.756, 1364.108
2312.685, 1363.682
2314.613, 1361.990
2316.542, 1360.458
2318.470, 1360.525
2320.398, 1362.499
2322.327, 1363.780
2324.255, 1364.471
2326.184, 1365.024
2328.112, 1366.461
2330.041, 1366.185
2331.969, 1360.313
2333.898, 1355.727
2335.826, 1353.074
2337.755, 1352.730
2339.683, 1353.393
2341.612, 1354.041
2343.540, 1353.980
2345.469, 1352.907
2347.397, 1350.050
2349.325, 1347.815
2351.254, 1346.921
2353.182, 1348.815
2355.111, 1350.063
2357.039, 1350.030
2358.968, 1349.258
2360.896, 1348.020
2362.825, 1346.537
2364.753, 1346.286
2366.682, 1346.809
2368.610, 1348.222
2370.539, 1348.289
2372.467, 1347.270
2374.396, 1345.396
2376.324, 1345.198
2378.252, 1346.537
2380.181, 1347.089
2382.109, 1346.966
2384.038, 1346.305
2385.966, 1342.287
2387.895, 1339.376
2389.823, 1342.834
2391.752, 1344.107
2393.680, 1343.792
2395.609, 1344.531
2397.537, 1344.165
2399.466, 1342.704
2401.394, 1342.432
2403.323, 1341.226
2405.251, 1338.944
2407.179, 1337.183
2409.108, 1336.735
2411.036, 1338.327
2412.965, 1336.803
2414.893, 1334.221
2416.822, 1333.090
2418.750, 1331.617
2420.679, 1329.570
2422.607, 1326.320
2424.536, 1323.844
2426.464, 1322.803
2428.393, 1323.467
2430.321, 1323.626
2432.250, 1322.673
2434.178, 1322.017
2436.106, 1320.684
2438.035, 1317.899
2439.963, 1316.074
2441.892, 1315.214
2443.820, 1314.382
2445.749, 1313.553
2447.677, 1312.953
2449.606, 1311.823
2451.534, 1310.085
2453.463, 1308.146
2455.391, 1306.951
2457.320, 1306.424
2459.248, 1306.593
2461.177, 1304.389
2463.105, 1302.690
2465.033, 1302.551
2466.962, 1303.460
2468.890, 1303.224
2470.819, 1300.363
2472.747, 1296.425
2474.676, 1292.935
2476.604, 1293.196
2478.533, 1294.220
2480.461, 1294.524
2482.390, 1293.416
2484.318, 1293.406
2486.247, 1292.783
2488.175, 1286.460
2490.104, 1282.997
2492.032, 1282.468
2493.960, 1281.042
2495.889, 1278.107
2497.817, 1274.941
2499.746, 1273.393
2501.674, 1272.423
2503.603, 1272.888
2505.531, 1271.188
2507.460, 1269.980
2509.388, 1269.430
2511.317, 1270.938
2513.245, 1273.021
2515.174, 1272.883
2517.102, 1267.684
2519.031, 1262.780
2520.959, 1262.454
2522.887, 1261.618
2524.816, 1260.699
2526.744, 1259.913
2528.673, 1257.521
2530.601, 1254.837
2532.530, 1255.618
2534.458, 1255.572
2536.387, 1254.486
2538.315, 1251.859
2540.244, 1249.869
2542.172, 1249.206
2544.101, 1248.038
2546.029, 1246.778
2547.958, 1245.776
2549.886, 1242.946
2551.814, 1241.068
2553.743, 1240.328
2555.671, 1243.142
2557.600, 1242.709
2559.528, 1237.623
2561.457, 1234.847
2563.385, 1233.382
2565.314, 1232.084
2567.242, 1231.689
2569.171, 1229.721
2571.099, 1226.556
2573.028, 1222.230
2574.956, 1220.029
2576.885, 1221.177
2578.813, 1218.726
2580.741, 1216.364
2582.670, 1214.268
2584.598, 1210.383
2586.527, 1209.443
2588.455, 1208.884
2590.384, 1207.669
2592.312, 1206.541
2594.241, 1202.681
2596.169, 1201.627
2598.098, 1201.589
2600.026, 1199.916
2601.955, 1195.636
2603.883, 1192.328
2605.812, 1190.691
2607.740, 1190.897
2609.668, 1190.449
2611.597, 1188.040
2613.525, 1185.656
2615.454, 1183.422
2617.382, 1181.012
2619.311, 1176.594
2621.239, 1173.469
2623.168, 1173.973
2625.096, 1172.032
2627.025, 1168.782
2628.953, 1166.687
2630.882, 1164.364
2632.810, 1162.150
2634.739, 1161.979
2636.667, 1160.448
2638.595, 1158.413
2640.524, 1156.830
2642.452, 1155.127
2644.381, 1152.341
2646.309, 1148.932
2648.238, 1147.716
2650.166, 1145.654
2652.095, 1144.468
2654.023, 1142.525
2655.952, 1139.521
2657.880, 1137.583
2659.809, 1135.754
2661.737, 1132.610
2663.666, 1129.133
2665.594, 1128.251
2667.522, 1126.395
2669.451, 1123.485
2671.379, 1120.107
2673.308, 1117.127
2675.236, 1115.646
2677.165, 1111.948
2679.093, 1106.960
2681.022, 1103.824
2682.950, 1103.590
2684.879, 1101.844
2686.807, 1098.932
2688.736, 1093.946
2690.664, 1091.491
2692.593, 1090.151
2694.521, 1084.169
2696.449, 1079.702
2698.378, 1078.669
2700.306, 1075.920
2702.235, 1072.351
2704.163, 1069.501
2706.092, 1067.362
2708.020, 1065.899
2709.949, 1063.057
2711.877, 1058.757
2713.806, 1058.085
2715.734, 1056.631
2717.663, 1051.572
2719.591, 1051.189
2721.520, 1050.428
2723.448, 1047.656
2725.376, 1044.882
2727.305, 1041.231
2729.233, 1037.876
2731.162, 1033.026
2733.090, 1029.563
2735.019, 1026.889
2736.947, 1025.808
2738.876, 1024.289
2740.804, 1020.840
2742.733, 1017.441
2744.661, 1017.222
2746.590, 1016.115
2748.518, 1011.803
2750.447, 1009.483
2752.375, 1007.658
2754.303, 1007.098
2756.232, 1005.180
2758.160, 1000.184
2760.089, 993.6692
2762.017, 994.7334
2763.946, 993.5303
2765.874, 989.3708
2767.803, 985.7128
2769.731, 981.3442
2771.660, 976.8483
2773.588, 975.5245
2775.517, 972.4343
2777.445, 968.6985
2779.374, 967.4348
2781.302, 966.2303
2783.230, 963.0231
2785.159, 960.1283
2787.087, 958.1675
2789.016, 955.0544
2790.944, 952.8996
2792.873, 951.2920
2794.801, 947.0318
2796.730, 941.9149
2798.658, 939.4172
2800.587, 937.0499
2802.515, 933.0911
2804.444, 929.2604
2806.372, 925.8649
2808.301, 923.4671
2810.229, 923.1064
2812.157, 921.6711
2814.086, 918.2977
2816.014, 915.3607
2817.943, 913.7030
2819.871, 909.8306
2821.800, 904.9795
2823.728, 898.6525
2825.657, 897.0240
2827.585, 895.7015
2829.514, 893.2661
2831.442, 888.8754
2833.371, 885.9562
2835.299, 884.1824
2837.228, 880.5295
2839.156, 877.8805
2841.084, 874.5154
2843.013, 870.4160
2844.941, 868.1176
2846.870, 864.3160
2848.798, 860.1653
2850.727, 856.9759
2852.655, 853.0158
2854.584, 849.0632
2856.512, 843.9577
2858.441, 839.4171
2860.369, 835.8978
2862.298, 833.0695
2864.226, 829.2391
2866.155, 825.4608
2868.083, 823.0762
2870.011, 819.6639
2871.940, 815.8521
2873.868, 814.1746
2875.797, 810.6006
2877.725, 807.0081
2879.654, 803.5192
2881.582, 798.8270
2883.511, 805.5219
2885.439, 811.1370
2887.368, 799.7466
2889.296, 793.6837
2891.225, 789.1832
2893.153, 784.9402
2895.082, 783.1277
2897.010, 780.8896
2898.938, 776.8387
2900.867, 772.7141
2902.795, 772.3995
2904.724, 771.4071
2906.652, 766.5726
2908.581, 761.2847
2910.509, 756.9569
2912.438, 754.5886
2914.366, 751.8028
2916.295, 749.5477
2918.223, 746.6465
2920.152, 741.7499
2922.080, 741.3810
2924.008, 738.1935
2925.937, 733.5701
2927.865, 735.0289
2929.794, 730.9200
2931.722, 725.9417
2933.651, 723.9350
2935.579, 722.7291
2937.508, 721.5305
2939.436, 718.3563
2941.365, 715.3240
2943.293, 716.1136
2945.221, 715.0182
2947.150, 706.8535
2949.078, 702.4384
2951.007, 701.1824
2952.935, 699.5856
2954.864, 696.3967
2956.792, 693.3074
2958.721, 691.1256
2960.649, 689.3328
2962.578, 686.5812
2964.506, 684.2101
2966.435, 681.7119
2968.363, 679.6343
2970.292, 677.6185
2972.220, 674.5939
2974.148, 669.6993
2976.077, 664.9036
2978.005, 661.8112
2979.934, 660.3074
2981.862, 655.5975
2983.791, 652.1009
2985.719, 648.6361
2987.648, 646.0319
2989.576, 644.6075
2991.505, 642.8088
2993.433, 641.6545
2995.362, 636.5716
2997.290, 633.2529
2999.219, 630.6979
3001.147, 626.6955
3003.075, 623.7874
3005.004, 621.4832
3006.932, 619.2115
3008.861, 615.9971
3010.789, 612.4311
3012.718, 609.0533
3014.646, 606.2205
3016.575, 605.6050
3018.503, 604.2468
3020.432, 600.9225
3022.360, 596.1329
3024.289, 593.0831
3026.217, 590.5457
3028.146, 588.6204
3030.074, 588.7827
3032.002, 584.0381
3033.931, 580.1024
3035.859, 579.7448
3037.788, 577.9891
3039.716, 576.2733
3041.645, 573.8636
3043.573, 569.4446
3045.502, 566.2669
3047.430, 564.9001
3049.359, 563.8518
3051.287, 558.9490
3053.216, 554.3695
3055.144, 553.4033
3057.073, 554.7314
3059.001, 548.9382
3060.929, 545.8329
3062.858, 544.8796
3064.786, 542.8388
3066.715, 541.0031
3068.643, 536.7311
3070.572, 531.0146
3072.500, 532.3373
3074.429, 532.0357
3076.357, 527.6745
3078.286, 522.1337
3080.214, 523.6653
3082.143, 521.7922
3084.071, 518.5699
3086.000, 515.6583
3087.928, 514.9484
3089.856, 512.8560
3091.785, 509.2101
3093.713, 505.6704
3095.642, 503.7908
3097.570, 500.7928
3099.499, 497.1042
3101.427, 493.2132
3103.356, 491.9380
3105.284, 491.2479
3107.213, 489.9108
3109.141, 485.2378
3111.070, 483.8162
3112.998, 482.4720
3114.927, 479.5407
3116.855, 477.3672
3118.783, 473.5255
3120.712, 469.4394
3122.640, 467.7706
3124.569, 464.1385
3126.497, 462.3186
3128.426, 460.0188
3130.354, 455.8654
3132.283, 454.5788
3134.211, 452.8491
3136.140, 450.0013
3138.068, 445.8996
3139.997, 444.1604
3141.925, 442.0596
3143.854, 439.2472
3145.782, 436.2980
3147.710, 433.4564
3149.639, 430.8873
3151.567, 429.1102
3153.496, 428.2106
3155.424, 424.5818
3157.353, 422.4846
3159.281, 421.3584
3161.210, 418.3846
3163.138, 415.1990
3165.067, 412.6631
3166.995, 411.1641
3168.924, 411.2557
3170.852, 406.2973
3172.781, 403.1568
3174.709, 403.5897
3176.637, 399.5698
3178.566, 394.5832
3180.494, 391.3491
3182.423, 389.5203
3184.351, 386.0660
3186.280, 379.8945
3188.208, 374.8595
3190.137, 372.7149
3192.065, 371.5169
3193.994, 369.8701
3195.922, 367.1221
3197.851, 363.5994
3199.779, 362.8086
3201.708, 359.1001
3203.636, 354.8931
3205.564, 353.0640
3207.493, 353.4310
3209.421, 351.1780
3211.350, 347.1877
3213.278, 342.8477
3215.207, 341.4508
3217.135, 339.7449
3219.064, 336.9307
3220.992, 334.1130
3222.921, 334.6413
3224.849, 330.8104
3226.778, 327.4541
3228.706, 325.5174
3230.635, 323.6371
3232.563, 321.4106
3234.491, 320.0948
3236.420, 318.4284
3238.348, 313.9057
3240.277, 310.8544
3242.205, 308.9902
3244.134, 307.6394
3246.062, 306.6756
3247.991, 301.5348
3249.919, 300.2822
3251.848, 300.2283
3253.776, 297.1613
3255.705, 294.1561
3257.633, 292.7659
3259.562, 292.6129
3261.490, 292.3629
3263.418, 288.9892
3265.347, 286.4701
3267.275, 286.5353
3269.204, 288.3652
3271.132, 286.8321
3273.061, 283.7172
3274.989, 281.1491
3276.918, 279.3397
3278.846, 277.5044
3280.775, 277.8165
3282.703, 277.0021
3284.632, 275.5605
3286.560, 275.4857
3288.489, 277.7593
3290.417, 276.1271
3292.345, 273.5715
3294.274, 273.4665
3296.202, 273.2150
3298.131, 271.7148
3300.059, 270.9268
3301.988, 270.7249
3303.916, 266.7492
3305.845, 268.3224
3307.773, 268.7183
3309.702, 267.0386
3311.630, 265.3155
3313.559, 263.2255
3315.487, 262.0670
3317.416, 260.5353
3319.344, 257.8102
3321.272, 258.9775
3323.201, 258.0479
3325.129, 255.5114
3327.058, 252.4875
3328.986, 249.5342
3330.915, 247.2230
3332.843, 245.9045
3334.772, 245.1066
3336.700, 244.0955
3338.629, 242.9704
3340.557, 240.0661
3342.486, 237.3134
3344.414, 235.9855
3346.343, 235.5382
3348.271, 232.8072
3350.199, 231.5643
3352.128, 231.9018
3354.056, 231.5448
3355.985, 229.0770
3357.913, 229.3394
3359.842, 229.3691
3361.770, 227.2731
3363.699, 227.6568
3365.627, 225.6955
3367.556, 224.4453
3369.484, 224.7173
3371.413, 225.7936
3373.341, 223.9608
3375.270, 222.7081
3377.198, 221.7163
3379.126, 220.5049
3381.055, 220.0953
3382.983, 219.3347
3384.912, 217.3092
3386.840, 215.1999
3388.769, 214.6490
3390.697, 214.5930
3392.626, 214.0325
3394.554, 212.2092
3396.483, 210.1069
3398.411, 210.6487
3400.340, 210.1169
3402.268, 208.8289
3404.197, 206.9149
3406.125, 204.5775
3408.053, 202.2470
3409.982, 203.6824
3411.910, 204.4146
3413.839, 203.0090
3415.767, 200.6932
3417.696, 201.9600
3419.624, 201.2246
3421.553, 199.6160
3423.481, 198.5423
3425.410, 198.1622
3427.338, 196.2837
3429.267, 196.8184
3431.195, 196.8767
3433.124, 194.6786
3435.052, 196.8642
3436.980, 195.1159
3438.909, 193.9741
3440.837, 194.6617
3442.766, 195.9844
3444.694, 194.0855
3446.623, 192.3957
3448.551, 191.0526
3450.480, 190.6303
3452.408, 191.6650
3454.337, 189.0692
3456.265, 185.8652
3458.194, 183.7641
3460.122, 182.6877
3462.051, 181.3820
3463.979, 179.1884
3465.907, 178.5544
3467.836, 176.9720
3469.764, 174.1162
3471.693, 172.6355
3473.621, 172.4454
3475.550, 172.3668
3477.478, 170.6995
3479.407, 167.8149
3481.335, 166.3852
3483.264, 165.8963
3485.192, 165.7910
3487.121, 164.4500
3489.049, 162.1031
3490.978, 162.1601
3492.906, 161.0011
3494.834, 159.9042
3496.763, 159.8170
3498.691, 160.4153
3500.620, 159.8384
3502.548, 159.3499
3504.477, 158.3385
3506.405, 157.0381
3508.334, 156.1598
3510.262, 156.5707
3512.191, 154.7176
3514.119, 159.9828
3516.048, 161.9061
3517.976, 157.1072
3519.905, 153.5023
3521.833, 152.4866
3523.761, 151.1437
3525.690, 151.0208
3527.618, 151.4577
3529.547, 149.9957
3531.475, 148.9108
3533.404, 148.6385
3535.332, 146.4746
3537.261, 143.8822
3539.189, 143.5395
3541.118, 141.4574
3543.046, 140.3227
3544.975, 140.8272
3546.903, 140.6993
3548.832, 138.4900
3550.760, 138.4259
3552.688, 137.1820
3554.617, 134.7905
3556.545, 134.5962
3558.474, 136.4102
3560.402, 133.5190
3562.331, 131.9640
3564.259, 132.5394
3566.188, 132.9246
3568.116, 132.4841
3570.045, 132.2928
3571.973, 130.8567
3573.902, 133.0587
3575.830, 134.2788
3577.759, 133.5884
3579.687, 132.2686
3581.615, 130.1825
3583.544, 128.2995
3585.472, 128.0954
3587.401, 128.0260
3589.329, 126.8154
3591.258, 124.7603
3593.186, 124.3101
3595.115, 124.6670
3597.043, 123.2477
3598.972, 120.8484
3600.900, 119.4170
3602.829, 119.1853
3604.757, 119.6044
3606.686, 117.7293
3608.614, 115.3153
3610.542, 113.9108
3612.471, 113.2461
3614.399, 111.3870
3616.328, 111.5199
3618.256, 109.9654
3620.185, 108.6929
3622.113, 109.3429
3624.042, 106.5448
3625.970, 105.1525
3627.899, 106.2402
3629.827, 106.2839
3631.756, 105.4228
3633.684, 106.1911
3635.613, 107.3403
3637.541, 106.2728
3639.469, 107.1617
3641.398, 107.7428
3643.326, 107.0447
3645.255, 107.4291
3647.183, 106.9208
3649.112, 106.7626
3651.040, 107.2357
3652.969, 107.4426
3654.897, 106.9388
3656.826, 106.4629
3658.754, 107.5856
3660.683, 106.2011
3662.611, 104.1868
3664.540, 103.6204
3666.468, 104.1333
3668.396, 101.9658
3670.325, 100.6697
3672.253, 100.8183
3674.182, 98.93157
3676.110, 96.41869
3678.039, 95.46999
3679.967, 94.63712
3681.896, 93.01490
3683.824, 92.06097
3685.753, 91.39233
3687.681, 90.26585
3689.610, 88.91295
3691.538, 88.80975
3693.467, 87.47871
3695.395, 86.00648
3697.323, 84.91188
3699.252, 84.26274
3701.180, 84.48591
3703.109, 86.26303
3705.037, 84.17468
3706.966, 84.07494
3708.894, 83.80824
3710.823, 83.57249
3712.751, 83.61314
3714.680, 82.73209
3716.608, 84.14756
3718.537, 82.19263
3720.465, 82.74966
3722.394, 83.15571
3724.322, 82.06088
3726.250, 81.37366
3728.179, 79.97371
3730.107, 79.00062
3732.036, 78.56109
3733.964, 78.21223
3735.893, 77.90764
3737.821, 77.47993
3739.750, 76.16016
3741.678, 75.80314
3743.607, 74.98017
3745.535, 74.01543
3747.464, 73.03548
3749.392, 72.15272
3751.321, 71.50896
3753.249, 70.31220
3755.177, 70.71912
3757.106, 69.45692
3759.034, 69.21803
3760.963, 69.50656
3762.891, 68.82793
3764.820, 69.05956
3766.748, 68.14547
3768.677, 67.79079
3770.605, 67.27766
3772.534, 67.65383
3774.462, 68.27048
3776.391, 67.53932
3778.319, 67.64079
3780.248, 67.76987
3782.176, 67.38596
3784.104, 66.13394
3786.033, 65.85799
3787.961, 66.30923
3789.890, 65.27377
3791.818, 65.83562
3793.747, 65.74888
3795.675, 65.71387
3797.604, 64.89168
3799.532, 63.28093
3801.461, 61.60494
3803.389, 60.36855
3805.318, 59.14040
3807.246, 60.02147
3809.175, 57.52050
3811.103, 56.51632
3813.031, 56.50344
3814.960, 55.49998
3816.888, 54.34583
3818.817, 52.40296
3820.745, 51.49679
3822.674, 50.53987
3824.602, 49.32203
3826.531, 48.59013
3828.459, 48.74105
3830.388, 49.23252
3832.316, 48.51888
3834.245, 46.94793
3836.173, 47.52630
3838.102, 47.70166
3840.030, 47.14869
3841.958, 47.22524
3843.887, 48.36334
3845.815, 48.44191
3847.744, 47.32962
3849.672, 48.83810
3851.601, 49.90966
3853.529, 49.64181
3855.458, 49.07437
3857.386, 49.14774
3859.315, 49.64116
3861.243, 49.39922
3863.172, 49.47264
3865.100, 48.59768
3867.029, 49.21255
3868.957, 49.06800
3870.885, 47.97788
3872.814, 47.72544
3874.742, 46.86751
3876.671, 46.75048
3878.599, 45.80148
3880.528, 45.04784
3882.456, 45.37079
3884.385, 43.92263
3886.313, 41.57038
3888.242, 41.63570
3890.170, 40.24572
3892.099, 39.23680
3894.027, 38.92334
3895.956, 37.40106
3897.884, 37.24799
3899.813, 36.60036
3901.741, 35.59385
3903.669, 36.75048
3905.598, 36.37981
3907.526, 35.61548
3909.455, 35.27766
3911.383, 35.95711
3913.312, 35.82949
3915.240, 35.82304
3917.169, 36.16570
3919.097, 35.89634
3921.026, 36.35093
3922.954, 36.52815
3924.883, 34.75830
3926.811, 33.27394
3928.740, 33.45052
3930.668, 33.59452
3932.596, 33.77015
3934.525, 34.42426
3936.453, 34.05610
3938.382, 34.39540
3940.310, 34.24598
3942.239, 33.85937
3944.167, 33.03863
3946.096, 32.58057
3948.024, 31.73765
3949.953, 30.58182
3951.881, 30.38673
3953.810, 30.94642
3955.738, 29.89241
3957.667, 28.99605
3959.595, 29.35313
3961.523, 29.08855
3963.452, 28.61506
3965.380, 28.43165
3967.309, 28.41741
3969.237, 28.50942
3971.166, 28.42085
3973.094, 27.88784
3975.023, 27.83255
3976.951, 27.05954
3978.880, 27.01718
3980.808, 26.35221
3982.737, 25.80519
3984.665, 25.33752
3986.594, 24.40838
3988.522, 23.95733
3990.450, 24.41795
3992.379, 23.62783
3994.307, 23.59417
3996.236, 22.22968
3998.164, 23.30438
4000.093, 22.41904
4002.021, 22.06575
4003.950, 21.97103
4005.878, 21.36069
4007.807, 20.76416
4009.735, 20.65907
4011.664, 20.34448
4013.592, 20.22693
4015.521, 19.84167
4017.449, 19.85101
4019.377, 19.29196
4021.306, 19.02309
4023.234, 19.17681
4025.163, 19.36729
4027.091, 19.30845
4029.020, 18.79833
4030.948, 18.33894
4032.877, 18.23792
4034.805, 18.05200
4036.734, 17.09438
4038.662, 16.85537
4040.591, 16.40321
4042.519, 16.30487
4044.448, 16.34765
4046.376, 15.63000
4048.304, 15.58505
4050.233, 16.54890
4052.161, 15.77741
4054.090, 14.89942
4056.018, 14.05474
4057.947, 14.26142
4059.875, 14.23809
4061.804, 14.49109
4063.732, 14.52449
4065.661, 13.61823
4067.589, 13.22619
4069.518, 13.08680
4071.446, 13.12757
4073.375, 12.50284
4075.303, 12.53422
4077.231, 12.55529
4079.160, 12.09909
4081.088, 11.96967
4083.017, 11.98303
4084.945, 11.70252
4086.874, 11.25583
4088.802, 10.77186
4090.731, 10.88341
4092.659, 10.63530
4094.588, 10.91914
4096.516, 10.43058
4098.444, 10.58030
4100.373, 10.41688
4102.301, 9.887919
4104.230, 9.781730
4106.158, 9.573681
4108.087, 9.084661
4110.015, 9.386502
4111.944, 8.740140
4113.872, 8.837969
4115.801, 8.764993
4117.729, 9.195083
4119.658, 8.123074
4121.586, 7.521101
4123.515, 7.736693
4125.443, 7.617050
4127.372, 7.229695
4129.300, 7.206918
4131.229, 7.269973
4133.157, 6.805514
4135.085, 6.357687
4137.014, 6.692423
4138.942, 6.599624
4140.871, 7.109315
4142.799, 5.903560
4144.728, 5.383828
4146.656, 5.972220
4148.584, 5.358502
4150.513, 5.270656
4152.441, 5.530939
4154.370, 5.140014
4156.298, 5.216870
4158.227, 4.628442
4160.155, 4.586988
4162.084, 4.564372
4164.012, 4.293557
4165.941, 3.845612
4167.869, 3.899903
4169.798, 3.345555
4171.726, 3.894014
4173.655, 3.968263
4175.583, 3.420283
4177.512, 3.660969
4179.440, 3.892002
4181.369, 3.511870
4183.297, 3.984166
4185.226, 3.936805
4187.154, 3.431407
4189.083, 3.431941
4191.011, 3.280881
4192.939, 3.571591
4194.868, 3.923179
4196.796, 3.765916
4198.725, 3.862940
4200.653, 3.638088
4202.582, 3.678514
4204.510, 3.713808
4206.438, 3.667444
4208.367, 3.750643
4210.295, 3.420190
4212.224, 2.780962
4214.152, 2.890037
4216.081, 3.559966
4218.009, 3.133953
4219.938, 3.152457
4221.866, 3.155040
4223.795, 2.867215
4225.723, 2.500696
4227.652, 2.592663
4229.580, 3.499971
4231.509, 3.176460
4233.437, 3.025302
4235.366, 2.675452
4237.294, 2.436311
4239.223, 2.852643
4241.151, 3.024960
4243.080, 3.222027
4245.008, 2.632173
4246.937, 2.754590
4248.865, 3.050581
4250.793, 2.517786
4252.722, 2.971912
4254.650, 3.090392
4256.579, 2.859498
4258.507, 2.798290
4260.436, 2.526851
4262.364, 2.572993
4264.292, 2.702567
4266.221, 3.138039
4268.149, 3.144343
4270.078, 2.541587
4272.006, 2.749591
4273.935, 3.257889
4275.863, 2.912122
4277.792, 2.778607
4279.720, 2.987936
4281.649, 3.342027
4283.577, 3.273736
4285.506, 2.907028
4287.434, 2.999986
4289.363, 2.881423
4291.291, 2.438721
4293.220, 3.185242
4295.148, 2.653800
4297.077, 2.765116
4299.005, 2.602974
4300.934, 2.416704
4302.862, 2.394698
4304.791, 2.795209
4306.719, 2.716564
4308.647, 2.733880
4310.576, 2.830228
4312.504, 2.481457
4314.433, 2.449612
4316.361, 2.862905
4318.290, 2.984028
4320.218, 2.888929
4322.146, 2.900343
4324.075, 3.210301
4326.003, 2.511792
4327.932, 2.685753
4329.860, 2.795289
4331.789, 2.451132
4333.717, 2.957251
4335.646, 2.749076
4337.574, 2.989514
4339.503, 2.103929
4341.431, 2.185809
4343.360, 2.138096
4345.288, 2.583125
4347.217, 2.562291
4349.145, 2.954287
4351.074, 2.668725
4353.002, 2.279202
4354.931, 2.085576
4356.859, 2.064517
4358.788, 2.345340
4360.716, 1.729187
4362.645, 1.791311
4364.573, 2.520040
4366.501, 2.461128
4368.430, 2.236362
4370.358, 2.706402
4372.287, 2.798517
4374.215, 2.283935
4376.144, 2.602911
4378.072, 2.720761
4380.000, 2.788174
4381.929, 2.534535
##END=



