##NAMES=Correianevesite
##RRUFFID=R130692
##IDEAL CHEMISTRY=Fe^2+^Mn^2+^_2_(PO_4_)_2_·3H_2_O
##LOCALITY=Hagendorf South Pegmatite, Hagendorf, Waidhaus, Vohenstrauß, Oberpfälzer Wald, Upper Palatinate, Bavaria, Germany
##OWNER=RRUFF
##SOURCE=Rob Lavinsky
##DESCRIPTION=Brown crystals, associated with colorless or pale-grey vivianite and dark-green rockbridgeite
##STATUS=The identification of this mineral is confirmed by single-crystal X-ray diffraction and chemical analysis
##URL=https://www.rruff.net/odr/rruff_sample/R130692
##MEASURED CHEMISTRY=(Mn^2+^_1.90_Fe^2+^_1.01_Zn_0.03_Ca_0.01_)(PO_4_)_2_·3.05H_2_O
##DIFFRACTION SAMPLE DESCRIPTION=Single crystal, powder profile is calculated
##CELL PARAMETERS=a: 9.516 b: 10.163 c: 8.7285 alpha: 90 beta: 90 gamma: 90 volume: 844.1 crystal system: orthorhombic
##FILETYPE=Raman RAW
##RAMAN WAVELENGTH=780

7.826855e+001, 3.548649e+002
8.019702e+001, 3.219628e+002
8.212549e+001, 3.096549e+002
8.405396e+001, 3.220317e+002
8.598242e+001, 3.519296e+002
8.791089e+001, 3.915138e+002
8.983936e+001, 4.399589e+002
9.176782e+001, 4.902635e+002
9.369629e+001, 5.205313e+002
9.562476e+001, 5.197162e+002
9.755322e+001, 5.206152e+002
9.948169e+001, 5.235292e+002
1.014102e+002, 5.285980e+002
1.033386e+002, 5.356720e+002
1.052671e+002, 5.415955e+002
1.071956e+002, 5.450054e+002
1.091240e+002, 5.478029e+002
1.110525e+002, 5.501106e+002
1.129810e+002, 5.515157e+002
1.149094e+002, 5.518694e+002
1.168379e+002, 5.509620e+002
1.187664e+002, 5.474264e+002
1.206948e+002, 5.370930e+002
1.226233e+002, 5.285183e+002
1.245518e+002, 5.233500e+002
1.264802e+002, 5.212075e+002
1.284087e+002, 5.219172e+002
1.303372e+002, 5.253640e+002
1.322656e+002, 5.286478e+002
1.341941e+002, 5.334036e+002
1.361226e+002, 5.352612e+002
1.380510e+002, 5.316750e+002
1.399795e+002, 5.256975e+002
1.419080e+002, 5.198878e+002
1.438364e+002, 5.142751e+002
1.457649e+002, 5.100332e+002
1.476934e+002, 5.072837e+002
1.496218e+002, 5.058792e+002
1.515503e+002, 5.061883e+002
1.534788e+002, 5.075854e+002
1.554072e+002, 5.091103e+002
1.573357e+002, 5.109504e+002
1.592642e+002, 5.151385e+002
1.611926e+002, 5.248484e+002
1.631211e+002, 5.324321e+002
1.650496e+002, 5.378958e+002
1.669780e+002, 5.405392e+002
1.689065e+002, 5.395467e+002
1.708350e+002, 5.355656e+002
1.727634e+002, 5.306006e+002
1.746919e+002, 5.242197e+002
1.766204e+002, 5.175080e+002
1.785488e+002, 5.110628e+002
1.804773e+002, 5.034934e+002
1.824058e+002, 4.944605e+002
1.843342e+002, 4.837279e+002
1.862627e+002, 4.704046e+002
1.881912e+002, 4.535590e+002
1.901196e+002, 4.372593e+002
1.920481e+002, 4.209508e+002
1.939766e+002, 4.061126e+002
1.959050e+002, 3.929211e+002
1.978335e+002, 3.818951e+002
1.997620e+002, 3.738127e+002
2.016904e+002, 3.687481e+002
2.036189e+002, 3.659902e+002
2.055474e+002, 3.656053e+002
2.074758e+002, 3.668697e+002
2.094043e+002, 3.695595e+002
2.113328e+002, 3.740655e+002
2.132612e+002, 3.803304e+002
2.151897e+002, 3.885439e+002
2.171182e+002, 3.998816e+002
2.190466e+002, 4.146609e+002
2.209751e+002, 4.298879e+002
2.229036e+002, 4.455779e+002
2.248320e+002, 4.608509e+002
2.267605e+002, 4.760152e+002
2.286890e+002, 4.901745e+002
2.306174e+002, 5.024554e+002
2.325459e+002, 5.126884e+002
2.344744e+002, 5.199828e+002
2.364028e+002, 5.244847e+002
2.383313e+002, 5.254874e+002
2.402598e+002, 5.215093e+002
2.421882e+002, 5.152327e+002
2.441167e+002, 5.076617e+002
2.460452e+002, 4.990577e+002
2.479736e+002, 4.901206e+002
2.499021e+002, 4.807821e+002
2.518306e+002, 4.717171e+002
2.537590e+002, 4.624161e+002
2.556875e+002, 4.544037e+002
2.576160e+002, 4.487173e+002
2.595444e+002, 4.441539e+002
2.614729e+002, 4.398372e+002
2.634014e+002, 4.355331e+002
2.653298e+002, 4.301070e+002
2.672583e+002, 4.234740e+002
2.691868e+002, 4.158852e+002
2.711152e+002, 4.073248e+002
2.730437e+002, 3.980013e+002
2.749722e+002, 3.875058e+002
2.769006e+002, 3.765186e+002
2.788291e+002, 3.658980e+002
2.807576e+002, 3.556715e+002
2.826860e+002, 3.467978e+002
2.846145e+002, 3.396771e+002
2.865430e+002, 3.334578e+002
2.884714e+002, 3.280952e+002
2.903999e+002, 3.233932e+002
2.923284e+002, 3.195830e+002
2.942568e+002, 3.162258e+002
2.961853e+002, 3.123084e+002
2.981138e+002, 3.076947e+002
3.000422e+002, 3.038309e+002
3.019707e+002, 3.018155e+002
3.038992e+002, 2.992985e+002
3.058276e+002, 2.955710e+002
3.077561e+002, 2.913670e+002
3.096846e+002, 2.872373e+002
3.116130e+002, 2.831118e+002
3.135415e+002, 2.787876e+002
3.154700e+002, 2.741680e+002
3.173984e+002, 2.697301e+002
3.193269e+002, 2.656627e+002
3.212554e+002, 2.615348e+002
3.231838e+002, 2.568894e+002
3.251123e+002, 2.524493e+002
3.270408e+002, 2.487480e+002
3.289692e+002, 2.457111e+002
3.308977e+002, 2.432385e+002
3.328262e+002, 2.417154e+002
3.347546e+002, 2.397275e+002
3.366831e+002, 2.367261e+002
3.386116e+002, 2.340580e+002
3.405400e+002, 2.319633e+002
3.424685e+002, 2.304977e+002
3.443970e+002, 2.295820e+002
3.463254e+002, 2.292650e+002
3.482539e+002, 2.297344e+002
3.501824e+002, 2.310686e+002
3.521108e+002, 2.330623e+002
3.540393e+002, 2.359335e+002
3.559678e+002, 2.389842e+002
3.578962e+002, 2.418011e+002
3.598247e+002, 2.449801e+002
3.617532e+002, 2.491745e+002
3.636816e+002, 2.539242e+002
3.656101e+002, 2.580965e+002
3.675386e+002, 2.615962e+002
3.694670e+002, 2.650979e+002
3.713955e+002, 2.688107e+002
3.733240e+002, 2.720131e+002
3.752524e+002, 2.744863e+002
3.771809e+002, 2.764113e+002
3.791094e+002, 2.777390e+002
3.810378e+002, 2.787125e+002
3.829663e+002, 2.797134e+002
3.848948e+002, 2.807268e+002
3.868232e+002, 2.813980e+002
3.887517e+002, 2.815035e+002
3.906802e+002, 2.823048e+002
3.926086e+002, 2.842525e+002
3.945371e+002, 2.866449e+002
3.964656e+002, 2.891662e+002
3.983940e+002, 2.919543e+002
4.003225e+002, 2.950677e+002
4.022510e+002, 2.985662e+002
4.041794e+002, 3.026404e+002
4.061079e+002, 3.072484e+002
4.080364e+002, 3.127917e+002
4.099648e+002, 3.199976e+002
4.118933e+002, 3.263939e+002
4.138218e+002, 3.318417e+002
4.157502e+002, 3.354674e+002
4.176787e+002, 3.367915e+002
4.196072e+002, 3.359087e+002
4.215356e+002, 3.327545e+002
4.234641e+002, 3.274572e+002
4.253926e+002, 3.203135e+002
4.273210e+002, 3.109743e+002
4.292495e+002, 3.019507e+002
4.311780e+002, 2.929865e+002
4.331064e+002, 2.857223e+002
4.350349e+002, 2.806177e+002
4.369634e+002, 2.774340e+002
4.388918e+002, 2.760660e+002
4.408203e+002, 2.765350e+002
4.427488e+002, 2.787491e+002
4.446772e+002, 2.826526e+002
4.466057e+002, 2.878252e+002
4.485342e+002, 2.947042e+002
4.504626e+002, 3.014877e+002
4.523911e+002, 3.085404e+002
4.543196e+002, 3.145244e+002
4.562480e+002, 3.194236e+002
4.581765e+002, 3.225994e+002
4.601050e+002, 3.231206e+002
4.620334e+002, 3.214881e+002
4.639619e+002, 3.187179e+002
4.658904e+002, 3.148440e+002
4.678188e+002, 3.090194e+002
4.697473e+002, 2.994860e+002
4.716758e+002, 2.911976e+002
4.736042e+002, 2.853803e+002
4.755327e+002, 2.799004e+002
4.774612e+002, 2.738975e+002
4.793896e+002, 2.678224e+002
4.813181e+002, 2.620545e+002
4.832466e+002, 2.565480e+002
4.851750e+002, 2.511983e+002
4.871035e+002, 2.459826e+002
4.890320e+002, 2.412814e+002
4.909604e+002, 2.372703e+002
4.928889e+002, 2.335551e+002
4.948174e+002, 2.302292e+002
4.967458e+002, 2.270549e+002
4.986743e+002, 2.236015e+002
5.006028e+002, 2.206478e+002
5.025313e+002, 2.187098e+002
5.044597e+002, 2.176704e+002
5.063882e+002, 2.174067e+002
5.083167e+002, 2.179238e+002
5.102451e+002, 2.190235e+002
5.121736e+002, 2.208762e+002
5.141021e+002, 2.229088e+002
5.160305e+002, 2.248263e+002
5.179590e+002, 2.274877e+002
5.198875e+002, 2.310897e+002
5.218159e+002, 2.355761e+002
5.237444e+002, 2.411214e+002
5.256729e+002, 2.473404e+002
5.276013e+002, 2.539087e+002
5.295298e+002, 2.608071e+002
5.314583e+002, 2.679785e+002
5.333867e+002, 2.754425e+002
5.353152e+002, 2.832188e+002
5.372437e+002, 2.914186e+002
5.391721e+002, 2.993445e+002
5.411006e+002, 3.060955e+002
5.430291e+002, 3.141244e+002
5.449575e+002, 3.252324e+002
5.468860e+002, 3.372531e+002
5.488145e+002, 3.491156e+002
5.507429e+002, 3.609216e+002
5.526714e+002, 3.729301e+002
5.545999e+002, 3.850536e+002
5.565283e+002, 3.970909e+002
5.584568e+002, 4.090912e+002
5.603853e+002, 4.194889e+002
5.623137e+002, 4.283292e+002
5.642422e+002, 4.349501e+002
5.661707e+002, 4.398586e+002
5.680991e+002, 4.411586e+002
5.700276e+002, 4.371200e+002
5.719561e+002, 4.308311e+002
5.738845e+002, 4.234641e+002
5.758130e+002, 4.156571e+002
5.777415e+002, 4.080796e+002
5.796699e+002, 4.008382e+002
5.815984e+002, 3.944032e+002
5.835269e+002, 3.887141e+002
5.854553e+002, 3.833104e+002
5.873838e+002, 3.786095e+002
5.893123e+002, 3.718488e+002
5.912407e+002, 3.628631e+002
5.931692e+002, 3.509185e+002
5.950977e+002, 3.347049e+002
5.970261e+002, 3.170957e+002
5.989546e+002, 2.989731e+002
6.008831e+002, 2.808102e+002
6.028115e+002, 2.624738e+002
6.047400e+002, 2.448222e+002
6.066685e+002, 2.294375e+002
6.085969e+002, 2.161544e+002
6.105254e+002, 2.041670e+002
6.124539e+002, 1.934312e+002
6.143823e+002, 1.840202e+002
6.163108e+002, 1.762079e+002
6.182393e+002, 1.692236e+002
6.201677e+002, 1.628469e+002
6.220962e+002, 1.574261e+002
6.240247e+002, 1.534809e+002
6.259531e+002, 1.500768e+002
6.278816e+002, 1.466585e+002
6.298101e+002, 1.434202e+002
6.317385e+002, 1.403876e+002
6.336670e+002, 1.377608e+002
6.355955e+002, 1.361158e+002
6.375239e+002, 1.353799e+002
6.394524e+002, 1.345235e+002
6.413809e+002, 1.334378e+002
6.433093e+002, 1.325459e+002
6.452378e+002, 1.318516e+002
6.471663e+002, 1.313595e+002
6.490947e+002, 1.311668e+002
6.510232e+002, 1.310233e+002
6.529517e+002, 1.309229e+002
6.548801e+002, 1.307571e+002
6.568086e+002, 1.303876e+002
6.587371e+002, 1.299944e+002
6.606655e+002, 1.297686e+002
6.625940e+002, 1.296004e+002
6.645225e+002, 1.292735e+002
6.664509e+002, 1.288354e+002
6.683794e+002, 1.285640e+002
6.703079e+002, 1.284976e+002
6.722363e+002, 1.282488e+002
6.741648e+002, 1.277699e+002
6.760933e+002, 1.273303e+002
6.780217e+002, 1.269864e+002
6.799502e+002, 1.265394e+002
6.818787e+002, 1.258246e+002
6.838071e+002, 1.252394e+002
6.857356e+002, 1.249263e+002
6.876641e+002, 1.248263e+002
6.895925e+002, 1.251078e+002
6.915210e+002, 1.253673e+002
6.934495e+002, 1.252362e+002
6.953779e+002, 1.248390e+002
6.973064e+002, 1.242505e+002
6.992349e+002, 1.235854e+002
7.011633e+002, 1.233585e+002
7.030918e+002, 1.235608e+002
7.050203e+002, 1.235376e+002
7.069487e+002, 1.232542e+002
7.088772e+002, 1.234652e+002
7.108057e+002, 1.243326e+002
7.127341e+002, 1.252363e+002
7.146626e+002, 1.260584e+002
7.165911e+002, 1.268769e+002
7.185195e+002, 1.276414e+002
7.204480e+002, 1.285176e+002
7.223765e+002, 1.296889e+002
7.243049e+002, 1.308336e+002
7.262334e+002, 1.315464e+002
7.281619e+002, 1.323168e+002
7.300903e+002, 1.337974e+002
7.320188e+002, 1.356059e+002
7.339473e+002, 1.370927e+002
7.358757e+002, 1.383559e+002
7.378042e+002, 1.395723e+002
7.397327e+002, 1.408149e+002
7.416611e+002, 1.426903e+002
7.435896e+002, 1.452104e+002
7.455181e+002, 1.467658e+002
7.474465e+002, 1.469302e+002
7.493750e+002, 1.475869e+002
7.513035e+002, 1.493972e+002
7.532319e+002, 1.508334e+002
7.551604e+002, 1.517313e+002
7.570889e+002, 1.521062e+002
7.590173e+002, 1.520263e+002
7.609458e+002, 1.513274e+002
7.628743e+002, 1.496731e+002
7.648027e+002, 1.476928e+002
7.667312e+002, 1.457035e+002
7.686597e+002, 1.437240e+002
7.705881e+002, 1.417977e+002
7.725166e+002, 1.398725e+002
7.744451e+002, 1.377561e+002
7.763735e+002, 1.356349e+002
7.783020e+002, 1.340381e+002
7.802305e+002, 1.328271e+002
7.821589e+002, 1.312042e+002
7.840874e+002, 1.291289e+002
7.860159e+002, 1.273999e+002
7.879443e+002, 1.260715e+002
7.898728e+002, 1.249617e+002
7.918013e+002, 1.241771e+002
7.937297e+002, 1.234237e+002
7.956582e+002, 1.225847e+002
7.975867e+002, 1.220462e+002
7.995151e+002, 1.220791e+002
8.014436e+002, 1.219729e+002
8.033721e+002, 1.213728e+002
8.053005e+002, 1.208785e+002
8.072290e+002, 1.207329e+002
8.091575e+002, 1.207577e+002
8.110859e+002, 1.209638e+002
8.130144e+002, 1.211492e+002
8.149429e+002, 1.211473e+002
8.168713e+002, 1.210884e+002
8.187998e+002, 1.210309e+002
8.207283e+002, 1.210569e+002
8.226567e+002, 1.213630e+002
8.245852e+002, 1.218058e+002
8.265137e+002, 1.220403e+002
8.284421e+002, 1.221271e+002
8.303706e+002, 1.223335e+002
8.322991e+002, 1.226346e+002
8.342275e+002, 1.227682e+002
8.361560e+002, 1.227297e+002
8.380845e+002, 1.227905e+002
8.400129e+002, 1.229673e+002
8.419414e+002, 1.229794e+002
8.438699e+002, 1.227749e+002
8.457983e+002, 1.228450e+002
8.477268e+002, 1.233292e+002
8.496553e+002, 1.235872e+002
8.515837e+002, 1.233856e+002
8.535122e+002, 1.233527e+002
8.554407e+002, 1.236509e+002
8.573691e+002, 1.241134e+002
8.592976e+002, 1.248433e+002
8.612261e+002, 1.254589e+002
8.631545e+002, 1.257791e+002
8.650830e+002, 1.260419e+002
8.670115e+002, 1.264517e+002
8.689399e+002, 1.266877e+002
8.708684e+002, 1.261900e+002
8.727969e+002, 1.259094e+002
8.747253e+002, 1.265769e+002
8.766538e+002, 1.277675e+002
8.785823e+002, 1.294815e+002
8.805107e+002, 1.311257e+002
8.824392e+002, 1.318073e+002
8.843677e+002, 1.321147e+002
8.862961e+002, 1.326971e+002
8.882246e+002, 1.336621e+002
8.901531e+002, 1.353122e+002
8.920815e+002, 1.374475e+002
8.940100e+002, 1.397037e+002
8.959385e+002, 1.420604e+002
8.978669e+002, 1.444443e+002
8.997954e+002, 1.468848e+002
9.017239e+002, 1.493437e+002
9.036523e+002, 1.519401e+002
9.055808e+002, 1.558105e+002
9.075093e+002, 1.609926e+002
9.094377e+002, 1.662344e+002
9.113662e+002, 1.713335e+002
9.132947e+002, 1.780347e+002
9.152231e+002, 1.864037e+002
9.171516e+002, 1.963382e+002
9.190801e+002, 2.072687e+002
9.210085e+002, 2.213083e+002
9.229370e+002, 2.383996e+002
9.248655e+002, 2.588912e+002
9.267939e+002, 2.821143e+002
9.287224e+002, 3.100293e+002
9.306509e+002, 3.420524e+002
9.325793e+002, 3.803152e+002
9.345078e+002, 4.260957e+002
9.364363e+002, 4.760128e+002
9.383647e+002, 5.307463e+002
9.402932e+002, 5.866165e+002
9.422217e+002, 6.430109e+002
9.441501e+002, 6.997130e+002
9.460786e+002, 7.543938e+002
9.480071e+002, 8.140963e+002
9.499355e+002, 8.795046e+002
9.518640e+002, 9.543215e+002
9.537925e+002, 1.041474e+003
9.557209e+002, 1.136169e+003
9.576494e+002, 1.242121e+003
9.595779e+002, 1.345132e+003
9.615063e+002, 1.445013e+003
9.634348e+002, 1.529331e+003
9.653633e+002, 1.599811e+003
9.672917e+002, 1.641061e+003
9.692202e+002, 1.648170e+003
9.711487e+002, 1.619037e+003
9.730771e+002, 1.544653e+003
9.750056e+002, 1.442802e+003
9.769341e+002, 1.312352e+003
9.788625e+002, 1.175628e+003
9.807910e+002, 1.041664e+003
9.827195e+002, 9.184781e+002
9.846479e+002, 8.123738e+002
9.865764e+002, 7.209322e+002
9.885049e+002, 6.418074e+002
9.904333e+002, 5.761124e+002
9.923618e+002, 5.272896e+002
9.942903e+002, 4.898003e+002
9.962188e+002, 4.602122e+002
9.981472e+002, 4.365603e+002
1.000076e+003, 4.178552e+002
1.002004e+003, 4.027315e+002
1.003933e+003, 3.909494e+002
1.005861e+003, 3.805342e+002
1.007790e+003, 3.696096e+002
1.009718e+003, 3.581239e+002
1.011646e+003, 3.459347e+002
1.013575e+003, 3.331957e+002
1.015503e+003, 3.196910e+002
1.017432e+003, 3.061161e+002
1.019360e+003, 2.933140e+002
1.021289e+003, 2.811064e+002
1.023217e+003, 2.688986e+002
1.025146e+003, 2.575086e+002
1.027074e+003, 2.476263e+002
1.029003e+003, 2.396407e+002
1.030931e+003, 2.340957e+002
1.032860e+003, 2.307418e+002
1.034788e+003, 2.298559e+002
1.036717e+003, 2.303869e+002
1.038645e+003, 2.314402e+002
1.040573e+003, 2.325979e+002
1.042502e+003, 2.333745e+002
1.044430e+003, 2.338527e+002
1.046359e+003, 2.343891e+002
1.048287e+003, 2.344601e+002
1.050216e+003, 2.336236e+002
1.052144e+003, 2.317621e+002
1.054073e+003, 2.282161e+002
1.056001e+003, 2.240862e+002
1.057930e+003, 2.208473e+002
1.059858e+003, 2.176546e+002
1.061787e+003, 2.135157e+002
1.063715e+003, 2.088381e+002
1.065644e+003, 2.042958e+002
1.067572e+003, 1.991906e+002
1.069500e+003, 1.920506e+002
1.071429e+003, 1.847038e+002
1.073357e+003, 1.788240e+002
1.075286e+003, 1.739714e+002
1.077214e+003, 1.699680e+002
1.079143e+003, 1.665286e+002
1.081071e+003, 1.635104e+002
1.083000e+003, 1.608207e+002
1.084928e+003, 1.582578e+002
1.086857e+003, 1.561525e+002
1.088785e+003, 1.550491e+002
1.090714e+003, 1.541433e+002
1.092642e+003, 1.531151e+002
1.094571e+003, 1.516899e+002
1.096499e+003, 1.496261e+002
1.098427e+003, 1.471613e+002
1.100356e+003, 1.444894e+002
1.102284e+003, 1.413822e+002
1.104213e+003, 1.374949e+002
1.106141e+003, 1.334624e+002
1.108070e+003, 1.296699e+002
1.109998e+003, 1.257074e+002
1.111927e+003, 1.211637e+002
1.113855e+003, 1.167710e+002
1.115784e+003, 1.126822e+002
1.117712e+003, 1.090104e+002
1.119641e+003, 1.059360e+002
1.121569e+003, 1.030420e+002
1.123498e+003, 1.002567e+002
1.125426e+003, 9.753130e+001
1.127354e+003, 9.448471e+001
1.129283e+003, 9.230038e+001
1.131211e+003, 9.132875e+001
1.133140e+003, 9.108910e+001
1.135068e+003, 9.232885e+001
1.136997e+003, 9.176578e+001
1.138925e+003, 8.811149e+001
1.140854e+003, 8.539320e+001
1.142782e+003, 8.427803e+001
1.144711e+003, 8.336742e+001
1.146639e+003, 8.252438e+001
1.148568e+003, 8.191423e+001
1.150496e+003, 8.157853e+001
1.152425e+003, 8.124183e+001
1.154353e+003, 8.088274e+001
1.156281e+003, 8.062850e+001
1.158210e+003, 8.048192e+001
1.160138e+003, 8.023375e+001
1.162067e+003, 7.990331e+001
1.163995e+003, 8.005479e+001
1.165924e+003, 8.054971e+001
1.167852e+003, 8.022218e+001
1.169781e+003, 7.931145e+001
1.171709e+003, 7.892652e+001
1.173638e+003, 7.891000e+001
1.175566e+003, 7.883507e+001
1.177495e+003, 7.868436e+001
1.179423e+003, 7.836364e+001
1.181352e+003, 7.798284e+001
1.183280e+003, 7.764779e+001
1.185208e+003, 7.742493e+001
1.187137e+003, 7.749950e+001
1.189065e+003, 7.760177e+001
1.190994e+003, 7.754679e+001
1.192922e+003, 7.730175e+001
1.194851e+003, 7.666901e+001
1.196779e+003, 7.610809e+001
1.198708e+003, 7.589058e+001
1.200636e+003, 7.585994e+001
1.202565e+003, 7.611082e+001
1.204493e+003, 7.615872e+001
1.206422e+003, 7.577543e+001
1.208350e+003, 7.522390e+001
1.210279e+003, 7.448739e+001
1.212207e+003, 7.392801e+001
1.214135e+003, 7.367516e+001
1.216064e+003, 7.339070e+001
1.217992e+003, 7.302404e+001
1.219921e+003, 7.256473e+001
1.221849e+003, 7.201956e+001
1.223778e+003, 7.127776e+001
1.225706e+003, 7.034267e+001
1.227635e+003, 6.973917e+001
1.229563e+003, 6.946606e+001
1.231492e+003, 6.924528e+001
1.233420e+003, 6.904416e+001
1.235349e+003, 6.870326e+001
1.237277e+003, 6.829384e+001
1.239206e+003, 6.809740e+001
1.241134e+003, 6.794676e+001
1.243063e+003, 6.732744e+001
1.244991e+003, 6.673100e+001
1.246919e+003, 6.710847e+001
1.248848e+003, 6.755933e+001
1.250776e+003, 6.699280e+001
1.252705e+003, 6.634447e+001
1.254633e+003, 6.639819e+001
1.256562e+003, 6.646449e+001
1.258490e+003, 6.611963e+001
1.260419e+003, 6.579904e+001
1.262347e+003, 6.561295e+001
1.264276e+003, 6.555610e+001
1.266204e+003, 6.574680e+001
1.268133e+003, 6.579258e+001
1.270061e+003, 6.555479e+001
1.271990e+003, 6.555206e+001
1.273918e+003, 6.588109e+001
1.275846e+003, 6.595537e+001
1.277775e+003, 6.575298e+001
1.279703e+003, 6.551606e+001
1.281632e+003, 6.528043e+001
1.283560e+003, 6.529490e+001
1.285489e+003, 6.545076e+001
1.287417e+003, 6.538662e+001
1.289346e+003, 6.523793e+001
1.291274e+003, 6.526487e+001
1.293203e+003, 6.532592e+001
1.295131e+003, 6.523898e+001
1.297060e+003, 6.516218e+001
1.298988e+003, 6.529381e+001
1.300917e+003, 6.532049e+001
1.302845e+003, 6.491504e+001
1.304773e+003, 6.473576e+001
1.306702e+003, 6.517300e+001
1.308630e+003, 6.544892e+001
1.310559e+003, 6.535032e+001
1.312487e+003, 6.519839e+001
1.314416e+003, 6.500027e+001
1.316344e+003, 6.498003e+001
1.318273e+003, 6.516143e+001
1.320201e+003, 6.532340e+001
1.322130e+003, 6.541644e+001
1.324058e+003, 6.484721e+001
1.325987e+003, 6.401440e+001
1.327915e+003, 6.416767e+001
1.329844e+003, 6.480625e+001
1.331772e+003, 6.531693e+001
1.333700e+003, 6.562553e+001
1.335629e+003, 6.564348e+001
1.337557e+003, 6.545451e+001
1.339486e+003, 6.499342e+001
1.341414e+003, 6.453368e+001
1.343343e+003, 6.409994e+001
1.345271e+003, 6.388416e+001
1.347200e+003, 6.397979e+001
1.349128e+003, 6.398206e+001
1.351057e+003, 6.382191e+001
1.352985e+003, 6.405582e+001
1.354914e+003, 6.463792e+001
1.356842e+003, 6.453025e+001
1.358771e+003, 6.394256e+001
1.360699e+003, 6.389610e+001
1.362627e+003, 6.407752e+001
1.364556e+003, 6.385352e+001
1.366484e+003, 6.351140e+001
1.368413e+003, 6.329091e+001
1.370341e+003, 6.324025e+001
1.372270e+003, 6.361544e+001
1.374198e+003, 6.380022e+001
1.376127e+003, 6.328460e+001
1.378055e+003, 6.301153e+001
1.379984e+003, 6.326627e+001
1.381912e+003, 6.344378e+001
1.383841e+003, 6.349087e+001
1.385769e+003, 6.354358e+001
1.387698e+003, 6.360706e+001
1.389626e+003, 6.369588e+001
1.391554e+003, 6.378302e+001
1.393483e+003, 6.376222e+001
1.395411e+003, 6.370127e+001
1.397340e+003, 6.376349e+001
1.399268e+003, 6.375117e+001
1.401197e+003, 6.340028e+001
1.403125e+003, 6.307296e+001
1.405054e+003, 6.287211e+001
1.406982e+003, 6.292539e+001
1.408911e+003, 6.345436e+001
1.410839e+003, 6.373743e+001
1.412768e+003, 6.360465e+001
1.414696e+003, 6.351257e+001
1.416625e+003, 6.346544e+001
1.418553e+003, 6.391528e+001
1.420481e+003, 6.459294e+001
1.422410e+003, 6.452599e+001
1.424338e+003, 6.410435e+001
1.426267e+003, 6.378123e+001
1.428195e+003, 6.359088e+001
1.430124e+003, 6.362525e+001
1.432052e+003, 6.366531e+001
1.433981e+003, 6.362782e+001
1.435909e+003, 6.359065e+001
1.437838e+003, 6.359597e+001
1.439766e+003, 6.337356e+001
1.441695e+003, 6.288561e+001
1.443623e+003, 6.283862e+001
1.445552e+003, 6.314296e+001
1.447480e+003, 6.331628e+001
1.449408e+003, 6.340042e+001
1.451337e+003, 6.341344e+001
1.453265e+003, 6.346570e+001
1.455194e+003, 6.383634e+001
1.457122e+003, 6.400220e+001
1.459051e+003, 6.355238e+001
1.460979e+003, 6.323487e+001
1.462908e+003, 6.326818e+001
1.464836e+003, 6.301605e+001
1.466765e+003, 6.242978e+001
1.468693e+003, 6.224469e+001
1.470622e+003, 6.237922e+001
1.472550e+003, 6.225230e+001
1.474479e+003, 6.206496e+001
1.476407e+003, 6.220581e+001
1.478335e+003, 6.242572e+001
1.480264e+003, 6.260530e+001
1.482192e+003, 6.259524e+001
1.484121e+003, 6.207265e+001
1.486049e+003, 6.188864e+001
1.487978e+003, 6.232843e+001
1.489906e+003, 6.232959e+001
1.491835e+003, 6.187019e+001
1.493763e+003, 6.194329e+001
1.495692e+003, 6.227356e+001
1.497620e+003, 6.173551e+001
1.499549e+003, 6.110963e+001
1.501477e+003, 6.153251e+001
1.503406e+003, 6.197278e+001
1.505334e+003, 6.163829e+001
1.507262e+003, 6.139414e+001
1.509191e+003, 6.159652e+001
1.511119e+003, 6.170071e+001
1.513048e+003, 6.165508e+001
1.514976e+003, 6.167234e+001
1.516905e+003, 6.174919e+001
1.518833e+003, 6.194386e+001
1.520762e+003, 6.209123e+001
1.522690e+003, 6.181720e+001
1.524619e+003, 6.149887e+001
1.526547e+003, 6.127589e+001
1.528476e+003, 6.137088e+001
1.530404e+003, 6.203941e+001
1.532333e+003, 6.220001e+001
1.534261e+003, 6.158922e+001
1.536189e+003, 6.167579e+001
1.538118e+003, 6.230923e+001
1.540046e+003, 6.264196e+001
1.541975e+003, 6.272741e+001
1.543903e+003, 6.241276e+001
1.545832e+003, 6.225123e+001
1.547760e+003, 6.263841e+001
1.549689e+003, 6.327125e+001
1.551617e+003, 6.418624e+001
1.553546e+003, 6.453248e+001
1.555474e+003, 6.421511e+001
1.557403e+003, 6.419416e+001
1.559331e+003, 6.436157e+001
1.561260e+003, 6.410787e+001
1.563188e+003, 6.381874e+001
1.565116e+003, 6.416095e+001
1.567045e+003, 6.443373e+001
1.568973e+003, 6.401816e+001
1.570902e+003, 6.391240e+001
1.572830e+003, 6.435242e+001
1.574759e+003, 6.444624e+001
1.576687e+003, 6.417513e+001
1.578616e+003, 6.394135e+001
1.580544e+003, 6.377778e+001
1.582473e+003, 6.386346e+001
1.584401e+003, 6.382563e+001
1.586330e+003, 6.301187e+001
1.588258e+003, 6.256421e+001
1.590187e+003, 6.328497e+001
1.592115e+003, 6.355973e+001
1.594043e+003, 6.327091e+001
1.595972e+003, 6.294013e+001
1.597900e+003, 6.254723e+001
1.599829e+003, 6.173372e+001
1.601757e+003, 6.109069e+001
1.603686e+003, 6.149163e+001
1.605614e+003, 6.190891e+001
1.607543e+003, 6.178547e+001
1.609471e+003, 6.164417e+001
1.611400e+003, 6.154353e+001
1.613328e+003, 6.154768e+001
1.615257e+003, 6.163428e+001
1.617185e+003, 6.155647e+001
1.619114e+003, 6.156815e+001
1.621042e+003, 6.223419e+001
1.622970e+003, 6.271085e+001
1.624899e+003, 6.250106e+001
1.626827e+003, 6.212573e+001
1.628756e+003, 6.158484e+001
1.630684e+003, 6.175781e+001
1.632613e+003, 6.249838e+001
1.634541e+003, 6.289022e+001
1.636470e+003, 6.295215e+001
1.638398e+003, 6.237579e+001
1.640327e+003, 6.208514e+001
1.642255e+003, 6.273127e+001
1.644184e+003, 6.297288e+001
1.646112e+003, 6.250317e+001
1.648041e+003, 6.192244e+001
1.649969e+003, 6.135084e+001
1.651897e+003, 6.125021e+001
1.653826e+003, 6.126183e+001
1.655754e+003, 6.098995e+001
1.657683e+003, 6.043160e+001
1.659611e+003, 5.941595e+001
1.661540e+003, 5.882891e+001
1.663468e+003, 5.880350e+001
1.665397e+003, 5.881434e+001
1.667325e+003, 5.876458e+001
1.669254e+003, 5.832029e+001
1.671182e+003, 5.792100e+001
1.673111e+003, 5.823075e+001
1.675039e+003, 5.836572e+001
1.676968e+003, 5.786994e+001
1.678896e+003, 5.778380e+001
1.680824e+003, 5.812697e+001
1.682753e+003, 5.790656e+001
1.684681e+003, 5.738887e+001
1.686610e+003, 5.709490e+001
1.688538e+003, 5.696549e+001
1.690467e+003, 5.708071e+001
1.692395e+003, 5.708586e+001
1.694324e+003, 5.682861e+001
1.696252e+003, 5.696222e+001
1.698181e+003, 5.735722e+001
1.700109e+003, 5.702747e+001
1.702038e+003, 5.660438e+001
1.703966e+003, 5.714252e+001
1.705895e+003, 5.732153e+001
1.707823e+003, 5.600203e+001
1.709751e+003, 5.560460e+001
1.711680e+003, 5.637786e+001
1.713608e+003, 5.648283e+001
1.715537e+003, 5.615855e+001
1.717465e+003, 5.576989e+001
1.719394e+003, 5.552147e+001
1.721322e+003, 5.555458e+001
1.723251e+003, 5.576187e+001
1.725179e+003, 5.622008e+001
1.727108e+003, 5.595216e+001
1.729036e+003, 5.520770e+001
1.730965e+003, 5.513808e+001
1.732893e+003, 5.527898e+001
1.734822e+003, 5.519207e+001
1.736750e+003, 5.510009e+001
1.738678e+003, 5.506804e+001
1.740607e+003, 5.511792e+001
1.742535e+003, 5.520816e+001
1.744464e+003, 5.480457e+001
1.746392e+003, 5.445687e+001
1.748321e+003, 5.529152e+001
1.750249e+003, 5.582441e+001
1.752178e+003, 5.539238e+001
1.754106e+003, 5.526318e+001
1.756035e+003, 5.552122e+001
1.757963e+003, 5.524110e+001
1.759892e+003, 5.471045e+001
1.761820e+003, 5.433287e+001
1.763749e+003, 5.414534e+001
1.765677e+003, 5.420043e+001
1.767605e+003, 5.436331e+001
1.769534e+003, 5.460515e+001
1.771462e+003, 5.466679e+001
1.773391e+003, 5.471831e+001
1.775319e+003, 5.527530e+001
1.777248e+003, 5.566504e+001
1.779176e+003, 5.532811e+001
1.781105e+003, 5.500361e+001
1.783033e+003, 5.476967e+001
1.784962e+003, 5.462160e+001
1.786890e+003, 5.456157e+001
1.788819e+003, 5.463565e+001
1.790747e+003, 5.469819e+001
1.792676e+003, 5.459981e+001
1.794604e+003, 5.460666e+001
1.796532e+003, 5.475252e+001
1.798461e+003, 5.481804e+001
1.800389e+003, 5.482598e+001
1.802318e+003, 5.482819e+001
1.804246e+003, 5.479916e+001
1.806175e+003, 5.466322e+001
1.808103e+003, 5.470031e+001
1.810032e+003, 5.494967e+001
1.811960e+003, 5.506120e+001
1.813889e+003, 5.506056e+001
1.815817e+003, 5.495076e+001
1.817746e+003, 5.482203e+001
1.819674e+003, 5.470472e+001
1.821603e+003, 5.460209e+001
1.823531e+003, 5.450696e+001
1.825459e+003, 5.432259e+001
1.827388e+003, 5.417298e+001
1.829316e+003, 5.428467e+001
1.831245e+003, 5.444748e+001
1.833173e+003, 5.462034e+001
1.835102e+003, 5.464712e+001
1.837030e+003, 5.457901e+001
1.838959e+003, 5.484361e+001
1.840887e+003, 5.508411e+001
1.842816e+003, 5.485561e+001
1.844744e+003, 5.451656e+001
1.846673e+003, 5.412069e+001
1.848601e+003, 5.410722e+001
1.850530e+003, 5.428636e+001
1.852458e+003, 5.390034e+001
1.854386e+003, 5.361781e+001
1.856315e+003, 5.413658e+001
1.858243e+003, 5.439978e+001
1.860172e+003, 5.429643e+001
1.862100e+003, 5.418480e+001
1.864029e+003, 5.412175e+001
1.865957e+003, 5.423403e+001
1.867886e+003, 5.429181e+001
1.869814e+003, 5.416643e+001
1.871743e+003, 5.403294e+001
1.873671e+003, 5.390595e+001
1.875600e+003, 5.376571e+001
1.877528e+003, 5.369794e+001
1.879457e+003, 5.391290e+001
1.881385e+003, 5.395206e+001
1.883313e+003, 5.368850e+001
1.885242e+003, 5.344963e+001
1.887170e+003, 5.325875e+001
1.889099e+003, 5.314652e+001
1.891027e+003, 5.309451e+001
1.892956e+003, 5.311360e+001
1.894884e+003, 5.317511e+001
1.896813e+003, 5.324493e+001
1.898741e+003, 5.278909e+001
1.900670e+003, 5.222094e+001
1.902598e+003, 5.189467e+001
1.904527e+003, 5.184094e+001
1.906455e+003, 5.217184e+001
1.908384e+003, 5.203015e+001
1.910312e+003, 5.160486e+001
1.912240e+003, 5.133725e+001
1.914169e+003, 5.117649e+001
1.916097e+003, 5.113080e+001
1.918026e+003, 5.101525e+001
1.919954e+003, 5.079241e+001
1.921883e+003, 5.035985e+001
1.923811e+003, 4.977675e+001
1.925740e+003, 4.891724e+001
1.927668e+003, 4.859025e+001
1.929597e+003, 4.894851e+001
1.931525e+003, 4.863946e+001
1.933454e+003, 4.802946e+001
1.935382e+003, 4.782439e+001
1.937311e+003, 4.767927e+001
1.939239e+003, 4.744865e+001
1.941167e+003, 4.760864e+001
1.943096e+003, 4.798722e+001
1.945024e+003, 4.798175e+001
1.946953e+003, 4.766789e+001
1.948881e+003, 4.692620e+001
1.950810e+003, 4.642800e+001
1.952738e+003, 4.620137e+001
1.954667e+003, 4.601812e+001
1.956595e+003, 4.581017e+001
1.958524e+003, 4.546778e+001
1.960452e+003, 4.519988e+001
1.962381e+003, 4.504003e+001
1.964309e+003, 4.468287e+001
1.966238e+003, 4.435275e+001
1.968166e+003, 4.453003e+001
1.970094e+003, 4.457517e+001
1.972023e+003, 4.419005e+001
1.973951e+003, 4.398273e+001
1.975880e+003, 4.387852e+001
1.977808e+003, 4.375035e+001
1.979737e+003, 4.343256e+001
1.981665e+003, 4.262920e+001
1.983594e+003, 4.229633e+001
1.985522e+003, 4.239341e+001
1.987451e+003, 4.274069e+001
1.989379e+003, 4.304193e+001
1.991308e+003, 4.318597e+001
1.993236e+003, 4.283363e+001
1.995165e+003, 4.208068e+001
1.997093e+003, 4.183806e+001
1.999021e+003, 4.189018e+001
2.000950e+003, 4.216364e+001
2.002878e+003, 4.215630e+001
2.004807e+003, 4.179872e+001
2.006735e+003, 4.160954e+001
2.008664e+003, 4.148838e+001
2.010592e+003, 4.135000e+001
2.012521e+003, 4.113913e+001
2.014449e+003, 4.085683e+001
2.016378e+003, 4.081005e+001
2.018306e+003, 4.084015e+001
2.020235e+003, 4.066472e+001
2.022163e+003, 4.065377e+001
2.024092e+003, 4.087168e+001
2.026020e+003, 4.102147e+001
2.027948e+003, 4.104553e+001
2.029877e+003, 4.079543e+001
2.031805e+003, 4.056719e+001
2.033734e+003, 4.042870e+001
2.035662e+003, 4.027846e+001
2.037591e+003, 4.013433e+001
2.039519e+003, 4.011053e+001
2.041448e+003, 3.990073e+001
2.043376e+003, 3.942253e+001
2.045305e+003, 3.927998e+001
2.047233e+003, 3.932403e+001
2.049162e+003, 3.933225e+001
2.051090e+003, 3.926770e+001
2.053019e+003, 3.912556e+001
2.054947e+003, 3.879630e+001
2.056875e+003, 3.844328e+001
2.058804e+003, 3.832128e+001
2.060732e+003, 3.826345e+001
2.062661e+003, 3.822450e+001
2.064589e+003, 3.813584e+001
2.066518e+003, 3.810750e+001
2.068446e+003, 3.839109e+001
2.070375e+003, 3.852429e+001
2.072303e+003, 3.834348e+001
2.074232e+003, 3.820026e+001
2.076160e+003, 3.805964e+001
2.078089e+003, 3.783318e+001
2.080017e+003, 3.775226e+001
2.081946e+003, 3.789537e+001
2.083874e+003, 3.781229e+001
2.085802e+003, 3.758516e+001
2.087731e+003, 3.722979e+001
2.089659e+003, 3.707619e+001
2.091588e+003, 3.718867e+001
2.093516e+003, 3.723956e+001
2.095445e+003, 3.720002e+001
2.097373e+003, 3.700595e+001
2.099302e+003, 3.688700e+001
2.101230e+003, 3.687158e+001
2.103159e+003, 3.686668e+001
2.105087e+003, 3.681142e+001
2.107016e+003, 3.667872e+001
2.108944e+003, 3.629027e+001
2.110873e+003, 3.578299e+001
2.112801e+003, 3.594715e+001
2.114729e+003, 3.604084e+001
2.116658e+003, 3.556327e+001
2.118586e+003, 3.531517e+001
2.120515e+003, 3.531269e+001
2.122443e+003, 3.554196e+001
2.124372e+003, 3.550488e+001
2.126300e+003, 3.491065e+001
2.128229e+003, 3.500187e+001
2.130157e+003, 3.534165e+001
2.132086e+003, 3.492612e+001
2.134014e+003, 3.473162e+001
2.135943e+003, 3.502860e+001
2.137871e+003, 3.521569e+001
2.139800e+003, 3.522763e+001
2.141728e+003, 3.493573e+001
2.143656e+003, 3.465362e+001
2.145585e+003, 3.443153e+001
2.147513e+003, 3.421439e+001
2.149442e+003, 3.415273e+001
2.151370e+003, 3.444569e+001
2.153299e+003, 3.463898e+001
2.155227e+003, 3.466539e+001
2.157156e+003, 3.428410e+001
2.159084e+003, 3.393460e+001
2.161013e+003, 3.382733e+001
2.162941e+003, 3.371626e+001
2.164870e+003, 3.363778e+001
2.166798e+003, 3.372937e+001
2.168727e+003, 3.377161e+001
2.170655e+003, 3.370142e+001
2.172583e+003, 3.354446e+001
2.174512e+003, 3.341911e+001
2.176440e+003, 3.345631e+001
2.178369e+003, 3.348698e+001
2.180297e+003, 3.348609e+001
2.182226e+003, 3.350603e+001
2.184154e+003, 3.342132e+001
2.186083e+003, 3.315222e+001
2.188011e+003, 3.320546e+001
2.189940e+003, 3.332830e+001
2.191868e+003, 3.278131e+001
2.193797e+003, 3.249141e+001
2.195725e+003, 3.264333e+001
2.197654e+003, 3.248829e+001
2.199582e+003, 3.237209e+001
2.201510e+003, 3.287639e+001
2.203439e+003, 3.293454e+001
2.205367e+003, 3.258824e+001
2.207296e+003, 3.222938e+001
2.209224e+003, 3.219214e+001
2.211153e+003, 3.277364e+001
2.213081e+003, 3.247218e+001
2.215010e+003, 3.191861e+001
2.216938e+003, 3.231237e+001
2.218867e+003, 3.229789e+001
2.220795e+003, 3.172950e+001
2.222724e+003, 3.179093e+001
2.224652e+003, 3.208592e+001
2.226581e+003, 3.245596e+001
2.228509e+003, 3.252996e+001
2.230438e+003, 3.241428e+001
2.232366e+003, 3.240084e+001
2.234294e+003, 3.227018e+001
2.236223e+003, 3.194372e+001
2.238151e+003, 3.191335e+001
2.240080e+003, 3.197303e+001
2.242008e+003, 3.199812e+001
2.243937e+003, 3.172848e+001
2.245865e+003, 3.128980e+001
2.247794e+003, 3.114297e+001
2.249722e+003, 3.095518e+001
2.251651e+003, 3.062934e+001
2.253579e+003, 3.091868e+001
2.255508e+003, 3.126096e+001
2.257436e+003, 3.104148e+001
2.259365e+003, 3.094897e+001
2.261293e+003, 3.098529e+001
2.263221e+003, 3.087781e+001
2.265150e+003, 3.059549e+001
2.267078e+003, 3.014667e+001
2.269007e+003, 2.999083e+001
2.270935e+003, 2.993262e+001
2.272864e+003, 2.969755e+001
2.274792e+003, 2.948828e+001
2.276721e+003, 2.966266e+001
2.278649e+003, 3.201085e+001
2.280578e+003, 3.257877e+001
2.282506e+003, 3.028841e+001
2.284435e+003, 2.896970e+001
2.286363e+003, 2.840158e+001
2.288292e+003, 2.857849e+001
2.290220e+003, 2.841393e+001
2.292148e+003, 2.805099e+001
2.294077e+003, 2.804689e+001
2.296005e+003, 2.809628e+001
2.297934e+003, 2.810822e+001
2.299862e+003, 2.783553e+001
2.301791e+003, 2.758079e+001
2.303719e+003, 2.764888e+001
2.305648e+003, 2.746932e+001
2.307576e+003, 2.720838e+001
2.309505e+003, 2.720680e+001
2.311433e+003, 2.738219e+001
2.313362e+003, 2.763648e+001
2.315290e+003, 2.704458e+001
2.317219e+003, 2.671920e+001
2.319147e+003, 2.731533e+001
2.321075e+003, 2.699777e+001
2.323004e+003, 2.637802e+001
2.324932e+003, 2.624837e+001
2.326861e+003, 2.629236e+001
2.328789e+003, 2.635145e+001
2.330718e+003, 2.601566e+001
2.332646e+003, 2.568116e+001
2.334575e+003, 2.547355e+001
2.336503e+003, 2.542019e+001
2.338432e+003, 2.536141e+001
2.340360e+003, 2.517498e+001
2.342289e+003, 2.513629e+001
2.344217e+003, 2.514011e+001
2.346146e+003, 2.495586e+001
2.348074e+003, 2.472129e+001
2.350002e+003, 2.453667e+001
2.351931e+003, 2.481120e+001
2.353859e+003, 2.491896e+001
2.355788e+003, 2.465670e+001
2.357716e+003, 2.431630e+001
2.359645e+003, 2.402810e+001
2.361573e+003, 2.389234e+001
2.363502e+003, 2.390438e+001
2.365430e+003, 2.397262e+001
2.367359e+003, 2.394498e+001
2.369287e+003, 2.387275e+001
2.371216e+003, 2.380287e+001
2.373144e+003, 2.398310e+001
2.375073e+003, 2.403565e+001
2.377001e+003, 2.379722e+001
2.378929e+003, 2.399577e+001
2.380858e+003, 2.410707e+001
2.382786e+003, 2.365355e+001
2.384715e+003, 2.359727e+001
2.386643e+003, 2.362938e+001
2.388572e+003, 2.322948e+001
2.390500e+003, 2.293062e+001
2.392429e+003, 2.287149e+001
2.394357e+003, 2.349638e+001
2.396286e+003, 2.383831e+001
2.398214e+003, 2.366880e+001
2.400143e+003, 2.336803e+001
2.402071e+003, 2.324315e+001
2.404000e+003, 2.343044e+001
2.405928e+003, 2.300438e+001
2.407856e+003, 2.257303e+001
2.409785e+003, 2.269812e+001
2.411713e+003, 2.299446e+001
2.413642e+003, 2.325059e+001
2.415570e+003, 2.317876e+001
2.417499e+003, 2.284944e+001
2.419427e+003, 2.246355e+001
2.421356e+003, 2.263476e+001
2.423284e+003, 2.296149e+001
2.425213e+003, 2.324622e+001
2.427141e+003, 2.289197e+001
2.429070e+003, 2.255607e+001
2.430998e+003, 2.253730e+001
2.432927e+003, 2.260544e+001
2.434855e+003, 2.262292e+001
2.436783e+003, 2.240545e+001
2.438712e+003, 2.250396e+001
2.440640e+003, 2.268995e+001
2.442569e+003, 2.274585e+001
2.444497e+003, 2.219888e+001
2.446426e+003, 2.152103e+001
2.448354e+003, 2.196543e+001
2.450283e+003, 2.204851e+001
2.452211e+003, 2.169414e+001
2.454140e+003, 2.177610e+001
2.456068e+003, 2.176476e+001
2.457997e+003, 2.152363e+001
2.459925e+003, 2.139215e+001
2.461854e+003, 2.142242e+001
2.463782e+003, 2.165985e+001
2.465710e+003, 2.136384e+001
2.467639e+003, 2.112732e+001
2.469567e+003, 2.135552e+001
2.471496e+003, 2.149066e+001
2.473424e+003, 2.132494e+001
2.475353e+003, 2.061006e+001
2.477281e+003, 2.044475e+001
2.479210e+003, 2.073320e+001
2.481138e+003, 2.143155e+001
2.483067e+003, 2.130920e+001
2.484995e+003, 2.070423e+001
2.486924e+003, 2.085911e+001
2.488852e+003, 2.069971e+001
2.490781e+003, 2.024654e+001
2.492709e+003, 2.017696e+001
2.494637e+003, 2.044700e+001
2.496566e+003, 2.085292e+001
2.498494e+003, 2.040616e+001
2.500423e+003, 2.020193e+001
2.502351e+003, 2.050241e+001
2.504280e+003, 2.021304e+001
2.506208e+003, 2.000610e+001
2.508137e+003, 2.020500e+001
2.510065e+003, 2.026102e+001
2.511994e+003, 2.022876e+001
2.513922e+003, 2.013405e+001
2.515851e+003, 2.011574e+001
2.517779e+003, 1.996992e+001
2.519708e+003, 1.936357e+001
2.521636e+003, 1.945025e+001
2.523564e+003, 1.963627e+001
2.525493e+003, 1.921119e+001
2.527421e+003, 1.928121e+001
2.529350e+003, 1.958225e+001
2.531278e+003, 1.973362e+001
2.533207e+003, 1.970350e+001
2.535135e+003, 1.960714e+001
2.537064e+003, 1.963730e+001
2.538992e+003, 1.944978e+001
2.540921e+003, 1.917400e+001
2.542849e+003, 1.909732e+001
2.544778e+003, 1.927933e+001
2.546706e+003, 1.951250e+001
2.548635e+003, 1.910874e+001
2.550563e+003, 1.914655e+001
2.552491e+003, 1.954134e+001
2.554420e+003, 1.962463e+001
2.556348e+003, 1.940225e+001
2.558277e+003, 1.901696e+001
2.560205e+003, 1.891145e+001
2.562134e+003, 1.886160e+001
2.564062e+003, 1.879234e+001
2.565991e+003, 1.862387e+001
2.567919e+003, 1.845163e+001
2.569848e+003, 1.831961e+001
2.571776e+003, 1.830587e+001
2.573705e+003, 1.820031e+001
2.575633e+003, 1.816390e+001
2.577562e+003, 1.977064e+001
2.579490e+003, 1.985726e+001
2.581418e+003, 1.813318e+001
2.583347e+003, 1.743311e+001
2.585275e+003, 1.708794e+001
2.587204e+003, 1.691993e+001
2.589132e+003, 1.746213e+001
2.591061e+003, 1.766579e+001
2.592989e+003, 1.732420e+001
2.594918e+003, 1.735426e+001
2.596846e+003, 1.737859e+001
2.598775e+003, 1.731760e+001
2.600703e+003, 1.749511e+001
2.602632e+003, 1.763782e+001
2.604560e+003, 1.762069e+001
2.606489e+003, 1.700726e+001
2.608417e+003, 1.672111e+001
2.610345e+003, 1.690889e+001
2.612274e+003, 1.666491e+001
2.614202e+003, 1.658200e+001
2.616131e+003, 1.673398e+001
2.618059e+003, 1.657988e+001
2.619988e+003, 1.645708e+001
2.621916e+003, 1.640403e+001
2.623845e+003, 1.609464e+001
2.625773e+003, 1.607842e+001
2.627702e+003, 1.627649e+001
2.629630e+003, 1.581482e+001
2.631559e+003, 1.560964e+001
2.633487e+003, 1.577268e+001
2.635416e+003, 1.612481e+001
2.637344e+003, 1.605699e+001
2.639272e+003, 1.568831e+001
2.641201e+003, 1.559235e+001
2.643129e+003, 1.561147e+001
2.645058e+003, 1.564867e+001
2.646986e+003, 1.562341e+001
2.648915e+003, 1.528578e+001
2.650843e+003, 1.490322e+001
2.652772e+003, 1.510142e+001
2.654700e+003, 1.507211e+001
2.656629e+003, 1.487377e+001
2.658557e+003, 1.469552e+001
2.660486e+003, 1.487354e+001
2.662414e+003, 1.493532e+001
2.664343e+003, 1.417786e+001
2.666271e+003, 1.439097e+001
2.668199e+003, 1.481864e+001
2.670128e+003, 1.460609e+001
2.672056e+003, 1.429077e+001
2.673985e+003, 1.408911e+001
2.675913e+003, 1.411233e+001
2.677842e+003, 1.446545e+001
2.679770e+003, 1.459521e+001
2.681699e+003, 1.422244e+001
2.683627e+003, 1.369433e+001
2.685556e+003, 1.363805e+001
2.687484e+003, 1.415600e+001
2.689413e+003, 1.389387e+001
2.691341e+003, 1.351503e+001
2.693270e+003, 1.333636e+001
2.695198e+003, 1.367150e+001
2.697126e+003, 1.385853e+001
2.699055e+003, 1.377007e+001
2.700983e+003, 1.356660e+001
2.702912e+003, 1.345531e+001
2.704840e+003, 1.344153e+001
2.706769e+003, 1.352593e+001
2.708697e+003, 1.321454e+001
2.710626e+003, 1.279034e+001
2.712554e+003, 1.288306e+001
2.714483e+003, 1.274168e+001
2.716411e+003, 1.250287e+001
2.718340e+003, 1.243292e+001
2.720268e+003, 1.210347e+001
2.722197e+003, 1.186717e+001
2.724125e+003, 1.204087e+001
2.726053e+003, 1.237737e+001
2.727982e+003, 1.245177e+001
2.729910e+003, 1.205522e+001
2.731839e+003, 1.216712e+001
2.733767e+003, 1.223273e+001
2.735696e+003, 1.205794e+001
2.737624e+003, 1.153959e+001
2.739553e+003, 1.155013e+001
2.741481e+003, 1.191559e+001
2.743410e+003, 1.151735e+001
2.745338e+003, 1.127704e+001
2.747267e+003, 1.129142e+001
2.749195e+003, 1.152791e+001
2.751124e+003, 1.189477e+001
2.753052e+003, 1.204102e+001
2.754980e+003, 1.165139e+001
2.756909e+003, 1.142162e+001
2.758837e+003, 1.141576e+001
2.760766e+003, 1.160215e+001
2.762694e+003, 1.156464e+001
2.764623e+003, 1.146402e+001
2.766551e+003, 1.136575e+001
2.768480e+003, 1.126082e+001
2.770408e+003, 1.115442e+001
2.772337e+003, 1.104786e+001
2.774265e+003, 1.092934e+001
2.776194e+003, 1.087115e+001
2.778122e+003, 1.082636e+001
2.780051e+003, 1.072489e+001
2.781979e+003, 1.057228e+001
2.783907e+003, 1.051104e+001
2.785836e+003, 1.067149e+001
2.787764e+003, 1.055956e+001
2.789693e+003, 1.040332e+001
2.791621e+003, 1.030802e+001
2.793550e+003, 1.038404e+001
2.795478e+003, 1.032985e+001
2.797407e+003, 1.017308e+001
2.799335e+003, 1.008113e+001
2.801264e+003, 1.046908e+001
2.803192e+003, 1.071976e+001
2.805121e+003, 1.012790e+001
2.807049e+003, 1.026114e+001
2.808978e+003, 1.033963e+001
2.810906e+003, 9.957484e+000
2.812834e+003, 1.010133e+001
2.814763e+003, 1.006033e+001
2.816691e+003, 9.742049e+000
2.818620e+003, 9.688008e+000
2.820548e+003, 9.729769e+000
2.822477e+003, 9.768458e+000
2.824405e+003, 9.682723e+000
2.826334e+003, 9.616988e+000
2.828262e+003, 9.585922e+000
2.830191e+003, 9.593955e+000
2.832119e+003, 9.219716e+000
2.834048e+003, 9.132678e+000
2.835976e+003, 9.424029e+000
2.837905e+003, 9.507746e+000
2.839833e+003, 9.045863e+000
2.841761e+003, 8.594341e+000
2.843690e+003, 9.302348e+000
2.845618e+003, 9.052773e+000
2.847547e+003, 8.713391e+000
2.849475e+003, 9.154713e+000
2.851404e+003, 9.096729e+000
2.853332e+003, 8.922245e+000
2.855261e+003, 8.829651e+000
2.857189e+003, 9.084409e+000
2.859118e+003, 9.207830e+000
2.861046e+003, 9.185190e+000
2.862975e+003, 9.116706e+000
2.864903e+003, 8.848003e+000
2.866832e+003, 8.599528e+000
2.868760e+003, 8.507411e+000
2.870688e+003, 8.615988e+000
2.872617e+003, 8.618771e+000
2.874545e+003, 8.504391e+000
2.876474e+003, 8.513249e+000
2.878402e+003, 8.484776e+000
2.880331e+003, 8.496868e+000
2.882259e+003, 8.639132e+000
2.884188e+003, 9.618791e+000
2.886116e+003, 9.674778e+000
2.888045e+003, 8.572271e+000
2.889973e+003, 8.579473e+000
2.891902e+003, 8.391421e+000
2.893830e+003, 8.331414e+000
2.895759e+003, 9.775573e+000
2.897687e+003, 9.109938e+000
2.899615e+003, 8.067752e+000
2.901544e+003, 7.852142e+000
2.903472e+003, 7.935460e+000
2.905401e+003, 8.002923e+000
2.907329e+003, 7.943451e+000
2.909258e+003, 7.637564e+000
2.911186e+003, 7.778064e+000
2.913115e+003, 8.078185e+000
2.915043e+003, 8.255305e+000
2.916972e+003, 8.060146e+000
2.918900e+003, 7.959647e+000
2.920829e+003, 8.032601e+000
2.922757e+003, 8.072215e+000
2.924686e+003, 8.142900e+000
2.926614e+003, 8.078792e+000
2.928542e+003, 7.768500e+000
2.930471e+003, 7.710610e+000
2.932399e+003, 7.678230e+000
2.934328e+003, 7.636595e+000
2.936256e+003, 7.810336e+000
2.938185e+003, 7.767681e+000
2.940113e+003, 7.769783e+000
2.942042e+003, 8.079567e+000
2.943970e+003, 7.807812e+000
2.945899e+003, 7.855919e+000
2.947827e+003, 8.179350e+000
2.949756e+003, 7.734205e+000
2.951684e+003, 7.709909e+000
2.953613e+003, 7.634503e+000
2.955541e+003, 6.895160e+000
2.957469e+003, 7.261120e+000
2.959398e+003, 7.503184e+000
2.961326e+003, 7.432512e+000
2.963255e+003, 7.615977e+000
2.965183e+003, 7.179967e+000
2.967112e+003, 6.915198e+000
2.969040e+003, 7.470885e+000
2.970969e+003, 7.017977e+000
2.972897e+003, 6.903726e+000
2.974826e+003, 7.100097e+000
2.976754e+003, 6.851363e+000
2.978683e+003, 7.251761e+000
2.980611e+003, 7.404866e+000
2.982540e+003, 6.885221e+000
2.984468e+003, 6.799414e+000
2.986396e+003, 6.804807e+000
2.988325e+003, 6.917715e+000
2.990253e+003, 7.258244e+000
2.992182e+003, 6.999274e+000
2.994110e+003, 6.847701e+000
2.996039e+003, 6.959188e+000
2.997967e+003, 6.723291e+000
2.999896e+003, 6.880867e+000
3.001824e+003, 7.050602e+000
3.003753e+003, 6.844259e+000
3.005681e+003, 6.859088e+000
3.007610e+003, 6.874372e+000
3.009538e+003, 6.850839e+000
3.011467e+003, 6.885273e+000
3.013395e+003, 6.624418e+000
3.015323e+003, 6.453910e+000
3.017252e+003, 6.566868e+000
3.019180e+003, 6.801228e+000
3.021109e+003, 6.994687e+000
3.023037e+003, 6.947243e+000
3.024966e+003, 6.479212e+000
3.026894e+003, 6.636760e+000
3.028823e+003, 6.635004e+000
3.030751e+003, 6.490839e+000
3.032680e+003, 6.774096e+000
3.034608e+003, 6.637068e+000
3.036537e+003, 6.543969e+000
3.038465e+003, 6.689240e+000
3.040394e+003, 6.456632e+000
3.042322e+003, 6.436254e+000
3.044250e+003, 6.509259e+000
3.046179e+003, 6.486964e+000
3.048107e+003, 6.365546e+000
3.050036e+003, 6.203400e+000
3.051964e+003, 6.214702e+000
3.053893e+003, 6.797133e+000
3.055821e+003, 6.694715e+000
3.057750e+003, 6.544395e+000
3.059678e+003, 6.461980e+000
3.061607e+003, 5.730383e+000
3.063535e+003, 5.818120e+000
3.065464e+003, 6.216420e+000
3.067392e+003, 6.435066e+000
3.069321e+003, 6.255023e+000
3.071249e+003, 6.312978e+000
3.073177e+003, 6.522019e+000
3.075106e+003, 6.693475e+000
3.077034e+003, 6.235797e+000
3.078963e+003, 6.231025e+000
3.080891e+003, 6.467690e+000
3.082820e+003, 6.112874e+000
3.084748e+003, 6.249694e+000
3.086677e+003, 6.288470e+000
3.088605e+003, 6.154402e+000
3.090534e+003, 6.416903e+000
3.092462e+003, 6.508811e+000
3.094391e+003, 6.329843e+000
3.096319e+003, 6.028759e+000
3.098248e+003, 6.516218e+000
3.100176e+003, 6.253877e+000
3.102104e+003, 5.950087e+000
3.104033e+003, 6.138563e+000
3.105961e+003, 5.930460e+000
3.107890e+003, 6.070368e+000
3.109818e+003, 6.358351e+000
3.111747e+003, 6.430359e+000
3.113675e+003, 5.990849e+000
3.115604e+003, 6.022643e+000
3.117532e+003, 6.254475e+000
3.119461e+003, 5.935118e+000
3.121389e+003, 6.382329e+000
3.123318e+003, 6.500186e+000
3.125246e+003, 6.334830e+000
3.127175e+003, 6.576020e+000
3.129103e+003, 6.314821e+000
3.131031e+003, 6.082677e+000
3.132960e+003, 6.030153e+000
3.134888e+003, 6.014337e+000
3.136817e+003, 6.045166e+000
3.138745e+003, 6.022380e+000
3.140674e+003, 6.009288e+000
3.142602e+003, 6.304265e+000
3.144531e+003, 6.164902e+000
3.146459e+003, 6.071813e+000
3.148388e+003, 6.174707e+000
3.150316e+003, 6.064252e+000
3.152245e+003, 5.987072e+000
3.154173e+003, 5.953328e+000
3.156102e+003, 5.961933e+000
3.158030e+003, 6.044573e+000
3.159958e+003, 6.168220e+000
3.161887e+003, 6.233318e+000
3.163815e+003, 6.218247e+000
3.165744e+003, 6.222330e+000
3.167672e+003, 6.241911e+000
3.169601e+003, 6.202958e+000
3.171529e+003, 6.106962e+000
3.173458e+003, 6.160354e+000
3.175386e+003, 5.892933e+000
3.177315e+003, 5.773421e+000
3.179243e+003, 5.976470e+000
3.181172e+003, 5.886321e+000
3.183100e+003, 5.743083e+000
3.185029e+003, 5.794852e+000
3.186957e+003, 6.070340e+000
3.188885e+003, 6.229300e+000
3.190814e+003, 6.069392e+000
3.192742e+003, 5.784982e+000
3.194671e+003, 5.567298e+000
3.196599e+003, 5.637626e+000
3.198528e+003, 5.827384e+000
3.200456e+003, 5.836554e+000
3.202385e+003, 5.652456e+000
3.204313e+003, 5.610573e+000
3.206242e+003, 5.766653e+000
3.208170e+003, 5.510987e+000
3.210099e+003, 5.044146e+000
3.212027e+003, 5.473076e+000
3.213956e+003, 5.579706e+000
3.215884e+003, 5.523737e+000
3.217813e+003, 5.495329e+000
3.219741e+003, 5.724114e+000
3.221669e+003, 5.274334e+000
3.223598e+003, 5.125722e+000
3.225526e+003, 5.246778e+000
3.227455e+003, 5.081820e+000
3.229383e+003, 5.144408e+000
3.231312e+003, 5.494520e+000
3.233240e+003, 5.642960e+000
3.235169e+003, 5.018304e+000
3.237097e+003, 5.040244e+000
3.239026e+003, 5.173904e+000
3.240954e+003, 5.287261e+000
3.242883e+003, 5.359289e+000
3.244811e+003, 5.298657e+000
3.246740e+003, 5.008073e+000
3.248668e+003, 4.855837e+000
3.250596e+003, 5.023855e+000
3.252525e+003, 5.238822e+000
3.254453e+003, 5.535247e+000
3.256382e+003, 5.384308e+000
3.258310e+003, 4.970412e+000
3.260239e+003, 5.380188e+000
3.262167e+003, 5.491066e+000
3.264096e+003, 5.437467e+000
3.266024e+003, 5.281301e+000
3.267953e+003, 4.986403e+000
3.269881e+003, 4.966622e+000
3.271810e+003, 4.808631e+000
3.273738e+003, 4.706543e+000
3.275667e+003, 4.905631e+000
3.277595e+003, 4.501984e+000
3.279523e+003, 4.446918e+000
3.281452e+003, 4.687255e+000
3.283380e+003, 4.949501e+000
3.285309e+003, 4.736505e+000
3.287237e+003, 4.624008e+000
3.289166e+003, 4.708113e+000
3.291094e+003, 4.774805e+000
3.293023e+003, 4.391404e+000
3.294951e+003, 4.861234e+000
3.296880e+003, 7.501559e+000
3.298808e+003, 8.790286e+000
3.300737e+003, 5.385203e+000
3.302665e+003, 5.553566e+000
3.304594e+003, 5.054520e+000
3.306522e+003, 4.702943e+000
3.308450e+003, 5.138579e+000
3.310379e+003, 4.685542e+000
3.312307e+003, 4.570332e+000
3.314236e+003, 4.867956e+000
3.316164e+003, 5.146945e+000
3.318093e+003, 4.763208e+000
3.320021e+003, 4.411155e+000
3.321950e+003, 4.570208e+000
3.323878e+003, 4.782876e+000
3.325807e+003, 4.619933e+000
3.327735e+003, 4.572299e+000
3.329664e+003, 4.354255e+000
3.331592e+003, 4.311877e+000
3.333521e+003, 4.439221e+000
3.335449e+003, 4.284313e+000
3.337377e+003, 4.429356e+000
3.339306e+003, 4.527283e+000
3.341234e+003, 4.418466e+000
3.343163e+003, 4.109141e+000
3.345091e+003, 4.078230e+000
3.347020e+003, 4.177770e+000
3.348948e+003, 4.308990e+000
3.350877e+003, 4.282693e+000
3.352805e+003, 3.825488e+000
3.354734e+003, 4.169542e+000
3.356662e+003, 4.392077e+000
3.358591e+003, 4.449091e+000
3.360519e+003, 4.539039e+000
3.362448e+003, 4.405292e+000
3.364376e+003, 4.078506e+000
3.366304e+003, 4.184402e+000
3.368233e+003, 4.498037e+000
3.370161e+003, 4.110993e+000
3.372090e+003, 4.260367e+000
3.374018e+003, 4.338862e+000
3.375947e+003, 4.436400e+000
3.377875e+003, 4.659251e+000
3.379804e+003, 4.609060e+000
3.381732e+003, 4.253379e+000
3.383661e+003, 4.214179e+000
3.385589e+003, 4.594803e+000
3.387518e+003, 5.191913e+000
3.389446e+003, 4.768136e+000
3.391375e+003, 4.408512e+000
3.393303e+003, 4.381777e+000
3.395231e+003, 4.630973e+000
3.397160e+003, 4.921086e+000
3.399088e+003, 4.883606e+000
3.401017e+003, 4.626147e+000
3.402945e+003, 4.529088e+000
3.404874e+003, 4.762573e+000
3.406802e+003, 4.934052e+000
3.408731e+003, 5.022522e+000
3.410659e+003, 4.857508e+000
3.412588e+003, 4.640707e+000
3.414516e+003, 4.677071e+000
3.416445e+003, 5.066794e+000
3.418373e+003, 5.076124e+000
3.420302e+003, 5.141229e+000
3.422230e+003, 5.312969e+000
3.424158e+003, 5.235832e+000
3.426087e+003, 5.474101e+000
3.428015e+003, 5.153780e+000
3.429944e+003, 4.910640e+000
3.431872e+003, 5.180411e+000
3.433801e+003, 5.810229e+000
3.435729e+003, 5.320648e+000
3.437658e+003, 5.245792e+000
3.439586e+003, 5.294636e+000
3.441515e+003, 5.145890e+000
3.443443e+003, 5.318440e+000
3.445372e+003, 5.205890e+000
3.447300e+003, 4.913990e+000
3.449229e+003, 4.914885e+000
3.451157e+003, 5.303741e+000
3.453085e+003, 5.056549e+000
3.455014e+003, 5.159020e+000
3.456942e+003, 5.155042e+000
##END=



