##NAMES=Cowlesite
##RRUFFID=R060627
##IDEAL CHEMISTRY=Ca(Al_2_Si_3_)O_10_·5-6H_2_O
##LOCALITY=Goble, Colombia County, Oregon, USA
##OWNER=RRUFF
##SOURCE=Michael Scott
##DESCRIPTION=Radiating spherical sprays of colorless lath-like crystals
##STATUS=The identification of this mineral is not yet confirmed
##URL=https://www.rruff.net/odr/rruff_sample/R060627
##FILETYPE=Raman Processed
##RAMAN WAVELENGTH=532

95.17188, 76.31884
97.10034, 80.65774
99.02881, 84.21027
100.9573, 88.82589
102.8857, 92.88440
104.8142, 96.10490
106.7427, 98.91905
108.6711, 101.2645
110.5996, 102.9264
112.5281, 104.6307
114.4565, 106.2394
116.3850, 107.9438
118.3135, 109.6521
120.2419, 111.2778
122.1704, 112.7368
124.0989, 114.5005
126.0273, 116.5208
127.9558, 118.7368
129.8843, 121.2878
131.8127, 124.0402
133.7412, 127.0362
135.6697, 130.2342
137.5981, 133.6206
139.5266, 137.0958
141.4551, 140.7062
143.3835, 144.4478
145.3120, 147.8893
147.2405, 150.6936
149.1689, 153.1483
151.0974, 155.6934
153.0259, 158.3137
154.9543, 161.0550
156.8828, 164.0598
158.8113, 167.3782
160.7397, 170.4708
162.6682, 173.2430
164.5967, 175.6678
166.5251, 177.6878
168.4536, 178.9284
170.3821, 180.0006
172.3105, 181.2926
174.2390, 183.1675
176.1675, 184.3497
178.0959, 184.4516
180.0244, 183.5471
181.9529, 182.6503
183.8813, 181.7405
185.8098, 180.9729
187.7383, 180.4504
189.6667, 180.8421
191.5952, 180.9361
193.5237, 180.5154
195.4521, 179.7141
197.3806, 179.0201
199.3091, 178.6478
201.2375, 178.3576
203.1660, 177.9443
205.0945, 177.3763
207.0229, 176.7222
208.9514, 176.0237
210.8799, 175.2856
212.8083, 174.2583
214.7368, 172.8079
216.6653, 171.0913
218.5938, 169.2208
220.5222, 166.9672
222.4507, 164.9285
224.3792, 163.2565
226.3076, 161.9936
228.2361, 160.9914
230.1646, 160.4567
232.0930, 160.1239
234.0215, 159.6677
235.9500, 159.0244
237.8784, 158.4379
239.8069, 157.9931
241.7354, 157.7403
243.6638, 157.5723
245.5923, 157.4712
247.5208, 157.4509
249.4492, 157.5091
251.3777, 157.5266
253.3062, 157.7087
255.2346, 158.2169
257.1631, 159.0857
259.0916, 159.7445
261.0200, 159.9196
262.9485, 159.9146
264.8770, 160.1133
266.8054, 160.8505
268.7339, 161.5104
270.6624, 161.8324
272.5908, 161.8472
274.5193, 162.0618
276.4478, 162.7311
278.3762, 163.6025
280.3047, 164.3725
282.2332, 164.9322
284.1616, 165.5187
286.0901, 166.1497
288.0186, 166.8081
289.9470, 167.6711
291.8755, 169.0808
293.8040, 170.5638
295.7324, 171.4655
297.6609, 171.5249
299.5894, 171.5460
301.5178, 171.7383
303.4463, 172.0838
305.3748, 172.6002
307.3032, 173.4935
309.2317, 174.4401
311.1602, 175.0947
313.0886, 175.3515
315.0171, 175.6797
316.9456, 176.2032
318.8740, 176.9308
320.8025, 177.8489
322.7310, 179.4178
324.6594, 180.8587
326.5879, 181.5559
328.5164, 181.2254
330.4448, 180.9934
332.3733, 181.2628
334.3018, 181.9089
336.2302, 182.0935
338.1587, 181.4644
340.0872, 180.6774
342.0156, 180.0461
343.9441, 179.5855
345.8726, 179.2348
347.8010, 178.9615
349.7295, 178.7921
351.6580, 178.7759
353.5864, 178.9736
355.5149, 179.2555
357.4434, 179.6450
359.3718, 180.3230
361.3003, 180.5588
363.2288, 179.9038
365.1572, 179.0000
367.0857, 178.7036
369.0142, 179.2390
370.9426, 179.9556
372.8711, 180.7290
374.7996, 181.5891
376.7280, 182.0312
378.6565, 181.5559
380.5850, 180.9484
382.5134, 180.8376
384.4419, 181.4065
386.3704, 181.9348
388.2988, 182.3108
390.2273, 182.5528
392.1558, 182.7210
394.0842, 182.8721
396.0127, 182.9926
397.9412, 183.0716
399.8696, 183.0912
401.7981, 183.2076
403.7266, 183.4034
405.6550, 183.6681
407.5835, 183.9699
409.5120, 184.2095
411.4404, 184.5011
413.3689, 184.9119
415.2974, 185.4509
417.2258, 185.7550
419.1543, 185.7839
421.0828, 185.6453
423.0112, 185.3618
424.9397, 184.8536
426.8682, 184.6489
428.7966, 185.1580
430.7251, 186.1795
432.6536, 186.8802
434.5820, 186.9807
436.5105, 187.0611
438.4390, 187.2947
440.3674, 187.6425
442.2959, 188.2308
444.2244, 189.3695
446.1528, 190.6120
448.0813, 191.4448
450.0098, 191.2991
451.9382, 191.4556
453.8667, 192.4918
455.7952, 194.0818
457.7236, 195.2093
459.6521, 195.4727
461.5806, 195.4709
463.5090, 195.3280
465.4375, 194.8908
467.3660, 194.9470
469.2944, 196.0517
471.2229, 197.5779
473.1514, 198.7456
475.0798, 199.0612
477.0083, 199.6742
478.9368, 200.9060
480.8652, 202.7417
482.7937, 204.5590
484.7222, 206.1149
486.6506, 207.8638
488.5791, 210.0319
490.5076, 212.7764
492.4360, 215.4942
494.3645, 217.9773
496.2930, 220.4094
498.2214, 223.1311
500.1499, 226.3552
502.0784, 229.3412
504.0068, 231.7558
505.9353, 233.6445
507.8638, 235.7428
509.7922, 238.3336
511.7207, 240.9374
513.6492, 243.2175
515.5776, 245.1687
517.5061, 247.3752
519.4346, 249.8367
521.3630, 252.6710
523.2915, 256.0581
525.2200, 260.7722
527.1484, 265.1497
529.0769, 269.3608
531.0054, 273.0693
532.9338, 275.5418
534.8623, 276.7967
536.7908, 276.5013
538.7192, 274.3610
540.6477, 269.9289
542.5762, 265.1443
544.5046, 259.5717
546.4331, 253.9893
548.3616, 248.9174
550.2900, 244.4106
552.2185, 240.3899
554.1470, 236.7905
556.0754, 233.6147
558.0039, 230.8717
559.9324, 228.1989
561.8608, 226.2644
563.7893, 225.6256
565.7178, 226.0035
567.6462, 226.2512
569.5747, 226.1403
571.5032, 225.9350
573.4316, 225.7733
575.3601, 225.6950
577.2886, 225.4683
579.2170, 224.8277
581.1455, 224.1898
583.0740, 223.9790
585.0024, 224.6198
586.9309, 224.9091
588.8594, 224.4621
590.7878, 223.5550
592.7163, 222.9276
594.6448, 222.7599
596.5732, 222.5943
598.5017, 222.1582
600.4302, 221.4880
602.3586, 221.1771
604.2871, 221.3249
606.2156, 221.7536
608.1440, 222.4521
610.0725, 223.4270
612.0010, 224.4114
613.9294, 225.4032
615.8579, 226.3111
617.7864, 227.0581
619.7148, 227.5852
621.6433, 227.9683
623.5718, 228.0132
625.5002, 227.9677
627.4287, 228.3562
629.3572, 229.5336
631.2856, 230.4360
633.2141, 230.5314
635.1426, 230.0235
637.0710, 229.9227
638.9995, 230.5637
640.9280, 231.2676
642.8564, 231.8630
644.7849, 232.3136
646.7134, 232.4849
648.6418, 231.9766
650.5703, 231.4948
652.4988, 231.4909
654.4272, 232.2804
656.3557, 232.7695
658.2842, 232.7663
660.2126, 232.6548
662.1411, 232.8435
664.0696, 233.4084
665.9980, 234.0033
667.9265, 234.4139
669.8550, 234.8328
671.7834, 235.5378
673.7119, 236.9489
675.6404, 238.0633
677.5688, 238.3999
679.4973, 238.2892
681.4258, 238.7248
683.3542, 240.2089
685.2827, 241.3697
687.2112, 241.5645
689.1396, 240.8842
691.0681, 240.6790
692.9966, 241.3548
694.9250, 242.1395
696.8535, 242.7209
698.7820, 243.1220
700.7104, 243.5777
702.6389, 244.0702
704.5674, 244.6019
706.4958, 245.1978
708.4243, 245.9477
710.3528, 246.4165
712.2813, 246.5235
714.2097, 246.4551
716.1382, 246.2820
718.0667, 245.9812
719.9951, 246.0271
721.9236, 246.9285
723.8521, 248.0896
725.7805, 248.9646
727.7090, 249.1914
729.6375, 249.6606
731.5659, 250.5527
733.4944, 251.6084
735.4229, 252.4119
737.3513, 252.8008
739.2798, 253.2756
741.2083, 254.1993
743.1367, 255.2595
745.0652, 255.8360
746.9937, 255.2680
748.9221, 254.9953
750.8506, 255.4551
752.7791, 256.4167
754.7075, 257.1501
756.6360, 257.5731
758.5645, 257.9526
760.4929, 258.4811
762.4214, 259.0922
764.3499, 259.3577
766.2783, 258.4738
768.2068, 258.0613
770.1353, 258.8658
772.0637, 260.6702
773.9922, 262.0776
775.9207, 263.0784
777.8491, 263.6079
779.7776, 263.5154
781.7061, 262.8154
783.6345, 262.4058
785.5630, 262.5116
787.4915, 262.7648
789.4199, 263.0151
791.3484, 263.2918
793.2769, 263.8001
795.2053, 264.6201
797.1338, 265.5569
799.0623, 266.5744
800.9907, 267.6660
802.9192, 268.3869
804.8477, 268.1902
806.7761, 268.0560
808.7046, 268.6001
810.6331, 269.9185
812.5615, 270.9312
814.4900, 271.5140
816.4185, 271.9366
818.3469, 272.2735
820.2754, 272.5107
822.2039, 273.0039
824.1323, 273.7289
826.0608, 274.7084
827.9893, 276.0079
829.9177, 277.6702
831.8462, 279.2151
833.7747, 280.9145
835.7031, 282.1958
837.6316, 282.5572
839.5601, 282.0137
841.4885, 281.8091
843.4170, 282.5895
845.3455, 283.4088
847.2739, 283.7452
849.2024, 283.4709
851.1309, 283.5960
853.0593, 284.2943
854.9878, 285.2436
856.9163, 286.3929
858.8447, 287.6992
860.7732, 288.7037
862.7017, 288.8292
864.6301, 289.0796
866.5586, 290.1454
868.4871, 292.2491
870.4155, 293.4271
872.3440, 292.9583
874.2725, 292.3423
876.2009, 292.3932
878.1294, 292.9893
880.0579, 293.4190
881.9863, 293.4650
883.9148, 293.4808
885.8433, 293.5594
887.7717, 293.6895
889.7002, 294.0445
891.6287, 294.9660
893.5571, 295.7652
895.4856, 296.1251
897.4141, 296.1551
899.3425, 296.3332
901.2710, 296.6342
903.1995, 297.2250
905.1279, 298.2477
907.0564, 299.6172
908.9849, 300.9545
910.9133, 302.2426
912.8418, 303.3594
914.7703, 304.0334
916.6987, 304.4120
918.6272, 305.1406
920.5557, 306.5376
922.4841, 307.6286
924.4126, 307.9099
926.3411, 307.8334
928.2695, 308.1245
930.1980, 309.1198
932.1265, 310.0523
934.0549, 310.4666
935.9834, 310.8572
937.9119, 312.0817
939.8403, 314.7435
941.7688, 316.7705
943.6973, 317.4187
945.6257, 317.4962
947.5542, 317.7988
949.4827, 318.3525
951.4111, 319.0283
953.3396, 319.7668
955.2681, 320.7169
957.1965, 322.0635
959.1250, 324.0648
961.0535, 325.6807
962.9819, 326.6079
964.9104, 327.3560
966.8389, 328.2034
968.7673, 329.1109
970.6958, 329.9165
972.6243, 330.5611
974.5527, 331.1855
976.4812, 331.7833
978.4097, 332.4073
980.3381, 333.4860
982.2666, 335.8736
984.1951, 337.8488
986.1235, 338.7421
988.0520, 338.8826
989.9805, 339.3099
991.9089, 339.7752
993.8374, 340.8638
995.7659, 343.6745
997.6943, 346.7740
999.6228, 347.9618
1001.551, 346.2195
1003.480, 345.4967
1005.408, 347.3701
1007.337, 350.0529
1009.265, 352.0892
1011.194, 353.8145
1013.122, 353.9403
1015.051, 350.9136
1016.979, 347.6095
1018.907, 345.7467
1020.836, 345.1926
1022.764, 345.7976
1024.693, 348.6776
1026.621, 351.1609
1028.550, 351.7657
1030.478, 350.7906
1032.407, 350.7068
1034.335, 352.2360
1036.264, 353.8423
1038.192, 355.3609
1040.121, 356.7361
1042.049, 357.7885
1043.978, 358.3364
1045.906, 359.0111
1047.834, 360.0847
1049.763, 361.2458
1051.691, 362.2549
1053.620, 363.1307
1055.548, 363.9025
1057.477, 364.5858
1059.405, 365.2515
1061.334, 365.9917
1063.262, 366.8354
1065.191, 367.4484
1067.119, 367.6474
1069.048, 367.7805
1070.976, 367.9418
1072.905, 368.0782
1074.833, 368.0547
1076.761, 367.7027
1078.690, 367.6200
1080.618, 368.2218
1082.547, 369.1142
1084.475, 369.8790
1086.404, 370.5062
1088.332, 371.0853
1090.261, 371.7032
1092.189, 372.2340
1094.118, 372.6011
1096.046, 372.8027
1097.975, 372.8999
1099.903, 372.5836
1101.832, 372.5565
1103.760, 373.3341
1105.688, 374.5697
1107.617, 375.4690
1109.545, 375.7315
1111.474, 376.2084
1113.402, 377.3775
1115.331, 378.6588
1117.259, 379.4123
1119.188, 379.3900
1121.116, 379.4116
1123.045, 379.4381
1124.973, 379.6391
1126.902, 380.4204
1128.830, 381.6875
1130.759, 382.1471
1132.687, 380.9530
1134.615, 380.4127
1136.544, 381.9783
1138.472, 384.5598
1140.401, 386.4904
1142.329, 387.5735
1144.258, 388.2804
1146.186, 388.3273
1148.115, 388.2851
1150.043, 388.6192
1151.972, 389.4383
1153.900, 390.2330
1155.829, 391.0656
1157.757, 391.9619
1159.686, 393.0934
1161.614, 394.3181
1163.542, 395.1592
1165.471, 395.3809
1167.399, 395.8367
1169.328, 396.7209
1171.256, 397.9083
1173.185, 399.4615
1175.113, 401.4761
1177.042, 402.8382
1178.970, 402.7269
1180.899, 402.7205
1182.827, 403.4227
1184.756, 404.7467
1186.684, 406.2613
1188.613, 408.4600
1190.541, 410.1100
1192.469, 410.6920
1194.398, 410.8496
1196.326, 411.2882
1198.255, 411.9937
1200.183, 412.4399
1202.112, 412.2455
1204.040, 412.2511
1205.969, 412.9863
1207.897, 414.3026
1209.826, 415.6715
1211.754, 417.3339
1213.683, 418.6323
1215.611, 418.9640
1217.540, 419.2330
1219.468, 420.3585
1221.396, 422.5329
1223.325, 424.2296
1225.253, 425.0373
1227.182, 425.6944
1229.110, 426.4818
1231.039, 427.2987
1232.967, 427.9283
1234.896, 428.3537
1236.824, 428.9315
1238.753, 429.9447
1240.681, 431.1321
1242.610, 432.2437
1244.538, 433.3176
1246.467, 434.7743
1248.395, 436.8900
1250.323, 438.9063
1252.252, 440.5370
1254.180, 441.8384
1256.109, 442.9115
1258.037, 443.4894
1259.966, 444.2529
1261.894, 445.5091
1263.823, 446.7012
1265.751, 447.6198
1267.680, 448.3203
1269.608, 448.8296
1271.537, 448.9837
1273.465, 449.5325
1275.394, 450.9501
1277.322, 452.6567
1279.250, 454.1592
1281.179, 455.4121
1283.107, 456.4362
1285.036, 456.9553
1286.964, 457.5349
1288.893, 458.4363
1290.821, 459.5099
1292.750, 460.5338
1294.678, 461.7123
1296.607, 462.4998
1298.535, 462.4226
1300.464, 462.5345
1302.392, 463.6326
1304.321, 465.4659
1306.249, 466.6937
1308.177, 466.9067
1310.106, 467.4474
1312.034, 468.8883
1313.963, 470.5269
1315.891, 471.7560
1317.820, 472.6423
1319.748, 473.5857
1321.677, 474.6138
1323.605, 475.6828
1325.534, 476.7791
1327.462, 477.8804
1329.391, 478.9137
1331.319, 479.8180
1333.248, 481.0105
1335.176, 482.8963
1337.104, 484.7144
1339.033, 486.0726
1340.961, 487.2374
1342.890, 488.7765
1344.818, 490.9553
1346.747, 492.9175
1348.675, 494.6443
1350.604, 496.0827
1352.532, 497.0753
1354.461, 497.7254
1356.389, 498.5107
1358.318, 499.6542
1360.246, 500.4621
1362.175, 500.8419
1364.103, 500.9772
1366.031, 500.6910
1367.960, 500.2697
1369.888, 500.8036
1371.817, 502.6653
1373.745, 504.5528
1375.674, 505.9348
1377.602, 507.1354
1379.531, 508.2148
1381.459, 509.1199
1383.388, 510.4906
1385.316, 512.7399
1387.245, 514.7377
1389.173, 516.6098
1391.102, 517.9147
1393.030, 517.9890
1394.958, 516.6456
1396.887, 516.0536
1398.815, 516.3422
1400.744, 517.2589
1402.672, 519.3674
1404.601, 521.7453
1406.529, 523.2343
1408.458, 523.7784
1410.386, 524.2122
1412.315, 524.2611
1414.243, 524.6537
1416.172, 525.6985
1418.100, 527.1813
1420.029, 528.8156
1421.957, 530.5819
1423.885, 532.6785
1425.814, 535.6012
1427.742, 537.9074
1429.671, 538.2742
1431.599, 538.0457
1433.528, 538.9335
1435.456, 541.0193
1437.385, 542.8018
1439.313, 544.1502
1441.242, 545.1577
1443.170, 545.5978
1445.099, 545.8740
1447.027, 546.5944
1448.956, 547.9798
1450.884, 548.7467
1452.813, 548.0241
1454.741, 547.8347
1456.669, 549.2077
1458.598, 551.1164
1460.526, 552.3346
1462.455, 552.8054
1464.383, 553.0660
1466.312, 552.2987
1468.240, 552.3536
1470.169, 554.3781
1472.097, 556.8939
1474.026, 558.1496
1475.954, 558.1689
1477.883, 558.6726
1479.811, 559.8286
1481.740, 561.4153
1483.668, 563.7410
1485.596, 566.2805
1487.525, 568.4456
1489.453, 570.2969
1491.382, 572.3661
1493.310, 574.7184
1495.239, 576.7140
1497.167, 578.0995
1499.096, 578.9092
1501.024, 579.1478
1502.953, 578.9338
1504.881, 578.5899
1506.810, 578.1424
1508.738, 578.0667
1510.667, 578.7112
1512.595, 579.6964
1514.523, 581.0229
1516.452, 582.4724
1518.380, 583.2994
1520.309, 583.1769
1522.237, 583.2716
1524.166, 583.8781
1526.094, 584.5390
1528.023, 584.9971
1529.951, 585.5424
1531.880, 586.6796
1533.808, 588.6103
1535.737, 590.6191
1537.665, 593.1074
1539.594, 595.0668
1541.522, 595.6849
1543.450, 595.8397
1545.379, 596.5713
1547.307, 597.8865
1549.236, 598.9402
1551.164, 599.6476
1553.093, 600.3693
1555.021, 601.5195
1556.950, 602.5164
1558.878, 602.6090
1560.807, 602.1320
1562.735, 602.7084
1564.664, 604.6963
1566.592, 606.5380
1568.521, 607.8981
1570.449, 609.0815
1572.377, 609.9597
1574.306, 610.7701
1576.234, 612.2907
1578.163, 614.6322
1580.091, 615.6262
1582.020, 614.2128
1583.948, 613.0716
1585.877, 613.4677
1587.805, 614.5031
1589.734, 615.3746
1591.662, 616.1492
1593.591, 616.9328
1595.519, 617.6396
1597.448, 618.6324
1599.376, 620.0555
1601.304, 621.6125
1603.233, 623.0476
1605.161, 624.4318
1607.090, 626.0215
1609.018, 627.8368
1610.947, 629.3073
1612.875, 630.2866
1614.804, 631.0355
1616.732, 631.5846
1618.661, 632.0577
1620.589, 632.4608
1622.518, 632.8736
1624.446, 633.7392
1626.375, 635.1905
1628.303, 636.6633
1630.231, 638.0870
1632.160, 639.3760
1634.088, 640.5450
1636.017, 641.5364
1637.945, 642.1564
1639.874, 642.4003
1641.802, 642.8299
1643.731, 643.5350
1645.659, 644.4714
1647.588, 645.7559
1649.516, 647.1677
1651.445, 648.7164
1653.373, 650.2576
1655.302, 650.9432
1657.230, 650.3171
1659.158, 650.5834
1661.087, 652.8314
1663.015, 654.8344
1664.944, 655.4743
1666.872, 655.4617
1668.801, 655.7291
1670.729, 656.2844
1672.658, 656.6231
1674.586, 656.9554
1676.515, 656.9255
1678.443, 656.2489
1680.372, 655.7532
1682.300, 655.4449
1684.229, 655.7559
1686.157, 657.6894
1688.085, 661.3052
1690.014, 664.5047
1691.942, 666.9763
1693.871, 668.8742
1695.799, 669.9965
1697.728, 670.6135
1699.656, 670.6523
1701.585, 670.4379
1703.513, 671.0611
1705.442, 672.9200
1707.370, 673.7010
1709.299, 672.4901
1711.227, 671.6766
1713.156, 672.3355
1715.084, 673.3516
1717.012, 673.6797
1718.941, 673.5977
1720.869, 674.4366
1722.798, 676.4399
1724.726, 677.7978
1726.655, 677.7453
1728.583, 677.8951
1730.512, 678.6121
1732.440, 679.8369
1734.369, 682.0328
1736.297, 684.7679
1738.226, 685.8404
1740.154, 684.8265
1742.083, 684.2883
1744.011, 684.6072
1745.939, 685.3047
1747.868, 686.8768
1749.796, 688.3176
1751.725, 688.5017
1753.653, 687.9608
1755.582, 688.5967
1757.510, 690.5881
1759.439, 692.6281
1761.367, 694.6360
1763.296, 696.1871
1765.224, 696.6456
1767.153, 696.7366
1769.081, 696.9988
1771.010, 697.3574
1772.938, 697.3334
1774.866, 696.9045
1776.795, 698.5968
1778.723, 704.7675
1780.652, 708.6153
1782.580, 705.8613
1784.509, 702.0812
1786.437, 700.8544
1788.366, 701.3068
1790.294, 702.0378
1792.223, 702.9967
1794.151, 703.8270
1796.080, 704.4334
1798.008, 705.2615
1799.937, 706.8546
1801.865, 708.2596
1803.793, 708.5740
1805.722, 708.4718
1807.650, 708.7208
1809.579, 709.3163
1811.507, 710.7799
1813.436, 713.5768
1815.364, 715.3715
1817.293, 715.0897
1819.221, 714.6158
1821.150, 714.6686
1823.078, 715.1619
1825.007, 716.1686
1826.935, 717.5922
1828.864, 718.8763
1830.792, 720.0245
1832.720, 721.0065
1834.649, 721.6096
1836.577, 722.2357
1838.506, 722.9178
1840.434, 723.6027
1842.363, 724.0203
1844.291, 724.4301
1846.220, 725.5795
1848.148, 727.5876
1850.077, 729.1176
1852.005, 730.2884
1853.934, 731.0552
1855.862, 731.3392
1857.791, 731.5626
1859.719, 731.5750
1861.647, 731.9203
1863.576, 733.3242
1865.504, 735.5384
1867.433, 737.4488
1869.361, 738.9203
1871.290, 739.9820
1873.218, 740.4117
1875.147, 740.6697
1877.075, 740.8574
1879.004, 741.0904
1880.932, 741.5886
1882.861, 742.2466
1884.789, 742.7801
1886.718, 743.2327
1888.646, 743.9989
1890.574, 745.1042
1892.503, 746.1350
1894.431, 746.9613
1896.360, 747.6884
1898.288, 748.0295
1900.217, 748.6417
1902.145, 750.6238
1904.074, 752.9073
1906.002, 753.3210
1907.931, 752.0106
1909.859, 750.8885
1911.788, 749.8605
1913.716, 749.9872
1915.645, 752.9319
1917.573, 754.8425
1919.501, 753.3102
1921.430, 751.0807
1923.358, 750.3256
1925.287, 750.7386
1927.215, 751.7137
1929.144, 753.3070
1931.072, 754.4690
1933.001, 754.6127
1934.929, 755.2078
1936.858, 756.1989
1938.786, 757.5978
1940.715, 759.9896
1942.643, 762.0967
1944.572, 762.6542
1946.500, 762.2028
1948.428, 761.9885
1950.357, 762.1024
1952.285, 762.2791
1954.214, 762.7559
1956.142, 763.0247
1958.071, 762.8362
1959.999, 762.8659
1961.928, 763.5906
1963.856, 764.2600
1965.785, 763.9235
1967.713, 763.3132
1969.642, 763.9299
1971.570, 765.4802
1973.499, 766.2894
1975.427, 766.1868
1977.355, 766.5139
1979.284, 767.8694
1981.212, 768.9768
1983.141, 768.9322
1985.069, 769.1752
1986.998, 770.9857
1988.926, 773.2264
1990.855, 774.3074
1992.783, 774.5287
1994.712, 775.1494
1996.640, 776.0132
1998.569, 777.5070
2000.497, 780.3671
2002.426, 782.2909
2004.354, 782.5402
2006.282, 782.4109
2008.211, 782.6302
2010.139, 782.5487
2012.068, 781.3339
2013.996, 779.7841
2015.925, 779.6483
2017.853, 780.8163
2019.782, 780.8937
2021.710, 779.6432
2023.639, 778.9232
2025.567, 779.1208
2027.496, 779.4052
2029.424, 779.5195
2031.353, 779.6205
2033.281, 779.4807
2035.209, 779.5570
2037.138, 780.3676
2039.066, 781.6415
2040.995, 782.9240
2042.923, 784.2255
2044.852, 785.1853
2046.780, 785.7230
2048.709, 786.4347
2050.637, 787.6503
2052.566, 788.7679
2054.494, 789.5606
2056.423, 790.2413
2058.351, 790.4225
2060.280, 790.7254
2062.208, 792.1132
2064.136, 794.0510
2066.065, 795.2050
2067.993, 795.6495
2069.922, 795.8107
2071.850, 795.7480
2073.779, 795.7270
2075.707, 795.7715
2077.636, 795.9999
2079.564, 796.4735
2081.493, 797.0502
2083.421, 797.5626
2085.350, 798.1537
2087.278, 799.2350
2089.207, 800.3407
2091.135, 800.3392
2093.063, 799.3102
2094.992, 798.9098
2096.920, 799.5920
2098.849, 799.6602
2100.777, 798.8795
2102.706, 798.3037
2104.634, 797.9336
2106.563, 798.2924
2108.491, 799.9733
2110.420, 801.9768
2112.348, 803.4601
2114.277, 804.7745
2116.205, 806.4083
2118.134, 808.0472
2120.062, 809.0891
2121.990, 809.4653
2123.919, 809.5786
2125.847, 809.5791
2127.776, 809.1553
2129.704, 808.3210
2131.633, 807.4139
2133.561, 806.5079
2135.490, 805.8651
2137.418, 805.6210
2139.347, 805.6824
2141.275, 806.0309
2143.204, 806.4547
2145.132, 806.5419
2147.061, 806.3713
2148.989, 806.6660
2150.917, 807.3983
2152.846, 807.4399
2154.774, 806.6674
2156.703, 805.8119
2158.631, 804.5602
2160.560, 804.3344
2162.488, 806.5443
2164.417, 808.3776
2166.345, 808.0508
2168.274, 807.3260
2170.202, 807.6888
2172.131, 808.4507
2174.059, 808.9573
2175.988, 809.0614
2177.916, 807.6272
2179.844, 804.7708
2181.773, 804.2916
2183.701, 806.6459
2185.630, 808.4437
2187.558, 809.2448
2189.487, 809.5762
2191.415, 809.1425
2193.344, 808.9981
2195.272, 809.8743
2197.201, 810.6833
2199.129, 810.4249
2201.058, 810.0689
2202.986, 810.7048
2204.915, 811.8911
2206.843, 813.0751
2208.771, 814.1591
2210.700, 814.2070
2212.628, 813.2282
2214.557, 812.9081
2216.485, 813.4109
2218.414, 813.8231
2220.342, 813.8961
2222.271, 813.9753
2224.199, 813.6635
2226.128, 814.0466
2228.056, 816.8603
2229.985, 818.9156
2231.913, 817.4262
2233.842, 815.4135
2235.770, 815.7460
2237.698, 817.6729
2239.627, 820.3387
2241.555, 823.3320
2243.484, 824.8451
2245.412, 824.8443
2247.341, 824.6733
2249.269, 824.2689
2251.198, 824.0116
2253.126, 824.1376
2255.055, 823.9042
2256.983, 823.1150
2258.912, 822.5087
2260.840, 822.4037
2262.769, 822.6639
2264.697, 823.4244
2266.625, 824.3060
2268.554, 824.9455
2270.482, 825.5228
2272.411, 826.1764
2274.339, 826.8832
2276.268, 827.5959
2278.196, 828.3463
2280.125, 829.3024
2282.053, 830.4196
2283.982, 831.5889
2285.910, 832.7427
2287.839, 833.7833
2289.767, 835.2662
2291.696, 835.5410
2293.624, 833.5714
2295.552, 832.2252
2297.481, 833.0149
2299.409, 833.2756
2301.338, 831.5050
2303.266, 829.9899
2305.195, 829.9478
2307.123, 830.6737
2309.052, 831.7574
2310.980, 832.8988
2312.909, 833.8456
2314.837, 834.4841
2316.766, 834.6082
2318.694, 834.3560
2320.623, 834.0468
2322.551, 833.7518
2324.479, 834.5084
2326.408, 836.4461
2328.336, 838.5057
2330.265, 840.5389
2332.193, 842.1931
2334.122, 843.1385
2336.050, 843.7487
2337.979, 844.1666
2339.907, 844.0811
2341.836, 843.3142
2343.764, 842.3457
2345.693, 841.2327
2347.621, 840.4006
2349.550, 840.3723
2351.478, 840.6110
2353.406, 840.8130
2355.335, 840.7147
2357.263, 839.5710
2359.192, 838.0020
2361.120, 837.3348
2363.049, 837.6553
2364.977, 839.4667
2366.906, 842.9861
2368.834, 844.5597
2370.763, 843.4129
2372.691, 843.6260
2374.620, 845.4558
2376.548, 847.1873
2378.477, 848.6265
2380.405, 849.4582
2382.333, 849.2776
2384.262, 849.3417
2386.190, 850.4703
2388.119, 851.5801
2390.047, 851.9882
2391.976, 852.7855
2393.904, 854.9406
2395.833, 857.2190
2397.761, 859.0850
2399.690, 860.2220
2401.618, 859.5561
2403.547, 858.5737
2405.475, 859.6627
2407.404, 861.7219
2409.332, 862.2253
2411.260, 861.6588
2413.189, 861.7946
2415.117, 862.6147
2417.046, 864.5312
2418.974, 867.5530
2420.903, 870.2253
2422.831, 872.5582
2424.760, 873.0247
2426.688, 871.2292
2428.617, 869.1050
2430.545, 866.7460
2432.474, 864.6546
2434.402, 862.7500
2436.331, 861.6263
2438.259, 861.5099
2440.188, 862.2000
2442.116, 864.2086
2444.044, 865.9349
2445.973, 866.4822
2447.901, 866.5310
2449.830, 865.9396
2451.758, 865.4257
2453.687, 865.4368
2455.615, 866.0002
2457.544, 867.9845
2459.472, 870.0605
2461.401, 870.3917
2463.329, 869.9503
2465.258, 869.7779
2467.186, 870.0961
2469.115, 871.7473
2471.043, 874.0385
2472.971, 874.8694
2474.900, 874.4248
2476.828, 874.4701
2478.757, 874.9733
2480.685, 875.7275
2482.614, 876.7381
2484.542, 877.1339
2486.471, 876.8596
2488.399, 877.3621
2490.328, 879.1647
2492.256, 879.5192
2494.185, 877.3866
2496.113, 875.6848
2498.042, 874.6667
2499.970, 874.1674
2501.898, 874.1884
2503.827, 874.9474
2505.755, 876.8741
2507.684, 878.6414
2509.612, 879.8268
2511.541, 880.5798
2513.469, 880.3480
2515.398, 880.2950
2517.326, 880.3865
2519.255, 881.2494
2521.183, 884.4141
2523.112, 886.7558
2525.040, 885.9965
2526.969, 884.5090
2528.897, 883.9318
2530.825, 883.8917
2532.754, 884.3970
2534.682, 885.1043
2536.611, 885.4944
2538.539, 885.8570
2540.468, 886.3440
2542.396, 886.9553
2544.325, 887.6428
2546.253, 888.4212
2548.182, 889.6234
2550.110, 891.0457
2552.039, 892.4737
2553.967, 893.8284
2555.896, 894.5892
2557.824, 894.7963
2559.752, 893.4462
2561.681, 891.1405
2563.609, 891.1940
2565.538, 893.3132
2567.466, 895.3822
2569.395, 897.2693
2571.323, 898.0533
2573.252, 897.6542
2575.180, 897.3394
2577.109, 897.2813
2579.037, 895.8195
2580.966, 892.8302
2582.894, 892.2966
2584.823, 895.2440
2586.751, 897.4073
2588.679, 898.1175
2590.608, 898.8145
2592.536, 899.2735
2594.465, 899.9979
2596.393, 900.8342
2598.322, 902.1844
2600.250, 904.6309
2602.179, 905.2729
2604.107, 901.9904
2606.036, 899.8817
2607.964, 900.4108
2609.893, 900.9143
2611.821, 901.4625
2613.750, 901.4835
2615.678, 900.0588
2617.606, 900.1902
2619.535, 903.4268
2621.463, 906.8165
2623.392, 910.6662
2625.320, 912.2935
2627.249, 909.9847
2629.177, 907.4477
2631.106, 905.9285
2633.034, 904.4367
2634.963, 902.2700
2636.891, 900.9354
2638.820, 901.2234
2640.748, 902.2303
2642.677, 904.2808
2644.605, 905.6769
2646.533, 904.8835
2648.462, 904.6292
2650.390, 906.8480
2652.319, 909.0110
2654.247, 910.4299
2656.176, 910.7861
2658.104, 909.1428
2660.033, 907.5241
2661.961, 906.6268
2663.890, 906.3494
2665.818, 906.9553
2667.747, 907.6221
2669.675, 907.8271
2671.604, 908.0331
2673.532, 908.6343
2675.460, 909.2865
2677.389, 910.3608
2679.317, 910.7455
2681.246, 909.2943
2683.174, 907.6486
2685.103, 906.5082
2687.031, 905.9355
2688.960, 906.5627
2690.888, 907.0042
2692.817, 905.9861
2694.745, 905.1150
2696.674, 904.7767
2698.602, 905.8836
2700.531, 910.8076
2702.459, 915.1005
2704.387, 914.5978
2706.316, 913.6227
2708.244, 914.3441
2710.173, 915.8449
2712.101, 917.8839
2714.030, 919.8054
2715.958, 922.2112
2717.887, 923.1743
2719.815, 920.5350
2721.744, 917.8823
2723.672, 917.8097
2725.601, 918.0425
2727.529, 916.7549
2729.458, 916.1523
2731.386, 918.3862
2733.314, 920.2406
2735.243, 918.7516
2737.171, 917.8770
2739.100, 920.3238
2741.028, 922.5843
2742.957, 922.2995
2744.885, 922.2380
2746.814, 923.9629
2748.742, 925.9589
2750.671, 927.6386
2752.599, 929.0864
2754.528, 929.9554
2756.456, 931.0229
2758.385, 933.2689
2760.313, 934.6328
2762.241, 933.2172
2764.170, 932.5465
2766.098, 934.8545
2768.027, 935.7635
2769.955, 933.1517
2771.884, 931.1870
2773.812, 932.2322
2775.741, 933.0069
2777.669, 932.6695
2779.598, 932.5102
2781.526, 932.8763
2783.455, 933.2546
2785.383, 933.1750
2787.312, 933.5540
2789.240, 933.9587
2791.168, 935.5293
2793.097, 939.6293
2795.025, 940.3557
2796.954, 936.0634
2798.882, 933.5138
2800.811, 934.6180
2802.739, 935.4022
2804.668, 935.9925
2806.596, 935.0234
2808.525, 932.0647
2810.453, 930.8973
2812.382, 931.9544
2814.310, 932.6263
2816.239, 932.3953
2818.167, 933.2572
2820.095, 935.3871
2822.024, 936.5358
2823.952, 936.6774
2825.881, 937.4044
2827.809, 938.6398
2829.738, 938.9802
2831.666, 938.5421
2833.595, 938.6375
2835.523, 939.1623
2837.452, 938.8162
2839.380, 938.0184
2841.309, 937.9114
2843.237, 938.4853
2845.166, 940.0890
2847.094, 942.0338
2849.022, 942.4607
2850.951, 942.1519
2852.879, 942.6396
2854.808, 943.2599
2856.736, 942.7852
2858.665, 942.0739
2860.593, 942.3976
2862.522, 943.0336
2864.450, 943.5016
2866.379, 943.7062
2868.307, 943.4799
2870.236, 943.1850
2872.164, 942.8666
2874.093, 942.9011
2876.021, 943.6581
2877.949, 944.3319
2879.878, 944.4861
2881.806, 944.4338
2883.735, 944.2242
2885.663, 944.0757
2887.592, 944.0212
2889.520, 944.3770
2891.449, 945.4301
2893.377, 946.3764
2895.306, 946.2675
2897.234, 947.3998
2899.163, 950.5446
2901.091, 951.8124
2903.020, 950.4982
2904.948, 950.7159
2906.876, 953.5332
2908.805, 954.0580
2910.733, 951.8522
2912.662, 952.2175
2914.590, 954.7711
2916.519, 954.6367
2918.447, 952.4283
2920.376, 952.9218
2922.304, 955.3486
2924.233, 957.1893
2926.161, 958.4499
2928.090, 959.2101
2930.018, 959.5876
2931.947, 959.5660
2933.875, 959.6199
2935.803, 960.9008
2937.732, 962.1052
2939.660, 961.8650
2941.589, 961.1511
2943.517, 960.4294
2945.446, 959.7526
2947.374, 959.3276
2949.303, 958.6529
2951.231, 957.1000
2953.160, 956.3370
2955.088, 957.5970
2957.017, 958.5670
2958.945, 959.0351
2960.874, 958.0101
2962.802, 954.7864
2964.730, 953.1744
2966.659, 954.0906
2968.587, 954.6918
2970.516, 954.9748
2972.444, 954.4201
2974.373, 953.2231
2976.301, 953.3419
2978.230, 954.5531
2980.158, 955.2073
2982.087, 955.5038
2984.015, 956.4647
2985.944, 957.4996
2987.872, 956.9780
2989.801, 956.2901
2991.729, 957.6094
2993.657, 959.2007
2995.586, 959.0607
2997.514, 958.7474
2999.443, 959.3487
3001.371, 959.9717
3003.300, 960.2192
3005.228, 960.2775
3007.157, 960.0690
3009.085, 960.1459
3011.014, 960.8033
3012.942, 961.1077
3014.871, 960.4586
3016.799, 960.6409
3018.728, 961.8304
3020.656, 962.4970
3022.584, 962.5792
3024.513, 962.9936
3026.441, 963.6487
3028.370, 964.2665
3030.298, 964.5712
3032.227, 962.9650
3034.155, 961.0508
3036.084, 962.0811
3038.012, 963.8010
3039.941, 963.1044
3041.869, 962.1213
3043.798, 962.6824
3045.726, 963.1486
3047.655, 961.7037
3049.583, 961.4769
3051.511, 965.4076
3053.440, 966.8607
3055.368, 963.8073
3057.297, 961.6436
3059.225, 961.5925
3061.154, 962.1082
3063.082, 963.1151
3065.011, 964.4154
3066.939, 965.7910
3068.868, 965.8647
3070.796, 965.0657
3072.725, 965.5163
3074.653, 966.4225
3076.582, 965.9691
3078.510, 965.1503
3080.438, 965.0079
3082.367, 965.2361
3084.295, 965.4171
3086.224, 966.0594
3088.152, 967.5790
3090.081, 968.9812
3092.009, 969.4202
3093.938, 970.4826
3095.866, 972.5164
3097.795, 974.2825
3099.723, 975.5817
3101.652, 976.8981
3103.580, 978.2540
3105.509, 978.3903
3107.437, 977.5779
3109.365, 976.5610
3111.294, 976.0162
3113.222, 978.1388
3115.151, 980.7122
3117.079, 979.6104
3119.008, 978.9631
3120.936, 982.5442
3122.865, 986.2566
3124.793, 987.6210
3126.722, 988.7921
3128.650, 990.2422
3130.579, 991.0236
3132.507, 990.5463
3134.436, 991.2112
3136.364, 993.5079
3138.292, 992.2672
3140.221, 988.5554
3142.149, 989.1804
3144.078, 992.2993
3146.006, 992.4242
3147.935, 991.3877
3149.863, 990.9852
3151.792, 991.7108
3153.720, 994.0297
3155.649, 997.1920
3157.577, 1001.195
3159.506, 1004.609
3161.434, 1007.642
3163.363, 1007.782
3165.291, 1003.144
3167.219, 1000.888
3169.148, 1001.211
3171.076, 1001.189
3173.005, 1001.024
3174.933, 1001.598
3176.862, 1003.001
3178.790, 1006.282
3180.719, 1009.234
3182.647, 1008.503
3184.576, 1007.496
3186.504, 1008.840
3188.433, 1010.219
3190.361, 1011.051
3192.290, 1011.716
3194.218, 1012.619
3196.146, 1013.133
3198.075, 1013.310
3200.003, 1016.074
3201.932, 1020.624
3203.860, 1020.106
3205.789, 1016.810
3207.717, 1015.987
3209.646, 1017.102
3211.574, 1020.640
3213.503, 1024.159
3215.431, 1026.863
3217.360, 1027.301
3219.288, 1023.926
3221.217, 1022.067
3223.145, 1024.492
3225.073, 1024.822
3227.002, 1022.989
3228.930, 1021.618
3230.859, 1020.828
3232.787, 1020.785
3234.716, 1021.187
3236.644, 1021.233
3238.573, 1021.674
3240.501, 1023.899
3242.430, 1025.664
3244.358, 1024.996
3246.287, 1024.648
3248.215, 1024.798
3250.144, 1026.824
3252.072, 1032.013
3254.000, 1032.434
3255.929, 1028.921
3257.857, 1029.251
3259.786, 1031.515
3261.714, 1031.150
3263.643, 1029.902
3265.571, 1030.311
3267.500, 1030.319
3269.428, 1027.904
3271.357, 1026.481
3273.285, 1027.225
3275.214, 1028.192
3277.142, 1029.159
3279.071, 1028.498
3280.999, 1026.284
3282.927, 1025.000
3284.856, 1024.782
3286.784, 1026.566
3288.713, 1028.772
3290.641, 1029.876
3292.570, 1030.209
3294.498, 1029.696
3296.427, 1029.006
3298.355, 1027.225
3300.284, 1027.699
3302.212, 1030.521
3304.141, 1033.202
3306.069, 1035.314
3307.998, 1035.188
3309.926, 1033.773
3311.854, 1032.622
3313.783, 1031.765
3315.711, 1031.383
3317.640, 1031.048
3319.568, 1030.022
3321.497, 1030.731
3323.425, 1034.473
3325.354, 1036.803
3327.282, 1037.527
3329.211, 1037.541
3331.139, 1037.366
3333.068, 1038.847
3334.996, 1040.522
3336.925, 1040.107
3338.853, 1039.622
3340.781, 1040.396
3342.710, 1041.562
3344.638, 1043.441
3346.567, 1044.610
3348.495, 1045.042
3350.424, 1046.263
3352.352, 1048.155
3354.281, 1050.614
3356.209, 1053.124
3358.138, 1055.885
3360.066, 1057.138
3361.995, 1053.904
3363.923, 1052.327
3365.852, 1054.811
3367.780, 1056.941
3369.708, 1058.113
3371.637, 1059.490
3373.565, 1061.059
3375.494, 1063.205
3377.422, 1064.937
3379.351, 1063.861
3381.279, 1062.703
3383.208, 1063.247
3385.136, 1064.304
3387.065, 1065.804
3388.993, 1067.177
3390.922, 1068.438
3392.850, 1070.274
3394.779, 1072.228
3396.707, 1071.431
3398.635, 1070.315
3400.564, 1072.280
3402.492, 1074.824
3404.421, 1076.411
3406.349, 1078.394
3408.278, 1081.608
3410.206, 1081.470
3412.135, 1077.464
3414.063, 1076.329
3415.992, 1077.154
3417.920, 1078.063
3419.849, 1078.902
3421.777, 1079.717
3423.706, 1080.269
3425.634, 1080.057
3427.563, 1080.612
3429.491, 1082.057
3431.419, 1084.149
3433.348, 1086.190
3435.276, 1084.990
3437.205, 1082.388
3439.133, 1081.783
3441.062, 1081.705
3442.990, 1081.174
3444.919, 1081.464
3446.847, 1083.282
3448.776, 1084.264
3450.704, 1084.084
3452.633, 1082.843
3454.561, 1081.109
3456.490, 1081.031
3458.418, 1081.086
3460.346, 1079.836
3462.275, 1078.439
3464.203, 1077.545
3466.132, 1075.879
3468.060, 1073.088
3469.989, 1071.064
3471.917, 1069.894
3473.846, 1070.765
3475.774, 1071.370
3477.703, 1067.227
3479.631, 1064.567
3481.560, 1067.080
3483.488, 1068.204
3485.417, 1065.751
3487.345, 1065.408
3489.273, 1066.394
3491.202, 1064.122
3493.130, 1061.116
3495.059, 1061.462
3496.987, 1062.093
3498.916, 1061.462
3500.844, 1059.943
3502.773, 1057.301
3504.701, 1055.666
3506.630, 1055.021
3508.558, 1054.859
3510.487, 1054.382
3512.415, 1052.049
3514.344, 1049.474
3516.272, 1047.060
3518.200, 1045.910
3520.129, 1046.149
3522.057, 1046.381
3523.986, 1046.449
3525.914, 1046.921
3527.843, 1047.248
3529.771, 1047.081
3531.700, 1046.040
3533.628, 1043.163
3535.557, 1041.239
3537.485, 1040.715
3539.414, 1040.339
3541.342, 1039.716
3543.271, 1036.979
3545.199, 1033.697
3547.127, 1031.412
3549.056, 1030.171
3550.984, 1030.540
3552.913, 1029.667
3554.841, 1026.675
3556.770, 1026.050
3558.698, 1026.336
3560.627, 1022.894
3562.555, 1019.250
3564.484, 1019.560
3566.412, 1019.857
3568.341, 1019.462
3570.269, 1017.119
3572.198, 1012.937
3574.126, 1010.729
3576.054, 1009.262
3577.983, 1005.768
3579.911, 1002.815
3581.840, 1002.973
3583.768, 1000.878
3585.697, 994.3912
3587.625, 988.9797
3589.554, 984.9507
3591.482, 982.9945
3593.411, 981.9408
3595.339, 980.0528
3597.268, 978.6846
3599.196, 978.7081
3601.125, 977.8488
3603.053, 975.9041
3604.981, 973.3693
3606.910, 970.4451
3608.838, 967.2090
3610.767, 964.3033
3612.695, 962.4831
3614.624, 960.2975
3616.552, 957.3174
3618.481, 954.2925
3620.409, 951.5655
3622.338, 951.1724
3624.266, 950.7173
3626.195, 947.3807
3628.123, 943.7107
3630.052, 940.5076
3631.980, 938.3111
3633.908, 936.9543
3635.837, 934.4808
3637.765, 931.2092
3639.694, 926.8164
3641.622, 923.2486
3643.551, 922.6738
3645.479, 920.4984
3647.408, 916.4053
3649.336, 913.1000
3651.265, 911.4589
3653.193, 916.9827
3655.122, 919.6511
3657.050, 908.3420
3658.979, 900.8554
3660.907, 900.6838
3662.835, 897.8467
3664.764, 893.0989
3666.692, 891.3765
3668.621, 890.4664
3670.549, 887.2156
3672.478, 886.5068
3674.406, 890.8307
3676.335, 889.8076
3678.263, 884.3711
3680.192, 883.6282
3682.120, 884.8123
3684.049, 885.7712
3685.977, 885.0625
3687.906, 880.9685
3689.834, 879.6078
3691.762, 880.5573
3693.691, 877.7575
3695.619, 874.2386
3697.548, 874.8377
3699.476, 875.2676
3701.405, 872.9396
3703.333, 872.2154
3705.262, 873.0207
3707.190, 873.3666
3709.119, 873.0928
3711.047, 871.3344
3712.976, 870.3453
3714.904, 872.4316
3716.833, 872.6478
3718.761, 870.9856
3720.689, 868.3622
3722.618, 866.2623
3724.546, 867.7751
3726.475, 868.9427
3728.403, 867.5637
3730.332, 866.1284
3732.260, 864.9841
3734.189, 866.3890
3736.117, 867.7798
3738.046, 864.0605
3739.974, 861.4021
3741.903, 863.5590
3743.831, 864.3167
3745.760, 863.5963
3747.688, 862.0872
3749.616, 860.9260
3751.545, 862.2433
3753.473, 863.0297
3755.402, 861.0096
3757.330, 862.1373
3759.259, 865.1402
3761.187, 862.6247
3763.116, 859.6996
3765.044, 862.9183
3766.973, 864.8271
3768.901, 861.8958
3770.830, 860.8889
3772.758, 861.3967
3774.687, 862.5086
3776.615, 863.3354
3778.543, 863.2572
3780.472, 862.2917
3782.400, 860.0991
3784.329, 860.3300
3786.257, 861.3333
3788.186, 858.7042
3790.114, 856.3636
3792.043, 856.7235
3793.971, 857.1944
3795.900, 857.3210
3797.828, 856.4221
3799.757, 854.9722
3801.685, 853.1010
3803.614, 852.5017
3805.542, 854.1596
3807.470, 853.9584
3809.399, 851.9232
3811.327, 850.9281
3813.256, 850.5579
3815.184, 850.8956
3817.113, 850.6737
3819.041, 849.6277
3820.970, 848.9852
3822.898, 848.5361
3824.827, 847.1943
3826.755, 845.8333
3828.684, 845.1825
3830.612, 844.0765
3832.541, 842.5806
3834.469, 843.6007
3836.397, 845.4844
3838.326, 845.6656
3840.254, 845.3047
3842.183, 844.6708
3844.111, 843.8974
3846.040, 842.9399
3847.968, 841.0770
3849.897, 840.0878
3851.825, 842.1920
3853.754, 843.2114
3855.682, 842.4431
3857.611, 840.8436
3859.539, 838.8365
3861.468, 836.6266
3863.396, 835.2654
3865.324, 835.3268
3867.253, 836.0104
3869.181, 836.9440
3871.110, 836.4877
3873.038, 835.6759
3874.967, 835.2062
3876.895, 835.3820
3878.824, 836.4620
3880.752, 836.3450
3882.681, 835.1820
3884.609, 832.4268
3886.538, 830.9832
3888.466, 832.1683
3890.395, 832.5881
3892.323, 832.3949
3894.251, 834.9133
3896.180, 836.7831
3898.108, 834.1419
3900.037, 832.8684
3901.965, 833.6323
3903.894, 833.4827
3905.822, 832.8083
3907.751, 831.9628
3909.679, 831.5927
3911.608, 831.8762
3913.536, 832.9753
3915.465, 834.1701
3917.393, 833.7040
3919.322, 832.0157
3921.250, 828.7342
3923.178, 826.4848
3925.107, 825.6906
3927.035, 829.0645
3928.964, 832.2109
3930.892, 829.9584
3932.821, 828.3641
3934.749, 828.8456
3936.678, 828.7742
3938.606, 828.4950
3940.535, 828.8765
3942.463, 828.5558
3944.392, 827.0566
3946.320, 826.9388
3948.249, 827.5870
3950.177, 825.8416
3952.105, 824.9747
3954.034, 827.3366
3955.962, 829.1614
3957.891, 830.0596
3959.819, 830.3603
3961.748, 830.3422
3963.676, 830.7110
3965.605, 830.3416
3967.533, 829.2910
3969.462, 826.6659
3971.390, 824.1196
3973.319, 823.3699
3975.247, 823.7123
3977.176, 824.9495
3979.104, 826.9335
3981.032, 828.5154
3982.961, 827.6832
3984.889, 826.1441
3986.818, 824.4133
3988.746, 824.7070
3990.675, 825.8844
3992.603, 824.0591
3994.532, 822.8060
3996.460, 824.2235
3998.389, 824.2031
4000.317, 822.8343
4002.246, 821.2026
4004.174, 820.2406
4006.103, 821.2156
4008.031, 821.0228
4009.959, 819.6390
4011.888, 817.7146
4013.816, 816.4137
4015.745, 816.7651
4017.673, 817.4973
4019.602, 818.3585
4021.530, 816.4161
4023.459, 814.5318
4025.387, 816.3087
4027.316, 816.5303
4029.244, 814.4149
4031.173, 815.4097
4033.101, 816.3635
4035.030, 813.4547
4036.958, 810.0974
4038.886, 807.2432
4040.815, 809.1821
4042.743, 812.0195
4044.672, 810.6124
4046.600, 808.6761
4048.529, 806.9252
4050.457, 808.2332
4052.386, 810.1578
4054.314, 808.5388
4056.243, 807.9216
4058.171, 809.8096
4060.100, 809.0867
4062.028, 807.6961
4063.957, 809.1637
4065.885, 809.0922
4067.813, 806.4853
4069.742, 806.2835
4071.670, 807.1202
4073.599, 806.6019
4075.527, 806.2322
4077.456, 806.3870
4079.384, 806.6299
4081.313, 806.3545
4083.241, 803.7056
4085.170, 802.5963
4087.098, 804.7473
4089.027, 801.8817
4090.955, 798.5175
4092.884, 802.6559
4094.812, 804.9167
4096.740, 802.9932
4098.669, 801.6549
4100.598, 800.3314
4102.526, 797.1881
4104.454, 796.8732
4106.383, 799.9408
4108.312, 800.4375
4110.240, 798.6406
4112.168, 793.1566
4114.097, 792.1932
4116.025, 797.1407
4117.954, 797.2358
4119.882, 795.8798
4121.811, 796.3253
4123.739, 797.6064
4125.667, 799.3914
4127.596, 798.2064
4129.524, 796.1774
4131.453, 794.5554
4133.381, 794.8834
4135.310, 796.4386
4137.238, 793.9034
4139.167, 790.8470
4141.095, 789.4182
4143.023, 790.5416
4144.952, 793.0648
4146.881, 792.0062
4148.809, 791.3503
4150.737, 793.4134
4152.666, 792.6435
4154.595, 790.4020
4156.523, 792.8021
4158.451, 793.6829
4160.380, 790.3517
4162.309, 788.6437
4164.237, 788.2057
4166.165, 788.3506
4168.094, 787.8544
4170.022, 785.9717
4171.951, 788.4579
4173.879, 791.1752
4175.808, 786.9277
4177.736, 784.1037
4179.665, 784.1675
4181.593, 785.1840
4183.521, 785.4507
4185.450, 782.7159
4187.378, 780.9244
4189.307, 780.6168
4191.235, 782.1796
4193.164, 783.1016
4195.092, 781.2615
4197.021, 780.5231
4198.949, 780.7200
4200.878, 781.3575
4202.806, 781.0312
4204.734, 779.2502
4206.663, 777.6224
4208.592, 776.0651
4210.520, 774.1276
4212.448, 772.7284
4214.377, 772.1277
4216.306, 773.6215
4218.234, 774.3954
4220.162, 770.9333
4222.091, 769.7347
4224.020, 770.9471
4225.948, 770.9337
4227.876, 770.6260
4229.805, 770.6186
4231.733, 770.1794
4233.662, 770.0475
4235.590, 772.9304
4237.519, 775.1309
##END=



