##NAMES=Creaseyite
##RRUFFID=R140557
##IDEAL CHEMISTRY=Cu_2_Pb_2_Fe^3+^_2_Si_5_O_17_·6H_2_O
##LOCALITY=Evening Star mine, Tiger Wash, Belmont Mountain, Tonopah, Osborn District, Big Horn Mts, Maricopa County, Arizona, USA
##OWNER=RRUFF
##SOURCE=Ron Gibbs
##DESCRIPTION=Radiating aggregate of acicular pale-green crystals, associated with prismatic yellow hedyphane.
##STATUS=The identification of this mineral has been confirmed by single-crystal X-ray diffraction
##URL=https://www.rruff.net/odr/rruff_sample/R140557
##DIFFRACTION SAMPLE DESCRIPTION=Single crystal, powder profile is calculated
##CELL PARAMETERS=a: 12.518 b: 21.46 c: 7.29 alpha: 90 beta: 90 gamma: 90 volume: 1958.3 crystal system: orthorhombic
##FILETYPE=Raman RAW
##RAMAN WAVELENGTH=780

9.059570e+001, 1.990500e+003
9.107782e+001, 1.980039e+003
9.155994e+001, 1.976416e+003
9.204205e+001, 1.981098e+003
9.252417e+001, 1.991809e+003
9.300629e+001, 2.009303e+003
9.348840e+001, 2.022528e+003
9.397052e+001, 2.016733e+003
9.445264e+001, 1.984748e+003
9.493475e+001, 1.952567e+003
9.541687e+001, 1.923451e+003
9.589898e+001, 1.898753e+003
9.638110e+001, 1.877732e+003
9.686321e+001, 1.860610e+003
9.734533e+001, 1.846249e+003
9.782745e+001, 1.829543e+003
9.830956e+001, 1.810344e+003
9.879168e+001, 1.788727e+003
9.927380e+001, 1.766287e+003
9.975591e+001, 1.743089e+003
1.002380e+002, 1.718895e+003
1.007201e+002, 1.693676e+003
1.012023e+002, 1.667385e+003
1.016844e+002, 1.639589e+003
1.021665e+002, 1.610369e+003
1.026486e+002, 1.577791e+003
1.031307e+002, 1.544644e+003
1.036128e+002, 1.512955e+003
1.040950e+002, 1.482130e+003
1.045771e+002, 1.454241e+003
1.050592e+002, 1.430523e+003
1.055413e+002, 1.410009e+003
1.060234e+002, 1.392201e+003
1.065055e+002, 1.376889e+003
1.069877e+002, 1.363956e+003
1.074698e+002, 1.353184e+003
1.079519e+002, 1.345939e+003
1.084340e+002, 1.339187e+003
1.089161e+002, 1.332747e+003
1.093982e+002, 1.325856e+003
1.098804e+002, 1.317024e+003
1.103625e+002, 1.304456e+003
1.108446e+002, 1.287353e+003
1.113267e+002, 1.270799e+003
1.118088e+002, 1.253071e+003
1.122909e+002, 1.237085e+003
1.127731e+002, 1.224456e+003
1.132552e+002, 1.215333e+003
1.137373e+002, 1.208538e+003
1.142194e+002, 1.202543e+003
1.147015e+002, 1.197507e+003
1.151836e+002, 1.193081e+003
1.156658e+002, 1.190510e+003
1.161479e+002, 1.187956e+003
1.166300e+002, 1.183277e+003
1.171121e+002, 1.175606e+003
1.175942e+002, 1.166365e+003
1.180763e+002, 1.158892e+003
1.185584e+002, 1.153129e+003
1.190406e+002, 1.148551e+003
1.195227e+002, 1.145291e+003
1.200048e+002, 1.143152e+003
1.204869e+002, 1.141687e+003
1.209690e+002, 1.141076e+003
1.214511e+002, 1.140742e+003
1.219333e+002, 1.139463e+003
1.224154e+002, 1.136668e+003
1.228975e+002, 1.133886e+003
1.233796e+002, 1.132958e+003
1.238617e+002, 1.134197e+003
1.243438e+002, 1.134538e+003
1.248260e+002, 1.132203e+003
1.253081e+002, 1.128283e+003
1.257902e+002, 1.123311e+003
1.262723e+002, 1.117161e+003
1.267544e+002, 1.110483e+003
1.272365e+002, 1.104868e+003
1.277187e+002, 1.100891e+003
1.282008e+002, 1.097070e+003
1.286829e+002, 1.093068e+003
1.291650e+002, 1.088884e+003
1.296471e+002, 1.084575e+003
1.301292e+002, 1.080212e+003
1.306114e+002, 1.075770e+003
1.310935e+002, 1.070815e+003
1.315756e+002, 1.063472e+003
1.320577e+002, 1.057400e+003
1.325398e+002, 1.054452e+003
1.330219e+002, 1.053721e+003
1.335041e+002, 1.052908e+003
1.339862e+002, 1.049860e+003
1.344683e+002, 1.043971e+003
1.349504e+002, 1.039869e+003
1.354325e+002, 1.038622e+003
1.359146e+002, 1.037917e+003
1.363968e+002, 1.036118e+003
1.368789e+002, 1.033196e+003
1.373610e+002, 1.030682e+003
1.378431e+002, 1.030701e+003
1.383252e+002, 1.034054e+003
1.388073e+002, 1.035640e+003
1.392895e+002, 1.034731e+003
1.397716e+002, 1.032096e+003
1.402537e+002, 1.028696e+003
1.407358e+002, 1.024838e+003
1.412179e+002, 1.019849e+003
1.417000e+002, 1.012446e+003
1.421821e+002, 1.002915e+003
1.426643e+002, 9.928886e+002
1.431464e+002, 9.825331e+002
1.436285e+002, 9.721033e+002
1.441106e+002, 9.623610e+002
1.445927e+002, 9.531653e+002
1.450748e+002, 9.452768e+002
1.455570e+002, 9.392441e+002
1.460391e+002, 9.350729e+002
1.465212e+002, 9.316423e+002
1.470033e+002, 9.280642e+002
1.474854e+002, 9.242929e+002
1.479675e+002, 9.207686e+002
1.484497e+002, 9.180392e+002
1.489318e+002, 9.152545e+002
1.494139e+002, 9.118099e+002
1.498960e+002, 9.076224e+002
1.503781e+002, 9.031926e+002
1.508602e+002, 8.993687e+002
1.513424e+002, 8.965502e+002
1.518245e+002, 8.933950e+002
1.523066e+002, 8.898694e+002
1.527887e+002, 8.859805e+002
1.532708e+002, 8.816307e+002
1.537529e+002, 8.768196e+002
1.542351e+002, 8.716918e+002
1.547172e+002, 8.666086e+002
1.551993e+002, 8.613325e+002
1.556814e+002, 8.564575e+002
1.561635e+002, 8.527520e+002
1.566456e+002, 8.492397e+002
1.571278e+002, 8.445792e+002
1.576099e+002, 8.380255e+002
1.580920e+002, 8.301922e+002
1.585741e+002, 8.237362e+002
1.590562e+002, 8.192963e+002
1.595383e+002, 8.152595e+002
1.600205e+002, 8.113586e+002
1.605026e+002, 8.075987e+002
1.609847e+002, 8.040231e+002
1.614668e+002, 8.007057e+002
1.619489e+002, 7.975920e+002
1.624310e+002, 7.944714e+002
1.629131e+002, 7.912820e+002
1.633953e+002, 7.881540e+002
1.638774e+002, 7.852932e+002
1.643595e+002, 7.826562e+002
1.648416e+002, 7.798278e+002
1.653237e+002, 7.762961e+002
1.658058e+002, 7.724612e+002
1.662880e+002, 7.692332e+002
1.667701e+002, 7.669666e+002
1.672522e+002, 7.651238e+002
1.677343e+002, 7.631619e+002
1.682164e+002, 7.610760e+002
1.686985e+002, 7.589083e+002
1.691807e+002, 7.565703e+002
1.696628e+002, 7.542004e+002
1.701449e+002, 7.520013e+002
1.706270e+002, 7.502404e+002
1.711091e+002, 7.485948e+002
1.715912e+002, 7.462119e+002
1.720734e+002, 7.425602e+002
1.725555e+002, 7.391457e+002
1.730376e+002, 7.365231e+002
1.735197e+002, 7.344484e+002
1.740018e+002, 7.326094e+002
1.744839e+002, 7.309142e+002
1.749661e+002, 7.293049e+002
1.754482e+002, 7.274041e+002
1.759303e+002, 7.246002e+002
1.764124e+002, 7.222171e+002
1.768945e+002, 7.207937e+002
1.773766e+002, 7.200243e+002
1.778588e+002, 7.193329e+002
1.783409e+002, 7.182370e+002
1.788230e+002, 7.167263e+002
1.793051e+002, 7.159974e+002
1.797872e+002, 7.172006e+002
1.802693e+002, 7.180505e+002
1.807515e+002, 7.175436e+002
1.812336e+002, 7.160370e+002
1.817157e+002, 7.145717e+002
1.821978e+002, 7.140627e+002
1.826799e+002, 7.146420e+002
1.831620e+002, 7.148823e+002
1.836441e+002, 7.143024e+002
1.841263e+002, 7.138743e+002
1.846084e+002, 7.142014e+002
1.850905e+002, 7.152109e+002
1.855726e+002, 7.162980e+002
1.860547e+002, 7.168136e+002
1.865368e+002, 7.166263e+002
1.870190e+002, 7.173445e+002
1.875011e+002, 7.193030e+002
1.879832e+002, 7.218703e+002
1.884653e+002, 7.245743e+002
1.889474e+002, 7.273593e+002
1.894296e+002, 7.305416e+002
1.899117e+002, 7.346513e+002
1.903938e+002, 7.396443e+002
1.908759e+002, 7.442094e+002
1.913580e+002, 7.470941e+002
1.918401e+002, 7.499749e+002
1.923223e+002, 7.549996e+002
1.928044e+002, 7.626636e+002
1.932865e+002, 7.711998e+002
1.937686e+002, 7.790494e+002
1.942507e+002, 7.864272e+002
1.947328e+002, 7.939333e+002
1.952150e+002, 8.023834e+002
1.956971e+002, 8.110065e+002
1.961792e+002, 8.185957e+002
1.966613e+002, 8.255191e+002
1.971434e+002, 8.301978e+002
1.976255e+002, 8.312815e+002
1.981077e+002, 8.294720e+002
1.985898e+002, 8.261571e+002
1.990719e+002, 8.219099e+002
1.995540e+002, 8.166940e+002
2.000361e+002, 8.103738e+002
2.005182e+002, 8.026465e+002
2.010004e+002, 7.940522e+002
2.014825e+002, 7.846657e+002
2.019646e+002, 7.747649e+002
2.024467e+002, 7.651071e+002
2.029288e+002, 7.562186e+002
2.034109e+002, 7.480557e+002
2.038930e+002, 7.401387e+002
2.043752e+002, 7.322512e+002
2.048573e+002, 7.249596e+002
2.053394e+002, 7.186257e+002
2.058215e+002, 7.130975e+002
2.063036e+002, 7.079523e+002
2.067857e+002, 7.028912e+002
2.072679e+002, 6.979055e+002
2.077500e+002, 6.931896e+002
2.082321e+002, 6.880925e+002
2.087142e+002, 6.838945e+002
2.091963e+002, 6.814182e+002
2.096784e+002, 6.803075e+002
2.101606e+002, 6.795978e+002
2.106427e+002, 6.784330e+002
2.111248e+002, 6.767371e+002
2.116069e+002, 6.753125e+002
2.120890e+002, 6.744651e+002
2.125711e+002, 6.735792e+002
2.130533e+002, 6.725106e+002
2.135354e+002, 6.712014e+002
2.140175e+002, 6.695709e+002
2.144996e+002, 6.675164e+002
2.149817e+002, 6.649635e+002
2.154638e+002, 6.624631e+002
2.159460e+002, 6.600579e+002
2.164281e+002, 6.576520e+002
2.169102e+002, 6.551591e+002
2.173923e+002, 6.526061e+002
2.178744e+002, 6.500648e+002
2.183565e+002, 6.476065e+002
2.188387e+002, 6.452382e+002
2.193208e+002, 6.429860e+002
2.198029e+002, 6.404501e+002
2.202850e+002, 6.383153e+002
2.207671e+002, 6.372814e+002
2.212492e+002, 6.372363e+002
2.217314e+002, 6.371954e+002
2.222135e+002, 6.362624e+002
2.226956e+002, 6.343616e+002
2.231777e+002, 6.328365e+002
2.236598e+002, 6.316579e+002
2.241419e+002, 6.308596e+002
2.246240e+002, 6.306029e+002
2.251062e+002, 6.308653e+002
2.255883e+002, 6.312525e+002
2.260704e+002, 6.315148e+002
2.265525e+002, 6.316303e+002
2.270346e+002, 6.315643e+002
2.275167e+002, 6.305858e+002
2.279989e+002, 6.298802e+002
2.284810e+002, 6.307667e+002
2.289631e+002, 6.333401e+002
2.294452e+002, 6.362634e+002
2.299273e+002, 6.386539e+002
2.304094e+002, 6.406375e+002
2.308916e+002, 6.425846e+002
2.313737e+002, 6.447034e+002
2.318558e+002, 6.467194e+002
2.323379e+002, 6.482332e+002
2.328200e+002, 6.491771e+002
2.333021e+002, 6.500925e+002
2.337843e+002, 6.516277e+002
2.342664e+002, 6.532988e+002
2.347485e+002, 6.543093e+002
2.352306e+002, 6.542798e+002
2.357127e+002, 6.536533e+002
2.361948e+002, 6.529729e+002
2.366770e+002, 6.522245e+002
2.371591e+002, 6.514636e+002
2.376412e+002, 6.509124e+002
2.381233e+002, 6.503029e+002
2.386054e+002, 6.492640e+002
2.390875e+002, 6.475737e+002
2.395697e+002, 6.455616e+002
2.400518e+002, 6.436953e+002
2.405339e+002, 6.419220e+002
2.410160e+002, 6.404554e+002
2.414981e+002, 6.396690e+002
2.419802e+002, 6.390920e+002
2.424624e+002, 6.382813e+002
2.429445e+002, 6.370719e+002
2.434266e+002, 6.356198e+002
2.439087e+002, 6.341358e+002
2.443908e+002, 6.325315e+002
2.448729e+002, 6.311476e+002
2.453550e+002, 6.301717e+002
2.458372e+002, 6.293859e+002
2.463193e+002, 6.285595e+002
2.468014e+002, 6.275993e+002
2.472835e+002, 6.267377e+002
2.477656e+002, 6.265473e+002
2.482477e+002, 6.276682e+002
2.487299e+002, 6.278732e+002
2.492120e+002, 6.262641e+002
2.496941e+002, 6.240212e+002
2.501762e+002, 6.220250e+002
2.506583e+002, 6.205411e+002
2.511404e+002, 6.192433e+002
2.516226e+002, 6.175801e+002
2.521047e+002, 6.154797e+002
2.525868e+002, 6.131688e+002
2.530689e+002, 6.104164e+002
2.535510e+002, 6.076660e+002
2.540331e+002, 6.054163e+002
2.545153e+002, 6.037238e+002
2.549974e+002, 6.019860e+002
2.554795e+002, 5.991483e+002
2.559616e+002, 5.944307e+002
2.564437e+002, 5.903152e+002
2.569258e+002, 5.868366e+002
2.574080e+002, 5.838552e+002
2.578901e+002, 5.813500e+002
2.583722e+002, 5.792841e+002
2.588543e+002, 5.775107e+002
2.593364e+002, 5.758330e+002
2.598185e+002, 5.742037e+002
2.603007e+002, 5.728165e+002
2.607828e+002, 5.717339e+002
2.612649e+002, 5.707750e+002
2.617470e+002, 5.699922e+002
2.622291e+002, 5.692963e+002
2.627112e+002, 5.683748e+002
2.631934e+002, 5.668049e+002
2.636755e+002, 5.642924e+002
2.641576e+002, 5.621978e+002
2.646397e+002, 5.607947e+002
2.651218e+002, 5.594961e+002
2.656039e+002, 5.581002e+002
2.660861e+002, 5.565358e+002
2.665682e+002, 5.546992e+002
2.670503e+002, 5.524212e+002
2.675324e+002, 5.495590e+002
2.680145e+002, 5.472548e+002
2.684966e+002, 5.461332e+002
2.689788e+002, 5.448879e+002
2.694609e+002, 5.427532e+002
2.699430e+002, 5.398680e+002
2.704251e+002, 5.369391e+002
2.709072e+002, 5.345847e+002
2.713893e+002, 5.328583e+002
2.718715e+002, 5.305107e+002
2.723536e+002, 5.266550e+002
2.728357e+002, 5.231832e+002
2.733178e+002, 5.210604e+002
2.737999e+002, 5.200204e+002
2.742820e+002, 5.192643e+002
2.747642e+002, 5.182847e+002
2.752463e+002, 5.170968e+002
2.757284e+002, 5.159047e+002
2.762105e+002, 5.145159e+002
2.766926e+002, 5.133186e+002
2.771747e+002, 5.125418e+002
2.776568e+002, 5.120519e+002
2.781389e+002, 5.115711e+002
2.786211e+002, 5.109588e+002
2.791032e+002, 5.102268e+002
2.795853e+002, 5.094050e+002
2.800674e+002, 5.083074e+002
2.805495e+002, 5.073516e+002
2.810316e+002, 5.068161e+002
2.815138e+002, 5.064740e+002
2.819959e+002, 5.058507e+002
2.824780e+002, 5.046940e+002
2.829601e+002, 5.033055e+002
2.834422e+002, 5.025481e+002
2.839243e+002, 5.029001e+002
2.844065e+002, 5.028859e+002
2.848886e+002, 5.019351e+002
2.853707e+002, 5.005112e+002
2.858528e+002, 4.992291e+002
2.863349e+002, 4.982690e+002
2.868170e+002, 4.976308e+002
2.872992e+002, 4.974170e+002
2.877813e+002, 4.978294e+002
2.882634e+002, 4.979489e+002
2.887455e+002, 4.970475e+002
2.892276e+002, 4.960123e+002
2.897097e+002, 4.961688e+002
2.901919e+002, 4.978589e+002
2.906740e+002, 4.998443e+002
2.911561e+002, 5.005419e+002
2.916382e+002, 4.997493e+002
2.921203e+002, 4.991846e+002
2.926024e+002, 4.991478e+002
2.930846e+002, 4.993350e+002
2.935667e+002, 4.995675e+002
2.940488e+002, 4.998116e+002
2.945309e+002, 4.998115e+002
2.950130e+002, 4.992207e+002
2.954951e+002, 4.980303e+002
2.959773e+002, 4.971466e+002
2.964594e+002, 4.968800e+002
2.969415e+002, 4.967254e+002
2.974236e+002, 4.963398e+002
2.979057e+002, 4.957039e+002
2.983878e+002, 4.948271e+002
2.988700e+002, 4.935365e+002
2.993521e+002, 4.920060e+002
2.998342e+002, 4.911712e+002
3.003163e+002, 4.917006e+002
3.007984e+002, 4.923051e+002
3.012805e+002, 4.922939e+002
3.017627e+002, 4.917216e+002
3.022448e+002, 4.908441e+002
3.027269e+002, 4.896982e+002
3.032090e+002, 4.883975e+002
3.036911e+002, 4.872924e+002
3.041732e+002, 4.865411e+002
3.046554e+002, 4.857098e+002
3.051375e+002, 4.845168e+002
3.056196e+002, 4.830929e+002
3.061017e+002, 4.817537e+002
3.065838e+002, 4.805989e+002
3.070659e+002, 4.796288e+002
3.075481e+002, 4.788904e+002
3.080302e+002, 4.784171e+002
3.085123e+002, 4.779723e+002
3.089944e+002, 4.775042e+002
3.094765e+002, 4.770126e+002
3.099586e+002, 4.764556e+002
3.104408e+002, 4.757916e+002
3.109229e+002, 4.751978e+002
3.114050e+002, 4.749059e+002
3.118871e+002, 4.748903e+002
3.123692e+002, 4.751509e+002
3.128513e+002, 4.760005e+002
3.133335e+002, 4.769802e+002
3.138156e+002, 4.774961e+002
3.142977e+002, 4.774478e+002
3.147798e+002, 4.772549e+002
3.152619e+002, 4.772770e+002
3.157440e+002, 4.775063e+002
3.162262e+002, 4.777525e+002
3.167083e+002, 4.779194e+002
3.171904e+002, 4.781536e+002
3.176725e+002, 4.785465e+002
3.181546e+002, 4.791078e+002
3.186367e+002, 4.799217e+002
3.191188e+002, 4.812760e+002
3.196010e+002, 4.828878e+002
3.200831e+002, 4.835904e+002
3.205652e+002, 4.826204e+002
3.210473e+002, 4.815367e+002
3.215294e+002, 4.815980e+002
3.220115e+002, 4.823646e+002
3.224937e+002, 4.821601e+002
3.229758e+002, 4.799844e+002
3.234579e+002, 4.766187e+002
3.239400e+002, 4.741224e+002
3.244221e+002, 4.727710e+002
3.249042e+002, 4.714867e+002
3.253864e+002, 4.698752e+002
3.258685e+002, 4.680733e+002
3.263506e+002, 4.663369e+002
3.268327e+002, 4.647573e+002
3.273148e+002, 4.632167e+002
3.277969e+002, 4.615184e+002
3.282791e+002, 4.596523e+002
3.287612e+002, 4.577544e+002
3.292433e+002, 4.555035e+002
3.297254e+002, 4.534007e+002
3.302075e+002, 4.522728e+002
3.306896e+002, 4.522629e+002
3.311718e+002, 4.523010e+002
3.316539e+002, 4.512565e+002
3.321360e+002, 4.490218e+002
3.326181e+002, 4.470048e+002
3.331002e+002, 4.451991e+002
3.335823e+002, 4.436731e+002
3.340645e+002, 4.424698e+002
3.345466e+002, 4.415961e+002
3.350287e+002, 4.410841e+002
3.355108e+002, 4.411166e+002
3.359929e+002, 4.415297e+002
3.364750e+002, 4.412016e+002
3.369572e+002, 4.394748e+002
3.374393e+002, 4.377811e+002
3.379214e+002, 4.367071e+002
3.384035e+002, 4.361199e+002
3.388856e+002, 4.357476e+002
3.393677e+002, 4.355057e+002
3.398499e+002, 4.353023e+002
3.403320e+002, 4.348564e+002
3.408141e+002, 4.339267e+002
3.412962e+002, 4.332221e+002
3.417783e+002, 4.331335e+002
3.422604e+002, 4.332506e+002
3.427426e+002, 4.329058e+002
3.432247e+002, 4.319085e+002
3.437068e+002, 4.308959e+002
3.441889e+002, 4.308536e+002
3.446710e+002, 4.324155e+002
3.451531e+002, 4.330533e+002
3.456353e+002, 4.319214e+002
3.461174e+002, 4.304367e+002
3.465995e+002, 4.297636e+002
3.470816e+002, 4.299412e+002
3.475637e+002, 4.301721e+002
3.480458e+002, 4.296924e+002
3.485280e+002, 4.284448e+002
3.490101e+002, 4.278058e+002
3.494922e+002, 4.283383e+002
3.499743e+002, 4.288070e+002
3.504564e+002, 4.286778e+002
3.509385e+002, 4.280700e+002
3.514207e+002, 4.272356e+002
3.519028e+002, 4.262636e+002
3.523849e+002, 4.253109e+002
3.528670e+002, 4.250735e+002
3.533491e+002, 4.262963e+002
3.538312e+002, 4.273079e+002
3.543134e+002, 4.278919e+002
3.547955e+002, 4.281683e+002
3.552776e+002, 4.282500e+002
3.557597e+002, 4.281804e+002
3.562418e+002, 4.280042e+002
3.567239e+002, 4.277900e+002
3.572061e+002, 4.275035e+002
3.576882e+002, 4.272478e+002
3.581703e+002, 4.270655e+002
3.586524e+002, 4.268761e+002
3.591345e+002, 4.266954e+002
3.596166e+002, 4.264792e+002
3.600987e+002, 4.260467e+002
3.605808e+002, 4.251269e+002
3.610630e+002, 4.235851e+002
3.615451e+002, 4.228768e+002
3.620272e+002, 4.239376e+002
3.625093e+002, 4.248034e+002
3.629914e+002, 4.248388e+002
3.634735e+002, 4.241931e+002
3.639557e+002, 4.231745e+002
3.644378e+002, 4.219308e+002
3.649199e+002, 4.205779e+002
3.654020e+002, 4.196142e+002
3.658841e+002, 4.192668e+002
3.663662e+002, 4.190402e+002
3.668484e+002, 4.189431e+002
3.673305e+002, 4.188999e+002
3.678126e+002, 4.188953e+002
3.682947e+002, 4.189096e+002
3.687768e+002, 4.188269e+002
3.692589e+002, 4.184315e+002
3.697411e+002, 4.175877e+002
3.702232e+002, 4.167968e+002
3.707053e+002, 4.162550e+002
3.711874e+002, 4.156161e+002
3.716695e+002, 4.145656e+002
3.721516e+002, 4.131917e+002
3.726338e+002, 4.118781e+002
3.731159e+002, 4.109796e+002
3.735980e+002, 4.104853e+002
3.740801e+002, 4.100253e+002
3.745622e+002, 4.097059e+002
3.750443e+002, 4.092776e+002
3.755265e+002, 4.085626e+002
3.760086e+002, 4.077121e+002
3.764907e+002, 4.069888e+002
3.769728e+002, 4.065502e+002
3.774549e+002, 4.062269e+002
3.779370e+002, 4.056162e+002
3.784192e+002, 4.046144e+002
3.789013e+002, 4.036190e+002
3.793834e+002, 4.027778e+002
3.798655e+002, 4.019630e+002
3.803476e+002, 4.010418e+002
3.808297e+002, 3.999911e+002
3.813119e+002, 3.989791e+002
3.817940e+002, 3.981374e+002
3.822761e+002, 3.974659e+002
3.827582e+002, 3.970775e+002
3.832403e+002, 3.972811e+002
3.837224e+002, 3.974213e+002
3.842046e+002, 3.970600e+002
3.846867e+002, 3.962758e+002
3.851688e+002, 3.953539e+002
3.856509e+002, 3.943240e+002
3.861330e+002, 3.932892e+002
3.866151e+002, 3.924712e+002
3.870973e+002, 3.918790e+002
3.875794e+002, 3.914808e+002
3.880615e+002, 3.916032e+002
3.885436e+002, 3.918101e+002
3.890257e+002, 3.913499e+002
3.895078e+002, 3.896689e+002
3.899900e+002, 3.880432e+002
3.904721e+002, 3.879010e+002
3.909542e+002, 3.890187e+002
3.914363e+002, 3.896183e+002
3.919184e+002, 3.889686e+002
3.924005e+002, 3.877239e+002
3.928827e+002, 3.867717e+002
3.933648e+002, 3.861186e+002
3.938469e+002, 3.855530e+002
3.943290e+002, 3.850054e+002
3.948111e+002, 3.844949e+002
3.952932e+002, 3.840945e+002
3.957754e+002, 3.838259e+002
3.962575e+002, 3.835311e+002
3.967396e+002, 3.830822e+002
3.972217e+002, 3.824753e+002
3.977038e+002, 3.817675e+002
3.981859e+002, 3.807143e+002
3.986681e+002, 3.797715e+002
3.991501e+002, 3.793143e+002
3.996323e+002, 3.792404e+002
4.001144e+002, 3.791771e+002
4.005965e+002, 3.789508e+002
4.010786e+002, 3.785924e+002
4.015607e+002, 3.781668e+002
4.020428e+002, 3.774730e+002
4.025250e+002, 3.770597e+002
4.030071e+002, 3.771720e+002
4.034892e+002, 3.775429e+002
4.039713e+002, 3.779453e+002
4.044534e+002, 3.783054e+002
4.049355e+002, 3.785245e+002
4.054177e+002, 3.784925e+002
4.058998e+002, 3.781978e+002
4.063819e+002, 3.776424e+002
4.068640e+002, 3.766119e+002
4.073461e+002, 3.755641e+002
4.078282e+002, 3.746581e+002
4.083104e+002, 3.739180e+002
4.087925e+002, 3.733516e+002
4.092746e+002, 3.729681e+002
4.097567e+002, 3.727358e+002
4.102388e+002, 3.724959e+002
4.107209e+002, 3.721161e+002
4.112031e+002, 3.719135e+002
4.116852e+002, 3.721873e+002
4.121673e+002, 3.724981e+002
4.126494e+002, 3.723710e+002
4.131315e+002, 3.717095e+002
4.136136e+002, 3.708507e+002
4.140958e+002, 3.702530e+002
4.145779e+002, 3.700005e+002
4.150600e+002, 3.696612e+002
4.155421e+002, 3.689184e+002
4.160242e+002, 3.683890e+002
4.165063e+002, 3.685103e+002
4.169885e+002, 3.690536e+002
4.174706e+002, 3.694281e+002
4.179527e+002, 3.691779e+002
4.184348e+002, 3.685595e+002
4.189169e+002, 3.685170e+002
4.193990e+002, 3.693856e+002
4.198812e+002, 3.700890e+002
4.203633e+002, 3.704251e+002
4.208454e+002, 3.703900e+002
4.213275e+002, 3.697661e+002
4.218096e+002, 3.684767e+002
4.222917e+002, 3.672802e+002
4.227739e+002, 3.670983e+002
4.232560e+002, 3.678748e+002
4.237381e+002, 3.684761e+002
4.242202e+002, 3.688829e+002
4.247023e+002, 3.688403e+002
4.251844e+002, 3.677896e+002
4.256666e+002, 3.660762e+002
4.261487e+002, 3.649753e+002
4.266308e+002, 3.654717e+002
4.271129e+002, 3.666825e+002
4.275950e+002, 3.673279e+002
4.280771e+002, 3.673849e+002
4.285593e+002, 3.672275e+002
4.290414e+002, 3.669782e+002
4.295235e+002, 3.666701e+002
4.300056e+002, 3.663945e+002
4.304877e+002, 3.661937e+002
4.309698e+002, 3.659352e+002
4.314520e+002, 3.654299e+002
4.319341e+002, 3.648427e+002
4.324162e+002, 3.645616e+002
4.328983e+002, 3.647173e+002
4.333804e+002, 3.649521e+002
4.338625e+002, 3.648199e+002
4.343447e+002, 3.642533e+002
4.348268e+002, 3.638648e+002
4.353089e+002, 3.634663e+002
4.357910e+002, 3.634260e+002
4.362731e+002, 3.643750e+002
4.367552e+002, 3.659720e+002
4.372374e+002, 3.670542e+002
4.377195e+002, 3.668828e+002
4.382016e+002, 3.658173e+002
4.386837e+002, 3.652311e+002
4.391658e+002, 3.656595e+002
4.396479e+002, 3.658866e+002
4.401301e+002, 3.656214e+002
4.406122e+002, 3.652416e+002
4.410943e+002, 3.651961e+002
4.415764e+002, 3.655264e+002
4.420585e+002, 3.658283e+002
4.425406e+002, 3.656273e+002
4.430227e+002, 3.648605e+002
4.435049e+002, 3.640568e+002
4.439870e+002, 3.629694e+002
4.444691e+002, 3.621091e+002
4.449512e+002, 3.618866e+002
4.454333e+002, 3.619560e+002
4.459154e+002, 3.616891e+002
4.463976e+002, 3.607280e+002
4.468797e+002, 3.594584e+002
4.473618e+002, 3.588152e+002
4.478439e+002, 3.591042e+002
4.483260e+002, 3.591050e+002
4.488081e+002, 3.583178e+002
4.492903e+002, 3.573677e+002
4.497724e+002, 3.565570e+002
4.502545e+002, 3.559388e+002
4.507366e+002, 3.555266e+002
4.512187e+002, 3.554631e+002
4.517008e+002, 3.556397e+002
4.521830e+002, 3.555985e+002
4.526651e+002, 3.553051e+002
4.531472e+002, 3.548560e+002
4.536293e+002, 3.540973e+002
4.541114e+002, 3.532672e+002
4.545935e+002, 3.527604e+002
4.550757e+002, 3.528172e+002
4.555578e+002, 3.529072e+002
4.560399e+002, 3.525990e+002
4.565220e+002, 3.519491e+002
4.570041e+002, 3.511562e+002
4.574862e+002, 3.502038e+002
4.579684e+002, 3.492790e+002
4.584505e+002, 3.486220e+002
4.589326e+002, 3.482161e+002
4.594147e+002, 3.479998e+002
4.598968e+002, 3.481908e+002
4.603789e+002, 3.484079e+002
4.608611e+002, 3.483840e+002
4.613432e+002, 3.480919e+002
4.618253e+002, 3.474342e+002
4.623074e+002, 3.462102e+002
4.627895e+002, 3.447138e+002
4.632716e+002, 3.441654e+002
4.637538e+002, 3.456834e+002
4.642359e+002, 3.466205e+002
4.647180e+002, 3.465617e+002
4.652001e+002, 3.458497e+002
4.656822e+002, 3.445377e+002
4.661643e+002, 3.427796e+002
4.666465e+002, 3.412583e+002
4.671286e+002, 3.407840e+002
4.676107e+002, 3.414873e+002
4.680928e+002, 3.419308e+002
4.685749e+002, 3.418993e+002
4.690570e+002, 3.418280e+002
4.695392e+002, 3.418946e+002
4.700213e+002, 3.419737e+002
4.705034e+002, 3.418478e+002
4.709855e+002, 3.414155e+002
4.714676e+002, 3.408321e+002
4.719497e+002, 3.402932e+002
4.724319e+002, 3.397150e+002
4.729140e+002, 3.395662e+002
4.733961e+002, 3.405277e+002
4.738782e+002, 3.414193e+002
4.743603e+002, 3.415291e+002
4.748424e+002, 3.409464e+002
4.753246e+002, 3.401874e+002
4.758067e+002, 3.393606e+002
4.762888e+002, 3.386357e+002
4.767709e+002, 3.384790e+002
4.772530e+002, 3.389878e+002
4.777351e+002, 3.394704e+002
4.782173e+002, 3.397049e+002
4.786994e+002, 3.396519e+002
4.791815e+002, 3.391880e+002
4.796636e+002, 3.381353e+002
4.801457e+002, 3.373093e+002
4.806278e+002, 3.373370e+002
4.811100e+002, 3.378117e+002
4.815920e+002, 3.379694e+002
4.820742e+002, 3.376667e+002
4.825563e+002, 3.372570e+002
4.830384e+002, 3.370186e+002
4.835205e+002, 3.369610e+002
4.840026e+002, 3.370286e+002
4.844847e+002, 3.375370e+002
4.849669e+002, 3.378203e+002
4.854490e+002, 3.374390e+002
4.859311e+002, 3.366825e+002
4.864132e+002, 3.360181e+002
4.868953e+002, 3.356205e+002
4.873774e+002, 3.354649e+002
4.878596e+002, 3.355539e+002
4.883417e+002, 3.361075e+002
4.888238e+002, 3.362913e+002
4.893059e+002, 3.359994e+002
4.897880e+002, 3.355086e+002
4.902701e+002, 3.348638e+002
4.907523e+002, 3.341342e+002
4.912344e+002, 3.334067e+002
4.917165e+002, 3.327199e+002
4.921986e+002, 3.321177e+002
4.926807e+002, 3.317595e+002
4.931628e+002, 3.317730e+002
4.936450e+002, 3.316820e+002
4.941271e+002, 3.313217e+002
4.946092e+002, 3.308718e+002
4.950913e+002, 3.304496e+002
4.955734e+002, 3.300595e+002
4.960555e+002, 3.296236e+002
4.965377e+002, 3.290347e+002
4.970198e+002, 3.283662e+002
4.975019e+002, 3.278837e+002
4.979840e+002, 3.276622e+002
4.984661e+002, 3.272653e+002
4.989482e+002, 3.261326e+002
4.994304e+002, 3.247956e+002
4.999125e+002, 3.243488e+002
5.003946e+002, 3.252746e+002
5.008767e+002, 3.260367e+002
5.013588e+002, 3.256582e+002
5.018409e+002, 3.246622e+002
5.023231e+002, 3.240135e+002
5.028052e+002, 3.239136e+002
5.032873e+002, 3.238678e+002
5.037694e+002, 3.233544e+002
5.042515e+002, 3.223477e+002
5.047336e+002, 3.217743e+002
5.052158e+002, 3.219930e+002
5.056979e+002, 3.221922e+002
5.061800e+002, 3.219824e+002
5.066621e+002, 3.215973e+002
5.071442e+002, 3.214586e+002
5.076263e+002, 3.217056e+002
5.081085e+002, 3.220502e+002
5.085906e+002, 3.220511e+002
5.090727e+002, 3.216449e+002
5.095548e+002, 3.211181e+002
5.100369e+002, 3.201693e+002
5.105190e+002, 3.194008e+002
5.110012e+002, 3.191450e+002
5.114833e+002, 3.192229e+002
5.119654e+002, 3.193082e+002
5.124475e+002, 3.192646e+002
5.129296e+002, 3.190637e+002
5.134117e+002, 3.186051e+002
5.138939e+002, 3.178477e+002
5.143760e+002, 3.171462e+002
5.148581e+002, 3.166567e+002
5.153402e+002, 3.161610e+002
5.158223e+002, 3.155063e+002
5.163044e+002, 3.146969e+002
5.167866e+002, 3.137755e+002
5.172687e+002, 3.125005e+002
5.177508e+002, 3.112686e+002
5.182329e+002, 3.108088e+002
5.187150e+002, 3.110474e+002
5.191971e+002, 3.108882e+002
5.196793e+002, 3.097159e+002
5.201614e+002, 3.079522e+002
5.206435e+002, 3.065279e+002
5.211256e+002, 3.054135e+002
5.216077e+002, 3.045972e+002
5.220898e+002, 3.043839e+002
5.225720e+002, 3.042576e+002
5.230541e+002, 3.037343e+002
5.235362e+002, 3.028299e+002
5.240183e+002, 3.018221e+002
5.245004e+002, 3.008719e+002
5.249825e+002, 3.000467e+002
5.254647e+002, 2.997086e+002
5.259468e+002, 3.004322e+002
5.264289e+002, 3.008332e+002
5.269110e+002, 3.008784e+002
5.273931e+002, 3.005190e+002
5.278752e+002, 2.994463e+002
5.283574e+002, 2.978010e+002
5.288395e+002, 2.963589e+002
5.293216e+002, 2.959215e+002
5.298037e+002, 2.963004e+002
5.302858e+002, 2.963251e+002
5.307679e+002, 2.958761e+002
5.312501e+002, 2.953483e+002
5.317322e+002, 2.947671e+002
5.322143e+002, 2.942629e+002
5.326964e+002, 2.940150e+002
5.331785e+002, 2.940829e+002
5.336606e+002, 2.941786e+002
5.341428e+002, 2.941852e+002
5.346249e+002, 2.940714e+002
5.351070e+002, 2.936660e+002
5.355891e+002, 2.929142e+002
5.360712e+002, 2.923344e+002
5.365533e+002, 2.924536e+002
5.370355e+002, 2.930929e+002
5.375176e+002, 2.931393e+002
5.379997e+002, 2.920136e+002
5.384818e+002, 2.910605e+002
5.389639e+002, 2.908637e+002
5.394460e+002, 2.909520e+002
5.399282e+002, 2.906438e+002
5.404103e+002, 2.898460e+002
5.408924e+002, 2.891013e+002
5.413745e+002, 2.890222e+002
5.418566e+002, 2.896352e+002
5.423387e+002, 2.900041e+002
5.428209e+002, 2.900155e+002
5.433029e+002, 2.898952e+002
5.437850e+002, 2.895169e+002
5.442672e+002, 2.891133e+002
5.447493e+002, 2.889665e+002
5.452314e+002, 2.891435e+002
5.457135e+002, 2.894371e+002
5.461956e+002, 2.897207e+002
5.466777e+002, 2.899708e+002
5.471599e+002, 2.897945e+002
5.476420e+002, 2.888726e+002
5.481241e+002, 2.881607e+002
5.486062e+002, 2.885863e+002
5.490883e+002, 2.895483e+002
5.495704e+002, 2.900733e+002
5.500526e+002, 2.898578e+002
5.505347e+002, 2.894929e+002
5.510168e+002, 2.892607e+002
5.514989e+002, 2.891608e+002
5.519810e+002, 2.892570e+002
5.524631e+002, 2.895687e+002
5.529453e+002, 2.898311e+002
5.534274e+002, 2.897706e+002
5.539095e+002, 2.893844e+002
5.543916e+002, 2.891289e+002
5.548737e+002, 2.891434e+002
5.553558e+002, 2.891001e+002
5.558380e+002, 2.888534e+002
5.563201e+002, 2.885231e+002
5.568022e+002, 2.881940e+002
5.572843e+002, 2.879167e+002
5.577664e+002, 2.878459e+002
5.582485e+002, 2.883000e+002
5.587307e+002, 2.893212e+002
5.592128e+002, 2.895820e+002
5.596949e+002, 2.885334e+002
5.601770e+002, 2.874877e+002
5.606591e+002, 2.868228e+002
5.611412e+002, 2.864350e+002
5.616234e+002, 2.862394e+002
5.621055e+002, 2.862326e+002
5.625876e+002, 2.862425e+002
5.630697e+002, 2.861547e+002
5.635518e+002, 2.859655e+002
5.640339e+002, 2.856268e+002
5.645161e+002, 2.850999e+002
5.649982e+002, 2.845819e+002
5.654803e+002, 2.841854e+002
5.659624e+002, 2.839207e+002
5.664445e+002, 2.837812e+002
5.669266e+002, 2.838234e+002
5.674088e+002, 2.839081e+002
5.678909e+002, 2.840426e+002
5.683730e+002, 2.841674e+002
5.688551e+002, 2.842179e+002
5.693372e+002, 2.841784e+002
5.698193e+002, 2.840340e+002
5.703015e+002, 2.837370e+002
5.707836e+002, 2.833073e+002
5.712657e+002, 2.831630e+002
5.717478e+002, 2.836614e+002
5.722299e+002, 2.839657e+002
5.727120e+002, 2.837794e+002
5.731942e+002, 2.834550e+002
5.736763e+002, 2.834219e+002
5.741584e+002, 2.836933e+002
5.746405e+002, 2.837844e+002
5.751226e+002, 2.830346e+002
5.756047e+002, 2.817224e+002
5.760869e+002, 2.810912e+002
5.765690e+002, 2.812990e+002
5.770511e+002, 2.815258e+002
5.775332e+002, 2.813908e+002
5.780153e+002, 2.810423e+002
5.784974e+002, 2.807293e+002
5.789796e+002, 2.804640e+002
5.794617e+002, 2.801976e+002
5.799438e+002, 2.797182e+002
5.804259e+002, 2.793438e+002
5.809080e+002, 2.796535e+002
5.813901e+002, 2.805421e+002
5.818723e+002, 2.811634e+002
5.823544e+002, 2.809615e+002
5.828365e+002, 2.801401e+002
5.833186e+002, 2.793801e+002
5.838007e+002, 2.785558e+002
5.842828e+002, 2.780036e+002
5.847650e+002, 2.778628e+002
5.852471e+002, 2.778652e+002
5.857292e+002, 2.779247e+002
5.862113e+002, 2.779742e+002
5.866934e+002, 2.778880e+002
5.871755e+002, 2.775571e+002
5.876577e+002, 2.770999e+002
5.881398e+002, 2.767858e+002
5.886219e+002, 2.766268e+002
5.891040e+002, 2.765384e+002
5.895861e+002, 2.766006e+002
5.900682e+002, 2.766118e+002
5.905504e+002, 2.762607e+002
5.910325e+002, 2.756334e+002
5.915146e+002, 2.753127e+002
5.919967e+002, 2.758759e+002
5.924788e+002, 2.764777e+002
5.929609e+002, 2.762837e+002
5.934431e+002, 2.755226e+002
5.939252e+002, 2.748727e+002
5.944073e+002, 2.745753e+002
5.948894e+002, 2.745207e+002
5.953715e+002, 2.745589e+002
5.958536e+002, 2.746815e+002
5.963358e+002, 2.749504e+002
5.968179e+002, 2.757512e+002
5.973000e+002, 2.762513e+002
5.977821e+002, 2.760263e+002
5.982642e+002, 2.753656e+002
5.987463e+002, 2.745841e+002
5.992285e+002, 2.738073e+002
5.997106e+002, 2.732625e+002
6.001927e+002, 2.734325e+002
6.006748e+002, 2.742730e+002
6.011569e+002, 2.744386e+002
6.016390e+002, 2.735020e+002
6.021212e+002, 2.726769e+002
6.026033e+002, 2.728540e+002
6.030854e+002, 2.735271e+002
6.035675e+002, 2.739879e+002
6.040496e+002, 2.741926e+002
6.045317e+002, 2.740717e+002
6.050139e+002, 2.733238e+002
6.054960e+002, 2.723462e+002
6.059781e+002, 2.717917e+002
6.064602e+002, 2.716981e+002
6.069423e+002, 2.715716e+002
6.074244e+002, 2.710392e+002
6.079066e+002, 2.702147e+002
6.083887e+002, 2.696016e+002
6.088708e+002, 2.692664e+002
6.093529e+002, 2.690743e+002
6.098350e+002, 2.691317e+002
6.103171e+002, 2.692364e+002
6.107993e+002, 2.693034e+002
6.112814e+002, 2.692923e+002
6.117635e+002, 2.691304e+002
6.122456e+002, 2.687277e+002
6.127277e+002, 2.682180e+002
6.132098e+002, 2.678916e+002
6.136920e+002, 2.677615e+002
6.141741e+002, 2.676380e+002
6.146562e+002, 2.674967e+002
6.151383e+002, 2.673150e+002
6.156204e+002, 2.670219e+002
6.161025e+002, 2.666443e+002
6.165847e+002, 2.663679e+002
6.170668e+002, 2.663759e+002
6.175489e+002, 2.663513e+002
6.180310e+002, 2.659751e+002
6.185131e+002, 2.654401e+002
6.189952e+002, 2.652258e+002
6.194774e+002, 2.654585e+002
6.199595e+002, 2.656661e+002
6.204416e+002, 2.652186e+002
6.209237e+002, 2.640329e+002
6.214058e+002, 2.634456e+002
6.218879e+002, 2.640085e+002
6.223701e+002, 2.645168e+002
6.228522e+002, 2.648143e+002
6.233343e+002, 2.648874e+002
6.238164e+002, 2.646955e+002
6.242985e+002, 2.642445e+002
6.247806e+002, 2.636566e+002
6.252628e+002, 2.628716e+002
6.257448e+002, 2.620486e+002
6.262269e+002, 2.617117e+002
6.267090e+002, 2.619160e+002
6.271912e+002, 2.620504e+002
6.276733e+002, 2.617953e+002
6.281554e+002, 2.613487e+002
6.286375e+002, 2.610401e+002
6.291196e+002, 2.608223e+002
6.296017e+002, 2.608864e+002
6.300839e+002, 2.616977e+002
6.305660e+002, 2.624094e+002
6.310481e+002, 2.622561e+002
6.315302e+002, 2.615358e+002
6.320123e+002, 2.610420e+002
6.324944e+002, 2.611404e+002
6.329766e+002, 2.615108e+002
6.334587e+002, 2.615985e+002
6.339408e+002, 2.613285e+002
6.344229e+002, 2.611681e+002
6.349050e+002, 2.612430e+002
6.353871e+002, 2.612712e+002
6.358693e+002, 2.610486e+002
6.363514e+002, 2.607329e+002
6.368335e+002, 2.605852e+002
6.373156e+002, 2.607013e+002
6.377977e+002, 2.608343e+002
6.382798e+002, 2.607889e+002
6.387620e+002, 2.606465e+002
6.392441e+002, 2.605413e+002
6.397262e+002, 2.604924e+002
6.402083e+002, 2.605190e+002
6.406904e+002, 2.606436e+002
6.411725e+002, 2.608412e+002
6.416547e+002, 2.610330e+002
6.421368e+002, 2.613649e+002
6.426189e+002, 2.614575e+002
6.431010e+002, 2.610725e+002
6.435831e+002, 2.606600e+002
6.440652e+002, 2.605146e+002
6.445474e+002, 2.605826e+002
6.450295e+002, 2.606896e+002
6.455116e+002, 2.607672e+002
6.459937e+002, 2.607325e+002
6.464758e+002, 2.603459e+002
6.469579e+002, 2.596125e+002
6.474401e+002, 2.591420e+002
6.479222e+002, 2.590351e+002
6.484043e+002, 2.591981e+002
6.488864e+002, 2.599139e+002
6.493685e+002, 2.608492e+002
6.498506e+002, 2.608873e+002
6.503328e+002, 2.591929e+002
6.508149e+002, 2.577612e+002
6.512970e+002, 2.576902e+002
6.517791e+002, 2.581345e+002
6.522612e+002, 2.580446e+002
6.527433e+002, 2.573541e+002
6.532255e+002, 2.566699e+002
6.537076e+002, 2.564465e+002
6.541897e+002, 2.565652e+002
6.546718e+002, 2.565700e+002
6.551539e+002, 2.563537e+002
6.556360e+002, 2.562801e+002
6.561182e+002, 2.566913e+002
6.566003e+002, 2.569987e+002
6.570824e+002, 2.568070e+002
6.575645e+002, 2.562285e+002
6.580466e+002, 2.556274e+002
6.585287e+002, 2.550238e+002
6.590109e+002, 2.546270e+002
6.594930e+002, 2.548115e+002
6.599751e+002, 2.553555e+002
6.604572e+002, 2.555946e+002
6.609393e+002, 2.553774e+002
6.614214e+002, 2.551272e+002
6.619036e+002, 2.552649e+002
6.623857e+002, 2.557229e+002
6.628678e+002, 2.557582e+002
6.633499e+002, 2.547225e+002
6.638320e+002, 2.541297e+002
6.643141e+002, 2.545747e+002
6.647963e+002, 2.551549e+002
6.652784e+002, 2.550333e+002
6.657605e+002, 2.543310e+002
6.662426e+002, 2.538309e+002
6.667247e+002, 2.541000e+002
6.672068e+002, 2.547036e+002
6.676890e+002, 2.548338e+002
6.681711e+002, 2.545049e+002
6.686532e+002, 2.541711e+002
6.691353e+002, 2.539022e+002
6.696174e+002, 2.537265e+002
6.700995e+002, 2.536755e+002
6.705817e+002, 2.537509e+002
6.710638e+002, 2.539133e+002
6.715459e+002, 2.545303e+002
6.720280e+002, 2.547777e+002
6.725101e+002, 2.539662e+002
6.729922e+002, 2.529040e+002
6.734744e+002, 2.525061e+002
6.739565e+002, 2.528328e+002
6.744386e+002, 2.533584e+002
6.749207e+002, 2.537252e+002
6.754028e+002, 2.539253e+002
6.758849e+002, 2.538987e+002
6.763671e+002, 2.535847e+002
6.768492e+002, 2.533113e+002
6.773313e+002, 2.531419e+002
6.778134e+002, 2.530313e+002
6.782955e+002, 2.530313e+002
6.787776e+002, 2.530727e+002
6.792598e+002, 2.528813e+002
6.797419e+002, 2.520021e+002
6.802240e+002, 2.513801e+002
6.807061e+002, 2.519167e+002
6.811882e+002, 2.529378e+002
6.816703e+002, 2.532962e+002
6.821525e+002, 2.528516e+002
6.826346e+002, 2.523664e+002
6.831167e+002, 2.525014e+002
6.835988e+002, 2.530688e+002
6.840809e+002, 2.530784e+002
6.845630e+002, 2.520766e+002
6.850452e+002, 2.515112e+002
6.855273e+002, 2.520120e+002
6.860094e+002, 2.526189e+002
6.864915e+002, 2.527563e+002
6.869736e+002, 2.525357e+002
6.874557e+002, 2.524040e+002
6.879379e+002, 2.526803e+002
6.884200e+002, 2.528221e+002
6.889021e+002, 2.519520e+002
6.893842e+002, 2.506407e+002
6.898663e+002, 2.504156e+002
6.903484e+002, 2.515251e+002
6.908306e+002, 2.527234e+002
6.913127e+002, 2.530276e+002
6.917948e+002, 2.526186e+002
6.922769e+002, 2.524153e+002
6.927590e+002, 2.525993e+002
6.932411e+002, 2.527060e+002
6.937233e+002, 2.527130e+002
6.942054e+002, 2.526474e+002
6.946875e+002, 2.523768e+002
6.951696e+002, 2.520578e+002
6.956517e+002, 2.521082e+002
6.961339e+002, 2.528253e+002
6.966160e+002, 2.536154e+002
6.970981e+002, 2.537661e+002
6.975802e+002, 2.534344e+002
6.980623e+002, 2.531689e+002
6.985444e+002, 2.530546e+002
6.990266e+002, 2.529395e+002
6.995087e+002, 2.526648e+002
6.999908e+002, 2.523374e+002
7.004729e+002, 2.523837e+002
7.009550e+002, 2.534714e+002
7.014371e+002, 2.538925e+002
7.019193e+002, 2.527586e+002
7.024014e+002, 2.517532e+002
7.028835e+002, 2.521427e+002
7.033656e+002, 2.534381e+002
7.038477e+002, 2.544861e+002
7.043298e+002, 2.547925e+002
7.048120e+002, 2.546764e+002
7.052941e+002, 2.544516e+002
7.057762e+002, 2.541276e+002
7.062583e+002, 2.537148e+002
7.067404e+002, 2.531969e+002
7.072225e+002, 2.527178e+002
7.077046e+002, 2.523334e+002
7.081867e+002, 2.520627e+002
7.086688e+002, 2.519772e+002
7.091509e+002, 2.521848e+002
7.096331e+002, 2.522880e+002
7.101152e+002, 2.520681e+002
7.105973e+002, 2.519222e+002
7.110794e+002, 2.521664e+002
7.115615e+002, 2.526288e+002
7.120436e+002, 2.530175e+002
7.125258e+002, 2.532232e+002
7.130079e+002, 2.532521e+002
7.134900e+002, 2.530284e+002
7.139721e+002, 2.526138e+002
7.144542e+002, 2.523887e+002
7.149363e+002, 2.524084e+002
7.154185e+002, 2.523188e+002
7.159006e+002, 2.518505e+002
7.163827e+002, 2.512992e+002
7.168648e+002, 2.512174e+002
7.173469e+002, 2.516933e+002
7.178290e+002, 2.520521e+002
7.183112e+002, 2.522236e+002
7.187933e+002, 2.522812e+002
7.192754e+002, 2.520484e+002
7.197575e+002, 2.518132e+002
7.202396e+002, 2.520519e+002
7.207217e+002, 2.528433e+002
7.212039e+002, 2.537498e+002
7.216860e+002, 2.544756e+002
7.221681e+002, 2.549427e+002
7.226502e+002, 2.547385e+002
7.231323e+002, 2.537816e+002
7.236144e+002, 2.528131e+002
7.240966e+002, 2.520429e+002
7.245787e+002, 2.513922e+002
7.250608e+002, 2.507444e+002
7.255429e+002, 2.501003e+002
7.260250e+002, 2.497114e+002
7.265071e+002, 2.498092e+002
7.269893e+002, 2.499035e+002
7.274714e+002, 2.499665e+002
7.279535e+002, 2.498472e+002
7.284356e+002, 2.491788e+002
7.289177e+002, 2.480782e+002
7.293998e+002, 2.472615e+002
7.298820e+002, 2.473344e+002
7.303641e+002, 2.478805e+002
7.308462e+002, 2.479274e+002
7.313283e+002, 2.474565e+002
7.318104e+002, 2.469454e+002
7.322925e+002, 2.464076e+002
7.327747e+002, 2.460314e+002
7.332568e+002, 2.460867e+002
7.337389e+002, 2.464533e+002
7.342210e+002, 2.464914e+002
7.347031e+002, 2.458869e+002
7.351852e+002, 2.454377e+002
7.356674e+002, 2.455208e+002
7.361495e+002, 2.456436e+002
7.366316e+002, 2.453385e+002
7.371137e+002, 2.447089e+002
7.375958e+002, 2.441238e+002
7.380779e+002, 2.437542e+002
7.385601e+002, 2.435785e+002
7.390422e+002, 2.436186e+002
7.395243e+002, 2.438500e+002
7.400064e+002, 2.440413e+002
7.404885e+002, 2.441797e+002
7.409706e+002, 2.442495e+002
7.414528e+002, 2.442121e+002
7.419349e+002, 2.441232e+002
7.424170e+002, 2.441541e+002
7.428991e+002, 2.444513e+002
7.433812e+002, 2.443715e+002
7.438633e+002, 2.434570e+002
7.443455e+002, 2.425787e+002
7.448276e+002, 2.422724e+002
7.453097e+002, 2.422771e+002
7.457918e+002, 2.421323e+002
7.462739e+002, 2.417220e+002
7.467560e+002, 2.413264e+002
7.472382e+002, 2.412831e+002
7.477203e+002, 2.414558e+002
7.482024e+002, 2.413659e+002
7.486845e+002, 2.410035e+002
7.491666e+002, 2.408255e+002
7.496487e+002, 2.410318e+002
7.501309e+002, 2.413621e+002
7.506130e+002, 2.415208e+002
7.510951e+002, 2.414957e+002
7.515772e+002, 2.414678e+002
7.520593e+002, 2.415873e+002
7.525414e+002, 2.415046e+002
7.530236e+002, 2.408828e+002
7.535057e+002, 2.402085e+002
7.539878e+002, 2.400181e+002
7.544699e+002, 2.402293e+002
7.549520e+002, 2.402571e+002
7.554341e+002, 2.396273e+002
7.559163e+002, 2.389588e+002
7.563984e+002, 2.394053e+002
7.568805e+002, 2.406239e+002
7.573626e+002, 2.409681e+002
7.578447e+002, 2.401214e+002
7.583268e+002, 2.392339e+002
7.588090e+002, 2.391424e+002
7.592911e+002, 2.396004e+002
7.597732e+002, 2.397766e+002
7.602553e+002, 2.395161e+002
7.607374e+002, 2.392600e+002
7.612195e+002, 2.389419e+002
7.617017e+002, 2.387072e+002
7.621838e+002, 2.386503e+002
7.626659e+002, 2.387172e+002
7.631480e+002, 2.388336e+002
7.636301e+002, 2.389823e+002
7.641122e+002, 2.391253e+002
7.645944e+002, 2.393328e+002
7.650765e+002, 2.394656e+002
7.655586e+002, 2.392149e+002
7.660407e+002, 2.386448e+002
7.665228e+002, 2.381250e+002
7.670049e+002, 2.377855e+002
7.674871e+002, 2.376635e+002
7.679692e+002, 2.378470e+002
7.684513e+002, 2.383536e+002
7.689334e+002, 2.386879e+002
7.694155e+002, 2.387857e+002
7.698976e+002, 2.388072e+002
7.703798e+002, 2.388694e+002
7.708619e+002, 2.388050e+002
7.713440e+002, 2.382559e+002
7.718261e+002, 2.373890e+002
7.723082e+002, 2.370498e+002
7.727903e+002, 2.379831e+002
7.732725e+002, 2.389238e+002
7.737546e+002, 2.388500e+002
7.742367e+002, 2.382758e+002
7.747188e+002, 2.379578e+002
7.752009e+002, 2.380020e+002
7.756830e+002, 2.382348e+002
7.761652e+002, 2.385711e+002
7.766473e+002, 2.388865e+002
7.771294e+002, 2.388185e+002
7.776115e+002, 2.382756e+002
7.780936e+002, 2.379656e+002
7.785757e+002, 2.379487e+002
7.790579e+002, 2.381464e+002
7.795400e+002, 2.387166e+002
7.800221e+002, 2.393919e+002
7.805042e+002, 2.397111e+002
7.809863e+002, 2.396108e+002
7.814684e+002, 2.394223e+002
7.819506e+002, 2.392049e+002
7.824327e+002, 2.389443e+002
7.829148e+002, 2.384537e+002
7.833969e+002, 2.379749e+002
7.838790e+002, 2.380563e+002
7.843611e+002, 2.387496e+002
7.848433e+002, 2.393161e+002
7.853254e+002, 2.389952e+002
7.858075e+002, 2.380784e+002
7.862896e+002, 2.373011e+002
7.867717e+002, 2.366593e+002
7.872538e+002, 2.366903e+002
7.877360e+002, 2.376992e+002
7.882181e+002, 2.389107e+002
7.887002e+002, 2.396753e+002
7.891823e+002, 2.400152e+002
7.896644e+002, 2.400884e+002
7.901465e+002, 2.396147e+002
7.906286e+002, 2.392912e+002
7.911107e+002, 2.394505e+002
7.915928e+002, 2.395157e+002
7.920750e+002, 2.388284e+002
7.925571e+002, 2.378101e+002
7.930392e+002, 2.374647e+002
7.935213e+002, 2.382254e+002
7.940034e+002, 2.390663e+002
7.944855e+002, 2.389055e+002
7.949677e+002, 2.382873e+002
7.954498e+002, 2.383672e+002
7.959319e+002, 2.390721e+002
7.964140e+002, 2.394477e+002
7.968961e+002, 2.390881e+002
7.973782e+002, 2.383557e+002
7.978604e+002, 2.376949e+002
7.983425e+002, 2.370909e+002
7.988246e+002, 2.368675e+002
7.993067e+002, 2.373114e+002
7.997888e+002, 2.376125e+002
8.002709e+002, 2.374196e+002
8.007531e+002, 2.371290e+002
8.012352e+002, 2.371055e+002
8.017173e+002, 2.372689e+002
8.021994e+002, 2.371734e+002
8.026815e+002, 2.363510e+002
8.031636e+002, 2.357616e+002
8.036458e+002, 2.362697e+002
8.041279e+002, 2.370582e+002
8.046100e+002, 2.370186e+002
8.050921e+002, 2.362843e+002
8.055742e+002, 2.357957e+002
8.060563e+002, 2.360782e+002
8.065385e+002, 2.366486e+002
8.070206e+002, 2.367808e+002
8.075027e+002, 2.364932e+002
8.079848e+002, 2.359154e+002
8.084669e+002, 2.349424e+002
8.089490e+002, 2.342549e+002
8.094312e+002, 2.342214e+002
8.099133e+002, 2.345414e+002
8.103954e+002, 2.348110e+002
8.108775e+002, 2.350391e+002
8.113596e+002, 2.351359e+002
8.118417e+002, 2.349725e+002
8.123239e+002, 2.348444e+002
8.128060e+002, 2.349751e+002
8.132881e+002, 2.350747e+002
8.137702e+002, 2.347742e+002
8.142523e+002, 2.341531e+002
8.147344e+002, 2.336460e+002
8.152166e+002, 2.334373e+002
8.156987e+002, 2.334932e+002
8.161808e+002, 2.340159e+002
8.166629e+002, 2.347188e+002
8.171450e+002, 2.348761e+002
8.176271e+002, 2.344616e+002
8.181093e+002, 2.340340e+002
8.185914e+002, 2.338987e+002
8.190735e+002, 2.340087e+002
8.195556e+002, 2.343518e+002
8.200377e+002, 2.350310e+002
8.205198e+002, 2.352417e+002
8.210020e+002, 2.347141e+002
8.214841e+002, 2.342241e+002
8.219662e+002, 2.341253e+002
8.224483e+002, 2.341599e+002
8.229304e+002, 2.340845e+002
8.234125e+002, 2.338945e+002
8.238947e+002, 2.335677e+002
8.243768e+002, 2.329283e+002
8.248589e+002, 2.323624e+002
8.253410e+002, 2.319345e+002
8.258231e+002, 2.317368e+002
8.263052e+002, 2.320583e+002
8.267874e+002, 2.327377e+002
8.272695e+002, 2.331466e+002
8.277516e+002, 2.328927e+002
8.282337e+002, 2.324191e+002
8.287158e+002, 2.324203e+002
8.291979e+002, 2.327506e+002
8.296801e+002, 2.327322e+002
8.301622e+002, 2.323035e+002
8.306443e+002, 2.319968e+002
8.311264e+002, 2.321101e+002
8.316085e+002, 2.323773e+002
8.320906e+002, 2.323381e+002
8.325728e+002, 2.319222e+002
8.330549e+002, 2.317075e+002
8.335370e+002, 2.318787e+002
8.340191e+002, 2.319842e+002
8.345012e+002, 2.318800e+002
8.349833e+002, 2.317083e+002
8.354655e+002, 2.314844e+002
8.359476e+002, 2.312765e+002
8.364297e+002, 2.313626e+002
8.369118e+002, 2.320493e+002
8.373939e+002, 2.326929e+002
8.378760e+002, 2.329562e+002
8.383582e+002, 2.329832e+002
8.388403e+002, 2.329142e+002
8.393224e+002, 2.327705e+002
8.398045e+002, 2.325228e+002
8.402866e+002, 2.321574e+002
8.407687e+002, 2.317581e+002
8.412509e+002, 2.314033e+002
8.417330e+002, 2.311098e+002
8.422151e+002, 2.310057e+002
8.426972e+002, 2.311024e+002
8.431793e+002, 2.312237e+002
8.436614e+002, 2.312980e+002
8.441436e+002, 2.314061e+002
8.446257e+002, 2.317075e+002
8.451078e+002, 2.321870e+002
8.455899e+002, 2.322055e+002
8.460720e+002, 2.310651e+002
8.465541e+002, 2.304879e+002
8.470363e+002, 2.311584e+002
8.475184e+002, 2.319087e+002
8.480005e+002, 2.318885e+002
8.484826e+002, 2.314030e+002
8.489647e+002, 2.312746e+002
8.494468e+002, 2.318220e+002
8.499290e+002, 2.322371e+002
8.504111e+002, 2.319156e+002
8.508932e+002, 2.313862e+002
8.513753e+002, 2.311939e+002
8.518574e+002, 2.312408e+002
8.523395e+002, 2.312374e+002
8.528217e+002, 2.310906e+002
8.533038e+002, 2.308420e+002
8.537859e+002, 2.304700e+002
8.542680e+002, 2.300855e+002
8.547501e+002, 2.300566e+002
8.552322e+002, 2.303833e+002
8.557144e+002, 2.308787e+002
8.561965e+002, 2.315601e+002
8.566786e+002, 2.321582e+002
8.571607e+002, 2.324526e+002
8.576428e+002, 2.325202e+002
8.581249e+002, 2.326175e+002
8.586071e+002, 2.328495e+002
8.590892e+002, 2.328752e+002
8.595713e+002, 2.325267e+002
8.600534e+002, 2.321709e+002
8.605355e+002, 2.317221e+002
8.610176e+002, 2.314549e+002
8.614998e+002, 2.318035e+002
8.619819e+002, 2.327771e+002
8.624640e+002, 2.336795e+002
8.629461e+002, 2.342958e+002
8.634282e+002, 2.346897e+002
8.639103e+002, 2.345759e+002
8.643925e+002, 2.344416e+002
8.648746e+002, 2.351942e+002
8.653567e+002, 2.366993e+002
8.658388e+002, 2.379223e+002
8.663209e+002, 2.382641e+002
8.668030e+002, 2.380368e+002
8.672852e+002, 2.375348e+002
8.677673e+002, 2.368504e+002
8.682494e+002, 2.365456e+002
8.687315e+002, 2.366676e+002
8.692136e+002, 2.366181e+002
8.696957e+002, 2.360646e+002
8.701779e+002, 2.355455e+002
8.706600e+002, 2.358741e+002
8.711421e+002, 2.370628e+002
8.716242e+002, 2.376057e+002
8.721063e+002, 2.370727e+002
8.725884e+002, 2.366497e+002
8.730705e+002, 2.367947e+002
8.735526e+002, 2.368544e+002
8.740347e+002, 2.363035e+002
8.745168e+002, 2.353818e+002
8.749990e+002, 2.346757e+002
8.754811e+002, 2.343038e+002
8.759632e+002, 2.340856e+002
8.764453e+002, 2.342091e+002
8.769274e+002, 2.342255e+002
8.774095e+002, 2.335961e+002
8.778917e+002, 2.327029e+002
8.783738e+002, 2.322481e+002
8.788559e+002, 2.323595e+002
8.793380e+002, 2.325655e+002
8.798201e+002, 2.325261e+002
8.803022e+002, 2.323396e+002
8.807844e+002, 2.321062e+002
8.812665e+002, 2.318629e+002
8.817486e+002, 2.318011e+002
8.822307e+002, 2.319355e+002
8.827128e+002, 2.319697e+002
8.831949e+002, 2.316992e+002
8.836771e+002, 2.312880e+002
8.841592e+002, 2.310714e+002
8.846413e+002, 2.310621e+002
8.851234e+002, 2.311936e+002
8.856055e+002, 2.316594e+002
8.860876e+002, 2.317523e+002
8.865698e+002, 2.309231e+002
8.870519e+002, 2.299288e+002
8.875340e+002, 2.297243e+002
8.880161e+002, 2.302413e+002
8.884982e+002, 2.303933e+002
8.889803e+002, 2.299118e+002
8.894625e+002, 2.294014e+002
8.899446e+002, 2.288414e+002
8.904267e+002, 2.284007e+002
8.909088e+002, 2.283669e+002
8.913909e+002, 2.284942e+002
8.918730e+002, 2.281983e+002
8.923552e+002, 2.272905e+002
8.928373e+002, 2.266333e+002
8.933194e+002, 2.272073e+002
8.938015e+002, 2.279464e+002
8.942836e+002, 2.275855e+002
8.947657e+002, 2.265392e+002
8.952479e+002, 2.256181e+002
8.957300e+002, 2.250549e+002
8.962121e+002, 2.249123e+002
8.966942e+002, 2.253007e+002
8.971763e+002, 2.259219e+002
8.976584e+002, 2.261309e+002
8.981406e+002, 2.259776e+002
8.986227e+002, 2.260285e+002
8.991048e+002, 2.263590e+002
8.995869e+002, 2.265512e+002
9.000690e+002, 2.263791e+002
9.005511e+002, 2.260524e+002
9.010333e+002, 2.259088e+002
9.015154e+002, 2.259688e+002
9.019975e+002, 2.256898e+002
9.024796e+002, 2.245411e+002
9.029617e+002, 2.240505e+002
9.034438e+002, 2.252143e+002
9.039260e+002, 2.264258e+002
9.044081e+002, 2.265517e+002
9.048902e+002, 2.258942e+002
9.053723e+002, 2.251583e+002
9.058544e+002, 2.242083e+002
9.063365e+002, 2.237896e+002
9.068187e+002, 2.245260e+002
9.073008e+002, 2.253775e+002
9.077829e+002, 2.258369e+002
9.082650e+002, 2.259600e+002
9.087471e+002, 2.257259e+002
9.092292e+002, 2.252376e+002
9.097114e+002, 2.249979e+002
9.101935e+002, 2.254527e+002
9.106756e+002, 2.260400e+002
9.111577e+002, 2.262295e+002
9.116398e+002, 2.261247e+002
9.121219e+002, 2.257720e+002
9.126041e+002, 2.252894e+002
9.130862e+002, 2.251594e+002
9.135683e+002, 2.256123e+002
9.140504e+002, 2.261028e+002
9.145325e+002, 2.257387e+002
9.150146e+002, 2.247547e+002
9.154968e+002, 2.246306e+002
9.159789e+002, 2.254068e+002
9.164610e+002, 2.258920e+002
9.169431e+002, 2.257664e+002
9.174252e+002, 2.253920e+002
9.179073e+002, 2.250328e+002
9.183895e+002, 2.246905e+002
9.188716e+002, 2.243594e+002
9.193537e+002, 2.239791e+002
9.198358e+002, 2.237541e+002
9.203179e+002, 2.237112e+002
9.208000e+002, 2.237813e+002
9.212822e+002, 2.241311e+002
9.217643e+002, 2.244507e+002
9.222464e+002, 2.243253e+002
9.227285e+002, 2.237720e+002
9.232106e+002, 2.233480e+002
9.236927e+002, 2.231289e+002
9.241749e+002, 2.230466e+002
9.246570e+002, 2.232198e+002
9.251391e+002, 2.234019e+002
9.256212e+002, 2.234719e+002
9.261033e+002, 2.233810e+002
9.265854e+002, 2.229073e+002
9.270676e+002, 2.219643e+002
9.275497e+002, 2.214969e+002
9.280318e+002, 2.227699e+002
9.285139e+002, 2.242514e+002
9.289960e+002, 2.242552e+002
9.294781e+002, 2.233504e+002
9.299603e+002, 2.226033e+002
9.304424e+002, 2.222306e+002
9.309245e+002, 2.220732e+002
9.314066e+002, 2.220588e+002
9.318887e+002, 2.220337e+002
9.323708e+002, 2.216733e+002
9.328530e+002, 2.210880e+002
9.333351e+002, 2.207126e+002
9.338172e+002, 2.205707e+002
9.342993e+002, 2.206920e+002
9.347814e+002, 2.211099e+002
9.352635e+002, 2.215386e+002
9.357457e+002, 2.216350e+002
9.362278e+002, 2.214866e+002
9.367099e+002, 2.216839e+002
9.371920e+002, 2.223964e+002
9.376741e+002, 2.226697e+002
9.381563e+002, 2.222123e+002
9.386384e+002, 2.217130e+002
9.391205e+002, 2.215397e+002
9.396026e+002, 2.215617e+002
9.400847e+002, 2.215677e+002
9.405668e+002, 2.215744e+002
9.410490e+002, 2.214687e+002
9.415311e+002, 2.209304e+002
9.420132e+002, 2.207227e+002
9.424953e+002, 2.214193e+002
9.429774e+002, 2.221091e+002
9.434595e+002, 2.219892e+002
9.439417e+002, 2.213427e+002
9.444238e+002, 2.209722e+002
9.449059e+002, 2.210871e+002
9.453880e+002, 2.212716e+002
9.458701e+002, 2.215129e+002
9.463522e+002, 2.216351e+002
9.468344e+002, 2.214853e+002
9.473165e+002, 2.211638e+002
9.477986e+002, 2.207052e+002
9.482807e+002, 2.201988e+002
9.487628e+002, 2.199477e+002
9.492449e+002, 2.202154e+002
9.497271e+002, 2.205296e+002
9.502092e+002, 2.202870e+002
9.506913e+002, 2.198862e+002
9.511734e+002, 2.200597e+002
9.516555e+002, 2.206539e+002
9.521376e+002, 2.209448e+002
9.526198e+002, 2.207177e+002
9.531019e+002, 2.205428e+002
9.535840e+002, 2.210669e+002
9.540661e+002, 2.219061e+002
9.545482e+002, 2.221190e+002
9.550303e+002, 2.217728e+002
9.555124e+002, 2.211741e+002
9.559945e+002, 2.203677e+002
9.564766e+002, 2.199852e+002
9.569587e+002, 2.204100e+002
9.574409e+002, 2.211724e+002
9.579230e+002, 2.214679e+002
9.584051e+002, 2.213149e+002
9.588872e+002, 2.218727e+002
9.593693e+002, 2.235744e+002
9.598514e+002, 2.239365e+002
9.603336e+002, 2.217220e+002
9.608157e+002, 2.197251e+002
9.612978e+002, 2.204148e+002
9.617799e+002, 2.226445e+002
9.622620e+002, 2.230917e+002
9.627441e+002, 2.208866e+002
9.632263e+002, 2.195920e+002
9.637084e+002, 2.197563e+002
9.641905e+002, 2.201032e+002
9.646726e+002, 2.204365e+002
9.651547e+002, 2.206935e+002
9.656368e+002, 2.207410e+002
9.661190e+002, 2.206502e+002
9.666011e+002, 2.207730e+002
9.670832e+002, 2.214890e+002
9.675653e+002, 2.217355e+002
9.680474e+002, 2.207289e+002
9.685295e+002, 2.197955e+002
9.690117e+002, 2.198704e+002
9.694938e+002, 2.203807e+002
9.699759e+002, 2.204478e+002
9.704580e+002, 2.200398e+002
9.709401e+002, 2.199168e+002
9.714222e+002, 2.205862e+002
9.719044e+002, 2.213421e+002
9.723865e+002, 2.218585e+002
9.728686e+002, 2.221447e+002
9.733507e+002, 2.220625e+002
9.738328e+002, 2.217896e+002
9.743149e+002, 2.217247e+002
9.747971e+002, 2.219696e+002
9.752792e+002, 2.222289e+002
9.757613e+002, 2.222917e+002
9.762434e+002, 2.222157e+002
9.767255e+002, 2.221084e+002
9.772076e+002, 2.219104e+002
9.776898e+002, 2.212973e+002
9.781719e+002, 2.203994e+002
9.786540e+002, 2.199914e+002
9.791361e+002, 2.204373e+002
9.796182e+002, 2.213114e+002
9.801003e+002, 2.222813e+002
9.805825e+002, 2.231853e+002
9.810646e+002, 2.233367e+002
9.815467e+002, 2.228266e+002
9.820288e+002, 2.223140e+002
9.825109e+002, 2.219326e+002
9.829930e+002, 2.219130e+002
9.834752e+002, 2.224533e+002
9.839573e+002, 2.232268e+002
9.844394e+002, 2.235476e+002
9.849215e+002, 2.234096e+002
9.854036e+002, 2.237023e+002
9.858857e+002, 2.244895e+002
9.863679e+002, 2.254051e+002
9.868500e+002, 2.264914e+002
9.873321e+002, 2.272194e+002
9.878142e+002, 2.270253e+002
9.882963e+002, 2.262662e+002
9.887784e+002, 2.260728e+002
9.892606e+002, 2.265728e+002
9.897427e+002, 2.272258e+002
9.902248e+002, 2.283074e+002
9.907069e+002, 2.289816e+002
9.911890e+002, 2.286380e+002
9.916711e+002, 2.281742e+002
9.921533e+002, 2.285627e+002
9.926354e+002, 2.296228e+002
9.931175e+002, 2.302778e+002
9.935996e+002, 2.304483e+002
9.940817e+002, 2.303591e+002
9.945638e+002, 2.296134e+002
9.950460e+002, 2.290879e+002
9.955281e+002, 2.294738e+002
9.960102e+002, 2.300042e+002
9.964923e+002, 2.296594e+002
9.969744e+002, 2.285719e+002
9.974565e+002, 2.280231e+002
9.979387e+002, 2.285050e+002
9.984208e+002, 2.291219e+002
9.989029e+002, 2.298793e+002
9.993850e+002, 2.304629e+002
9.998671e+002, 2.306071e+002
1.000349e+003, 2.304812e+002
1.000831e+003, 2.302536e+002
1.001313e+003, 2.299876e+002
1.001796e+003, 2.298920e+002
1.002278e+003, 2.302682e+002
1.002760e+003, 2.305063e+002
1.003242e+003, 2.302168e+002
1.003724e+003, 2.296894e+002
1.004206e+003, 2.290565e+002
1.004688e+003, 2.284431e+002
1.005170e+003, 2.280596e+002
1.005653e+003, 2.279321e+002
1.006135e+003, 2.277812e+002
1.006617e+003, 2.273472e+002
1.007099e+003, 2.269263e+002
1.007581e+003, 2.269817e+002
1.008063e+003, 2.271099e+002
1.008545e+003, 2.266157e+002
1.009027e+003, 2.256712e+002
1.009509e+003, 2.249303e+002
1.009992e+003, 2.246199e+002
1.010474e+003, 2.244574e+002
1.010956e+003, 2.242945e+002
1.011438e+003, 2.240306e+002
1.011920e+003, 2.233994e+002
1.012402e+003, 2.225821e+002
1.012884e+003, 2.219815e+002
1.013366e+003, 2.216328e+002
1.013849e+003, 2.214492e+002
1.014331e+003, 2.213867e+002
1.014813e+003, 2.213265e+002
1.015295e+003, 2.211422e+002
1.015777e+003, 2.208559e+002
1.016259e+003, 2.205486e+002
1.016741e+003, 2.201925e+002
1.017223e+003, 2.195780e+002
1.017705e+003, 2.187139e+002
1.018188e+003, 2.180205e+002
1.018670e+003, 2.177186e+002
1.019152e+003, 2.176099e+002
1.019634e+003, 2.174393e+002
1.020116e+003, 2.172207e+002
1.020598e+003, 2.170461e+002
1.021080e+003, 2.169100e+002
1.021562e+003, 2.166085e+002
1.022044e+003, 2.160930e+002
1.022527e+003, 2.156741e+002
1.023009e+003, 2.155451e+002
1.023491e+003, 2.155410e+002
1.023973e+003, 2.154107e+002
1.024455e+003, 2.151554e+002
1.024937e+003, 2.147617e+002
1.025419e+003, 2.141980e+002
1.025901e+003, 2.137770e+002
1.026384e+003, 2.135571e+002
1.026866e+003, 2.135306e+002
1.027348e+003, 2.138094e+002
1.027830e+003, 2.140061e+002
1.028312e+003, 2.132641e+002
1.028794e+003, 2.115013e+002
1.029276e+003, 2.108565e+002
1.029758e+003, 2.116975e+002
1.030240e+003, 2.123911e+002
1.030723e+003, 2.127105e+002
1.031205e+003, 2.126107e+002
1.031687e+003, 2.118616e+002
1.032169e+003, 2.108925e+002
1.032651e+003, 2.106186e+002
1.033133e+003, 2.111502e+002
1.033615e+003, 2.114335e+002
1.034097e+003, 2.113465e+002
1.034579e+003, 2.112781e+002
1.035062e+003, 2.113684e+002
1.035544e+003, 2.113771e+002
1.036026e+003, 2.110282e+002
1.036508e+003, 2.105598e+002
1.036990e+003, 2.105239e+002
1.037472e+003, 2.110502e+002
1.037954e+003, 2.112737e+002
1.038436e+003, 2.110277e+002
1.038919e+003, 2.107395e+002
1.039401e+003, 2.103437e+002
1.039883e+003, 2.100796e+002
1.040365e+003, 2.101422e+002
1.040847e+003, 2.104348e+002
1.041329e+003, 2.109064e+002
1.041811e+003, 2.117845e+002
1.042293e+003, 2.116582e+002
1.042776e+003, 2.089641e+002
1.043258e+003, 2.074291e+002
1.043740e+003, 2.087505e+002
1.044222e+003, 2.104250e+002
1.044704e+003, 2.108917e+002
1.045186e+003, 2.105507e+002
1.045668e+003, 2.101787e+002
1.046150e+003, 2.098016e+002
1.046632e+003, 2.095676e+002
1.047115e+003, 2.095740e+002
1.047597e+003, 2.096113e+002
1.048079e+003, 2.096461e+002
1.048561e+003, 2.096766e+002
1.049043e+003, 2.097373e+002
1.049525e+003, 2.097795e+002
1.050007e+003, 2.096725e+002
1.050489e+003, 2.093773e+002
1.050971e+003, 2.092391e+002
1.051454e+003, 2.094761e+002
1.051936e+003, 2.096711e+002
1.052418e+003, 2.097195e+002
1.052900e+003, 2.096642e+002
1.053382e+003, 2.094728e+002
1.053864e+003, 2.092279e+002
1.054346e+003, 2.090938e+002
1.054828e+003, 2.090974e+002
1.055311e+003, 2.090132e+002
1.055793e+003, 2.085737e+002
1.056275e+003, 2.083193e+002
1.056757e+003, 2.086702e+002
1.057239e+003, 2.090459e+002
1.057721e+003, 2.089459e+002
1.058203e+003, 2.085879e+002
1.058685e+003, 2.084107e+002
1.059167e+003, 2.084785e+002
1.059650e+003, 2.084735e+002
1.060132e+003, 2.081436e+002
1.060614e+003, 2.079239e+002
1.061096e+003, 2.080946e+002
1.061578e+003, 2.083235e+002
1.062060e+003, 2.083345e+002
1.062542e+003, 2.082352e+002
1.063024e+003, 2.082180e+002
1.063506e+003, 2.083144e+002
1.063989e+003, 2.084706e+002
1.064471e+003, 2.087634e+002
1.064953e+003, 2.089748e+002
1.065435e+003, 2.091166e+002
1.065917e+003, 2.090424e+002
1.066399e+003, 2.084872e+002
1.066881e+003, 2.077170e+002
1.067363e+003, 2.070831e+002
1.067846e+003, 2.066625e+002
1.068328e+003, 2.064781e+002
1.068810e+003, 2.066496e+002
1.069292e+003, 2.068670e+002
1.069774e+003, 2.070771e+002
1.070256e+003, 2.071974e+002
1.070738e+003, 2.071606e+002
1.071220e+003, 2.069995e+002
1.071703e+003, 2.066958e+002
1.072185e+003, 2.062991e+002
1.072667e+003, 2.060650e+002
1.073149e+003, 2.062480e+002
1.073631e+003, 2.062349e+002
1.074113e+003, 2.053523e+002
1.074595e+003, 2.045760e+002
1.075077e+003, 2.048120e+002
1.075559e+003, 2.054612e+002
1.076042e+003, 2.057280e+002
1.076524e+003, 2.055637e+002
1.077006e+003, 2.053102e+002
1.077488e+003, 2.049988e+002
1.077970e+003, 2.048840e+002
1.078452e+003, 2.052587e+002
1.078934e+003, 2.056785e+002
1.079416e+003, 2.060101e+002
1.079898e+003, 2.061008e+002
1.080380e+003, 2.056530e+002
1.080863e+003, 2.048162e+002
1.081345e+003, 2.040832e+002
1.081827e+003, 2.035613e+002
1.082309e+003, 2.033834e+002
1.082791e+003, 2.039436e+002
1.083273e+003, 2.044743e+002
1.083755e+003, 2.044378e+002
1.084237e+003, 2.041773e+002
1.084720e+003, 2.041045e+002
1.085202e+003, 2.041431e+002
1.085684e+003, 2.039241e+002
1.086166e+003, 2.033094e+002
1.086648e+003, 2.028668e+002
1.087130e+003, 2.029793e+002
1.087612e+003, 2.031443e+002
1.088094e+003, 2.031590e+002
1.088577e+003, 2.030549e+002
1.089059e+003, 2.027789e+002
1.089541e+003, 2.024430e+002
1.090023e+003, 2.022194e+002
1.090505e+003, 2.021427e+002
1.090987e+003, 2.023418e+002
1.091469e+003, 2.032910e+002
1.091951e+003, 2.039632e+002
1.092433e+003, 2.037135e+002
1.092916e+003, 2.032214e+002
1.093398e+003, 2.030292e+002
1.093880e+003, 2.029739e+002
1.094362e+003, 2.026609e+002
1.094844e+003, 2.020645e+002
1.095326e+003, 2.016413e+002
1.095808e+003, 2.016819e+002
1.096290e+003, 2.017020e+002
1.096772e+003, 2.014391e+002
1.097255e+003, 2.012185e+002
1.097737e+003, 2.013371e+002
1.098219e+003, 2.015668e+002
1.098701e+003, 2.015184e+002
1.099183e+003, 2.012305e+002
1.099665e+003, 2.012181e+002
1.100147e+003, 2.018667e+002
1.100629e+003, 2.022313e+002
1.101112e+003, 2.017644e+002
1.101594e+003, 2.013164e+002
1.102076e+003, 2.013926e+002
1.102558e+003, 2.016302e+002
1.103040e+003, 2.016954e+002
1.103522e+003, 2.015634e+002
1.104004e+003, 2.012471e+002
1.104486e+003, 2.006737e+002
1.104969e+003, 2.001517e+002
1.105451e+003, 1.995397e+002
1.105933e+003, 1.992447e+002
1.106415e+003, 1.996730e+002
1.106897e+003, 2.002285e+002
1.107379e+003, 2.004492e+002
1.107861e+003, 2.004181e+002
1.108343e+003, 2.004165e+002
1.108825e+003, 2.005195e+002
1.109307e+003, 2.003362e+002
1.109790e+003, 1.995048e+002
1.110272e+003, 1.988506e+002
1.110754e+003, 1.986533e+002
1.111236e+003, 1.985591e+002
1.111718e+003, 1.982627e+002
1.112200e+003, 1.979754e+002
1.112682e+003, 1.981550e+002
1.113164e+003, 1.988463e+002
1.113647e+003, 1.991367e+002
1.114129e+003, 1.988929e+002
1.114611e+003, 1.984616e+002
1.115093e+003, 1.975363e+002
1.115575e+003, 1.968800e+002
1.116057e+003, 1.969059e+002
1.116539e+003, 1.972853e+002
1.117021e+003, 1.977561e+002
1.117504e+003, 1.982657e+002
1.117986e+003, 1.983924e+002
1.118468e+003, 1.977941e+002
1.118950e+003, 1.976472e+002
1.119432e+003, 1.982227e+002
1.119914e+003, 1.987270e+002
1.120396e+003, 1.989255e+002
1.120878e+003, 1.989449e+002
1.121360e+003, 1.988558e+002
1.121843e+003, 1.986974e+002
1.122325e+003, 1.985795e+002
1.122807e+003, 1.984953e+002
1.123289e+003, 1.985505e+002
1.123771e+003, 1.989128e+002
1.124253e+003, 1.987655e+002
1.124735e+003, 1.977136e+002
1.125217e+003, 1.968094e+002
1.125699e+003, 1.967571e+002
1.126182e+003, 1.971732e+002
1.126664e+003, 1.974210e+002
1.127146e+003, 1.975093e+002
1.127628e+003, 1.976026e+002
1.128110e+003, 1.977075e+002
1.128592e+003, 1.977568e+002
1.129074e+003, 1.977456e+002
1.129556e+003, 1.976042e+002
1.130039e+003, 1.972671e+002
1.130521e+003, 1.969862e+002
1.131003e+003, 1.970647e+002
1.131485e+003, 1.974074e+002
1.131967e+003, 1.976966e+002
1.132449e+003, 1.979336e+002
1.132931e+003, 1.981709e+002
1.133413e+003, 1.984086e+002
1.133896e+003, 1.984834e+002
1.134378e+003, 1.983461e+002
1.134860e+003, 1.980964e+002
1.135342e+003, 1.977838e+002
1.135824e+003, 1.975528e+002
1.136306e+003, 1.978102e+002
1.136788e+003, 1.983574e+002
1.137270e+003, 1.983488e+002
1.137752e+003, 1.978961e+002
1.138234e+003, 1.975790e+002
1.138717e+003, 1.974983e+002
1.139199e+003, 1.975187e+002
1.139681e+003, 1.975716e+002
1.140163e+003, 1.975541e+002
1.140645e+003, 1.973153e+002
1.141127e+003, 1.969620e+002
1.141609e+003, 1.966296e+002
1.142091e+003, 1.963581e+002
1.142574e+003, 1.962944e+002
1.143056e+003, 1.963787e+002
1.143538e+003, 1.963400e+002
1.144020e+003, 1.961199e+002
1.144502e+003, 1.959934e+002
1.144984e+003, 1.961577e+002
1.145466e+003, 1.964881e+002
1.145948e+003, 1.971042e+002
1.146431e+003, 1.976077e+002
1.146913e+003, 1.971922e+002
1.147395e+003, 1.964169e+002
1.147877e+003, 1.965096e+002
1.148359e+003, 1.974069e+002
1.148841e+003, 1.978808e+002
1.149323e+003, 1.973559e+002
1.149805e+003, 1.967243e+002
1.150287e+003, 1.965781e+002
1.150770e+003, 1.964910e+002
1.151252e+003, 1.960725e+002
1.151734e+003, 1.956164e+002
1.152216e+003, 1.955112e+002
1.152698e+003, 1.956253e+002
1.153180e+003, 1.955137e+002
1.153662e+003, 1.950870e+002
1.154144e+003, 1.949986e+002
1.154626e+003, 1.958675e+002
1.155109e+003, 1.965416e+002
1.155591e+003, 1.965494e+002
1.156073e+003, 1.963507e+002
1.156555e+003, 1.961089e+002
1.157037e+003, 1.959111e+002
1.157519e+003, 1.958662e+002
1.158001e+003, 1.959580e+002
1.158483e+003, 1.960545e+002
1.158966e+003, 1.962994e+002
1.159448e+003, 1.962137e+002
1.159930e+003, 1.953512e+002
1.160412e+003, 1.947260e+002
1.160894e+003, 1.946685e+002
1.161376e+003, 1.948674e+002
1.161858e+003, 1.952038e+002
1.162340e+003, 1.955764e+002
1.162822e+003, 1.957781e+002
1.163305e+003, 1.958129e+002
1.163787e+003, 1.955778e+002
1.164269e+003, 1.947845e+002
1.164751e+003, 1.946526e+002
1.165233e+003, 1.956412e+002
1.165715e+003, 1.963669e+002
1.166197e+003, 1.960220e+002
1.166679e+003, 1.955757e+002
1.167161e+003, 1.963075e+002
1.167644e+003, 1.977592e+002
1.168126e+003, 1.978978e+002
1.168608e+003, 1.966640e+002
1.169090e+003, 1.960127e+002
1.169572e+003, 1.960469e+002
1.170054e+003, 1.958885e+002
1.170536e+003, 1.952937e+002
1.171018e+003, 1.947491e+002
1.171500e+003, 1.945938e+002
1.171983e+003, 1.946471e+002
1.172465e+003, 1.945653e+002
1.172947e+003, 1.944733e+002
1.173429e+003, 1.950324e+002
1.173911e+003, 1.959469e+002
1.174393e+003, 1.958597e+002
1.174875e+003, 1.948721e+002
1.175357e+003, 1.945314e+002
1.175840e+003, 1.953496e+002
1.176322e+003, 1.959676e+002
1.176804e+003, 1.950788e+002
1.177286e+003, 1.938613e+002
1.177768e+003, 1.938720e+002
1.178250e+003, 1.944195e+002
1.178732e+003, 1.946076e+002
1.179214e+003, 1.944851e+002
1.179697e+003, 1.941552e+002
1.180179e+003, 1.937590e+002
1.180661e+003, 1.937425e+002
1.181143e+003, 1.943547e+002
1.181625e+003, 1.948180e+002
1.182107e+003, 1.944478e+002
1.182589e+003, 1.940262e+002
1.183071e+003, 1.941384e+002
1.183553e+003, 1.943762e+002
1.184036e+003, 1.942725e+002
1.184518e+003, 1.940182e+002
1.185000e+003, 1.940574e+002
1.185482e+003, 1.944361e+002
1.185964e+003, 1.947460e+002
1.186446e+003, 1.950611e+002
1.186928e+003, 1.950360e+002
1.187410e+003, 1.942878e+002
1.187892e+003, 1.935969e+002
1.188375e+003, 1.932357e+002
1.188857e+003, 1.931325e+002
1.189339e+003, 1.932346e+002
1.189821e+003, 1.935327e+002
1.190303e+003, 1.940916e+002
1.190785e+003, 1.951001e+002
1.191267e+003, 1.951574e+002
1.191749e+003, 1.936813e+002
1.192232e+003, 1.929391e+002
1.192714e+003, 1.934935e+002
1.193196e+003, 1.942376e+002
1.193678e+003, 1.946798e+002
1.194160e+003, 1.948737e+002
1.194642e+003, 1.948845e+002
1.195124e+003, 1.946952e+002
1.195606e+003, 1.940961e+002
1.196089e+003, 1.931221e+002
1.196571e+003, 1.928842e+002
1.197053e+003, 1.933936e+002
1.197535e+003, 1.938621e+002
1.198017e+003, 1.940757e+002
1.198499e+003, 1.938645e+002
1.198981e+003, 1.930838e+002
1.199463e+003, 1.924005e+002
1.199945e+003, 1.929537e+002
1.200427e+003, 1.940320e+002
1.200910e+003, 1.940927e+002
1.201392e+003, 1.936114e+002
1.201874e+003, 1.937553e+002
1.202356e+003, 1.943489e+002
1.202838e+003, 1.944879e+002
1.203320e+003, 1.939554e+002
1.203802e+003, 1.931593e+002
1.204284e+003, 1.921416e+002
1.204767e+003, 1.915275e+002
1.205249e+003, 1.921943e+002
1.205731e+003, 1.930302e+002
1.206213e+003, 1.930368e+002
1.206695e+003, 1.927269e+002
1.207177e+003, 1.928047e+002
1.207659e+003, 1.931449e+002
1.208141e+003, 1.932358e+002
1.208624e+003, 1.929699e+002
1.209106e+003, 1.925982e+002
1.209588e+003, 1.919337e+002
1.210070e+003, 1.915421e+002
1.210552e+003, 1.917224e+002
1.211034e+003, 1.919823e+002
1.211516e+003, 1.921382e+002
1.211998e+003, 1.921995e+002
1.212480e+003, 1.921284e+002
1.212963e+003, 1.919793e+002
1.213445e+003, 1.919990e+002
1.213927e+003, 1.922945e+002
1.214409e+003, 1.921427e+002
1.214891e+003, 1.913499e+002
1.215373e+003, 1.908987e+002
1.215855e+003, 1.910216e+002
1.216337e+003, 1.912749e+002
1.216819e+003, 1.914381e+002
1.217302e+003, 1.915642e+002
1.217784e+003, 1.917395e+002
1.218266e+003, 1.918945e+002
1.218748e+003, 1.917463e+002
1.219230e+003, 1.913764e+002
1.219712e+003, 1.911899e+002
1.220194e+003, 1.911803e+002
1.220676e+003, 1.911562e+002
1.221159e+003, 1.910943e+002
1.221641e+003, 1.911895e+002
1.222123e+003, 1.915559e+002
1.222605e+003, 1.918796e+002
1.223087e+003, 1.916366e+002
1.223569e+003, 1.913917e+002
1.224051e+003, 1.921394e+002
1.224533e+003, 1.930093e+002
1.225016e+003, 1.925373e+002
1.225498e+003, 1.913976e+002
1.225980e+003, 1.912451e+002
1.226462e+003, 1.921418e+002
1.226944e+003, 1.924910e+002
1.227426e+003, 1.914395e+002
1.227908e+003, 1.906898e+002
1.228390e+003, 1.911181e+002
1.228872e+003, 1.915772e+002
1.229354e+003, 1.915578e+002
1.229837e+003, 1.914110e+002
1.230319e+003, 1.915275e+002
1.230801e+003, 1.916550e+002
1.231283e+003, 1.912276e+002
1.231765e+003, 1.902759e+002
1.232247e+003, 1.899081e+002
1.232729e+003, 1.905102e+002
1.233211e+003, 1.904020e+002
1.233694e+003, 1.891278e+002
1.234176e+003, 1.886262e+002
1.234658e+003, 1.896643e+002
1.235140e+003, 1.907715e+002
1.235622e+003, 1.908706e+002
1.236104e+003, 1.904828e+002
1.236586e+003, 1.905100e+002
1.237068e+003, 1.908106e+002
1.237551e+003, 1.907626e+002
1.238033e+003, 1.904447e+002
1.238515e+003, 1.902216e+002
1.238997e+003, 1.900923e+002
1.239479e+003, 1.897680e+002
1.239961e+003, 1.892244e+002
1.240443e+003, 1.889499e+002
1.240925e+003, 1.893126e+002
1.241407e+003, 1.897369e+002
1.241890e+003, 1.895946e+002
1.242372e+003, 1.893259e+002
1.242854e+003, 1.894116e+002
1.243336e+003, 1.895915e+002
1.243818e+003, 1.894325e+002
1.244300e+003, 1.891302e+002
1.244782e+003, 1.892629e+002
1.245264e+003, 1.898687e+002
1.245746e+003, 1.901231e+002
1.246229e+003, 1.895397e+002
1.246711e+003, 1.890979e+002
1.247193e+003, 1.888797e+002
1.247675e+003, 1.889465e+002
1.248157e+003, 1.896159e+002
1.248639e+003, 1.902072e+002
1.249121e+003, 1.901721e+002
1.249603e+003, 1.898174e+002
1.250085e+003, 1.896812e+002
1.250568e+003, 1.897549e+002
1.251050e+003, 1.899725e+002
1.251532e+003, 1.903893e+002
1.252014e+003, 1.901401e+002
1.252496e+003, 1.891123e+002
1.252978e+003, 1.889375e+002
1.253460e+003, 1.900991e+002
1.253942e+003, 1.911524e+002
1.254425e+003, 1.910950e+002
1.254907e+003, 1.904959e+002
1.255389e+003, 1.898708e+002
1.255871e+003, 1.894521e+002
1.256353e+003, 1.899543e+002
1.256835e+003, 1.908390e+002
1.257317e+003, 1.910545e+002
1.257799e+003, 1.907632e+002
1.258281e+003, 1.905865e+002
1.258764e+003, 1.906565e+002
1.259246e+003, 1.907881e+002
1.259728e+003, 1.909451e+002
1.260210e+003, 1.909967e+002
1.260692e+003, 1.906960e+002
1.261174e+003, 1.905219e+002
1.261656e+003, 1.908989e+002
1.262138e+003, 1.912883e+002
1.262620e+003, 1.912056e+002
1.263103e+003, 1.909010e+002
1.263585e+003, 1.908208e+002
1.264067e+003, 1.909255e+002
1.264549e+003, 1.908386e+002
1.265031e+003, 1.903961e+002
1.265513e+003, 1.903859e+002
1.265995e+003, 1.909928e+002
1.266477e+003, 1.910926e+002
1.266960e+003, 1.903093e+002
1.267442e+003, 1.899824e+002
1.267924e+003, 1.909326e+002
1.268406e+003, 1.919839e+002
1.268888e+003, 1.916429e+002
1.269370e+003, 1.905757e+002
1.269852e+003, 1.903105e+002
1.270334e+003, 1.905582e+002
1.270817e+003, 1.906681e+002
1.271299e+003, 1.906192e+002
1.271781e+003, 1.904042e+002
1.272263e+003, 1.901077e+002
1.272745e+003, 1.900217e+002
1.273227e+003, 1.902589e+002
1.273709e+003, 1.904955e+002
1.274191e+003, 1.905426e+002
1.274673e+003, 1.905381e+002
1.275156e+003, 1.904992e+002
1.275638e+003, 1.904904e+002
1.276120e+003, 1.904683e+002
1.276602e+003, 1.905661e+002
1.277084e+003, 1.911719e+002
1.277566e+003, 1.919819e+002
1.278048e+003, 1.919240e+002
1.278530e+003, 1.908300e+002
1.279012e+003, 1.904622e+002
1.279495e+003, 1.910459e+002
1.279977e+003, 1.915074e+002
1.280459e+003, 1.917268e+002
1.280941e+003, 1.919289e+002
1.281423e+003, 1.922034e+002
1.281905e+003, 1.923660e+002
1.282387e+003, 1.922474e+002
1.282869e+003, 1.920781e+002
1.283352e+003, 1.923935e+002
1.283834e+003, 1.928547e+002
1.284316e+003, 1.927202e+002
1.284798e+003, 1.919989e+002
##END=



