##NAMES=Crichtonite
##RRUFFID=R060314
##IDEAL CHEMISTRY=Sr(Mn,Y,U)Fe_2_(Ti,Fe,Cr,V)_18_(O,OH)_38_
##LOCALITY=Fazenda Guariba, Minas Gerais, Brazil
##OWNER=RRUFF
##SOURCE=Michael Scott
##DESCRIPTION=Black colored rhombohedral single crystal
##STATUS=The identification of this mineral has been confirmed by X-ray diffraction
##URL=https://www.rruff.net/odr/rruff_sample/R060314
##DIFFRACTION SAMPLE DESCRIPTION=Single crystal, powder profile is calculated
##CELL PARAMETERS=a: 9.164 b: 9.164 c: 9.164 alpha: 68.99 beta: 68.99 gamma: 68.99 volume: 346.7 crystal system: hexagonal
##FILETYPE=Raman RAW
##RAMAN WAVELENGTH=780

93.34912, 687.4226
95.27759, 675.1148
97.20605, 655.6759
99.13452, 634.5909
101.0630, 612.2278
102.9915, 593.6554
104.9199, 577.4454
106.8484, 564.3507
108.7769, 553.5115
110.7053, 544.9873
112.6338, 538.2564
114.5623, 532.8981
116.4907, 528.6179
118.4192, 524.3947
120.3477, 521.7289
122.2761, 521.3375
124.2046, 521.7157
126.1331, 521.5936
128.0615, 520.9855
129.9900, 521.3568
131.9185, 523.2882
133.8469, 524.4096
135.7754, 523.4880
137.7039, 522.3629
139.6323, 522.4842
141.5608, 523.5629
143.4893, 523.5787
145.4177, 522.0820
147.3462, 521.0873
149.2747, 521.0380
151.2031, 521.4809
153.1316, 522.3690
155.0601, 523.4894
156.9885, 524.0424
158.9170, 523.9152
160.8455, 523.8679
162.7739, 523.8151
164.7024, 524.2360
166.6309, 525.7326
168.5593, 527.7379
170.4878, 529.0803
172.4163, 529.7672
174.3447, 529.7405
176.2732, 528.0613
178.2017, 527.3683
180.1301, 530.0047
182.0586, 533.2720
183.9871, 532.9070
185.9155, 529.1052
187.8440, 527.2495
189.7725, 528.2730
191.7009, 529.6986
193.6294, 531.4495
195.5579, 532.6235
197.4863, 531.7993
199.4148, 529.5209
201.3433, 528.9514
203.2717, 530.4832
205.2002, 531.9213
207.1287, 532.4623
209.0571, 532.9578
210.9856, 533.8652
212.9141, 535.0146
214.8425, 536.1430
216.7710, 537.2766
218.6995, 537.8561
220.6279, 536.8598
222.5564, 536.6210
224.4849, 537.9766
226.4133, 540.3218
228.3418, 543.6792
230.2703, 547.5734
232.1987, 549.5961
234.1272, 548.6266
236.0557, 547.9053
237.9841, 548.2461
239.9126, 548.7912
241.8411, 548.5665
243.7695, 548.3057
245.6980, 549.7392
247.6265, 553.2662
249.5549, 555.5026
251.4834, 555.0570
253.4119, 554.5369
255.3403, 554.4695
257.2688, 554.8361
259.1973, 555.7334
261.1257, 557.0709
263.0542, 558.4122
264.9827, 559.8192
266.9111, 561.0263
268.8396, 561.7119
270.7681, 562.4818
272.6965, 563.9945
274.6250, 565.5684
276.5535, 566.0729
278.4819, 565.3008
280.4104, 565.4149
282.3389, 567.1024
284.2673, 568.8441
286.1958, 570.6874
288.1243, 572.2826
290.0527, 573.3797
291.9812, 574.0585
293.9097, 574.3629
295.8381, 573.7447
297.7666, 574.3055
299.6951, 576.7828
301.6235, 579.1783
303.5520, 581.3497
305.4805, 582.7351
307.4089, 582.3240
309.3374, 580.6795
311.2659, 580.8779
313.1943, 584.3953
315.1228, 586.1221
317.0513, 584.6447
318.9797, 583.6484
320.9082, 585.3167
322.8367, 587.6816
324.7651, 589.0536
326.6936, 589.5552
328.6221, 590.1274
330.5505, 590.7403
332.4790, 591.4797
334.4075, 592.1049
336.3359, 593.3273
338.2644, 596.5182
340.1929, 599.6004
342.1213, 600.1749
344.0498, 598.7193
345.9783, 598.6379
347.9067, 600.0564
349.8352, 601.6185
351.7637, 603.5527
353.6921, 604.7647
355.6206, 603.9865
357.5491, 603.0624
359.4775, 603.8416
361.4060, 605.8947
363.3345, 607.2371
365.2629, 607.8639
367.1914, 608.6078
369.1199, 609.6010
371.0483, 610.6804
372.9768, 612.2579
374.9053, 613.3844
376.8337, 612.4821
378.7622, 610.7353
380.6907, 611.7630
382.6191, 615.3124
384.5476, 618.0531
386.4761, 619.4251
388.4045, 620.5265
390.3330, 621.5799
392.2615, 622.6036
394.1899, 623.8860
396.1184, 625.0228
398.0469, 624.9806
399.9753, 624.1169
401.9038, 624.1938
403.8323, 625.5474
405.7607, 626.7979
407.6892, 627.4402
409.6177, 628.1912
411.5461, 629.4622
413.4746, 630.7677
415.4031, 631.3854
417.3315, 631.7205
419.2600, 632.8136
421.1885, 634.7170
423.1169, 636.4905
425.0454, 638.2003
426.9739, 639.4543
428.9023, 639.5923
430.8308, 640.0187
432.7593, 642.3889
434.6877, 644.9405
436.6162, 644.8644
438.5447, 642.9104
440.4731, 642.6541
442.4016, 644.8661
444.3301, 646.7595
446.2585, 648.3612
448.1870, 649.2573
450.1155, 648.7610
452.0439, 648.1292
453.9724, 648.0547
455.9009, 648.5566
457.8293, 650.0071
459.7578, 652.3734
461.6863, 653.6379
463.6147, 652.3715
465.5432, 652.6546
467.4717, 656.2921
469.4001, 659.0062
471.3286, 658.6160
473.2571, 657.7869
475.1855, 658.5329
477.1140, 660.0837
479.0425, 661.0664
480.9709, 661.4366
482.8994, 662.0589
484.8279, 662.8843
486.7563, 664.0372
488.6848, 665.9470
490.6133, 667.3693
492.5417, 667.7779
494.4702, 667.6580
496.3987, 666.7103
498.3271, 665.8739
500.2556, 666.9830
502.1841, 669.8632
504.1125, 671.7577
506.0410, 672.5372
507.9695, 672.9586
509.8979, 672.7830
511.8264, 673.0607
513.7549, 674.9648
515.6833, 676.1733
517.6118, 674.6793
519.5403, 672.5521
521.4688, 672.1882
523.3972, 673.1846
525.3257, 674.0020
527.2542, 674.6483
529.1826, 675.7432
531.1111, 677.5759
533.0396, 678.6744
534.9680, 678.2626
536.8965, 677.8759
538.8250, 677.8213
540.7534, 678.2657
542.6819, 679.6126
544.6104, 681.3376
546.5388, 682.7250
548.4673, 683.7198
550.3958, 684.0139
552.3242, 683.6058
554.2527, 683.6325
556.1812, 684.3732
558.1096, 685.2521
560.0381, 686.1337
561.9666, 687.1098
563.8950, 688.1241
565.8235, 689.2751
567.7520, 690.9084
569.6804, 692.5594
571.6089, 693.1506
573.5374, 693.0375
575.4658, 693.5853
577.3943, 694.8976
579.3228, 695.9626
581.2512, 696.2063
583.1797, 697.4484
585.1082, 701.6014
587.0366, 704.5500
588.9651, 703.6612
590.8936, 702.4211
592.8220, 703.8318
594.7505, 706.1418
596.6790, 706.6365
598.6074, 706.1020
600.5359, 706.7274
602.4644, 708.5833
604.3928, 710.7900
606.3213, 713.7963
608.2498, 715.7985
610.1782, 716.1743
612.1067, 716.3812
614.0352, 716.3386
615.9636, 716.7223
617.8921, 718.2896
619.8206, 720.0907
621.7490, 721.2790
623.6775, 722.1039
625.6060, 722.9359
627.5344, 723.7627
629.4629, 724.4001
631.3914, 724.6153
633.3198, 725.5916
635.2483, 728.3792
637.1768, 729.8099
639.1052, 728.8083
641.0337, 728.0492
642.9622, 728.3916
644.8906, 729.0583
646.8191, 729.5452
648.7476, 730.2455
650.6760, 731.9029
652.6045, 733.7142
654.5330, 733.7223
656.4614, 735.8224
658.3899, 733.7545
660.3184, 738.0474
662.2468, 740.1534
664.1753, 739.5668
666.1038, 739.2298
668.0322, 739.4881
669.9607, 739.9816
671.8892, 740.8029
673.8176, 741.5904
675.7461, 742.0929
677.6746, 742.6334
679.6030, 743.4758
681.5315, 744.3466
683.4600, 744.6129
685.3884, 744.7794
687.3169, 746.4114
689.2454, 747.1000
691.1738, 748.1332
693.1023, 749.7797
695.0308, 750.1726
696.9592, 751.7631
698.8877, 752.4921
700.8162, 751.6835
702.7446, 751.1603
704.6731, 751.3734
706.6016, 752.0206
708.5300, 752.9720
710.4585, 754.2910
712.3870, 756.4830
714.3154, 758.6077
716.2439, 759.9303
718.1724, 760.5594
720.1008, 760.1173
722.0293, 759.2641
723.9578, 760.2147
725.8862, 762.4698
727.8147, 763.2211
729.7432, 762.3362
731.6716, 762.3121
733.6001, 763.6164
735.5286, 764.6428
737.4570, 765.1461
739.3855, 765.4013
741.3140, 765.3074
743.2424, 765.3246
745.1709, 765.8552
747.0994, 766.2264
749.0278, 765.2373
750.9563, 764.8475
752.8848, 767.6434
754.8132, 771.0735
756.7417, 771.6311
758.6702, 773.3659
760.5986, 771.7947
762.5271, 773.5883
764.4556, 773.2106
766.3840, 770.8438
768.3125, 770.9699
770.2410, 774.3391
772.1694, 776.6773
774.0979, 777.7010
776.0264, 778.0082
777.9548, 776.8927
779.8833, 776.4023
781.8118, 777.2924
783.7402, 777.9043
785.6687, 777.2975
787.5972, 777.0678
789.5256, 777.5576
791.4541, 779.0784
793.3826, 783.3051
795.3110, 786.9871
797.2395, 786.7187
799.1680, 785.2787
801.0964, 785.8787
803.0249, 787.6866
804.9534, 789.3506
806.8818, 790.8142
808.8103, 791.8984
810.7388, 792.5832
812.6672, 792.1241
814.5957, 793.5193
816.5242, 794.6666
818.4526, 795.1332
820.3811, 797.6233
822.3096, 798.0398
824.2380, 798.6525
826.1665, 799.9284
828.0950, 800.3327
830.0234, 798.9125
831.9519, 798.5192
833.8804, 800.6918
835.8088, 802.5986
837.7373, 802.8882
839.6658, 803.0634
841.5942, 803.9968
843.5227, 804.7913
845.4512, 804.8858
847.3796, 804.6899
849.3081, 804.0436
851.2366, 803.7556
853.1650, 805.4509
855.0935, 807.5070
857.0220, 806.9059
858.9504, 805.1752
860.8789, 805.6915
862.8074, 807.6677
864.7358, 808.8679
866.6643, 809.4215
868.5928, 809.6917
870.5212, 809.7392
872.4497, 809.7650
874.3782, 809.8238
876.3066, 810.6879
878.2351, 812.4266
880.1636, 814.0403
882.0920, 815.5140
884.0205, 816.2257
885.9490, 815.8005
887.8774, 815.8660
889.8059, 817.1254
891.7344, 817.7777
893.6628, 816.8099
895.5913, 816.4968
897.5198, 817.5479
899.4482, 818.5486
901.3767, 818.9055
903.3052, 819.5304
905.2336, 821.0659
907.1621, 822.4157
909.0906, 823.2078
911.0190, 823.5775
912.9475, 823.1162
914.8760, 822.9019
916.8044, 823.8592
918.7329, 825.0663
920.6614, 825.7065
922.5898, 826.4650
924.5183, 828.4830
926.4468, 830.3881
928.3752, 830.1776
930.3037, 829.7381
932.2322, 831.7628
934.1606, 834.4537
936.0891, 835.3156
938.0176, 834.9374
939.9460, 833.8106
941.8745, 832.5803
943.8030, 832.5127
945.7314, 833.6592
947.6599, 837.0882
949.5884, 841.6996
951.5168, 842.7593
953.4453, 841.1202
955.3738, 841.1956
957.3022, 842.7123
959.2307, 843.5475
961.1592, 843.7439
963.0876, 843.9839
965.0161, 844.2582
966.9446, 845.2236
968.8730, 846.8714
970.8015, 847.4328
972.7300, 846.8621
974.6584, 848.8450
976.5869, 853.5131
978.5154, 855.0074
980.4438, 853.0429
982.3723, 852.2266
984.3008, 852.8870
986.2292, 853.9587
988.1577, 855.3834
990.0862, 856.7104
992.0146, 857.9224
993.9431, 858.4551
995.8716, 858.1869
997.8000, 857.7296
999.7285, 856.9524
1001.657, 858.4738
1003.585, 863.1420
1005.514, 865.6277
1007.442, 864.7522
1009.371, 864.5787
1011.299, 866.0775
1013.228, 865.8893
1015.156, 862.8914
1017.085, 861.2804
1019.013, 861.7857
1020.942, 863.3246
1022.870, 866.3826
1024.799, 868.3372
1026.727, 868.1144
1028.656, 868.9931
1030.584, 872.3524
1032.512, 874.0576
1034.441, 872.6197
1036.369, 872.2100
1038.298, 873.9580
1040.226, 875.2073
1042.155, 875.8109
1044.083, 875.8370
1046.012, 877.1511
1047.940, 878.4930
1049.869, 878.6269
1051.797, 879.9813
1053.726, 881.4688
1055.654, 881.7850
1057.583, 883.1561
1059.511, 884.0233
1061.439, 883.6780
1063.368, 884.4623
1065.296, 887.4651
1067.225, 889.2058
1069.153, 888.7138
1071.082, 889.3377
1073.010, 892.1048
1074.939, 893.1534
1076.867, 891.7109
1078.796, 890.2443
1080.724, 888.5759
1082.653, 888.0554
1084.581, 888.8536
1086.510, 890.5893
1088.438, 893.8278
1090.366, 894.0535
1092.295, 890.4063
1094.223, 889.6489
1096.152, 892.3745
1098.080, 894.7155
1100.009, 896.5107
1101.937, 898.3116
1103.866, 900.1191
1105.794, 900.5302
1107.723, 901.7632
1109.651, 902.5601
1111.580, 902.6907
1113.508, 903.6688
1115.437, 903.3792
1117.365, 903.2920
1119.293, 903.4695
1121.222, 904.1731
1123.150, 905.3804
1125.079, 907.3002
1127.007, 909.5414
1128.936, 910.3629
1130.864, 910.5035
1132.793, 912.6240
1134.721, 915.4636
1136.650, 915.9035
1138.578, 915.0579
1140.507, 914.4759
1142.435, 914.5959
1144.364, 916.6829
1146.292, 919.3760
1148.220, 920.4954
1150.149, 921.4110
1152.077, 924.5823
1154.006, 927.3229
1155.934, 925.8480
1157.863, 924.0523
1159.791, 925.3762
1161.720, 927.5206
1163.648, 929.8893
1165.577, 931.0856
1167.505, 929.2661
1169.434, 927.7480
1171.362, 928.3649
1173.291, 929.3864
1175.219, 930.3343
1177.147, 931.1725
1179.076, 932.3823
1181.004, 933.6923
1182.933, 934.6247
1184.861, 936.5903
1186.790, 937.5342
1188.718, 938.8438
1190.647, 941.2448
1192.575, 942.6824
1194.504, 943.0580
1196.432, 942.4905
1198.361, 943.2505
1200.289, 942.9299
1202.218, 942.7425
1204.146, 942.9138
1206.074, 941.1221
1208.003, 941.4182
1209.931, 943.3969
1211.860, 945.3295
1213.788, 946.7528
1215.717, 944.6940
1217.645, 947.4869
1219.574, 944.9513
1221.502, 950.3935
1223.431, 952.6750
1225.359, 953.9576
1227.288, 957.4081
1229.216, 960.0332
1231.145, 958.4372
1233.073, 956.1777
1235.001, 954.7698
1236.930, 954.4869
1238.858, 956.2308
1240.787, 957.6266
1242.715, 957.4503
1244.644, 958.2779
1246.572, 961.2191
1248.501, 963.0427
1250.429, 962.7940
1252.358, 963.9212
1254.286, 966.9684
1256.215, 968.7950
1258.143, 969.1814
1260.072, 969.4145
1262.000, 969.6683
1263.928, 970.4961
1265.857, 971.6802
1267.785, 971.8468
1269.714, 971.9192
1271.642, 974.5156
1273.571, 977.7976
1275.499, 978.7081
1277.428, 978.9429
1279.356, 980.5677
1281.285, 981.9161
1283.213, 980.9680
1285.142, 980.3673
1287.070, 981.1677
1288.999, 983.3211
1290.927, 988.2394
1292.855, 991.9335
1294.784, 993.2037
1296.712, 994.0267
1298.641, 993.9643
1300.569, 995.4323
1302.498, 998.9545
1304.426, 1000.823
1306.355, 1001.057
1308.283, 1001.323
1310.212, 1001.736
1312.140, 1003.273
1314.069, 1005.195
1315.997, 1006.212
1317.926, 1006.376
1319.854, 1005.240
1321.782, 1004.008
1323.711, 1003.288
1325.639, 1003.380
1327.568, 1004.369
1329.496, 1006.519
1331.425, 1010.598
1333.353, 1013.397
1335.282, 1013.781
1337.210, 1014.806
1339.139, 1017.001
1341.067, 1018.571
1342.996, 1019.376
1344.924, 1017.590
1346.853, 1019.863
1348.781, 1016.846
1350.709, 1021.935
1352.638, 1023.341
1354.566, 1023.497
1356.495, 1026.081
1358.423, 1028.218
1360.352, 1026.504
1362.280, 1025.497
1364.209, 1028.395
1366.137, 1029.482
1368.066, 1026.251
1369.994, 1025.742
1371.923, 1029.330
1373.851, 1031.441
1375.780, 1031.720
1377.708, 1032.302
1379.636, 1033.241
1381.565, 1034.077
1383.493, 1034.850
1385.422, 1035.601
1387.350, 1036.211
1389.279, 1035.496
1391.207, 1035.887
1393.136, 1040.656
1395.064, 1044.383
1396.993, 1043.558
1398.921, 1043.755
1400.850, 1047.095
1402.778, 1048.377
1404.707, 1047.104
1406.635, 1045.990
1408.563, 1045.319
1410.492, 1047.511
1412.420, 1047.998
1414.349, 1051.810
1416.277, 1052.072
1418.206, 1056.477
1420.134, 1059.568
1422.063, 1055.496
1423.991, 1052.598
1425.920, 1054.855
1427.848, 1057.611
1429.777, 1060.027
1431.705, 1062.158
1433.634, 1064.029
1435.562, 1065.629
1437.490, 1066.850
1439.419, 1066.481
1441.347, 1065.368
1443.276, 1064.821
1445.204, 1065.088
1447.133, 1067.189
1449.061, 1068.961
1450.990, 1069.360
1452.918, 1069.281
1454.847, 1068.879
1456.775, 1068.572
1458.704, 1068.373
1460.632, 1070.641
1462.561, 1074.783
1464.489, 1074.299
1466.417, 1077.566
1468.346, 1075.839
1470.274, 1080.439
1472.203, 1079.248
1474.131, 1077.697
1476.060, 1079.212
1477.988, 1079.899
1479.917, 1078.338
1481.845, 1079.976
1483.774, 1078.036
1485.702, 1083.691
1487.631, 1076.969
1489.559, 1077.111
1491.488, 1081.085
1493.416, 1085.408
1495.344, 1087.808
1497.273, 1084.497
1499.201, 1081.308
1501.130, 1080.560
1503.058, 1081.323
1504.987, 1083.982
1506.915, 1086.061
1508.844, 1087.519
1510.772, 1088.267
1512.701, 1088.498
1514.629, 1088.447
1516.558, 1088.211
1518.486, 1087.006
1520.415, 1086.893
1522.343, 1090.091
1524.271, 1092.505
1526.200, 1093.562
1528.128, 1092.086
1530.057, 1093.301
1531.985, 1093.156
1533.914, 1092.947
1535.842, 1093.901
1537.771, 1093.720
1539.699, 1094.907
1541.628, 1096.420
1543.556, 1097.573
1545.485, 1099.413
1547.413, 1102.513
1549.342, 1104.632
1551.270, 1105.506
1553.198, 1106.946
1555.127, 1108.047
1557.055, 1104.781
1558.984, 1101.398
1560.912, 1103.880
1562.841, 1106.409
1564.769, 1106.290
1566.698, 1106.994
1568.626, 1109.313
1570.555, 1110.889
1572.483, 1111.517
1574.412, 1112.032
1576.340, 1112.558
1578.269, 1113.560
1580.197, 1114.630
1582.125, 1115.951
1584.054, 1116.258
1585.982, 1114.941
1587.911, 1113.844
1589.839, 1113.148
1591.768, 1111.931
1593.696, 1110.740
1595.625, 1111.797
1597.553, 1113.472
1599.482, 1114.169
1601.410, 1114.250
1603.339, 1114.125
1605.267, 1112.642
1607.196, 1109.279
1609.124, 1108.634
1611.052, 1110.310
1612.981, 1111.780
1614.909, 1112.886
1616.838, 1113.337
1618.766, 1113.650
1620.695, 1113.581
1622.623, 1114.626
1624.552, 1114.345
1626.480, 1114.763
1628.409, 1114.938
1630.337, 1115.124
1632.266, 1116.806
1634.194, 1116.943
1636.123, 1116.822
1638.051, 1117.892
1639.979, 1117.236
1641.908, 1117.988
1643.836, 1118.415
1645.765, 1118.139
1647.693, 1118.778
1649.622, 1117.180
1651.550, 1115.773
1653.479, 1115.732
1655.407, 1118.115
1657.336, 1120.597
1659.264, 1122.792
1661.193, 1122.836
1663.121, 1121.097
1665.050, 1119.146
1666.978, 1118.143
1668.906, 1117.554
1670.835, 1117.309
1672.763, 1118.842
1674.692, 1117.698
1676.620, 1121.596
1678.549, 1121.555
1680.477, 1119.125
1682.406, 1121.169
1684.334, 1124.427
1686.263, 1126.372
1688.191, 1126.248
1690.120, 1123.087
1692.048, 1122.779
1693.977, 1125.543
1695.905, 1127.175
1697.833, 1127.667
1699.762, 1126.284
1701.690, 1125.398
1703.619, 1127.467
1705.547, 1128.808
1707.476, 1128.883
1709.404, 1127.103
1711.333, 1127.731
1713.261, 1125.260
1715.190, 1126.474
1717.118, 1123.884
1719.047, 1122.139
1720.975, 1124.484
1722.904, 1124.242
1724.832, 1121.364
1726.760, 1121.555
1728.689, 1123.167
1730.617, 1123.615
1732.546, 1123.444
1734.474, 1121.902
1736.403, 1122.888
1738.331, 1122.973
1740.260, 1122.275
1742.188, 1124.127
1744.117, 1122.233
1746.045, 1121.757
1747.974, 1123.358
1749.902, 1123.883
1751.831, 1122.277
1753.759, 1120.605
1755.688, 1119.378
1757.616, 1121.393
1759.544, 1123.613
1761.473, 1122.271
1763.401, 1122.140
1765.330, 1124.831
1767.258, 1125.644
1769.187, 1124.521
1771.115, 1123.150
1773.044, 1122.368
1774.972, 1121.898
1776.901, 1121.715
1778.829, 1122.453
1780.758, 1122.413
1782.686, 1124.837
1784.615, 1125.986
1786.543, 1126.344
1788.471, 1126.636
1790.400, 1125.996
1792.328, 1123.958
1794.257, 1121.329
1796.185, 1118.860
1798.114, 1121.266
1800.042, 1124.635
1801.971, 1124.692
1803.899, 1122.892
1805.828, 1118.585
1807.756, 1117.705
1809.685, 1119.851
1811.613, 1121.815
1813.542, 1123.283
1815.470, 1124.188
1817.398, 1124.108
1819.327, 1122.323
1821.255, 1121.477
1823.184, 1121.360
1825.112, 1120.380
1827.041, 1119.562
1828.969, 1119.801
1830.898, 1120.416
1832.826, 1121.657
1834.755, 1119.971
1836.683, 1120.510
1838.612, 1118.300
1840.540, 1119.406
1842.469, 1116.197
1844.397, 1114.858
1846.325, 1117.161
1848.254, 1115.583
1850.182, 1112.611
1852.111, 1114.608
1854.039, 1115.193
1855.968, 1110.547
1857.896, 1109.191
1859.825, 1111.734
1861.753, 1111.063
1863.682, 1108.619
1865.610, 1104.845
1867.539, 1103.554
1869.467, 1106.086
1871.396, 1107.410
1873.324, 1107.132
1875.252, 1105.059
1877.181, 1102.728
1879.109, 1100.931
1881.038, 1100.856
1882.966, 1102.525
1884.895, 1101.890
1886.823, 1100.231
1888.752, 1099.875
1890.680, 1099.725
1892.609, 1099.718
1894.537, 1097.098
1896.466, 1092.957
1898.394, 1093.473
1900.323, 1095.542
1902.251, 1097.653
1904.179, 1097.050
1906.108, 1093.067
1908.036, 1092.669
1909.965, 1094.165
1911.893, 1094.480
1913.822, 1094.486
1915.750, 1094.918
1917.679, 1093.605
1919.607, 1093.950
1921.536, 1091.878
1923.464, 1093.056
1925.393, 1092.960
1927.321, 1091.325
1929.250, 1088.031
1931.178, 1086.254
1933.106, 1085.387
1935.035, 1084.377
1936.963, 1084.320
1938.892, 1083.946
1940.820, 1085.527
1942.749, 1084.161
1944.677, 1086.228
1946.606, 1086.919
1948.534, 1082.987
1950.463, 1081.608
1952.391, 1083.098
1954.320, 1082.663
1956.248, 1081.518
1958.177, 1081.280
1960.105, 1079.657
1962.033, 1078.169
1963.962, 1075.118
1965.890, 1074.459
1967.819, 1072.649
1969.747, 1070.805
1971.676, 1069.146
1973.604, 1066.842
1975.533, 1064.823
1977.461, 1066.391
1979.390, 1066.907
1981.318, 1063.559
1983.247, 1061.888
1985.175, 1061.998
1987.104, 1063.201
1989.032, 1064.509
1990.960, 1066.038
1992.889, 1064.171
1994.817, 1063.468
1996.746, 1058.942
1998.674, 1058.883
2000.603, 1056.429
2002.531, 1053.579
2004.460, 1050.758
2006.388, 1052.012
2008.317, 1053.530
2010.245, 1050.720
2012.174, 1048.355
2014.102, 1047.367
2016.031, 1048.093
2017.959, 1049.476
2019.887, 1051.027
2021.816, 1050.452
2023.744, 1047.011
2025.673, 1041.667
2027.601, 1037.442
2029.530, 1041.183
2031.458, 1042.725
2033.387, 1039.021
2035.315, 1037.417
2037.244, 1037.175
2039.172, 1037.218
2041.101, 1036.273
2043.029, 1034.014
2044.958, 1030.115
2046.886, 1026.943
2048.814, 1030.405
2050.743, 1033.063
2052.671, 1032.737
2054.600, 1029.540
2056.528, 1025.346
2058.457, 1023.026
2060.385, 1022.468
2062.314, 1023.838
2064.242, 1019.836
2066.171, 1014.284
2068.099, 1014.667
2070.028, 1015.749
2071.956, 1015.920
2073.885, 1014.224
2075.813, 1011.616
2077.741, 1008.778
2079.670, 1008.465
2081.598, 1007.330
2083.527, 1010.958
2085.455, 1006.459
2087.384, 1007.312
2089.312, 1005.349
2091.241, 1003.125
2093.169, 1003.133
2095.098, 999.6064
2097.026, 996.8954
2098.955, 995.6375
2100.883, 995.8679
2102.812, 995.9504
2104.740, 993.4590
2106.668, 984.7552
2108.597, 980.6071
2110.525, 982.2070
2112.454, 984.1897
2114.382, 985.7203
2116.311, 986.7849
2118.239, 984.0071
2120.168, 978.4805
2122.096, 975.5160
2124.025, 974.9167
2125.953, 976.5378
2127.882, 979.7126
2129.810, 982.0015
2131.739, 975.3868
2133.667, 970.6172
2135.595, 971.4891
2137.524, 968.6907
2139.452, 964.7292
2141.381, 965.6988
2143.309, 964.3040
2145.238, 959.3312
2147.166, 957.6567
2149.095, 957.0952
2151.023, 954.9125
2152.952, 953.6514
2154.880, 953.4869
2156.809, 953.8470
2158.737, 954.2350
2160.666, 954.4030
2162.594, 954.4789
2164.522, 953.9272
2166.451, 951.4708
2168.379, 947.4169
2170.308, 945.4814
2172.236, 939.3845
2174.165, 939.9343
2176.093, 936.6462
2178.022, 935.2333
2179.950, 936.7455
2181.879, 935.1277
2183.807, 933.2649
2185.736, 933.6638
2187.664, 932.1239
2189.593, 928.9728
2191.521, 926.9918
2193.449, 924.8429
2195.378, 921.9704
2197.306, 922.2934
2199.235, 922.6351
2201.163, 916.5623
2203.092, 911.5663
2205.020, 909.3972
2206.949, 912.6947
2208.877, 914.9861
2210.806, 911.3132
2212.734, 909.1480
2214.663, 907.7054
2216.591, 901.1252
2218.520, 897.7019
2220.448, 899.6475
2222.376, 902.3646
2224.305, 903.6187
2226.233, 900.1522
2228.162, 897.2279
2230.090, 894.9705
2232.019, 892.7097
2233.947, 890.7854
2235.876, 888.9781
2237.804, 887.7549
2239.733, 885.4325
2241.661, 884.4842
2243.590, 884.1897
2245.518, 884.2326
2247.447, 884.2653
2249.375, 883.3123
2251.303, 883.3470
2253.232, 880.2012
2255.160, 881.9611
2257.089, 878.6804
2259.017, 876.1960
2260.946, 875.6129
2262.874, 871.8015
2264.803, 868.8887
2266.731, 869.7311
2268.660, 869.3600
2270.588, 867.6716
2272.517, 864.5515
2274.445, 862.9701
2276.374, 859.5072
2278.302, 858.1547
2280.230, 853.2577
2282.159, 851.4778
2284.087, 849.7288
2286.016, 848.4788
2287.944, 849.7780
2289.873, 850.2000
2291.801, 849.2638
2293.730, 848.5278
2295.658, 847.7301
2297.587, 846.8728
2299.515, 843.9686
2301.444, 839.8640
2303.372, 834.8543
2305.301, 832.5645
2307.229, 832.2452
2309.157, 828.4590
2311.086, 825.9783
2313.014, 827.0425
2314.943, 824.2801
2316.871, 820.8674
2318.800, 820.8785
2320.728, 819.2685
2322.657, 816.6607
2324.585, 816.0613
2326.514, 814.9500
2328.442, 812.5889
2330.371, 810.5228
2332.299, 808.3719
2334.228, 806.0741
2336.156, 802.3634
2338.084, 799.0864
2340.013, 799.4615
2341.941, 798.6786
2343.870, 795.9007
2345.798, 795.7580
2347.727, 792.9655
2349.655, 792.1957
2351.584, 789.0938
2353.512, 784.6016
2355.441, 784.8444
2357.369, 782.4954
2359.298, 779.2846
2361.226, 779.7906
2363.155, 780.7090
2365.083, 780.9758
2367.011, 778.9235
2368.940, 775.8030
2370.868, 772.2949
2372.797, 770.5409
2374.725, 769.5897
2376.654, 768.8092
2378.582, 768.0253
2380.511, 767.0916
2382.439, 766.3648
2384.368, 762.4503
2386.296, 756.7999
2388.225, 756.1901
2390.153, 756.2667
2392.082, 755.7877
2394.010, 754.9247
2395.938, 753.0340
2397.867, 752.6157
2399.795, 748.8578
2401.724, 746.6261
2403.652, 745.8723
2405.581, 745.7439
2407.509, 745.0494
2409.438, 740.9734
2411.366, 737.2857
2413.295, 734.8972
2415.223, 732.3768
2417.152, 730.3510
2419.080, 728.9174
2421.009, 726.9023
2422.937, 725.2903
2424.865, 723.0130
2426.794, 721.2192
2428.722, 719.4619
2430.651, 717.0519
2432.579, 715.3041
2434.508, 714.1937
2436.436, 711.4412
2438.365, 711.6127
2440.293, 706.6000
2442.222, 705.6469
2444.150, 703.3600
2446.079, 698.9713
2448.007, 698.5305
2449.936, 698.4011
2451.864, 696.7787
2453.792, 696.0416
2455.721, 694.7498
2457.649, 691.3508
2459.578, 688.1882
2461.506, 685.8534
2463.435, 685.3205
2465.363, 684.5134
2467.292, 683.9146
2469.220, 682.6377
2471.149, 684.0025
2473.077, 679.1400
2475.006, 676.9866
2476.934, 673.4630
2478.863, 668.3250
2480.791, 667.8845
2482.719, 668.0024
2484.648, 667.1758
2486.576, 664.1561
2488.505, 661.5410
2490.433, 660.7214
2492.362, 659.8904
2494.290, 658.4033
2496.219, 655.8748
2498.147, 653.7486
2500.076, 652.1598
2502.004, 651.1672
2503.933, 649.9728
2505.861, 648.5070
2507.790, 646.7990
2509.718, 645.3417
2511.646, 643.5655
2513.575, 638.7531
2515.503, 639.4260
2517.432, 636.1385
2519.360, 636.2682
2521.289, 632.2623
2523.217, 631.3925
2525.146, 630.1486
2527.074, 628.1116
2529.003, 625.7023
2530.931, 625.1727
2532.860, 623.8125
2534.788, 621.1530
2536.717, 620.1520
2538.645, 618.9066
2540.573, 616.6971
2542.502, 613.4929
2544.430, 611.2103
2546.359, 610.7966
2548.287, 612.1564
2550.216, 613.3062
2552.144, 613.2298
2554.073, 608.1495
2556.001, 603.6996
2557.930, 603.4096
2559.858, 600.2452
2561.787, 597.5727
2563.715, 597.7005
2565.644, 596.2013
2567.572, 594.0391
2569.500, 592.0982
2571.429, 590.0802
2573.357, 587.0957
2575.286, 582.2172
2577.214, 584.1324
2579.143, 585.9520
2581.071, 581.0286
2583.000, 578.8982
2584.928, 578.0915
2586.857, 576.5793
2588.785, 574.0903
2590.714, 572.2870
2592.642, 569.7274
2594.571, 567.3959
2596.499, 566.6868
2598.427, 564.3485
2600.356, 563.0516
2602.284, 561.5338
2604.213, 557.5414
2606.141, 556.1630
2608.070, 555.4690
2609.998, 552.7858
2611.927, 553.7317
2613.855, 554.5667
2615.784, 551.4063
2617.712, 550.6285
2619.641, 544.2032
2621.569, 545.2867
2623.498, 541.5862
2625.426, 538.0686
2627.354, 539.1196
2629.283, 536.5120
2631.211, 533.3801
2633.140, 532.3215
2635.068, 529.9072
2636.997, 527.1174
2638.925, 524.7386
2640.854, 524.0282
2642.782, 524.0685
2644.711, 524.0630
2646.639, 519.3271
2648.568, 513.9079
2650.496, 510.1415
2652.425, 511.9304
2654.353, 512.1926
2656.281, 508.6734
2658.210, 509.6767
2660.138, 507.5979
2662.067, 501.0966
2663.995, 500.7743
2665.924, 499.9235
2667.852, 497.2042
2669.781, 497.8694
2671.709, 496.7477
2673.638, 493.6537
2675.566, 493.2195
2677.495, 491.3673
2679.423, 488.3929
2681.352, 487.1744
2683.280, 486.8766
2685.208, 485.9873
2687.137, 481.7840
2689.065, 477.5643
2690.994, 474.6394
2692.922, 474.3311
2694.851, 472.8267
2696.779, 470.2500
2698.708, 467.1012
2700.636, 464.0997
2702.565, 462.1515
2704.493, 459.6007
2706.422, 458.6654
2708.350, 455.5282
2710.279, 453.7377
2712.207, 451.8024
2714.135, 451.5600
2716.064, 452.9579
2717.992, 452.5581
2719.921, 450.1805
2721.849, 446.6902
2723.778, 444.6776
2725.706, 443.1233
2727.635, 441.7275
2729.563, 440.5074
2731.492, 438.5700
2733.420, 437.2257
2735.349, 435.1819
2737.277, 434.0377
2739.206, 432.7366
2741.134, 431.0476
2743.063, 429.4919
2744.991, 427.2492
2746.919, 425.4443
2748.848, 423.0486
2750.776, 421.7916
2752.705, 418.9586
2754.633, 418.0068
2756.562, 416.1957
2758.490, 413.6127
2760.419, 412.3412
2762.347, 412.0562
2764.276, 411.8426
2766.204, 410.4559
2768.133, 408.9023
2770.061, 406.1049
2771.990, 401.1552
2773.918, 398.3775
2775.846, 396.4059
2777.775, 394.4063
2779.703, 392.6058
2781.632, 391.9935
2783.560, 391.9134
2785.489, 389.4970
2787.417, 385.6118
2789.346, 382.3287
2791.274, 383.6289
2793.203, 382.9772
2795.131, 380.7473
2797.060, 377.2938
2798.988, 377.0269
2800.917, 376.0886
2802.845, 372.4561
2804.773, 372.9663
2806.702, 371.8666
2808.630, 368.7569
2810.559, 368.6427
2812.487, 366.3067
2814.416, 362.8211
2816.344, 360.7350
2818.273, 359.3227
2820.201, 358.4255
2822.130, 357.8852
2824.058, 356.7523
2825.987, 353.9971
2827.915, 353.0860
2829.844, 349.7854
2831.772, 349.6329
2833.700, 348.8213
2835.629, 346.9719
2837.557, 344.2055
2839.486, 340.5658
2841.414, 336.1681
2843.343, 336.6328
2845.271, 335.2355
2847.200, 330.7213
2849.128, 330.0889
2851.057, 328.6949
2852.985, 326.6434
2854.914, 326.0365
2856.842, 325.5461
2858.771, 324.3196
2860.699, 321.6040
2862.627, 318.9565
2864.556, 317.5452
2866.484, 317.2425
2868.413, 315.4000
2870.341, 314.0050
2872.270, 312.8370
2874.198, 311.0286
2876.127, 309.8666
2878.055, 310.1221
2879.984, 307.1390
2881.912, 306.2523
2883.841, 304.7478
2885.769, 302.3110
2887.698, 299.8952
2889.626, 299.5572
2891.554, 299.0360
2893.483, 296.2633
2895.411, 295.2060
2897.340, 293.5967
2899.268, 291.1338
2901.197, 290.2535
2903.125, 289.9791
2905.054, 288.7490
2906.982, 286.7026
2908.911, 283.1752
2910.839, 282.2479
2912.768, 279.5666
2914.696, 278.1518
2916.625, 277.6526
2918.553, 277.6383
2920.481, 277.9374
2922.410, 275.9449
2924.338, 273.2904
2926.267, 271.0922
2928.195, 269.2188
2930.124, 266.8092
2932.052, 264.6941
2933.981, 264.8956
2935.909, 263.8001
2937.838, 262.3360
2939.766, 261.3452
2941.695, 260.8135
2943.623, 259.7734
2945.552, 258.3223
2947.480, 257.3148
2949.408, 254.2956
2951.337, 252.8291
2953.265, 250.8378
2955.194, 248.8707
2957.122, 247.4552
2959.051, 245.7185
2960.979, 245.1837
2962.908, 244.2670
2964.836, 243.4201
2966.765, 242.7741
2968.693, 240.8566
2970.622, 240.3717
2972.550, 240.3721
2974.479, 238.5845
2976.407, 237.2115
2978.335, 235.3195
2980.264, 232.7546
2982.192, 230.9220
2984.121, 231.0365
2986.049, 231.1071
2987.978, 228.9491
2989.906, 229.3667
2991.835, 228.3477
2993.763, 225.6357
2995.692, 224.9588
2997.620, 223.7276
2999.549, 222.0739
3001.477, 220.3703
3003.406, 218.9736
3005.334, 217.4037
3007.262, 215.9753
3009.191, 215.4683
3011.119, 213.3507
3013.048, 212.0551
3014.976, 212.1252
3016.905, 211.4648
3018.833, 210.3799
3020.762, 209.2253
3022.690, 208.2810
3024.619, 206.4868
3026.547, 204.2921
3028.476, 202.8400
3030.404, 201.8860
3032.333, 202.3434
3034.261, 199.9895
3036.189, 199.4223
3038.118, 197.2274
3040.046, 196.2613
3041.975, 195.1097
3043.903, 192.2527
3045.832, 192.7204
3047.760, 190.9024
3049.689, 187.4447
3051.617, 185.7226
3053.546, 185.0835
3055.474, 183.8223
3057.403, 181.7968
3059.331, 180.6424
3061.260, 180.6108
3063.188, 180.0956
3065.116, 178.5007
3067.045, 178.9726
3068.973, 177.1518
3070.902, 175.5312
3072.830, 177.5825
3074.759, 174.9779
3076.687, 173.5430
3078.616, 174.0092
3080.544, 174.7153
3082.473, 174.0792
3084.401, 172.4748
3086.330, 170.6270
3088.258, 170.2255
3090.187, 168.8325
3092.115, 167.3671
3094.043, 166.3657
3095.972, 164.5706
3097.900, 162.9180
3099.829, 161.9310
3101.757, 161.7414
3103.686, 159.7897
3105.614, 159.5004
3107.543, 159.3860
3109.471, 157.2133
3111.400, 156.0389
3113.328, 155.5318
3115.257, 154.6788
3117.185, 152.2356
3119.114, 151.2128
3121.042, 150.0540
3122.970, 148.9047
3124.899, 149.5811
3126.827, 149.7177
3128.756, 148.2501
3130.684, 147.9673
3132.613, 144.7715
3134.541, 145.1880
3136.470, 144.2274
3138.398, 141.6497
3140.327, 142.0621
3142.255, 141.0127
3144.184, 140.0605
3146.112, 140.1287
3148.041, 139.8337
3149.969, 137.5747
3151.897, 135.5514
3153.826, 135.2079
3155.754, 135.4935
3157.683, 134.2175
3159.611, 133.2898
3161.540, 133.7152
3163.468, 132.1278
3165.397, 132.3188
3167.325, 132.3252
3169.254, 130.5574
3171.182, 130.0834
3173.111, 127.8483
3175.039, 127.3252
3176.968, 125.6130
3178.896, 123.6544
3180.824, 122.3695
3182.753, 121.9398
3184.681, 122.0636
3186.610, 120.8621
3188.538, 119.6646
3190.467, 118.6553
3192.395, 117.7041
3194.324, 116.6448
3196.252, 115.7032
3198.181, 114.6032
3200.109, 113.8269
3202.038, 112.6545
3203.966, 111.7963
3205.895, 110.0865
3207.823, 109.3449
3209.751, 107.9073
3211.680, 106.2795
3213.608, 105.4960
3215.537, 104.5352
3217.465, 104.2044
3219.394, 103.6233
3221.322, 103.8504
3223.251, 104.2003
3225.179, 103.0617
3227.108, 102.1063
3229.036, 100.1504
3230.965, 97.76781
3232.893, 97.02924
3234.822, 96.24352
3236.750, 95.42589
3238.678, 94.93992
3240.607, 95.36754
3242.535, 94.88819
3244.464, 94.51516
3246.392, 94.21204
3248.321, 93.69038
3250.249, 93.38813
3252.178, 92.80185
3254.106, 92.06470
3256.035, 91.24203
3257.963, 89.57803
3259.892, 87.99348
3261.820, 87.43221
3263.749, 87.73100
3265.677, 87.04892
3267.605, 86.66661
3269.534, 85.69371
3271.462, 84.50774
3273.391, 84.51020
3275.319, 85.23278
3277.248, 84.75916
3279.176, 83.76636
3281.105, 83.57603
3283.033, 82.38883
3284.962, 82.22684
3286.890, 82.20408
3288.819, 81.45080
3290.747, 80.31331
3292.676, 81.47157
3294.604, 81.88368
3296.532, 80.98216
3298.461, 81.42503
3300.389, 81.16486
3302.318, 81.96353
3304.246, 80.90876
3306.175, 81.33012
3308.103, 81.21024
3310.032, 79.35096
3311.960, 78.15147
3313.889, 78.85017
3315.817, 79.26660
3317.746, 78.13688
3319.674, 77.63941
3321.603, 77.66566
3323.531, 76.32291
3325.459, 76.18513
3327.388, 75.05064
3329.316, 73.80300
3331.245, 73.57140
3333.173, 72.63084
3335.102, 72.56197
3337.030, 72.14767
3338.959, 71.13838
3340.887, 70.70223
3342.816, 69.96162
3344.744, 69.33926
3346.673, 68.73370
3348.601, 68.01328
3350.530, 67.50889
3352.458, 67.46248
3354.386, 66.60883
3356.315, 66.11165
3358.243, 66.00018
3360.172, 66.50182
3362.100, 66.61958
3364.029, 66.74722
3365.957, 67.16268
3367.886, 66.99272
3369.814, 66.82832
3371.743, 66.59120
3373.671, 65.99789
3375.600, 65.31431
3377.528, 64.62871
3379.457, 64.23463
3381.385, 63.72503
3383.313, 63.32437
3385.242, 63.10988
3387.170, 62.70156
3389.099, 62.70217
3391.027, 62.57277
3392.956, 61.84805
3394.884, 61.91813
3396.813, 61.52058
3398.741, 61.14975
3400.670, 60.74810
3402.598, 59.49874
3404.527, 59.35895
3406.455, 58.72746
3408.384, 58.28669
3410.312, 58.57816
3412.240, 58.72409
3414.169, 57.60511
3416.097, 57.05534
3418.026, 57.25999
3419.954, 57.59978
3421.883, 57.61260
3423.811, 57.56139
3425.740, 56.87718
3427.668, 56.24443
3429.597, 56.87028
3431.525, 55.87245
3433.454, 55.74808
3435.382, 55.89291
3437.311, 55.81524
3439.239, 55.71241
3441.167, 55.86589
3443.096, 56.34614
3445.024, 55.61742
3446.953, 53.97350
3448.881, 54.46239
3450.810, 54.27771
3452.738, 54.40056
3454.667, 53.98449
3456.595, 52.94222
3458.524, 53.29116
##END=



