##NAMES=Crichtonite
##RRUFFID=R090006
##IDEAL CHEMISTRY=Sr(Mn,Y,U)Fe_2_(Ti,Fe,Cr,V)_18_(O,OH)_38_
##LOCALITY=Presidente Kubitschek, Minas Gerias, Brazil
##OWNER=RRUFF
##SOURCE=Luiz Menezes
##DESCRIPTION=Black poorly shaped, rounded crystals associated with quartz and rutile
##STATUS=The identification of this mineral has been confirmed only by single crystal X-ray diffraction
##URL=https://www.rruff.net/odr/rruff_sample/R090006
##DIFFRACTION SAMPLE DESCRIPTION=Single crystal, powder profile is calculated
##CELL PARAMETERS=a: 9.215 b: 9.215 c: 9.215 alpha: 68.762 beta: 68.762 gamma: 68.762 volume: 655 crystal system: hexagonal
##FILETYPE=Raman RAW
##RAMAN WAVELENGTH=780

82.06834, 143.7214
83.99681, 159.3118
85.92528, 177.4771
87.85374, 199.9874
89.78221, 225.8800
91.71068, 253.4755
93.63914, 277.8555
95.56761, 281.2756
97.49608, 284.1432
99.42455, 285.2484
101.3530, 284.7079
103.2815, 282.7587
105.2099, 278.8449
107.1384, 273.0304
109.0669, 268.2090
110.9953, 264.6880
112.9238, 261.9727
114.8523, 260.0080
116.7807, 258.4002
118.7092, 256.4028
120.6377, 253.8374
122.5661, 251.6548
124.4946, 250.0591
126.4231, 248.5727
128.3515, 246.8272
130.2800, 245.1136
132.2085, 243.9990
134.1369, 243.4870
136.0654, 242.5722
137.9939, 240.5353
139.9223, 238.7185
141.8508, 238.0377
143.7793, 237.3977
145.7077, 235.4398
147.6362, 232.1796
149.5647, 228.9834
151.4931, 225.9921
153.4216, 223.0488
155.3501, 219.9820
157.2785, 217.0833
159.2070, 214.6826
161.1355, 212.7237
163.0639, 210.6533
164.9924, 208.2946
166.9209, 206.0345
168.8493, 203.6389
170.7778, 201.6243
172.7063, 200.6089
174.6348, 200.2823
176.5632, 199.3062
178.4917, 197.3428
180.4202, 195.2178
182.3486, 192.6676
184.2771, 190.2699
186.2056, 188.2319
188.1340, 186.5677
190.0625, 185.4148
191.9910, 184.9806
193.9194, 184.3441
195.8479, 183.4489
197.7764, 182.4623
199.7048, 181.1981
201.6333, 180.0675
203.5618, 179.6319
205.4902, 179.9056
207.4187, 179.5952
209.3471, 178.4096
211.2756, 177.6217
213.2041, 177.7732
215.1325, 178.2088
217.0610, 178.5860
218.9895, 178.9115
220.9179, 179.3084
222.8464, 179.8406
224.7749, 179.7538
226.7033, 178.5327
228.6318, 177.4222
230.5603, 177.0393
232.4887, 176.9591
234.4172, 176.5878
236.3457, 175.9940
238.2741, 175.9521
240.2026, 176.7092
242.1311, 177.2355
244.0595, 176.8080
245.9880, 176.4787
247.9165, 177.1070
249.8449, 178.1768
251.7734, 178.3092
253.7019, 177.5187
255.6303, 177.0674
257.5588, 177.4309
259.4873, 177.7048
261.4157, 177.3722
263.3442, 177.0676
265.2727, 177.4731
267.2011, 178.4320
269.1296, 179.4933
271.0581, 180.7089
272.9865, 181.6956
274.9150, 182.1431
276.8435, 182.6369
278.7719, 183.7098
280.7004, 184.7364
282.6289, 184.7572
284.5573, 183.9784
286.4858, 183.5546
288.4143, 183.6992
290.3427, 184.0195
292.2712, 185.0352
294.1997, 185.5806
296.1281, 184.4830
298.0566, 182.8215
299.9851, 182.2099
301.9135, 182.7099
303.8420, 182.5385
305.7705, 181.0996
307.6989, 179.6650
309.6274, 178.0273
311.5559, 176.7665
313.4843, 176.6171
315.4128, 176.9270
317.3413, 176.5777
319.2697, 175.3520
321.1982, 174.7315
323.1267, 175.2480
325.0551, 175.3953
326.9836, 174.7621
328.9121, 173.8650
330.8405, 172.8040
332.7690, 171.7928
334.6975, 171.2883
336.6259, 171.3895
338.5544, 171.3438
340.4829, 171.2057
342.4113, 170.7677
344.3398, 169.6702
346.2683, 168.7051
348.1967, 168.5005
350.1252, 168.6016
352.0537, 168.1884
353.9821, 167.2304
355.9106, 166.7122
357.8391, 166.7719
359.7675, 166.6907
361.6960, 166.3564
363.6245, 165.7280
365.5529, 164.5068
367.4814, 163.2023
369.4099, 162.4226
371.3383, 162.1718
373.2668, 162.3267
375.1953, 162.9565
377.1237, 163.4279
379.0522, 163.7968
380.9807, 163.6170
382.9091, 162.1207
384.8376, 160.6124
386.7661, 160.4527
388.6945, 161.1930
390.6230, 161.4733
392.5515, 161.3172
394.4799, 160.9457
396.4084, 160.0545
398.3369, 159.7726
400.2654, 161.1409
402.1938, 162.2889
404.1223, 161.8790
406.0508, 160.7229
407.9792, 159.9739
409.9077, 159.5953
411.8362, 159.5947
413.7646, 160.1142
415.6931, 160.4287
417.6216, 160.1360
419.5500, 160.0225
421.4785, 160.8272
423.4070, 161.4609
425.3354, 160.5390
427.2639, 158.8984
429.1924, 158.2729
431.1208, 158.7253
433.0493, 158.4911
434.9778, 156.2857
436.9062, 155.3842
438.8347, 157.2884
440.7632, 158.9520
442.6916, 159.1938
444.6201, 158.4231
446.5486, 156.5680
448.4770, 154.1494
450.4055, 152.8752
452.3340, 153.0852
454.2624, 153.2384
456.1909, 153.3277
458.1194, 153.2990
460.0478, 153.1216
461.9763, 152.8941
463.9048, 152.6594
465.8332, 152.3415
467.7617, 151.5357
469.6902, 151.6159
471.6186, 151.5008
473.5471, 151.2013
475.4756, 150.1449
477.4040, 150.0810
479.3325, 149.6287
481.2610, 149.1667
483.1894, 149.2614
485.1179, 148.3492
487.0464, 148.4485
488.9748, 148.1532
490.9033, 148.0482
492.8318, 147.5522
494.7602, 147.1857
496.6887, 147.2234
498.6172, 147.0476
500.5456, 146.5324
502.4741, 146.4788
504.4026, 145.6189
506.3310, 145.4790
508.2595, 145.6534
510.1880, 145.1913
512.1164, 145.1781
514.0449, 145.0030
515.9733, 144.0692
517.9018, 144.4731
519.8303, 144.3080
521.7587, 143.5584
523.6872, 143.9366
525.6157, 143.9399
527.5441, 143.2922
529.4726, 142.6695
531.4011, 142.3831
533.3295, 142.4795
535.2580, 143.5692
537.1865, 144.9326
539.1149, 144.4951
541.0434, 142.5500
542.9719, 141.5735
544.9003, 142.0495
546.8288, 142.2631
548.7573, 141.4723
550.6857, 141.0143
552.6142, 141.3071
554.5427, 141.8210
556.4711, 142.4268
558.3996, 142.9126
560.3281, 142.9736
562.2565, 142.8333
564.1850, 142.9001
566.1135, 143.1634
568.0419, 143.4056
569.9704, 143.6921
571.8989, 143.8000
573.8273, 143.5292
575.7558, 143.3079
577.6843, 143.2407
579.6127, 143.2554
581.5412, 143.0977
583.4697, 143.1850
585.3981, 144.2411
587.3266, 145.6082
589.2551, 145.8048
591.1835, 144.9028
593.1120, 144.6521
595.0405, 145.2962
596.9689, 145.9910
598.8974, 146.8709
600.8259, 147.4160
602.7543, 147.5040
604.6828, 147.3013
606.6113, 146.5247
608.5397, 145.9814
610.4682, 146.3601
612.3967, 147.0041
614.3251, 147.0702
616.2536, 146.8112
618.1821, 147.0819
620.1105, 146.8934
622.0390, 146.6559
623.9675, 146.7790
625.8959, 146.1214
627.8244, 146.1647
629.7529, 146.0454
631.6813, 144.6385
633.6098, 144.7185
635.5383, 144.5572
637.4667, 144.1654
639.3952, 142.9708
641.3237, 142.7226
643.2521, 142.0400
645.1806, 141.3017
647.1091, 141.0741
649.0375, 140.7694
650.9660, 140.4857
652.8945, 140.0542
654.8229, 139.7553
656.7514, 139.7302
658.6799, 139.3254
660.6083, 138.1659
662.5368, 137.0559
664.4653, 136.3416
666.3937, 135.5530
668.3222, 134.0851
670.2507, 132.7950
672.1791, 132.7889
674.1076, 133.2689
676.0361, 133.0261
677.9645, 132.1701
679.8930, 130.8771
681.8215, 129.3284
683.7499, 128.5539
685.6784, 128.6954
687.6069, 128.7312
689.5353, 128.3880
691.4638, 128.3421
693.3923, 129.3346
695.3207, 129.5855
697.2492, 128.0118
699.1777, 126.4497
701.1061, 125.8654
703.0346, 125.5776
704.9631, 124.9629
706.8915, 124.4606
708.8200, 124.6376
710.7485, 125.1056
712.6769, 125.1512
714.6054, 124.8101
716.5339, 124.3375
718.4623, 123.7390
720.3908, 123.1519
722.3193, 122.5378
724.2477, 121.9696
726.1762, 121.5396
728.1047, 120.9343
730.0331, 119.8326
731.9616, 119.2150
733.8901, 119.5957
735.8185, 120.1214
737.7470, 120.7483
739.6755, 120.9049
741.6039, 119.8756
743.5324, 118.5418
745.4609, 117.7240
747.3893, 117.2490
749.3178, 116.8705
751.2463, 116.4715
753.1747, 115.6673
755.1032, 115.6521
757.0317, 114.4117
758.9601, 115.3023
760.8886, 115.6414
762.8171, 115.2846
764.7455, 114.5894
766.6740, 113.4962
768.6025, 112.8854
770.5309, 113.0499
772.4594, 113.4190
774.3879, 113.9231
776.3163, 114.2972
778.2448, 114.7312
780.1733, 114.7859
782.1017, 113.9456
784.0302, 112.9039
785.9587, 112.0280
787.8871, 111.3319
789.8156, 110.9289
791.7441, 110.8179
793.6725, 110.7641
795.6010, 110.8052
797.5295, 111.6716
799.4579, 112.8984
801.3864, 112.5948
803.3149, 110.9327
805.2433, 109.6144
807.1718, 108.7466
809.1003, 108.4091
811.0287, 108.8418
812.9572, 108.4804
814.8857, 106.3905
816.8141, 105.3874
818.7426, 106.8412
820.6711, 107.3962
822.5995, 105.7283
824.5280, 104.4109
826.4565, 104.4371
828.3849, 104.6076
830.3134, 104.6235
832.2419, 104.3803
834.1703, 103.6257
836.0988, 102.7367
838.0273, 101.7860
839.9557, 101.0713
841.8842, 101.2411
843.8127, 101.5727
845.7411, 101.0212
847.6696, 100.0134
849.5981, 99.15816
851.5266, 98.48398
853.4550, 98.28360
855.3835, 98.43056
857.3120, 98.25201
859.2404, 97.79968
861.1689, 97.52436
863.0974, 97.46292
865.0258, 96.78146
866.9543, 95.27098
868.8828, 94.35538
870.8112, 94.24114
872.7397, 94.31180
874.6682, 94.55846
876.5966, 94.16518
878.5251, 92.77458
880.4536, 92.06686
882.3820, 92.65900
884.3105, 93.00032
886.2390, 92.67141
888.1674, 92.11514
890.0959, 91.20043
892.0244, 90.42186
893.9528, 90.33754
895.8813, 90.05922
897.8098, 88.97297
899.7382, 87.83629
901.6667, 86.77048
903.5952, 86.25081
905.5236, 87.07825
907.4521, 87.84420
909.3806, 87.31044
911.3090, 86.48479
913.2375, 86.24433
915.1660, 86.18382
917.0944, 86.02636
919.0229, 85.67903
920.9514, 84.53438
922.8798, 83.34595
924.8083, 83.77868
926.7368, 84.97120
928.6652, 85.38279
930.5937, 85.16535
932.5222, 84.26839
934.4506, 83.12225
936.3791, 83.06893
938.3076, 83.77478
940.2360, 84.12120
942.1645, 84.10469
944.0930, 83.50076
946.0214, 82.41753
947.9499, 82.33971
949.8784, 81.62508
951.8068, 81.31815
953.7353, 81.35115
955.6638, 81.10405
957.5922, 82.34958
959.5207, 82.92164
961.4492, 82.76339
963.3776, 82.20496
965.3061, 81.07308
967.2346, 80.71500
969.1630, 81.34363
971.0915, 81.77396
973.0200, 82.04215
974.9484, 81.96116
976.8769, 81.37377
978.8054, 81.04568
980.7338, 81.09652
982.6623, 81.06484
984.5908, 80.94146
986.5192, 80.71489
988.4477, 80.29424
990.3762, 79.88138
992.3046, 79.51189
994.2331, 79.40228
996.1616, 79.68645
998.0900, 79.84189
1000.018, 79.69377
1001.947, 79.51468
1003.875, 79.36352
1005.804, 79.25499
1007.732, 79.27794
1009.661, 79.16093
1011.589, 78.68486
1013.518, 78.49537
1015.446, 78.79259
1017.375, 79.12715
1019.303, 79.52929
1021.232, 79.74586
1023.160, 79.62660
1025.089, 79.52747
1027.017, 79.61182
1028.945, 79.39143
1030.874, 79.45494
1032.802, 79.58588
1034.731, 79.21163
1036.659, 79.76991
1038.588, 79.13362
1040.516, 78.78459
1042.445, 79.08006
1044.373, 79.15678
1046.302, 78.80326
1048.230, 78.78075
1050.159, 79.43448
1052.087, 79.55663
1054.016, 78.71317
1055.944, 78.14117
1057.872, 78.19143
1059.801, 78.07003
1061.729, 77.50793
1063.658, 77.08744
1065.586, 76.96650
1067.515, 76.76943
1069.443, 76.36065
1071.372, 76.20969
1073.300, 76.65050
1075.229, 76.61887
1077.157, 76.56313
1079.086, 76.83723
1081.014, 76.33897
1082.943, 76.98376
1084.871, 76.86591
1086.799, 76.60342
1088.728, 76.29394
1090.656, 76.39399
1092.585, 76.15215
1094.513, 76.10751
1096.442, 76.17592
1098.370, 75.96415
1100.299, 76.43433
1102.227, 76.32639
1104.156, 75.64319
1106.084, 75.56053
1108.013, 76.03437
1109.941, 76.15529
1111.870, 75.94312
1113.798, 76.00079
1115.726, 76.06400
1117.655, 75.43484
1119.583, 74.73263
1121.512, 75.28213
1123.440, 74.64725
1125.369, 75.94851
1127.297, 74.64693
1129.226, 74.66416
1131.154, 75.48374
1133.083, 75.52082
1135.011, 75.14771
1136.940, 75.30662
1138.868, 75.70338
1140.797, 75.98488
1142.725, 76.17551
1144.653, 75.96574
1146.582, 75.51157
1148.510, 75.32835
1150.439, 75.43499
1152.367, 75.51369
1154.296, 75.48274
1156.224, 75.64518
1158.153, 75.88770
1160.081, 75.73439
1162.010, 75.83958
1163.938, 75.52000
1165.867, 75.68630
1167.795, 75.26168
1169.724, 74.96043
1171.652, 75.68491
1173.580, 76.08305
1175.509, 75.37534
1177.437, 74.97448
1179.366, 75.10184
1181.294, 75.11343
1183.223, 75.01637
1185.151, 75.39558
1187.080, 76.45791
1189.008, 77.22335
1190.937, 77.52011
1192.865, 77.39943
1194.794, 77.03886
1196.722, 76.49649
1198.651, 75.48672
1200.579, 75.05070
1202.507, 75.34536
1204.436, 75.43658
1206.364, 75.27903
1208.293, 75.58296
1210.221, 76.26730
1212.150, 76.56294
1214.078, 76.46812
1216.007, 76.21687
1217.935, 76.02005
1219.864, 76.33298
1221.792, 76.83482
1223.721, 77.01145
1225.649, 76.95908
1227.578, 76.72978
1229.506, 76.39008
1231.434, 75.78330
1233.363, 75.43066
1235.291, 75.80665
1237.220, 76.36374
1239.148, 76.99043
1241.077, 77.38573
1243.005, 77.41358
1244.934, 77.32495
1246.862, 77.29872
1248.791, 76.98739
1250.719, 76.22407
1252.648, 75.73478
1254.576, 75.57466
1256.505, 76.30051
1258.433, 77.76133
1260.361, 78.23891
1262.290, 77.88253
1264.218, 77.44733
1266.147, 77.07648
1268.075, 76.87290
1270.004, 76.84167
1271.932, 77.42575
1273.861, 78.20016
1275.789, 78.56709
1277.718, 78.48704
1279.646, 77.73534
1281.575, 77.24897
1283.503, 77.61012
1285.432, 78.07084
1287.360, 78.35525
1289.288, 78.75696
1291.217, 79.35391
1293.145, 79.71522
1295.074, 80.03141
1297.002, 79.87234
1298.931, 79.93424
1300.859, 80.02150
1302.788, 79.58498
1304.716, 79.95236
1306.645, 79.76446
1308.573, 79.38341
1310.502, 79.12247
1312.430, 79.63067
1314.359, 80.55293
1316.287, 81.23222
1318.215, 81.38756
1320.144, 80.85327
1322.072, 80.20418
1324.001, 79.92488
1325.929, 80.14477
1327.858, 80.52300
1329.786, 80.61649
1331.715, 80.49126
1333.643, 80.54241
1335.572, 80.92313
1337.500, 80.81168
1339.429, 80.02694
1341.357, 79.80291
1343.286, 80.15930
1345.214, 80.62367
1347.142, 81.14537
1349.071, 81.11213
1350.999, 80.80596
1352.928, 80.73553
1354.856, 80.67139
1356.785, 80.73367
1358.713, 81.07819
1360.642, 81.61306
1362.570, 81.58338
1364.499, 80.71199
1366.427, 80.65663
1368.356, 81.50179
1370.284, 82.00589
1372.213, 82.28035
1374.141, 81.86489
1376.069, 82.22149
1377.998, 82.25439
1379.926, 82.12533
1381.855, 82.46270
1383.783, 82.08360
1385.712, 81.96671
1387.640, 82.06788
1389.569, 81.61363
1391.497, 81.27502
1393.426, 81.67095
1395.354, 82.34194
1397.283, 83.50375
1399.211, 83.98394
1401.140, 83.19951
1403.068, 82.79195
1404.996, 83.02913
1406.925, 82.83304
1408.853, 82.17371
1410.782, 81.85940
1412.710, 81.94466
1414.639, 81.88731
1416.567, 81.85304
1418.496, 82.48396
1420.424, 83.09154
1422.353, 83.21571
1424.281, 83.15654
1426.210, 83.10123
1428.138, 83.14559
1430.067, 82.95044
1431.995, 83.26089
1433.923, 83.23252
1435.852, 83.23144
1437.780, 83.45273
1439.709, 83.22851
1441.637, 83.35422
1443.566, 83.34542
1445.494, 83.37672
1447.423, 83.38757
1449.351, 83.44997
1451.280, 83.59496
1453.208, 83.43350
1455.137, 84.04037
1457.065, 83.73290
1458.994, 84.21536
1460.922, 83.78953
1462.850, 84.80840
1464.779, 85.12752
1466.707, 85.04154
1468.636, 84.01304
1470.564, 83.25732
1472.493, 84.04275
1474.421, 84.51122
1476.350, 84.15291
1478.278, 84.08578
1480.207, 84.34185
1482.135, 84.28381
1484.064, 83.93098
1485.992, 83.83279
1487.921, 83.97634
1489.849, 84.58743
1491.777, 84.97804
1493.706, 84.07298
1495.634, 83.17294
1497.563, 83.01187
1499.491, 83.41993
1501.420, 84.64434
1503.348, 85.37595
1505.277, 85.49187
1507.205, 85.05207
1509.134, 84.19653
1511.062, 84.07726
1512.991, 84.27482
1514.919, 84.02820
1516.848, 83.93633
1518.776, 84.27801
1520.704, 84.41455
1522.633, 84.22675
1524.561, 84.42551
1526.490, 84.71471
1528.418, 84.64158
1530.347, 84.56495
1532.275, 84.55251
1534.204, 84.63328
1536.132, 85.01154
1538.061, 85.37173
1539.989, 85.07650
1541.918, 84.59710
1543.846, 84.44687
1545.775, 84.98789
1547.703, 85.93553
1549.631, 86.42167
1551.560, 86.70564
1553.488, 86.30932
1555.417, 85.62029
1557.345, 85.60423
1559.274, 85.57217
1561.202, 84.98595
1563.131, 84.84081
1565.059, 85.37551
1566.988, 85.66830
1568.916, 85.55767
1570.845, 85.56700
1572.773, 85.62080
1574.702, 85.85240
1576.630, 86.30280
1578.558, 86.35729
1580.487, 86.00443
1582.415, 85.56265
1584.344, 85.77707
1586.272, 86.59181
1588.201, 87.15587
1590.129, 87.19127
1592.058, 86.83053
1593.986, 86.73998
1595.915, 87.07619
1597.843, 86.92262
1599.772, 87.11536
1601.700, 87.16331
1603.629, 87.14675
1605.557, 87.49287
1607.485, 87.01283
1609.414, 87.67519
1611.342, 88.22911
1613.271, 86.62106
1615.199, 85.50300
1617.128, 85.74993
1619.056, 85.95745
1620.985, 86.59134
1622.913, 87.29045
1624.842, 87.31711
1626.770, 86.93613
1628.699, 86.63746
1630.627, 86.30572
1632.556, 85.93352
1634.484, 86.01960
1636.412, 86.64413
1638.341, 87.49506
1640.269, 87.51685
1642.198, 86.58408
1644.126, 86.22313
1646.055, 86.50803
1647.983, 86.68858
1649.912, 86.86598
1651.840, 87.24862
1653.769, 87.10872
1655.697, 86.90800
1657.626, 87.27649
1659.554, 87.29077
1661.483, 86.70483
1663.411, 86.32706
1665.339, 87.15292
1667.268, 88.15562
1669.196, 87.99085
1671.125, 87.68584
1673.053, 87.23760
1674.982, 87.07808
1676.910, 87.88026
1678.839, 88.32813
1680.767, 88.21341
1682.696, 88.27293
1684.624, 88.27419
1686.553, 88.39997
1688.481, 87.93518
1690.410, 88.62829
1692.338, 88.92233
1694.266, 88.80467
1696.195, 88.19827
1698.123, 87.58861
1700.052, 87.88305
1701.980, 88.43327
1703.909, 88.45592
1705.837, 88.50662
1707.766, 88.86357
1709.694, 88.98019
1711.623, 88.54774
1713.551, 88.21848
1715.480, 88.37703
1717.408, 88.23528
1719.337, 88.15151
1721.265, 88.17889
1723.193, 87.77341
1725.122, 88.12915
1727.050, 88.94971
1728.979, 88.88686
1730.907, 89.04639
1732.836, 89.42866
1734.764, 89.50205
1736.693, 89.43788
1738.621, 89.26627
1740.550, 88.99574
1742.478, 88.74179
1744.407, 88.58522
1746.335, 88.31332
1748.264, 87.90837
1750.192, 88.09733
1752.120, 88.72575
1754.049, 88.67605
1755.977, 88.74338
1757.906, 88.70959
1759.834, 88.47803
1761.763, 89.12017
1763.691, 90.06464
1765.620, 90.08234
1767.548, 88.64828
1769.477, 87.43391
1771.405, 87.85361
1773.334, 88.86833
1775.262, 89.24637
1777.191, 89.27700
1779.119, 89.29018
1781.047, 89.52301
1782.976, 89.33936
1784.904, 89.74468
1786.833, 89.72778
1788.761, 89.71711
1790.690, 89.32175
1792.618, 88.78239
1794.547, 89.14669
1796.475, 89.53960
1798.404, 89.02186
1800.332, 88.78178
1802.261, 89.29557
1804.189, 89.35001
1806.118, 88.81986
1808.046, 88.62816
1809.974, 88.50146
1811.903, 88.55125
1813.831, 88.91409
1815.760, 89.30458
1817.688, 89.53767
1819.617, 89.78146
1821.545, 89.66528
1823.474, 89.29395
1825.402, 88.80660
1827.331, 88.62226
1829.259, 88.65710
1831.188, 89.49020
1833.116, 89.04030
1835.045, 89.12794
1836.973, 89.38585
1838.901, 89.21255
1840.830, 89.27214
1842.758, 89.29070
1844.687, 88.71072
1846.615, 88.34541
1848.544, 89.09237
1850.472, 89.85185
1852.401, 89.56455
1854.329, 89.20605
1856.258, 89.40562
1858.186, 89.26806
1860.115, 88.66358
1862.043, 88.35358
1863.972, 88.53620
1865.900, 88.75228
1867.828, 88.87794
1869.757, 88.86054
1871.685, 88.15446
1873.614, 87.64148
1875.542, 88.24241
1877.471, 89.46455
1879.399, 89.76009
1881.328, 89.66238
1883.256, 89.48909
1885.185, 89.06861
1887.113, 89.13112
1889.042, 88.79410
1890.970, 88.24210
1892.899, 88.39471
1894.827, 88.61556
1896.755, 88.58090
1898.684, 88.33562
1900.612, 88.93309
1902.541, 90.04330
1904.469, 90.23813
1906.398, 89.64115
1908.326, 88.26408
1910.255, 87.57397
1912.183, 88.44082
1914.112, 89.31304
1916.040, 89.27336
1917.969, 88.99309
1919.897, 89.28159
1921.826, 89.26673
1923.754, 88.81381
1925.682, 89.16543
1927.611, 88.93023
1929.539, 87.70766
1931.468, 87.51618
1933.396, 87.84050
1935.325, 88.20547
1937.253, 88.30579
1939.182, 88.37929
1941.110, 88.64745
1943.039, 88.90273
1944.967, 89.07127
1946.896, 89.13141
1948.824, 89.07326
1950.753, 88.86391
1952.681, 88.81885
1954.609, 88.11247
1956.538, 88.06136
1958.466, 89.11140
1960.395, 89.37981
1962.323, 88.67527
1964.252, 88.37191
1966.180, 88.34765
1968.109, 87.80176
1970.037, 87.61665
1971.966, 88.63063
1973.894, 88.83177
1975.823, 88.81199
1977.751, 89.03110
1979.680, 88.38492
1981.608, 88.09099
1983.536, 88.05997
1985.465, 87.42324
1987.393, 87.76342
1989.322, 88.46803
1991.250, 88.39640
1993.179, 87.35625
1995.107, 86.77119
1997.036, 87.26566
1998.964, 87.66158
2000.893, 87.53743
2002.821, 87.23607
2004.750, 88.13353
2006.678, 87.71691
2008.607, 88.05906
2010.535, 87.17554
2012.464, 88.28088
2014.392, 87.55740
2016.320, 87.27324
2018.249, 88.37453
2020.177, 89.00501
2022.106, 88.66737
2024.034, 88.13293
2025.963, 87.66903
2027.891, 87.60185
2029.820, 87.90718
2031.748, 88.37748
2033.677, 88.74763
2035.605, 88.09199
2037.534, 87.09420
2039.462, 86.65762
2041.391, 86.56332
2043.319, 86.75874
2045.247, 86.86770
2047.176, 86.66351
2049.104, 86.85096
2051.033, 86.94096
2052.961, 87.03385
2054.890, 87.25552
2056.818, 86.95321
2058.747, 86.82777
2060.675, 87.62631
2062.604, 87.60983
2064.532, 87.33945
2066.460, 87.50843
2068.389, 87.10607
2070.317, 86.67025
2072.246, 86.62467
2074.174, 86.45883
2076.103, 86.48508
2078.031, 86.53711
2079.960, 87.00706
2081.888, 87.13956
2083.817, 86.35397
2085.745, 86.77864
2087.674, 87.22488
2089.602, 86.38733
2091.531, 85.86974
2093.459, 86.54800
2095.387, 87.44153
2097.316, 87.66837
2099.244, 87.25986
2101.173, 86.17094
2103.101, 85.23342
2105.030, 85.25771
2106.958, 85.99146
2108.887, 86.20451
2110.815, 85.68812
2112.744, 84.93872
2114.672, 84.94003
2116.601, 85.29347
2118.529, 85.21201
2120.458, 85.15202
2122.386, 85.74403
2124.314, 85.83134
2126.243, 85.53175
2128.171, 85.47952
2130.100, 85.20518
2132.028, 85.63006
2133.957, 85.95406
2135.885, 85.37328
2137.814, 84.95615
2139.742, 85.25809
2141.671, 85.62466
2143.599, 85.19489
2145.528, 85.00388
2147.456, 85.25502
2149.385, 84.99338
2151.313, 84.29356
2153.241, 84.97375
2155.170, 86.00877
2157.098, 85.81914
2159.027, 85.47190
2160.955, 85.02452
2162.884, 84.91930
2164.812, 85.02348
2166.741, 85.01280
2168.669, 84.70640
2170.598, 85.70429
2172.526, 84.17303
2174.455, 83.86968
2176.383, 83.88090
2178.312, 85.01294
2180.240, 85.59921
2182.168, 84.99575
2184.097, 84.28027
2186.025, 83.67397
2187.954, 83.48414
2189.882, 83.30575
2191.811, 83.31911
2193.739, 83.49867
2195.668, 83.60287
2197.596, 83.83159
2199.525, 83.64821
2201.453, 82.96221
2203.382, 82.19006
2205.310, 82.56977
2207.239, 83.44231
2209.167, 83.19265
2211.095, 83.18558
2213.024, 84.00090
2214.952, 84.26740
2216.881, 83.42135
2218.809, 83.40221
2220.738, 83.80205
2222.666, 82.85373
2224.595, 82.40755
2226.523, 82.49271
2228.452, 82.46253
2230.380, 82.83370
2232.309, 83.17989
2234.237, 82.30643
2236.166, 81.67908
2238.094, 82.94695
2240.022, 83.66782
2241.951, 83.00306
2243.879, 81.55949
2245.808, 81.23455
2247.736, 82.37330
2249.665, 81.84985
2251.593, 81.61172
2253.522, 82.25896
2255.450, 82.34421
2257.379, 82.30579
2259.307, 82.44531
2261.236, 81.52644
2263.164, 81.96867
2265.093, 80.87132
2267.021, 79.89825
2268.949, 80.98948
2270.878, 81.50401
2272.806, 81.26194
2274.735, 82.09119
2276.663, 81.96707
2278.592, 81.46909
2280.520, 80.98380
2282.449, 80.78635
2284.377, 80.70537
2286.306, 80.63615
2288.234, 81.01746
2290.163, 80.93262
2292.091, 81.40108
2294.020, 81.84773
2295.948, 81.27128
2297.876, 81.38792
2299.805, 80.48605
2301.733, 80.89023
2303.662, 80.60526
2305.590, 80.62457
2307.519, 80.52075
2309.447, 79.99173
2311.376, 80.28905
2313.304, 80.40877
2315.233, 79.95325
2317.161, 80.00017
2319.090, 80.37077
2321.018, 80.70649
2322.947, 80.70774
2324.875, 80.20287
2326.803, 79.63256
2328.732, 79.49564
2330.660, 80.17810
2332.589, 80.31977
2334.517, 79.77572
2336.446, 78.53677
2338.374, 78.11256
2340.303, 78.60204
2342.231, 78.77085
2344.160, 79.00029
2346.088, 79.45312
2348.017, 78.60445
2349.945, 77.53555
2351.874, 78.18394
2353.802, 77.98452
2355.730, 77.75234
2357.659, 78.93472
2359.587, 79.20862
2361.516, 78.06178
2363.444, 76.76347
2365.373, 76.97890
2367.301, 78.32902
2369.230, 78.10257
2371.158, 77.54355
2373.087, 77.14566
2375.015, 77.04691
2376.944, 76.86115
2378.872, 77.01698
2380.801, 76.78162
2382.729, 77.51470
2384.657, 77.34234
2386.586, 77.10423
2388.514, 76.52502
2390.443, 76.21761
2392.371, 76.46659
2394.300, 76.15604
2396.228, 75.93993
2398.157, 76.70802
2400.085, 77.24938
2402.014, 77.01951
2403.942, 76.65978
2405.871, 75.83964
2407.799, 76.05659
2409.728, 75.34692
2411.656, 76.33212
2413.584, 74.46594
2415.513, 75.95529
2417.441, 75.78613
2419.370, 74.97591
2421.298, 75.94375
2423.227, 75.89528
2425.155, 74.91676
2427.084, 74.96003
2429.012, 74.98817
2430.941, 74.83234
2432.869, 74.76584
2434.798, 74.67234
2436.726, 74.42219
2438.655, 74.40697
2440.583, 74.15992
2442.511, 73.93531
2444.440, 74.02073
2446.368, 74.28305
2448.297, 74.24799
2450.225, 74.08533
2452.154, 73.81480
2454.082, 73.69994
2456.011, 73.94331
2457.939, 74.14314
2459.868, 73.86932
2461.796, 73.70395
2463.725, 72.85184
2465.653, 73.12037
2467.582, 73.68502
2469.510, 72.61181
2471.438, 72.49779
2473.367, 73.26474
2475.295, 73.34101
2477.224, 73.30369
2479.152, 73.30363
2481.081, 72.99426
2483.009, 72.85479
2484.938, 72.46691
2486.866, 72.47989
2488.795, 72.10471
2490.723, 71.50050
2492.652, 71.79501
2494.580, 71.48158
2496.509, 71.06302
2498.437, 71.07045
2500.365, 71.10364
2502.294, 71.64404
2504.222, 70.82394
2506.151, 70.12877
2508.079, 71.14931
2510.008, 70.39092
2511.936, 69.66611
2513.865, 70.91331
2515.793, 70.37411
2517.722, 68.73027
2519.650, 69.12901
2521.579, 69.80659
2523.507, 69.37532
2525.436, 69.48528
2527.364, 70.47462
2529.292, 70.53004
2531.221, 69.35482
2533.149, 69.01443
2535.078, 69.34029
2537.006, 68.48486
2538.935, 68.48904
2540.863, 69.26519
2542.792, 69.69167
2544.720, 69.53974
2546.649, 69.23756
2548.577, 69.32616
2550.506, 68.96680
2552.434, 68.59121
2554.363, 68.52905
2556.291, 67.90488
2558.219, 67.88403
2560.148, 68.12112
2562.076, 67.81275
2564.005, 67.60746
2565.933, 68.12818
2567.862, 68.37778
2569.790, 67.40321
2571.719, 66.79160
2573.647, 67.11594
2575.576, 67.35015
2577.504, 66.40182
2579.433, 66.09580
2581.361, 66.64584
2583.290, 65.36459
2585.218, 64.67763
2587.146, 65.94575
2589.075, 65.24894
2591.003, 64.51562
2592.932, 64.92879
2594.860, 64.75999
2596.789, 64.16449
2598.717, 64.48038
2600.646, 64.59424
2602.574, 64.51709
2604.503, 63.67643
2606.431, 63.82166
2608.360, 63.57172
2610.288, 63.30568
2612.217, 63.58959
2614.145, 62.86004
2616.073, 63.13530
2618.002, 63.00938
2619.930, 63.06711
2621.859, 62.72726
2623.787, 62.51024
2625.716, 62.69080
2627.644, 62.65126
2629.573, 62.26564
2631.501, 62.33504
2633.430, 61.59154
2635.358, 61.56137
2637.287, 61.83887
2639.215, 61.47331
2641.144, 61.54990
2643.072, 61.45815
2645.000, 60.60099
2646.929, 61.07487
2648.857, 60.97316
2650.786, 60.28030
2652.714, 60.70862
2654.643, 60.09724
2656.571, 59.85703
2658.500, 59.89602
2660.428, 59.64394
2662.357, 59.85080
2664.285, 59.61554
2666.214, 59.34068
2668.142, 59.23833
2670.071, 58.64734
2671.999, 58.96280
2673.927, 58.65913
2675.856, 58.66314
2677.784, 58.73699
2679.713, 58.27663
2681.641, 59.04912
2683.570, 58.77797
2685.498, 57.94309
2687.427, 57.13102
2689.355, 57.28920
2691.284, 57.78947
2693.212, 57.03070
2695.141, 57.00822
2697.069, 57.31303
2698.998, 57.12685
2700.926, 57.37780
2702.854, 57.36008
2704.783, 56.33527
2706.711, 55.24726
2708.640, 55.39906
2710.568, 54.07110
2712.497, 54.72921
2714.425, 52.95354
2716.354, 53.86900
2718.282, 55.01460
2720.211, 55.27956
2722.139, 55.46297
2724.068, 54.31639
2725.996, 53.09829
2727.925, 52.93854
2729.853, 53.45687
2731.781, 53.87178
2733.710, 54.00407
2735.638, 54.74002
2737.567, 53.50679
2739.495, 52.48866
2741.424, 53.23785
2743.352, 53.57215
2745.281, 53.09991
2747.209, 53.18490
2749.138, 53.12750
2751.066, 52.62204
2752.995, 52.74910
2754.923, 52.94707
2756.852, 52.25916
2758.780, 52.30354
2760.708, 51.64624
2762.637, 51.67190
2764.565, 50.94609
2766.494, 50.43576
2768.422, 50.49182
2770.351, 50.84335
2772.279, 51.17836
2774.208, 50.56306
2776.136, 49.43419
2778.065, 49.50310
2779.993, 48.66575
2781.922, 47.97707
2783.850, 47.92255
2785.779, 47.10040
2787.707, 47.37557
2789.635, 48.23036
2791.564, 47.64775
2793.492, 47.37704
2795.421, 47.21568
2797.349, 46.98443
2799.278, 46.71595
2801.206, 46.61911
2803.135, 46.83119
2805.063, 47.28495
2806.992, 46.73721
2808.920, 46.67316
2810.849, 45.55592
2812.777, 46.35006
2814.706, 46.41456
2816.634, 47.39904
2818.563, 47.17450
2820.491, 45.89182
2822.419, 45.43129
2824.348, 45.03616
2826.276, 44.79201
2828.205, 44.51374
2830.133, 44.47965
2832.062, 44.10833
2833.990, 43.58648
2835.919, 44.56780
2837.847, 44.34377
2839.776, 43.73537
2841.704, 45.12258
2843.633, 45.08955
2845.561, 43.99356
2847.490, 42.67030
2849.418, 42.67047
2851.346, 42.96895
2853.275, 43.11521
2855.203, 41.97789
2857.132, 40.87095
2859.060, 40.55880
2860.989, 40.75868
2862.917, 41.05027
2864.846, 41.37967
2866.774, 41.47603
2868.703, 41.51860
2870.631, 41.38007
2872.560, 41.19115
2874.488, 40.83758
2876.417, 40.23698
2878.345, 39.91424
2880.273, 40.84488
2882.202, 41.22821
2884.130, 40.89726
2886.059, 39.81712
2887.987, 40.07128
2889.916, 39.31518
2891.844, 39.28394
2893.773, 38.30772
2895.701, 36.96276
2897.630, 36.24532
2899.558, 36.70868
2901.487, 37.00333
2903.415, 37.07178
2905.344, 37.09571
2907.272, 36.94979
2909.200, 36.77797
2911.129, 36.40681
2913.057, 36.34977
2914.986, 35.80779
2916.914, 35.95168
2918.843, 35.26617
2920.771, 34.70228
2922.700, 35.03664
2924.628, 34.78488
2926.557, 35.00854
2928.485, 34.94978
2930.414, 35.23993
2932.342, 34.99826
2934.271, 34.82471
2936.199, 34.08671
2938.127, 34.30128
2940.056, 33.70817
2941.984, 34.27349
2943.913, 34.36679
2945.841, 33.96265
2947.770, 32.84905
2949.698, 32.53590
2951.627, 33.24433
2953.555, 33.66786
2955.484, 34.35510
2957.412, 34.60873
2959.341, 33.32407
2961.269, 31.95394
2963.198, 31.70876
2965.126, 32.36593
2967.054, 31.54992
2968.983, 32.26081
2970.911, 33.05087
2972.840, 31.59001
2974.768, 31.47554
2976.697, 31.68796
2978.625, 31.75559
2980.554, 31.05532
2982.482, 30.90121
2984.411, 31.04061
2986.339, 30.90953
2988.268, 30.64914
2990.196, 30.10564
2992.125, 29.47578
2994.053, 29.31891
2995.981, 29.98063
2997.910, 30.26353
2999.838, 29.52376
3001.767, 29.42827
3003.695, 28.69816
3005.624, 27.73513
3007.552, 28.15928
3009.481, 28.25893
3011.409, 27.90340
3013.338, 27.44931
3015.266, 27.81335
3017.195, 28.08343
3019.123, 27.79426
3021.052, 26.84793
3022.980, 28.43061
3024.908, 28.57341
3026.837, 27.11305
3028.765, 27.06033
3030.694, 27.54959
3032.622, 26.95325
3034.551, 26.96602
3036.479, 26.22764
3038.408, 26.10966
3040.336, 24.81699
3042.265, 23.61892
3044.193, 25.78036
3046.122, 26.40448
3048.050, 24.91266
3049.979, 25.41428
3051.907, 24.03663
3053.835, 23.48522
3055.764, 25.55828
3057.692, 24.46941
3059.621, 24.59648
3061.549, 24.94516
3063.478, 23.39823
3065.406, 23.30603
3067.335, 23.02500
3069.263, 22.65186
3071.192, 23.32734
3073.120, 22.91936
3075.049, 22.94884
3076.977, 23.86465
3078.906, 22.59413
3080.834, 22.92768
3082.762, 23.07983
3084.691, 21.60924
3086.619, 21.32812
3088.548, 21.60619
3090.476, 22.11702
3092.405, 22.15533
3094.333, 21.19214
3096.262, 20.69069
3098.190, 20.71325
3100.119, 20.59600
3102.047, 20.85539
3103.976, 20.79137
3105.904, 20.62467
3107.833, 21.96403
3109.761, 22.78494
3111.689, 21.41743
3113.618, 18.14294
3115.546, 21.19782
3117.475, 20.86219
3119.403, 19.35803
3121.332, 20.67109
3123.260, 19.66571
3125.189, 20.03260
3127.117, 20.71066
3129.046, 18.85185
3130.974, 18.19294
3132.903, 17.77169
3134.831, 17.50607
3136.760, 18.28508
3138.688, 18.86422
3140.616, 18.98638
3142.545, 18.61831
3144.473, 18.24572
3146.402, 18.42131
3148.330, 17.59736
3150.259, 16.19963
3152.187, 17.70130
3154.116, 16.55422
3156.044, 15.93551
3157.973, 17.10443
3159.901, 16.23077
3161.830, 15.70522
3163.758, 15.64469
3165.687, 15.80826
3167.615, 15.63231
3169.543, 15.87787
3171.472, 15.33210
3173.400, 13.86255
3175.329, 14.17611
3177.257, 13.67449
3179.186, 14.19414
3181.114, 13.66933
3183.043, 14.47310
3184.971, 14.64606
3186.900, 14.51415
3188.828, 14.42998
3190.757, 14.40263
3192.685, 14.51159
3194.614, 14.71632
3196.542, 14.75419
3198.470, 14.12742
3200.399, 13.50040
3202.327, 13.46999
3204.256, 14.10419
3206.184, 12.91981
3208.113, 13.45802
3210.041, 13.17640
3211.970, 12.95988
3213.898, 11.87854
3215.827, 12.37305
3217.755, 11.57666
3219.684, 10.13948
3221.612, 11.99103
3223.541, 12.06651
3225.469, 11.48213
3227.397, 11.16095
3229.326, 11.60269
3231.254, 11.58137
3233.183, 11.28710
3235.111, 11.10643
3237.040, 12.25350
3238.968, 11.54799
3240.897, 10.69640
3242.825, 10.81578
3244.754, 12.35336
3246.682, 11.86076
3248.611, 10.79727
3250.539, 9.818606
3252.468, 8.915661
3254.396, 9.214126
3256.324, 10.17056
3258.253, 10.85423
3260.181, 9.824475
3262.110, 8.333169
3264.038, 8.167606
3265.967, 8.849519
3267.895, 9.816664
3269.824, 9.106261
3271.752, 9.542583
3273.681, 10.40050
3275.609, 10.66189
3277.538, 9.770555
3279.466, 9.367417
3281.395, 9.246775
3283.323, 9.293664
3285.251, 9.779792
3287.180, 9.616117
3289.108, 10.25695
3291.037, 10.90928
3292.965, 9.896260
3294.894, 9.075259
3296.822, 9.339953
3298.751, 9.760303
3300.679, 9.301530
3302.608, 8.937684
3304.536, 8.735006
3306.465, 8.875118
3308.393, 9.149997
3310.322, 7.775217
3312.250, 9.071553
3314.178, 10.15011
3316.107, 9.837442
3318.035, 8.713575
3319.964, 7.414382
3321.892, 8.183417
3323.821, 9.311398
3325.749, 8.801574
3327.678, 7.906992
3329.606, 8.525354
3331.535, 7.186745
3333.463, 3.997822
3335.392, 7.291083
3337.320, 6.672422
3339.249, 8.139132
3341.177, 9.897711
3343.105, 5.760211
3345.034, 6.461942
3346.962, 7.486773
3348.891, 8.550620
3350.819, 9.472386
3352.748, 7.881997
3354.676, 7.287615
3356.605, 6.665695
3358.533, 6.235288
3360.462, 7.681626
3362.390, 7.988574
3364.319, 7.230453
3366.247, 6.422944
3368.176, 6.357431
3370.104, 5.605188
3372.032, 5.204818
3373.961, 6.592630
3375.889, 8.158328
3377.818, 7.292504
3379.746, 6.543829
3381.675, 5.691585
3383.603, 6.077517
3385.532, 5.381627
3387.460, 4.831822
3389.389, 5.089572
3391.317, 6.080226
3393.246, 6.494813
3395.174, 5.871140
3397.103, 5.220571
3399.031, 5.893784
3400.959, 6.868208
3402.888, 6.779601
3404.816, 6.595521
3406.745, 3.998453
3408.673, 5.205390
3410.602, 5.770426
3412.530, 4.869952
3414.459, 6.247581
3416.387, 5.277516
3418.316, 5.325132
3420.244, 6.053636
3422.173, 4.886434
3424.101, 6.217296
3426.030, 3.448669
3427.958, 1.828059
3429.886, 3.461116
3431.815, 5.153962
3433.743, 5.861916
3435.672, 5.873078
3437.600, 5.299256
3439.529, 4.545426
3441.457, 4.909999
3443.386, 5.617134
3445.314, 5.670212
3447.243, 5.219286
3449.171, 4.718863
3451.100, 3.890659
3453.028, 3.278339
3454.957, 3.081731
3456.885, 2.860541
3458.813, 2.204059
3460.742, 3.473275
3462.670, 3.308311
3464.599, 3.099084
3466.527, 3.882704
3468.456, 3.417056
3470.384, 3.817218
3472.313, 3.323358
3474.241, 3.824270
3476.170, 4.254267
3478.098, 4.250320
3480.027, 3.307525
3481.955, 2.576272
3483.884, 2.292318
3485.812, 2.754431
3487.740, 2.545936
3489.669, 2.459469
3491.597, 2.885154
3493.526, 2.210407
3495.454, 2.061460
3497.383, 2.069533
3499.311, 1.730021
3501.240, 2.608833
3503.168, 3.244710
3505.097, 2.959401
3507.025, 2.511164
3508.954, 3.571782
3510.882, 2.946986
3512.811, 3.396419
3514.739, 4.298890
3516.667, 4.260467
3518.596, 3.252406
3520.524, 4.327868
3522.453, 3.435258
3524.381, 1.679537
3526.310, 0.6686826
3528.238, 1.903673
3530.167, 1.102193
3532.095, 1.719304
3534.024, 2.944679
3535.952, 1.667082
3537.881, 0.5971239
3539.809, -5.9050739E-02
3541.738, 0.8820733
3543.666, 1.993169
3545.594, 1.753762
3547.523, 1.859747
3549.451, 1.150643
3551.380, 1.195554
3553.308, 1.686791
3555.237, 1.999705
3557.165, 2.205328
3559.094, 1.560794
3561.022, 0.9075751
3562.951, 1.313950
3564.879, 1.855147
3566.808, 0.5252756
3568.736, 1.848516
3570.665, 3.132422
3572.593, 1.795733
3574.521, 0.5952860
3576.450, 2.471916
3578.378, 0.9325732
3580.307, -1.248369
3582.235, -0.3519685
3584.164, 1.631721
3586.092, 2.065747
3588.021, 0.1286944
3589.949, -1.263165
3591.878, 0.1897441
3593.806, 1.361580
3595.735, 0.6402424
3597.663, 1.507134
3599.592, 1.730229
3601.520, 1.542792
3603.448, 0.1786668
3605.377, 9.0927016E-03
3607.305, 1.191415
3609.234, 1.328252
3611.162, -0.9532164
3613.091, -1.406023
3615.019, 7.6674446E-02
3616.948, 1.429009
3618.876, 0.9626843
3620.805, 0.6337715
3622.733, -0.2872019
3624.662, -0.5370914
3626.590, 0.1747463
3628.519, 0.6899351
3630.447, -0.6555978
3632.375, 0.2288569
3634.304, -1.021487
3636.232, -2.179089
3638.161, -2.336038
3640.089, -1.831184
3642.018, -1.065081
3643.946, -0.2143466
3645.875, -3.5573461E-03
3647.803, -0.7829012
3649.732, -1.262532
3651.660, -0.2347086
3653.589, 0.6164972
3655.517, 0.1052682
3657.446, -0.3194385
3659.374, -1.948370
3661.302, -3.154380
3663.231, -1.261101
3665.159, -2.441782
3667.088, -1.145499
3669.016, -2.178854
3670.945, -2.200134
3672.873, -0.9457334
3674.802, -1.924455
3676.730, -1.934952
3678.659, -2.467598
3680.587, -2.055233
3682.516, -1.666546
3684.444, -2.124201
3686.373, -1.694926
3688.301, -1.601399
3690.229, -1.399808
3692.158, -1.335110
3694.086, -1.045064
3696.015, -0.9504604
3697.943, -1.106461
3699.872, -0.7390784
3701.800, -0.7514236
3703.729, -0.7886963
3705.657, -0.7187886
3707.586, -1.041604
3709.514, -1.697931
3711.443, -1.773841
3713.371, -3.265007
3715.300, -2.687176
3717.228, -2.834380
3719.156, -4.058212
3721.085, -4.118207
3723.013, -1.490855
3724.942, -1.160702
3726.870, -2.666750
3728.799, -3.180892
3730.727, -3.127337
3732.656, -3.389337
3734.584, -3.131001
3736.513, -3.459348
3738.441, -3.563884
3740.370, -3.361858
3742.298, -3.490280
3744.227, -3.381543
3746.155, -3.528976
3748.083, -3.478035
3750.012, -3.616601
3751.940, -3.341618
3753.869, -2.797721
3755.797, -2.513259
3757.726, -1.995794
3759.654, -1.523524
3761.583, -1.570506
3763.511, -2.286949
3765.440, -1.858855
3767.368, -3.221355
3769.297, -3.846935
3771.225, -2.089573
3773.154, -1.966645
3775.082, -4.477402
3777.010, -4.874444
3778.939, -2.586107
3780.867, -1.637394
3782.796, -3.548370
3784.724, -5.190750
3786.653, -3.812864
3788.581, -3.610905
3790.510, -3.130190
3792.438, -3.304955
3794.367, -3.133776
3796.295, -3.047983
3798.224, -3.494583
3800.152, -3.175535
3802.081, -4.024584
3804.009, -4.556694
3805.938, -4.768736
3807.866, -4.689301
3809.794, -4.091344
3811.723, -4.263361
3813.651, -4.052066
3815.580, -4.021484
3817.508, -4.021613
3819.437, -3.754785
3821.365, -3.871350
3823.294, -4.848186
3825.222, -4.223014
3827.151, -2.539063
3829.079, -3.159173
3831.008, -3.830944
3832.936, -4.758832
3834.865, -5.174241
3836.793, -4.594928
3838.721, -3.779522
3840.650, -3.231718
3842.578, -2.945058
3844.507, -4.310823
3846.435, -4.383583
3848.364, -4.325720
3850.292, -4.978507
3852.221, -5.304893
3854.149, -5.454494
3856.078, -4.606348
3858.006, -5.354628
3859.935, -4.590475
3861.863, -4.684904
3863.792, -4.995520
3865.720, -4.517105
3867.648, -5.627869
3869.577, -6.242388
3871.505, -5.314703
3873.434, -4.307076
3875.362, -5.519150
3877.291, -5.463343
3879.219, -4.286436
3881.148, -4.753778
3883.076, -5.178665
3885.005, -3.935926
3886.933, -6.241430
3888.862, -5.162913
3890.790, -4.837308
3892.719, -5.743375
3894.647, -6.380872
3896.575, -6.077001
3898.504, -4.077283
3900.432, -4.528924
3902.361, -3.710760
3904.289, -4.768510
3906.218, -5.994214
3908.146, -4.972036
3910.075, -3.968995
3912.003, -5.234940
3913.932, -2.919497
3915.860, -4.487940
3917.789, -4.761582
3919.717, -6.040261
3921.646, -5.449076
3923.574, -5.898911
3925.502, -6.920741
3927.431, -5.586043
3929.359, -4.472329
3931.288, -6.152410
3933.216, -6.759317
3935.145, -7.221609
3937.073, -6.037249
3939.002, -4.768632
3940.930, -3.461741
3942.859, -3.267129
3944.787, -3.090817
3946.716, -5.559494
3948.644, -4.342097
3950.573, -5.129829
3952.501, -6.904652
3954.429, -5.311550
3956.358, -5.984101
3958.286, -6.959908
3960.215, -4.431250
3962.143, -4.615463
3964.072, -4.130048
3966.000, -4.788210
3967.929, -4.690649
3969.857, -5.627233
3971.786, -5.043177
3973.714, -4.700938
3975.643, -4.941584
3977.571, -5.522095
3979.500, -4.351832
3981.428, -4.035465
3983.356, -5.150597
3985.285, -3.539729
3987.213, -2.975364
3989.142, -3.395786
3991.070, -4.052292
3992.999, -3.769719
3994.927, -3.131380
3996.856, -3.203510
3998.784, -3.262256
4000.713, -2.526517
4002.641, -2.082170
4004.570, -1.047896
4006.498, -1.362633
4008.427, -1.751397
4010.355, -2.283145
4012.283, -2.970438
4014.212, -2.967594
4016.140, -3.236560
4018.069, -3.533372
4019.997, -3.310573
4021.926, -3.632942
4023.854, -3.801126
4025.783, -3.181851
4027.711, -3.922896
4029.640, -3.025539
4031.568, -2.935280
4033.497, -3.261615
4035.425, -4.108398
4037.354, -3.738435
4039.282, -2.891218
4041.210, -2.003560
4043.139, -3.985314
4045.067, -4.839266
4046.996, -3.361024
4048.924, -3.034447
4050.853, -3.550277
4052.781, -2.479407
4054.710, -3.061795
4056.638, -2.163747
4058.567, -2.193092
4060.495, -2.421816
4062.424, -3.856853
4064.352, -3.817066
4066.281, -3.140838
4068.209, -3.040462
4070.137, -2.300963
4072.066, -1.200284
4073.994, -2.805824
4075.923, -5.079289
4077.851, -3.614373
4079.780, -4.531937
4081.708, -3.828041
4083.637, -2.616321
4085.565, -3.842304
4087.494, -3.374118
4089.422, -3.589224
4091.351, -4.599871
4093.279, -3.324974
4095.208, -3.454148
4097.136, -5.991896
4099.064, -5.662117
4100.993, -4.765968
4102.921, -4.235105
4104.850, -4.790998
4106.778, -3.830949
4108.707, -4.182257
4110.635, -4.942582
4112.563, -4.248458
4114.492, -3.541144
4116.420, -4.357259
4118.349, -5.085510
4120.277, -4.987427
4122.206, -5.619046
4124.134, -4.664838
4126.063, -5.965349
4127.991, -4.614643
4129.920, -4.173726
4131.848, -4.541684
4133.777, -5.188512
4135.705, -5.807661
4137.634, -4.940320
4139.562, -5.092336
4141.491, -3.846324
4143.419, -4.129928
4145.348, -4.665809
4147.276, -4.205814
4149.205, -5.433155
4151.133, -5.090872
4153.062, -5.151597
4154.990, -4.655359
4156.918, -4.565626
4158.847, -3.097425
4160.775, -3.202721
4162.704, -3.220644
4164.632, -4.487165
4166.561, -4.027045
4168.489, -4.652177
4170.417, -5.399000
4172.346, -4.912578
4174.274, -4.591187
4176.203, -6.576829
4178.131, -5.697761
4180.060, -5.349874
4181.988, -4.949970
4183.917, -4.596361
4185.845, -4.427022
4187.774, -4.057164
4189.702, -4.748736
4191.631, -6.614543
4193.559, -5.606830
4195.488, -6.522925
4197.416, -3.757604
4199.345, -6.079285
4201.273, -3.847031
4203.202, -4.033330
4205.130, -5.146026
4207.059, -6.298666
4208.987, -4.568170
4210.916, -3.857066
4212.844, -4.927800
4214.772, -4.677820
4216.701, -4.984650
4218.629, -6.164096
4220.558, -4.406682
4222.486, -5.806091
4224.415, -7.847843
4226.343, -5.416471
4228.271, -5.973207
4230.200, -3.588888
4232.128, -4.698023
4234.057, -5.333009
4235.985, -5.260470
4237.914, -2.872021
4239.842, -3.358695
4241.771, -3.944420
4243.699, -4.643359
4245.628, -5.979290
4247.556, -6.284194
4249.485, -6.308226
4251.413, -6.691381
4253.342, -5.066484
4255.270, -5.866031
4257.199, -4.406688
4259.127, -5.663435
4261.056, -5.816054
4262.984, -4.294240
4264.913, -5.281416
4266.841, -4.409970
4268.770, -5.625870
4270.698, -5.945897
4272.626, -6.168588
4274.555, -5.202048
4276.483, -4.303862
4278.412, -3.328577
4280.340, -3.924728
4282.269, -4.385972
4284.197, -4.562129
4286.125, -4.892567
4288.054, -4.751101
4289.982, -5.476860
4291.911, -4.983747
4293.839, -7.725515
4295.768, -7.133269
4297.696, -3.056168
4299.625, -5.767502
4301.553, -4.662857
4303.482, -5.472707
4305.410, -5.770106
4307.339, -3.943302
4309.267, -5.360660
4311.196, -5.781663
4313.124, -4.487004
4315.053, -3.347491
4316.981, -5.731056
4318.910, -6.057950
4320.838, -5.358780
4322.767, -5.395289
4324.695, -4.448430
4326.624, -3.607416
4328.552, -4.512236
4330.480, -5.458843
4332.409, -4.792547
4334.337, -4.589937
4336.266, -5.764524
4338.194, -5.338394
4340.123, -5.575240
4342.051, -3.644151
4343.979, -4.684164
4345.908, -6.566913
4347.836, -4.594030
4349.765, -6.755384
4351.693, -5.564240
4353.622, -3.836655
4355.550, -4.651539
4357.479, -4.976929
4359.407, -5.814545
4361.336, -7.283597
4363.264, -6.652349
4365.193, -5.722278
4367.121, -4.516522
4369.050, -2.998914
4370.978, -4.876946
4372.907, -7.718751
4374.835, -7.458920
4376.764, -5.745571
4378.692, -7.536355
4380.621, -6.503866
##END=



