##NAMES=Cuspidine
##RRUFFID=R060049
##IDEAL CHEMISTRY=Ca_8_(Si_2_O_7_)_2_F_4_
##LOCALITY=Ariccia, Rome, Italy
##OWNER=RRUFF
##SOURCE=University of Arizona Mineral Museum
##DESCRIPTION=White and colorless spear-shaped single crystal
##STATUS=The identification of this mineral is confirmed by single-crystal X-ray diffraction and chemical analysis
##URL=https://www.rruff.net/odr/rruff_sample/R060049
##MEASURED CHEMISTRY=Ca_4.00_Si_2.00_O_7_F_2.00_
##DIFFRACTION SAMPLE DESCRIPTION=Single crystal, powder profile is calculated
##CELL PARAMETERS=a: 10.923 b: 10.543 c: 7.543 alpha: 90 beta: 109.69 gamma: 90 volume: 817.9 crystal system: monoclinic
##FILETYPE=Raman RAW
##RAMAN WAVELENGTH=780

81.65746, 145.3380
83.58592, 177.2719
85.51439, 208.6799
87.44286, 243.6106
89.37132, 288.4984
91.29979, 335.1073
93.22826, 375.2038
95.15672, 408.4236
97.08519, 410.5633
99.01366, 395.3666
100.9421, 380.2048
102.8706, 362.5682
104.7991, 346.8072
106.7275, 339.4016
108.6560, 341.1211
110.5845, 340.9546
112.5129, 336.6249
114.4414, 333.4461
116.3699, 332.1642
118.2983, 333.3220
120.2268, 339.3998
122.1553, 351.6004
124.0837, 359.5580
126.0122, 360.9973
127.9407, 360.9759
129.8691, 360.6507
131.7976, 360.8104
133.7261, 363.6931
135.6545, 369.9684
137.5830, 371.4009
139.5115, 364.5902
141.4399, 358.4308
143.3684, 359.5850
145.2969, 361.8589
147.2253, 355.0479
149.1538, 338.4244
151.0823, 325.6448
153.0107, 317.1793
154.9392, 313.2680
156.8677, 316.1628
158.7961, 321.7332
160.7246, 325.7925
162.6531, 328.2238
164.5815, 328.9436
166.5100, 327.4027
168.4385, 325.5279
170.3669, 321.6280
172.2954, 319.5966
174.2239, 324.2198
176.1523, 335.0237
178.0808, 344.1058
180.0093, 351.6220
181.9377, 356.8681
183.8662, 357.1024
185.7947, 357.3342
187.7231, 361.0185
189.6516, 367.6363
191.5801, 373.9273
193.5085, 379.2201
195.4370, 387.9098
197.3655, 407.0252
199.2939, 423.6579
201.2224, 429.9568
203.1509, 430.1124
205.0793, 433.9709
207.0078, 441.5023
208.9362, 448.5657
210.8647, 453.7072
212.7932, 459.3745
214.7216, 465.6667
216.6501, 473.3728
218.5786, 485.3938
220.5070, 500.7549
222.4355, 511.0901
224.3640, 513.2184
226.2924, 516.0189
228.2209, 522.1445
230.1494, 529.5386
232.0779, 536.2122
234.0063, 542.9846
235.9348, 553.1785
237.8633, 568.4774
239.7917, 577.3983
241.7202, 571.0300
243.6487, 565.2684
245.5771, 565.3270
247.5056, 570.3279
249.4341, 580.2512
251.3625, 594.5735
253.2910, 607.0859
255.2195, 615.6425
257.1479, 624.6984
259.0764, 633.8273
261.0049, 644.9067
262.9333, 663.4568
264.8618, 685.0816
266.7903, 696.3929
268.7187, 693.8455
270.6472, 695.7634
272.5757, 710.9810
274.5041, 724.1301
276.4326, 728.1741
278.3611, 727.7358
280.2895, 728.5634
282.2180, 730.5391
284.1465, 732.6318
286.0749, 734.1663
288.0034, 737.0613
289.9319, 742.2031
291.8603, 748.0053
293.7888, 756.2877
295.7173, 763.5971
297.6457, 761.7698
299.5742, 749.2523
301.5027, 743.5453
303.4311, 753.0274
305.3596, 761.0521
307.2881, 763.9811
309.2165, 764.3670
311.1450, 761.1368
313.0735, 757.7122
315.0019, 763.9108
316.9304, 784.4210
318.8589, 796.9910
320.7873, 791.4139
322.7158, 789.9666
324.6443, 803.0055
326.5727, 819.8385
328.5012, 829.9816
330.4297, 835.8393
332.3581, 845.8854
334.2866, 863.9496
336.2151, 876.7859
338.1435, 880.0623
340.0720, 883.3361
342.0005, 892.3302
343.9289, 901.1989
345.8574, 903.8284
347.7859, 901.4101
349.7143, 900.4844
351.6428, 902.0457
353.5713, 902.8323
355.4997, 900.5973
357.4282, 900.5787
359.3567, 903.8600
361.2851, 911.0291
363.2136, 923.0872
365.1421, 939.2732
367.0705, 955.7191
368.9990, 970.3855
370.9275, 991.0950
372.8559, 1019.651
374.7844, 1051.115
376.7129, 1085.271
378.6413, 1120.585
380.5698, 1155.152
382.4983, 1189.471
384.4267, 1226.049
386.3552, 1264.615
388.2837, 1307.922
390.2121, 1359.297
392.1406, 1409.084
394.0691, 1449.268
395.9975, 1492.818
397.9260, 1556.188
399.8545, 1626.648
401.7829, 1672.288
403.7114, 1686.682
405.6399, 1719.095
407.5683, 1780.582
409.4968, 1831.175
411.4253, 1859.514
413.3537, 1880.271
415.2822, 1899.089
417.2107, 1917.005
419.1391, 1934.342
421.0676, 1951.554
422.9961, 1973.608
424.9245, 2001.674
426.8530, 2027.870
428.7815, 2047.398
430.7099, 2073.222
432.6384, 2116.509
434.5669, 2162.490
436.4953, 2202.058
438.4238, 2235.862
440.3523, 2266.563
442.2807, 2294.592
444.2092, 2318.184
446.1377, 2339.125
448.0661, 2349.625
449.9946, 2347.063
451.9231, 2334.268
453.8515, 2315.291
455.7800, 2285.632
457.7085, 2232.987
459.6369, 2163.788
461.5654, 2111.217
463.4939, 2076.764
465.4223, 2045.216
467.3508, 2015.534
469.2793, 1987.642
471.2077, 1958.583
473.1362, 1936.069
475.0647, 1920.458
476.9931, 1915.230
478.9216, 1929.581
480.8501, 1960.735
482.7785, 1987.029
484.7070, 2007.664
486.6355, 2029.705
488.5639, 2051.939
490.4924, 2082.126
492.4209, 2136.143
494.3493, 2182.965
496.2778, 2201.029
498.2063, 2238.014
500.1347, 2234.928
502.0632, 2272.200
503.9917, 2286.573
505.9201, 2278.947
507.8486, 2250.769
509.7771, 2197.234
511.7055, 2138.422
513.6340, 2080.456
515.5624, 2018.782
517.4909, 1947.929
519.4194, 1875.274
521.3478, 1806.420
523.2763, 1742.117
525.2048, 1684.851
527.1332, 1634.072
529.0617, 1586.072
530.9902, 1539.734
532.9186, 1499.649
534.8471, 1471.681
536.7756, 1443.471
538.7040, 1409.485
540.6325, 1375.994
542.5610, 1352.727
544.4894, 1330.556
546.4179, 1289.172
548.3464, 1234.878
550.2748, 1192.334
552.2033, 1163.714
554.1318, 1128.832
556.0602, 1078.806
557.9887, 1035.281
559.9172, 1001.260
561.8456, 975.7408
563.7741, 967.8902
565.7026, 959.5319
567.6310, 926.0565
569.5595, 882.5544
571.4880, 860.6177
573.4164, 856.0368
575.3449, 842.3333
577.2734, 815.3489
579.2018, 793.4871
581.1303, 781.2288
583.0588, 771.3773
584.9872, 763.6152
586.9157, 756.9457
588.8442, 752.0776
590.7726, 746.6782
592.7011, 738.5695
594.6296, 729.0397
596.5580, 719.0460
598.4865, 708.8857
600.4150, 700.9974
602.3434, 695.6190
604.2719, 692.3233
606.2004, 693.4937
608.1288, 692.7111
610.0573, 690.5466
611.9858, 684.7849
613.9142, 670.4326
615.8427, 656.5961
617.7712, 650.3350
619.6996, 648.5262
621.6281, 648.8362
623.5566, 650.1614
625.4850, 647.7324
627.4135, 640.7761
629.3420, 638.2213
631.2704, 644.3472
633.1989, 646.5185
635.1274, 639.8966
637.0558, 636.6021
638.9843, 639.9827
640.9128, 646.0499
642.8412, 654.6006
644.7697, 663.4420
646.6982, 671.2571
648.6266, 677.6233
650.5551, 682.9530
652.4836, 686.7151
654.4120, 685.5297
656.3405, 679.2261
658.2690, 668.3066
660.1974, 649.4540
662.1259, 633.7297
664.0544, 623.7606
665.9828, 612.1756
667.9113, 594.8090
669.8398, 579.4579
671.7682, 569.6475
673.6967, 563.4665
675.6252, 563.1008
677.5536, 562.5345
679.4821, 550.6755
681.4106, 533.2309
683.3391, 529.2166
685.2675, 538.4019
687.1960, 541.6026
689.1245, 537.3055
691.0529, 532.5391
692.9814, 526.3909
694.9099, 523.1002
696.8383, 525.1987
698.7668, 525.6685
700.6953, 520.7916
702.6237, 515.9676
704.5522, 513.8397
706.4807, 513.2283
708.4091, 513.4808
710.3376, 514.6705
712.2661, 516.6044
714.1945, 519.6356
716.1230, 526.0581
718.0515, 535.2767
719.9799, 538.2120
721.9084, 534.1070
723.8369, 536.0986
725.7653, 545.9410
727.6938, 553.6589
729.6223, 556.8047
731.5507, 561.2733
733.4792, 571.7295
735.4077, 577.7520
737.3361, 568.7759
739.2646, 561.9443
741.1931, 569.0416
743.1215, 578.6414
745.0500, 582.6166
746.9785, 581.4317
748.9069, 572.0619
750.8354, 559.0631
752.7639, 556.3288
754.6923, 562.3699
756.6208, 565.9054
758.5493, 566.8685
760.4777, 565.0490
762.4062, 560.2458
764.3347, 555.7465
766.2631, 552.1784
768.1916, 547.4231
770.1201, 537.3854
772.0485, 534.3083
773.9770, 549.3475
775.9055, 561.4735
777.8339, 561.2317
779.7624, 558.5447
781.6909, 560.0145
783.6193, 561.2535
785.5478, 557.5748
787.4763, 551.4121
789.4047, 544.4488
791.3332, 538.2739
793.2617, 538.2537
795.1901, 542.2033
797.1186, 542.5176
799.0471, 539.4507
800.9755, 537.4185
802.9040, 536.7871
804.8325, 529.9849
806.7609, 514.0092
808.6894, 505.9956
810.6179, 511.4992
812.5463, 516.2410
814.4748, 517.9362
816.4033, 518.6280
818.3317, 519.5468
820.2602, 517.6849
822.1887, 510.8413
824.1171, 503.2284
826.0456, 494.8139
827.9741, 488.6570
829.9025, 487.8650
831.8310, 490.1319
833.7595, 495.0717
835.6879, 499.4270
837.6164, 498.6852
839.5449, 494.7882
841.4733, 490.1815
843.4018, 485.0439
845.3303, 480.2812
847.2587, 476.0186
849.1872, 472.1445
851.1157, 468.4303
853.0441, 461.5730
854.9726, 450.6659
856.9011, 443.8545
858.8295, 442.9853
860.7580, 440.8362
862.6865, 438.4900
864.6149, 432.5761
866.5434, 418.5121
868.4719, 408.2996
870.4003, 405.7778
872.3288, 403.7533
874.2573, 401.8521
876.1857, 398.0973
878.1142, 389.0660
880.0427, 382.2699
881.9711, 383.3182
883.8996, 384.6284
885.8281, 380.4697
887.7565, 376.3150
889.6850, 375.7960
891.6135, 377.5358
893.5419, 378.1529
895.4704, 382.7241
897.3989, 396.9002
899.3273, 418.7935
901.2558, 447.1811
903.1843, 479.8147
905.1127, 516.0055
907.0412, 553.0962
908.9697, 581.8218
910.8981, 599.6328
912.8266, 592.0619
914.7551, 560.6711
916.6835, 529.6089
918.6120, 498.5878
920.5405, 467.4232
922.4689, 435.1708
924.3974, 414.2690
926.3259, 406.2125
928.2543, 400.3530
930.1828, 396.3921
932.1113, 394.1216
934.0397, 393.8948
935.9682, 394.6803
937.8967, 396.3513
939.8251, 399.1357
941.7536, 403.1587
943.6821, 407.3459
945.6105, 411.0813
947.5390, 417.2755
949.4675, 429.2306
951.3959, 434.8452
953.3244, 426.9579
955.2529, 422.7097
957.1813, 429.0592
959.1098, 436.0626
961.0383, 441.5300
962.9667, 445.5881
964.8952, 446.9666
966.8237, 447.8329
968.7521, 448.3402
970.6806, 450.5202
972.6091, 457.1029
974.5375, 462.2358
976.4660, 462.6654
978.3945, 461.3200
980.3229, 458.4836
982.2514, 456.3739
984.1799, 456.8932
986.1083, 458.3426
988.0368, 460.6621
989.9653, 462.1196
991.8937, 459.8630
993.8222, 457.5543
995.7507, 458.7774
997.6791, 460.3980
999.6076, 459.8055
1001.536, 458.6669
1003.465, 457.5285
1005.393, 457.7576
1007.321, 461.4215
1009.250, 467.0652
1011.178, 472.2094
1013.107, 477.7279
1015.035, 488.2809
1016.964, 497.6405
1018.892, 494.8933
1020.821, 489.7411
1022.749, 494.9470
1024.678, 503.8007
1026.606, 508.0421
1028.535, 510.4373
1030.463, 514.5865
1032.391, 519.5477
1034.320, 523.4659
1036.248, 526.1349
1038.177, 528.6426
1040.105, 532.0948
1042.034, 535.5098
1043.962, 539.6870
1045.891, 547.4242
1047.819, 557.4556
1049.748, 568.6639
1051.676, 578.6188
1053.605, 582.2003
1055.533, 585.0403
1057.462, 598.4498
1059.390, 601.2727
1061.318, 617.3110
1063.247, 614.7144
1065.175, 617.1541
1067.104, 624.5434
1069.032, 641.0709
1070.961, 658.8743
1072.889, 661.6171
1074.818, 659.1450
1076.746, 666.7886
1078.675, 679.9851
1080.603, 692.1093
1082.532, 705.7166
1084.460, 725.9187
1086.389, 746.8284
1088.317, 761.5729
1090.245, 773.2331
1092.174, 784.5640
1094.102, 796.1700
1096.031, 803.8751
1097.959, 815.7968
1099.888, 848.1035
1101.816, 882.7664
1103.745, 898.7095
1105.673, 910.6834
1107.602, 932.8885
1109.530, 956.5334
1111.459, 971.1478
1113.387, 988.7542
1115.316, 1021.759
1117.244, 1058.486
1119.172, 1090.983
1121.101, 1119.431
1123.029, 1142.510
1124.958, 1167.636
1126.886, 1199.475
1128.815, 1235.015
1130.743, 1275.957
1132.672, 1310.658
1134.600, 1333.297
1136.529, 1351.537
1138.457, 1363.048
1140.386, 1380.130
1142.314, 1411.264
1144.243, 1442.999
1146.171, 1470.876
1148.099, 1497.409
1150.028, 1520.116
1151.956, 1548.206
1153.885, 1586.987
1155.813, 1628.542
1157.742, 1670.167
1159.670, 1708.896
1161.599, 1744.698
1163.527, 1779.419
1165.456, 1828.235
1167.384, 1879.095
1169.313, 1929.756
1171.241, 1995.768
1173.170, 2055.115
1175.098, 2116.059
1177.026, 2177.605
1178.955, 2253.189
1180.883, 2344.153
1182.812, 2443.256
1184.740, 2547.417
1186.669, 2647.072
1188.597, 2745.123
1190.526, 2845.117
1192.454, 2951.439
1194.383, 3077.083
1196.311, 3214.289
1198.240, 3353.415
1200.168, 3494.206
1202.097, 3630.021
1204.025, 3775.729
1205.953, 3954.532
1207.882, 4140.271
1209.810, 4303.047
1211.739, 4471.849
1213.667, 4675.593
1215.596, 4882.043
1217.524, 5064.151
1219.453, 5253.142
1221.381, 5460.039
1223.310, 5686.985
1225.238, 5956.019
1227.167, 6209.012
1229.095, 6417.965
1231.024, 6628.330
1232.952, 6851.151
1234.880, 7070.422
1236.809, 7284.502
1238.737, 7492.888
1240.666, 7697.076
1242.594, 7896.909
1244.523, 8089.845
1246.451, 8281.766
1248.380, 8465.900
1250.308, 8645.082
1252.237, 8842.707
1254.165, 9014.748
1256.094, 9173.151
1258.022, 9347.278
1259.951, 9528.985
1261.879, 9711.522
1263.807, 9879.586
1265.736, 10018.69
1267.664, 10147.08
1269.593, 10254.32
1271.521, 10368.49
1273.450, 10544.11
1275.378, 10691.84
1277.307, 10738.22
1279.235, 10788.69
1281.164, 10890.39
1283.092, 11005.02
1285.021, 11120.24
1286.949, 11237.90
1288.878, 11357.54
1290.806, 11475.78
1292.734, 11599.18
1294.663, 11716.76
1296.591, 11841.90
1298.520, 11943.00
1300.448, 12090.01
1302.377, 12227.38
1304.305, 12348.75
1306.234, 12452.39
1308.162, 12553.72
1310.091, 12680.16
1312.019, 12793.56
1313.948, 12835.71
1315.876, 12859.80
1317.805, 12914.57
1319.733, 12964.91
1321.661, 13000.51
1323.590, 13014.75
1325.518, 12996.46
1327.447, 12969.46
1329.375, 12944.65
1331.304, 12911.34
1333.232, 12860.89
1335.161, 12787.50
1337.089, 12696.24
1339.018, 12632.03
1340.946, 12600.85
1342.875, 12571.49
1344.803, 12530.90
1346.732, 12479.50
1348.660, 12428.89
1350.589, 12376.08
1352.517, 12339.06
1354.445, 12339.31
1356.374, 12349.96
1358.302, 12356.42
1360.231, 12387.59
1362.159, 12457.47
1364.088, 12532.74
1366.016, 12599.58
1367.945, 12703.62
1369.873, 12849.94
1371.802, 13014.60
1373.730, 13194.55
1375.659, 13385.65
1377.587, 13602.35
1379.516, 13869.10
1381.444, 14171.57
1383.372, 14516.28
1385.301, 14896.47
1387.229, 15290.18
1389.158, 15699.26
1391.086, 16121.53
1393.015, 16564.56
1394.943, 17044.30
1396.872, 17562.20
1398.800, 18103.50
1400.729, 18661.73
1402.657, 19256.25
1404.586, 19836.98
1406.514, 20395.35
1408.443, 21004.35
1410.371, 21654.88
1412.299, 22325.94
1414.228, 23016.14
1416.156, 23693.40
1418.085, 24345.37
1420.013, 24999.63
1421.942, 25653.18
1423.870, 26261.05
1425.799, 26850.84
1427.727, 27449.60
1429.656, 28095.76
1431.584, 28693.51
1433.513, 29292.98
1435.441, 29927.92
1437.370, 30485.53
1439.298, 31093.52
1441.226, 31711.79
1443.155, 32338.47
1445.083, 32995.83
1447.012, 33704.54
1448.940, 34476.13
1450.869, 35270.91
1452.797, 36115.70
1454.726, 36917.47
1456.654, 37637.80
1458.583, 38282.58
1460.511, 38847.27
1462.440, 39347.32
1464.368, 39810.93
1466.297, 40323.66
1468.225, 40838.81
1470.153, 41263.65
1472.082, 41715.60
1474.010, 42326.21
1475.939, 43012.49
1477.867, 43701.72
1479.796, 44395.43
1481.724, 45127.70
1483.653, 45929.67
1485.581, 46773.19
1487.510, 47581.73
1489.438, 48394.21
1491.367, 49303.17
1493.295, 50280.16
1495.224, 51312.84
1497.152, 52412.43
1499.080, 53562.29
1501.009, 54808.85
1502.937, 56222.09
1504.866, 57471.93
1506.794, 58540.35
1508.723, 59370.22
1510.651, 59898.11
1512.580, 59859.68
1514.508, 59302.77
1516.437, 58289.51
1518.365, 56940.97
1520.294, 55361.99
1522.222, 53594.19
1524.151, 51613.90
1526.079, 49650.43
1528.007, 47749.94
1529.936, 45970.76
1531.864, 44298.94
1533.793, 42764.54
1535.721, 41366.51
1537.650, 40038.52
1539.578, 38821.13
1541.507, 37765.00
1543.435, 36753.17
1545.364, 35746.22
1547.292, 34766.48
1549.221, 33783.97
1551.149, 32790.00
1553.078, 31806.14
1555.006, 30734.91
1556.934, 29614.22
1558.863, 28547.18
1560.791, 27503.57
1562.720, 26521.73
1564.648, 25562.74
1566.577, 24546.46
1568.505, 23608.73
1570.434, 22819.24
1572.362, 22038.54
1574.291, 21276.67
1576.219, 20607.73
1578.148, 19999.03
1580.076, 19414.82
1582.005, 18886.01
1583.933, 18426.71
1585.861, 18009.09
1587.790, 17629.59
1589.718, 17302.85
1591.647, 17014.64
1593.575, 16780.45
1595.504, 16611.26
1597.432, 16423.73
1599.361, 16231.69
1601.289, 16074.32
1603.218, 15940.63
1605.146, 15831.94
1607.075, 15749.64
1609.003, 15697.35
1610.932, 15670.31
1612.860, 15670.89
1614.788, 15674.54
1616.717, 15684.17
1618.645, 15735.02
1620.574, 15783.77
1622.502, 15807.66
1624.431, 15873.09
1626.359, 15917.89
1628.288, 15978.24
1630.216, 16050.81
1632.145, 16126.18
1634.073, 16245.50
1636.002, 16358.39
1637.930, 16448.01
1639.859, 16497.06
1641.787, 16569.77
1643.715, 16669.41
1645.644, 16769.90
1647.572, 16872.68
1649.501, 16918.59
1651.429, 16927.52
1653.358, 16898.45
1655.286, 16852.70
1657.215, 16877.63
1659.143, 16853.47
1661.072, 16716.55
1663.000, 16552.22
1664.929, 16380.21
1666.857, 16188.97
1668.786, 15974.04
1670.714, 15723.59
1672.642, 15470.50
1674.571, 15210.47
1676.499, 14913.25
1678.428, 14625.98
1680.356, 14336.94
1682.285, 14055.79
1684.213, 13753.59
1686.142, 13504.54
1688.070, 13224.38
1689.999, 12957.46
1691.927, 12728.13
1693.856, 12512.64
1695.784, 12320.38
1697.713, 12134.04
1699.641, 11933.46
1701.569, 11728.67
1703.498, 11559.72
1705.426, 11421.18
1707.355, 11285.66
1709.283, 11150.54
1711.212, 11002.10
1713.140, 10852.57
1715.069, 10707.05
1716.997, 10589.73
1718.926, 10475.64
1720.854, 10380.64
1722.783, 10296.16
1724.711, 10226.39
1726.640, 10175.82
1728.568, 10119.27
1730.496, 10066.58
1732.425, 10042.50
1734.353, 10039.84
1736.282, 10054.52
1738.210, 10072.10
1740.139, 10104.11
1742.067, 10139.03
1743.996, 10190.94
1745.924, 10234.70
1747.853, 10288.41
1749.781, 10356.00
1751.710, 10449.74
1753.638, 10543.48
1755.567, 10698.20
1757.495, 10772.07
1759.423, 10890.11
1761.352, 11017.59
1763.280, 11107.92
1765.209, 11198.08
1767.137, 11276.60
1769.066, 11326.95
1770.994, 11382.18
1772.923, 11400.37
1774.851, 11398.74
1776.780, 11409.27
1778.708, 11405.82
1780.637, 11368.97
1782.565, 11319.73
1784.494, 11287.05
1786.422, 11203.78
1788.350, 11184.01
1790.279, 11126.94
1792.207, 11058.99
1794.136, 11024.22
1796.064, 10966.40
1797.993, 10864.60
1799.921, 10778.26
1801.850, 10688.96
1803.778, 10594.59
1805.707, 10524.11
1807.635, 10451.83
1809.564, 10357.15
1811.492, 10266.77
1813.421, 10170.24
1815.349, 10050.65
1817.277, 9927.177
1819.206, 9818.876
1821.134, 9696.336
1823.063, 9603.744
1824.991, 9462.164
1826.920, 9343.644
1828.848, 9230.845
1830.777, 9142.066
1832.705, 9052.562
1834.634, 8917.397
1836.562, 8778.556
1838.491, 8658.392
1840.419, 8544.649
1842.348, 8430.164
1844.276, 8297.698
1846.204, 8167.430
1848.133, 8059.765
1850.061, 7963.317
1851.990, 7861.617
1853.918, 7760.376
1855.847, 7652.786
1857.775, 7558.407
1859.704, 7473.239
1861.632, 7387.622
1863.561, 7300.172
1865.489, 7217.938
1867.418, 7146.882
1869.346, 7072.507
1871.275, 7025.776
1873.203, 6990.314
1875.131, 6940.762
1877.060, 6889.316
1878.988, 6846.808
1880.917, 6807.351
1882.845, 6749.220
1884.774, 6695.853
1886.702, 6674.389
1888.631, 6666.904
1890.559, 6671.490
1892.488, 6666.946
1894.416, 6656.240
1896.345, 6666.715
1898.273, 6672.941
1900.202, 6684.378
1902.130, 6705.662
1904.058, 6720.004
1905.987, 6743.497
1907.915, 6773.576
1909.844, 6797.370
1911.772, 6845.297
1913.701, 6921.366
1915.629, 6982.668
1917.558, 7005.524
1919.486, 7046.205
1921.415, 7158.797
1923.343, 7261.171
1925.272, 7313.771
1927.200, 7363.688
1929.129, 7424.400
1931.057, 7493.819
1932.985, 7585.955
1934.914, 7646.370
1936.842, 7730.359
1938.771, 7812.880
1940.699, 7887.439
1942.628, 7974.263
1944.556, 8048.978
1946.485, 8104.857
1948.413, 8167.261
1950.342, 8248.153
1952.270, 8305.338
1954.199, 8344.072
1956.127, 8386.935
1958.056, 8421.308
1959.984, 8442.582
1961.912, 8459.663
1963.841, 8467.914
1965.769, 8466.437
1967.698, 8459.935
1969.626, 8445.768
1971.555, 8416.984
1973.483, 8375.298
1975.412, 8302.717
1977.340, 8225.574
1979.269, 8140.807
1981.197, 8036.548
1983.126, 7929.593
1985.054, 7820.123
1986.983, 7705.616
1988.911, 7570.057
1990.839, 7413.304
1992.768, 7258.239
1994.696, 7090.365
1996.625, 6926.318
1998.553, 6765.848
2000.482, 6589.439
2002.410, 6396.193
2004.339, 6206.957
2006.267, 6029.658
2008.196, 5848.162
2010.124, 5675.114
2012.053, 5502.019
2013.981, 5337.045
2015.910, 5202.831
2017.838, 5063.999
2019.766, 4918.660
2021.695, 4783.932
2023.623, 4657.481
2025.552, 4559.078
2027.480, 4460.584
2029.409, 4356.753
2031.337, 4270.613
2033.266, 4186.161
2035.194, 4103.558
2037.123, 4022.956
2039.051, 3942.783
2040.980, 3852.813
2042.908, 3784.998
2044.837, 3711.780
2046.765, 3631.680
2048.693, 3571.174
2050.622, 3499.594
2052.550, 3414.013
2054.479, 3342.065
2056.407, 3285.641
2058.336, 3215.999
2060.264, 3148.462
2062.193, 3091.648
2064.121, 3013.743
2066.050, 2944.647
2067.978, 2901.228
2069.906, 2868.976
2071.835, 2832.749
2073.763, 2793.388
2075.692, 2761.361
2077.620, 2718.472
2079.549, 2677.207
2081.477, 2646.126
2083.406, 2615.925
2085.334, 2574.363
2087.263, 2531.353
2089.191, 2486.268
2091.120, 2435.801
2093.048, 2392.003
2094.977, 2332.531
2096.905, 2262.848
2098.833, 2210.042
2100.762, 2158.747
2102.690, 2098.703
2104.619, 2050.964
2106.547, 2010.729
2108.476, 1949.677
2110.404, 1894.087
2112.333, 1873.629
2114.261, 1849.474
2116.190, 1809.720
2118.118, 1771.819
2120.047, 1722.272
2121.975, 1673.051
2123.904, 1639.718
2125.832, 1611.753
2127.760, 1587.491
2129.689, 1561.938
2131.617, 1530.962
2133.546, 1497.015
2135.474, 1462.452
2137.403, 1424.976
2139.331, 1393.965
2141.260, 1360.076
2143.188, 1321.344
2145.117, 1287.186
2147.045, 1254.759
2148.974, 1228.325
2150.902, 1206.170
2152.831, 1170.900
2154.759, 1134.279
2156.688, 1113.550
2158.616, 1097.241
2160.544, 1075.442
2162.473, 1054.677
2164.401, 1033.228
2166.330, 1003.932
2168.258, 977.4127
2170.187, 958.2917
2172.115, 947.4744
2174.044, 935.1952
2175.972, 916.4089
2177.901, 889.2148
2179.829, 868.3936
2181.758, 860.7217
2183.686, 846.4976
2185.615, 826.8716
2187.543, 814.8901
2189.471, 802.3961
2191.400, 788.7130
2193.328, 772.4423
2195.257, 753.1335
2197.185, 747.3682
2199.114, 748.7901
2201.042, 747.4260
2202.971, 733.5263
2204.899, 715.6081
2206.828, 703.4374
2208.756, 696.9432
2210.685, 692.0543
2212.613, 681.5181
2214.542, 676.7723
2216.470, 673.9954
2218.398, 671.9412
2220.327, 673.7235
2222.255, 658.5177
2224.184, 645.1570
2226.112, 643.9321
2228.041, 636.3421
2229.969, 630.0473
2231.898, 631.2318
2233.826, 624.2068
2235.755, 611.2043
2237.683, 609.6091
2239.612, 606.9965
2241.540, 591.5568
2243.469, 577.8221
2245.397, 565.9058
2247.325, 560.0471
2249.254, 554.6041
2251.182, 547.8455
2253.111, 537.3059
2255.039, 523.7971
2256.968, 516.2350
2258.896, 505.8662
2260.825, 494.6769
2262.753, 489.3139
2264.682, 483.9633
2266.610, 477.7637
2268.539, 469.9246
2270.467, 466.7217
2272.396, 459.9365
2274.324, 450.3750
2276.252, 442.4116
2278.181, 440.1584
2280.109, 439.8340
2282.038, 436.3550
2283.966, 425.2184
2285.895, 415.1546
2287.823, 412.0270
2289.752, 407.6786
2291.680, 401.6770
2293.609, 396.7606
2295.537, 391.6495
2297.466, 387.5578
2299.394, 384.0356
2301.323, 382.3411
2303.251, 382.8891
2305.179, 373.3188
2307.108, 360.3482
2309.036, 359.3811
2310.965, 359.2141
2312.893, 360.0797
2314.822, 358.8766
2316.750, 353.4911
2318.679, 347.8534
2320.607, 343.2946
2322.536, 340.3177
2324.464, 338.7054
2326.393, 337.1336
2328.321, 333.1490
2330.250, 332.0266
2332.178, 330.5838
2334.106, 327.9331
2336.035, 327.1725
2337.963, 324.1824
2339.892, 324.0927
2341.820, 322.9493
2343.749, 320.0800
2345.677, 321.2609
2347.606, 324.1664
2349.534, 324.7859
2351.463, 321.4954
2353.391, 319.0046
2355.320, 317.6667
2357.248, 319.4801
2359.177, 322.3306
2361.105, 322.6693
2363.033, 323.1750
2364.962, 324.4309
2366.890, 322.5479
2368.819, 325.2356
2370.747, 326.6157
2372.676, 326.2522
2374.604, 324.6886
2376.533, 317.0892
2378.461, 315.8256
2380.390, 321.8537
2382.318, 329.3411
2384.247, 329.8272
2386.175, 330.1869
2388.104, 329.5236
2390.032, 323.0107
2391.960, 320.5883
2393.889, 312.9883
2395.817, 302.6731
2397.746, 297.2276
2399.674, 295.1139
2401.603, 292.4543
2403.531, 286.0296
2405.460, 279.3221
2407.388, 272.8326
2409.317, 263.5882
2411.245, 256.4907
2413.174, 254.4293
2415.102, 253.3190
2417.031, 250.9637
2418.959, 245.5344
2420.887, 234.8977
2422.816, 224.9967
2424.744, 222.7318
2426.673, 220.7105
2428.601, 219.9737
2430.530, 219.3012
2432.458, 215.0503
2434.387, 208.3619
2436.315, 201.7975
2438.244, 198.4120
2440.172, 201.3802
2442.101, 201.8217
2444.029, 197.9237
2445.958, 190.2440
2447.886, 188.8973
2449.814, 190.2968
2451.743, 188.4107
2453.671, 185.7478
2455.600, 185.2845
2457.528, 182.2520
2459.457, 182.9659
2461.385, 177.9826
2463.314, 177.3492
2465.242, 177.0424
2467.171, 178.8340
2469.099, 178.5490
2471.028, 174.3672
2472.956, 169.0477
2474.885, 169.8481
2476.813, 171.5149
2478.741, 170.4388
2480.670, 170.6868
2482.598, 168.6730
2484.527, 168.4003
2486.455, 165.3482
2488.384, 166.0172
2490.312, 160.2428
2492.241, 156.6668
2494.169, 157.2613
2496.098, 156.5034
2498.026, 156.4005
2499.955, 155.4242
2501.883, 155.3771
2503.812, 152.7172
2505.740, 152.6194
2507.668, 150.7550
2509.597, 149.7676
2511.525, 147.9874
2513.454, 148.6921
2515.382, 145.2416
2517.311, 146.0383
2519.239, 143.9742
2521.168, 140.6247
2523.096, 142.8333
2525.025, 141.8958
2526.953, 142.2812
2528.882, 143.0144
2530.810, 142.6991
2532.739, 143.4331
2534.667, 142.8812
2536.595, 142.2570
2538.524, 141.9617
2540.452, 142.7991
2542.381, 140.8017
2544.309, 139.0789
2546.238, 140.5798
2548.166, 141.4706
2550.095, 141.1597
2552.023, 138.1125
2553.952, 133.3698
2555.880, 129.9598
2557.809, 132.3473
2559.737, 135.0181
2561.666, 134.9353
2563.594, 133.0430
2565.522, 127.6715
2567.451, 117.3401
2569.379, 114.5882
2571.308, 113.6802
2573.236, 109.7084
2575.165, 110.7673
2577.093, 112.9264
2579.022, 113.3308
2580.950, 112.2684
2582.879, 109.2873
2584.807, 102.7262
2586.736, 100.6708
2588.664, 99.89788
2590.593, 94.24195
2592.521, 97.65651
2594.449, 94.78416
2596.378, 99.62542
2598.306, 94.27782
2600.235, 94.82056
2602.163, 96.98397
2604.092, 93.20232
2606.020, 94.48183
2607.949, 91.56470
2609.877, 92.11808
2611.806, 89.57594
2613.734, 85.26669
2615.663, 82.17078
2617.591, 81.77402
2619.520, 82.61389
2621.448, 88.86169
2623.376, 93.37953
2625.305, 86.55112
2627.233, 82.03426
2629.162, 81.27787
2631.090, 86.37617
2633.019, 86.37410
2634.947, 82.34661
2636.876, 77.29056
2638.804, 73.60024
2640.733, 74.06557
2642.661, 80.54728
2644.590, 80.63898
2646.518, 77.54351
2648.447, 73.30023
2650.375, 73.81387
2652.303, 74.07092
2654.232, 72.38064
2656.160, 77.11406
2658.089, 75.98414
2660.017, 74.30009
2661.946, 70.16541
2663.874, 66.54568
2665.803, 67.45367
2667.731, 70.86780
2669.660, 72.52853
2671.588, 71.09340
2673.517, 71.36631
2675.445, 65.16248
2677.374, 68.17601
2679.302, 64.40746
2681.230, 62.79335
2683.159, 65.94151
2685.087, 64.71391
2687.016, 65.39713
2688.944, 70.30681
2690.873, 71.77061
2692.801, 67.76572
2694.730, 61.58826
2696.658, 66.70636
2698.587, 67.49112
2700.515, 62.88205
2702.444, 63.56503
2704.372, 63.15002
2706.301, 60.71388
2708.229, 56.80590
2710.157, 55.81364
2712.086, 56.91162
2714.014, 57.20014
2715.943, 58.94163
2717.871, 56.43278
2719.800, 57.31739
2721.728, 51.38665
2723.657, 49.77919
2725.585, 47.64768
2727.514, 49.38368
2729.442, 52.53099
2731.371, 52.59709
2733.299, 50.37824
2735.228, 47.55373
2737.156, 50.28206
2739.084, 46.22971
2741.013, 41.33492
2742.941, 41.80889
2744.870, 45.58951
2746.798, 45.39647
2748.727, 43.80094
2750.655, 44.24061
2752.584, 43.89385
2754.512, 43.86719
2756.441, 46.06416
2758.369, 43.97157
2760.298, 39.99263
2762.226, 42.91672
2764.155, 41.01209
2766.083, 37.34384
2768.011, 39.33575
2769.940, 41.81134
2771.868, 41.37973
2773.797, 39.17797
2775.725, 38.83072
2777.654, 37.36443
2779.582, 37.86319
2781.511, 40.47568
2783.439, 43.04090
2785.368, 44.77032
2787.296, 41.26716
2789.225, 39.64761
2791.153, 38.77930
2793.082, 38.58387
2795.010, 38.60342
2796.938, 40.67125
2798.867, 43.42865
2800.795, 38.95480
2802.724, 36.01815
2804.652, 37.53853
2806.581, 37.38503
2808.509, 34.32945
2810.438, 34.54893
2812.366, 32.92220
2814.295, 31.91002
2816.223, 31.58221
2818.152, 31.21210
2820.080, 32.88765
2822.009, 34.50262
2823.937, 35.24852
2825.865, 37.19570
2827.794, 39.83671
2829.722, 39.93026
2831.651, 39.94483
2833.579, 35.15799
2835.508, 37.06213
2837.436, 35.61543
2839.365, 32.37394
2841.293, 33.17340
2843.222, 36.71760
2845.150, 34.78054
2847.079, 35.02317
2849.007, 34.82111
2850.936, 34.89427
2852.864, 35.91700
2854.792, 35.84671
2856.721, 37.44843
2858.649, 37.41912
2860.578, 36.52081
2862.506, 31.61198
2864.435, 28.22273
2866.363, 26.60927
2868.292, 30.95701
2870.220, 37.10215
2872.149, 33.63871
2874.077, 29.19718
2876.006, 33.91120
2877.934, 33.12030
2879.863, 33.46944
2881.791, 40.64689
2883.719, 35.18594
2885.648, 34.16089
2887.576, 41.56936
2889.505, 37.55513
2891.433, 37.10136
2893.362, 38.17208
2895.290, 34.74303
2897.219, 33.60630
2899.147, 33.35656
2901.076, 35.80071
2903.004, 34.38323
2904.933, 40.10493
2906.861, 34.55921
2908.790, 32.57019
2910.718, 34.05819
2912.646, 36.34829
2914.575, 41.07199
2916.503, 40.26854
2918.432, 40.84003
2920.360, 39.40980
2922.289, 38.22776
2924.217, 35.97807
2926.146, 34.07699
2928.074, 36.95094
2930.003, 38.71331
2931.931, 37.18281
2933.860, 36.91000
2935.788, 40.29029
2937.717, 45.53278
2939.645, 50.56854
2941.573, 44.93942
2943.502, 43.49939
2945.430, 44.35801
2947.359, 41.76104
2949.287, 38.71904
2951.216, 38.62561
2953.144, 41.43811
2955.073, 42.65889
2957.001, 43.46978
2958.930, 40.93780
2960.858, 43.40223
2962.787, 39.35983
2964.715, 45.89877
2966.644, 44.37512
2968.572, 45.16319
2970.500, 40.94885
2972.429, 37.64054
2974.357, 38.48979
2976.286, 47.70187
2978.214, 50.28020
2980.143, 44.43777
2982.071, 45.67531
2984.000, 39.91649
2985.928, 38.54314
2987.857, 45.47300
2989.785, 45.97794
2991.714, 41.78109
2993.642, 38.22451
2995.571, 49.35122
2997.499, 53.07473
2999.427, 54.76869
3001.356, 59.20971
3003.284, 55.17798
3005.213, 49.54754
3007.141, 46.25159
3009.070, 48.94590
3010.998, 51.34223
3012.927, 52.69160
3014.855, 51.10125
3016.784, 53.68536
3018.712, 57.96333
3020.641, 62.83625
3022.569, 63.56734
3024.498, 66.00507
3026.426, 65.57055
3028.354, 64.64002
3030.283, 65.19301
3032.211, 65.37971
3034.140, 69.30382
3036.068, 77.19369
3037.997, 76.03463
3039.925, 68.20703
3041.854, 63.30027
3043.782, 76.05709
3045.711, 80.35821
3047.639, 77.93855
3049.568, 74.09868
3051.496, 79.11514
3053.425, 89.55688
3055.353, 94.18671
3057.281, 93.78214
3059.210, 90.22603
3061.138, 86.50671
3063.067, 90.09785
3064.995, 104.7773
3066.924, 99.68925
3068.852, 96.99301
3070.781, 103.9689
3072.709, 99.13000
3074.638, 99.69463
3076.566, 103.4595
3078.495, 104.1127
3080.423, 107.5977
3082.352, 111.9060
3084.280, 114.6194
3086.208, 116.4646
3088.137, 116.7162
3090.065, 121.3803
3091.994, 116.2208
3093.922, 128.8111
3095.851, 136.9435
3097.779, 139.1690
3099.708, 138.7469
3101.636, 136.3528
3103.565, 141.1063
3105.493, 144.5771
3107.422, 141.8889
3109.350, 156.7286
3111.279, 162.7936
3113.207, 163.1289
3115.135, 172.6788
3117.064, 177.9161
3118.992, 179.6355
3120.921, 183.7445
3122.849, 193.9673
3124.778, 196.9001
3126.706, 205.4753
3128.635, 216.7169
3130.563, 223.2838
3132.492, 232.8044
3134.420, 239.3651
3136.349, 244.8344
3138.277, 252.9682
3140.206, 272.7314
3142.134, 272.9073
3144.063, 288.7640
3145.991, 312.4500
3147.919, 316.0848
3149.848, 335.6183
3151.776, 331.4387
3153.705, 362.2536
3155.633, 374.3492
3157.562, 383.7192
3159.490, 408.2969
3161.419, 413.5001
3163.347, 424.5730
3165.276, 442.2809
3167.204, 458.8141
3169.133, 464.2451
3171.061, 483.7979
3172.990, 504.2147
3174.918, 506.9003
3176.846, 512.2781
3178.775, 516.7557
3180.703, 533.4388
3182.632, 572.1570
3184.560, 585.9594
3186.489, 584.2964
3188.417, 585.2077
3190.346, 599.0384
3192.274, 616.5539
3194.203, 623.3340
3196.131, 622.6849
3198.060, 630.4204
3199.988, 637.1578
3201.917, 643.3880
3203.845, 645.1860
3205.773, 634.2304
3207.702, 629.6948
3209.630, 628.0969
3211.559, 625.6937
3213.487, 616.0528
3215.416, 603.2829
3217.344, 596.7599
3219.273, 593.0981
3221.201, 590.1020
3223.130, 570.9563
3225.058, 574.7040
3226.987, 571.5399
3228.915, 537.3054
3230.844, 535.0648
3232.772, 535.7318
3234.700, 531.2521
3236.629, 521.5148
3238.557, 521.0261
3240.486, 506.3255
3242.414, 496.7603
3244.343, 495.0054
3246.271, 485.2505
3248.200, 473.7557
3250.128, 463.1754
3252.057, 455.6136
3253.985, 447.9161
3255.914, 445.1151
3257.842, 441.0920
3259.771, 440.7003
3261.699, 438.0677
3263.627, 436.7079
3265.556, 437.0724
3267.484, 432.3367
3269.413, 435.9463
3271.341, 429.5129
3273.270, 428.1371
3275.198, 433.1059
3277.127, 441.9912
3279.055, 448.2223
3280.984, 446.4263
3282.912, 444.5909
3284.841, 450.4302
3286.769, 463.1212
3288.698, 464.7544
3290.626, 467.5051
3292.554, 474.7403
3294.483, 478.8403
3296.411, 487.3571
3298.340, 492.8047
3300.268, 502.5090
3302.197, 512.6874
3304.125, 523.4135
3306.054, 537.9653
3307.982, 546.1540
3309.911, 560.9281
3311.839, 572.8424
3313.768, 592.9232
3315.696, 614.3575
3317.625, 640.7460
3319.553, 659.0174
3321.481, 685.5723
3323.410, 698.1998
3325.338, 718.8112
3327.267, 788.3681
3329.195, 814.9951
3331.124, 844.9005
3333.052, 879.7042
3334.981, 914.9922
3336.909, 974.7305
3338.838, 1031.755
3340.766, 1100.510
3342.695, 1176.795
3344.623, 1254.652
3346.552, 1343.055
3348.480, 1421.210
3350.408, 1484.950
3352.337, 1539.140
3354.265, 1615.418
3356.194, 1715.210
3358.122, 1791.666
3360.051, 1831.943
3361.979, 1880.990
3363.908, 1933.304
3365.836, 1990.668
3367.765, 2045.492
3369.693, 2089.175
3371.622, 2127.032
3373.550, 2165.253
3375.479, 2194.677
3377.407, 2209.202
3379.335, 2205.165
3381.264, 2199.646
3383.192, 2185.835
3385.121, 2161.087
3387.049, 2138.964
3388.978, 2104.073
3390.906, 2073.408
3392.835, 2032.068
3394.763, 1986.370
3396.692, 1947.418
3398.620, 1847.858
3400.549, 1761.281
3402.477, 1682.001
3404.406, 1595.953
3406.334, 1512.884
3408.262, 1443.344
3410.191, 1350.405
3412.119, 1258.882
3414.048, 1187.169
3415.976, 1114.374
3417.905, 1059.329
3419.833, 1005.325
3421.762, 959.2307
3423.690, 889.1233
3425.619, 835.4975
3427.547, 785.5818
3429.476, 749.1219
3431.404, 727.5617
3433.333, 675.7982
3435.261, 658.7923
3437.189, 646.2430
3439.118, 619.8903
3441.046, 578.8405
3442.975, 567.7997
3444.903, 547.9633
3446.832, 530.5115
3448.760, 516.3612
3450.689, 496.2107
3452.617, 473.0631
3454.546, 458.1181
3456.474, 445.1676
3458.403, 432.6632
3460.331, 424.7502
3462.260, 412.3599
3464.188, 402.5764
3466.116, 383.8763
3468.045, 380.5317
3469.973, 368.1573
3471.902, 353.1952
3473.830, 349.6403
3475.759, 347.2642
3477.687, 337.3251
3479.616, 331.8461
3481.544, 325.1492
3483.473, 315.3849
3485.401, 312.4419
3487.330, 304.8617
3489.258, 301.9127
3491.187, 301.2284
3493.115, 293.1485
3495.043, 290.3660
3496.972, 297.9950
3498.900, 290.0261
3500.829, 283.6212
3502.757, 291.8559
3504.686, 293.8733
3506.614, 281.0180
3508.543, 285.0829
3510.471, 291.8999
3512.400, 286.1905
3514.328, 282.2869
3516.257, 289.0295
3518.185, 295.7253
3520.114, 308.6933
3522.042, 308.1068
3523.970, 276.3803
3525.899, 306.6430
3527.827, 295.8115
3529.756, 287.5491
3531.684, 300.6638
3533.613, 299.3622
3535.541, 284.7900
3537.470, 292.6415
3539.398, 307.7354
3541.327, 297.8553
3543.255, 287.8770
3545.184, 280.3979
3547.112, 264.8348
3549.041, 269.4260
3550.969, 273.7238
3552.897, 264.2008
3554.826, 254.2857
3556.754, 254.4641
3558.683, 232.7481
3560.611, 226.3174
3562.540, 215.6198
3564.468, 214.7854
3566.397, 225.5399
3568.325, 212.3606
3570.254, 204.2600
3572.182, 187.8787
3574.111, 175.9620
3576.039, 170.3290
3577.968, 162.3071
3579.896, 158.9328
3581.824, 160.9105
3583.753, 154.7737
3585.681, 154.1067
3587.610, 151.2649
3589.538, 138.9037
3591.467, 148.5041
3593.395, 150.0931
3595.324, 141.4936
3597.252, 131.3591
3599.181, 127.0073
3601.109, 125.6862
3603.038, 119.9373
3604.966, 120.1216
3606.895, 116.5424
3608.823, 113.9294
3610.751, 112.5630
3612.680, 109.9662
3614.608, 110.5244
3616.537, 110.5050
3618.465, 108.6445
3620.394, 105.6550
3622.322, 102.3959
3624.251, 104.7604
3626.179, 103.3568
3628.108, 104.4686
3630.036, 110.3769
3631.965, 108.0067
3633.893, 101.3731
3635.822, 104.4079
3637.750, 108.6249
3639.678, 104.8172
3641.607, 94.64309
3643.535, 99.81065
3645.464, 98.47755
3647.392, 108.3618
3649.321, 117.5049
3651.249, 116.4748
3653.178, 106.6091
3655.106, 97.41515
3657.035, 94.10117
3658.963, 104.8824
3660.892, 112.9898
3662.820, 110.3250
3664.749, 104.0844
3666.677, 108.5971
3668.605, 93.55220
3670.534, 101.4146
3672.462, 108.0015
3674.391, 99.09979
3676.319, 93.32481
3678.248, 95.53049
3680.176, 99.32719
3682.105, 97.21027
3684.033, 97.68996
3685.962, 99.02373
3687.890, 88.06018
3689.819, 89.53533
3691.747, 88.54606
3693.676, 91.48864
3695.604, 91.44455
3697.532, 86.25757
3699.461, 82.03004
3701.389, 80.00538
3703.318, 84.29919
3705.246, 82.80205
3707.175, 85.47042
3709.103, 87.19777
3711.032, 84.50534
3712.960, 77.60799
3714.889, 80.27048
3716.817, 76.59365
3718.746, 75.27564
3720.674, 76.32383
3722.603, 73.93523
3724.531, 66.81561
3726.459, 70.27317
3728.388, 68.62283
3730.316, 60.64648
3732.245, 55.20957
3734.173, 58.18164
3736.102, 53.31911
3738.030, 50.86895
3739.959, 52.30636
3741.887, 53.81514
3743.816, 54.89906
3745.744, 55.21343
3747.673, 49.91369
3749.601, 52.65836
3751.530, 48.95928
3753.458, 51.91034
3755.386, 49.47794
3757.315, 44.16001
3759.243, 40.74223
3761.172, 39.47642
3763.100, 38.00856
3765.029, 39.23330
3766.957, 39.49937
3768.886, 43.29751
3770.814, 46.64449
3772.743, 49.67970
3774.671, 38.39365
3776.600, 40.76945
3778.528, 37.57860
3780.457, 41.82216
3782.385, 41.07179
3784.313, 34.49876
3786.242, 36.65934
3788.170, 38.98759
3790.099, 41.96372
3792.027, 33.12094
3793.956, 17.63261
3795.884, 17.91772
3797.813, 29.94743
3799.741, 26.94863
3801.670, 40.09039
3803.598, 33.64712
3805.527, 24.20487
3807.455, 23.11868
3809.384, 24.05630
3811.312, 21.13602
3813.240, 19.55744
3815.169, 18.07286
3817.097, 17.43665
3819.026, 15.56910
3820.954, 17.26283
3822.883, 19.92982
3824.811, 19.84822
3826.740, 17.48937
3828.668, 18.44353
3830.597, 15.64819
3832.525, 17.35459
3834.454, 18.78531
3836.382, 18.30042
3838.311, 15.92337
3840.239, 14.16403
3842.167, 13.68517
3844.096, 13.53693
3846.024, 12.33810
3847.953, 15.44312
3849.881, 14.94521
3851.810, 16.72644
3853.738, 21.34177
3855.667, 18.39040
3857.595, 16.80202
3859.524, 5.208737
3861.452, 10.07633
3863.381, 10.52006
3865.309, 11.26067
3867.238, 12.55577
3869.166, 12.28675
3871.094, 16.05132
3873.023, 8.015712
3874.951, 8.339925
3876.880, 10.26606
3878.808, 8.388599
3880.737, 10.31378
3882.665, 14.47561
3884.594, 11.28538
3886.522, 11.69325
3888.451, 18.30075
3890.379, 6.918717
3892.308, 1.020478
3894.236, 7.033309
3896.165, 11.75366
3898.093, 8.503686
3900.021, 4.675058
3901.950, 4.532984
3903.878, 5.609437
3905.807, 6.066499
3907.735, 5.464785
3909.664, 4.465318
3911.592, 3.032497
3913.521, 3.040705
3915.449, 5.759475
3917.378, 4.559846
3919.306, 5.959648
3921.235, 12.02637
3923.163, 8.119720
3925.092, 9.676061
3927.020, 12.51539
3928.948, 11.37915
3930.877, 6.493940
3932.805, 2.032920
3934.734, 3.848380
3936.662, 3.132151
3938.591, 6.693106
3940.519, 7.675177
3942.448, 8.411781
3944.376, 10.77108
3946.305, 11.98726
3948.233, 11.26289
3950.162, 11.48099
3952.090, 10.15327
3954.019, 10.20652
3955.947, 11.63314
3957.875, 10.25301
3959.804, 9.017607
3961.732, 7.595217
3963.661, 4.235330
3965.589, -0.4786218
3967.518, 5.178918
3969.446, 9.672091
3971.375, 10.20180
3973.303, 7.123857
3975.232, 7.583727
3977.160, -0.5170579
3979.089, 3.784181
3981.017, 9.679064
3982.946, 7.663469
3984.874, 0.4203058
3986.802, 3.163425
3988.731, 3.170753
3990.659, 5.034252
3992.588, 4.632353
3994.516, -2.354152
3996.445, 3.971113
3998.373, 2.250428
4000.302, -3.205218
4002.230, -1.288988
4004.159, 4.454473
4006.087, 7.549057
4008.016, -0.4789372
4009.944, 2.3313209E-02
4011.873, -2.484767
4013.801, 1.133945
4015.729, 1.026619
4017.658, 0.5599899
4019.586, 0.7836589
4021.515, 2.114700
4023.443, 0.7663920
4025.372, 1.062449
4027.300, -0.9595250
4029.229, -0.3885465
4031.157, -0.9364498
4033.086, -2.818175
4035.014, 6.006683
4036.943, 10.24655
4038.871, 4.623276
4040.800, 0.2496525
4042.728, 1.182449
4044.656, 1.244946
4046.585, 4.322136
4048.513, -3.812345
4050.442, -0.2782027
4052.370, -0.9937167
4054.299, 2.120563
4056.227, 0.5606253
4058.156, 4.808433
4060.084, 6.824896
4062.013, -0.9120497
4063.941, -9.227661
4065.870, 3.911608
4067.798, 3.045512
4069.727, 2.614405
4071.655, 2.767539
4073.583, 0.5638832
4075.512, 0.1613371
4077.440, -0.6985052
4079.369, -2.171435
4081.297, -1.531950
4083.226, -2.616379
4085.154, -1.376971
4087.083, -3.152108
4089.011, 6.047502
4090.940, 8.725791
4092.868, 2.414234
4094.797, 1.229527
4096.725, -0.8917830
4098.653, -1.343765
4100.582, -0.1456944
4102.510, -4.116834
4104.439, -10.21018
4106.367, -5.488236
4108.296, 0.6957122
4110.224, 0.7714821
4112.153, 8.488757
4114.081, -8.359193
4116.010, 5.7227779E-02
4117.938, -1.147402
4119.867, 2.224527
4121.795, 5.249829
4123.724, 2.949929
4125.652, 3.877008
4127.581, -3.754306
4129.509, -5.375215
4131.438, -7.279587
4133.366, 4.475854
4135.294, 9.699097
4137.223, 2.232750
4139.151, 1.420484
4141.080, 4.027849
4143.008, 6.264654
4144.937, 6.113322
4146.865, 2.373198
4148.793, -1.463844
4150.722, -0.6806519
4152.650, 0.9969077
4154.579, 0.2332649
4156.507, 2.857297
4158.436, 3.100557
4160.364, 0.1486832
4162.293, 3.492011
4164.221, -0.4723584
4166.150, 3.682991
4168.078, 7.124764
4170.007, -3.191285
4171.935, -12.14254
4173.864, -3.926301
4175.792, 7.512468
4177.721, 4.030311
4179.649, 2.460916
4181.578, -1.240067
4183.506, 12.88153
4185.435, -1.154450
4187.363, 6.375966
4189.292, 14.33343
4191.220, 1.153228
4193.148, 0.2676964
4195.077, -5.294463
4197.005, -0.5625448
4198.934, 4.364455
4200.862, -0.9976323
4202.791, 0.5319806
4204.719, 5.916033
4206.647, 3.301592
4208.576, 6.562272
4210.504, 1.964010
4212.433, -4.442999
4214.361, 8.023269
4216.290, 15.40717
4218.218, 14.36479
4220.147, 14.62460
4222.075, 0.1686176
4224.004, -0.6138449
4225.932, 1.565827
4227.861, 2.274450
4229.789, 9.853399
4231.718, 8.494531
4233.646, 9.622552
4235.575, 11.71380
4237.503, 7.001390
4239.432, 9.529197
4241.360, 5.901342
4243.289, -2.222926
4245.217, 1.455993
4247.146, -5.905208
4249.074, -3.842898
4251.002, -0.6946327
4252.931, -1.102847
4254.859, -1.545352
4256.788, 3.396424
4258.716, -2.982603
4260.645, -4.045357
4262.573, 0.1524800
4264.501, 0.4072110
4266.430, -1.556128
4268.358, 0.3832416
4270.287, 4.649064
4272.215, 16.20458
4274.144, 1.275335
4276.072, -3.453320
4278.001, 3.522712
4279.929, -4.225092
4281.858, 7.429247
4283.786, 18.51945
4285.715, -1.347340
4287.643, -4.093340
4289.572, 2.815233
4291.500, 0.4670320
4293.429, 5.583602
4295.357, 1.387458
4297.286, -5.785270
4299.214, 0.5420293
4301.143, 8.910268
4303.071, 6.436351
4305.000, 3.736341
4306.928, 9.627781
4308.856, 8.417659
4310.785, 2.698920
4312.713, 10.61310
4314.642, 4.407235
4316.570, -5.355035
4318.499, -2.863156
4320.427, 2.557674
4322.355, 2.338885
4324.284, 13.17319
4326.212, 9.699492
4328.141, -1.939561
4330.069, 4.844574
4331.998, 0.5109752
4333.926, -6.116059
4335.855, -4.457943
4337.783, 0.3902940
4339.712, 8.547681
4341.640, 5.336590
4343.569, -5.219455
4345.497, 1.237224
4347.426, 0.4172299
4349.354, -0.4399963
4351.283, 5.702601
4353.211, 3.928081
4355.140, -3.887579
4357.068, -6.751707
4358.997, -0.7482598
4360.925, 1.277236
4362.854, -5.296969
4364.782, -2.159012
4366.710, 4.513068
4368.639, 10.55269
4370.567, 4.835063
4372.496, 0.7974427
4374.424, 5.176342
4376.353, 1.683833
4378.281, 1.377938
4380.209, -5.475754
4382.138, -2.258497
##END=



