##NAMES=Cylindrite
##RRUFFID=R050175
##IDEAL CHEMISTRY=FePb_3_Sn_4_Sb_2_S_14_
##LOCALITY=Poopó Province, Oruro Department, Bolivia
##OWNER=RRUFF
##SOURCE=Marcus Origlieri
##DESCRIPTION=Gray tubular aggregates
##STATUS=The identification of this mineral has been confirmed only by chemical analysis
##URL=https://www.rruff.net/odr/rruff_sample/R050175
##MEASURED CHEMISTRY=Pb_3.05_Sn_4.25_Fe_0.84_Sb_1.87_S_14.00_
##DIFFRACTION SAMPLE DESCRIPTION=Powder
##FILETYPE=Raman RAW
##RAMAN WAVELENGTH=532

86.70190, 115.3501
88.63037, 113.4767
90.55884, 137.5252
92.48730, 170.9292
94.41577, 207.5798
96.34424, 247.2479
98.27271, 291.3203
100.2012, 340.2645
102.1296, 393.7596
104.0581, 449.3452
105.9866, 507.3195
107.9150, 567.4526
109.8435, 629.1854
111.7720, 689.4844
113.7004, 756.5641
115.6289, 835.5240
117.5574, 923.7599
119.4858, 1011.567
121.4143, 1105.064
123.3428, 1195.028
125.2712, 1270.804
127.1997, 1326.308
129.1282, 1337.655
131.0566, 1331.138
132.9851, 1336.290
134.9136, 1337.505
136.8420, 1335.833
138.7705, 1331.333
140.6990, 1324.501
142.6274, 1313.444
144.5559, 1302.664
146.4844, 1293.605
148.4128, 1286.502
150.3413, 1279.497
152.2698, 1271.914
154.1982, 1264.071
156.1267, 1256.983
158.0552, 1249.628
159.9836, 1243.279
161.9121, 1238.932
163.8406, 1236.660
165.7690, 1234.162
167.6975, 1230.102
169.6260, 1224.772
171.5544, 1221.351
173.4829, 1220.953
175.4114, 1221.336
177.3398, 1220.971
179.2683, 1219.091
181.1968, 1217.864
183.1252, 1217.757
185.0537, 1218.737
186.9822, 1219.619
188.9106, 1219.715
190.8391, 1219.890
192.7676, 1220.830
194.6960, 1224.946
196.6245, 1227.210
198.5530, 1225.670
200.4814, 1220.789
202.4099, 1216.542
204.3384, 1213.834
206.2668, 1211.934
208.1953, 1210.263
210.1238, 1209.609
212.0523, 1208.414
213.9807, 1206.293
215.9092, 1203.385
217.8377, 1199.836
219.7661, 1194.798
221.6946, 1189.422
223.6231, 1185.247
225.5515, 1182.396
227.4800, 1179.996
229.4085, 1178.208
231.3369, 1178.203
233.2654, 1174.450
235.1939, 1163.894
237.1223, 1150.918
239.0508, 1141.493
240.9793, 1139.202
242.9077, 1135.948
244.8362, 1128.674
246.7647, 1115.601
248.6931, 1104.240
250.6216, 1095.240
252.5501, 1087.818
254.4785, 1080.961
256.4070, 1075.473
258.3354, 1069.358
260.2639, 1061.953
262.1924, 1053.083
264.1208, 1043.434
266.0493, 1032.358
267.9778, 1020.744
269.9063, 1009.631
271.8347, 998.6715
273.7632, 988.6744
275.6917, 980.7420
277.6201, 974.6411
279.5486, 967.2314
281.4771, 955.8988
283.4055, 943.5791
285.3340, 933.7899
287.2625, 927.8464
289.1909, 922.5668
291.1194, 917.3547
293.0479, 912.2599
294.9763, 907.5951
296.9048, 903.3175
298.8333, 899.6170
300.7617, 896.9352
302.6902, 895.7526
304.6187, 894.2728
306.5471, 892.6541
308.4756, 891.1080
310.4041, 885.8975
312.3325, 874.4909
314.2610, 861.3849
316.1895, 850.4530
318.1179, 842.7985
320.0464, 833.6452
321.9749, 821.7728
323.9033, 807.3810
325.8318, 791.8340
327.7603, 772.9197
329.6887, 754.7150
331.6172, 739.7365
333.5457, 728.9196
335.4742, 717.6984
337.4026, 704.7429
339.3311, 690.8079
341.2596, 678.1149
343.1880, 666.6046
345.1165, 656.3658
347.0450, 647.4822
348.9734, 640.3405
350.9019, 633.0886
352.8304, 625.2761
354.7588, 617.2460
356.6873, 609.4300
358.6158, 601.5673
360.5442, 594.2755
362.4727, 587.8008
364.4012, 582.3356
366.3296, 576.9237
368.2581, 571.8816
370.1866, 566.8286
372.1150, 561.3193
374.0435, 554.9611
375.9720, 549.3851
377.9004, 545.1215
379.8289, 542.0797
381.7574, 539.0621
383.6858, 536.2136
385.6143, 533.1888
387.5428, 529.6586
389.4712, 525.3282
391.3997, 521.5073
393.3282, 518.6414
395.2566, 516.3502
397.1851, 513.8053
399.1136, 510.8438
401.0420, 508.0660
402.9705, 505.5773
404.8990, 503.2856
406.8274, 502.0250
408.7559, 501.9084
410.6844, 502.5761
412.6128, 503.8609
414.5413, 506.0168
416.4698, 507.5789
418.3982, 507.7886
420.3267, 506.8452
422.2552, 506.1263
424.1836, 506.0697
426.1121, 505.8842
428.0406, 505.1394
429.9690, 503.8796
431.8975, 502.7896
433.8260, 502.2221
435.7544, 501.8986
437.6829, 501.4014
439.6114, 500.5026
441.5398, 499.7209
443.4683, 499.2345
445.3968, 498.9585
447.3252, 498.6408
449.2537, 498.4132
451.1822, 498.0143
453.1106, 497.2171
455.0391, 495.9250
456.9676, 494.7320
458.8960, 493.9044
460.8245, 493.2314
462.7530, 492.3660
464.6814, 490.7202
466.6099, 489.4387
468.5384, 489.1137
470.4668, 489.5949
472.3953, 489.3277
474.3238, 487.2145
476.2522, 485.0784
478.1807, 484.1403
480.1092, 485.9858
482.0376, 486.4861
483.9661, 484.5700
485.8946, 481.4172
487.8230, 479.0806
489.7515, 477.9400
491.6800, 477.0303
493.6084, 475.9528
495.5369, 474.6812
497.4654, 473.8164
499.3938, 474.7646
501.3223, 475.0575
503.2508, 472.6672
505.1792, 466.9840
507.1077, 462.5397
509.0362, 461.1200
510.9646, 461.1970
512.8931, 460.1342
514.8215, 456.7221
516.7500, 453.9753
518.6785, 453.2112
520.6069, 453.8790
522.5354, 454.1679
524.4639, 453.5889
526.3923, 452.8219
528.3208, 452.1818
530.2493, 451.7339
532.1777, 451.1097
534.1062, 450.6407
536.0347, 449.8083
537.9631, 447.9958
539.8916, 443.7485
541.8201, 440.8644
543.7485, 440.5615
545.6770, 442.1461
547.6055, 443.1662
549.5339, 443.5205
551.4624, 443.4044
553.3909, 442.6559
555.3193, 441.0490
557.2478, 440.3910
559.1763, 441.9633
561.1047, 443.5153
563.0332, 443.2967
564.9617, 441.3355
566.8901, 438.7365
568.8186, 434.3504
570.7471, 429.9161
572.6755, 427.7703
574.6040, 429.9001
576.5325, 432.2059
578.4609, 434.7320
580.3894, 437.1060
582.3179, 438.2895
584.2464, 437.4321
586.1749, 436.2791
588.1033, 435.1583
590.0318, 433.7822
591.9603, 434.1019
593.8887, 437.8985
595.8172, 441.8914
597.7457, 443.8057
599.6741, 443.5308
601.6026, 442.4886
603.5311, 440.2689
605.4595, 437.8230
607.3880, 436.4013
609.3165, 436.7802
611.2449, 437.1928
613.1734, 436.9887
615.1019, 436.7348
617.0303, 437.6246
618.9588, 441.0290
620.8873, 443.8182
622.8157, 445.0460
624.7442, 444.5771
626.6727, 443.1194
628.6011, 439.0729
630.5296, 435.4269
632.4581, 434.2125
634.3865, 435.6637
636.3150, 435.8366
638.2435, 432.1336
640.1719, 428.2997
642.1004, 428.0120
644.0289, 433.4456
645.9573, 436.4119
647.8858, 434.0977
649.8143, 429.2154
651.7427, 424.9650
653.6712, 421.2939
655.5997, 418.4650
657.5281, 416.8100
659.4566, 416.0497
661.3851, 415.2440
663.3135, 414.3200
665.2420, 413.4973
667.1705, 413.2668
669.0989, 413.3792
671.0274, 412.3729
672.9559, 408.5124
674.8843, 405.0146
676.8128, 403.0914
678.7413, 402.9440
680.6697, 403.2956
682.5982, 405.1648
684.5267, 406.6881
686.4551, 406.7372
688.3836, 404.9372
690.3121, 403.3753
692.2405, 401.4213
694.1690, 400.1046
696.0975, 400.9457
698.0259, 404.7000
699.9544, 406.9194
701.8829, 405.5730
703.8113, 402.6443
705.7398, 400.3730
707.6683, 399.1161
709.5967, 398.1183
711.5252, 397.5426
713.4537, 397.2238
715.3821, 396.7050
717.3106, 395.7704
719.2391, 395.1413
721.1675, 395.3904
723.0960, 396.0661
725.0245, 396.0227
726.9529, 394.5687
728.8814, 392.9120
730.8099, 391.0542
732.7383, 389.1165
734.6668, 387.8273
736.5953, 388.2339
738.5237, 387.9596
740.4522, 385.7119
742.3807, 381.7173
744.3091, 378.1816
746.2376, 375.1575
748.1661, 372.6385
750.0945, 370.7246
752.0230, 369.4059
753.9515, 368.1044
755.8799, 366.7574
757.8084, 365.3906
759.7369, 364.2296
761.6653, 363.4089
763.5938, 361.6842
765.5223, 357.8793
767.4507, 354.1464
769.3792, 351.9933
771.3077, 351.6797
773.2361, 351.1098
775.1646, 349.5975
777.0931, 348.1307
779.0215, 347.4738
780.9500, 347.9067
782.8785, 347.7064
784.8069, 346.4516
786.7354, 344.7339
788.6639, 342.9682
790.5923, 341.1555
792.5208, 339.5314
794.4493, 338.1790
796.3777, 337.0611
798.3062, 336.2358
800.2347, 335.9200
802.1631, 334.9628
804.0916, 332.3222
806.0201, 329.4193
807.9485, 327.7708
809.8770, 327.6905
811.8055, 327.8090
813.7339, 328.2249
815.6624, 328.7064
817.5909, 329.1315
819.5193, 329.6403
821.4478, 329.7607
823.3763, 329.1335
825.3047, 328.2633
827.2332, 327.6700
829.1617, 327.4101
831.0901, 327.0755
833.0186, 326.9274
834.9471, 326.3990
836.8755, 324.8023
838.8040, 321.6839
840.7325, 319.4408
842.6609, 319.1942
844.5894, 319.7027
846.5179, 319.7600
848.4464, 319.0698
850.3748, 318.5943
852.3033, 318.4573
854.2318, 318.5182
856.1602, 318.6966
858.0887, 319.0462
860.0172, 319.1909
861.9456, 318.7503
863.8741, 318.2668
865.8026, 318.2017
867.7310, 318.8806
869.6595, 319.2919
871.5880, 319.4644
873.5164, 319.2758
875.4449, 318.2908
877.3734, 316.3783
879.3018, 315.2657
881.2303, 316.1247
883.1588, 317.2944
885.0872, 317.7271
887.0157, 317.2155
888.9442, 316.6372
890.8726, 316.1066
892.8011, 315.5211
894.7296, 314.7964
896.6580, 313.9497
898.5865, 313.0421
900.5150, 311.5736
902.4434, 310.5764
904.3719, 310.7145
906.3004, 312.1318
908.2288, 313.1854
910.1573, 313.9808
912.0858, 314.2194
914.0142, 313.3772
915.9427, 311.5241
917.8712, 310.4697
919.7996, 310.6848
921.7281, 311.1631
923.6566, 311.3761
925.5850, 311.4700
927.5135, 312.1297
929.4420, 314.7082
931.3704, 316.2943
933.2989, 315.3667
935.2274, 312.6723
937.1558, 311.3487
939.0843, 311.8028
941.0128, 312.6924
942.9412, 313.8407
944.8697, 315.1068
946.7982, 316.3015
948.7266, 317.4525
950.6551, 318.3851
952.5836, 318.7845
954.5120, 319.0742
956.4405, 319.9018
958.3690, 322.2719
960.2974, 323.5730
962.2259, 322.8559
964.1544, 321.5887
966.0828, 321.3810
968.0113, 322.3601
969.9398, 322.8266
971.8682, 321.8217
973.7967, 320.7308
975.7252, 320.5538
977.6536, 321.7206
979.5821, 321.9485
981.5106, 320.4098
983.4390, 318.7416
985.3675, 317.7375
987.2960, 317.3159
989.2244, 316.7423
991.1529, 315.7019
993.0814, 314.9605
995.0098, 315.2660
996.9383, 316.1907
998.8668, 316.2738
1000.795, 314.9323
1002.724, 313.6049
1004.652, 312.2278
1006.581, 311.1333
1008.509, 311.0999
1010.438, 312.6855
1012.366, 313.9097
1014.294, 314.4164
1016.223, 314.4642
1018.151, 314.2662
1020.080, 313.8105
1022.008, 313.4343
1023.937, 313.2293
1025.865, 313.1337
1027.794, 312.9975
1029.722, 312.7106
1031.651, 313.1186
1033.579, 315.4091
1035.508, 317.0095
1037.436, 316.0361
1039.365, 313.3791
1041.293, 312.5052
1043.221, 314.2411
1045.150, 316.2016
1047.078, 318.1529
1049.007, 319.5996
1050.935, 319.3967
1052.864, 316.1710
1054.792, 314.1475
1056.721, 314.9208
1058.649, 316.2926
1060.578, 316.0166
1062.506, 313.6497
1064.435, 311.9542
1066.363, 311.2278
1068.292, 311.1237
1070.220, 311.7143
1072.148, 312.8668
1074.077, 313.9212
1076.005, 314.9037
1077.934, 315.6631
1079.862, 316.0959
1081.791, 316.2587
1083.719, 316.3175
1085.648, 316.0108
1087.576, 315.8668
1089.505, 316.1019
1091.433, 316.3661
1093.362, 316.2032
1095.290, 315.5975
1097.219, 315.1497
1099.147, 315.2551
1101.076, 315.2414
1103.004, 314.4947
1104.932, 313.1538
1106.861, 312.6807
1108.789, 314.0709
1110.718, 315.1888
1112.646, 315.1821
1114.575, 314.6143
1116.503, 314.7955
1118.432, 316.2411
1120.360, 317.3061
1122.289, 317.3623
1124.217, 317.2636
1126.146, 317.7227
1128.074, 318.7004
1130.003, 319.9376
1131.931, 321.9659
1133.859, 323.3942
1135.788, 322.7383
1137.716, 320.6760
1139.645, 320.9987
1141.573, 327.6877
1143.502, 331.4681
1145.430, 329.4409
1147.359, 324.8134
1149.287, 321.5247
1151.216, 319.6263
1153.144, 318.6918
1155.073, 318.7879
1157.001, 319.7429
1158.930, 322.1141
1160.858, 325.3816
1162.786, 327.3866
1164.715, 327.7311
1166.643, 327.1386
1168.572, 324.9555
1170.500, 322.4054
1172.429, 321.5107
1174.357, 324.1541
1176.286, 324.9669
1178.214, 321.7491
1180.143, 318.6910
1182.071, 319.1933
1184.000, 322.8841
1185.928, 324.6215
1187.857, 323.1451
1189.785, 321.7158
1191.714, 321.7985
1193.642, 322.5384
1195.570, 322.6158
1197.499, 321.7083
1199.427, 321.5139
1201.356, 323.3287
1203.284, 325.0662
1205.213, 325.3709
1207.141, 324.2479
1209.070, 323.6762
1210.998, 324.1997
1212.927, 324.5879
1214.855, 324.3489
1216.784, 323.9326
1218.712, 324.1016
1220.641, 324.9276
1222.569, 325.6551
1224.497, 326.1967
1226.426, 326.5480
1228.354, 326.5710
1230.283, 326.3553
1232.211, 326.3342
1234.140, 326.6831
1236.068, 326.8960
1237.997, 326.8140
1239.925, 326.6035
1241.854, 326.4644
1243.782, 326.5005
1245.711, 326.3930
1247.639, 325.4293
1249.568, 325.1675
1251.496, 327.1275
1253.424, 330.2635
1255.353, 331.1158
1257.281, 328.5964
1259.210, 327.3659
1261.138, 330.1921
1263.067, 333.2459
1264.995, 333.3351
1266.924, 330.8511
1268.852, 329.2319
1270.781, 329.2390
1272.709, 329.3297
1274.638, 328.7438
1276.566, 328.0798
1278.495, 328.2027
1280.423, 329.3185
1282.351, 330.7748
1284.280, 333.1709
1286.208, 335.2494
1288.137, 336.3026
1290.065, 336.5286
1291.994, 336.7009
1293.922, 336.7688
1295.851, 336.8615
1297.779, 337.2311
1299.708, 337.4647
1301.636, 336.7081
1303.565, 335.3528
1305.493, 336.0003
1307.422, 340.5012
1309.350, 343.6486
1311.278, 342.2160
1313.207, 339.1854
1315.135, 337.8011
1317.064, 338.1974
1318.992, 339.2547
1320.921, 342.5035
1322.849, 344.4934
1324.778, 342.9270
1326.706, 339.5015
1328.635, 338.1149
1330.563, 340.1256
1332.492, 341.6146
1334.420, 342.2014
1336.349, 342.6208
1338.277, 343.1795
1340.205, 343.9203
1342.134, 345.0469
1344.062, 346.8584
1345.991, 348.0347
1347.919, 347.6501
1349.848, 346.9405
1351.776, 346.7861
1353.705, 347.0760
1355.633, 347.2977
1357.562, 347.4148
1359.490, 347.4239
1361.419, 347.0285
1363.347, 346.7923
1365.276, 347.5816
1367.204, 349.8091
1369.132, 350.4837
1371.061, 347.6409
1372.989, 345.7959
1374.918, 346.4660
1376.846, 348.3652
1378.775, 349.9040
1380.703, 351.0328
1382.632, 351.6857
1384.560, 351.8268
1386.489, 351.4850
1388.417, 349.7627
1390.346, 347.9699
1392.274, 348.6752
1394.203, 352.1230
1396.131, 354.3138
1398.059, 354.4794
1399.988, 353.6458
1401.916, 350.9487
1403.845, 348.0883
1405.773, 348.3087
1407.702, 352.1912
1409.630, 355.0757
1411.559, 355.8282
1413.487, 355.8874
1415.416, 355.3391
1417.344, 354.6559
1419.273, 355.1629
1421.201, 357.7758
1423.130, 358.7077
1425.058, 356.2420
1426.986, 353.6313
1428.915, 351.9892
1430.843, 351.2841
1432.772, 351.4938
1434.700, 353.1694
1436.629, 354.8204
1438.557, 357.4380
1440.486, 359.0479
1442.414, 357.5446
1444.343, 354.5865
1446.271, 354.3410
1448.200, 357.3513
1450.128, 359.4493
1452.057, 359.7660
1453.985, 359.3940
1455.913, 358.7387
1457.842, 357.8068
1459.770, 356.2692
1461.699, 353.9615
1463.627, 353.2861
1465.556, 356.0323
1467.484, 358.3861
1469.413, 357.6535
1471.341, 355.6700
1473.270, 355.6407
1475.198, 357.8407
1477.127, 359.4416
1479.055, 360.2059
1480.984, 360.2421
1482.912, 358.4033
1484.840, 356.6370
1486.769, 358.2231
1488.697, 364.3745
1490.626, 368.0996
1492.554, 367.4777
1494.483, 366.5108
1496.411, 365.7160
1498.340, 365.0966
1500.268, 364.6051
1502.197, 364.1529
1504.125, 364.1132
1506.054, 364.7742
1507.982, 365.4321
1509.911, 366.3682
1511.839, 367.0771
1513.767, 366.7822
1515.696, 365.7172
1517.624, 365.9435
1519.553, 368.3666
1521.481, 370.0895
1523.410, 370.1751
1525.338, 369.7056
1527.267, 368.9843
1529.195, 368.2476
1531.124, 368.2900
1533.052, 369.2087
1534.981, 370.3922
1536.909, 372.4207
1538.838, 373.8311
1540.766, 373.0636
1542.694, 371.5221
1544.623, 371.5425
1546.551, 373.2303
1548.480, 374.8983
1550.408, 376.0554
1552.337, 377.5895
1554.265, 380.7625
1556.194, 383.8283
1558.122, 384.6454
1560.051, 383.3409
1561.979, 382.3443
1563.908, 382.2384
1565.836, 381.4706
1567.765, 378.1236
1569.693, 375.4857
1571.621, 376.4315
1573.550, 380.1744
1575.478, 382.4856
1577.407, 383.0531
1579.335, 383.1818
1581.264, 382.5510
1583.192, 381.9050
1585.121, 381.2873
1587.049, 380.8073
1588.978, 380.8295
1590.906, 381.5752
1592.835, 381.7581
1594.763, 380.4995
1596.692, 380.0056
1598.620, 382.1277
1600.548, 384.1939
1602.477, 383.0655
1604.405, 379.2738
1606.334, 377.9422
1608.262, 381.2715
1610.191, 383.4828
1612.119, 383.5859
1614.048, 383.2715
1615.976, 383.2176
1617.905, 383.2548
1619.833, 383.1204
1621.762, 382.7719
1623.690, 382.3765
1625.619, 382.3828
1627.547, 381.8518
1629.475, 380.1917
1631.404, 378.3875
1633.332, 377.2217
1635.261, 376.6894
1637.189, 376.6312
1639.118, 377.3051
1641.046, 377.7521
1642.975, 377.6367
1644.903, 377.4894
1646.832, 377.3131
1648.760, 377.2703
1650.689, 377.9102
1652.617, 379.2780
1654.546, 379.2868
1656.474, 376.7570
1658.402, 375.0433
1660.331, 375.6382
1662.259, 376.5198
1664.188, 376.1374
1666.116, 375.1358
1668.045, 375.1652
1669.973, 376.3654
1671.902, 377.6461
1673.830, 379.4508
1675.759, 380.5084
1677.687, 379.8413
1679.616, 378.6686
1681.544, 377.9789
1683.473, 377.7246
1685.401, 377.8007
1687.329, 378.4006
1689.258, 378.5351
1691.186, 377.4277
1693.115, 376.6906
1695.043, 377.4261
1696.972, 378.5751
1698.900, 378.4774
1700.829, 379.7173
1702.757, 381.0162
1704.686, 381.2400
1706.614, 383.5540
1708.543, 383.7182
1710.471, 383.6435
1712.400, 384.5421
1714.328, 385.5885
1716.256, 385.1720
1718.185, 385.9251
1720.113, 386.6153
1722.042, 385.8694
1723.970, 387.3586
1725.899, 386.3582
1727.827, 384.8499
1729.756, 383.0080
1731.684, 381.7689
1733.613, 383.2903
1735.541, 387.4792
1737.470, 390.0316
1739.398, 390.1911
1741.327, 390.1825
1743.255, 390.0582
1745.183, 390.2994
1747.112, 391.7980
1749.040, 393.4874
1750.969, 393.4509
1752.897, 391.6832
1754.826, 390.1152
1756.754, 388.3748
1758.683, 387.8710
1760.611, 390.2583
1762.540, 392.4157
1764.468, 392.2887
1766.397, 391.1487
1768.325, 391.0486
1770.254, 391.9919
1772.182, 392.1263
1774.110, 390.5647
1776.039, 390.0220
1777.967, 392.0977
1779.896, 393.7263
1781.824, 392.6300
1783.753, 390.8136
1785.681, 391.0726
1787.610, 393.2614
1789.538, 395.0257
1791.467, 396.8578
1793.395, 397.3489
1795.324, 395.2472
1797.252, 393.3785
1799.181, 392.2813
1801.109, 392.2441
1803.037, 394.2891
1804.966, 397.7746
1806.894, 399.3101
1808.823, 397.4048
1810.751, 397.0815
1812.680, 400.3780
1814.608, 402.3556
1816.537, 400.7251
1818.465, 398.6726
1820.394, 398.5591
1822.322, 399.8732
1824.251, 401.5196
1826.179, 403.8589
1828.108, 404.7019
1830.036, 402.3902
1831.964, 401.5445
1833.893, 404.5001
1835.821, 407.0139
1837.750, 406.4265
1839.678, 404.4908
1841.607, 403.4955
1843.535, 403.3875
1845.464, 403.6616
1847.392, 404.5866
1849.321, 404.9165
1851.249, 404.1545
1853.178, 403.4780
1855.106, 403.3707
1857.035, 403.5450
1858.963, 403.9407
1860.891, 404.4041
1862.820, 404.3667
1864.748, 403.8141
1866.677, 404.0956
1868.605, 405.6293
1870.534, 407.0461
1872.462, 408.2309
1874.391, 408.8585
1876.319, 408.1126
1878.248, 407.1578
1880.176, 407.2175
1882.105, 408.1848
1884.033, 410.0240
1885.962, 412.9706
1887.890, 414.6485
1889.818, 414.0557
1891.747, 413.5015
1893.675, 413.8758
1895.604, 414.3209
1897.532, 414.2610
1899.461, 413.9557
1901.389, 413.9337
1903.318, 414.1756
1905.246, 413.7379
1907.175, 411.7393
1909.103, 411.1280
1911.032, 413.1924
1912.960, 414.9525
1914.889, 415.6270
1916.817, 415.6410
1918.745, 415.1536
1920.674, 414.3065
1922.602, 412.8938
1924.531, 410.8106
1926.459, 411.7747
1928.388, 417.6966
1930.316, 421.5336
1932.245, 421.4839
1934.173, 420.8039
1936.102, 419.7317
1938.030, 419.0677
1939.959, 419.4896
1941.887, 420.5906
1943.816, 421.7843
1945.744, 423.0221
1947.672, 424.0553
1949.601, 425.0298
1951.529, 424.9911
1953.458, 423.1405
1955.386, 421.7116
1957.315, 421.8985
1959.243, 422.5349
1961.172, 422.8854
1963.100, 423.1088
1965.029, 423.3900
1966.957, 423.7238
1968.886, 424.1396
1970.814, 424.3555
1972.743, 425.6911
1974.671, 430.0816
1976.599, 432.8454
1978.528, 431.8166
1980.456, 430.3110
1982.385, 430.2958
1984.313, 429.5917
1986.242, 430.4832
1988.170, 429.5735
1990.099, 429.4796
1992.027, 430.3399
1993.956, 431.4000
1995.884, 433.1793
1997.813, 433.8117
1999.741, 432.4147
2001.670, 430.6067
2003.598, 428.4767
2005.526, 426.8154
2007.455, 426.0753
2009.383, 426.3996
2011.312, 428.6143
2013.240, 432.3775
2015.169, 434.7031
2017.097, 435.1609
2019.026, 435.6470
2020.954, 436.3491
2022.883, 437.0954
2024.811, 437.8622
2026.740, 438.4996
2028.668, 439.0441
2030.597, 439.3475
2032.525, 439.0808
2034.453, 438.5135
2036.382, 438.4442
2038.310, 438.9396
2040.239, 439.7274
2042.167, 441.3004
2044.096, 442.0458
2046.024, 441.0736
2047.953, 440.3749
2049.881, 440.6216
2051.810, 441.1331
2053.738, 441.7274
2055.667, 442.2490
2057.595, 442.5901
2059.523, 442.6646
2061.452, 441.8110
2063.381, 440.0662
2065.309, 440.0976
2067.238, 442.8403
2069.166, 444.2760
2071.094, 442.2540
2073.023, 441.0865
2074.951, 442.8376
2076.880, 445.1288
2078.808, 446.8589
2080.737, 448.0354
2082.665, 448.7271
2084.594, 448.8371
2086.522, 447.7280
2088.451, 445.0938
2090.379, 444.0013
2092.308, 444.7082
2094.236, 446.0786
2096.165, 448.6912
2098.093, 450.4845
2100.021, 450.6235
2101.950, 450.2850
2103.878, 449.9013
2105.807, 449.5808
2107.735, 448.6954
2109.664, 448.2599
2111.592, 451.0400
2113.521, 456.4054
2115.449, 459.0245
2117.378, 458.1802
2119.306, 457.5057
2121.235, 457.0513
2123.163, 456.8455
2125.092, 457.0533
2127.020, 457.3506
2128.948, 457.7855
2130.877, 458.2006
2132.805, 458.5841
2134.734, 458.8392
2136.662, 458.5507
2138.591, 458.1024
2140.519, 458.6584
2142.448, 460.0942
2144.376, 461.6384
2146.305, 463.3980
2148.233, 463.2303
2150.162, 459.3639
2152.090, 457.2333
2154.019, 459.8958
2155.947, 462.0008
2157.875, 460.5625
2159.804, 459.2190
2161.732, 461.8241
2163.661, 459.9432
2165.589, 463.6597
2167.518, 459.6392
2169.446, 458.2532
2171.375, 459.3245
2173.303, 460.5847
2175.232, 462.0410
2177.160, 461.6404
2179.089, 457.7519
2181.017, 457.1199
2182.946, 463.7038
2184.874, 469.3593
2186.802, 471.0169
2188.731, 471.0142
2190.659, 469.6792
2192.588, 468.4022
2194.516, 468.7170
2196.445, 470.0299
2198.373, 471.6786
2200.302, 473.3480
2202.230, 472.5400
2204.159, 469.0786
2206.087, 467.4008
2208.016, 467.9940
2209.944, 468.7675
2211.873, 469.6352
2213.801, 470.1380
2215.729, 469.9473
2217.658, 469.7808
2219.586, 470.1386
2221.515, 470.3507
2223.443, 469.0444
2225.372, 468.1273
2227.300, 470.9134
2229.229, 469.9849
2231.157, 470.7599
2233.086, 471.9197
2235.014, 471.5834
2236.943, 474.1745
2238.871, 474.9068
2240.800, 473.0449
2242.728, 472.8981
2244.656, 475.7603
2246.585, 478.1359
2248.513, 479.4710
2250.442, 479.6151
2252.370, 476.9333
2254.299, 475.1591
2256.227, 477.1805
2258.156, 480.3187
2260.084, 482.8869
2262.013, 484.5228
2263.941, 484.1121
2265.870, 482.3203
2267.798, 481.2143
2269.727, 480.7370
2271.655, 481.0023
2273.583, 482.0402
2275.512, 482.0606
2277.440, 480.4554
2279.369, 479.7087
2281.297, 480.6856
2283.226, 481.7681
2285.154, 482.5838
2287.083, 483.6213
2289.011, 485.7336
2290.940, 487.1480
2292.868, 486.3112
2294.797, 485.0158
2296.725, 484.3162
2298.654, 484.3970
2300.582, 486.1389
2302.510, 488.6268
2304.439, 489.6741
2306.367, 489.5273
2308.296, 489.4530
2310.224, 489.2434
2312.153, 491.0095
2314.081, 496.0510
2316.010, 498.3002
2317.938, 496.3385
2319.867, 495.2094
2321.795, 495.7014
2323.724, 497.2570
2325.652, 501.3636
2327.581, 503.7237
2329.509, 500.5467
2331.438, 497.5291
2333.366, 498.5068
2335.294, 500.5898
2337.223, 501.6355
2339.151, 501.7874
2341.080, 500.9266
2343.008, 499.4195
2344.937, 497.9093
2346.865, 496.5771
2348.794, 496.5654
2350.722, 497.6768
2352.651, 497.4667
2354.579, 495.7213
2356.508, 495.5188
2358.436, 498.2734
2360.365, 499.3864
2362.293, 496.7687
2364.221, 495.5428
2366.150, 496.7377
2368.078, 497.9748
2370.007, 498.5496
2371.935, 499.1741
2373.864, 499.6833
2375.792, 501.0150
2377.721, 505.6469
2379.649, 509.3149
2381.578, 507.1618
2383.506, 503.4447
2385.435, 503.4745
2387.363, 501.8810
2389.292, 504.2826
2391.220, 502.0440
2393.148, 502.4860
2395.077, 504.9591
2397.005, 506.7310
2398.934, 507.6869
2400.862, 507.1387
2402.791, 504.6567
2404.719, 504.3841
2406.648, 504.5639
2408.576, 504.2510
2410.505, 506.9953
2412.433, 506.1488
2414.362, 509.4872
2416.290, 512.2230
2418.219, 513.1991
2420.147, 513.5367
2422.075, 513.5125
2424.004, 513.2476
2425.932, 512.2127
2427.861, 511.7760
2429.789, 513.4227
2431.718, 515.2585
2433.646, 515.5701
2435.575, 515.2308
2437.503, 515.1113
2439.432, 514.9380
2441.360, 513.8959
2443.289, 512.8263
2445.217, 513.8476
2447.146, 516.2315
2449.074, 517.2883
2451.002, 517.2570
2452.931, 517.7438
2454.859, 518.7587
2456.788, 520.1390
2458.716, 521.8727
2460.645, 522.4216
2462.573, 521.5277
2464.502, 520.5992
2466.430, 519.4938
2468.359, 519.6088
2470.287, 522.8107
2472.216, 524.3480
2474.144, 522.1002
2476.073, 521.2252
2478.001, 524.0420
2479.929, 525.1246
2481.858, 521.3803
2483.786, 518.4888
2485.715, 519.5585
2487.643, 521.3737
2489.572, 522.5230
2491.500, 523.5692
2493.429, 524.8967
2495.357, 526.1443
2497.286, 527.0275
2499.214, 527.5905
2501.143, 527.8147
2503.071, 527.7822
2505.000, 527.4836
2506.928, 527.1318
2508.856, 526.6405
2510.785, 526.5902
2512.713, 529.0875
2514.642, 529.0833
2516.570, 529.7886
2518.499, 531.1622
2520.427, 530.5894
2522.356, 531.2645
2524.284, 531.6802
2526.213, 531.7743
2528.141, 531.3688
2530.070, 530.2198
2531.998, 531.0717
2533.927, 530.7118
2535.855, 530.2776
2537.783, 531.6838
2539.712, 530.2559
2541.640, 531.6854
2543.569, 533.3998
2545.497, 535.2798
2547.426, 536.7852
2549.354, 538.0968
2551.283, 538.4947
2553.211, 537.4213
2555.140, 536.4154
2557.068, 535.1929
2558.997, 535.6261
2560.925, 539.8260
2562.854, 542.5287
2564.782, 540.0847
2566.710, 538.7932
2568.639, 542.3499
2570.567, 545.2616
2572.496, 544.8329
2574.424, 544.1368
2576.353, 544.9042
2578.281, 545.0727
2580.210, 541.7584
2582.138, 539.5203
2584.067, 542.7990
2585.995, 546.3768
2587.924, 546.2910
2589.852, 544.9007
2591.781, 542.3923
2593.709, 541.4940
2595.637, 546.9111
2597.566, 552.7150
2599.494, 552.5421
2601.423, 549.6443
2603.351, 546.8434
2605.280, 544.6196
2607.208, 543.2189
2609.137, 543.0954
2611.065, 545.6798
2612.994, 549.4811
2614.922, 553.4274
2616.851, 556.0764
2618.779, 552.5300
2620.708, 556.2099
2622.636, 549.1547
2624.564, 556.0234
2626.493, 555.0564
2628.421, 549.7421
2630.350, 549.6149
2632.278, 553.0688
2634.207, 554.9836
2636.135, 555.7425
2638.064, 557.0635
2639.992, 558.7751
2641.921, 560.0299
2643.849, 560.7507
2645.778, 560.2221
2647.706, 560.6335
2649.635, 558.6119
2651.563, 559.5739
2653.491, 559.1832
2655.420, 557.5212
2657.348, 557.7631
2659.277, 559.5671
2661.205, 559.4474
2663.134, 560.0454
2665.062, 560.8700
2666.991, 560.6232
2668.919, 562.2638
2670.848, 562.8173
2672.776, 564.0617
2674.705, 565.9823
2676.633, 567.1631
2678.562, 567.5220
2680.490, 567.2904
2682.418, 566.3254
2684.347, 565.4937
2686.275, 564.6099
2688.204, 565.3954
2690.132, 567.9169
2692.061, 569.6710
2693.989, 570.6074
2695.918, 571.1956
2697.846, 571.5905
2699.775, 570.3534
2701.703, 566.8568
2703.632, 565.3121
2705.560, 565.6829
2707.489, 568.3541
2709.417, 573.3125
2711.345, 574.6630
2713.274, 571.4153
2715.202, 569.3760
2717.131, 568.5814
2719.059, 569.0775
2720.988, 570.8922
2722.916, 573.1460
2724.845, 575.7857
2726.773, 576.3610
2728.702, 574.4922
2730.630, 573.4259
2732.559, 573.0815
2734.487, 575.0129
2736.416, 574.2401
2738.344, 574.5247
2740.272, 575.7753
2742.201, 575.3021
2744.129, 578.1992
2746.058, 581.2196
2747.986, 584.4083
2749.915, 584.9847
2751.843, 583.2110
2753.772, 582.0499
2755.700, 581.6334
2757.629, 582.1290
2759.557, 583.4715
2761.486, 583.5463
2763.414, 582.6303
2765.343, 584.1810
2767.271, 587.4899
2769.199, 588.4623
2771.128, 587.2840
2773.056, 584.7614
2774.985, 581.5819
2776.913, 582.2252
2778.842, 585.9484
2780.770, 590.6534
2782.699, 595.1987
2784.627, 595.8121
2786.556, 593.4999
2788.484, 590.3232
2790.413, 587.2767
2792.341, 588.2619
2794.270, 591.2310
2796.198, 591.6451
2798.126, 590.5705
2800.055, 589.4820
2801.983, 588.6953
2803.912, 588.6646
2805.840, 589.3507
2807.769, 591.6328
2809.697, 593.5634
2811.626, 591.1693
2813.554, 588.3188
2815.483, 591.2115
2817.411, 589.0917
2819.340, 592.7902
2821.268, 589.8495
2823.197, 590.8969
2825.125, 593.2219
2827.053, 595.5092
2828.982, 596.9562
2830.910, 596.4103
2832.839, 595.5339
2834.767, 594.5744
2836.696, 594.8687
2838.624, 598.4523
2840.553, 601.5037
2842.481, 601.7579
2844.410, 601.1663
2846.338, 599.8154
2848.267, 599.0336
2850.195, 599.2755
2852.124, 600.1872
2854.052, 603.0242
2855.980, 604.1728
2857.909, 601.6645
2859.837, 599.9860
2861.766, 599.6556
2863.694, 601.3593
2865.623, 606.8258
2867.551, 609.6937
2869.480, 608.2980
2871.408, 605.4503
2873.337, 600.4604
2875.265, 599.5814
2877.194, 604.0062
2879.122, 605.3442
2881.051, 602.2864
2882.979, 601.6704
2884.907, 603.6247
2886.836, 603.0833
2888.764, 603.6957
2890.693, 604.5973
2892.621, 604.5944
2894.550, 606.5273
2896.478, 607.4208
2898.407, 609.6267
2900.335, 610.3638
2902.264, 612.7337
2904.192, 612.1962
2906.121, 612.6968
2908.049, 613.8380
2909.978, 614.7794
2911.906, 616.1838
2913.834, 619.8588
2915.763, 623.1024
2917.691, 622.8710
2919.620, 621.6602
2921.548, 621.8359
2923.477, 621.3110
2925.405, 618.5443
2927.334, 615.6383
2929.262, 612.0908
2931.191, 611.3212
2933.119, 617.2069
2935.048, 621.5027
2936.976, 621.9205
2938.905, 621.8272
2940.833, 621.6899
2942.761, 621.9121
2944.690, 622.5410
2946.618, 623.8469
2948.547, 623.3299
2950.475, 626.1647
2952.404, 623.3020
2954.332, 622.2859
2956.261, 623.3295
2958.189, 624.1502
2960.118, 624.8167
2962.046, 626.1478
2963.975, 627.7655
2965.903, 628.2758
2967.832, 627.8942
2969.760, 626.4681
2971.688, 625.0034
2973.617, 625.5023
2975.545, 626.7651
2977.474, 627.2104
2979.402, 627.9981
2981.331, 630.9850
2983.259, 633.7762
2985.188, 635.1307
2987.116, 635.5251
2989.045, 635.3959
2990.973, 634.0594
2992.902, 630.2981
2994.830, 627.1584
2996.759, 624.7650
2998.687, 625.1027
3000.615, 630.4898
3002.544, 633.6470
3004.472, 633.8416
3006.401, 633.2568
3008.329, 631.9321
3010.258, 630.3602
3012.186, 628.6835
3014.115, 629.8865
3016.043, 633.3209
3017.972, 635.4052
3019.900, 636.6977
3021.829, 638.7965
3023.757, 640.7406
3025.686, 640.2088
3027.614, 639.3060
3029.542, 641.2231
3031.471, 642.7936
3033.399, 640.8132
3035.328, 638.8942
3037.256, 638.5000
3039.185, 639.9321
3041.113, 644.6467
3043.042, 647.5013
3044.970, 646.4594
3046.899, 644.7001
3048.827, 642.1188
3050.756, 640.8439
3052.684, 640.9987
3054.613, 641.9775
3056.541, 643.7114
3058.469, 644.7081
3060.398, 645.0964
3062.326, 645.7572
3064.255, 646.3018
3066.183, 644.9821
3068.112, 643.6412
3070.040, 645.8734
3071.969, 648.8407
3073.897, 649.4477
3075.826, 649.7125
3077.754, 651.6357
3079.683, 652.6581
3081.611, 650.1583
3083.540, 649.4193
3085.468, 652.5724
3087.396, 654.3013
3089.325, 652.3773
3091.253, 651.2305
3093.182, 650.8734
3095.110, 652.4979
3097.039, 651.9622
3098.967, 652.5475
3100.896, 653.3575
3102.824, 653.6222
3104.753, 655.4155
3106.681, 657.0295
3108.610, 657.6609
3110.538, 654.8905
3112.467, 652.3878
3114.395, 654.3499
3116.323, 656.0753
3118.252, 654.3290
3120.180, 653.7023
3122.109, 657.9579
3124.037, 658.7712
3125.966, 654.0914
3127.894, 652.4218
3129.823, 655.2214
3131.751, 657.9590
3133.680, 660.4730
3135.608, 659.0248
3137.537, 660.2153
3139.465, 656.2806
3141.394, 658.9468
3143.322, 657.9503
3145.250, 656.7760
3147.179, 660.3180
3149.107, 663.7201
3151.036, 663.0743
3152.964, 662.6804
3154.893, 665.3268
3156.821, 665.8009
3158.750, 662.0375
3160.678, 660.7875
3162.607, 664.0582
3164.535, 665.9396
3166.464, 666.4633
3168.392, 666.3471
3170.321, 666.0254
3172.249, 667.4102
3174.177, 669.2939
3176.106, 669.3922
3178.034, 668.6437
3179.963, 666.9178
3181.891, 666.3802
3183.820, 670.0478
3185.748, 672.3929
3187.677, 671.2770
3189.605, 670.4410
3191.534, 670.7852
3193.462, 671.3448
3195.391, 671.9987
3197.319, 674.5698
3199.248, 678.3895
3201.176, 679.4901
3203.104, 678.3408
3205.033, 674.9383
3206.961, 671.4208
3208.890, 669.2601
3210.818, 669.4901
3212.747, 675.2638
3214.675, 679.5328
3216.604, 679.2114
3218.532, 679.4153
3220.461, 682.4095
3222.389, 683.4766
3224.318, 682.3433
3226.246, 681.5548
3228.175, 681.0722
3230.103, 680.3209
3232.031, 679.2714
3233.960, 677.6884
3235.888, 676.1418
3237.817, 675.0042
3239.745, 674.6587
3241.674, 675.3078
3243.602, 677.4020
3245.531, 681.7278
3247.459, 685.5726
3249.388, 689.0902
3251.316, 688.8380
3253.245, 684.9127
3255.173, 683.5956
3257.102, 684.3397
3259.030, 684.9835
3260.958, 685.7046
3262.887, 687.3158
3264.815, 688.7972
3266.744, 690.4266
3268.672, 690.1008
3270.601, 685.0710
3272.529, 682.1549
3274.458, 682.5306
3276.386, 685.7574
3278.315, 684.7101
3280.243, 684.9576
3282.172, 686.5828
3284.100, 684.7839
3286.029, 685.5387
3287.957, 688.4635
3289.885, 690.4738
3291.814, 686.7834
3293.742, 685.2631
3295.671, 692.5847
3297.599, 697.1649
3299.528, 696.4894
3301.456, 696.8370
3303.385, 698.9684
3305.313, 698.5191
3307.242, 696.2654
3309.170, 696.5680
3311.099, 698.0405
3313.027, 698.8495
3314.956, 699.5311
3316.884, 700.9070
3318.813, 701.7712
3320.741, 702.0589
3322.669, 700.4030
3324.598, 695.5042
3326.526, 694.1312
3328.455, 696.2606
3330.383, 699.3531
3332.312, 702.5636
3334.240, 703.6270
3336.169, 703.6843
3338.097, 703.2531
3340.026, 703.7903
3341.954, 703.6553
3343.883, 703.4430
3345.811, 704.8917
3347.740, 703.0400
3349.668, 705.7202
3351.596, 705.8992
3353.525, 704.1952
3355.453, 702.8873
3357.382, 701.9883
3359.310, 700.7995
3361.239, 701.0994
3363.167, 705.1708
3365.096, 708.5437
3367.024, 709.3234
3368.953, 709.0063
3370.881, 707.5861
3372.810, 708.2413
3374.738, 710.7905
3376.667, 713.8858
3378.595, 716.2006
3380.523, 715.1271
3382.452, 712.5304
3384.380, 708.7311
3386.309, 705.8673
3388.237, 704.0507
3390.166, 705.5944
3392.094, 712.4066
3394.023, 714.7302
3395.951, 713.6073
3397.880, 715.7762
3399.808, 718.6471
3401.737, 716.9191
3403.665, 714.9846
3405.594, 716.3851
3407.522, 717.7162
3409.450, 717.1573
3411.379, 717.8503
3413.307, 720.0009
3415.236, 718.9534
3417.164, 715.7166
3419.093, 715.6300
3421.021, 717.3357
3422.950, 719.9288
3424.878, 721.6982
3426.807, 722.8812
3428.735, 724.5649
3430.664, 724.2220
3432.592, 726.0541
3434.521, 725.4017
3436.449, 724.1194
3438.377, 723.3886
3440.306, 727.8378
3442.234, 732.2325
3444.163, 729.8759
3446.091, 726.7096
3448.020, 723.9211
3449.948, 725.0750
3451.877, 732.3613
3453.805, 732.1744
3455.734, 725.9993
3457.662, 722.1904
3459.591, 721.6566
3461.519, 729.4757
3463.448, 735.7899
3465.376, 731.7331
3467.304, 729.2065
3469.233, 731.0972
3471.161, 732.8790
3473.090, 734.0872
3475.018, 735.5742
3476.947, 736.6266
3478.875, 734.4393
3480.804, 732.2286
3482.732, 733.5441
3484.661, 734.2875
3486.589, 732.6951
3488.518, 733.1378
3490.446, 736.6361
3492.375, 738.3043
3494.303, 738.2676
3496.231, 735.1746
3498.160, 733.2574
3500.088, 739.3660
3502.017, 744.7891
3503.945, 746.1989
3505.874, 745.4926
3507.802, 747.9939
3509.731, 743.8115
3511.659, 747.5926
3513.588, 745.2887
3515.516, 741.7687
3517.445, 743.7111
3519.373, 745.7847
3521.302, 744.5649
3523.230, 744.9296
3525.158, 747.3763
3527.087, 749.6238
3529.015, 751.1810
3530.944, 748.6906
3532.872, 747.4658
3534.801, 757.1442
3536.729, 763.8256
3538.658, 758.0472
3540.586, 754.4254
3542.515, 754.6749
3544.443, 755.9998
3546.372, 757.6653
3548.300, 756.7529
3550.229, 755.5171
3552.157, 756.9078
3554.085, 757.5511
3556.014, 756.0884
3557.942, 754.2524
3559.871, 752.1767
3561.799, 754.6261
3563.728, 752.5684
3565.656, 756.1263
3567.585, 752.3414
3569.513, 752.7816
3571.442, 754.2298
3573.370, 756.2053
3575.299, 757.1651
3577.227, 757.1347
3579.156, 759.4620
3581.084, 762.5192
3583.012, 763.0393
3584.941, 763.0763
3586.869, 763.7973
3588.798, 764.8508
3590.726, 766.2682
3592.655, 768.0851
3594.583, 769.6771
3596.512, 766.7352
3598.440, 763.7985
3600.369, 769.0475
3602.297, 773.4061
3604.226, 771.8978
3606.154, 770.9471
3608.083, 771.1415
3610.011, 769.5057
3611.939, 767.4355
3613.868, 769.8964
3615.796, 771.8068
3617.725, 766.7087
3619.653, 765.4880
3621.582, 771.7997
3623.510, 774.5341
3625.439, 774.1005
3627.367, 779.1777
3629.296, 784.8947
3631.224, 785.0491
3633.153, 782.6210
3635.081, 776.4086
3637.010, 774.6832
3638.938, 777.9114
3640.866, 779.9592
3642.795, 780.7717
3644.723, 779.5991
3646.652, 779.0259
3648.580, 781.5984
3650.509, 783.8241
3652.437, 785.1175
3654.366, 785.7699
3656.294, 785.9920
3658.223, 786.6726
3660.151, 787.1942
3662.080, 788.2361
3664.008, 786.5959
3665.937, 790.5632
3667.865, 793.3904
3669.793, 794.6131
3671.722, 793.9045
3673.650, 792.1899
3675.579, 790.0912
3677.507, 789.0280
3679.436, 789.8075
3681.364, 791.2198
3683.293, 793.0817
3685.221, 794.1383
3687.150, 793.9913
3689.078, 790.6176
3691.007, 788.3989
3692.935, 790.5709
3694.864, 792.5412
3696.792, 793.6568
3698.720, 794.7581
3700.649, 796.3519
3702.577, 800.8459
3704.506, 804.2751
3706.434, 803.1058
3708.363, 801.4943
3710.291, 800.0259
3712.220, 800.7667
3714.148, 802.2087
3716.077, 798.6254
3718.005, 794.9850
3719.934, 794.7202
3721.862, 796.5277
3723.791, 800.2878
3725.719, 805.3387
3727.647, 810.4269
3729.576, 810.8727
3731.504, 810.6971
3733.433, 814.4512
3735.361, 815.0596
3737.290, 810.8715
3739.218, 811.6400
3741.147, 814.9661
3743.075, 809.8268
3745.004, 805.0823
3746.932, 809.6035
3748.861, 812.1075
3750.789, 810.3802
3752.718, 812.2485
3754.646, 815.6003
3756.574, 812.3854
3758.503, 808.2592
3760.431, 806.0607
3762.360, 808.1087
3764.288, 815.0936
3766.217, 817.3629
3768.145, 816.2404
3770.074, 814.7975
3772.002, 813.3867
3773.931, 810.5104
3775.859, 812.6385
3777.788, 820.4743
3779.716, 823.6375
3781.645, 823.4443
3783.573, 821.7269
3785.501, 820.3823
3787.430, 820.5287
3789.358, 820.8621
3791.287, 821.3927
3793.215, 824.0869
3795.144, 827.1798
3797.072, 828.0737
3799.001, 828.4923
3800.929, 829.0562
3802.858, 830.1600
3804.786, 831.0257
3806.715, 824.4569
3808.643, 818.7952
3810.572, 824.3920
3812.500, 828.8096
3814.428, 828.7098
3816.357, 829.8904
3818.285, 831.7471
3820.214, 832.7986
3822.142, 829.3086
3824.071, 835.9523
3825.999, 836.7310
3827.928, 837.6478
3829.856, 832.0986
3831.785, 837.6674
3833.713, 839.5616
3835.642, 837.7554
3837.570, 828.5300
3839.499, 825.2863
3841.427, 827.8604
3843.355, 832.4987
3845.284, 836.0865
3847.212, 834.4388
3849.141, 832.4948
3851.069, 831.1981
3852.998, 833.6240
3854.926, 838.0673
3856.855, 839.9188
3858.783, 840.0601
3860.712, 838.4249
3862.640, 837.5486
3864.569, 837.9595
3866.497, 841.2503
3868.426, 845.0886
3870.354, 846.0446
3872.282, 847.2156
3874.211, 850.2064
3876.139, 848.0316
3878.068, 850.4544
3879.996, 846.5993
3881.925, 852.2526
3883.853, 856.6403
3885.782, 857.1904
3887.710, 853.7118
3889.639, 852.0848
3891.567, 852.5801
3893.496, 856.4087
3895.424, 856.7875
3897.353, 859.5061
3899.281, 855.7302
3901.209, 863.3636
3903.138, 866.7972
3905.066, 866.7374
3906.995, 862.2791
3908.923, 860.6053
3910.852, 860.4852
3912.780, 862.5757
3914.709, 865.8403
3916.637, 867.5305
3918.566, 870.6678
3920.494, 871.0234
3922.423, 874.2552
3924.351, 871.5516
3926.280, 872.7552
3928.208, 873.3877
3930.136, 870.1947
3932.065, 872.3730
3933.993, 871.6672
3935.922, 877.0306
3937.850, 872.6089
3939.779, 874.8640
3941.707, 876.1364
3943.636, 873.0446
3945.564, 873.6517
3947.493, 875.1035
3949.421, 877.2585
3951.350, 879.6201
3953.278, 878.5764
3955.207, 879.4181
3957.135, 883.8691
3959.063, 886.4897
3960.992, 885.0174
3962.920, 881.9385
3964.849, 880.1031
3966.777, 880.6432
3968.706, 886.2646
3970.634, 890.4733
3972.563, 887.8806
3974.491, 888.2972
3976.420, 892.6792
3978.348, 895.9446
3980.277, 896.3156
3982.205, 892.7785
3984.134, 891.1253
3986.062, 893.4595
3987.990, 894.4977
3989.919, 894.3568
3991.847, 894.2067
3993.776, 895.4727
3995.704, 896.3517
3997.633, 897.5521
3999.561, 898.0511
4001.490, 898.5800
4003.418, 901.0107
4005.347, 903.2137
4007.275, 906.2308
4009.204, 908.8739
4011.132, 908.3299
4013.061, 907.6935
4014.989, 908.4806
4016.917, 909.0311
4018.846, 910.0984
4020.774, 910.5544
4022.703, 911.1429
4024.631, 911.3981
4026.560, 912.0291
4028.488, 911.8791
4030.417, 912.1356
4032.345, 910.0936
4034.274, 912.4391
4036.202, 916.7197
4038.131, 915.7072
4040.059, 919.2903
4041.988, 915.0420
4043.916, 921.6317
4045.844, 923.2293
4047.773, 920.0212
4049.701, 917.5324
4051.630, 918.1610
4053.558, 923.1198
4055.487, 925.5815
4057.415, 924.6595
4059.344, 925.3052
4061.272, 926.1517
4063.201, 926.9160
4065.129, 927.9890
4067.058, 929.4120
4068.986, 930.8415
4070.915, 932.0438
4072.843, 936.0859
4074.771, 936.0760
4076.700, 931.3494
4078.628, 930.2308
4080.557, 932.4520
4082.485, 936.5012
4084.414, 936.8416
4086.342, 933.9003
4088.271, 930.3177
4090.199, 930.1502
4092.128, 936.2885
4094.056, 942.0576
4095.985, 945.3442
4097.913, 943.1752
4099.842, 941.5115
4101.770, 942.5099
4103.699, 942.1912
4105.627, 942.0368
4107.556, 938.4236
4109.484, 937.0107
4111.413, 946.3536
4113.341, 949.1473
4115.270, 945.7386
4117.198, 949.8605
4119.126, 952.5110
4121.055, 948.0948
4122.983, 946.1929
4124.912, 946.5533
4126.840, 947.7814
4128.769, 949.9808
4130.697, 951.5807
4132.625, 953.6886
4134.554, 956.9603
4136.482, 962.2322
4138.411, 964.9845
4140.339, 957.9710
4142.268, 956.5291
4144.196, 961.5764
4146.125, 961.7819
4148.053, 961.0186
4149.982, 963.7347
4151.910, 964.6537
4153.839, 963.5124
4155.767, 965.3363
4157.696, 966.9495
4159.624, 964.2713
4161.553, 963.7797
4163.481, 966.1064
4165.410, 971.4332
4167.338, 975.7352
4169.267, 975.3600
4171.195, 975.0384
4173.124, 975.1489
4175.052, 975.9131
4176.980, 976.9799
4178.909, 977.9334
4180.837, 980.4022
4182.766, 981.2297
4184.694, 983.4648
4186.623, 984.7081
4188.551, 982.6129
4190.479, 982.3835
4192.408, 983.6494
4194.336, 983.9656
4196.265, 984.4355
4198.193, 986.0104
4200.122, 982.0574
4202.050, 976.3942
4203.979, 985.7776
4205.907, 995.6756
4207.836, 999.6082
4209.764, 997.7855
4211.693, 993.3032
4213.621, 992.7106
4215.550, 994.4668
4217.478, 999.7108
4219.407, 1001.146
4221.335, 999.8950
4223.264, 996.7923
4225.192, 995.4437
4227.121, 997.8086
4229.049, 995.6958
4230.978, 993.2749
4232.906, 996.8039
4234.834, 1001.727
4236.763, 1006.722
4238.691, 1002.775
4240.620, 998.4945
4242.548, 1003.816
4244.477, 1007.545
4246.405, 1007.888
4248.333, 1002.402
4250.262, 996.5047
4252.190, 992.6229
4254.119, 995.7565
4256.047, 1003.819
4257.976, 1010.766
4259.904, 1014.512
4261.833, 1014.089
4263.761, 1007.490
4265.690, 1000.849
4267.618, 1008.023
4269.547, 1014.054
4271.475, 1014.706
4273.404, 1012.878
4275.332, 1011.099
4277.261, 1012.949
4279.189, 1012.973
4281.118, 1010.960
4283.046, 1014.429
4284.975, 1016.737
4286.903, 1010.781
4288.832, 1008.785
4290.760, 1010.721
4292.688, 1012.998
4294.617, 1015.186
4296.545, 1017.394
4298.474, 1014.637
4300.402, 1010.862
4302.331, 1015.136
4304.259, 1016.379
4306.188, 1012.182
4308.116, 1020.333
4310.044, 1028.342
4311.973, 1019.387
4313.901, 1016.241
4315.830, 1019.911
4317.758, 1019.377
4319.687, 1018.361
4321.615, 1019.123
4323.544, 1020.095
4325.472, 1021.881
4327.401, 1026.931
4329.329, 1030.952
4331.258, 1032.561
4333.186, 1031.539
4335.115, 1028.683
4337.043, 1021.631
4338.972, 1024.803
4340.900, 1023.921
4342.829, 1033.028
4344.757, 1027.422
4346.686, 1027.519
4348.614, 1026.802
4350.542, 1026.199
4352.471, 1029.128
4354.399, 1030.973
4356.328, 1030.516
4358.256, 1032.484
4360.185, 1034.544
4362.113, 1034.264
4364.042, 1034.142
4365.970, 1034.634
4367.898, 1034.809
4369.827, 1035.825
4371.755, 1036.921
4373.684, 1038.687
4375.612, 1042.259
4377.541, 1045.011
4379.469, 1045.511
4381.398, 1044.310
4383.326, 1047.399
4385.255, 1047.899
4387.183, 1041.259
4389.112, 1037.079
4391.040, 1036.599
4392.969, 1043.727
4394.897, 1045.795
4396.826, 1040.613
4398.754, 1033.117
4400.683, 1030.450
4402.611, 1041.542
4404.540, 1048.467
4406.468, 1049.488
4408.396, 1039.640
4410.325, 1034.601
4412.253, 1039.940
4414.182, 1042.114
4416.110, 1044.039
4418.039, 1049.118
4419.967, 1053.747
4421.896, 1056.180
4423.824, 1048.650
4425.752, 1044.530
4427.681, 1048.165
4429.609, 1050.509
4431.538, 1051.358
4433.466, 1050.300
4435.395, 1050.483
4437.323, 1051.316
4439.252, 1053.117
4441.180, 1048.832
4443.109, 1057.611
4445.037, 1061.793
4446.966, 1062.397
4448.894, 1060.024
4450.823, 1058.374
4452.751, 1057.193
4454.680, 1054.264
4456.608, 1051.697
4458.537, 1050.068
4460.465, 1054.035
4462.394, 1058.620
4464.322, 1059.939
4466.250, 1057.443
4468.179, 1052.474
4470.107, 1046.355
4472.036, 1044.853
4473.964, 1048.618
4475.893, 1049.119
4477.821, 1049.281
4479.750, 1051.131
4481.678, 1054.321
4483.606, 1057.800
4485.535, 1059.661
4487.463, 1062.053
4489.392, 1065.016
4491.320, 1066.305
4493.249, 1063.368
4495.177, 1063.204
4497.106, 1053.669
4499.034, 1059.752
4500.963, 1057.796
4502.891, 1059.293
4504.820, 1063.631
4506.748, 1058.986
4508.677, 1059.745
4510.605, 1069.570
4512.534, 1062.731
4514.462, 1054.678
4516.391, 1062.345
4518.319, 1063.192
4520.248, 1061.399
4522.176, 1071.159
4524.104, 1077.486
4526.033, 1077.290
4527.961, 1071.197
4529.890, 1066.824
4531.818, 1068.158
4533.747, 1068.391
4535.675, 1069.194
4537.604, 1073.828
4539.532, 1075.050
4541.460, 1073.333
4543.389, 1072.951
4545.317, 1070.268
4547.246, 1064.610
4549.174, 1062.309
4551.103, 1064.805
4553.031, 1075.029
4554.960, 1075.062
4556.888, 1070.535
4558.817, 1068.656
4560.745, 1069.503
4562.674, 1071.304
4564.602, 1067.418
4566.531, 1066.826
4568.459, 1071.752
4570.388, 1074.928
4572.316, 1076.468
4574.245, 1075.372
4576.173, 1079.559
4578.102, 1083.644
4580.030, 1080.425
4581.958, 1075.078
4583.887, 1069.984
4585.815, 1069.575
4587.744, 1071.284
4589.672, 1074.063
4591.601, 1075.501
4593.529, 1076.545
4595.458, 1077.662
4597.386, 1079.317
4599.314, 1080.661
4601.243, 1080.999
4603.171, 1079.436
4605.100, 1077.403
4607.028, 1078.692
4608.957, 1076.137
4610.885, 1071.617
4612.814, 1081.153
4614.742, 1087.039
4616.671, 1081.948
4618.599, 1080.344
4620.528, 1080.754
4622.456, 1082.452
4624.385, 1085.875
4626.313, 1087.379
4628.242, 1082.086
4630.170, 1074.228
4632.099, 1068.990
4634.027, 1080.469
4635.956, 1083.688
4637.884, 1076.341
4639.813, 1079.491
4641.741, 1082.550
4643.669, 1082.158
4645.598, 1085.143
4647.526, 1086.568
4649.455, 1082.672
4651.383, 1082.961
4653.312, 1085.231
4655.240, 1086.256
4657.168, 1088.819
4659.097, 1089.185
4661.025, 1090.094
4662.954, 1089.382
4664.882, 1089.460
4666.811, 1088.080
4668.739, 1087.140
4670.668, 1087.146
4672.596, 1086.323
4674.525, 1086.401
4676.453, 1088.359
4678.382, 1087.902
4680.310, 1090.300
4682.239, 1091.801
4684.167, 1099.255
4686.096, 1094.342
4688.024, 1098.186
4689.953, 1096.485
4691.881, 1091.840
4693.810, 1092.536
4695.738, 1090.473
4697.667, 1087.050
4699.595, 1092.279
4701.523, 1094.627
4703.452, 1091.844
4705.380, 1093.152
4707.309, 1093.023
4709.237, 1089.424
4711.166, 1096.072
4713.094, 1100.568
4715.022, 1096.119
4716.951, 1087.206
4718.879, 1081.086
4720.808, 1084.997
4722.736, 1092.902
4724.665, 1099.658
4726.593, 1099.038
4728.522, 1096.670
4730.450, 1094.167
4732.379, 1093.351
4734.307, 1089.816
4736.236, 1086.503
4738.164, 1097.222
4740.093, 1100.966
4742.021, 1095.802
4743.950, 1090.472
4745.878, 1089.076
4747.807, 1091.948
4749.735, 1092.523
4751.664, 1090.162
4753.592, 1084.877
4755.521, 1090.100
4757.449, 1095.739
4759.377, 1096.679
4761.306, 1103.283
4763.234, 1107.259
4765.163, 1100.618
4767.091, 1096.770
4769.020, 1094.269
4770.948, 1091.355
4772.876, 1094.619
4774.805, 1098.785
4776.733, 1096.081
4778.662, 1093.851
4780.590, 1093.587
4782.519, 1097.869
4784.447, 1098.239
4786.376, 1095.515
4788.304, 1090.798
4790.233, 1094.849
4792.161, 1103.526
4794.090, 1102.358
4796.018, 1099.000
4797.947, 1095.522
4799.875, 1092.375
4801.804, 1093.135
4803.732, 1097.431
4805.661, 1100.012
4807.589, 1101.731
4809.518, 1102.786
4811.446, 1102.901
4813.375, 1103.122
4815.303, 1103.776
4817.231, 1105.338
4819.160, 1106.045
4821.088, 1105.082
4823.017, 1098.560
4824.945, 1095.422
4826.874, 1099.300
4828.802, 1100.436
4830.730, 1100.088
4832.659, 1098.986
4834.587, 1102.865
4836.516, 1104.967
4838.444, 1101.651
4840.373, 1098.858
4842.301, 1098.650
4844.230, 1102.195
4846.158, 1102.545
4848.087, 1101.726
4850.015, 1100.891
4851.944, 1101.018
4853.872, 1100.800
4855.801, 1101.852
4857.729, 1101.951
4859.658, 1104.813
4861.586, 1107.174
4863.515, 1104.757
4865.443, 1101.814
4867.372, 1101.326
4869.300, 1107.407
4871.229, 1111.032
4873.157, 1104.415
4875.085, 1099.493
4877.014, 1099.481
4878.942, 1099.116
4880.871, 1106.306
4882.799, 1104.291
4884.728, 1107.037
4886.656, 1109.606
4888.584, 1109.859
4890.513, 1106.258
4892.441, 1108.518
4894.370, 1109.993
4896.298, 1104.546
4898.227, 1106.886
4900.155, 1106.313
4902.084, 1105.179
4904.012, 1106.254
4905.941, 1103.461
4907.869, 1100.367
4909.798, 1103.588
4911.726, 1107.490
4913.655, 1108.987
4915.583, 1107.567
4917.512, 1107.564
4919.440, 1111.903
4921.369, 1108.329
4923.297, 1106.515
4925.226, 1110.638
4927.154, 1110.279
4929.083, 1108.480
4931.011, 1107.114
4932.939, 1113.046
4934.868, 1117.179
4936.796, 1116.073
4938.725, 1115.825
4940.653, 1114.714
4942.582, 1112.376
4944.510, 1110.391
4946.438, 1109.181
4948.367, 1108.753
4950.295, 1108.234
4952.224, 1110.618
4954.152, 1109.352
4956.081, 1110.965
4958.009, 1107.963
4959.938, 1106.702
4961.866, 1104.303
4963.795, 1105.166
4965.723, 1108.076
4967.652, 1108.336
4969.580, 1107.556
4971.509, 1106.711
4973.437, 1107.588
4975.366, 1107.543
4977.294, 1106.584
4979.223, 1105.005
4981.151, 1104.669
4983.080, 1104.562
4985.008, 1103.000
4986.937, 1100.469
4988.865, 1101.997
4990.793, 1112.360
4992.722, 1111.509
4994.650, 1110.050
4996.579, 1117.483
4998.507, 1117.069
5000.436, 1111.905
5002.364, 1104.534
5004.292, 1109.731
5006.221, 1114.279
5008.149, 1113.155
5010.078, 1110.626
5012.006, 1107.974
5013.935, 1105.980
5015.863, 1106.953
5017.792, 1108.458
5019.720, 1109.332
5021.649, 1107.754
5023.577, 1106.853
5025.506, 1106.623
5027.434, 1105.865
5029.363, 1106.867
5031.291, 1108.104
5033.220, 1106.911
5035.148, 1108.876
5037.077, 1110.925
5039.005, 1108.870
5040.934, 1110.867
5042.862, 1108.932
5044.791, 1109.250
5046.719, 1110.407
5048.647, 1107.953
5050.576, 1110.500
5052.504, 1107.282
5054.433, 1102.571
5056.361, 1098.629
5058.290, 1100.098
5060.218, 1101.990
5062.146, 1102.337
5064.075, 1097.086
5066.003, 1102.649
5067.932, 1100.217
5069.860, 1104.517
5071.789, 1100.016
5073.717, 1097.583
5075.646, 1096.578
5077.574, 1104.341
5079.503, 1109.462
5081.431, 1105.277
5083.360, 1101.765
5085.288, 1103.146
5087.217, 1108.877
5089.145, 1111.438
5091.074, 1107.529
5093.002, 1100.597
5094.931, 1101.432
5096.859, 1101.410
5098.788, 1101.012
5100.716, 1102.521
5102.645, 1104.802
5104.573, 1107.712
5106.501, 1111.822
5108.430, 1103.271
5110.358, 1095.521
5112.287, 1095.422
5114.215, 1098.289
5116.144, 1101.583
5118.072, 1104.387
5120.000, 1106.438
5121.929, 1107.916
5123.857, 1108.031
5125.786, 1105.305
5127.714, 1106.118
5129.643, 1100.434
5131.571, 1104.561
5133.500, 1101.830
5135.428, 1100.122
5137.357, 1103.681
5139.285, 1099.778
5141.214, 1097.048
5143.142, 1097.891
5145.071, 1101.991
5146.999, 1099.154
5148.928, 1095.361
5150.856, 1106.870
5152.785, 1101.633
5154.713, 1097.887
5156.642, 1114.614
5158.570, 1108.948
5160.499, 1101.562
5162.427, 1101.340
5164.355, 1100.699
5166.284, 1101.599
5168.212, 1102.952
5170.141, 1099.673
5172.069, 1097.680
5173.998, 1097.450
5175.926, 1098.567
5177.854, 1100.964
5179.783, 1100.907
5181.711, 1096.928
5183.640, 1104.598
5185.568, 1107.773
5187.497, 1103.102
5189.425, 1108.114
5191.354, 1099.353
5193.282, 1107.452
5195.211, 1106.747
5197.139, 1101.255
5199.068, 1099.340
5200.996, 1097.995
5202.925, 1094.039
5204.853, 1096.584
5206.782, 1090.708
5208.710, 1091.248
5210.639, 1094.771
5212.567, 1098.967
5214.496, 1101.733
5216.424, 1103.081
5218.353, 1102.680
5220.281, 1100.358
5222.209, 1101.417
5224.138, 1100.173
5226.066, 1097.013
5227.995, 1099.836
5229.923, 1097.129
5231.852, 1092.288
5233.780, 1091.391
5235.708, 1092.191
5237.637, 1095.882
5239.565, 1102.087
5241.494, 1103.561
5243.422, 1101.205
5245.351, 1097.054
5247.279, 1093.594
5249.208, 1093.881
5251.136, 1093.787
5253.065, 1096.153
5254.993, 1097.676
5256.922, 1097.780
5258.850, 1103.682
5260.779, 1098.917
5262.707, 1099.471
5264.636, 1101.100
5266.564, 1092.835
5268.493, 1089.864
5270.421, 1090.172
5272.350, 1091.571
5274.278, 1087.775
5276.207, 1085.365
5278.135, 1086.879
5280.063, 1096.425
5281.992, 1098.984
5283.920, 1097.933
5285.849, 1097.077
5287.777, 1095.470
5289.706, 1093.829
5291.634, 1092.302
5293.563, 1090.468
5295.491, 1089.656
5297.419, 1088.092
5299.348, 1082.527
5301.276, 1086.773
5303.205, 1092.643
5305.133, 1095.547
5307.062, 1090.714
5308.990, 1089.172
5310.919, 1089.683
5312.847, 1088.179
5314.776, 1087.331
5316.704, 1086.989
5318.633, 1086.746
5320.561, 1085.797
5322.490, 1083.999
5324.418, 1080.184
5326.347, 1081.803
5328.275, 1078.540
5330.204, 1082.931
5332.132, 1078.007
5334.061, 1076.102
5335.989, 1079.905
5337.917, 1084.158
5339.846, 1079.404
5341.774, 1078.165
5343.703, 1078.123
5345.631, 1077.392
5347.560, 1073.923
5349.488, 1072.446
5351.417, 1073.813
5353.345, 1079.155
5355.273, 1077.813
5357.202, 1077.629
5359.130, 1080.705
5361.059, 1072.853
5362.987, 1075.213
5364.916, 1081.999
5366.844, 1081.506
5368.773, 1073.911
5370.701, 1070.518
5372.630, 1073.736
5374.558, 1072.071
5376.487, 1073.129
5378.415, 1072.056
5380.344, 1074.102
5382.272, 1070.803
5384.201, 1067.936
5386.129, 1071.445
5388.058, 1082.848
5389.986, 1081.643
5391.915, 1077.758
5393.843, 1080.727
5395.771, 1073.763
5397.700, 1067.619
5399.628, 1065.914
5401.557, 1070.144
5403.485, 1068.212
5405.414, 1062.618
5407.342, 1057.307
5409.271, 1057.236
5411.199, 1062.494
5413.127, 1056.622
5415.056, 1060.737
5416.984, 1061.594
5418.913, 1063.748
5420.841, 1067.243
5422.770, 1066.310
5424.698, 1067.419
5426.627, 1066.265
5428.555, 1059.995
5430.484, 1066.649
5432.412, 1062.754
5434.341, 1052.515
5436.269, 1055.534
5438.198, 1052.289
5440.126, 1053.146
5442.055, 1059.719
5443.983, 1055.415
5445.912, 1055.669
5447.840, 1055.626
5449.769, 1049.296
5451.697, 1047.864
5453.625, 1051.251
5455.554, 1056.006
5457.482, 1055.297
5459.411, 1059.394
5461.339, 1060.633
5463.268, 1055.626
5465.196, 1056.533
5467.125, 1056.013
5469.053, 1052.847
5470.981, 1054.575
5472.910, 1055.460
5474.838, 1051.061
5476.767, 1046.483
5478.695, 1054.981
5480.624, 1053.121
5482.552, 1048.462
5484.481, 1045.123
5486.409, 1043.600
5488.338, 1045.684
5490.266, 1048.088
5492.195, 1048.480
5494.123, 1049.435
5496.052, 1047.860
5497.980, 1044.560
5499.909, 1040.955
5501.837, 1040.367
5503.766, 1037.238
5505.694, 1033.930
5507.623, 1038.990
5509.551, 1043.632
5511.479, 1045.520
5513.408, 1044.708
5515.336, 1043.735
5517.265, 1040.186
5519.193, 1037.479
5521.122, 1037.974
5523.050, 1038.110
5524.979, 1036.788
5526.907, 1034.037
5528.835, 1030.226
5530.764, 1029.222
5532.692, 1026.343
5534.621, 1025.415
5536.549, 1023.851
5538.478, 1024.735
5540.406, 1027.292
5542.335, 1028.663
5544.263, 1030.979
5546.192, 1029.486
5548.120, 1028.499
5550.049, 1024.462
5551.977, 1023.670
5553.906, 1018.636
5555.834, 1016.364
5557.763, 1021.991
5559.691, 1023.609
5561.620, 1029.981
5563.548, 1031.178
5565.477, 1017.526
5567.405, 1017.163
5569.333, 1016.100
5571.262, 1012.934
5573.190, 1010.420
5575.119, 1015.578
5577.047, 1019.380
5578.976, 1020.112
5580.904, 1019.823
5582.833, 1015.675
5584.761, 1013.379
5586.689, 1011.831
5588.618, 1008.772
5590.546, 1008.199
5592.475, 1005.004
5594.403, 1005.951
5596.332, 1005.949
5598.260, 1003.328
5600.189, 1003.084
5602.117, 1006.108
5604.046, 1005.128
5605.974, 1004.202
5607.903, 1003.654
5609.831, 1002.861
5611.760, 999.5101
5613.688, 998.2054
5615.617, 997.7905
5617.545, 997.8837
5619.474, 1006.237
5621.402, 1003.881
5623.331, 1004.644
5625.259, 1004.460
5627.188, 999.9035
5629.116, 1000.431
5631.044, 994.1017
5632.973, 993.0717
5634.901, 997.9750
5636.830, 999.3480
5638.758, 996.3592
5640.687, 991.0118
5642.615, 991.9056
5644.543, 989.9303
5646.472, 986.8768
5648.400, 986.0067
5650.329, 984.9940
5652.257, 989.9833
5654.186, 986.2575
5656.114, 985.5963
5658.043, 990.2115
5659.971, 985.3405
5661.900, 980.5009
5663.828, 984.9496
5665.757, 983.5436
5667.685, 978.5171
5669.614, 979.2674
5671.542, 989.4479
5673.471, 983.6748
5675.399, 983.9163
5677.328, 985.4696
5679.256, 982.7329
5681.185, 984.2264
5683.113, 980.9645
5685.042, 976.9051
5686.970, 975.3145
5688.898, 971.8615
5690.827, 972.9953
5692.755, 970.9966
5694.684, 977.7432
5696.612, 970.1273
5698.541, 972.1990
5700.469, 973.2987
5702.397, 968.4464
5704.326, 965.8990
5706.254, 968.4310
5708.183, 967.0104
5710.111, 961.5336
5712.040, 965.0910
5713.968, 967.0674
5715.897, 962.5408
5717.825, 956.6544
5719.754, 966.7101
5721.682, 964.2697
5723.611, 961.2723
5725.539, 962.6298
5727.468, 968.8727
5729.396, 965.5448
5731.325, 961.0770
5733.253, 956.9691
5735.182, 952.2852
5737.110, 951.5291
5739.039, 952.0480
5740.967, 950.7780
5742.896, 947.3320
5744.824, 956.0750
5746.752, 959.5131
5748.681, 954.5848
5750.609, 944.7643
5752.538, 950.6369
5754.466, 949.0537
5756.395, 945.8994
5758.323, 944.9930
5760.251, 944.3262
5762.180, 946.4364
5764.108, 946.8652
5766.037, 943.5358
5767.965, 936.1259
5769.894, 938.8918
5771.822, 939.1279
5773.751, 939.2766
5775.679, 944.6238
5777.608, 936.4830
5779.536, 932.7849
5781.465, 936.8368
5783.393, 929.4286
5785.322, 939.7047
5787.250, 925.8060
5789.179, 919.5326
5791.107, 924.8445
5793.036, 930.9608
5794.964, 930.0280
5796.893, 926.5851
5798.821, 923.7980
5800.750, 923.5740
5802.678, 925.4025
5804.606, 925.8795
5806.535, 924.7772
5808.463, 923.7435
5810.392, 923.6979
5812.320, 925.4653
5814.249, 921.9188
5816.177, 926.3445
5818.105, 923.8205
5820.034, 921.4872
5821.962, 919.0685
5823.891, 918.3304
5825.819, 917.2095
5827.748, 916.7314
5829.676, 915.9789
5831.605, 917.0765
5833.533, 915.5027
5835.462, 914.1546
5837.390, 906.6696
5839.319, 902.5617
5841.247, 905.5120
5843.176, 913.7555
5845.104, 909.1567
5847.033, 904.5681
5848.961, 902.3055
5850.890, 900.1188
5852.818, 897.8896
5854.747, 900.3864
5856.675, 903.5193
5858.604, 903.9722
5860.532, 901.9170
5862.460, 898.4240
5864.389, 898.8934
5866.317, 898.7574
5868.246, 891.2635
5870.174, 894.9382
5872.103, 900.8468
5874.031, 901.3054
5875.959, 896.5656
5877.888, 904.1759
5879.816, 895.7674
5881.745, 893.2703
5883.673, 894.4305
5885.602, 882.3961
5887.530, 886.9206
5889.459, 887.4823
5891.387, 886.8732
5893.316, 888.2948
5895.244, 884.5687
5897.173, 882.8983
5899.101, 884.5018
5901.030, 885.3815
5902.958, 880.5563
5904.887, 881.4691
5906.815, 882.8623
5908.744, 880.4421
5910.672, 877.0278
5912.601, 884.9681
5914.529, 877.0868
5916.458, 873.9318
5918.386, 877.7982
5920.314, 882.0949
5922.243, 876.0159
5924.171, 876.7300
5926.100, 876.5510
5928.028, 874.0856
5929.957, 875.6908
5931.885, 873.1294
5933.813, 875.3007
5935.742, 870.4141
5937.670, 867.4028
5939.599, 867.9629
5941.527, 866.8784
5943.456, 863.7682
5945.384, 861.9684
5947.313, 864.5164
5949.241, 864.3004
5951.170, 861.5323
5953.098, 856.3107
5955.027, 852.2864
5956.955, 851.7323
5958.884, 851.4017
5960.812, 852.1984
5962.741, 852.9902
5964.669, 854.2507
5966.598, 854.4533
5968.526, 856.4539
5970.455, 854.2589
5972.383, 852.4980
5974.312, 858.3082
5976.240, 853.3779
5978.168, 852.9772
5980.097, 848.5472
5982.025, 846.1307
5983.954, 845.7124
5985.882, 842.3718
5987.811, 842.8830
5989.739, 838.9613
5991.667, 844.4875
5993.596, 844.8817
5995.524, 848.2209
5997.453, 842.7666
5999.381, 838.4403
6001.310, 839.1919
6003.238, 833.9882
6005.167, 836.9865
6007.095, 832.6254
6009.024, 828.3063
6010.952, 831.3707
6012.881, 835.1384
6014.809, 835.1099
6016.738, 833.8537
6018.666, 832.8365
6020.595, 831.6981
6022.523, 826.9508
6024.452, 824.3011
6026.380, 824.3495
6028.309, 825.2853
6030.237, 825.2310
6032.166, 823.0848
6034.094, 824.3141
6036.022, 819.2770
6037.951, 814.1703
6039.879, 818.0753
6041.808, 817.7855
6043.736, 812.2098
6045.665, 811.1774
6047.593, 814.3427
6049.521, 815.9981
6051.450, 812.0336
6053.378, 807.6080
6055.307, 802.9838
6057.235, 803.1756
6059.164, 811.9738
6061.092, 808.2741
6063.021, 814.1158
6064.949, 810.3511
6066.878, 799.9554
6068.806, 796.8662
6070.735, 800.8180
6072.663, 799.9590
6074.592, 796.9166
6076.520, 796.0569
6078.449, 793.3556
6080.377, 789.9012
6082.306, 789.3319
6084.234, 788.8989
6086.163, 789.4926
6088.091, 787.7513
6090.020, 785.9042
6091.948, 785.4342
6093.876, 781.5073
6095.805, 781.5233
6097.733, 781.6036
6099.662, 775.9350
6101.590, 779.6332
6103.519, 779.7943
6105.447, 775.7744
6107.375, 771.9701
6109.304, 774.7875
6111.232, 770.6595
6113.161, 766.6969
6115.089, 765.4531
6117.018, 763.4907
6118.946, 763.7350
6120.875, 763.7151
6122.803, 764.8297
6124.732, 768.3446
6126.660, 766.8450
6128.589, 765.8929
6130.517, 772.1805
6132.446, 773.9438
6134.374, 761.9727
6136.303, 754.6678
6138.231, 767.2249
6140.160, 751.8960
6142.088, 759.8468
6144.017, 760.8171
6145.945, 754.3613
6147.874, 750.2148
6149.802, 754.4246
6151.730, 750.0552
6153.659, 752.3676
6155.587, 755.9222
6157.516, 754.4581
6159.444, 754.3954
6161.373, 753.5840
6163.301, 749.5580
6165.229, 748.2964
6167.158, 743.9882
6169.086, 737.8805
6171.015, 737.6215
6172.943, 739.3544
6174.872, 741.8898
6176.800, 740.8602
6178.729, 737.2867
6180.657, 739.7673
6182.586, 735.8424
6184.514, 738.1462
6186.443, 732.3541
6188.371, 731.6681
6190.300, 733.6487
6192.228, 722.6328
6194.157, 727.7368
6196.085, 722.0771
6198.014, 718.2758
6199.942, 723.4112
6201.871, 717.9291
6203.799, 720.4413
6205.728, 719.7135
6207.656, 719.8670
6209.584, 719.9872
6211.513, 717.6146
6213.441, 717.1422
6215.370, 716.8005
6217.298, 714.5472
6219.227, 714.9926
6221.155, 714.6420
6223.083, 712.4816
6225.012, 710.1359
6226.940, 707.7208
6228.869, 706.2623
6230.797, 705.5275
6232.726, 703.9955
6234.654, 703.7856
6236.583, 702.3469
6238.511, 703.3180
6240.440, 705.8458
6242.368, 705.6833
6244.297, 705.4984
6246.225, 698.6792
6248.154, 702.8882
6250.082, 698.5789
6252.011, 695.7075
6253.939, 698.4296
6255.868, 699.4320
6257.796, 697.7030
6259.725, 694.3791
6261.653, 687.5632
6263.582, 686.4612
6265.510, 690.5797
6267.438, 683.3730
6269.367, 687.5338
6271.295, 680.6454
6273.224, 677.9119
6275.152, 680.1337
6277.081, 681.7953
6279.009, 684.6687
6280.938, 682.8004
6282.866, 684.1312
6284.794, 679.8224
6286.723, 683.1726
6288.651, 682.5580
6290.580, 680.9124
6292.508, 675.9841
6294.437, 675.7963
6296.365, 672.9603
6298.294, 671.8582
6300.222, 670.9140
6302.151, 667.4833
6304.079, 668.7921
6306.008, 662.9980
6307.936, 663.9015
6309.865, 667.2044
6311.793, 664.0582
6313.722, 665.4445
6315.650, 665.0648
6317.579, 663.5370
6319.507, 662.6119
6321.436, 661.7457
6323.364, 659.3996
6325.292, 655.1865
6327.221, 656.1384
6329.149, 657.4926
6331.078, 661.3750
6333.006, 659.6243
6334.935, 651.4838
6336.863, 655.0612
6338.792, 648.3045
6340.720, 647.1142
6342.648, 645.6056
6344.577, 644.4552
6346.505, 645.4335
6348.434, 646.1824
6350.362, 652.3577
6352.291, 642.4857
6354.219, 637.6749
6356.148, 638.7574
6358.076, 641.2570
6360.005, 643.9802
6361.933, 634.5667
6363.862, 635.3602
6365.790, 635.5206
6367.719, 638.9325
6369.647, 640.5721
6371.576, 635.9305
6373.504, 641.3277
6375.433, 632.8237
6377.361, 632.2631
6379.290, 629.3947
6381.218, 626.4215
6383.146, 627.2084
6385.075, 626.3800
6387.003, 629.5568
6388.932, 627.4222
6390.860, 625.3408
6392.789, 628.0477
6394.717, 627.2741
6396.646, 625.5057
6398.574, 617.9030
6400.502, 622.6582
6402.431, 617.3436
6404.359, 618.2239
6406.288, 616.8640
6408.216, 607.9733
6410.145, 609.5993
6412.073, 622.3544
6414.002, 619.8248
6415.930, 614.7621
6417.859, 607.5191
6419.787, 603.5230
6421.716, 607.3010
6423.644, 606.5295
6425.573, 606.2649
6427.501, 609.4171
6429.430, 607.9772
6431.358, 605.8339
6433.287, 604.5990
6435.215, 600.6962
6437.144, 600.9323
6439.072, 595.8747
6441.000, 598.4122
6442.929, 597.4719
6444.857, 598.0523
6446.786, 600.6980
6448.714, 589.8173
6450.643, 597.8300
6452.571, 597.0159
6454.500, 588.4305
6456.428, 589.4125
6458.356, 593.7295
6460.285, 593.5472
6462.213, 598.3661
6464.142, 596.6179
6466.070, 591.0933
6467.999, 592.9044
6469.927, 587.2281
6471.856, 583.9061
6473.784, 586.6044
6475.713, 579.3165
6477.641, 582.2020
6479.570, 583.4504
6481.498, 580.9720
6483.427, 582.6662
6485.355, 581.7930
6487.284, 573.5767
6489.212, 569.7655
6491.141, 572.4220
6493.069, 573.6893
6494.998, 570.0140
6496.926, 573.0040
6498.854, 575.9863
6500.783, 573.1551
6502.711, 572.5079
6504.640, 568.4833
6506.568, 567.2161
6508.497, 570.8186
6510.425, 565.1395
6512.354, 565.2028
6514.282, 567.8771
6516.210, 564.8039
6518.139, 572.3659
6520.067, 562.5597
6521.996, 559.5292
6523.924, 558.6105
6525.853, 562.0037
6527.781, 564.2493
6529.710, 560.5464
6531.638, 561.8490
6533.567, 556.3958
6535.495, 560.5823
6537.424, 560.6440
6539.352, 554.8422
6541.281, 548.0564
6543.209, 546.1271
6545.138, 551.4531
6547.066, 549.0814
6548.995, 548.3471
6550.923, 543.3703
6552.852, 544.6840
6554.780, 546.8246
6556.708, 545.7640
6558.637, 552.8872
6560.565, 555.0390
6562.494, 549.5551
6564.422, 552.0228
6566.351, 545.1619
6568.279, 548.1993
6570.208, 543.1354
6572.136, 541.2326
6574.064, 547.6405
6575.993, 543.9371
6577.921, 539.5371
6579.850, 540.8402
6581.778, 535.0129
6583.707, 534.6150
6585.635, 533.1309
6587.564, 530.4739
6589.492, 537.0193
6591.421, 536.2393
6593.349, 536.3027
6595.278, 536.9738
6597.206, 534.5448
6599.135, 532.1400
6601.063, 531.1013
6602.992, 523.8127
6604.920, 523.8768
6606.849, 527.0514
6608.777, 523.4176
6610.706, 529.5560
6612.634, 526.5739
6614.563, 518.4951
6616.491, 524.5516
6618.419, 522.2200
6620.348, 523.4628
6622.276, 523.0375
6624.205, 523.8636
6626.133, 519.6248
6628.062, 518.1580
6629.990, 517.5483
##END=



