##NAMES=Cylindrite
##RRUFFID=R050175
##IDEAL CHEMISTRY=FePb_3_Sn_4_Sb_2_S_14_
##LOCALITY=Poopó Province, Oruro Department, Bolivia
##OWNER=RRUFF
##SOURCE=Marcus Origlieri
##DESCRIPTION=Gray tubular aggregates
##STATUS=The identification of this mineral has been confirmed only by chemical analysis
##URL=https://www.rruff.net/odr/rruff_sample/R050175
##MEASURED CHEMISTRY=Pb_3.05_Sn_4.25_Fe_0.84_Sb_1.87_S_14.00_
##DIFFRACTION SAMPLE DESCRIPTION=Powder
##FILETYPE=Raman RAW
##RAMAN WAVELENGTH=780

88.03418, 75358.69
89.96265, 73742.91
91.89111, 74971.84
93.81958, 78285.48
95.74805, 81247.18
97.67651, 81158.05
99.60498, 77063.54
101.5334, 72681.21
103.4619, 68809.27
105.3904, 65644.34
107.3188, 63045.71
109.2473, 60924.27
111.1758, 59214.81
113.1042, 57811.84
115.0327, 56496.88
116.9612, 55439.13
118.8896, 54744.05
120.8181, 54290.78
122.7466, 53928.62
124.6750, 53636.43
126.6035, 53370.77
128.5320, 53061.99
130.4604, 52810.11
132.3889, 52673.38
134.3174, 52605.28
136.2458, 52550.47
138.1743, 52514.64
140.1028, 52450.09
142.0313, 52311.96
143.9597, 52192.18
145.8882, 52128.70
147.8167, 52097.32
149.7451, 52073.05
151.6736, 52055.57
153.6021, 52035.32
155.5305, 51998.61
157.4590, 51976.99
159.3875, 51983.79
161.3159, 52006.91
163.2444, 52050.49
165.1729, 52114.57
167.1013, 52114.31
169.0298, 52014.65
170.9583, 51970.25
172.8867, 52110.13
174.8152, 52225.86
176.7437, 52134.71
178.6721, 51897.50
180.6006, 51803.64
182.5291, 51864.38
184.4575, 51921.54
186.3860, 51954.54
188.3145, 51962.47
190.2429, 51935.85
192.1714, 51891.40
194.0999, 51857.03
196.0283, 51834.09
197.9568, 51821.54
199.8853, 51817.13
201.8137, 51832.04
203.7422, 51899.55
205.6707, 51958.81
207.5991, 51926.37
209.5276, 51828.70
211.4561, 51785.48
213.3845, 51806.26
215.3130, 51853.27
217.2415, 51955.61
219.1699, 52037.82
221.0984, 52059.89
223.0269, 52038.09
224.9553, 51991.38
226.8838, 51919.95
228.8123, 51889.18
230.7407, 51943.49
232.6692, 51996.09
234.5977, 52043.65
236.5261, 52071.99
238.4546, 52059.15
240.3831, 52016.80
242.3115, 51973.22
244.2400, 51919.62
246.1685, 51893.77
248.0969, 51922.18
250.0254, 51948.13
251.9539, 51945.95
253.8823, 51925.98
255.8108, 51897.95
257.7393, 51860.88
259.6677, 51830.17
261.5962, 51824.78
263.5247, 51798.39
265.4531, 51727.19
267.3816, 51655.39
269.3101, 51616.18
271.2385, 51594.27
273.1670, 51558.08
275.0955, 51505.39
277.0239, 51445.05
278.9524, 51376.94
280.8809, 51301.33
282.8093, 51180.68
284.7378, 51094.97
286.6663, 51141.99
288.5947, 51273.58
290.5232, 51292.95
292.4517, 51178.88
294.3801, 51066.61
296.3086, 50943.63
298.2371, 50869.61
300.1655, 50908.87
302.0940, 50971.91
304.0225, 50975.39
305.9509, 50936.23
307.8794, 50946.26
309.8079, 51008.35
311.7363, 51057.46
313.6648, 51087.74
315.5933, 51089.11
317.5217, 51027.20
319.4502, 50963.62
321.3787, 50973.00
323.3071, 51031.45
325.2356, 51040.96
327.1641, 50998.64
329.0925, 50956.29
331.0210, 50927.67
332.9495, 50894.95
334.8779, 50843.39
336.8064, 50795.49
338.7349, 50765.11
340.6633, 50757.65
342.5918, 50800.52
344.5203, 50903.46
346.4487, 50939.21
348.3772, 50824.67
350.3057, 50727.25
352.2341, 50681.73
354.1626, 50658.73
356.0911, 50640.13
358.0195, 50626.18
359.9480, 50626.25
361.8765, 50643.65
363.8049, 50624.50
365.7334, 50538.75
367.6619, 50456.51
369.5903, 50365.20
371.5188, 50303.22
373.4473, 50323.95
375.3757, 50368.23
377.3042, 50349.41
379.2327, 50265.74
381.1611, 50235.75
383.0896, 50309.16
385.0181, 50346.43
386.9465, 50317.03
388.8750, 50292.89
390.8035, 50321.48
392.7319, 50353.82
394.6604, 50334.51
396.5889, 50282.49
398.5173, 50273.45
400.4458, 50314.96
402.3743, 50371.13
404.3027, 50456.84
406.2312, 50511.41
408.1597, 50497.74
410.0881, 50470.57
412.0166, 50466.88
413.9451, 50468.03
415.8735, 50446.17
417.8020, 50403.61
419.7305, 50350.77
421.6589, 50281.76
423.5874, 50261.88
425.5159, 50336.63
427.4443, 50390.54
429.3728, 50365.41
431.3013, 50320.00
433.2297, 50287.84
435.1582, 50267.19
437.0867, 50260.97
439.0151, 50265.54
440.9436, 50245.59
442.8721, 50186.30
444.8005, 50166.29
446.7290, 50260.15
448.6575, 50313.63
450.5859, 50239.59
452.5144, 50143.91
454.4429, 50121.02
456.3713, 50140.84
458.2998, 50147.91
460.2283, 50142.79
462.1567, 50114.05
464.0852, 50044.39
466.0137, 50010.56
467.9421, 50055.00
469.8706, 50092.45
471.7991, 50081.29
473.7275, 50065.46
475.6560, 50094.69
477.5845, 50131.84
479.5129, 50111.21
481.4414, 50036.19
483.3699, 49981.78
485.2983, 49944.34
487.2268, 49948.04
489.1553, 50047.25
491.0837, 50109.21
493.0122, 50078.40
494.9407, 50024.84
496.8691, 49978.20
498.7976, 49944.01
500.7261, 49933.55
502.6545, 49943.14
504.5830, 49955.03
506.5115, 49979.57
508.4399, 49967.19
510.3684, 49910.74
512.2969, 49842.81
514.2253, 49755.66
516.1538, 49688.97
518.0823, 49671.91
520.0107, 49678.93
521.9392, 49706.72
523.8677, 49736.48
525.7961, 49713.54
527.7246, 49635.85
529.6531, 49590.82
531.5815, 49578.27
533.5100, 49584.11
535.4385, 49624.47
537.3669, 49634.71
539.2954, 49582.86
541.2239, 49510.28
543.1523, 49415.09
545.0808, 49332.54
547.0093, 49309.34
548.9377, 49328.00
550.8662, 49336.55
552.7947, 49336.41
554.7231, 49346.18
556.6516, 49365.55
558.5801, 49388.89
560.5085, 49426.96
562.4370, 49439.11
564.3655, 49383.34
566.2939, 49342.52
568.2224, 49374.32
570.1509, 49427.82
572.0793, 49447.95
574.0078, 49452.72
575.9363, 49486.27
577.8647, 49538.18
579.7932, 49545.82
581.7217, 49493.55
583.6501, 49468.11
585.5786, 49509.64
587.5071, 49526.07
589.4355, 49483.00
591.3640, 49447.24
593.2925, 49452.97
595.2209, 49466.99
597.1494, 49463.25
599.0779, 49453.44
601.0063, 49459.43
602.9348, 49471.89
604.8633, 49448.43
606.7917, 49380.62
608.7202, 49348.59
610.6487, 49383.19
612.5771, 49396.82
614.5056, 49398.31
616.4341, 49361.14
618.3625, 49232.55
620.2910, 49136.88
622.2195, 49164.91
624.1479, 49216.55
626.0764, 49218.43
628.0049, 49193.63
629.9333, 49174.32
631.8618, 49157.66
633.7903, 49134.64
635.7188, 49105.33
637.6472, 49069.34
639.5757, 49023.13
641.5042, 49007.57
643.4326, 49039.77
645.3611, 49067.16
647.2896, 49082.07
649.2180, 49079.51
651.1465, 49041.55
653.0750, 49004.79
655.0034, 49004.43
656.9319, 49002.07
658.8604, 48922.97
660.7888, 48936.70
662.7173, 48938.82
664.6458, 48917.39
666.5742, 48968.79
668.5027, 48980.07
670.4312, 48967.64
672.3596, 48925.43
674.2881, 48925.91
676.2166, 49022.56
678.1450, 49078.15
680.0735, 49042.13
682.0020, 48992.70
683.9304, 48934.42
685.8589, 48894.75
687.7874, 48898.43
689.7158, 48921.30
691.6443, 48955.35
693.5728, 48979.93
695.5012, 48951.69
697.4297, 48890.96
699.3582, 48870.02
701.2866, 48887.11
703.2151, 48843.09
705.1436, 48702.85
707.0720, 48627.47
709.0005, 48670.81
710.9290, 48704.45
712.8574, 48739.11
714.7859, 48742.19
716.7144, 48694.67
718.6428, 48634.90
720.5713, 48560.75
722.4998, 48503.01
724.4282, 48485.34
726.3567, 48489.41
728.2852, 48514.82
730.2136, 48537.91
732.1421, 48514.94
734.0706, 48457.63
735.9990, 48402.21
737.9275, 48351.04
739.8560, 48343.55
741.7844, 48393.99
743.7129, 48407.44
745.6414, 48377.66
747.5698, 48345.12
749.4983, 48306.61
751.4268, 48289.76
753.3552, 48305.65
755.2837, 48324.15
757.2122, 48331.99
759.1406, 48340.31
761.0691, 48362.03
762.9976, 48376.66
764.9260, 48361.71
766.8545, 48347.58
768.7830, 48372.32
770.7114, 48409.47
772.6399, 48430.36
774.5684, 48430.51
776.4968, 48371.59
778.4253, 48405.56
780.3538, 48301.11
782.2822, 48398.25
784.2107, 48421.15
786.1392, 48362.30
788.0676, 48286.26
789.9961, 48189.42
791.9246, 48150.69
793.8530, 48206.89
795.7815, 48252.59
797.7100, 48263.44
799.6384, 48285.26
801.5669, 48341.10
803.4954, 48389.35
805.4238, 48422.62
807.3523, 48438.43
809.2808, 48414.16
811.2092, 48395.09
813.1377, 48420.89
815.0662, 48450.82
816.9946, 48431.86
818.9231, 48412.46
820.8516, 48458.41
822.7800, 48527.71
824.7085, 48563.75
826.6370, 48566.95
828.5654, 48530.33
830.4939, 48462.16
832.4224, 48407.54
834.3508, 48366.96
836.2793, 48315.55
838.2078, 48303.34
840.1362, 48234.71
842.0647, 48290.08
843.9932, 48318.31
845.9216, 48320.36
847.8501, 48284.59
849.7786, 48188.36
851.7070, 48139.32
853.6355, 48174.72
855.5640, 48169.94
857.4924, 48056.62
859.4209, 48006.13
861.3494, 48121.89
863.2778, 48212.30
865.2063, 48177.06
867.1348, 48142.49
869.0632, 48195.79
870.9917, 48222.14
872.9202, 48120.06
874.8486, 48018.00
876.7771, 48006.06
878.7056, 48030.21
880.6340, 48066.29
882.5625, 48088.15
884.4910, 48051.21
886.4194, 47995.45
888.3479, 47982.48
890.2764, 47988.42
892.2048, 47983.97
894.1333, 47960.93
896.0618, 47874.41
897.9902, 47763.16
899.9187, 47724.31
901.8472, 47744.21
903.7756, 47786.83
905.7041, 47842.71
907.6326, 47872.43
909.5610, 47876.55
911.4895, 47887.83
913.4180, 47906.97
915.3464, 47906.31
917.2749, 47880.67
919.2034, 47881.60
921.1318, 47871.71
923.0603, 47853.59
924.9888, 47867.06
926.9172, 47833.08
928.8457, 47845.75
930.7742, 47860.98
932.7026, 47885.57
934.6311, 47897.95
936.5596, 47882.91
938.4880, 47891.08
940.4165, 47958.48
942.3450, 47961.79
944.2734, 47838.57
946.2019, 47759.64
948.1304, 47787.45
950.0588, 47798.99
951.9873, 47745.80
953.9158, 47713.26
955.8442, 47737.14
957.7727, 47769.75
959.7012, 47807.31
961.6296, 47821.30
963.5581, 47803.45
965.4866, 47752.60
967.4150, 47612.14
969.3435, 47535.41
971.2720, 47653.42
973.2004, 47756.63
975.1289, 47718.37
977.0574, 47689.58
978.9858, 47766.60
980.9143, 47829.38
982.8428, 47797.13
984.7712, 47750.65
986.6997, 47734.21
988.6282, 47726.89
990.5566, 47732.36
992.4851, 47728.15
994.4136, 47690.55
996.3420, 47653.74
998.2705, 47640.89
1000.199, 47638.39
1002.127, 47623.47
1004.056, 47626.04
1005.984, 47686.45
1007.913, 47752.00
1009.841, 47802.27
1011.770, 47813.05
1013.698, 47710.73
1015.627, 47626.23
1017.555, 47705.79
1019.484, 47809.63
1021.412, 47812.23
1023.341, 47790.94
1025.269, 47811.30
1027.198, 47835.93
1029.126, 47829.79
1031.054, 47817.12
1032.983, 47824.74
1034.911, 47828.75
1036.840, 47796.98
1038.768, 47771.55
1040.697, 47800.86
1042.625, 47836.97
1044.554, 47853.92
1046.482, 47848.15
1048.411, 47803.23
1050.339, 47750.45
1052.268, 47678.51
1054.196, 47650.62
1056.125, 47746.75
1058.053, 47859.29
1059.981, 47939.68
1061.910, 47971.44
1063.838, 47913.77
1065.767, 47841.26
1067.695, 47791.82
1069.624, 47762.26
1071.552, 47761.24
1073.481, 47767.98
1075.409, 47789.09
1077.338, 47794.36
1079.266, 47740.19
1081.195, 47704.00
1083.123, 47743.28
1085.052, 47781.02
1086.980, 47798.56
1088.908, 47771.86
1090.837, 47627.70
1092.765, 47532.08
1094.694, 47580.99
1096.622, 47639.66
1098.551, 47674.88
1100.479, 47694.04
1102.408, 47702.50
1104.336, 47693.80
1106.265, 47651.79
1108.193, 47621.52
1110.122, 47594.41
1112.050, 47610.66
1113.979, 47726.84
1115.907, 47792.94
1117.835, 47747.42
1119.764, 47738.76
1121.692, 47789.97
1123.621, 47848.14
1125.549, 47928.91
1127.478, 47977.69
1129.406, 47972.80
1131.335, 47977.65
1133.263, 47992.65
1135.192, 48017.64
1137.120, 47997.64
1139.049, 48050.46
1140.977, 47958.05
1142.906, 47895.36
1144.834, 47861.10
1146.762, 47871.29
1148.691, 47927.80
1150.619, 47956.54
1152.548, 47959.59
1154.476, 47966.56
1156.405, 47979.54
1158.333, 47978.06
1160.262, 47972.72
1162.190, 48020.01
1164.119, 48091.52
1166.047, 48117.20
1167.976, 48114.11
1169.904, 48097.65
1171.833, 48083.62
1173.761, 48117.23
1175.689, 48106.39
1177.618, 48147.21
1179.546, 48124.34
1181.475, 48144.36
1183.403, 48158.50
1185.332, 48113.82
1187.260, 48078.63
1189.189, 48117.36
1191.117, 48136.95
1193.046, 48076.14
1194.974, 48022.74
1196.903, 47999.59
1198.831, 48003.48
1200.760, 47986.34
1202.688, 47982.78
1204.616, 48005.95
1206.545, 47982.54
1208.473, 48016.00
1210.402, 48032.45
1212.330, 48021.53
1214.259, 48036.21
1216.187, 48023.40
1218.116, 48069.67
1220.044, 47997.39
1221.973, 47947.54
1223.901, 47929.95
1225.830, 47984.09
1227.758, 48072.53
1229.687, 48092.08
1231.615, 48079.86
1233.543, 48096.58
1235.472, 48123.13
1237.400, 48146.14
1239.329, 48163.48
1241.257, 48178.25
1243.186, 48189.61
1245.114, 48177.30
1247.043, 48159.23
1248.971, 48143.64
1250.900, 48175.70
1252.828, 48289.00
1254.757, 48367.04
1256.685, 48383.71
1258.614, 48371.68
1260.542, 48327.82
1262.470, 48324.21
1264.399, 48369.38
1266.327, 48404.79
1268.256, 48428.65
1270.184, 48473.51
1272.113, 48502.72
1274.041, 48554.64
1275.970, 48570.53
1277.898, 48602.01
1279.827, 48636.06
1281.755, 48642.25
1283.684, 48632.37
1285.612, 48634.71
1287.541, 48657.51
1289.469, 48693.16
1291.397, 48735.60
1293.326, 48802.33
1295.254, 48861.48
1297.183, 48913.48
1299.111, 48920.77
1301.040, 48870.03
1302.968, 48830.63
1304.897, 48785.76
1306.825, 48809.61
1308.754, 48811.27
1310.682, 48831.32
1312.611, 48879.88
1314.539, 48887.85
1316.468, 48933.66
1318.396, 48937.05
1320.324, 48935.55
1322.253, 48964.05
1324.181, 48989.64
1326.110, 49011.62
1328.038, 49007.48
1329.967, 48923.94
1331.895, 48854.79
1333.824, 48850.64
1335.752, 48892.09
1337.681, 48996.19
1339.609, 49038.08
1341.538, 48985.88
1343.466, 48963.59
1345.395, 48987.77
1347.323, 48986.34
1349.251, 48949.86
1351.180, 48958.34
1353.108, 49007.74
1355.037, 49052.35
1356.965, 49087.60
1358.894, 49111.24
1360.822, 49133.65
1362.751, 49177.55
1364.679, 49206.16
1366.608, 49180.08
1368.536, 49162.70
1370.465, 49187.72
1372.393, 49205.68
1374.322, 49208.64
1376.250, 49179.63
1378.178, 49106.17
1380.107, 49101.52
1382.035, 49174.27
1383.964, 49243.59
1385.892, 49300.56
1387.821, 49380.85
1389.749, 49449.15
1391.678, 49438.00
1393.606, 49418.80
1395.535, 49425.14
1397.463, 49429.24
1399.392, 49453.01
1401.320, 49477.56
1403.249, 49489.96
1405.177, 49506.50
1407.105, 49523.02
1409.034, 49547.02
1410.962, 49573.86
1412.891, 49579.82
1414.819, 49575.28
1416.748, 49539.23
1418.676, 49516.40
1420.605, 49611.62
1422.533, 49718.43
1424.462, 49735.93
1426.390, 49720.39
1428.319, 49722.78
1430.247, 49736.24
1432.176, 49741.87
1434.104, 49750.63
1436.032, 49751.81
1437.961, 49769.40
1439.889, 49808.32
1441.818, 49852.90
1443.746, 49891.64
1445.675, 49930.97
1447.603, 49971.91
1449.532, 49974.28
1451.460, 49974.20
1453.389, 50018.94
1455.317, 50006.39
1457.246, 50002.79
1459.174, 49988.48
1461.103, 49954.29
1463.031, 49960.71
1464.959, 49902.86
1466.888, 49956.95
1468.816, 50032.28
1470.745, 49971.54
1472.673, 49933.91
1474.602, 50039.98
1476.530, 50122.85
1478.459, 50153.03
1480.387, 50164.99
1482.316, 50141.09
1484.244, 50117.27
1486.173, 50100.89
1488.101, 50078.01
1490.030, 50056.63
1491.958, 50040.03
1493.886, 50043.95
1495.815, 50093.69
1497.743, 50133.94
1499.672, 50158.63
1501.600, 50154.57
1503.529, 50176.43
1505.457, 50202.84
1507.386, 50181.09
1509.314, 50254.34
1511.243, 50247.99
1513.171, 50251.15
1515.100, 50249.31
1517.028, 50189.65
1518.957, 50148.93
1520.885, 50176.50
1522.813, 50224.74
1524.742, 50272.85
1526.670, 50310.87
1528.599, 50349.67
1530.527, 50357.07
1532.456, 50384.11
1534.384, 50349.80
1536.313, 50331.88
1538.241, 50309.13
1540.170, 50296.36
1542.098, 50363.00
1544.027, 50412.21
1545.955, 50386.86
1547.884, 50381.60
1549.812, 50433.47
1551.740, 50492.71
1553.669, 50525.14
1555.597, 50537.64
1557.526, 50558.31
1559.454, 50528.74
1561.383, 50481.78
1563.311, 50569.12
1565.240, 50631.23
1567.168, 50570.17
1569.097, 50548.27
1571.025, 50594.45
1572.954, 50573.59
1574.882, 50509.88
1576.811, 50533.92
1578.739, 50570.42
1580.667, 50524.09
1582.596, 50487.00
1584.524, 50512.93
1586.453, 50542.64
1588.381, 50570.51
1590.310, 50527.77
1592.238, 50600.84
1594.167, 50508.82
1596.095, 50669.86
1598.024, 50738.06
1599.952, 50698.71
1601.881, 50546.75
1603.809, 50465.90
1605.738, 50497.11
1607.666, 50490.30
1609.594, 50477.93
1611.523, 50415.58
1613.451, 50337.61
1615.380, 50417.47
1617.308, 50503.79
1619.237, 50503.43
1621.165, 50474.83
1623.094, 50399.06
1625.022, 50360.27
1626.951, 50390.43
1628.879, 50419.32
1630.808, 50433.23
1632.736, 50373.27
1634.665, 50306.48
1636.593, 50340.97
1638.521, 50388.16
1640.450, 50423.69
1642.378, 50414.75
1644.307, 50351.64
1646.235, 50313.91
1648.164, 50309.18
1650.092, 50270.77
1652.021, 50263.96
1653.949, 50418.60
1655.878, 50477.51
1657.806, 50408.64
1659.735, 50370.91
1661.663, 50325.67
1663.592, 50299.47
1665.520, 50327.29
1667.448, 50386.99
1669.377, 50425.66
1671.305, 50443.70
1673.234, 50443.64
1675.162, 50412.98
1677.091, 50386.27
1679.019, 50384.88
1680.948, 50471.77
1682.876, 50570.31
1684.805, 50650.24
1686.733, 50687.51
1688.662, 50702.16
1690.590, 50565.42
1692.519, 50638.02
1694.447, 50582.55
1696.375, 50476.48
1698.304, 50452.98
1700.232, 50442.68
1702.161, 50416.71
1704.089, 50390.58
1706.018, 50389.55
1707.946, 50384.80
1709.875, 50365.30
1711.803, 50422.23
1713.732, 50470.00
1715.660, 50371.05
1717.589, 50317.89
1719.517, 50351.63
1721.446, 50317.47
1723.374, 50247.80
1725.302, 50227.70
1727.231, 50218.45
1729.159, 50185.64
1731.088, 50197.68
1733.016, 50277.85
1734.945, 50233.29
1736.873, 50066.24
1738.802, 50023.33
1740.730, 50078.30
1742.659, 50129.78
1744.587, 50129.22
1746.516, 50038.75
1748.444, 49993.78
1750.373, 49998.67
1752.301, 50006.63
1754.229, 50033.05
1756.158, 50008.27
1758.086, 50011.11
1760.015, 49974.55
1761.943, 49985.64
1763.872, 49937.44
1765.800, 49922.52
1767.729, 49921.64
1769.657, 49913.89
1771.586, 49922.30
1773.514, 49979.23
1775.443, 50025.29
1777.371, 50043.65
1779.300, 50036.95
1781.228, 50025.51
1783.156, 50017.65
1785.085, 49978.11
1787.013, 49931.57
1788.942, 49907.18
1790.870, 49911.43
1792.799, 49911.10
1794.727, 49882.05
1796.656, 49869.60
1798.584, 49864.96
1800.513, 49824.63
1802.441, 49795.79
1804.370, 49792.23
1806.298, 49770.10
1808.227, 49759.32
1810.155, 49734.12
1812.083, 49711.98
1814.012, 49823.18
1815.940, 49887.52
1817.869, 49813.46
1819.797, 49717.41
1821.726, 49613.14
1823.654, 49557.61
1825.583, 49516.57
1827.511, 49484.73
1829.440, 49489.57
1831.368, 49464.97
1833.297, 49468.95
1835.225, 49448.51
1837.154, 49448.39
1839.082, 49417.04
1841.010, 49334.28
1842.939, 49264.30
1844.867, 49194.11
1846.796, 49117.02
1848.724, 49062.82
1850.653, 48964.45
1852.581, 48845.81
1854.510, 48799.73
1856.438, 48776.20
1858.367, 48763.91
1860.295, 48752.45
1862.224, 48716.05
1864.152, 48709.75
1866.081, 48708.68
1868.009, 48632.05
1869.938, 48627.59
1871.866, 48643.07
1873.794, 48528.05
1875.723, 48433.51
1877.651, 48423.51
1879.580, 48399.70
1881.508, 48318.13
1883.437, 48293.21
1885.365, 48283.35
1887.294, 48221.16
1889.222, 48163.77
1891.151, 48100.43
1893.079, 48073.78
1895.008, 48085.55
1896.936, 47951.11
1898.865, 47840.09
1900.793, 47959.03
1902.721, 47975.92
1904.650, 47861.63
1906.578, 47826.40
1908.507, 47829.70
1910.435, 47829.66
1912.364, 47831.48
1914.292, 47808.54
1916.221, 47808.34
1918.149, 47748.57
1920.078, 47704.63
1922.006, 47657.13
1923.935, 47653.55
1925.863, 47626.50
1927.792, 47541.15
1929.720, 47472.63
1931.648, 47485.18
1933.577, 47439.18
1935.505, 47505.60
1937.434, 47422.47
1939.362, 47426.93
1941.291, 47415.94
1943.219, 47301.32
1945.148, 47218.76
1947.076, 47196.65
1949.005, 47178.37
1950.933, 47155.99
1952.862, 47126.56
1954.790, 47122.14
1956.719, 47071.94
1958.647, 46994.86
1960.575, 46957.58
1962.504, 46866.98
1964.432, 46787.32
1966.361, 46775.64
1968.289, 46739.91
1970.218, 46703.29
1972.146, 46735.27
1974.075, 46753.02
1976.003, 46643.64
1977.932, 46565.95
1979.860, 46582.31
1981.789, 46533.90
1983.717, 46434.15
1985.646, 46398.86
1987.574, 46341.22
1989.502, 46232.48
1991.431, 46178.12
1993.359, 46142.57
1995.288, 46127.23
1997.216, 46119.90
1999.145, 46080.84
2001.073, 46016.93
2003.002, 45981.52
2004.930, 45919.68
2006.859, 45868.59
2008.787, 45800.89
2010.716, 45735.80
2012.644, 45675.44
2014.573, 45608.85
2016.501, 45546.12
2018.429, 45481.93
2020.358, 45420.53
2022.286, 45360.20
2024.215, 45300.78
2026.143, 45233.94
2028.072, 45169.07
2030.000, 45093.66
2031.929, 45070.02
2033.857, 44977.02
2035.786, 45029.40
2037.714, 45065.04
2039.643, 45055.25
2041.571, 44992.78
2043.500, 44856.60
2045.428, 44718.71
2047.356, 44717.47
2049.285, 44727.44
2051.213, 44704.07
2053.142, 44636.55
2055.070, 44541.29
2056.999, 44498.35
2058.927, 44419.71
2060.856, 44369.12
2062.784, 44315.09
2064.713, 44252.13
2066.641, 44210.82
2068.570, 44224.62
2070.498, 44134.02
2072.427, 44075.10
2074.355, 44060.04
2076.283, 44126.63
2078.212, 44128.04
2080.140, 44038.24
2082.069, 43937.84
2083.997, 43859.24
2085.926, 43786.52
2087.854, 43745.75
2089.783, 43724.33
2091.711, 43699.41
2093.640, 43666.92
2095.568, 43607.98
2097.497, 43527.94
2099.425, 43434.86
2101.354, 43350.68
2103.282, 43274.97
2105.210, 43199.71
2107.139, 43161.96
2109.067, 43148.69
2110.996, 43117.34
2112.924, 43058.69
2114.853, 42967.57
2116.781, 42869.77
2118.710, 42779.66
2120.638, 42710.47
2122.567, 42652.47
2124.495, 42605.25
2126.424, 42554.70
2128.352, 42556.09
2130.281, 42488.45
2132.209, 42436.70
2134.137, 42466.17
2136.066, 42403.96
2137.994, 42288.68
2139.923, 42304.99
2141.851, 42267.33
2143.780, 42142.05
2145.708, 42069.62
2147.637, 42006.42
2149.565, 41894.54
2151.494, 41785.32
2153.422, 41704.57
2155.351, 41753.21
2157.279, 41776.66
2159.208, 41667.86
2161.136, 41576.39
2163.064, 41483.39
2164.993, 41412.69
2166.921, 41386.46
2168.850, 41285.32
2170.778, 41293.66
2172.707, 41141.85
2174.635, 41103.18
2176.564, 41075.01
2178.492, 41032.04
2180.421, 40985.93
2182.349, 40901.13
2184.278, 40852.26
2186.206, 40779.70
2188.135, 40721.21
2190.063, 40657.09
2191.991, 40587.52
2193.920, 40566.12
2195.848, 40510.40
2197.777, 40444.79
2199.705, 40381.99
2201.634, 40349.34
2203.562, 40363.89
2205.491, 40336.86
2207.419, 40282.65
2209.348, 40211.57
2211.276, 40132.02
2213.205, 40056.56
2215.133, 40019.59
2217.062, 39976.76
2218.990, 39909.93
2220.918, 39902.46
2222.847, 39817.10
2224.775, 39766.58
2226.704, 39661.74
2228.632, 39612.56
2230.561, 39519.98
2232.489, 39437.46
2234.418, 39414.25
2236.346, 39377.80
2238.275, 39319.17
2240.203, 39275.32
2242.132, 39179.01
2244.060, 39146.97
2245.989, 39055.33
2247.917, 38959.22
2249.845, 38910.32
2251.774, 38837.30
2253.702, 38755.65
2255.631, 38707.16
2257.559, 38664.13
2259.488, 38622.07
2261.416, 38540.29
2263.345, 38467.31
2265.273, 38491.75
2267.202, 38491.36
2269.130, 38435.75
2271.059, 38307.40
2272.987, 38163.35
2274.916, 38008.32
2276.844, 38036.38
2278.772, 38082.42
2280.701, 37985.72
2282.629, 37906.30
2284.558, 37855.66
2286.486, 37830.78
2288.415, 37798.41
2290.343, 37744.07
2292.272, 37679.04
2294.200, 37619.59
2296.129, 37547.41
2298.057, 37473.55
2299.986, 37397.65
2301.914, 37316.66
2303.843, 37239.94
2305.771, 37161.97
2307.699, 37072.97
2309.628, 37011.36
2311.556, 36943.83
2313.485, 36872.29
2315.413, 36801.13
2317.342, 36721.86
2319.270, 36646.68
2321.199, 36559.07
2323.127, 36471.52
2325.056, 36389.71
2326.984, 36302.91
2328.913, 36209.58
2330.841, 36144.22
2332.770, 36072.66
2334.698, 35960.63
2336.626, 35951.80
2338.555, 35857.53
2340.483, 35795.04
2342.412, 35806.82
2344.340, 35748.28
2346.269, 35647.16
2348.197, 35606.36
2350.126, 35523.73
2352.054, 35454.83
2353.983, 35386.18
2355.911, 35319.68
2357.840, 35265.82
2359.768, 35230.42
2361.697, 35180.55
2363.625, 35096.00
2365.553, 35020.39
2367.482, 34944.20
2369.410, 34877.67
2371.339, 34814.49
2373.267, 34751.63
2375.196, 34699.71
2377.124, 34635.77
2379.053, 34581.00
2380.981, 34504.34
2382.910, 34447.21
2384.838, 34362.98
2386.767, 34279.33
2388.695, 34210.93
2390.624, 34147.87
2392.552, 34079.20
2394.480, 34014.22
2396.409, 33967.86
2398.337, 33894.59
2400.266, 33863.52
2402.194, 33830.96
2404.123, 33723.85
2406.051, 33666.33
2407.980, 33574.42
2409.908, 33483.39
2411.837, 33385.83
2413.765, 33281.94
2415.694, 33196.34
2417.622, 33196.37
2419.551, 33141.01
2421.479, 33066.39
2423.407, 33048.36
2425.336, 32940.93
2427.264, 32769.07
2429.193, 32676.18
2431.121, 32569.19
2433.050, 32428.21
2434.978, 32361.39
2436.907, 32337.23
2438.835, 32315.83
2440.764, 32195.73
2442.692, 32069.36
2444.621, 31991.67
2446.549, 31929.13
2448.478, 31879.74
2450.406, 31807.11
2452.334, 31724.06
2454.263, 31639.60
2456.191, 31583.74
2458.120, 31522.11
2460.048, 31453.23
2461.977, 31418.09
2463.905, 31344.71
2465.834, 31174.39
2467.762, 31089.30
2469.691, 31049.28
2471.619, 30990.94
2473.548, 30903.85
2475.476, 30800.11
2477.405, 30651.52
2479.333, 30573.33
2481.261, 30567.98
2483.190, 30573.97
2485.118, 30508.91
2487.047, 30406.91
2488.975, 30336.54
2490.904, 30248.58
2492.832, 30120.45
2494.761, 30039.51
2496.689, 29960.11
2498.618, 29847.21
2500.546, 29802.64
2502.475, 29722.61
2504.403, 29597.38
2506.332, 29443.91
2508.260, 29325.81
2510.188, 29335.43
2512.117, 29333.67
2514.045, 29278.13
2515.974, 29181.11
2517.902, 29122.84
2519.831, 29031.30
2521.759, 28916.31
2523.688, 28845.55
2525.616, 28788.96
2527.545, 28773.48
2529.473, 28713.91
2531.402, 28633.64
2533.330, 28558.97
2535.259, 28532.61
2537.187, 28546.48
2539.115, 28471.42
2541.044, 28373.18
2542.972, 28265.30
2544.901, 28191.87
2546.829, 28137.40
2548.758, 28024.63
2550.686, 27916.65
2552.615, 27855.51
2554.543, 27824.25
2556.472, 27753.84
2558.400, 27689.60
2560.329, 27609.03
2562.257, 27540.19
2564.186, 27468.04
2566.114, 27405.86
2568.042, 27319.69
2569.971, 27278.13
2571.899, 27197.96
2573.828, 27102.10
2575.756, 26994.62
2577.685, 26855.34
2579.613, 26846.15
2581.542, 26841.05
2583.470, 26681.84
2585.399, 26563.64
2587.327, 26473.60
2589.256, 26375.71
2591.184, 26294.25
2593.113, 26198.31
2595.041, 26081.58
2596.969, 26045.40
2598.898, 25986.94
2600.826, 25845.44
2602.755, 25757.81
2604.683, 25706.66
2606.612, 25696.95
2608.540, 25642.27
2610.469, 25578.79
2612.397, 25464.17
2614.326, 25362.77
2616.254, 25286.38
2618.183, 25185.43
2620.111, 25079.00
2622.040, 24955.14
2623.968, 24849.87
2625.896, 24786.79
2627.825, 24728.92
2629.753, 24668.34
2631.682, 24609.86
2633.610, 24555.21
2635.539, 24480.70
2637.467, 24436.91
2639.396, 24344.53
2641.324, 24260.11
2643.253, 24213.42
2645.181, 24151.78
2647.110, 24063.64
2649.038, 23964.01
2650.967, 23866.72
2652.895, 23808.74
2654.823, 23733.91
2656.752, 23621.30
2658.680, 23511.27
2660.609, 23429.97
2662.537, 23358.07
2664.466, 23267.86
2666.394, 23236.13
2668.323, 23193.75
2670.251, 23110.76
2672.180, 23033.36
2674.108, 22953.01
2676.037, 22863.48
2677.965, 22759.89
2679.894, 22652.83
2681.822, 22550.29
2683.750, 22473.72
2685.679, 22385.88
2687.607, 22323.14
2689.536, 22249.20
2691.464, 22160.94
2693.393, 22058.94
2695.321, 21977.03
2697.250, 21876.82
2699.178, 21791.51
2701.107, 21716.81
2703.035, 21624.16
2704.964, 21565.00
2706.892, 21492.68
2708.821, 21400.21
2710.749, 21355.27
2712.677, 21203.95
2714.606, 21131.98
2716.534, 21062.90
2718.463, 20934.21
2720.391, 20886.68
2722.320, 20795.83
2724.248, 20678.29
2726.177, 20603.45
2728.105, 20557.22
2730.034, 20538.46
2731.962, 20503.18
2733.891, 20404.05
2735.819, 20285.17
2737.748, 20221.19
2739.676, 20152.21
2741.604, 20129.22
2743.533, 20069.09
2745.461, 19994.05
2747.390, 19933.84
2749.318, 19829.01
2751.247, 19720.02
2753.175, 19669.46
2755.104, 19597.70
2757.032, 19534.62
2758.961, 19510.22
2760.889, 19460.78
2762.818, 19312.76
2764.746, 19165.81
2766.675, 19100.42
2768.603, 19066.97
2770.531, 18977.70
2772.460, 18914.55
2774.388, 18828.10
2776.317, 18687.60
2778.245, 18647.93
2780.174, 18667.88
2782.102, 18600.31
2784.031, 18476.09
2785.959, 18394.37
2787.888, 18337.69
2789.816, 18270.22
2791.745, 18184.94
2793.673, 18109.67
2795.602, 18008.12
2797.530, 17923.88
2799.458, 17818.93
2801.387, 17754.23
2803.315, 17720.98
2805.244, 17591.83
2807.172, 17506.65
2809.101, 17488.08
2811.029, 17372.28
2812.958, 17300.85
2814.886, 17261.70
2816.815, 17137.89
2818.743, 17084.05
2820.672, 17023.65
2822.600, 16874.39
2824.529, 16825.15
2826.457, 16781.05
2828.385, 16770.77
2830.314, 16697.68
2832.242, 16598.39
2834.171, 16487.77
2836.099, 16393.19
2838.028, 16329.54
2839.956, 16259.69
2841.885, 16207.21
2843.813, 16116.35
2845.742, 16017.65
2847.670, 15932.18
2849.599, 15866.70
2851.527, 15790.52
2853.456, 15752.96
2855.384, 15669.35
2857.313, 15619.44
2859.241, 15571.17
2861.169, 15496.50
2863.098, 15396.54
2865.026, 15311.54
2866.955, 15250.90
2868.883, 15197.40
2870.812, 15113.44
2872.740, 15024.94
2874.669, 14970.87
2876.597, 14858.58
2878.526, 14807.91
2880.454, 14717.00
2882.383, 14684.89
2884.311, 14606.47
2886.240, 14538.27
2888.168, 14454.12
2890.096, 14386.75
2892.025, 14307.17
2893.953, 14250.27
2895.882, 14193.87
2897.810, 14133.25
2899.739, 14072.09
2901.667, 14014.41
2903.596, 13943.21
2905.524, 13886.30
2907.453, 13816.43
2909.381, 13732.67
2911.310, 13678.63
2913.238, 13602.92
2915.167, 13533.49
2917.095, 13476.55
2919.023, 13425.46
2920.952, 13346.37
2922.880, 13285.19
2924.809, 13218.46
2926.737, 13152.23
2928.666, 13100.61
2930.594, 13054.56
2932.523, 13035.79
2934.451, 12983.12
2936.380, 12857.75
2938.308, 12749.15
2940.237, 12693.81
2942.165, 12625.26
2944.094, 12546.56
2946.022, 12497.06
2947.950, 12419.86
2949.879, 12359.15
2951.807, 12285.17
2953.736, 12245.00
2955.664, 12145.84
2957.593, 12081.82
2959.521, 12043.36
2961.450, 11963.77
2963.378, 11896.08
2965.307, 11845.98
2967.235, 11821.46
2969.164, 11761.77
2971.092, 11669.66
2973.021, 11617.14
2974.949, 11518.69
2976.877, 11452.29
2978.806, 11410.14
2980.734, 11327.85
2982.663, 11304.58
2984.591, 11296.80
2986.520, 11261.17
2988.448, 11130.75
2990.377, 11048.66
2992.305, 11018.76
2994.234, 10978.61
2996.162, 10929.92
2998.091, 10898.03
3000.019, 10874.86
3001.948, 10816.40
3003.876, 10738.88
3005.804, 10636.57
3007.733, 10535.50
3009.661, 10513.43
3011.590, 10480.97
3013.518, 10382.53
3015.447, 10320.76
3017.375, 10248.96
3019.304, 10186.10
3021.232, 10186.05
3023.161, 10142.13
3025.089, 10073.67
3027.018, 9998.128
3028.946, 9952.186
3030.875, 9895.631
3032.803, 9849.448
3034.731, 9805.273
3036.660, 9764.365
3038.588, 9721.179
3040.517, 9668.646
3042.445, 9594.006
3044.374, 9524.366
3046.302, 9452.534
3048.231, 9407.780
3050.159, 9369.171
3052.088, 9321.241
3054.016, 9282.924
3055.945, 9239.950
3057.873, 9196.338
3059.802, 9150.182
3061.730, 9100.530
3063.658, 9054.793
3065.587, 8984.752
3067.515, 8938.017
3069.444, 8888.684
3071.372, 8843.793
3073.301, 8804.919
3075.229, 8769.369
3077.158, 8746.824
3079.086, 8713.612
3081.015, 8624.948
3082.943, 8537.898
3084.872, 8510.109
3086.800, 8474.956
3088.729, 8413.913
3090.657, 8344.428
3092.585, 8293.540
3094.514, 8173.133
3096.442, 8107.789
3098.371, 8118.766
3100.299, 8045.800
3102.228, 8036.998
3104.156, 8020.054
3106.085, 7930.926
3108.013, 7888.633
3109.942, 7836.908
3111.870, 7781.960
3113.799, 7706.994
3115.727, 7651.965
3117.656, 7625.289
3119.584, 7585.667
3121.512, 7543.174
3123.441, 7503.830
3125.369, 7450.357
3127.298, 7432.054
3129.226, 7434.918
3131.155, 7398.877
3133.083, 7344.331
3135.012, 7271.178
3136.940, 7245.916
3138.869, 7208.533
3140.797, 7173.950
3142.726, 7161.801
3144.654, 7100.266
3146.583, 7025.731
3148.511, 6976.694
3150.439, 6948.563
3152.368, 6885.286
3154.296, 6856.221
3156.225, 6827.289
3158.153, 6745.176
3160.082, 6710.732
3162.010, 6642.037
3163.939, 6555.453
3165.867, 6496.665
3167.796, 6440.799
3169.724, 6415.034
3171.653, 6362.972
3173.581, 6329.038
3175.510, 6286.132
3177.438, 6260.592
3179.366, 6227.811
3181.295, 6173.601
3183.223, 6104.683
3185.152, 6049.510
3187.080, 6020.204
3189.009, 5951.672
3190.937, 5920.153
3192.866, 5855.091
3194.794, 5822.246
3196.723, 5809.208
3198.651, 5768.465
3200.580, 5727.064
3202.508, 5702.689
3204.437, 5690.670
3206.365, 5663.220
3208.293, 5612.262
3210.222, 5539.521
3212.150, 5452.198
3214.079, 5410.063
3216.007, 5347.558
3217.936, 5368.003
3219.864, 5262.346
3221.793, 5265.716
3223.721, 5248.370
3225.650, 5194.759
3227.578, 5138.216
3229.507, 5057.525
3231.435, 5011.314
3233.364, 4975.900
3235.292, 4935.225
3237.220, 4935.810
3239.149, 4913.724
3241.077, 4876.356
3243.006, 4843.441
3244.934, 4810.869
3246.863, 4772.923
3248.791, 4724.165
3250.720, 4702.473
3252.648, 4649.911
3254.577, 4649.842
3256.505, 4637.755
3258.434, 4608.751
3260.362, 4584.990
3262.291, 4574.550
3264.219, 4557.078
3266.147, 4553.042
3268.076, 4540.800
3270.004, 4534.439
3271.933, 4534.573
3273.861, 4519.214
3275.790, 4526.686
3277.718, 4497.803
3279.647, 4481.679
3281.575, 4476.744
3283.504, 4482.435
3285.432, 4451.541
3287.361, 4426.679
3289.289, 4397.143
3291.218, 4342.893
3293.146, 4301.725
3295.074, 4295.504
3297.003, 4271.677
3298.931, 4212.849
3300.860, 4205.221
3302.788, 4156.642
3304.717, 4126.080
3306.645, 4114.982
3308.574, 4061.031
3310.502, 4044.465
3312.431, 4018.869
3314.359, 3995.222
3316.288, 4018.131
3318.216, 3967.104
3320.145, 3997.733
3322.073, 4007.428
3324.001, 3928.141
3325.930, 3931.544
3327.858, 3909.382
3329.787, 3892.099
3331.715, 3891.697
3333.644, 3888.080
3335.572, 3858.014
3337.501, 3854.218
3339.429, 3860.790
3341.358, 3844.954
3343.286, 3808.215
3345.215, 3787.995
3347.143, 3772.111
3349.072, 3755.352
3351.000, 3736.883
3352.928, 3719.082
3354.857, 3699.603
3356.785, 3672.922
3358.714, 3649.382
3360.642, 3613.580
3362.571, 3605.904
3364.499, 3584.731
3366.428, 3521.120
3368.356, 3478.342
3370.285, 3428.877
3372.213, 3398.800
3374.142, 3387.547
3376.070, 3377.105
3377.999, 3329.625
3379.927, 3279.671
3381.855, 3273.718
3383.784, 3250.552
3385.712, 3266.375
3387.641, 3241.280
3389.569, 3218.133
3391.498, 3210.539
3393.426, 3247.476
3395.355, 3277.831
3397.283, 3235.292
3399.212, 3216.170
3401.140, 3251.991
3403.069, 3248.671
3404.997, 3241.584
3406.926, 3253.812
3408.854, 3252.660
3410.782, 3253.242
3412.711, 3249.140
3414.639, 3248.524
3416.568, 3232.350
3418.496, 3215.912
3420.425, 3198.250
3422.353, 3233.146
3424.282, 3226.133
3426.210, 3188.214
3428.139, 3153.019
3430.067, 3156.510
3431.996, 3091.038
3433.924, 3041.097
3435.853, 3016.992
3437.781, 2996.455
3439.709, 2963.757
3441.638, 2941.784
3443.566, 2926.879
3445.495, 2892.012
3447.423, 2881.153
3449.352, 2859.978
3451.280, 2854.572
3453.209, 2841.271
3455.137, 2817.383
3457.066, 2799.703
3458.994, 2742.161
3460.923, 2717.626
3462.851, 2720.942
3464.780, 2727.958
3466.708, 2712.275
3468.636, 2736.137
3470.565, 2751.210
3472.493, 2754.512
3474.422, 2750.564
3476.350, 2726.181
3478.279, 2730.711
3480.207, 2717.213
3482.136, 2722.386
3484.064, 2700.938
3485.993, 2696.242
3487.921, 2688.804
3489.850, 2696.391
3491.778, 2689.886
3493.707, 2646.790
3495.635, 2611.686
3497.563, 2620.999
3499.492, 2585.046
3501.420, 2526.591
3503.349, 2498.624
3505.277, 2493.169
3507.206, 2479.548
3509.134, 2429.014
3511.063, 2376.183
3512.991, 2356.457
3514.920, 2344.264
3516.848, 2302.459
3518.777, 2299.404
3520.705, 2279.494
3522.634, 2268.056
3524.562, 2264.887
3526.490, 2260.650
3528.419, 2277.036
3530.347, 2284.262
3532.276, 2275.633
3534.204, 2268.008
3536.133, 2261.750
3538.061, 2274.621
3539.990, 2257.567
3541.918, 2304.606
3543.847, 2321.103
3545.775, 2330.484
3547.704, 2353.915
3549.632, 2354.247
3551.561, 2332.269
3553.489, 2328.883
3555.417, 2330.206
3557.346, 2291.438
3559.274, 2325.773
3561.203, 2327.993
3563.131, 2300.244
3565.060, 2243.417
3566.988, 2192.329
3568.917, 2176.105
3570.845, 2166.018
3572.774, 2134.014
3574.702, 2116.916
3576.631, 2082.301
3578.559, 2063.040
3580.488, 2045.813
3582.416, 2017.367
3584.344, 1985.163
3586.273, 1969.720
3588.201, 1932.563
3590.130, 1918.614
3592.058, 1932.001
3593.987, 1938.293
3595.915, 1861.657
3597.844, 1829.028
3599.772, 1857.664
3601.701, 1878.965
3603.629, 1860.578
3605.558, 1869.253
3607.486, 1877.663
3609.415, 1901.498
3611.343, 1890.358
3613.271, 1869.219
3615.200, 1903.219
3617.128, 1910.413
3619.057, 1935.349
3620.985, 1939.339
3622.914, 1936.740
3624.842, 1945.728
3626.771, 1928.534
3628.699, 1915.106
3630.628, 1892.321
3632.556, 1878.917
3634.485, 1856.151
3636.413, 1820.216
3638.342, 1805.457
3640.270, 1755.564
3642.198, 1732.275
3644.127, 1708.286
3646.055, 1673.038
3647.984, 1653.213
3649.912, 1649.108
3651.841, 1649.774
3653.769, 1631.451
3655.698, 1606.628
3657.626, 1595.671
3659.555, 1577.064
3661.483, 1571.533
3663.412, 1557.784
3665.340, 1566.385
3667.269, 1581.055
3669.197, 1582.027
3671.125, 1557.415
3673.054, 1592.469
3674.982, 1592.642
3676.911, 1614.256
3678.839, 1642.499
3680.768, 1642.024
3682.696, 1654.878
3684.625, 1694.938
3686.553, 1694.296
3688.482, 1690.094
3690.410, 1684.789
3692.339, 1667.979
3694.267, 1671.840
3696.196, 1683.930
3698.124, 1670.317
3700.052, 1646.750
3701.981, 1605.473
3703.909, 1554.722
3705.838, 1563.661
3707.766, 1516.847
3709.695, 1511.071
3711.623, 1468.389
3713.552, 1411.651
3715.480, 1389.654
3717.409, 1375.135
3719.337, 1325.919
3721.266, 1290.084
3723.194, 1274.191
3725.123, 1248.244
3727.051, 1236.068
3728.979, 1225.546
3730.908, 1233.375
3732.836, 1230.224
3734.765, 1261.175
3736.693, 1265.424
3738.622, 1278.063
3740.550, 1290.205
3742.479, 1300.865
3744.407, 1305.091
3746.336, 1314.110
3748.264, 1322.107
3750.193, 1332.133
3752.121, 1352.885
3754.050, 1376.663
3755.978, 1375.720
3757.906, 1399.657
3759.835, 1404.882
3761.763, 1389.180
3763.692, 1386.694
3765.620, 1380.950
3767.549, 1379.849
3769.477, 1370.612
3771.406, 1346.974
3773.334, 1346.358
3775.263, 1329.234
3777.191, 1266.476
3779.120, 1246.373
3781.048, 1208.453
3782.977, 1174.267
3784.905, 1151.390
3786.833, 1147.810
3788.762, 1134.574
3790.690, 1087.549
3792.619, 1086.049
3794.547, 1031.785
3796.476, 1062.971
3798.404, 1064.486
3800.333, 1040.228
3802.261, 1025.156
3804.190, 1011.818
3806.118, 1006.574
3808.047, 1038.995
3809.975, 1049.344
3811.904, 1067.034
3813.832, 1101.098
3815.760, 1117.967
3817.689, 1143.742
3819.617, 1153.601
3821.546, 1181.929
3823.474, 1158.018
3825.403, 1152.838
3827.331, 1159.108
3829.260, 1159.510
3831.188, 1165.264
3833.117, 1149.522
3835.045, 1142.191
3836.974, 1127.002
3838.902, 1109.992
3840.831, 1087.199
3842.759, 1066.422
3844.688, 1043.253
3846.616, 1019.090
3848.544, 991.3381
3850.473, 966.0116
3852.401, 933.5961
3854.330, 913.0963
3856.258, 887.6623
3858.187, 864.2393
3860.115, 826.3192
3862.044, 852.9150
3863.972, 859.5389
3865.901, 829.2656
3867.829, 849.8670
3869.758, 866.8405
3871.686, 848.2466
3873.615, 876.1737
3875.543, 908.7365
3877.471, 916.4820
3879.400, 920.0161
3881.328, 942.9988
3883.257, 967.9178
3885.185, 990.1064
3887.114, 1019.660
3889.042, 1049.883
3890.971, 1041.603
3892.899, 1059.501
3894.828, 1031.249
3896.756, 1023.097
3898.685, 1024.598
3900.613, 1014.211
3902.542, 1000.007
3904.470, 986.1124
3906.398, 991.6044
3908.327, 959.9164
3910.255, 961.4955
3912.184, 918.2996
3914.112, 864.0745
3916.041, 835.7852
3917.969, 808.9697
3919.898, 769.8542
3921.826, 737.2802
3923.755, 715.3940
3925.683, 678.8020
3927.612, 673.4047
3929.540, 664.2542
3931.469, 645.9614
3933.397, 629.0192
3935.325, 641.9576
3937.254, 636.4688
3939.182, 640.9249
3941.111, 695.1177
3943.039, 714.0966
3944.968, 735.4946
3946.896, 751.6257
3948.825, 777.9520
3950.753, 793.2329
3952.682, 826.6484
3954.610, 840.4891
3956.539, 857.5750
3958.467, 890.9240
3960.396, 909.5376
3962.324, 900.7501
3964.252, 899.5964
3966.181, 903.2182
3968.109, 872.7239
3970.038, 854.4736
3971.966, 825.8074
3973.895, 787.4618
3975.823, 750.8518
3977.752, 704.9771
3979.680, 657.1733
3981.609, 612.8431
3983.537, 572.1142
3985.466, 522.2919
3987.394, 498.2759
3989.323, 481.2254
3991.251, 451.3923
3993.179, 460.6996
3995.108, 437.9160
3997.036, 421.6324
3998.965, 421.7289
4000.893, 411.0346
4002.822, 409.6780
4004.750, 433.9306
4006.679, 455.9510
4008.607, 470.7567
4010.536, 524.4600
4012.464, 510.0757
4014.393, 560.2128
4016.321, 580.7516
4018.250, 596.3362
4020.178, 596.6618
4022.106, 586.1782
4024.035, 621.9678
4025.963, 663.6467
4027.892, 621.6986
4029.820, 647.1862
4031.749, 631.0082
4033.677, 587.4279
4035.606, 556.7119
4037.534, 526.0728
4039.463, 478.7299
4041.391, 428.2094
4043.320, 392.8838
4045.248, 360.5521
4047.177, 369.1823
4049.105, 342.8363
4051.033, 338.1385
4052.962, 331.9929
4054.890, 312.2582
4056.819, 300.6388
4058.747, 301.0703
4060.676, 307.6541
4062.604, 315.9948
4064.533, 298.4155
4066.461, 314.6870
4068.390, 341.6804
4070.318, 330.6244
4072.247, 357.1082
4074.175, 369.7213
4076.104, 392.6326
4078.032, 433.8001
4079.960, 452.3407
4081.889, 450.7996
4083.817, 489.0871
4085.746, 514.9458
4087.674, 511.5865
4089.603, 528.7879
4091.531, 551.2399
4093.460, 530.3195
4095.388, 517.8994
4097.316, 514.6616
4099.245, 504.9904
4101.174, 483.4323
4103.102, 447.4171
4105.030, 402.5149
4106.959, 359.9209
4108.888, 330.5000
4110.816, 291.9979
4112.744, 268.6059
4114.673, 247.1976
4116.602, 226.6638
4118.530, 205.5239
4120.458, 200.3308
4122.387, 184.9276
4124.315, 198.8828
4126.244, 201.9849
4128.172, 212.3268
4130.101, 244.2420
4132.029, 244.3959
4133.958, 244.0618
4135.886, 229.5631
4137.814, 273.7691
4139.743, 298.6119
4141.671, 314.5364
4143.600, 330.3860
4145.528, 359.4348
4147.457, 385.3611
4149.385, 391.3716
4151.313, 415.4491
4153.242, 431.7900
4155.171, 440.8651
4157.099, 453.6374
4159.027, 447.2638
4160.956, 432.1941
4162.885, 416.4536
4164.813, 378.3214
4166.741, 334.6977
4168.670, 295.4778
4170.599, 264.0669
4172.527, 244.6387
4174.455, 224.2652
4176.384, 200.2532
4178.313, 169.1482
4180.241, 154.7494
4182.169, 140.9461
4184.098, 146.4633
4186.026, 128.8197
4187.955, 142.1178
4189.883, 145.2537
4191.812, 152.6794
4193.740, 172.2028
4195.668, 182.9479
4197.597, 213.4812
4199.525, 222.2527
4201.454, 245.5654
4203.382, 276.7959
4205.311, 292.8732
4207.239, 313.8007
4209.168, 337.1899
4211.096, 355.3040
4213.024, 373.7138
4214.953, 372.2001
4216.882, 397.0939
4218.810, 418.6655
4220.738, 414.1714
4222.667, 447.9282
4224.596, 401.7853
4226.524, 398.9521
4228.452, 368.7941
4230.381, 305.9681
4232.310, 277.6012
4234.238, 239.6686
4236.166, 212.4596
4238.095, 187.2386
4240.023, 171.2229
4241.952, 146.2507
4243.880, 118.7030
4245.809, 111.7699
4247.737, 113.1253
4249.666, 95.75750
4251.594, 100.3284
4253.522, 125.0548
4255.451, 123.9873
4257.379, 150.8777
4259.308, 157.9745
4261.236, 165.0763
4263.165, 178.4972
4265.093, 174.5195
4267.021, 221.9636
4268.950, 279.6590
4270.879, 300.0237
4272.807, 306.8423
4274.735, 351.5150
4276.664, 346.8105
4278.593, 368.7446
4280.521, 369.3512
4282.449, 385.6743
4284.378, 376.2033
4286.307, 369.7668
4288.235, 365.0388
4290.163, 347.9267
4292.092, 310.6839
4294.021, 282.4222
4295.949, 256.0236
4297.877, 240.8394
4299.806, 200.9220
4301.734, 152.0424
4303.663, 140.7206
4305.591, 122.0047
4307.520, 96.28313
4309.448, 100.4993
4311.376, 109.2895
4313.305, 109.3693
4315.233, 118.7973
4317.162, 136.6575
4319.090, 139.2463
4321.019, 141.1332
4322.947, 161.1975
4324.876, 180.0471
4326.804, 199.2251
4328.732, 236.2367
4330.661, 217.9705
4332.590, 267.6339
4334.518, 280.9781
4336.446, 321.5863
4338.375, 332.9363
4340.304, 368.9045
4342.232, 402.8307
4344.160, 400.6764
4346.089, 399.2809
4348.018, 380.8186
4349.946, 340.2687
4351.874, 309.6790
4353.803, 266.6018
4355.731, 212.4247
4357.660, 181.0841
4359.588, 132.4069
4361.517, 112.2382
4363.445, 104.0201
4365.374, 60.95078
4367.302, 101.0659
4369.230, 82.23873
4371.159, 84.31651
4373.087, 102.8502
4375.016, 91.03380
4376.944, 95.31467
4378.873, 98.46424
4380.801, 126.0677
4382.729, 129.4201
4384.658, 161.6610
4386.587, 171.3571
4388.515, 178.7440
4390.443, 207.2182
4392.372, 220.6186
4394.301, 254.9957
4396.229, 271.3373
4398.157, 283.4514
4400.086, 308.9345
4402.015, 299.3562
4403.943, 312.9077
4405.871, 314.0737
4407.800, 305.0812
4409.729, 303.5079
4411.657, 264.6915
4413.585, 212.5454
4415.514, 181.9127
4417.442, 152.2313
4419.371, 146.4155
4421.299, 111.0102
4423.228, 85.88211
4425.156, 76.72308
4427.084, 55.75993
4429.013, 68.48676
4430.941, 42.76135
4432.870, 50.38520
4434.798, 65.17334
4436.727, 70.52567
4438.655, 82.13230
4440.584, 102.8512
4442.512, 140.7259
4444.440, 162.5029
4446.369, 171.2442
4448.298, 180.2423
4450.226, 189.3526
4452.154, 187.9711
4454.083, 218.9715
4456.012, 244.9368
4457.940, 247.5192
4459.868, 276.2752
4461.797, 272.3186
4463.726, 274.9302
4465.654, 282.5191
4467.582, 254.6097
4469.511, 179.4393
4471.439, 166.9323
4473.368, 153.2072
4475.296, 128.6005
4477.225, 104.2769
4479.153, 97.09982
4481.082, 56.00950
4483.010, 77.51046
4484.938, 46.42674
4486.867, 29.15273
4488.795, 46.44652
4490.724, 83.70295
4492.652, 62.70616
4494.581, 75.14313
4496.509, 82.53252
4498.438, 80.95217
4500.366, 119.4041
4502.295, 127.0990
4504.223, 119.1370
4506.151, 132.7944
4508.080, 175.5102
4510.009, 177.2286
4511.937, 180.4346
4513.865, 193.4889
4515.794, 200.4466
4517.723, 185.3853
4519.651, 207.0919
4521.579, 194.2903
4523.508, 154.7592
4525.437, 176.8045
4527.365, 130.2033
4529.293, 108.4094
4531.222, 83.55063
4533.150, 76.69070
4535.079, 56.96605
4537.007, 51.32674
4538.936, 55.45113
4540.864, 48.53640
4542.792, 51.07944
4544.721, 62.46519
4546.649, 49.54198
4548.578, 54.87302
4550.506, 57.28632
4552.435, 50.01765
4554.363, 61.29373
4556.292, 55.31343
4558.220, 64.16885
4560.148, 105.2395
4562.077, 117.6249
4564.006, 123.1999
4565.934, 102.6652
4567.862, 106.1945
4569.791, 127.5491
4571.720, 128.2076
4573.648, 142.7837
4575.576, 127.7071
4577.505, 115.7819
4579.434, 114.4907
4581.362, 114.9110
4583.290, 99.90079
4585.219, 80.46069
4587.147, 78.47073
4589.076, 60.48838
4591.004, 57.25447
4592.933, 50.57536
4594.861, 39.59293
4596.790, 43.36346
4598.718, 27.55240
4600.646, 29.53551
4602.575, 34.24187
4604.503, 78.21872
4606.432, 66.68015
4608.360, 71.63140
4610.289, 51.90168
4612.217, 38.46499
4614.146, 80.78125
4616.074, 85.18233
4618.003, 84.23498
4619.931, 72.21694
4621.859, 105.8525
4623.788, 93.34901
4625.717, 84.40411
4627.645, 55.88264
4629.573, 73.85371
4631.502, 92.05587
4633.431, 65.63496
4635.359, 43.29837
4637.287, 22.96185
4639.216, 17.13558
4641.145, 15.78480
4643.073, 17.09322
4645.001, 19.85849
4646.930, 27.11995
4648.858, 38.68270
4650.787, 38.90203
4652.715, 58.78025
4654.644, 38.70769
4656.572, 31.99112
4658.500, 62.42316
4660.429, 51.21935
4662.357, 26.70016
4664.286, 35.67827
4666.214, 64.26770
4668.143, 67.41290
4670.071, 79.63739
4672.000, 32.26734
4673.928, 27.34665
4675.856, 69.53855
4677.785, 7.024933
4679.714, 50.67961
4681.642, 45.40935
4683.570, 38.79586
4685.499, 23.81455
4687.428, 27.35783
4689.356, 8.636499
4691.284, 27.81722
4693.213, 27.08107
4695.142, 22.62239
4697.070, 5.704312
4698.998, 13.14121
4700.927, 30.63680
4702.855, 27.31712
4704.784, 40.16740
4706.712, 29.67741
4708.641, 37.78304
4710.569, 47.09002
4712.498, 33.16267
4714.426, 21.69438
4716.354, 41.60744
4718.283, 37.22569
4720.211, 14.66044
4722.140, 22.16203
4724.068, 11.81936
4725.997, 9.373779
4727.925, 7.402514
4729.854, 13.45870
4731.782, 18.59530
4733.711, 30.75326
4735.639, 13.83360
4737.567, 28.13261
4739.496, 12.06563
4741.425, 38.56371
4743.353, 7.000189
4745.281, 26.77762
4747.210, 10.05441
4749.139, 1.739500
4751.067, 4.797053
4752.995, 5.701804
4754.924, 34.44664
4756.853, 16.51167
4758.781, 0.6076997
4760.709, 41.04618
4762.638, 21.96613
4764.566, 14.83232
4766.495, 43.11231
4768.423, 3.449425
4770.352, 20.20038
4772.280, 11.29728
4774.208, 28.57663
4776.137, 4.988734
4778.065, 11.90200
4779.994, 16.66428
4781.922, 17.56261
4783.851, 38.24450
4785.779, 42.51759
4787.708, 16.80596
4789.636, 41.81205
4791.564, 21.27708
4793.493, 43.31783
4795.422, 27.30189
4797.350, 10.30466
4799.278, 31.35034
4801.207, 16.49225
4803.136, -4.886416
4805.064, -0.4968709
4806.992, 17.90099
4808.921, 14.14338
4810.850, 22.36384
4812.778, 30.40143
4814.706, 34.87233
4816.635, 22.48071
4818.563, 12.40594
4820.492, 20.23978
4822.420, 37.74200
4824.349, 9.8744981E-02
4826.277, 37.40384
4828.206, 5.460813
4830.134, 21.91042
4832.063, 22.05394
4833.991, 12.74908
4835.919, 9.139219
4837.848, 21.78847
4839.776, 10.67447
4841.705, 21.07094
4843.633, 14.44495
4845.562, 33.67921
4847.490, 6.114967
4849.419, 0.7188633
4851.347, 4.547059
4853.275, 13.67444
4855.204, 11.43225
4857.133, 5.372695
4859.061, 9.326143
4860.989, 32.89062
4862.918, 25.57311
4864.847, 27.25596
4866.775, 21.88605
4868.703, 26.66278
4870.632, 24.58168
4872.561, 19.75728
4874.489, 32.45502
4876.417, 23.88251
4878.346, 20.77309
4880.274, 12.30761
4882.203, 2.281847
4884.131, 1.540852
4886.060, 5.122454
4887.988, 19.08873
4889.917, 21.28088
4891.845, 26.14869
4893.773, 33.34373
4895.702, 23.09360
4897.630, 24.01437
4899.559, 16.82682
4901.487, 29.08074
4903.416, 8.516521
4905.344, 30.31648
4907.272, 20.08808
4909.201, 24.82312
4911.130, 8.501044
4913.058, 6.948643
4914.986, 34.05631
4916.915, 24.99208
4918.844, 44.30517
4920.772, 16.00227
4922.700, 36.74290
4924.629, 19.62917
4926.558, 17.12588
4928.486, 24.10863
4930.414, 14.59606
4932.343, 26.62896
4934.271, 20.91229
4936.200, 14.76695
4938.128, 11.98243
4940.057, 10.92548
4941.985, 21.13409
4943.914, 19.72238
4945.842, 20.62345
4947.771, 40.93112
4949.699, 18.95670
4951.627, 18.39531
4953.556, -9.847169
4955.484, 25.39307
4957.413, -6.349821
4959.341, 30.39378
4961.270, 43.88380
4963.198, 17.80533
4965.127, -3.837912
4967.055, 39.16135
4968.983, 29.86444
4970.912, 23.95665
4972.841, 36.80911
4974.769, 6.324990
4976.697, 12.32006
4978.626, 27.84203
4980.555, 10.85748
4982.483, 36.60015
4984.411, 24.00486
4986.340, 31.48510
4988.269, -10.45345
4990.197, 47.39845
4992.125, 17.16355
4994.054, 13.93026
4995.982, 23.41129
4997.911, 5.794604
4999.839, 12.57372
5001.768, 15.70049
5003.696, 14.62726
5005.625, 39.78964
5007.553, 8.089401
5009.481, 38.59311
5011.410, 52.52717
5013.338, 24.92581
5015.267, 21.97044
5017.195, 48.57094
5019.124, 43.42508
5021.052, 19.40018
5022.980, -2.041399
5024.909, 26.94410
5026.838, 15.18441
5028.766, 27.45211
5030.694, 23.96341
5032.623, 7.049226
5034.552, 27.72970
5036.480, 28.33241
5038.408, 9.200779
5040.337, 43.37033
5042.266, 33.08582
5044.194, 26.63293
5046.122, 18.57538
5048.051, 10.59752
5049.979, 10.36915
5051.908, -1.358932
5053.836, -9.235422
5055.765, -8.782913
5057.693, 12.94224
5059.622, -0.6051840
5061.550, 26.22292
5063.479, 23.87898
5065.407, 26.41491
5067.335, 15.91840
5069.264, 5.135975
5071.192, 28.00265
5073.121, 18.56077
5075.049, 7.931918
5076.978, 6.015411
5078.906, 22.03738
5080.835, 23.21906
5082.763, 32.43026
5084.691, 26.74991
5086.620, 22.80582
5088.549, 17.65065
5090.477, 12.34799
5092.405, 14.40331
5094.334, 6.948170
5096.263, 18.92835
5098.191, 29.01423
5100.119, 30.85748
5102.048, 30.78471
5103.977, 20.71460
5105.905, 18.87718
5107.833, -4.539974
5109.762, -3.215934
5111.690, 12.79466
5113.619, 15.88063
5115.547, 35.73308
5117.476, -1.134226
5119.404, 3.495160
5121.333, 5.721164
5123.261, 5.496873
5125.189, -0.5954375
5127.118, 17.39914
5129.046, -1.687751
5130.975, 16.24965
5132.903, 24.15307
5134.832, 3.165789
5136.760, 17.80217
5138.688, 32.54069
5140.617, 12.51090
5142.546, 17.92183
5144.474, 0.1661098
5146.402, 22.13524
5148.331, -9.232151
5150.260, 10.25277
5152.188, 19.99481
5154.116, 29.54666
5156.045, 34.45721
5157.974, 33.39685
5159.902, 31.15811
5161.830, 24.41493
5163.759, 16.10309
5165.688, 9.951115
5167.616, -0.1996749
5169.544, 0.2102851
5171.473, 23.89165
5173.401, 25.26307
5175.330, 27.53169
5177.258, 9.417466
5179.187, 17.94215
5181.115, 12.93821
5183.043, 15.66545
5184.972, 13.88346
5186.900, 27.61097
5188.829, 32.49397
5190.757, 43.28432
5192.686, 39.00874
5194.614, 39.99293
5196.543, 18.20258
5198.471, 34.23745
5200.399, 7.696854
5202.328, 7.124859
5204.257, 17.81533
5206.185, 19.27950
5208.113, 5.854850
5210.042, 39.91019
5211.971, 41.72904
5213.899, 46.11940
5215.827, 27.56710
5217.756, 30.82449
5219.685, 18.25054
5221.613, 32.60310
5223.541, 44.16558
5225.470, 30.57332
5227.398, 31.41171
5229.327, 17.34876
5231.255, 23.55259
5233.184, -0.9436764
5235.112, 30.40364
5237.041, 1.302187
5238.969, -3.133410
5240.897, 51.54394
5242.826, 18.26093
5244.754, 9.378130
5246.683, 18.79106
5248.611, 21.66569
5250.540, 40.57410
5252.468, 31.75264
5254.396, 17.81421
5256.325, -1.226164
5258.254, 29.98947
5260.182, 17.15052
5262.110, 24.03126
5264.039, 18.74180
5265.968, -4.250771
5267.896, 19.10008
5269.824, 29.92702
5271.753, 6.865147
5273.682, -4.031002
5275.610, 40.99099
5277.538, 21.28637
5279.467, 20.25911
5281.396, 22.88217
5283.324, 43.12362
5285.252, 18.05269
5287.181, 19.28824
5289.109, 55.84763
5291.038, 15.68051
5292.966, 43.16064
5294.895, 25.48408
5296.823, 15.63237
5298.751, 21.22080
5300.680, 17.46009
5302.608, 21.98449
5304.537, 26.48267
5306.465, 33.09644
5308.394, 34.20052
5310.322, 36.13076
5312.251, 23.48312
5314.179, 23.22218
5316.107, 5.108202
5318.036, 21.79842
5319.965, 26.34482
5321.893, 3.449998
5323.821, 11.12732
5325.750, 35.18253
5327.679, 36.62257
5329.607, 17.96245
5331.535, 21.77864
5333.464, 36.10424
5335.393, -8.796895
5337.321, 55.96209
5339.249, 46.55253
5341.178, 22.75153
5343.106, 34.02990
5345.035, 6.211042
5346.963, -1.287554
5348.892, 24.70383
5350.820, 24.09037
5352.749, 10.52198
5354.677, 23.28198
5356.605, 19.59173
5358.534, -16.29943
5360.462, 36.44781
5362.391, 6.815814
5364.319, 36.71857
5366.248, 9.735437
5368.176, 27.65777
5370.104, 36.60234
5372.033, -4.118848
5373.962, 3.856164
5375.890, 27.64321
5377.818, 25.02519
5379.747, 3.413805
5381.676, 4.618078
5383.604, -8.799623
5385.532, -3.096673
5387.461, 55.34539
5389.390, 14.37452
5391.318, 32.95842
5393.246, 43.69917
5395.175, 27.04785
5397.104, 29.52137
5399.032, 18.60308
5400.960, 37.57483
5402.889, 6.706320
5404.817, 16.59355
5406.746, 33.06522
5408.674, 54.96318
5410.603, 6.608915
5412.531, 6.334887
5414.459, 11.34757
5416.388, 18.95805
5418.316, 35.70258
5420.245, 23.64331
5422.173, 5.744812
5424.102, 23.06734
5426.030, 29.12816
5427.959, 18.66630
5429.887, 24.59926
5431.815, 14.03469
5433.744, 20.11739
5435.673, 24.91978
5437.601, 24.18702
5439.529, 33.72946
5441.458, 32.31649
5443.387, 41.11000
5445.315, 29.42935
5447.243, 18.35675
5449.172, 7.795377
5451.101, 5.871916
5453.029, -3.284289
5454.957, 2.873889
5456.886, 3.842311
5458.814, 21.01383
5460.743, 18.42319
5462.671, 33.87228
5464.600, 49.64377
5466.528, 23.40604
5468.457, 4.655284
5470.385, 24.35505
5472.313, 22.50531
5474.242, 6.956475
5476.170, 43.02836
5478.099, 31.03668
5480.027, 36.62024
5481.956, 3.449266
5483.884, 9.737058
5485.813, 19.09218
5487.741, 7.713458
5489.670, 24.08727
5491.598, 15.00117
5493.526, 45.33905
5495.455, 39.66798
5497.384, 37.07609
5499.312, 35.18859
5501.240, 38.86860
5503.169, 29.31817
5505.098, 17.04680
5507.026, 59.12235
5508.954, 31.11918
5510.883, 27.31250
5512.812, 45.52820
5514.740, -0.5983363
5516.668, 26.62567
5518.597, 18.72324
5520.525, 24.85725
5522.454, 33.22202
5524.382, 31.82187
5526.311, 27.39954
5528.239, 25.37728
5530.167, 3.660683
5532.096, 8.226923
5534.024, 27.05040
5535.953, 11.74353
5537.881, 34.63010
5539.810, 50.59999
5541.738, 44.87333
5543.667, 57.15245
5545.595, 52.20447
5547.523, 49.65202
5549.452, 36.88597
5551.381, 36.71256
5553.309, 19.89984
5555.237, 5.276771
5557.166, 21.19529
5559.095, 29.57705
5561.023, 16.67162
5562.951, 22.21156
5564.880, 13.54440
5566.809, 27.67030
5568.737, 27.23507
5570.665, 19.40236
5572.594, 33.20098
5574.522, 45.23038
5576.451, 43.20092
5578.379, 19.89803
5580.308, 39.57697
5582.236, 17.82839
5584.165, 37.95211
5586.093, 50.65707
5588.021, 15.78605
5589.950, 25.70275
5591.878, 17.76437
5593.807, 28.62437
5595.735, 22.30975
5597.664, 12.21620
5599.592, 7.268328
5601.521, 11.74637
5603.449, 29.80850
5605.378, 36.94066
5607.306, 34.71972
5609.234, 26.11704
5611.163, 12.17532
5613.092, 7.746123
5615.020, 5.990413
5616.948, 4.035315
5618.877, 9.525842
5620.806, 14.02766
5622.734, 17.07688
5624.662, 32.73018
5626.591, 34.97881
5628.520, 41.06553
5630.448, 40.91017
5632.376, 40.26758
5634.305, 37.07001
5636.233, 28.78211
5638.162, 33.20403
5640.090, 14.26614
5642.019, 27.97618
5643.947, 10.19748
5645.875, 35.60921
5647.804, 13.03800
5649.732, 38.53389
5651.661, 16.32260
5653.589, 30.66438
5655.518, 32.14235
5657.446, 55.47303
5659.375, 13.96575
5661.303, 30.53671
5663.231, 6.684445
5665.160, 42.74221
5667.089, 25.91357
5669.017, 15.49719
5670.945, 37.31562
5672.874, 24.92834
5674.803, 4.527300
5676.731, 18.63338
5678.659, 22.39549
5680.588, 6.709580
5682.517, 11.79477
5684.445, 29.78272
5686.373, 50.61406
5688.302, 23.29723
5690.230, 35.87555
5692.159, 46.36938
5694.087, 4.777151
5696.016, 22.61448
5697.944, 43.48044
5699.873, 18.63265
5701.801, 39.52308
5703.729, 13.61727
5705.658, -0.9521027
5707.586, 27.95499
5709.515, 42.72043
5711.443, 28.99684
5713.372, 31.94665
5715.300, 22.75625
5717.229, 25.18027
5719.157, 29.07539
5721.086, 10.04160
5723.014, 26.25238
5724.942, 1.593611
5726.871, 29.39718
5728.800, 9.991073
5730.728, 23.99335
5732.656, 2.787301
5734.585, 2.749647
5736.514, 15.16849
5738.442, 1.116773
5740.370, 33.56558
5742.299, 8.042094
5744.228, 10.83989
5746.156, -15.29017
5748.084, 14.32976
5750.013, 0.7858331
5751.941, 10.35937
5753.870, 27.09029
5755.798, 38.63665
5757.727, 12.22361
5759.655, -22.00666
5761.583, 51.78837
5763.512, 4.237001
5765.440, 47.09088
5767.369, -8.018994
5769.297, 9.170162
5771.226, -9.003744
5773.154, -8.389920
5775.083, 19.60855
5777.011, 29.69251
5778.939, 39.33984
5780.868, 7.843007
5782.797, 23.15340
5784.725, 17.95841
5786.653, -11.02891
5788.582, 24.82740
5790.511, -11.17397
5792.439, 15.84768
5794.367, 13.91052
5796.296, 22.69759
5798.225, 12.98271
5800.153, 21.12547
5802.081, 9.683271
5804.010, 20.76166
5805.938, 20.75742
5807.867, 14.38410
5809.795, 25.41103
5811.724, 2.806460
5813.652, 13.61867
5815.581, 20.44087
5817.509, -11.60438
5819.438, 52.71428
5821.366, 20.64175
5823.294, 14.46379
5825.223, 14.19831
5827.151, 20.89588
5829.080, 37.42485
5831.008, 17.38970
5832.937, 11.73729
5834.865, 35.60175
5836.794, 18.03719
5838.722, 21.08950
5840.650, -1.593617
5842.579, 0.2128196
5844.508, -10.68550
5846.436, 18.94224
5848.364, 2.116789
5850.293, 23.33591
5852.222, -9.006408
5854.150, 3.821590
5856.078, 23.86633
5858.007, 25.50731
5859.936, 3.567035
5861.864, 43.08800
5863.792, 5.802730
5865.721, 19.41142
5867.649, 23.33315
5869.578, -3.417811
5871.506, 53.16855
5873.435, 31.42502
5875.363, 31.69307
5877.292, -1.511683
5879.220, 24.00872
5881.148, 25.95548
5883.077, 13.73613
5885.005, 18.73195
5886.934, 24.65953
5888.862, 7.005972
5890.791, 8.013783
5892.719, 10.83281
5894.647, 14.22171
5896.576, -19.94884
5898.505, 46.52857
5900.433, 40.72416
5902.361, 2.771801
5904.290, 1.470177
5906.219, -7.576563
5908.147, 7.970489
5910.075, 17.57648
5912.004, 21.38577
5913.933, 24.48772
5915.861, 33.84655
5917.789, 38.71993
5919.718, 45.84229
5921.646, 25.54136
5923.575, 21.15615
5925.503, 28.20103
5927.432, 28.89537
5929.360, 4.545647
5931.289, 42.06209
5933.217, 9.692079
5935.146, 41.25173
5937.074, 61.46875
5939.002, 36.47127
5940.931, 25.32829
5942.859, 18.97783
5944.788, -3.744343
5946.716, 28.37511
5948.645, 19.01031
5950.573, 37.92663
5952.502, 13.16502
5954.430, 14.51141
5956.358, 5.559523
5958.287, -11.94892
5960.216, 12.27250
5962.144, 21.43541
5964.072, 11.57666
5966.001, 37.33379
5967.930, 34.09321
5969.858, 35.99876
5971.786, 14.10051
5973.715, 24.74587
5975.644, 14.84873
5977.572, 1.816368
5979.500, 13.37300
5981.429, -6.572828
5983.357, 20.25801
5985.286, 26.09655
5987.214, 35.09032
5989.143, 37.57381
5991.071, 34.87432
5993.000, 27.40761
5994.928, 30.07615
5996.856, 19.91714
5998.785, 21.52515
6000.713, 25.00488
6002.642, 44.61917
6004.570, 37.40328
6006.499, 36.55682
6008.427, 28.82346
6010.355, 26.41359
6012.284, 12.17360
6014.213, 4.739455
6016.141, 54.03867
6018.069, 26.99537
6019.998, 7.251790
6021.927, 35.28529
6023.855, -6.650115
6025.783, -1.437620
6027.712, 8.148826
6029.641, 2.981358
6031.569, 13.51080
6033.497, 8.559510
6035.426, 21.50740
6037.354, 0.6262288
6039.283, -9.042634
6041.211, -13.19942
6043.140, 9.867207
6045.068, -7.1957096E-02
6046.997, 37.10540
6048.925, 36.73127
6050.854, 13.87611
6052.782, 41.99578
6054.710, 10.47448
6056.639, -10.02872
6058.567, 42.41340
6060.496, -10.79723
6062.424, 32.64974
6064.353, 2.145973
6066.281, 35.98839
6068.210, -5.836836
6070.138, 39.98880
6072.066, 23.80062
6073.995, 45.00368
6075.924, 22.39117
6077.852, 10.49659
6079.780, 4.000762
6081.709, 30.95644
6083.638, 16.41435
6085.566, 48.08974
6087.494, 21.23520
6089.423, 27.85919
6091.352, 20.17723
6093.280, 30.38533
6095.208, 36.95672
6097.137, 30.58002
6099.065, 27.35386
6100.994, 21.46367
6102.922, 3.336545
6104.851, -5.423386
6106.779, -23.87786
6108.708, -16.57960
6110.636, -14.14761
6112.564, 8.073951
6114.493, 8.063893
6116.421, 34.46437
6118.350, 45.69006
6120.278, 20.54732
6122.207, 56.41475
6124.135, 12.62286
6126.063, 38.78325
6127.992, 40.06050
6129.921, 21.85283
6131.849, -7.699360
6133.777, 8.893414
6135.706, -0.4345179
6137.635, 32.43533
6139.563, 29.80461
6141.491, 36.43498
6143.420, -15.54540
6145.349, 28.17853
6147.277, -3.339609
6149.205, 58.00393
6151.134, 21.57174
6153.063, -13.75514
6154.991, 38.72146
6156.919, 48.62931
6158.848, 16.16775
6160.776, 14.27604
6162.705, -15.41669
6164.633, 6.533241
6166.562, 22.16235
6168.490, 21.44562
6170.418, 55.50848
6172.347, 25.72639
6174.275, 41.85063
6176.204, 43.82307
6178.132, 15.52672
6180.061, 51.50058
6181.989, 35.08493
6183.918, 46.56541
6185.846, 41.18061
6187.774, 29.31530
6189.703, 11.35203
6191.632, 4.918461
6193.560, -25.81141
6195.488, 25.52586
6197.417, 12.43564
6199.346, -11.23344
6201.274, 18.49119
6203.202, -3.780863
6205.131, 25.92797
6207.060, 24.70236
6208.988, 41.27737
6210.916, 0.6941873
6212.845, 40.03903
6214.773, 13.01903
6216.702, 20.26841
6218.630, -15.96181
6220.559, 10.98318
6222.487, 33.17607
6224.416, 32.47349
6226.344, 23.05997
6228.272, 28.59701
6230.201, 8.643900
6232.129, -0.6753002
6234.058, -4.791864
6235.986, -16.97707
6237.915, 26.71296
6239.843, -0.9415489
6241.771, 53.97160
6243.700, -2.755136
6245.629, 50.36362
6247.557, 34.30757
6249.485, 24.37085
6251.414, 8.326936
6253.343, 21.49428
6255.271, 2.460851
6257.199, 28.60716
6259.128, 28.00377
6261.057, 66.43561
6262.985, 47.17890
6264.913, 21.51027
6266.842, 38.68678
6268.771, 6.140868
6270.699, -11.32483
6272.627, 28.80714
6274.556, 23.45938
6276.484, 27.90646
6278.413, 29.84583
6280.341, 24.00835
6282.270, 33.65432
6284.198, 6.485699
6286.126, 13.23035
6288.055, 5.797291
6289.983, 5.084122
6291.912, 4.787724
6293.840, 9.731229
6295.769, 27.81971
6297.697, 41.84691
6299.626, -22.70899
6301.554, 6.4324953E-02
6303.482, 13.41316
6305.411, -13.01923
6307.340, 19.06445
6309.268, 56.20358
6311.196, 30.23415
6313.125, 34.11316
6315.054, 38.57311
6316.982, 16.74671
6318.910, 24.20262
6320.839, 16.68039
6322.768, 11.55427
6324.696, 34.80984
6326.624, 24.67086
6328.553, 34.81125
6330.481, 38.56330
6332.410, 22.57483
6334.338, 34.72499
6336.267, -8.366422
6338.195, 38.42324
6340.124, 26.25764
6342.052, 3.623499
6343.980, 34.84321
6345.909, 33.73319
6347.837, 35.18502
6349.766, 57.93752
6351.694, 29.67307
6353.623, 31.49897
6355.551, 52.93569
6357.479, 28.88638
6359.408, 16.67113
6361.337, 63.77042
6363.265, 47.98470
6365.193, 36.20351
6367.122, 60.08174
6369.051, 19.12700
6370.979, 44.44854
6372.907, 41.68534
6374.836, 66.22662
6376.765, 68.68558
6378.693, 43.41409
6380.621, 55.12691
6382.550, 57.36850
6384.479, 4.877268
6386.407, 73.43293
6388.335, 11.66911
6390.264, 43.16898
6392.192, 51.90098
6394.121, 58.13345
6396.049, 80.81783
6397.978, 97.01099
6399.906, 110.6461
6401.834, 125.5281
6403.763, 135.9764
6405.691, 159.6756
6407.620, 230.7592
6409.548, 332.0483
6411.477, 381.4602
6413.405, 353.4788
6415.334, 178.8390
6417.262, 104.0624
6419.190, 81.37775
6421.119, 101.2505
6423.048, 56.01609
6424.976, 55.32291
6426.904, 20.99175
6428.833, 99.59517
6430.762, 74.72121
6432.690, 68.76563
6434.618, 66.58023
6436.547, 20.24784
6438.476, 86.01460
6440.404, 57.50818
6442.332, 150.3020
6444.261, 253.0973
6446.189, 434.4772
6448.118, 759.2669
6450.046, 1188.079
6451.975, 1700.361
6453.903, 2177.396
6455.832, 2719.585
6457.760, 3177.328
6459.688, 3405.300
6461.617, 3471.865
6463.545, 3452.448
6465.474, 3543.070
6467.402, 3537.485
6469.331, 3519.531
6471.259, 3513.410
6473.188, 3527.224
6475.116, 3458.547
6477.045, 3474.231
6478.973, 3449.856
6480.901, 3353.764
6482.830, 3336.241
6484.759, 3409.953
6486.687, 3408.944
6488.615, 3340.953
6490.544, 3330.522
6492.473, 3318.925
6494.401, 3359.803
6496.329, 3323.785
6498.258, 3327.349
6500.187, 3305.003
6502.115, 3291.669
6504.043, 3232.560
6505.972, 3223.980
6507.900, 3169.901
6509.829, 3195.738
6511.757, 3164.790
6513.686, 3161.319
6515.614, 3071.480
6517.542, 3158.995
6519.471, 3140.198
6521.399, 2993.560
6523.328, 3063.221
6525.256, 3015.201
6527.185, 3022.500
6529.113, 3013.417
6531.042, 2998.079
6532.970, 2996.911
6534.898, 3002.431
6536.827, 2976.473
6538.756, 2959.190
6540.684, 2938.428
6542.612, 2965.986
6544.541, 2922.244
6546.470, 2997.835
6548.398, 2855.613
6550.326, 2893.495
6552.255, 2889.004
6554.184, 2799.623
6556.112, 2758.720
6558.040, 2842.708
6559.969, 2820.431
6561.897, 2735.800
6563.826, 2803.821
6565.754, 2720.705
6567.683, 2725.333
6569.611, 2708.085
6571.540, 2775.362
6573.468, 2632.881
6575.396, 2682.436
6577.325, 2660.428
6579.253, 2635.918
6581.182, 2584.973
6583.110, 2621.726
6585.039, 2596.615
6586.967, 2608.544
6588.896, 2618.021
6590.824, 2578.183
6592.753, 2588.532
6594.681, 2548.604
6596.609, 2591.952
6598.538, 2498.715
6600.467, 2569.939
6602.395, 2536.507
6604.323, 2453.487
6606.252, 2510.062
6608.181, 2492.377
6610.109, 2464.509
6612.037, 2432.965
6613.966, 2434.226
6615.895, 2448.106
6617.823, 2430.721
6619.751, 2431.509
6621.680, 2434.110
6623.608, 2396.719
6625.537, 2401.720
6627.465, 2346.198
6629.394, 2409.041
##END=



