##NAMES=Dachiardite-Ca
##RRUFFID=R061097
##IDEAL CHEMISTRY=Ca_2_(Si_20_Al_4_)O_48_·13H_2_O
##LOCALITY=Cape Lookout Quarry, Tillamook County, Oregon
##OWNER=RRUFF
##SOURCE=Michael Scott
##DESCRIPTION=Hemispheres of radiating translucent white to colorless bladed crystals associated with heulandite and white balls of mordenite.
##STATUS=The identification of this mineral has been confirmed only by chemical analysis
##URL=https://www.rruff.net/odr/rruff_sample/R061097
##MEASURED CHEMISTRY=(Ca_1.25_K_0.98_Na_0.46_)(Si_20.06_Al_3.94_)O_48_·11.22H_2_O ; H_2_O by difference
##FILETYPE=Raman RAW
##RAMAN WAVELENGTH=532

115.9834, 2646.192
117.9119, 3642.679
119.8403, 4806.496
121.7688, 5862.020
123.6973, 6864.739
125.6257, 7729.977
127.5542, 7602.942
129.4827, 7218.358
131.4111, 6883.635
133.3396, 6624.162
135.2681, 6440.241
137.1965, 6286.688
139.1250, 6175.088
141.0535, 6076.559
142.9819, 5953.563
144.9104, 5765.429
146.8389, 5575.688
148.7673, 5409.512
150.6958, 5261.333
152.6243, 5128.860
154.5527, 5010.917
156.4812, 4903.508
158.4097, 4807.633
160.3382, 4721.460
162.2666, 4643.818
164.1951, 4574.935
166.1236, 4513.934
168.0520, 4459.573
169.9805, 4409.039
171.9090, 4358.416
173.8374, 4322.450
175.7659, 4303.731
177.6944, 4298.482
179.6228, 4297.105
181.5513, 4302.238
183.4798, 4307.161
185.4082, 4308.779
187.3367, 4304.665
189.2652, 4299.697
191.1936, 4304.645
193.1221, 4311.255
195.0506, 4293.657
196.9790, 4236.266
198.9075, 4160.854
200.8360, 4076.958
202.7644, 3977.189
204.6929, 3880.737
206.6214, 3793.590
208.5498, 3714.440
210.4783, 3633.153
212.4068, 3542.918
214.3352, 3451.890
216.2637, 3369.787
218.1922, 3294.934
220.1206, 3231.683
222.0491, 3182.534
223.9776, 3153.373
225.9060, 3123.508
227.8345, 3086.573
229.7630, 3050.753
231.6914, 3028.111
233.6199, 3026.992
235.5484, 3029.251
237.4768, 3026.154
239.4053, 3007.445
241.3338, 2998.851
243.2622, 3006.200
245.1907, 3023.516
247.1192, 3038.821
249.0476, 3052.851
250.9761, 3063.370
252.9046, 3069.301
254.8330, 3071.054
256.7615, 3068.636
258.6900, 3059.681
260.6184, 3046.375
262.5469, 3034.195
264.4754, 3025.964
266.4038, 3017.245
268.3323, 3003.895
270.2608, 2982.832
272.1892, 2964.324
274.1177, 2950.601
276.0462, 2940.906
277.9746, 2934.031
279.9031, 2932.368
281.8316, 2931.969
283.7600, 2930.092
285.6885, 2926.736
287.6170, 2923.956
289.5454, 2922.586
291.4739, 2922.853
293.4024, 2924.857
295.3308, 2922.060
297.2593, 2924.628
299.1878, 2941.061
301.1162, 2974.373
303.0447, 3010.331
304.9732, 3043.844
306.9016, 3074.263
308.8301, 3107.530
310.7586, 3148.409
312.6870, 3188.427
314.6155, 3224.311
316.5440, 3261.731
318.4724, 3282.823
320.4009, 3285.103
322.3294, 3267.750
324.2578, 3239.062
326.1863, 3194.575
328.1148, 3141.972
330.0432, 3086.110
331.9717, 3021.872
333.9002, 2963.485
335.8286, 2910.933
337.7571, 2865.462
339.6856, 2831.434
341.6140, 2817.754
343.5425, 2808.696
345.4710, 2793.125
347.3994, 2761.697
349.3279, 2739.573
351.2564, 2734.009
353.1848, 2742.840
355.1133, 2749.261
357.0418, 2748.981
358.9702, 2750.502
360.8987, 2758.679
362.8272, 2779.581
364.7556, 2797.893
366.6841, 2808.712
368.6126, 2815.832
370.5410, 2829.295
372.4695, 2851.036
374.3980, 2877.797
376.3264, 2907.616
378.2549, 2941.193
380.1834, 2977.513
382.1118, 3013.092
384.0403, 3052.472
385.9688, 3101.062
387.8972, 3160.165
389.8257, 3227.626
391.7542, 3302.914
393.6826, 3388.760
395.6111, 3475.184
397.5396, 3555.763
399.4680, 3641.029
401.3965, 3740.734
403.3250, 3860.013
405.2534, 3990.105
407.1819, 4124.234
409.1104, 4262.290
411.0388, 4427.869
412.9673, 4630.279
414.8958, 4855.805
416.8242, 5099.196
418.7527, 5384.109
420.6812, 5628.658
422.6096, 5830.333
424.5381, 5979.479
426.4666, 6047.562
428.3951, 5997.057
430.3235, 5897.031
432.2520, 5771.433
434.1805, 5601.013
436.1089, 5478.884
438.0374, 5400.868
439.9659, 5377.652
441.8943, 5430.284
443.8228, 5552.611
445.7513, 5749.271
447.6797, 6007.797
449.6082, 6318.892
451.5367, 6755.308
453.4651, 7350.298
455.3936, 8046.503
457.3221, 8804.563
459.2505, 9638.315
461.1790, 10487.54
463.1075, 11375.80
465.0359, 12285.43
466.9644, 13088.43
468.8929, 13781.45
470.8214, 14364.93
472.7498, 14823.22
474.6783, 15157.62
476.6068, 15379.19
478.5352, 15511.88
480.4637, 15521.92
482.3922, 15331.82
484.3206, 14871.60
486.2491, 14265.02
488.1776, 13494.47
490.1060, 12563.65
492.0345, 11595.46
493.9630, 10542.90
495.8914, 9502.055
497.8199, 8535.631
499.7484, 7629.350
501.6768, 6838.420
503.6053, 6173.437
505.5338, 5634.557
507.4622, 5181.714
509.3907, 4830.081
511.3192, 4550.926
513.2476, 4328.073
515.1761, 4171.294
517.1046, 4041.173
519.0330, 3940.129
520.9615, 3860.200
522.8900, 3795.887
524.8184, 3749.012
526.7469, 3708.100
528.6754, 3670.188
530.6038, 3635.588
532.5323, 3606.547
534.4608, 3590.707
536.3892, 3573.180
538.3177, 3547.073
540.2462, 3512.875
542.1746, 3478.539
544.1031, 3446.553
546.0316, 3414.475
547.9600, 3380.301
549.8885, 3349.648
551.8170, 3310.302
553.7454, 3250.457
555.6739, 3181.694
557.6024, 3132.249
559.5308, 3114.208
561.4593, 3100.034
563.3878, 3077.400
565.3162, 3042.430
567.2447, 3015.137
569.1732, 2994.549
571.1016, 2981.305
573.0301, 2978.584
574.9586, 2988.980
576.8870, 2996.398
578.8155, 2992.643
580.7440, 2983.443
582.6724, 2980.674
584.6009, 2989.977
586.5294, 2999.325
588.4578, 3006.897
590.3863, 3012.259
592.3148, 3013.720
594.2432, 3008.624
596.1717, 3001.930
598.1002, 2995.454
600.0286, 2984.619
601.9571, 2985.260
603.8856, 3007.618
605.8140, 3037.495
607.7425, 3056.510
609.6710, 3061.950
611.5994, 3064.454
613.5279, 3063.082
615.4564, 3059.909
617.3848, 3066.095
619.3133, 3097.420
621.2418, 3122.598
623.1702, 3126.533
625.0987, 3110.442
627.0272, 3096.758
628.9556, 3087.975
630.8841, 3082.084
632.8126, 3077.769
634.7410, 3075.690
636.6695, 3073.332
638.5980, 3074.503
640.5264, 3074.044
642.4549, 3064.756
644.3834, 3046.242
646.3118, 3022.826
648.2403, 2991.129
650.1688, 2954.774
652.0972, 2929.552
654.0257, 2921.339
655.9542, 2918.490
657.8826, 2918.102
659.8111, 2920.158
661.7396, 2925.299
663.6680, 2938.873
665.5965, 2950.278
667.5250, 2952.603
669.4534, 2942.064
671.3819, 2934.199
673.3104, 2933.451
675.2388, 2934.399
677.1673, 2928.654
679.0958, 2911.136
681.0242, 2901.382
682.9527, 2913.373
684.8812, 2935.009
686.8096, 2944.159
688.7381, 2924.891
690.6666, 2912.392
692.5950, 2920.147
694.5235, 2944.809
696.4520, 2958.019
698.3804, 2948.298
700.3089, 2940.917
702.2374, 2950.239
704.1658, 2975.420
706.0943, 2995.052
708.0228, 2998.601
709.9512, 3002.002
711.8797, 3015.664
713.8082, 3045.135
715.7366, 3068.147
717.6651, 3078.453
719.5936, 3084.850
721.5220, 3094.990
723.4505, 3109.965
725.3790, 3125.497
727.3074, 3142.766
729.2359, 3159.281
731.1644, 3170.745
733.0928, 3174.711
735.0213, 3176.181
736.9498, 3172.929
738.8782, 3167.871
740.8067, 3166.762
742.7352, 3170.461
744.6636, 3178.400
746.5921, 3188.433
748.5206, 3201.368
750.4490, 3225.483
752.3775, 3268.237
754.3060, 3313.622
756.2344, 3354.380
758.1629, 3391.334
760.0914, 3431.915
762.0198, 3480.888
763.9483, 3528.736
765.8768, 3572.287
767.8052, 3613.615
769.7337, 3643.074
771.6622, 3665.412
773.5906, 3675.631
775.5191, 3667.125
777.4476, 3639.961
779.3760, 3608.881
781.3045, 3574.172
783.2330, 3537.460
785.1614, 3499.199
787.0899, 3456.741
789.0184, 3417.532
790.9468, 3378.666
792.8753, 3343.619
794.8038, 3319.004
796.7322, 3308.740
798.6607, 3295.008
800.5892, 3269.629
802.5176, 3240.257
804.4461, 3216.523
806.3746, 3198.901
808.3030, 3187.628
810.2315, 3192.809
812.1600, 3203.460
814.0884, 3193.362
816.0169, 3143.375
817.9454, 3104.440
819.8738, 3093.966
821.8023, 3100.886
823.7308, 3102.650
825.6593, 3091.880
827.5878, 3087.078
829.5162, 3098.790
831.4447, 3120.895
833.3732, 3128.669
835.3016, 3108.031
837.2301, 3089.430
839.1586, 3080.856
841.0870, 3080.925
843.0155, 3083.498
844.9440, 3092.269
846.8724, 3099.274
848.8009, 3100.112
850.7294, 3096.066
852.6578, 3096.107
854.5863, 3100.764
856.5148, 3107.628
858.4432, 3115.494
860.3717, 3124.257
862.3002, 3135.498
864.2286, 3154.124
866.1571, 3168.433
868.0856, 3169.735
870.0140, 3162.039
871.9425, 3161.919
873.8710, 3179.173
875.7994, 3195.183
877.7279, 3202.219
879.6564, 3200.645
881.5848, 3202.287
883.5133, 3212.354
885.4418, 3218.706
887.3702, 3210.606
889.2987, 3193.878
891.2272, 3190.343
893.1556, 3211.953
895.0841, 3233.549
897.0126, 3246.042
898.9410, 3250.299
900.8695, 3254.929
902.7980, 3263.071
904.7264, 3268.239
906.6549, 3265.983
908.5834, 3258.264
910.5118, 3254.677
912.4403, 3255.613
914.3688, 3260.773
916.2972, 3275.268
918.2257, 3295.475
920.1542, 3305.203
922.0826, 3292.785
924.0111, 3283.283
925.9396, 3280.724
927.8680, 3284.870
929.7965, 3296.128
931.7250, 3319.581
933.6534, 3340.740
935.5819, 3355.392
937.5104, 3364.750
939.4388, 3370.253
941.3673, 3368.291
943.2958, 3371.419
945.2242, 3387.698
947.1527, 3410.802
949.0812, 3426.876
951.0096, 3425.955
952.9381, 3429.090
954.8666, 3441.927
956.7950, 3457.855
958.7235, 3465.838
960.6520, 3463.741
962.5804, 3462.694
964.5089, 3466.121
966.4374, 3473.132
968.3658, 3483.666
970.2943, 3500.843
972.2228, 3514.791
974.1512, 3518.074
976.0797, 3521.711
978.0082, 3534.944
979.9366, 3556.778
981.8651, 3590.450
983.7936, 3657.165
985.7220, 3718.958
987.6505, 3744.349
989.5790, 3734.312
991.5074, 3718.150
993.4359, 3686.489
995.3644, 3665.348
997.2928, 3673.505
999.2213, 3717.170
1001.150, 3748.544
1003.078, 3757.337
1005.007, 3766.604
1006.935, 3786.043
1008.864, 3814.675
1010.792, 3841.965
1012.721, 3865.639
1014.649, 3889.758
1016.578, 3919.054
1018.506, 3949.266
1020.434, 3969.695
1022.363, 3974.146
1024.291, 3980.305
1026.220, 3991.344
1028.148, 4008.020
1030.077, 4031.493
1032.005, 4075.634
1033.934, 4108.410
1035.862, 4117.676
1037.791, 4119.955
1039.719, 4136.485
1041.648, 4169.302
1043.576, 4194.112
1045.505, 4205.763
1047.433, 4207.198
1049.361, 4197.348
1051.290, 4174.464
1053.218, 4160.292
1055.147, 4162.738
1057.075, 4168.635
1059.004, 4172.957
1060.932, 4175.765
1062.861, 4179.962
1064.789, 4185.206
1066.718, 4192.801
1068.646, 4201.980
1070.575, 4215.275
1072.503, 4236.030
1074.432, 4263.157
1076.360, 4302.734
1078.288, 4365.930
1080.217, 4439.188
1082.145, 4505.072
1084.074, 4556.849
1086.002, 4616.922
1087.931, 4693.468
1089.859, 4771.516
1091.788, 4839.426
1093.716, 4894.571
1095.645, 4943.208
1097.573, 4978.400
1099.502, 5012.525
1101.430, 5055.484
1103.359, 5104.034
1105.287, 5144.708
1107.215, 5177.649
1109.144, 5204.212
1111.072, 5220.280
1113.001, 5232.951
1114.929, 5257.086
1116.858, 5303.300
1118.786, 5341.149
1120.715, 5354.733
1122.643, 5364.434
1124.572, 5395.410
1126.500, 5458.654
1128.429, 5494.218
1130.357, 5472.398
1132.286, 5446.120
1134.214, 5451.189
1136.142, 5479.063
1138.071, 5492.826
1139.999, 5486.923
1141.928, 5472.807
1143.856, 5450.621
1145.785, 5424.976
1147.713, 5405.932
1149.642, 5399.370
1151.570, 5387.763
1153.499, 5369.844
1155.427, 5345.149
1157.356, 5311.564
1159.284, 5265.664
1161.213, 5223.849
1163.141, 5192.912
1165.069, 5159.987
1166.998, 5118.042
1168.926, 5069.156
1170.855, 5019.949
1172.783, 4971.647
1174.712, 4920.658
1176.640, 4864.435
1178.569, 4804.375
1180.497, 4739.647
1182.426, 4665.169
1184.354, 4602.475
1186.283, 4564.923
1188.211, 4530.118
1190.140, 4479.842
1192.068, 4412.478
1193.996, 4368.166
1195.925, 4367.805
1197.853, 4364.520
1199.782, 4341.443
1201.710, 4307.707
1203.639, 4281.013
1205.567, 4261.765
1207.496, 4248.229
1209.424, 4239.108
1211.353, 4236.295
1213.281, 4240.831
1215.210, 4252.102
1217.138, 4266.444
1219.067, 4292.429
1220.995, 4307.010
1222.923, 4296.589
1224.852, 4268.789
1226.780, 4245.605
1228.709, 4223.426
1230.637, 4213.995
1232.566, 4229.749
1234.494, 4251.534
1236.423, 4263.522
1238.351, 4265.232
1240.280, 4263.517
1242.208, 4255.193
1244.137, 4247.076
1246.065, 4238.926
1247.994, 4233.397
1249.922, 4236.734
1251.850, 4251.463
1253.779, 4266.194
1255.707, 4277.699
1257.636, 4288.178
1259.564, 4300.475
1261.493, 4314.744
1263.421, 4320.962
1265.350, 4308.245
1267.278, 4299.046
1269.207, 4301.425
1271.135, 4311.134
1273.064, 4320.006
1274.992, 4331.324
1276.921, 4337.925
1278.849, 4332.952
1280.777, 4330.190
1282.706, 4340.419
1284.634, 4361.963
1286.563, 4381.016
1288.491, 4397.073
1290.420, 4408.956
1292.348, 4411.376
1294.277, 4410.660
1296.205, 4414.563
1298.134, 4423.298
1300.062, 4431.024
1301.991, 4438.179
1303.919, 4442.806
1305.848, 4445.278
1307.776, 4445.462
1309.704, 4441.018
1311.633, 4427.296
1313.561, 4419.990
1315.490, 4426.272
1317.418, 4435.761
1319.347, 4440.800
1321.275, 4441.359
1323.204, 4441.453
1325.132, 4435.462
1327.061, 4436.321
1328.989, 4451.385
1330.918, 4472.831
1332.846, 4487.518
1334.775, 4493.454
1336.703, 4503.995
1338.631, 4522.697
1340.560, 4542.454
1342.488, 4563.694
1344.417, 4582.585
1346.345, 4588.395
1348.274, 4576.688
1350.202, 4572.061
1352.131, 4591.516
1354.059, 4611.485
1355.988, 4612.507
1357.916, 4596.878
1359.845, 4595.629
1361.773, 4617.378
1363.702, 4639.846
1365.630, 4656.725
1367.558, 4672.133
1369.487, 4689.471
1371.415, 4707.672
1373.344, 4731.488
1375.272, 4763.567
1377.201, 4796.947
1379.129, 4837.624
1381.058, 4875.386
1382.986, 4891.405
1384.915, 4881.100
1386.843, 4869.550
1388.772, 4858.748
1390.700, 4846.805
1392.629, 4828.745
1394.557, 4809.364
1396.485, 4801.274
1398.414, 4807.433
1400.342, 4807.298
1402.271, 4785.657
1404.199, 4768.410
1406.128, 4778.620
1408.056, 4806.503
1409.985, 4822.991
1411.913, 4824.747
1413.842, 4825.210
1415.770, 4824.104
1417.699, 4826.178
1419.627, 4834.128
1421.556, 4847.195
1423.484, 4862.917
1425.412, 4881.529
1427.341, 4900.603
1429.269, 4925.732
1431.198, 4946.776
1433.126, 4952.089
1435.055, 4941.347
1436.983, 4941.792
1438.912, 4965.419
1440.840, 4983.757
1442.769, 4987.273
1444.697, 4986.360
1446.626, 4992.773
1448.554, 5007.140
1450.483, 5011.631
1452.411, 4991.625
1454.339, 4983.504
1456.268, 5006.011
1458.196, 5037.294
1460.125, 5051.246
1462.053, 5048.338
1463.982, 5058.670
1465.910, 5097.580
1467.839, 5124.151
1469.767, 5111.027
1471.696, 5088.747
1473.624, 5092.063
1475.553, 5117.873
1477.481, 5136.773
1479.410, 5141.209
1481.338, 5148.418
1483.266, 5172.988
1485.195, 5196.533
1487.123, 5198.771
1489.052, 5182.330
1490.980, 5176.487
1492.909, 5193.252
1494.837, 5200.792
1496.766, 5168.962
1498.694, 5138.418
1500.623, 5153.309
1502.551, 5209.581
1504.480, 5238.278
1506.408, 5219.628
1508.337, 5206.366
1510.265, 5219.276
1512.193, 5236.619
1514.122, 5237.480
1516.050, 5223.009
1517.979, 5227.977
1519.907, 5271.187
1521.836, 5298.899
1523.764, 5289.323
1525.693, 5275.303
1527.621, 5281.633
1529.550, 5305.150
1531.478, 5321.675
1533.407, 5322.064
1535.335, 5330.890
1537.264, 5354.341
1539.192, 5380.292
1541.120, 5404.264
1543.049, 5424.393
1544.977, 5435.020
1546.906, 5422.133
1548.834, 5426.765
1550.763, 5469.163
1552.691, 5507.672
1554.620, 5527.707
1556.548, 5530.945
1558.477, 5515.560
1560.405, 5470.487
1562.334, 5448.173
1564.262, 5459.530
1566.191, 5480.484
1568.119, 5516.263
1570.048, 5550.126
1571.976, 5551.628
1573.905, 5517.917
1575.833, 5518.123
1577.761, 5576.241
1579.690, 5628.217
1581.618, 5657.791
1583.547, 5673.837
1585.475, 5678.248
1587.404, 5674.029
1589.332, 5680.780
1591.261, 5704.510
1593.189, 5723.756
1595.118, 5733.388
1597.046, 5740.016
1598.975, 5740.591
1600.903, 5743.123
1602.832, 5767.401
1604.760, 5816.412
1606.688, 5857.942
1608.617, 5880.355
1610.545, 5905.082
1612.474, 5946.570
1614.402, 5991.827
1616.331, 6019.810
1618.259, 6033.937
1620.188, 6071.736
1622.116, 6150.000
1624.045, 6216.179
1625.973, 6241.100
1627.902, 6259.174
1629.830, 6301.851
1631.759, 6355.745
1633.687, 6381.251
1635.615, 6371.205
1637.544, 6370.620
1639.472, 6404.369
1641.401, 6426.456
1643.329, 6405.754
1645.258, 6366.666
1647.186, 6340.031
1649.115, 6325.204
1651.043, 6309.122
1652.972, 6291.898
1654.900, 6268.775
1656.829, 6232.090
1658.757, 6193.534
1660.686, 6160.059
1662.614, 6131.881
1664.542, 6111.996
1666.471, 6102.846
1668.399, 6089.082
1670.328, 6061.884
1672.256, 6040.723
1674.185, 6042.262
1676.113, 6049.290
1678.042, 6039.382
1679.970, 6014.933
1681.899, 5995.951
1683.827, 5980.205
1685.756, 5980.704
1687.684, 6024.970
1689.613, 6059.504
1691.541, 6033.730
1693.469, 5981.679
1695.398, 5967.104
1697.326, 5991.304
1699.255, 6012.446
1701.183, 6024.193
1703.112, 6035.038
1705.040, 6055.981
1706.969, 6071.060
1708.897, 6062.507
1710.826, 6038.868
1712.754, 6023.408
1714.683, 6018.022
1716.611, 6013.243
1718.540, 5998.712
1720.468, 5997.414
1722.396, 6040.328
1724.325, 6085.277
1726.253, 6071.959
1728.182, 6015.402
1730.110, 6003.530
1732.039, 6055.497
1733.967, 6092.025
1735.896, 6082.650
1737.824, 6072.950
1739.753, 6084.726
1741.681, 6107.046
1743.610, 6126.247
1745.538, 6142.838
1747.467, 6162.196
1749.395, 6191.466
1751.323, 6209.177
1753.252, 6194.895
1755.180, 6187.469
1757.109, 6213.705
1759.037, 6254.715
1760.966, 6279.319
1762.894, 6284.587
1764.823, 6294.025
1766.751, 6316.587
1768.680, 6324.949
1770.608, 6303.765
1772.537, 6282.799
1774.465, 6279.688
1776.394, 6289.064
1778.322, 6304.391
1780.250, 6327.718
1782.179, 6340.506
1784.107, 6325.348
1786.036, 6324.868
1787.964, 6356.244
1789.893, 6385.448
1791.821, 6393.708
1793.750, 6389.708
1795.678, 6386.386
1797.607, 6384.190
1799.535, 6382.227
1801.464, 6378.688
1803.392, 6379.063
1805.321, 6381.761
1807.249, 6389.248
1809.177, 6403.619
1811.106, 6421.891
1813.034, 6443.411
1814.963, 6468.118
1816.891, 6482.030
1818.820, 6484.717
1820.748, 6480.422
1822.677, 6457.646
1824.605, 6446.558
1826.534, 6469.617
1828.462, 6500.380
1830.391, 6509.497
1832.319, 6502.930
1834.248, 6509.778
1836.176, 6533.933
1838.104, 6542.899
1840.033, 6513.655
1841.961, 6506.030
1843.890, 6572.334
1845.818, 6640.813
1847.747, 6646.253
1849.675, 6614.422
1851.604, 6596.505
1853.532, 6593.480
1855.461, 6599.437
1857.389, 6620.031
1859.318, 6636.458
1861.246, 6643.539
1863.175, 6646.254
1865.103, 6637.775
1867.031, 6631.084
1868.960, 6648.771
1870.888, 6688.748
1872.817, 6723.312
1874.745, 6760.777
1876.674, 6771.191
1878.602, 6720.748
1880.531, 6685.612
1882.459, 6706.195
1884.388, 6741.916
1886.316, 6759.567
1888.245, 6762.852
1890.173, 6760.116
1892.102, 6748.403
1894.030, 6743.836
1895.958, 6746.288
1897.887, 6754.999
1899.815, 6770.913
1901.744, 6788.571
1903.672, 6804.713
1905.601, 6819.070
1907.529, 6831.334
1909.458, 6841.521
1911.386, 6853.497
1913.315, 6869.253
1915.243, 6878.873
1917.172, 6883.194
1919.100, 6879.916
1921.029, 6863.456
1922.957, 6846.255
1924.885, 6831.992
1926.814, 6825.675
1928.742, 6839.247
1930.671, 6870.193
1932.599, 6893.583
1934.528, 6907.141
1936.456, 6914.145
1938.385, 6909.854
1940.313, 6903.859
1942.242, 6898.156
1944.170, 6892.924
1946.099, 6885.078
1948.027, 6880.686
1949.956, 6895.162
1951.884, 6931.975
1953.813, 6964.724
1955.741, 6997.802
1957.669, 7017.814
1959.598, 6999.025
1961.526, 6994.122
1963.455, 7032.934
1965.383, 7073.681
1967.312, 7077.736
1969.240, 7060.900
1971.169, 7064.890
1973.097, 7088.848
1975.026, 7093.123
1976.954, 7073.656
1978.883, 7056.221
1980.811, 7037.417
1982.740, 7041.157
1984.668, 7105.259
1986.596, 7166.038
1988.525, 7158.250
1990.453, 7118.122
1992.382, 7114.503
1994.310, 7144.826
1996.239, 7166.143
1998.167, 7175.395
2000.096, 7182.853
2002.024, 7186.960
2003.953, 7195.215
2005.881, 7215.610
2007.810, 7236.040
2009.738, 7251.954
2011.667, 7261.447
2013.595, 7255.446
2015.523, 7237.708
2017.452, 7241.540
2019.380, 7269.488
2021.309, 7288.980
2023.237, 7297.482
2025.166, 7297.738
2027.094, 7290.668
2029.023, 7278.225
2030.951, 7244.083
2032.880, 7221.416
2034.808, 7251.112
2036.737, 7311.040
2038.665, 7350.473
2040.594, 7367.344
2042.522, 7387.422
2044.450, 7412.863
2046.379, 7433.173
2048.307, 7449.591
2050.236, 7459.839
2052.164, 7466.424
2054.093, 7466.545
2056.021, 7455.411
2057.950, 7440.870
2059.878, 7430.309
2061.807, 7424.118
2063.735, 7421.804
2065.664, 7423.011
2067.592, 7445.710
2069.521, 7499.880
2071.449, 7536.916
2073.377, 7537.308
2075.306, 7536.535
2077.234, 7552.021
2079.163, 7566.491
2081.091, 7560.013
2083.020, 7548.854
2084.948, 7557.830
2086.877, 7582.071
2088.805, 7604.442
2090.734, 7629.756
2092.662, 7631.440
2094.591, 7598.969
2096.519, 7572.684
2098.448, 7551.666
2100.376, 7550.354
2102.304, 7589.942
2104.233, 7630.840
2106.161, 7645.329
2108.090, 7647.670
2110.018, 7648.643
2111.947, 7650.369
2113.875, 7659.800
2115.804, 7676.595
2117.732, 7712.547
2119.661, 7782.829
2121.589, 7832.565
2123.518, 7844.656
2125.446, 7857.302
2127.375, 7892.959
2129.303, 7913.932
2131.231, 7877.679
2133.160, 7838.580
2135.088, 7857.459
2137.017, 7907.760
2138.945, 7937.984
2140.874, 7949.334
2142.802, 7941.396
2144.731, 7914.201
2146.659, 7897.623
2148.588, 7900.608
2150.516, 7900.349
2152.445, 7884.858
2154.373, 7872.774
2156.302, 7872.625
2158.230, 7871.014
2160.158, 7848.997
2162.087, 7826.964
2164.015, 7842.845
2165.944, 7879.086
2167.872, 7876.349
2169.801, 7839.000
2171.729, 7820.056
2173.658, 7822.232
2175.586, 7842.551
2177.515, 7887.325
2179.443, 7920.710
2181.372, 7920.936
2183.300, 7919.072
2185.229, 7927.307
2187.157, 7934.878
2189.085, 7939.547
2191.014, 7938.723
2192.942, 7925.426
2194.871, 7907.625
2196.799, 7903.285
2198.728, 7912.787
2200.656, 7931.424
2202.585, 7961.339
2204.513, 7960.678
2206.442, 7913.336
2208.370, 7879.665
2210.299, 7877.678
2212.227, 7882.104
2214.156, 7891.577
2216.084, 7897.675
2218.012, 7892.856
2219.941, 7887.169
2221.869, 7892.383
2223.798, 7901.427
2225.726, 7897.744
2227.655, 7885.957
2229.583, 7894.148
2231.512, 7921.634
2233.440, 7934.653
2235.369, 7928.770
2237.297, 7930.303
2239.226, 7946.596
2241.154, 7957.591
2243.083, 7942.374
2245.011, 7943.042
2246.939, 7990.963
2248.868, 8036.042
2250.796, 8048.312
2252.725, 8044.111
2254.653, 8037.790
2256.582, 8027.646
2258.510, 8006.033
2260.439, 7979.709
2262.367, 7972.814
2264.296, 7984.565
2266.224, 7995.827
2268.153, 8006.146
2270.081, 8009.903
2272.010, 8000.060
2273.938, 7995.169
2275.866, 7999.186
2277.795, 8003.184
2279.723, 8002.736
2281.652, 8004.310
2283.580, 8017.894
2285.509, 8028.735
2287.437, 8018.898
2289.366, 8009.127
2291.294, 8034.394
2293.223, 8071.564
2295.151, 8060.548
2297.080, 8016.532
2299.008, 8031.958
2300.937, 8113.416
2302.865, 8158.371
2304.793, 8151.959
2306.722, 8148.115
2308.650, 8150.307
2310.579, 8149.823
2312.507, 8143.592
2314.436, 8142.168
2316.364, 8145.141
2318.293, 8161.706
2320.221, 8202.539
2322.150, 8250.392
2324.078, 8301.115
2326.007, 8344.211
2327.935, 8374.133
2329.864, 8384.828
2331.792, 8355.468
2333.720, 8299.517
2335.649, 8266.846
2337.577, 8254.993
2339.506, 8243.718
2341.434, 8232.463
2343.363, 8236.010
2345.291, 8260.702
2347.220, 8279.771
2349.148, 8284.310
2351.077, 8294.484
2353.005, 8325.590
2354.934, 8341.686
2356.862, 8317.004
2358.791, 8301.539
2360.719, 8327.107
2362.647, 8349.200
2364.576, 8331.219
2366.504, 8305.178
2368.433, 8302.995
2370.361, 8309.528
2372.290, 8297.409
2374.218, 8281.081
2376.147, 8304.762
2378.075, 8356.729
2380.004, 8357.927
2381.932, 8313.074
2383.861, 8301.213
2385.789, 8325.337
2387.718, 8334.133
2389.646, 8316.555
2391.574, 8311.977
2393.503, 8331.474
2395.431, 8352.794
2397.360, 8375.493
2399.288, 8397.639
2401.217, 8431.173
2403.145, 8445.239
2405.074, 8414.904
2407.002, 8385.879
2408.931, 8384.873
2410.859, 8393.673
2412.788, 8397.520
2414.716, 8405.225
2416.645, 8431.837
2418.573, 8463.194
2420.501, 8474.712
2422.430, 8474.228
2424.358, 8481.779
2426.287, 8495.104
2428.215, 8506.371
2430.144, 8516.646
2432.072, 8536.032
2434.001, 8567.852
2435.929, 8568.866
2437.858, 8519.380
2439.786, 8503.031
2441.715, 8534.118
2443.643, 8551.796
2445.572, 8549.333
2447.500, 8536.511
2449.428, 8510.116
2451.357, 8489.499
2453.285, 8486.709
2455.214, 8485.038
2457.142, 8474.010
2459.071, 8470.663
2460.999, 8489.909
2462.928, 8508.965
2464.856, 8504.290
2466.785, 8502.540
2468.713, 8530.184
2470.642, 8563.263
2472.570, 8578.496
2474.499, 8583.421
2476.427, 8593.332
2478.355, 8599.671
2480.284, 8575.968
2482.212, 8535.734
2484.141, 8520.915
2486.069, 8529.310
2487.998, 8555.092
2489.926, 8593.711
2491.855, 8614.505
2493.783, 8613.354
2495.712, 8609.750
2497.640, 8596.815
2499.569, 8608.150
2501.497, 8658.125
2503.426, 8665.408
2505.354, 8612.624
2507.282, 8585.660
2509.211, 8606.654
2511.139, 8634.754
2513.068, 8686.416
2514.996, 8703.034
2516.925, 8634.925
2518.853, 8589.769
2520.782, 8598.837
2522.710, 8621.550
2524.639, 8648.617
2526.567, 8674.668
2528.496, 8700.249
2530.424, 8719.094
2532.353, 8730.309
2534.281, 8732.199
2536.209, 8717.052
2538.138, 8702.223
2540.066, 8703.437
2541.995, 8713.064
2543.923, 8726.485
2545.852, 8740.479
2547.780, 8752.428
2549.709, 8761.165
2551.637, 8761.583
2553.566, 8758.492
2555.494, 8762.918
2557.423, 8772.036
2559.351, 8777.212
2561.280, 8780.337
2563.208, 8794.614
2565.136, 8813.962
2567.065, 8801.756
2568.993, 8762.915
2570.922, 8758.200
2572.850, 8790.038
2574.779, 8805.108
2576.707, 8804.325
2578.636, 8823.682
2580.564, 8865.699
2582.493, 8885.051
2584.421, 8870.717
2586.350, 8865.401
2588.278, 8875.586
2590.207, 8877.258
2592.135, 8866.121
2594.063, 8873.401
2595.992, 8909.094
2597.920, 8928.823
2599.849, 8913.788
2601.777, 8907.582
2603.706, 8927.161
2605.634, 8931.097
2607.563, 8901.891
2609.491, 8891.705
2611.420, 8927.495
2613.348, 8941.392
2615.277, 8890.611
2617.205, 8867.493
2619.134, 8930.673
2621.062, 8978.137
2622.990, 8964.669
2624.919, 8952.609
2626.847, 8962.119
2628.776, 8966.210
2630.704, 8928.583
2632.633, 8920.594
2634.561, 9005.325
2636.490, 9086.276
2638.418, 9127.123
2640.347, 9136.219
2642.275, 9082.999
2644.204, 9047.880
2646.132, 9094.342
2648.061, 9146.265
2649.989, 9153.651
2651.917, 9150.847
2653.846, 9174.020
2655.774, 9183.932
2657.703, 9125.409
2659.631, 9078.066
2661.560, 9112.938
2663.488, 9165.883
2665.417, 9188.049
2667.345, 9197.986
2669.274, 9215.605
2671.202, 9224.474
2673.131, 9200.774
2675.059, 9170.231
2676.988, 9144.049
2678.916, 9136.840
2680.844, 9181.340
2682.773, 9234.770
2684.701, 9244.445
2686.630, 9241.956
2688.558, 9266.057
2690.487, 9294.813
2692.415, 9300.444
2694.344, 9301.814
2696.272, 9321.226
2698.201, 9348.438
2700.129, 9381.173
2702.058, 9403.758
2703.986, 9383.084
2705.915, 9352.125
2707.843, 9341.329
2709.771, 9352.595
2711.700, 9415.015
2713.628, 9477.602
2715.557, 9452.144
2717.485, 9399.287
2719.414, 9400.116
2721.342, 9424.190
2723.271, 9447.369
2725.199, 9459.772
2727.128, 9430.741
2729.056, 9400.908
2730.985, 9442.404
2732.913, 9502.621
2734.842, 9513.067
2736.770, 9498.188
2738.698, 9474.271
2740.627, 9449.292
2742.555, 9429.959
2744.484, 9417.007
2746.412, 9421.629
2748.341, 9423.871
2750.269, 9408.704
2752.198, 9373.956
2754.126, 9292.559
2756.055, 9217.591
2757.983, 9225.261
2759.912, 9254.612
2761.840, 9237.059
2763.769, 9210.806
2765.697, 9213.824
2767.625, 9221.979
2769.554, 9202.797
2771.482, 9187.890
2773.411, 9217.874
2775.339, 9251.866
2777.268, 9252.261
2779.196, 9247.808
2781.125, 9262.610
2783.053, 9279.875
2784.982, 9294.967
2786.910, 9299.355
2788.839, 9273.507
2790.767, 9256.636
2792.696, 9273.987
2794.624, 9306.754
2796.552, 9364.562
2798.481, 9400.678
2800.409, 9354.563
2802.338, 9320.872
2804.266, 9350.142
2806.195, 9380.733
2808.123, 9389.600
2810.052, 9383.547
2811.980, 9361.162
2813.909, 9339.866
2815.837, 9331.088
2817.766, 9320.222
2819.694, 9295.725
2821.623, 9284.377
2823.551, 9293.567
2825.479, 9318.039
2827.408, 9375.115
2829.336, 9397.271
2831.265, 9353.445
2833.193, 9332.096
2835.122, 9358.158
2837.050, 9399.362
2838.979, 9469.879
2840.907, 9507.569
2842.836, 9506.935
2844.764, 9475.383
2846.693, 9403.820
2848.621, 9372.420
2850.550, 9408.953
2852.478, 9432.976
2854.406, 9440.154
2856.335, 9483.322
2858.263, 9563.109
2860.192, 9587.396
2862.120, 9543.630
2864.049, 9537.402
2865.977, 9569.399
2867.906, 9595.587
2869.834, 9615.388
2871.763, 9600.794
2873.691, 9566.305
2875.620, 9583.262
2877.548, 9633.032
2879.477, 9636.657
2881.405, 9614.753
2883.333, 9628.131
2885.262, 9653.454
2887.190, 9644.558
2889.119, 9621.543
2891.047, 9626.329
2892.976, 9631.008
2894.904, 9589.866
2896.833, 9540.622
2898.761, 9520.333
2900.690, 9512.548
2902.618, 9511.896
2904.547, 9506.159
2906.475, 9473.902
2908.404, 9454.888
2910.332, 9487.130
2912.260, 9515.963
2914.189, 9511.180
2916.117, 9503.983
2918.046, 9505.169
2919.974, 9505.389
2921.903, 9493.236
2923.831, 9498.914
2925.760, 9549.787
2927.688, 9573.175
2929.617, 9549.896
2931.545, 9547.468
2933.474, 9578.401
2935.402, 9603.819
2937.331, 9625.157
2939.259, 9615.592
2941.188, 9575.979
2943.116, 9568.094
2945.044, 9592.119
2946.973, 9600.380
2948.901, 9595.167
2950.830, 9591.279
2952.758, 9589.290
2954.687, 9590.694
2956.615, 9595.160
2958.544, 9594.099
2960.472, 9600.895
2962.401, 9653.742
2964.329, 9711.918
2966.258, 9721.852
2968.186, 9710.839
2970.115, 9700.535
2972.043, 9684.351
2973.971, 9648.828
2975.900, 9625.371
2977.828, 9637.550
2979.757, 9654.341
2981.685, 9656.452
2983.614, 9673.280
2985.542, 9729.346
2987.471, 9758.599
2989.399, 9738.768
2991.328, 9739.094
2993.256, 9779.196
2995.185, 9808.182
2997.113, 9826.448
2999.042, 9812.861
3000.970, 9771.008
3002.898, 9744.146
3004.827, 9736.122
3006.755, 9756.107
3008.684, 9795.668
3010.612, 9819.272
3012.541, 9830.468
3014.469, 9831.099
3016.398, 9831.046
3018.326, 9854.389
3020.255, 9877.114
3022.183, 9868.612
3024.112, 9857.063
3026.040, 9857.455
3027.969, 9869.863
3029.897, 9916.818
3031.825, 9933.325
3033.754, 9874.842
3035.682, 9855.349
3037.611, 9945.455
3039.539, 9987.362
3041.468, 9936.613
3043.396, 9939.938
3045.325, 10008.63
3047.253, 10050.53
3049.182, 10055.83
3051.110, 10058.00
3053.039, 10056.33
3054.967, 10048.68
3056.896, 10038.46
3058.824, 10031.98
3060.753, 10029.63
3062.681, 10023.30
3064.610, 10028.90
3066.538, 10077.08
3068.467, 10123.81
3070.395, 10127.21
3072.323, 10129.90
3074.252, 10164.60
3076.180, 10188.23
3078.109, 10180.47
3080.037, 10187.12
3081.966, 10235.48
3083.894, 10268.17
3085.823, 10278.96
3087.751, 10301.79
3089.680, 10338.62
3091.608, 10382.46
3093.537, 10430.40
3095.465, 10454.95
3097.394, 10465.53
3099.322, 10492.60
3101.250, 10525.87
3103.179, 10552.71
3105.107, 10573.57
3107.036, 10580.09
3108.964, 10593.58
3110.893, 10629.52
3112.821, 10675.86
3114.750, 10753.23
3116.678, 10787.98
3118.607, 10743.53
3120.535, 10749.20
3122.464, 10851.94
3124.392, 10908.84
3126.321, 10906.74
3128.249, 10939.71
3130.177, 10998.55
3132.106, 11018.74
3134.034, 11015.61
3135.963, 11030.06
3137.891, 11057.57
3139.820, 11104.24
3141.748, 11142.23
3143.677, 11125.09
3145.605, 11114.43
3147.534, 11129.93
3149.462, 11187.84
3151.391, 11327.47
3153.319, 11420.39
3155.248, 11417.90
3157.176, 11422.66
3159.104, 11440.40
3161.033, 11471.99
3162.961, 11519.90
3164.890, 11617.57
3166.818, 11741.41
3168.747, 11792.00
3170.675, 11813.57
3172.604, 11862.67
3174.532, 11935.34
3176.461, 12057.68
3178.389, 12156.64
3180.318, 12179.53
3182.246, 12200.16
3184.175, 12233.25
3186.103, 12300.17
3188.031, 12411.59
3189.960, 12483.79
3191.888, 12500.60
3193.817, 12581.78
3195.745, 12714.56
3197.674, 12788.07
3199.602, 12831.25
3201.531, 12906.24
3203.459, 12992.14
3205.388, 13075.38
3207.316, 13138.88
3209.245, 13148.62
3211.173, 13178.69
3213.102, 13275.34
3215.030, 13373.96
3216.958, 13472.81
3218.887, 13533.35
3220.815, 13543.35
3222.744, 13613.99
3224.672, 13738.79
3226.601, 13851.63
3228.529, 13947.84
3230.458, 13999.75
3232.386, 14051.63
3234.315, 14168.85
3236.243, 14293.78
3238.172, 14384.78
3240.100, 14479.67
3242.029, 14604.88
3243.957, 14711.65
3245.885, 14798.51
3247.814, 14844.28
3249.742, 14846.21
3251.671, 14935.75
3253.599, 15081.04
3255.528, 15122.03
3257.456, 15115.67
3259.385, 15130.00
3261.313, 15171.41
3263.242, 15270.76
3265.170, 15355.12
3267.099, 15368.61
3269.027, 15402.44
3270.956, 15480.88
3272.884, 15555.17
3274.813, 15620.72
3276.741, 15639.71
3278.669, 15623.84
3280.598, 15656.84
3282.526, 15710.46
3284.455, 15724.49
3286.383, 15737.25
3288.312, 15780.77
3290.240, 15849.16
3292.169, 15959.52
3294.097, 16035.88
3296.026, 16021.09
3297.954, 16049.55
3299.883, 16125.95
3301.811, 16147.45
3303.740, 16131.08
3305.668, 16201.82
3307.596, 16309.60
3309.525, 16365.06
3311.453, 16395.11
3313.382, 16387.40
3315.310, 16423.23
3317.239, 16557.38
3319.167, 16670.91
3321.096, 16731.11
3323.024, 16791.10
3324.953, 16854.95
3326.881, 16937.30
3328.810, 17041.90
3330.738, 17184.52
3332.667, 17338.22
3334.595, 17461.94
3336.523, 17577.61
3338.452, 17679.74
3340.380, 17813.54
3342.309, 18017.97
3344.237, 18158.95
3346.166, 18216.42
3348.094, 18345.91
3350.023, 18541.58
3351.951, 18703.39
3353.880, 18858.79
3355.808, 19053.72
3357.737, 19262.18
3359.665, 19472.09
3361.594, 19662.40
3363.522, 19813.58
3365.450, 19983.61
3367.379, 20195.42
3369.307, 20356.28
3371.236, 20481.13
3373.164, 20698.65
3375.093, 20960.86
3377.021, 21169.53
3378.950, 21340.05
3380.878, 21456.13
3382.807, 21598.22
3384.735, 21826.95
3386.664, 22030.15
3388.592, 22184.65
3390.521, 22408.33
3392.449, 22697.02
3394.377, 22909.15
3396.306, 23073.51
3398.234, 23218.07
3400.163, 23396.18
3402.091, 23708.49
3404.020, 23989.19
3405.948, 24157.58
3407.877, 24340.61
3409.805, 24559.37
3411.734, 24763.54
3413.662, 24947.78
3415.591, 25102.02
3417.519, 25242.62
3419.448, 25394.16
3421.376, 25564.81
3423.304, 25788.44
3425.233, 25986.43
3427.161, 26119.32
3429.090, 26308.36
3431.018, 26569.07
3432.947, 26796.82
3434.875, 26998.88
3436.804, 27230.44
3438.732, 27461.73
3440.661, 27671.99
3442.589, 27844.70
3444.518, 27958.92
3446.446, 28092.78
3448.375, 28276.10
3450.303, 28489.99
3452.231, 28729.48
3454.160, 28884.81
3456.088, 29021.34
3458.017, 29301.83
3459.945, 29563.99
3461.874, 29651.39
3463.802, 29751.92
3465.731, 29959.67
3467.659, 30132.23
3469.588, 30264.61
3471.516, 30358.71
3473.445, 30437.85
3475.373, 30563.40
3477.302, 30712.70
3479.230, 30874.15
3481.158, 31029.89
3483.087, 31166.19
3485.015, 31312.95
3486.944, 31472.95
3488.872, 31606.32
3490.801, 31727.00
3492.729, 31963.14
3494.658, 32196.81
3496.586, 32245.12
3498.515, 32303.91
3500.443, 32490.33
3502.372, 32641.65
3504.300, 32712.04
3506.229, 32799.86
3508.157, 32916.50
3510.085, 33109.90
3512.014, 33338.51
3513.942, 33554.51
3515.871, 33750.63
3517.799, 33908.72
3519.728, 34070.06
3521.656, 34245.48
3523.585, 34424.11
3525.513, 34600.73
3527.442, 34737.85
3529.370, 34851.17
3531.299, 34932.90
3533.227, 35042.42
3535.156, 35266.58
3537.084, 35395.94
3539.012, 35400.57
3540.941, 35419.99
3542.869, 35462.16
3544.798, 35546.82
3546.726, 35604.61
3548.655, 35543.73
3550.583, 35448.19
3552.512, 35353.11
3554.440, 35256.87
3556.369, 35164.27
3558.297, 35061.14
3560.226, 34948.44
3562.154, 34858.32
3564.083, 34705.64
3566.011, 34332.53
3567.939, 33992.57
3569.868, 33779.56
3571.796, 33536.04
3573.725, 33242.67
3575.653, 32873.87
3577.582, 32447.89
3579.510, 31996.32
3581.439, 31536.24
3583.367, 31081.55
3585.296, 30624.32
3587.224, 30181.04
3589.153, 29637.74
3591.081, 29015.38
3593.010, 28463.39
3594.938, 27958.32
3596.866, 27495.39
3598.795, 27013.96
3600.723, 26448.41
3602.652, 25976.66
3604.580, 25634.28
3606.509, 25232.58
3608.437, 24808.29
3610.366, 24476.68
3612.294, 24158.12
3614.223, 23766.95
3616.151, 23406.02
3618.080, 23120.77
3620.008, 22840.91
3621.937, 22557.77
3623.865, 22236.31
3625.793, 21895.79
3627.722, 21564.93
3629.650, 21228.39
3631.579, 20865.31
3633.507, 20530.97
3635.436, 20227.91
3637.364, 19900.38
3639.293, 19542.93
3641.221, 19115.44
3643.150, 18693.34
3645.078, 18360.36
3647.007, 17966.54
3648.935, 17471.44
3650.864, 17067.88
3652.792, 16737.80
3654.720, 16369.12
3656.649, 15982.92
3658.577, 15593.41
3660.506, 15219.92
3662.434, 14876.06
3664.363, 14514.69
3666.291, 14139.04
3668.220, 13788.07
3670.148, 13483.17
3672.077, 13279.76
3674.005, 13078.70
3675.934, 12828.31
3677.862, 12579.71
3679.791, 12339.22
3681.719, 12136.73
3683.647, 11960.53
3685.576, 11794.45
3687.504, 11636.35
3689.433, 11478.17
3691.361, 11356.05
3693.290, 11271.67
3695.218, 11146.90
3697.147, 11017.33
3699.075, 11005.12
3701.004, 10990.49
3702.932, 10888.73
3704.861, 10776.28
3706.789, 10666.04
3708.718, 10628.18
3710.646, 10625.49
3712.574, 10527.77
3714.503, 10444.69
3716.431, 10480.79
3718.360, 10482.10
3720.288, 10423.33
3722.217, 10355.50
3724.145, 10286.65
3726.074, 10235.23
3728.002, 10188.47
3729.931, 10129.68
3731.859, 10099.23
3733.788, 10103.62
3735.716, 10074.64
3737.645, 10026.64
3739.573, 10010.01
3741.501, 9991.790
3743.430, 9947.484
3745.358, 9897.771
3747.287, 9846.305
3749.215, 9832.208
3751.144, 9838.063
3753.072, 9819.055
3755.001, 9799.852
3756.929, 9808.819
3758.858, 9786.439
3760.786, 9729.168
3762.715, 9669.124
3764.643, 9624.313
3766.572, 9645.052
3768.500, 9668.583
3770.428, 9661.501
3772.357, 9636.180
3774.285, 9598.948
3776.214, 9642.526
3778.142, 9692.988
3780.071, 9605.300
3781.999, 9530.679
3783.928, 9554.366
3785.856, 9569.052
3787.785, 9572.163
3789.713, 9566.733
3791.642, 9560.410
3793.570, 9562.536
3795.499, 9564.228
3797.427, 9562.581
3799.355, 9557.524
3801.284, 9543.743
3803.212, 9496.485
3805.141, 9454.581
3807.069, 9450.853
3808.998, 9453.385
3810.926, 9455.124
3812.855, 9482.215
3814.783, 9513.178
3816.712, 9491.101
3818.640, 9469.477
3820.569, 9479.890
3822.497, 9473.235
3824.426, 9446.078
3826.354, 9446.585
3828.282, 9458.970
3830.211, 9470.343
3832.139, 9472.240
3834.068, 9461.146
3835.996, 9434.972
3837.925, 9406.096
3839.853, 9445.711
3841.782, 9481.177
3843.710, 9445.775
3845.639, 9406.249
3847.567, 9374.475
3849.496, 9380.521
3851.424, 9399.133
3853.353, 9378.931
3855.281, 9361.979
3857.209, 9367.704
3859.138, 9381.066
3861.066, 9396.656
3862.995, 9368.646
3864.923, 9337.752
3866.852, 9357.655
3868.780, 9406.129
3870.709, 9460.568
3872.637, 9462.258
3874.566, 9439.829
3876.494, 9432.757
3878.423, 9420.793
3880.351, 9391.102
3882.280, 9362.860
3884.208, 9345.491
3886.136, 9354.813
3888.065, 9366.789
3889.993, 9356.872
3891.922, 9354.938
3893.850, 9366.848
3895.779, 9351.787
3897.707, 9333.195
3899.636, 9331.663
3901.564, 9348.344
3903.493, 9385.564
3905.421, 9377.892
3907.350, 9337.587
3909.278, 9292.655
3911.207, 9277.604
3913.135, 9297.878
3915.063, 9278.016
3916.992, 9241.225
3918.920, 9254.432
3920.849, 9277.762
3922.777, 9261.991
3924.706, 9247.234
3926.634, 9255.223
3928.563, 9258.483
3930.491, 9262.847
3932.420, 9282.347
3934.348, 9297.334
3936.277, 9330.837
3938.205, 9318.151
3940.134, 9265.739
3942.062, 9250.410
3943.990, 9262.698
3945.919, 9304.579
3947.847, 9322.786
3949.776, 9315.608
3951.704, 9257.014
3953.633, 9206.297
3955.561, 9230.414
3957.490, 9246.723
3959.418, 9266.991
3961.347, 9252.105
3963.275, 9221.291
3965.204, 9199.615
3967.132, 9192.499
3969.061, 9217.859
3970.989, 9246.349
3972.917, 9258.437
3974.846, 9238.963
3976.774, 9212.014
3978.703, 9173.374
3980.631, 9185.262
3982.560, 9237.629
3984.488, 9202.366
3986.417, 9168.020
3988.345, 9217.925
3990.274, 9232.091
3992.202, 9202.916
3994.131, 9182.659
3996.059, 9165.682
3997.988, 9141.750
3999.916, 9126.857
4001.844, 9124.126
4003.773, 9132.431
4005.701, 9146.910
4007.630, 9150.167
4009.558, 9142.311
4011.487, 9119.277
4013.415, 9090.026
4015.344, 9065.732
4017.272, 9083.163
4019.201, 9086.228
4021.129, 9046.029
4023.058, 9026.574
4024.986, 9027.416
4026.915, 9054.102
4028.843, 9080.507
4030.771, 9044.101
4032.700, 9025.578
4034.628, 9069.012
4036.557, 9081.188
4038.485, 9059.089
4040.414, 9014.445
4042.342, 8996.625
4044.271, 9011.404
4046.199, 8953.265
4048.128, 8888.166
4050.056, 8917.779
4051.985, 8949.266
4053.913, 8931.308
4055.842, 8900.319
4057.770, 8874.853
4059.698, 8851.417
4061.627, 8856.630
4063.555, 8884.340
4065.484, 8893.661
4067.412, 8900.044
4069.341, 8884.378
4071.269, 8850.682
4073.198, 8867.165
4075.126, 8876.468
4077.055, 8852.150
4078.983, 8827.865
4080.912, 8815.622
4082.840, 8853.494
4084.769, 8885.096
4086.697, 8840.299
4088.625, 8790.237
4090.554, 8766.759
4092.482, 8777.516
4094.411, 8798.467
4096.339, 8803.121
4098.268, 8767.551
4100.196, 8734.858
4102.125, 8742.250
4104.053, 8739.515
4105.982, 8733.364
4107.910, 8739.931
4109.839, 8754.892
4111.767, 8741.457
4113.696, 8709.590
4115.624, 8697.409
4117.553, 8699.520
4119.481, 8692.716
4121.410, 8676.504
4123.338, 8671.242
4125.267, 8642.137
4127.195, 8611.928
4129.124, 8617.292
4131.052, 8604.715
4132.980, 8575.067
4134.909, 8594.332
4136.837, 8615.576
4138.766, 8587.018
4140.694, 8565.844
4142.623, 8563.492
4144.551, 8560.276
4146.479, 8540.629
4148.408, 8505.403
4150.336, 8485.727
4152.265, 8472.320
4154.193, 8473.335
4156.122, 8470.483
4158.050, 8437.051
4159.979, 8430.253
4161.907, 8451.695
4163.836, 8449.598
4165.764, 8431.271
4167.693, 8395.397
4169.621, 8395.158
4171.550, 8431.884
4173.478, 8438.205
4175.407, 8419.470
4177.335, 8380.967
4179.264, 8372.356
4181.192, 8388.932
4183.121, 8371.784
4185.049, 8351.430
4186.978, 8357.469
4188.906, 8350.271
4190.834, 8323.399
4192.763, 8325.606
4194.691, 8330.847
4196.620, 8309.003
4198.548, 8278.666
4200.477, 8248.284
4202.405, 8227.424
4204.333, 8220.098
4206.262, 8231.297
4208.190, 8254.192
4210.119, 8277.577
4212.047, 8250.715
4213.976, 8222.858
4215.904, 8242.625
4217.833, 8209.816
4219.761, 8148.467
4221.690, 8178.887
4223.618, 8206.123
4225.547, 8163.051
4227.475, 8160.656
4229.404, 8190.047
4231.332, 8230.287
4233.261, 8226.187
4235.189, 8138.572
4237.118, 8114.963
4239.046, 8142.211
4240.975, 8183.587
4242.903, 8206.490
4244.832, 8200.216
4246.760, 8139.606
4248.688, 8066.028
4250.617, 8048.524
4252.545, 8057.352
4254.474, 8084.379
4256.402, 8097.373
4258.331, 8090.393
4260.259, 8041.331
4262.188, 8014.499
4264.116, 8019.178
4266.044, 8025.675
4267.973, 8033.083
4269.901, 8047.626
4271.830, 8050.131
4273.758, 8040.307
4275.687, 8028.776
4277.615, 8008.598
4279.544, 7967.656
4281.472, 7936.693
4283.401, 7919.949
4285.329, 7924.502
4287.258, 7939.775
4289.186, 7963.959
4291.115, 7986.158
4293.043, 7997.967
4294.972, 7983.100
4296.900, 7951.802
4298.829, 7903.842
4300.757, 7887.972
4302.686, 7894.046
4304.614, 7917.963
4306.542, 7921.178
4308.471, 7897.383
4310.399, 7880.113
4312.328, 7872.787
4314.256, 7893.885
4316.185, 7881.061
4318.113, 7837.612
4320.042, 7791.435
4321.970, 7776.379
4323.898, 7843.013
4325.827, 7846.443
4327.755, 7803.368
4329.684, 7727.692
4331.612, 7712.974
4333.541, 7810.316
4335.469, 7839.136
4337.398, 7836.555
4339.326, 7848.338
4341.255, 7834.003
4343.183, 7790.927
4345.112, 7788.618
4347.040, 7777.298
4348.969, 7714.030
4350.897, 7707.832
4352.826, 7742.965
4354.754, 7757.636
4356.683, 7739.121
4358.611, 7677.704
4360.540, 7758.220
4362.468, 7848.634
4364.396, 7733.976
4366.325, 7688.073
4368.253, 7736.755
4370.182, 7736.766
4372.110, 7723.601
4374.039, 7721.089
4375.967, 7714.719
4377.896, 7704.771
4379.824, 7697.251
4381.752, 7687.818
4383.681, 7675.551
4385.609, 7673.120
4387.538, 7673.174
4389.466, 7673.119
4391.395, 7641.961
4393.323, 7589.369
4395.252, 7606.030
4397.180, 7627.321
4399.109, 7616.274
4401.037, 7603.331
4402.966, 7592.988
4404.894, 7590.258
4406.823, 7596.794
4408.751, 7611.354
4410.680, 7587.943
4412.608, 7554.329
4414.537, 7529.461
4416.465, 7501.358
4418.394, 7480.121
4420.322, 7505.144
4422.250, 7525.813
4424.179, 7527.251
4426.107, 7516.483
4428.036, 7496.830
4429.964, 7460.586
4431.893, 7454.840
4433.821, 7470.362
4435.750, 7456.610
4437.678, 7438.165
4439.606, 7426.246
4441.535, 7413.120
4443.463, 7406.300
4445.392, 7415.875
4447.320, 7428.524
4449.249, 7445.535
4451.177, 7505.148
4453.106, 7542.044
4455.034, 7526.883
4456.963, 7535.733
4458.891, 7539.037
4460.820, 7477.800
4462.748, 7455.396
4464.677, 7467.884
4466.605, 7411.558
4468.534, 7376.902
4470.462, 7424.241
4472.391, 7432.945
4474.319, 7428.447
4476.248, 7458.882
4478.176, 7448.361
4480.104, 7400.963
4482.033, 7401.451
4483.961, 7412.987
4485.890, 7421.649
4487.818, 7429.550
4489.747, 7424.767
4491.675, 7289.196
4493.604, 7348.751
4495.532, 7377.637
4497.460, 7377.500
4499.389, 7261.392
4501.317, 7295.033
4503.246, 7268.656
4505.174, 7315.825
4507.103, 7275.040
4509.031, 7270.113
4510.960, 7289.222
4512.888, 7280.730
4514.817, 7268.673
4516.745, 7258.932
4518.674, 7218.790
4520.602, 7193.331
4522.531, 7221.144
4524.459, 7241.968
4526.388, 7247.146
4528.316, 7212.811
4530.245, 7204.669
4532.173, 7230.108
4534.102, 7253.702
4536.030, 7263.733
4537.958, 7254.730
4539.887, 7231.386
4541.815, 7203.062
4543.744, 7177.696
4545.672, 7161.452
4547.601, 7155.479
4549.529, 7162.747
4551.458, 7167.495
4553.386, 7163.256
4555.314, 7135.773
4557.243, 7110.552
4559.171, 7106.687
4561.100, 7110.316
4563.028, 7115.937
4564.957, 7119.757
4566.885, 7123.570
4568.814, 7119.915
4570.742, 7057.519
4572.671, 7005.916
4574.599, 6993.384
4576.528, 7022.390
4578.456, 7054.798
4580.385, 7051.912
4582.313, 7073.813
4584.242, 7095.947
4586.170, 7045.809
4588.099, 7029.563
4590.027, 7050.227
4591.956, 7034.375
4593.884, 7008.487
4595.813, 6983.873
4597.741, 7003.952
4599.669, 7018.893
4601.598, 6973.438
4603.526, 6957.646
4605.455, 6961.164
4607.383, 6957.213
4609.312, 6956.051
4611.240, 6956.648
4613.168, 6939.533
4615.097, 6934.057
4617.025, 6953.407
4618.954, 6966.315
4620.882, 6949.720
4622.811, 6875.357
4624.739, 6881.729
4626.668, 6917.066
4628.596, 6896.986
4630.525, 6887.699
4632.453, 6878.060
4634.382, 6767.399
4636.310, 6762.195
4638.239, 6902.495
4640.167, 6865.893
4642.096, 6823.056
4644.024, 6854.094
4645.953, 6822.965
4647.881, 6775.525
4649.810, 6754.802
4651.738, 6774.025
4653.667, 6798.694
4655.595, 6752.303
4657.523, 6726.734
4659.452, 6728.542
4661.380, 6744.651
4663.309, 6717.733
4665.237, 6650.164
4667.166, 6706.084
4669.094, 6765.087
4671.022, 6756.219
4672.951, 6701.217
4674.879, 6655.780
4676.808, 6673.833
4678.736, 6670.351
4680.665, 6658.708
4682.593, 6685.894
4684.522, 6658.165
4686.450, 6595.439
4688.379, 6598.968
4690.307, 6612.286
4692.236, 6619.538
4694.164, 6592.973
4696.093, 6568.236
4698.021, 6560.130
4699.950, 6594.839
4701.878, 6623.707
4703.807, 6604.556
4705.735, 6620.896
4707.664, 6639.165
4709.592, 6625.161
4711.521, 6581.694
4713.449, 6538.905
4715.377, 6539.490
4717.306, 6585.481
4719.234, 6640.122
4721.163, 6570.096
4723.091, 6538.898
4725.020, 6559.729
4726.948, 6507.240
4728.876, 6487.880
4730.805, 6540.509
4732.733, 6501.303
4734.662, 6494.364
4736.590, 6585.816
4738.519, 6509.675
4740.447, 6420.091
4742.376, 6449.399
4744.304, 6468.185
4746.233, 6472.098
4748.161, 6458.050
4750.090, 6473.015
4752.018, 6489.882
4753.947, 6436.879
4755.875, 6449.536
4757.804, 6497.131
4759.732, 6443.195
4761.661, 6399.169
4763.589, 6388.506
4765.518, 6446.774
4767.446, 6439.638
4769.375, 6356.713
4771.303, 6367.644
4773.231, 6397.797
4775.160, 6416.434
4777.088, 6402.735
4779.017, 6387.636
4780.945, 6385.508
4782.874, 6376.708
4784.802, 6359.589
4786.730, 6328.230
4788.659, 6336.404
4790.587, 6343.425
4792.516, 6309.458
4794.444, 6303.790
4796.373, 6309.648
4798.301, 6291.785
4800.230, 6317.914
4802.158, 6344.581
4804.087, 6284.107
4806.015, 6288.381
4807.944, 6326.177
4809.872, 6294.715
4811.801, 6259.037
4813.729, 6239.298
4815.658, 6281.761
4817.586, 6291.963
4819.515, 6266.504
4821.443, 6245.998
4823.372, 6240.210
4825.300, 6245.641
4827.229, 6231.511
4829.157, 6212.192
4831.085, 6195.228
4833.014, 6194.808
4834.942, 6207.601
4836.871, 6229.291
4838.799, 6226.713
4840.728, 6200.638
4842.656, 6157.375
4844.584, 6161.994
4846.513, 6175.876
4848.441, 6181.688
4850.370, 6166.956
4852.298, 6147.627
4854.227, 6131.623
4856.155, 6148.917
4858.084, 6153.511
4860.012, 6118.212
4861.941, 6113.261
4863.869, 6124.660
4865.798, 6144.686
4867.726, 6137.810
4869.655, 6110.403
4871.583, 6066.935
4873.512, 6057.011
4875.440, 6052.366
4877.369, 6027.375
4879.297, 6015.196
4881.226, 6020.856
4883.154, 6049.053
4885.083, 6024.633
4887.011, 5996.268
4888.939, 6017.281
4890.868, 6015.231
4892.796, 6003.917
4894.725, 5994.038
4896.653, 5998.517
4898.582, 6005.004
4900.510, 6006.137
4902.438, 5967.643
4904.367, 5936.500
4906.295, 5952.776
4908.224, 5956.873
4910.152, 5951.356
4912.081, 5937.091
4914.009, 5991.706
4915.938, 6041.903
4917.866, 6023.544
4919.795, 6006.041
4921.723, 5980.687
4923.652, 5936.964
4925.580, 5953.686
4927.509, 5967.174
4929.437, 5919.145
4931.366, 5859.141
4933.294, 5843.184
4935.223, 5906.658
4937.151, 5890.874
4939.080, 5857.677
4941.008, 5853.518
4942.937, 5863.387
4944.865, 5853.246
4946.793, 5805.872
4948.722, 5782.756
4950.650, 5791.457
4952.579, 5832.002
4954.507, 5816.756
4956.436, 5790.587
4958.364, 5776.720
4960.292, 5822.481
4962.221, 5846.705
4964.149, 5824.192
4966.078, 5808.588
4968.006, 5810.028
4969.935, 5826.644
4971.863, 5813.120
4973.792, 5786.125
4975.720, 5760.753
4977.649, 5794.209
4979.577, 5803.189
4981.506, 5781.746
4983.434, 5799.099
4985.363, 5784.646
4987.291, 5745.870
4989.220, 5766.609
4991.148, 5731.100
4993.077, 5673.809
4995.005, 5734.113
4996.934, 5719.240
4998.862, 5670.154
5000.791, 5718.264
5002.719, 5710.291
5004.647, 5682.569
5006.576, 5712.061
5008.504, 5705.756
5010.433, 5679.127
5012.361, 5650.189
5014.290, 5655.816
5016.218, 5669.495
5018.146, 5671.006
5020.075, 5616.096
5022.003, 5596.395
5023.932, 5668.254
5025.860, 5653.656
5027.789, 5603.670
5029.717, 5548.762
5031.646, 5576.165
5033.574, 5590.641
5035.503, 5569.183
5037.431, 5547.500
5039.360, 5557.779
5041.288, 5593.351
5043.217, 5609.941
5045.145, 5596.698
5047.074, 5570.299
5049.002, 5570.273
5050.931, 5571.624
5052.859, 5562.706
5054.788, 5513.427
5056.716, 5540.522
5058.645, 5572.055
5060.573, 5523.456
5062.501, 5529.452
5064.430, 5540.182
5066.358, 5515.693
5068.287, 5479.712
5070.215, 5457.256
5072.144, 5458.961
5074.072, 5465.538
5076.000, 5484.602
5077.929, 5509.810
5079.857, 5499.286
5081.786, 5470.154
5083.714, 5433.710
5085.643, 5400.583
5087.571, 5392.911
5089.500, 5411.127
5091.428, 5460.207
5093.357, 5473.396
5095.285, 5460.347
5097.214, 5434.113
5099.142, 5449.433
5101.071, 5453.737
5102.999, 5406.967
5104.928, 5413.894
5106.856, 5423.018
5108.785, 5416.529
5110.713, 5410.454
5112.642, 5404.593
5114.570, 5397.655
5116.499, 5386.171
5118.427, 5374.739
5120.355, 5366.102
5122.284, 5360.867
5124.212, 5377.144
5126.141, 5380.812
5128.069, 5337.790
5129.998, 5343.428
5131.926, 5357.040
5133.854, 5353.252
5135.783, 5372.146
5137.711, 5366.605
5139.640, 5334.179
5141.568, 5337.499
5143.497, 5318.721
5145.425, 5300.032
5147.354, 5367.941
5149.282, 5360.022
5151.211, 5318.774
5153.139, 5303.209
5155.068, 5282.930
5156.996, 5269.585
5158.925, 5269.190
5160.853, 5267.246
5162.782, 5262.980
5164.710, 5257.834
5166.639, 5252.868
5168.567, 5254.932
5170.496, 5255.639
5172.424, 5232.734
5174.353, 5243.667
5176.281, 5244.847
5178.209, 5189.858
5180.138, 5217.604
5182.066, 5224.697
5183.995, 5163.821
5185.923, 5195.542
5187.852, 5199.394
5189.780, 5158.084
5191.708, 5113.445
5193.637, 5098.508
5195.565, 5105.872
5197.494, 5126.638
5199.422, 5129.619
5201.351, 5114.891
5203.279, 5083.172
5205.208, 5072.188
5207.136, 5074.870
5209.065, 5083.693
5210.993, 5081.728
5212.922, 5081.108
5214.850, 5088.593
5216.779, 5126.922
5218.707, 5087.818
5220.636, 5039.166
5222.564, 5030.596
5224.493, 5045.000
5226.421, 5063.544
5228.350, 5077.291
5230.278, 5078.595
5232.207, 5069.748
5234.135, 5059.377
5236.063, 5064.386
5237.992, 5044.120
5239.920, 5002.591
5241.849, 4949.629
5243.777, 5009.941
5245.706, 5028.638
5247.634, 4989.505
5249.563, 4997.757
5251.491, 5009.271
5253.419, 5005.033
5255.348, 4951.644
5257.276, 4986.666
5259.205, 5033.496
5261.133, 5046.494
5263.062, 5009.425
5264.990, 4989.850
5266.919, 4983.119
5268.847, 4937.337
5270.776, 4894.387
5272.704, 4875.514
5274.633, 4900.000
5276.561, 4919.875
5278.490, 4898.368
5280.418, 4846.588
5282.347, 4876.742
5284.275, 4897.901
5286.204, 4914.722
5288.132, 4973.702
5290.061, 4899.130
5291.989, 4841.575
5293.917, 4878.331
5295.846, 4824.192
5297.774, 4831.242
5299.703, 4878.061
5301.631, 4844.367
5303.560, 4835.525
5305.488, 4819.506
5307.417, 4763.715
5309.345, 4756.672
5311.273, 4809.742
5313.202, 4874.457
5315.130, 4776.688
5317.059, 4769.816
5318.987, 4803.597
5320.916, 4796.970
5322.844, 4774.847
5324.773, 4740.598
5326.701, 4709.793
5328.630, 4749.524
5330.558, 4796.283
5332.487, 4811.774
5334.415, 4761.530
5336.344, 4713.875
5338.272, 4702.676
5340.201, 4733.308
5342.129, 4803.902
5344.058, 4755.808
5345.986, 4672.304
5347.915, 4687.741
5349.843, 4693.989
5351.771, 4712.412
5353.700, 4739.757
5355.628, 4685.268
5357.557, 4652.496
5359.485, 4650.735
5361.414, 4667.224
5363.342, 4695.057
5365.271, 4703.190
5367.199, 4683.809
5369.127, 4657.275
5371.056, 4674.280
5372.984, 4688.848
5374.913, 4629.728
5376.841, 4639.535
5378.770, 4656.183
5380.698, 4649.003
5382.627, 4593.907
5384.555, 4616.470
5386.484, 4658.887
5388.412, 4646.011
5390.341, 4623.808
5392.269, 4593.604
5394.198, 4563.444
5396.126, 4560.373
5398.055, 4547.913
5399.983, 4553.221
5401.912, 4593.813
5403.840, 4563.358
5405.769, 4535.575
5407.697, 4532.721
5409.625, 4561.688
5411.554, 4563.021
5413.482, 4561.788
5415.411, 4571.436
5417.339, 4531.142
5419.268, 4527.397
5421.196, 4535.589
5423.125, 4496.563
5425.053, 4465.001
5426.981, 4464.253
5428.910, 4488.918
5430.838, 4497.362
5432.767, 4481.457
5434.695, 4460.266
5436.624, 4451.640
5438.552, 4455.444
5440.481, 4449.607
5442.409, 4443.587
5444.338, 4474.932
5446.266, 4447.141
5448.195, 4401.200
5450.123, 4370.882
5452.052, 4371.074
5453.980, 4425.919
5455.909, 4477.875
5457.837, 4460.399
5459.766, 4418.201
5461.694, 4417.717
5463.623, 4443.900
5465.551, 4392.389
5467.479, 4396.351
5469.408, 4393.396
5471.336, 4350.328
5473.265, 4367.509
5475.193, 4350.570
5477.122, 4344.734
5479.050, 4423.053
5480.979, 4346.784
5482.907, 4315.140
5484.835, 4353.096
5486.764, 4344.242
5488.692, 4317.907
5490.621, 4301.855
5492.549, 4306.889
5494.478, 4312.148
5496.406, 4299.623
5498.335, 4283.642
5500.263, 4279.133
5502.192, 4261.663
5504.120, 4242.247
5506.049, 4235.749
5507.977, 4276.852
5509.906, 4247.437
5511.834, 4229.209
5513.763, 4246.652
5515.691, 4246.926
5517.620, 4257.554
5519.548, 4268.656
5521.477, 4267.237
5523.405, 4212.985
5525.333, 4191.363
5527.262, 4199.451
5529.190, 4215.912
5531.119, 4216.074
5533.047, 4201.351
5534.976, 4179.337
5536.904, 4152.246
5538.833, 4201.429
5540.761, 4199.335
5542.689, 4137.807
5544.618, 4163.602
5546.546, 4165.354
5548.475, 4149.317
5550.403, 4129.508
5552.332, 4098.232
5554.260, 4136.982
5556.189, 4172.257
5558.117, 4136.564
5560.046, 4095.922
5561.974, 4110.572
5563.903, 4129.616
5565.831, 4059.378
5567.760, 4071.227
5569.688, 4061.007
5571.617, 4024.801
5573.545, 4012.198
5575.474, 4014.450
5577.402, 4010.944
5579.331, 4004.225
5581.259, 4024.726
5583.188, 3998.680
5585.116, 3987.317
5587.044, 4007.120
5588.973, 3976.126
5590.901, 3970.572
5592.830, 3971.864
5594.758, 3964.549
5596.687, 3963.231
5598.615, 3984.297
5600.543, 3999.981
5602.472, 3989.467
5604.400, 3961.866
5606.329, 3982.764
5608.257, 4017.969
5610.186, 4023.776
5612.114, 3993.942
5614.043, 3992.225
5615.971, 4004.685
5617.900, 4001.600
5619.828, 3997.999
5621.757, 3993.205
5623.685, 3989.863
5625.614, 3992.870
5627.542, 3991.585
5629.471, 3995.710
5631.399, 3995.467
5633.328, 3970.979
5635.256, 4009.070
5637.185, 4002.645
5639.113, 3965.711
5641.042, 3975.481
5642.970, 3909.137
5644.898, 3891.648
5646.827, 3918.496
5648.755, 3899.566
5650.684, 3910.059
5652.612, 3910.292
5654.541, 3899.682
5656.469, 3915.144
5658.397, 3898.169
5660.326, 3889.885
5662.254, 3897.326
5664.183, 3903.059
5666.111, 3914.548
5668.040, 3871.341
5669.968, 3809.168
5671.897, 3829.682
5673.825, 3886.567
5675.754, 3888.320
5677.682, 3840.519
5679.611, 3805.075
5681.539, 3841.810
5683.468, 3857.089
5685.396, 3830.302
5687.325, 3779.347
5689.253, 3804.451
5691.182, 3816.011
5693.110, 3803.323
5695.039, 3798.842
5696.967, 3818.419
5698.896, 3803.415
5700.824, 3778.460
5702.752, 3801.742
5704.681, 3741.053
5706.609, 3747.716
5708.538, 3801.518
5710.466, 3827.625
5712.395, 3798.894
5714.323, 3774.637
5716.251, 3756.241
5718.180, 3733.605
5720.108, 3748.239
5722.037, 3718.276
5723.965, 3693.526
5725.894, 3719.828
5727.822, 3703.725
5729.751, 3680.179
5731.679, 3671.071
5733.608, 3679.878
5735.536, 3661.699
5737.465, 3660.055
5739.393, 3656.858
5741.322, 3645.896
5743.250, 3652.292
5745.179, 3683.724
5747.107, 3689.160
5749.036, 3659.874
5750.964, 3628.377
5752.893, 3615.264
5754.821, 3609.626
5756.750, 3608.170
5758.678, 3613.014
5760.606, 3620.094
5762.535, 3634.901
5764.463, 3635.419
5766.392, 3599.846
5768.320, 3619.789
5770.249, 3616.432
5772.177, 3600.162
5774.105, 3591.655
5776.034, 3548.630
5777.962, 3553.853
5779.891, 3566.891
5781.819, 3558.699
5783.748, 3539.917
5785.676, 3502.619
5787.605, 3491.589
5789.533, 3518.672
5791.462, 3571.142
5793.390, 3548.596
5795.319, 3510.690
5797.247, 3492.838
5799.176, 3505.584
5801.104, 3460.458
5803.033, 3484.036
5804.961, 3508.910
5806.890, 3479.764
5808.818, 3508.750
5810.747, 3531.493
5812.675, 3530.906
5814.604, 3495.600
5816.532, 3381.428
5818.460, 3439.978
5820.389, 3449.502
5822.317, 3405.686
5824.246, 3434.010
5826.174, 3425.988
5828.103, 3404.544
5830.031, 3409.732
5831.959, 3455.474
5833.888, 3430.738
5835.816, 3447.497
5837.745, 3449.729
5839.673, 3427.567
5841.602, 3451.755
5843.530, 3413.724
5845.459, 3391.076
5847.387, 3391.184
5849.316, 3389.600
5851.244, 3401.950
5853.173, 3394.440
5855.101, 3370.394
5857.030, 3354.123
5858.958, 3408.043
5860.887, 3407.095
5862.815, 3379.870
5864.744, 3349.142
5866.672, 3321.422
5868.601, 3312.226
5870.529, 3316.385
5872.458, 3336.600
5874.386, 3367.170
5876.314, 3365.206
5878.243, 3327.430
5880.171, 3304.673
5882.100, 3302.260
5884.028, 3279.025
5885.957, 3315.702
5887.885, 3336.531
5889.813, 3313.436
5891.742, 3254.717
5893.670, 3250.098
5895.599, 3288.686
5897.527, 3319.859
5899.456, 3320.143
5901.384, 3286.927
5903.313, 3248.084
5905.241, 3247.493
5907.170, 3268.537
5909.098, 3281.159
5911.027, 3251.941
5912.955, 3226.620
5914.884, 3220.161
5916.812, 3221.192
5918.741, 3209.730
5920.669, 3282.127
5922.598, 3281.424
5924.526, 3227.131
5926.455, 3184.867
5928.383, 3230.619
5930.312, 3265.812
5932.240, 3237.055
5934.168, 3191.175
5936.097, 3195.640
5938.025, 3227.396
5939.954, 3234.554
5941.882, 3215.144
5943.811, 3191.970
5945.739, 3200.579
5947.667, 3190.707
5949.596, 3194.221
5951.524, 3194.733
5953.453, 3178.159
5955.381, 3169.380
5957.310, 3191.607
5959.238, 3197.285
5961.167, 3181.348
5963.095, 3163.416
5965.024, 3141.719
5966.952, 3141.348
5968.881, 3144.923
5970.809, 3145.346
5972.738, 3153.598
5974.666, 3127.636
5976.595, 3151.624
5978.523, 3155.288
5980.452, 3100.638
5982.380, 3094.239
5984.309, 3094.566
5986.237, 3110.732
5988.166, 3118.512
5990.094, 3095.584
5992.022, 3067.233
5993.951, 3104.771
5995.879, 3092.211
5997.808, 3045.606
5999.736, 3055.059
6001.665, 3041.562
6003.593, 3063.742
6005.521, 3060.559
6007.450, 3025.286
6009.379, 3010.487
6011.307, 3011.845
6013.236, 3052.573
6015.164, 3057.294
6017.093, 3025.643
6019.021, 3077.355
6020.950, 3026.318
6022.878, 3017.233
6024.807, 3029.732
6026.735, 3023.979
6028.664, 3004.025
6030.592, 3013.607
6032.521, 2971.731
6034.449, 2949.116
6036.377, 2991.988
6038.306, 2993.661
6040.234, 2997.275
6042.163, 3012.101
6044.091, 3013.760
6046.020, 2992.014
6047.948, 3003.167
6049.876, 3019.875
6051.805, 3018.821
6053.733, 3008.912
6055.662, 3003.442
6057.590, 2995.792
6059.519, 2985.362
6061.447, 3000.232
6063.376, 3002.799
6065.304, 2962.941
6067.233, 2948.687
6069.161, 2951.190
6071.090, 2954.603
6073.018, 2936.378
6074.947, 2899.063
6076.875, 2925.798
6078.804, 2917.136
6080.732, 2887.966
6082.661, 2895.243
6084.589, 2952.273
6086.518, 2946.564
6088.446, 2939.355
6090.375, 2914.785
6092.303, 2893.748
6094.231, 2897.320
6096.160, 2925.339
6098.088, 2915.323
6100.017, 2884.275
6101.945, 2880.252
6103.874, 2907.254
6105.802, 2903.045
6107.730, 2872.960
6109.659, 2873.862
6111.587, 2862.048
6113.516, 2833.642
6115.444, 2845.734
6117.373, 2813.753
6119.301, 2855.999
6121.230, 2862.200
6123.158, 2825.026
6125.087, 2834.797
6127.015, 2849.448
6128.944, 2843.575
6130.872, 2856.679
6132.801, 2859.336
6134.729, 2811.998
6136.658, 2824.228
6138.586, 2803.052
6140.515, 2834.680
6142.443, 2843.548
6144.372, 2782.016
6146.300, 2803.110
6148.229, 2780.171
6150.157, 2793.664
6152.085, 2807.557
6154.014, 2802.414
6155.942, 2817.000
6157.871, 2799.894
6159.799, 2797.111
6161.728, 2786.417
6163.656, 2774.977
6165.584, 2787.350
6167.513, 2803.522
6169.441, 2778.981
6171.370, 2743.078
6173.298, 2736.579
6175.227, 2761.744
6177.155, 2743.053
6179.084, 2781.980
6181.012, 2792.303
6182.941, 2790.028
6184.869, 2777.676
6186.798, 2733.301
6188.726, 2730.880
6190.655, 2714.979
6192.583, 2711.041
6194.512, 2715.687
6196.440, 2715.578
6198.369, 2719.332
6200.297, 2706.668
6202.226, 2700.598
6204.154, 2703.622
6206.083, 2710.858
6208.011, 2715.002
6209.939, 2686.129
6211.868, 2707.721
6213.796, 2704.821
6215.725, 2691.915
6217.653, 2701.513
6219.582, 2706.263
6221.510, 2696.955
6223.438, 2707.081
6225.367, 2707.927
6227.295, 2714.267
6229.224, 2747.628
6231.152, 2670.314
6233.081, 2657.768
6235.009, 2687.456
6236.938, 2679.469
6238.866, 2645.002
6240.795, 2700.521
6242.723, 2690.861
6244.652, 2677.528
6246.580, 2667.269
6248.509, 2661.680
6250.437, 2659.946
6252.366, 2647.343
6254.294, 2639.917
6256.223, 2610.290
6258.151, 2643.561
6260.080, 2692.259
6262.008, 2654.500
6263.937, 2642.918
6265.865, 2630.887
6267.793, 2621.308
6269.722, 2624.362
6271.650, 2628.343
6273.579, 2610.536
6275.507, 2608.659
6277.436, 2606.827
6279.364, 2666.265
6281.292, 2685.497
6283.221, 2630.535
6285.149, 2597.645
6287.078, 2607.774
6289.006, 2589.818
6290.935, 2595.301
6292.863, 2584.041
6294.792, 2564.941
6296.720, 2625.287
6298.649, 2553.887
6300.577, 2549.566
6302.506, 2568.662
6304.434, 2591.361
6306.363, 2599.666
6308.291, 2550.161
6310.220, 2540.353
6312.148, 2585.957
6314.077, 2613.135
6316.005, 2596.367
6317.934, 2560.481
6319.862, 2554.081
6321.791, 2547.388
6323.719, 2551.541
6325.647, 2539.248
6327.576, 2522.285
6329.504, 2516.474
6331.433, 2520.419
6333.361, 2517.255
6335.290, 2549.047
6337.218, 2538.529
6339.146, 2531.439
6341.075, 2544.459
6343.003, 2531.490
6344.932, 2528.715
6346.860, 2544.619
6348.789, 2543.085
6350.717, 2499.482
6352.646, 2448.249
6354.574, 2443.908
6356.503, 2469.797
6358.431, 2484.031
6360.360, 2478.214
6362.288, 2490.169
6364.217, 2491.616
6366.145, 2463.015
6368.074, 2508.875
6370.002, 2465.363
6371.931, 2458.318
6373.859, 2467.797
6375.788, 2460.618
6377.716, 2445.063
6379.645, 2462.549
6381.573, 2449.229
6383.501, 2467.593
6385.430, 2479.955
6387.358, 2486.737
6389.287, 2466.827
6391.215, 2413.082
6393.144, 2435.601
6395.072, 2468.330
6397.000, 2469.011
6398.929, 2454.377
6400.857, 2438.886
6402.786, 2427.414
6404.714, 2424.250
6406.643, 2434.901
6408.571, 2455.604
6410.500, 2442.396
6412.428, 2423.458
6414.357, 2414.884
6416.285, 2405.154
6418.214, 2392.732
6420.142, 2406.296
6422.071, 2403.679
6423.999, 2413.108
6425.928, 2409.952
6427.856, 2388.355
6429.785, 2390.767
6431.713, 2414.675
6433.642, 2424.859
6435.570, 2385.767
6437.499, 2386.727
6439.427, 2390.633
6441.355, 2353.388
6443.284, 2359.352
6445.212, 2320.617
6447.141, 2391.462
6449.069, 2371.010
6450.998, 2346.340
6452.926, 2370.074
6454.854, 2393.618
6456.783, 2375.353
6458.711, 2346.154
6460.640, 2321.091
6462.568, 2346.031
6464.497, 2355.423
6466.425, 2326.079
6468.354, 2306.675
6470.282, 2339.800
6472.211, 2338.514
6474.139, 2315.431
6476.068, 2324.190
6477.996, 2323.222
6479.925, 2323.269
6481.853, 2354.746
6483.782, 2314.105
6485.710, 2313.268
6487.639, 2320.838
6489.567, 2321.874
6491.496, 2317.998
6493.424, 2304.642
6495.353, 2283.021
6497.281, 2278.978
6499.209, 2290.258
6501.138, 2286.581
6503.066, 2300.916
6504.995, 2287.914
6506.923, 2287.701
6508.852, 2320.798
6510.780, 2280.294
6512.708, 2288.127
6514.637, 2267.618
6516.565, 2266.479
6518.494, 2274.229
6520.422, 2281.183
##END=



