##NAMES=Davidite-(La)
##RRUFFID=R070697
##IDEAL CHEMISTRY=La(Y,U)Fe_2_(Ti,Fe,Cr,V)_18_(O,OH,F)_38_
##LOCALITY=Pandora prospect, Covered Wells, Quijotoa District, Quijotoa Mts, Pima County, Arizona, USA
##OWNER=RRUFF
##SOURCE=Michael Scott
##DESCRIPTION=Small black fragments embedded in epoxy
##STATUS=The identification of this mineral is not yet confirmed
##URL=https://www.rruff.net/odr/rruff_sample/R070697
##FILETYPE=Raman Processed
##RAMAN WAVELENGTH=532

181.6360, 1442.934
183.5645, 1437.323
185.4929, 1437.771
187.4214, 1436.987
189.3499, 1433.436
191.2783, 1428.601
193.2068, 1425.767
195.1353, 1428.377
197.0637, 1430.294
198.9922, 1427.985
200.9207, 1416.726
202.8491, 1408.238
204.7776, 1404.846
206.7061, 1405.419
208.6345, 1406.730
210.5630, 1410.936
212.4915, 1414.439
214.4199, 1413.760
216.3484, 1406.860
218.2769, 1400.607
220.2053, 1397.440
222.1338, 1397.322
224.0623, 1396.094
225.9907, 1392.764
227.9192, 1388.728
229.8477, 1385.117
231.7761, 1380.879
233.7046, 1379.019
235.6331, 1381.003
237.5615, 1388.445
239.4900, 1393.608
241.4185, 1395.146
243.3469, 1394.972
245.2754, 1395.554
247.2039, 1397.516
249.1323, 1399.354
251.0608, 1399.731
252.9893, 1396.737
254.9177, 1398.496
256.8462, 1411.802
258.7747, 1427.998
260.7031, 1436.209
262.6316, 1428.418
264.5601, 1419.723
266.4885, 1414.916
268.4170, 1414.983
270.3455, 1415.278
272.2739, 1415.973
274.2024, 1416.607
276.1309, 1416.397
278.0593, 1414.048
279.9878, 1411.923
281.9163, 1410.614
283.8447, 1410.044
285.7732, 1410.628
287.7017, 1413.793
289.6301, 1418.089
291.5586, 1420.895
293.4871, 1424.479
295.4155, 1424.755
297.3440, 1416.813
299.2725, 1400.136
301.2009, 1389.040
303.1294, 1391.852
305.0579, 1401.525
306.9863, 1404.753
308.9148, 1396.294
310.8433, 1386.977
312.7717, 1379.173
314.7002, 1372.338
316.6287, 1370.544
318.5571, 1379.247
320.4856, 1392.442
322.4141, 1399.048
324.3425, 1395.232
326.2710, 1390.469
328.1995, 1387.011
330.1279, 1384.437
332.0564, 1385.840
333.9849, 1396.451
335.9133, 1409.506
337.8418, 1414.631
339.7703, 1408.982
341.6987, 1401.366
343.6272, 1394.105
345.5557, 1386.911
347.4841, 1382.009
349.4126, 1380.742
351.3411, 1380.978
353.2695, 1380.481
355.1980, 1379.323
357.1265, 1377.435
359.0549, 1374.223
360.9834, 1369.415
362.9119, 1366.563
364.8403, 1365.479
366.7688, 1366.162
368.6973, 1369.788
370.6257, 1378.556
372.5542, 1383.273
374.4827, 1379.331
376.4111, 1367.853
378.3396, 1360.195
380.2681, 1360.109
382.1965, 1360.369
384.1250, 1356.027
386.0535, 1345.968
387.9819, 1337.915
389.9104, 1334.423
391.8389, 1334.137
393.7673, 1333.300
395.6958, 1329.578
397.6243, 1327.500
399.5527, 1331.318
401.4812, 1341.901
403.4097, 1345.427
405.3381, 1331.718
407.2666, 1312.447
409.1951, 1305.207
411.1235, 1317.104
413.0520, 1328.817
414.9805, 1334.065
416.9089, 1333.688
418.8374, 1333.290
420.7659, 1333.436
422.6943, 1333.741
424.6228, 1333.561
426.5513, 1331.847
428.4797, 1332.195
430.4082, 1339.182
432.3367, 1349.642
434.2651, 1353.248
436.1936, 1340.719
438.1221, 1328.725
440.0505, 1326.128
441.9790, 1334.737
443.9075, 1338.700
445.8359, 1330.105
447.7644, 1317.109
449.6929, 1309.821
451.6213, 1315.481
453.5498, 1319.946
455.4783, 1319.911
457.4067, 1315.815
459.3352, 1313.010
461.2637, 1313.632
463.1921, 1314.260
465.1206, 1312.636
467.0491, 1306.833
468.9775, 1301.561
470.9060, 1296.164
472.8345, 1291.668
474.7629, 1290.103
476.6914, 1294.187
478.6199, 1297.399
480.5483, 1296.650
482.4768, 1290.069
484.4053, 1286.642
486.3337, 1288.637
488.2622, 1292.278
490.1907, 1294.006
492.1191, 1293.263
494.0476, 1292.533
495.9761, 1292.582
497.9045, 1293.230
499.8330, 1293.654
501.7615, 1293.396
503.6899, 1293.344
505.6184, 1294.190
507.5469, 1295.887
509.4753, 1297.024
511.4038, 1295.866
513.3323, 1294.719
515.2607, 1295.828
517.1892, 1302.936
519.1177, 1307.793
521.0461, 1308.138
522.9746, 1305.439
524.9031, 1303.469
526.8315, 1303.219
528.7600, 1302.970
530.6885, 1301.419
532.6169, 1297.209
534.5454, 1296.574
536.4739, 1301.625
538.4023, 1309.163
540.3308, 1316.882
542.2593, 1326.245
544.1877, 1331.688
546.1162, 1330.010
548.0447, 1323.204
549.9731, 1319.369
551.9016, 1320.327
553.8301, 1322.007
555.7585, 1322.342
557.6870, 1321.505
559.6155, 1323.089
561.5439, 1330.042
563.4724, 1338.138
565.4009, 1344.783
567.3293, 1350.828
569.2578, 1353.731
571.1863, 1351.467
573.1147, 1346.148
575.0432, 1340.849
576.9717, 1334.174
578.9001, 1329.990
580.8286, 1330.816
582.7571, 1336.649
584.6855, 1339.279
586.6140, 1333.329
588.5425, 1328.807
590.4709, 1332.733
592.3994, 1346.185
594.3279, 1355.627
596.2563, 1357.530
598.1848, 1355.109
600.1133, 1351.011
602.0417, 1342.087
603.9702, 1336.577
605.8987, 1338.654
607.8271, 1344.885
609.7556, 1348.428
611.6841, 1347.255
613.6125, 1345.310
615.5410, 1343.705
617.4695, 1342.467
619.3979, 1341.450
621.3264, 1338.123
623.2549, 1337.031
625.1833, 1342.421
627.1118, 1355.334
629.0403, 1364.479
630.9688, 1366.251
632.8972, 1364.160
634.8257, 1361.286
636.7542, 1355.097
638.6826, 1352.068
640.6111, 1355.941
642.5396, 1363.157
644.4680, 1367.021
646.3965, 1364.453
648.3250, 1362.692
650.2534, 1364.704
652.1819, 1370.450
654.1104, 1374.351
656.0388, 1374.895
657.9673, 1375.104
659.8958, 1376.904
661.8242, 1380.219
663.7527, 1382.214
665.6812, 1378.992
667.6096, 1376.446
669.5381, 1378.951
671.4666, 1394.019
673.3950, 1402.426
675.3235, 1399.236
677.2520, 1391.037
679.1804, 1385.920
681.1089, 1383.908
683.0374, 1384.997
684.9658, 1393.214
686.8943, 1404.813
688.8228, 1407.524
690.7512, 1389.129
692.6797, 1375.513
694.6082, 1377.000
696.5366, 1389.866
698.4651, 1398.762
700.3936, 1399.673
702.3220, 1399.663
704.2505, 1402.106
706.1790, 1407.805
708.1074, 1412.086
710.0359, 1416.741
711.9644, 1418.892
713.8928, 1413.516
715.8213, 1399.853
717.7498, 1393.273
719.6782, 1405.112
721.6067, 1420.359
723.5352, 1426.603
725.4636, 1418.903
727.3921, 1410.162
729.3206, 1397.081
731.2490, 1384.926
733.1775, 1383.005
735.1060, 1395.807
737.0344, 1405.103
738.9629, 1402.853
740.8914, 1393.642
742.8198, 1385.999
744.7483, 1381.930
746.6768, 1377.176
748.6052, 1370.190
750.5337, 1361.721
752.4622, 1354.934
754.3906, 1350.301
756.3191, 1346.551
758.2476, 1342.996
760.1760, 1339.739
762.1045, 1337.790
764.0330, 1340.538
765.9614, 1341.463
767.8899, 1336.839
769.8184, 1326.091
771.7468, 1319.304
773.6753, 1323.080
775.6038, 1324.746
777.5322, 1315.843
779.4607, 1296.599
781.3892, 1280.478
783.3176, 1271.056
785.2461, 1264.002
787.1746, 1257.223
789.1030, 1250.585
791.0315, 1244.733
792.9600, 1241.025
794.8884, 1237.163
796.8169, 1231.457
798.7454, 1223.856
800.6738, 1215.427
802.6023, 1207.698
804.5308, 1198.380
806.4592, 1185.048
808.3877, 1160.358
810.3162, 1144.192
812.2446, 1143.486
814.1731, 1147.626
816.1016, 1145.388
818.0300, 1136.224
819.9585, 1125.024
821.8870, 1110.982
823.8154, 1096.392
825.7439, 1083.885
827.6724, 1076.958
829.6008, 1066.029
831.5293, 1047.863
833.4578, 1026.381
835.3862, 1006.019
837.3147, 984.9734
839.2432, 969.8187
841.1716, 968.0349
843.1001, 970.9824
845.0286, 967.4413
846.9570, 953.6784
848.8855, 940.8052
850.8140, 931.0687
852.7424, 923.0975
854.6709, 914.7222
856.5994, 905.7982
858.5278, 896.8115
860.4563, 888.7595
862.3848, 880.2703
864.3132, 869.7608
866.2417, 856.9081
868.1702, 842.5388
870.0986, 824.7409
872.0271, 806.2658
873.9556, 791.4890
875.8840, 781.0466
877.8125, 773.5347
879.7410, 771.5764
881.6694, 771.5636
883.5979, 768.3832
885.5264, 761.3495
887.4548, 753.7909
889.3833, 744.8980
891.3118, 736.7271
893.2402, 732.2422
895.1687, 736.1370
897.0972, 735.9582
899.0256, 727.9723
900.9541, 716.7342
902.8826, 708.0909
904.8110, 702.1052
906.7395, 697.4725
908.6680, 695.4252
910.5964, 693.7834
912.5249, 690.1400
914.4534, 683.4904
916.3818, 678.1750
918.3103, 676.0805
920.2388, 674.7150
922.1672, 671.6779
924.0957, 666.0979
926.0242, 661.0272
927.9526, 657.2639
929.8811, 653.6024
931.8096, 648.6670
933.7380, 642.3124
935.6665, 637.3134
937.5950, 634.4879
939.5234, 633.0224
941.4519, 633.0073
943.3804, 635.5364
945.3088, 635.5009
947.2373, 630.3133
949.1658, 625.1114
951.0942, 624.5493
953.0227, 628.1981
954.9512, 625.9977
956.8796, 611.2794
958.8081, 597.7998
960.7366, 593.3028
962.6650, 596.8367
964.5935, 599.3336
966.5220, 599.4893
968.4504, 599.3223
970.3789, 599.1237
972.3074, 598.9808
974.2358, 599.4842
976.1643, 600.5892
978.0928, 602.2990
980.0212, 607.0820
981.9497, 611.9949
983.8782, 610.1003
985.8066, 596.5941
987.7351, 587.4575
989.6636, 592.4644
991.5920, 603.0924
993.5205, 605.6483
995.4490, 592.4844
997.3774, 582.7378
999.3059, 577.8860
1001.234, 576.7828
1003.163, 579.3327
1005.091, 586.4170
1007.020, 591.4658
1008.948, 593.2991
1010.877, 592.6714
1012.805, 588.9371
1014.734, 581.5984
1016.662, 578.3676
1018.591, 583.3900
1020.519, 589.9988
1022.448, 596.5661
1024.376, 603.2500
1026.304, 605.3377
1028.233, 596.8999
1030.161, 590.7988
1032.090, 594.7230
1034.018, 604.6367
1035.947, 607.7216
1037.875, 599.9862
1039.804, 593.2718
1041.732, 593.6509
1043.661, 597.2053
1045.589, 596.8752
1047.518, 588.7726
1049.446, 584.7261
1051.375, 590.0360
1053.303, 597.6216
1055.231, 599.0163
1057.160, 590.7072
1059.088, 588.2816
1061.017, 601.6155
1062.945, 613.6106
1064.874, 609.5974
1066.802, 592.1728
1068.731, 581.6973
1070.659, 585.4462
1072.588, 589.9904
1074.516, 588.6289
1076.445, 582.7725
1078.373, 580.8100
1080.302, 587.9666
1082.230, 592.7728
1084.158, 592.5021
1086.087, 589.1172
1088.015, 586.0394
1089.944, 583.3196
1091.872, 580.6347
1093.801, 575.2563
1095.729, 571.9116
1097.658, 576.7031
1099.586, 589.8987
1101.515, 596.1495
1103.443, 587.2066
1105.372, 577.0458
1107.300, 572.2152
1109.229, 572.4399
1111.157, 571.7502
1113.085, 568.7381
1115.014, 566.5233
1116.942, 565.8362
1118.871, 566.3843
1120.799, 567.3577
1122.728, 568.0794
1124.656, 571.1359
1126.585, 582.2875
1128.513, 592.1947
1130.442, 591.9401
1132.370, 581.2129
1134.299, 573.2678
1136.227, 572.0417
1138.156, 571.8248
1140.084, 569.6401
1142.012, 565.9133
1143.941, 564.5440
1145.869, 569.5561
1147.798, 571.8699
1149.726, 567.2194
1151.655, 559.9150
1153.583, 557.5051
1155.512, 561.0865
1157.440, 563.9108
1159.369, 565.8843
1161.297, 565.8956
1163.226, 560.6307
1165.154, 551.2172
1167.083, 549.7917
1169.011, 566.0417
1170.939, 577.7048
1172.868, 573.7452
1174.796, 559.6691
1176.725, 550.0075
1178.653, 545.4688
1180.582, 544.7203
1182.510, 550.6648
1184.439, 558.2296
1186.367, 562.5510
1188.296, 563.1061
1190.224, 564.1625
1192.153, 568.5167
1194.081, 570.4765
1196.010, 562.8384
1197.938, 551.2782
1199.866, 551.2562
1201.795, 569.0208
1203.723, 582.3083
1205.652, 580.7777
1207.580, 573.8141
1209.509, 569.1968
1211.437, 567.1325
1213.366, 566.6036
1215.294, 568.1895
1217.223, 570.5792
1219.151, 573.9029
1221.080, 577.7805
1223.008, 580.1716
1224.937, 579.8351
1226.865, 580.2109
1228.793, 583.7548
1230.722, 587.0700
1232.650, 585.2283
1234.579, 578.2845
1236.507, 575.1218
1238.436, 580.4027
1240.364, 584.8629
1242.293, 582.2219
1244.221, 575.3904
1246.150, 572.4271
1248.078, 574.8857
1250.007, 577.8885
1251.935, 581.2140
1253.864, 584.0706
1255.792, 585.8804
1257.720, 586.6695
1259.649, 586.1799
1261.577, 581.1628
1263.506, 578.7904
1265.434, 583.8000
1267.363, 592.5864
1269.291, 596.9178
1271.220, 595.9094
1273.148, 594.4122
1275.077, 592.1827
1277.005, 590.5879
1278.934, 591.4513
1280.862, 593.9660
1282.791, 594.3110
1284.719, 591.4745
1286.647, 588.0153
1288.576, 582.9396
1290.504, 578.7653
1292.433, 579.1928
1294.361, 585.4742
1296.290, 589.9340
1298.218, 590.0609
1300.147, 590.2675
1302.075, 593.4176
1304.004, 598.0117
1305.932, 599.0739
1307.861, 590.1925
1309.789, 587.3874
1311.718, 595.8791
1313.646, 606.8101
1315.574, 615.7302
1317.503, 622.0345
1319.431, 619.8092
1321.360, 602.1044
1323.288, 588.5360
1325.217, 588.0028
1327.145, 593.5941
1329.074, 598.3523
1331.002, 602.3066
1332.931, 603.7562
1334.859, 599.6569
1336.788, 597.1688
1338.716, 602.1012
1340.645, 610.2367
1342.573, 611.1061
1344.501, 600.9198
1346.430, 595.0065
1348.358, 599.2825
1350.287, 604.4161
1352.215, 605.2269
1354.144, 602.3743
1356.072, 600.3682
1358.001, 598.8695
1359.929, 598.7216
1361.858, 601.5941
1363.786, 604.6000
1365.715, 604.9582
1367.643, 602.6607
1369.572, 601.2963
1371.500, 600.2433
1373.428, 601.1219
1375.357, 607.0264
1377.285, 613.4799
1379.214, 614.1624
1381.142, 609.4026
1383.071, 608.8203
1384.999, 616.7368
1386.928, 623.4459
1388.856, 623.8605
1390.785, 620.9333
1392.713, 618.4617
1394.642, 616.5605
1396.570, 613.8610
1398.499, 606.8735
1400.427, 603.5498
1402.355, 610.8214
1404.284, 622.9781
1406.212, 627.0803
1408.141, 619.6787
1410.069, 613.9841
1411.998, 610.5219
1413.926, 609.4125
1415.855, 613.3856
1417.783, 619.7419
1419.712, 620.1639
1421.640, 608.3027
1423.569, 601.0032
1425.497, 598.8686
1427.426, 600.6982
1429.354, 609.1318
1431.282, 621.3226
1433.211, 626.0742
1435.139, 621.0626
1437.068, 616.1194
1438.996, 612.3362
1440.925, 609.4052
1442.853, 606.9164
1444.782, 605.1837
1446.710, 605.5106
1448.639, 608.8185
1450.567, 610.5674
1452.496, 607.3676
1454.424, 604.7133
1456.353, 607.1809
1458.281, 612.9086
1460.209, 617.1157
1462.138, 620.0450
1464.066, 619.6660
1465.995, 612.0596
1467.923, 604.7198
1469.852, 602.6855
1471.780, 604.5960
1473.709, 604.8744
1475.637, 602.4746
1477.566, 601.5100
1479.494, 606.3480
1481.423, 609.1230
1483.351, 602.9442
1485.280, 591.2581
1487.208, 587.2842
1489.136, 595.9203
1491.065, 600.9624
1492.993, 598.3569
1494.922, 595.1464
1496.850, 594.8066
1498.779, 596.4442
1500.707, 597.5905
1502.636, 597.7084
1504.564, 598.4270
1506.493, 600.2192
1508.421, 602.0519
1510.350, 604.9435
1512.278, 607.1445
1514.207, 604.2922
1516.135, 593.5147
1518.063, 587.6459
1519.992, 591.9955
1521.920, 595.0767
1523.849, 580.7727
1525.777, 591.7051
1527.706, 597.7541
1529.634, 599.1824
1531.563, 582.1495
1533.491, 588.9553
1535.420, 586.2075
1537.348, 583.0682
1539.277, 593.2290
1541.205, 578.8814
1543.134, 588.8313
1545.062, 589.0821
1546.990, 593.7720
1548.919, 588.8494
1550.847, 586.8959
1552.776, 594.5577
1554.704, 596.8955
1556.633, 590.8663
1558.561, 595.8384
1560.490, 581.1549
1562.418, 583.7194
1564.347, 593.7256
1566.275, 588.1799
1568.204, 593.3276
1570.132, 594.4027
1572.061, 576.9690
1573.989, 591.7239
1575.917, 592.5583
1577.846, 579.0994
1579.774, 592.7514
1581.703, 581.2629
1583.631, 578.7482
1585.560, 582.9864
1587.488, 583.7411
1589.417, 584.3987
1591.345, 584.6848
1593.274, 584.7826
1595.202, 584.8714
1597.131, 584.6703
1599.059, 583.5005
1600.988, 581.7739
1602.916, 581.9832
1604.844, 585.4486
1606.773, 585.9899
1608.701, 579.2773
1610.630, 573.3610
1612.558, 572.7042
1614.487, 574.8621
1616.415, 575.2668
1618.344, 573.5714
1620.272, 573.6583
1622.201, 577.0209
1624.129, 580.1314
1626.058, 582.8831
1627.986, 584.2411
1629.915, 582.1386
1631.843, 577.1702
1633.771, 575.9816
1635.700, 580.6354
1637.628, 583.4318
1639.557, 581.2399
1641.485, 579.0049
1643.414, 579.7211
1645.342, 581.4170
1647.271, 579.7052
1649.199, 573.5451
1651.128, 572.0313
1653.056, 580.8137
1654.985, 585.4990
1656.913, 577.7335
1658.842, 569.3380
1660.770, 571.0130
1662.698, 580.4519
1664.627, 585.2961
1666.555, 584.8380
1668.484, 581.9589
1670.412, 572.3063
1672.341, 566.0687
1674.269, 570.5093
1676.198, 577.9518
1678.126, 577.6431
1680.055, 569.1495
1681.983, 565.1342
1683.912, 566.7537
1685.840, 570.6824
1687.769, 581.1091
1689.697, 588.4725
1691.625, 585.9352
1693.554, 577.3976
1695.482, 570.2040
1697.411, 563.9603
1699.339, 562.0508
1701.268, 566.4492
1703.196, 572.0566
1705.125, 580.5731
1707.053, 586.9468
1708.982, 585.9327
1710.910, 579.8130
1712.839, 577.1591
1714.767, 578.8770
1716.696, 579.2977
1718.624, 576.7375
1720.552, 574.5480
1722.481, 573.1933
1724.409, 573.2007
1726.338, 575.3481
1728.266, 579.3419
1730.195, 584.3303
1732.123, 591.3353
1734.052, 593.9605
1735.980, 587.1147
1737.909, 582.1942
1739.837, 586.4285
1741.766, 592.7509
1743.694, 592.9151
1745.623, 588.6750
1747.551, 590.2844
1749.479, 599.9549
1751.408, 606.1424
1753.336, 606.2789
1755.265, 603.2155
1757.193, 595.8735
1759.122, 587.7435
1761.050, 581.9186
1762.979, 578.3617
1764.907, 577.1837
1766.836, 578.7354
1768.764, 580.9824
1770.693, 585.9406
1772.621, 587.5603
1774.550, 577.4564
1776.478, 566.7750
1778.406, 568.6572
1780.335, 579.8292
1782.263, 587.8011
1784.192, 591.9448
1786.120, 593.6194
1788.049, 590.8400
1789.977, 589.2162
1791.906, 592.3245
1793.834, 596.6485
1795.763, 598.0338
1797.691, 597.6833
1799.620, 601.9109
1801.548, 613.2412
1803.477, 615.1055
1805.405, 594.3342
1807.333, 580.5251
1809.262, 589.2912
1811.190, 601.9042
1813.119, 601.7808
1815.047, 593.5804
1816.976, 590.6949
1818.904, 594.2875
1820.833, 598.3801
1822.761, 605.3459
1824.690, 609.2990
1826.618, 608.1692
1828.547, 604.9429
1830.475, 600.5883
1832.404, 595.7634
1834.332, 591.0598
1836.260, 586.2063
1838.189, 585.4324
1840.117, 592.7504
1842.046, 596.6622
1843.974, 590.8970
1845.903, 588.1605
1847.831, 598.1682
1849.760, 610.3303
1851.688, 611.9581
1853.617, 604.5027
1855.545, 598.1910
1857.474, 592.4287
1859.402, 591.0861
1861.331, 597.1546
1863.259, 602.7991
1865.188, 605.3485
1867.116, 606.6067
1869.044, 607.8788
1870.973, 608.6699
1872.901, 607.4249
1874.830, 604.3532
1876.758, 603.6730
1878.687, 607.3862
1880.615, 606.7587
1882.544, 592.2402
1884.472, 583.8790
1886.401, 599.1627
1888.329, 619.5604
1890.258, 623.7206
1892.186, 616.2186
1894.115, 615.6722
1896.043, 623.8290
1897.971, 627.4419
1899.900, 623.6821
1901.828, 618.3024
1903.757, 609.5969
1905.685, 602.8187
1907.614, 600.7546
1909.542, 602.6996
1911.471, 609.6710
1913.399, 621.0012
1915.328, 626.0490
1917.256, 621.3562
1919.185, 618.6696
1921.113, 619.2111
1923.042, 620.6139
1924.970, 623.1057
1926.898, 625.5082
1928.827, 627.2814
1930.755, 628.3381
1932.684, 629.2583
1934.612, 629.7215
1936.541, 624.5354
1938.469, 611.2321
1940.398, 605.2925
1942.326, 613.3508
1944.255, 620.9388
1946.183, 621.9651
1948.112, 620.9672
1950.040, 620.8718
1951.969, 621.1106
1953.897, 620.7426
1955.825, 619.8097
1957.754, 618.2075
1959.682, 614.5944
1961.611, 615.2176
1963.539, 626.4412
1965.468, 633.9523
1967.396, 629.6962
1969.325, 625.0508
1971.253, 630.3799
1973.182, 638.9066
1975.110, 638.2424
1977.039, 629.1581
1978.967, 624.5997
1980.896, 625.0521
1982.824, 628.9252
1984.752, 642.0977
1986.681, 647.3754
1988.609, 630.9521
1990.538, 617.1020
1992.466, 620.9605
1994.395, 632.2010
1996.323, 640.8750
1998.252, 646.6971
2000.180, 647.9727
2002.109, 644.5530
2004.037, 641.7485
2005.966, 639.8668
2007.894, 639.3383
2009.823, 641.6614
2011.751, 643.5236
2013.679, 641.9139
2015.608, 640.8157
2017.536, 644.4601
2019.465, 651.0096
2021.393, 657.3216
2023.322, 663.4622
2025.250, 664.6741
2027.179, 658.0406
2029.107, 654.1984
2031.036, 656.2281
2032.964, 656.8978
2034.893, 653.6052
2036.821, 649.4970
2038.750, 643.7738
2040.678, 639.9691
2042.606, 644.6670
2044.535, 653.9197
2046.463, 655.8329
2048.392, 650.5064
2050.320, 648.1741
2052.249, 650.4416
2054.177, 652.7277
2056.106, 654.2867
2058.034, 655.5729
2059.963, 658.0002
2061.891, 658.7679
2063.820, 653.2532
2065.748, 646.8806
2067.677, 648.3566
2069.605, 655.7221
2071.533, 659.4895
2073.462, 659.3221
2075.390, 657.8814
2077.319, 654.2158
2079.247, 652.5979
2081.176, 653.5303
2083.104, 657.1393
2085.033, 668.0591
2086.961, 676.0151
2088.890, 671.5331
2090.818, 662.2935
2092.747, 655.1458
2094.675, 651.2098
2096.604, 656.2673
2098.532, 671.7302
2100.460, 678.6562
2102.389, 670.7162
2104.317, 666.7334
2106.246, 672.9713
2108.174, 674.4620
2110.103, 659.7481
2112.031, 649.7803
2113.960, 661.3468
2115.888, 677.0217
2117.817, 679.4129
2119.745, 673.4257
2121.674, 668.1044
2123.602, 663.7814
2125.531, 662.5785
2127.459, 664.8531
2129.387, 667.4540
2131.316, 670.4528
2133.244, 672.6776
2135.173, 674.0688
2137.101, 674.3997
2139.030, 671.8681
2140.958, 670.1699
2142.887, 673.4000
2144.815, 677.8445
2146.744, 677.9388
2148.672, 675.1959
2150.601, 675.2509
2152.529, 677.8877
2154.458, 678.4470
2156.386, 676.2224
2158.314, 676.3312
2160.243, 681.0277
2162.171, 683.7288
2164.100, 679.2167
2166.028, 677.1063
2167.957, 683.9440
2169.885, 691.5899
2171.814, 694.8439
2173.742, 694.7947
2175.671, 691.6369
2177.599, 686.5654
2179.528, 684.0042
2181.456, 683.9134
2183.385, 680.2285
2185.313, 672.1061
2187.241, 666.4257
2189.170, 663.3621
2191.098, 665.1714
2193.027, 675.8354
2194.955, 685.2261
2196.884, 690.7065
2198.812, 692.0938
2200.741, 684.6546
2202.669, 677.2221
2204.598, 681.7766
2206.526, 691.9294
2208.455, 693.4650
2210.383, 687.8452
2212.312, 688.2617
2214.240, 695.0850
2216.168, 695.2635
2218.097, 685.7986
2220.025, 683.8799
2221.954, 696.7807
2223.882, 705.3791
2225.811, 699.7434
2227.739, 694.6735
2229.668, 699.6489
2231.596, 702.9543
2233.525, 693.2699
2235.453, 680.4141
2237.382, 674.4321
2239.310, 674.3227
2241.239, 680.0103
2243.167, 689.9669
2245.095, 695.2902
2247.024, 695.8822
2248.952, 692.6509
2250.881, 684.4285
2252.809, 680.9534
2254.738, 687.7188
2256.666, 690.2386
2258.595, 678.5603
2260.523, 672.3159
2262.452, 682.6693
2264.380, 694.2117
2266.309, 698.0074
2268.237, 699.4097
2270.166, 704.6147
2272.094, 709.5241
2274.022, 706.3464
2275.951, 698.4438
2277.879, 693.3022
2279.808, 691.3095
2281.736, 696.4109
2283.665, 711.5005
2285.593, 716.9127
2287.522, 702.4473
2289.450, 688.1073
2291.379, 699.6063
2293.307, 706.2219
2295.236, 708.2168
2297.164, 691.7505
2299.093, 699.1230
2301.021, 696.9418
2302.949, 694.3689
2304.878, 705.0964
2306.806, 691.3153
2308.735, 701.8320
2310.663, 702.6493
2312.592, 707.9058
2314.520, 703.5498
2316.449, 702.1629
2318.377, 710.3913
2320.306, 713.2957
2322.234, 707.8332
2324.163, 713.3719
2326.091, 699.2550
2328.020, 702.3862
2329.948, 712.9589
2331.876, 707.9797
2333.805, 713.6942
2335.733, 715.3358
2337.662, 698.4689
2339.590, 713.7902
2341.519, 715.1913
2343.447, 702.2990
2345.376, 716.5176
2347.304, 705.5958
2349.233, 703.6476
2351.161, 708.4525
2353.090, 706.2177
2355.018, 715.0819
2356.947, 715.7794
2358.875, 716.1500
2360.803, 709.7934
2362.732, 710.5237
2364.660, 720.4995
2366.589, 722.2847
2368.517, 713.0884
2370.446, 711.3272
2372.374, 723.1746
2374.303, 725.7249
2376.231, 706.2659
2378.160, 693.8400
2380.088, 702.0583
2382.017, 711.0627
2383.945, 715.4285
2385.874, 716.4636
2387.802, 711.9827
2389.730, 707.6599
2391.659, 707.1039
2393.587, 709.3700
2395.516, 715.9943
2397.444, 722.9747
2399.373, 724.5288
2401.301, 721.9470
2403.230, 717.7247
2405.158, 712.1269
2407.087, 704.9302
2409.015, 696.0763
2410.944, 700.0717
2412.872, 717.5125
2414.801, 725.7553
2416.729, 722.9105
2418.657, 714.4274
2420.586, 697.1434
2422.514, 687.8144
2424.443, 694.5273
2426.371, 700.2267
2428.300, 701.6320
2430.228, 703.3797
2432.157, 705.6008
2434.085, 709.9291
2436.014, 722.0875
2437.942, 728.7340
2439.871, 714.9248
2441.799, 701.9223
2443.728, 707.3690
2445.656, 718.2512
2447.584, 725.1286
2449.513, 727.3123
2451.441, 719.8332
2453.370, 709.5715
2455.298, 710.2742
2457.227, 717.4102
2459.155, 720.4477
2461.084, 720.3685
2463.012, 722.3002
2464.941, 725.8478
2466.869, 724.6470
2468.798, 718.0464
2470.726, 713.3124
2472.655, 710.4175
2474.583, 709.6945
2476.511, 711.2349
2478.440, 714.6725
2480.368, 720.9327
2482.297, 725.1950
2484.225, 727.3583
2486.154, 726.2236
2488.082, 714.0963
2490.011, 711.8880
2491.939, 731.8594
2493.868, 744.2968
2495.796, 735.9923
2497.725, 726.3107
2499.653, 722.2498
2501.582, 721.5486
2503.510, 725.4072
2505.438, 729.2722
2507.367, 730.6509
2509.295, 730.3058
2511.224, 727.8107
2513.152, 724.9327
2515.081, 722.6719
2517.009, 721.4897
2518.938, 721.8751
2520.866, 723.7073
2522.795, 727.5910
2524.723, 732.3268
2526.652, 735.7747
2528.580, 737.9405
2530.509, 739.9453
2532.437, 740.4303
2534.365, 731.4724
2536.294, 716.5555
2538.222, 715.9554
2540.151, 728.4750
2542.079, 731.7461
2544.008, 724.7388
2545.936, 727.1797
2547.865, 739.6901
2549.793, 738.4656
2551.722, 721.4115
2553.650, 714.5825
2555.579, 723.3517
2557.507, 726.5922
2559.436, 715.2307
2561.364, 714.8174
2563.292, 731.5248
2565.221, 739.3561
2567.149, 732.6176
2569.078, 728.8934
2571.006, 734.8156
2572.935, 734.9532
2574.863, 718.8094
2576.792, 707.8714
2578.720, 707.7949
2580.649, 711.0004
2582.577, 718.6442
2584.506, 723.7957
2586.434, 723.0494
2588.363, 721.6570
2590.291, 721.3408
2592.219, 721.6087
2594.148, 722.8149
2596.076, 723.7612
2598.005, 722.3367
2599.933, 722.6699
2601.862, 729.5472
2603.790, 734.7923
2605.719, 730.2861
2607.647, 726.1462
2609.576, 730.4744
2611.504, 736.7965
2613.433, 742.5165
2615.361, 745.1450
2617.290, 740.2924
2619.218, 733.8210
2621.146, 729.4825
2623.075, 727.4561
2625.003, 730.7372
2626.932, 733.6428
2628.860, 725.9564
2630.789, 717.2870
2632.717, 721.3871
2634.646, 730.7181
2636.574, 738.4642
2638.503, 742.5847
2640.431, 736.6462
2642.360, 727.6929
2644.288, 728.0043
2646.217, 733.3241
2648.145, 736.1658
2650.073, 737.9985
2652.002, 742.6500
2653.930, 747.7488
2655.859, 748.4069
2657.787, 746.2532
2659.716, 744.3636
2661.644, 743.0070
2663.573, 744.2124
2665.501, 745.9592
2667.430, 741.1241
2669.358, 733.2099
2671.287, 730.9619
2673.215, 733.4830
2675.144, 740.0199
2677.072, 748.4517
2679.000, 749.9834
2680.929, 747.0010
2682.857, 748.6611
2684.786, 752.2874
2686.714, 747.0543
2688.643, 736.0519
2690.571, 731.8966
2692.500, 733.1350
2694.428, 732.6787
2696.357, 731.7048
2698.285, 735.5003
2700.214, 742.5790
2702.142, 747.9347
2704.071, 750.9681
2705.999, 746.8439
2707.927, 737.8937
2709.856, 736.6498
2711.784, 741.0963
2713.713, 744.3580
2715.641, 746.4758
2717.570, 747.8257
2719.498, 748.7371
2721.427, 751.9542
2723.355, 756.0387
2725.284, 751.6434
2727.212, 742.6070
2729.141, 744.4589
2731.069, 752.6393
2732.998, 749.7440
2734.926, 739.3184
2736.854, 734.2968
2738.783, 733.7419
2740.711, 734.2046
2742.640, 736.2415
2744.568, 743.5941
2746.497, 752.7827
2748.425, 751.3076
2750.354, 744.2672
2752.282, 748.6224
2754.211, 758.6346
2756.139, 759.1849
2758.068, 754.4236
2759.996, 752.9179
2761.925, 753.2054
2763.853, 752.2850
2765.781, 750.5973
2767.710, 747.1834
2769.638, 745.0682
2771.567, 753.6640
2773.495, 763.4677
2775.424, 754.6724
2777.352, 740.1763
2779.281, 743.0780
2781.209, 751.5978
2783.138, 746.2077
2785.066, 738.8306
2786.995, 746.5930
2788.923, 757.5195
2790.852, 757.0244
2792.780, 752.0580
2794.708, 747.5240
2796.637, 745.6044
2798.565, 749.8470
2800.494, 755.5544
2802.422, 760.4343
2804.351, 762.6340
2806.279, 754.8733
2808.208, 751.4737
2810.136, 769.1322
2812.065, 783.6218
2813.993, 777.0054
2815.922, 765.1280
2817.850, 753.0110
2819.779, 744.8630
2821.707, 743.7045
2823.635, 745.1403
2825.564, 748.8791
2827.492, 752.0078
2829.421, 753.2626
2831.349, 753.7463
2833.278, 752.8255
2835.206, 753.3457
2837.135, 757.5409
2839.063, 759.1958
2840.992, 754.0751
2842.920, 750.4441
2844.849, 749.4875
2846.777, 750.7986
2848.706, 755.1335
2850.634, 758.3367
2852.563, 759.7702
2854.491, 759.5422
2856.419, 755.1168
2858.348, 756.8101
2860.276, 765.9059
2862.205, 769.8705
2864.133, 767.5104
2866.062, 768.5712
2867.990, 774.3666
2869.919, 772.6385
2871.847, 763.5179
2873.776, 767.9287
2875.704, 782.3733
2877.633, 780.5703
2879.561, 766.3801
2881.490, 761.2513
2883.418, 762.4279
2885.346, 758.0152
2887.275, 752.0691
2889.203, 755.6148
2891.132, 763.7132
2893.060, 770.2642
2894.989, 773.1008
2896.917, 763.2490
2898.846, 753.5391
2900.774, 763.5227
2902.703, 774.9734
2904.631, 767.0309
2906.560, 758.1094
2908.488, 764.5176
2910.417, 773.4122
2912.345, 781.0934
2914.273, 783.0303
2916.202, 770.2421
2918.130, 761.7159
2920.059, 771.2399
2921.987, 774.5524
2923.916, 761.1008
2925.844, 755.9895
2927.773, 772.8925
2929.701, 782.5380
2931.630, 778.5101
2933.558, 772.2255
2935.487, 763.5709
2937.415, 759.1367
2939.344, 759.7391
2941.272, 765.2350
2943.200, 776.5085
2945.129, 781.8557
2947.057, 781.5676
2948.986, 775.6800
2950.914, 766.6727
2952.843, 768.6970
2954.771, 776.1944
2956.700, 766.3933
2958.628, 751.7864
2960.557, 762.5018
2962.485, 781.4316
2964.414, 789.4432
2966.342, 788.8829
2968.271, 773.8579
2970.199, 762.5401
2972.127, 772.7453
2974.056, 784.4171
2975.984, 786.2758
2977.913, 784.6173
2979.841, 781.0599
2981.770, 776.1567
2983.698, 767.2742
2985.627, 764.7307
2987.555, 776.5552
2989.484, 785.1156
2991.412, 789.5896
2993.341, 787.8012
2995.269, 778.9044
2997.198, 774.2383
2999.126, 774.7244
3001.054, 780.7186
3002.983, 791.3216
3004.911, 794.8889
3006.840, 792.4760
3008.768, 785.5798
3010.697, 778.1553
3012.625, 782.1597
3014.554, 789.0792
3016.482, 783.6294
3018.411, 776.2473
3020.339, 777.6033
3022.268, 780.4534
3024.196, 775.3051
3026.125, 776.5939
3028.053, 799.7326
3029.981, 811.8406
3031.910, 788.4637
3033.838, 772.8020
3035.767, 774.6888
3037.695, 778.7084
3039.624, 783.5139
3041.552, 786.9948
3043.481, 789.5200
3045.409, 784.6634
3047.338, 773.0380
3049.266, 772.7296
3051.195, 781.2925
3053.123, 786.0832
3055.052, 789.4126
3056.980, 802.5988
3058.908, 813.7414
3060.837, 796.8408
3062.765, 777.6675
3064.694, 786.2052
3066.622, 795.5843
3068.551, 781.2297
3070.479, 771.5115
3072.408, 782.2376
3074.336, 789.5257
3076.265, 780.6368
3078.193, 777.8571
3080.122, 785.1718
3082.050, 787.7402
3083.979, 783.2980
3085.907, 781.1518
3087.835, 781.6389
3089.764, 785.7090
3091.692, 792.2385
3093.621, 796.6880
3095.549, 799.9155
3097.478, 805.4366
3099.406, 809.1776
3101.335, 803.6744
3103.263, 795.9556
3105.192, 786.9609
3107.120, 784.6052
3109.049, 799.8534
3110.977, 811.7703
3112.906, 816.0693
3114.834, 812.0314
3116.762, 793.0604
3118.691, 782.3916
3120.619, 780.9041
3122.548, 791.5668
3124.476, 812.2567
3126.405, 820.6852
3128.333, 817.5486
3130.262, 798.9071
3132.190, 777.9971
3134.119, 783.9067
3136.047, 798.6555
3137.976, 806.8919
3139.904, 809.9523
3141.833, 806.2779
3143.761, 802.2866
3145.689, 799.3484
3147.618, 799.2592
3149.546, 804.4153
3151.475, 807.2542
3153.403, 807.1801
3155.332, 803.8574
3157.260, 797.3849
3159.189, 805.4798
3161.117, 822.4452
3163.046, 815.2621
3164.974, 798.9556
3166.903, 802.7566
3168.831, 810.1542
3170.760, 796.6783
3172.688, 787.5011
3174.616, 804.3833
3176.545, 817.7963
3178.473, 814.2711
3180.402, 808.0672
3182.330, 799.8867
3184.259, 796.4866
3186.187, 799.4946
3188.116, 802.0507
3190.044, 803.9142
3191.973, 798.6905
3193.901, 793.6243
3195.830, 812.9194
3197.758, 834.6853
3199.687, 824.5019
3201.615, 808.2221
3203.543, 799.6329
3205.472, 798.7402
3207.400, 813.6802
3209.329, 819.1406
3211.257, 807.8060
3213.186, 807.0095
3215.114, 823.2305
3217.043, 831.3403
3218.971, 831.5130
3220.900, 824.8520
3222.828, 815.2851
3224.757, 812.4074
3226.685, 811.4707
3228.614, 804.2238
3230.542, 799.3098
3232.470, 807.7351
3234.399, 810.5588
3236.327, 792.8251
3238.256, 784.0518
3240.184, 788.3692
3242.113, 795.7899
3244.041, 805.5410
3245.970, 810.8188
3247.898, 812.2842
3249.827, 810.8863
3251.755, 809.9724
3253.684, 817.3461
3255.612, 824.8787
3257.541, 824.6546
3259.469, 822.8846
3261.397, 820.9531
3263.326, 821.6265
3265.254, 828.2631
3267.183, 823.4616
3269.111, 805.4593
3271.040, 804.0384
3272.968, 816.2294
3274.897, 818.8494
3276.825, 815.8466
3278.754, 812.0840
3280.682, 810.5940
3282.611, 817.5388
3284.539, 822.6050
3286.468, 820.6041
3288.396, 817.8170
3290.324, 814.4420
3292.253, 815.9971
3294.181, 822.6099
3296.110, 817.7846
3298.038, 804.9164
3299.967, 802.7047
3301.895, 806.6651
3303.824, 809.8409
3305.752, 813.4230
3307.681, 821.9727
3309.609, 824.3917
3311.538, 812.6055
3313.466, 807.1721
3315.395, 813.8723
3317.323, 822.6967
3319.251, 832.9522
3321.180, 820.9938
3323.108, 799.5447
3325.037, 807.7341
3326.965, 824.2027
3328.894, 820.0759
3330.822, 813.2407
3332.751, 811.1725
3334.679, 814.6747
3336.608, 825.7805
3338.536, 836.6833
3340.465, 846.7539
3342.393, 847.4625
3344.322, 840.5285
3346.250, 831.1157
3348.178, 825.5504
3350.107, 839.8503
3352.035, 851.9543
3353.964, 840.2781
3355.892, 827.0655
3357.821, 817.6171
3359.749, 811.9515
3361.678, 809.5140
3363.606, 815.5788
3365.535, 827.6020
3367.463, 832.6287
3369.392, 832.3656
3371.320, 827.7575
3373.249, 822.8309
3375.177, 820.1801
3377.105, 819.2432
3379.034, 821.1677
3380.962, 820.1274
3382.891, 814.8432
3384.819, 822.5175
3386.748, 840.1876
3388.676, 842.5182
3390.605, 836.7015
3392.533, 833.2724
3394.462, 830.7319
3396.390, 827.6099
3398.319, 825.5607
3400.247, 824.8919
3402.176, 826.2988
3404.104, 830.2396
3406.032, 831.9161
3407.961, 832.3961
3409.889, 838.1674
3411.818, 843.2043
3413.746, 835.2082
3415.675, 827.3313
3417.603, 827.2118
3419.532, 829.9442
3421.460, 835.5634
3423.389, 837.1696
3425.317, 834.7096
3427.246, 840.9152
3429.174, 849.4777
3431.103, 837.2362
3433.031, 822.6163
3434.959, 823.1454
3436.888, 827.9420
3438.816, 833.0721
3440.745, 840.4135
3442.673, 852.0530
3444.602, 850.2948
3446.530, 838.6451
3448.459, 843.6684
3450.387, 853.1022
3452.316, 849.3752
3454.244, 841.8171
3456.173, 833.0002
3458.101, 829.8491
3460.030, 837.8635
3461.958, 844.6434
3463.886, 849.9733
3465.815, 853.5181
3467.743, 853.4609
3469.672, 840.5963
3471.600, 828.9669
3473.529, 829.2246
3475.457, 834.7119
3477.386, 846.8538
3479.314, 851.1891
3481.243, 846.9658
3483.171, 846.9327
3485.100, 849.5656
3487.028, 849.4982
3488.957, 848.6630
3490.885, 852.1588
3492.813, 848.2429
3494.742, 828.5094
3496.670, 821.7825
3498.599, 834.8065
3500.527, 833.0536
3502.456, 824.2615
3504.384, 842.4263
3506.313, 860.9654
3508.241, 844.1218
3510.170, 833.2268
3512.098, 845.7997
3514.027, 856.1406
3515.955, 860.9088
3517.884, 853.5630
3519.812, 841.0480
3521.740, 844.6243
3523.669, 852.8983
3525.597, 853.6626
3527.526, 854.7382
3529.454, 861.4383
3531.383, 861.7419
3533.311, 855.0189
3535.240, 858.2984
3537.168, 864.5054
3539.097, 847.9822
3541.025, 831.8951
3542.954, 839.1705
3544.882, 846.0500
3546.811, 842.1864
3548.739, 843.8349
3550.667, 850.9106
3552.596, 849.6705
3554.524, 844.0311
3556.453, 843.5988
3558.381, 842.5198
3560.310, 830.1426
3562.238, 831.6291
3564.167, 854.2567
3566.095, 864.6246
3568.024, 861.9116
3569.952, 861.4709
3571.881, 859.0154
3573.809, 841.8450
3575.738, 833.0621
3577.666, 852.4908
3579.594, 862.0797
3581.523, 855.2518
3583.451, 857.2942
3585.380, 864.7083
3587.308, 861.6713
3589.237, 855.0959
3591.165, 849.4639
3593.094, 845.8981
3595.022, 844.7209
3596.951, 844.8991
3598.879, 846.3970
3600.808, 857.3018
3602.736, 868.2490
3604.665, 860.5541
3606.593, 852.5928
3608.521, 856.4562
3610.450, 856.1118
3612.378, 846.5134
3614.307, 840.2822
3616.235, 837.7865
3618.164, 840.0752
3620.092, 845.8699
3622.021, 860.3246
3623.949, 864.4098
3625.878, 846.2314
3627.806, 844.2866
3629.735, 857.2167
3631.663, 854.1981
3633.592, 848.5011
3635.520, 867.7606
3637.448, 876.1732
3639.377, 850.9075
3641.305, 837.5622
3643.234, 841.6570
3645.162, 841.5945
3647.091, 840.5481
3649.019, 849.5635
3650.948, 854.6981
3652.876, 844.6120
3654.805, 838.2261
3656.733, 840.1738
3658.662, 845.9434
3660.590, 851.9985
3662.519, 845.5870
3664.447, 837.9028
3666.375, 835.2697
3668.304, 843.2607
3670.232, 870.9689
3672.161, 887.5650
3674.089, 892.1594
3676.018, 878.8064
3677.946, 863.0980
3679.875, 864.1741
3681.803, 865.0819
3683.732, 856.5995
3685.660, 856.5562
3687.589, 862.5603
3689.517, 855.6586
3691.446, 846.9805
3693.374, 852.9405
3695.302, 860.9796
3697.231, 869.0108
3699.159, 870.6598
3701.088, 865.8944
3703.016, 851.0418
3704.945, 837.5541
3706.873, 844.7528
3708.802, 855.9562
3710.730, 867.5876
3712.659, 873.5524
3714.587, 873.2240
3716.516, 855.8049
3718.444, 838.2629
3720.373, 851.7739
3722.301, 864.5252
3724.229, 858.9003
3726.158, 865.9234
3728.086, 884.4260
3730.015, 887.7020
3731.943, 881.1083
3733.872, 867.8832
3735.800, 854.7687
3737.729, 839.5912
3739.657, 847.1220
3741.586, 872.6398
3743.514, 870.7169
3745.443, 858.0786
3747.371, 853.5558
3749.300, 851.8885
3751.228, 852.2366
3753.156, 850.0795
3755.085, 847.6528
3757.013, 863.1857
3758.942, 879.5616
3760.870, 872.4409
3762.799, 869.9587
3764.727, 882.6912
3766.656, 889.5545
3768.584, 889.7966
3770.513, 879.7835
3772.441, 869.6073
3774.370, 869.5878
3776.298, 868.5125
3778.227, 864.3456
3780.155, 849.2981
3782.083, 832.5701
3784.012, 837.9098
3785.940, 851.3113
3787.869, 868.3854
3789.797, 873.8595
3791.726, 864.3251
3793.654, 860.4583
3795.583, 861.4450
3797.511, 871.2814
3799.440, 872.3047
3801.368, 854.6679
3803.297, 842.5281
3805.225, 838.5318
3807.154, 843.2203
3809.082, 852.8248
3811.010, 865.6105
3812.939, 876.2531
3814.867, 883.8052
3816.796, 885.1466
3818.724, 881.7736
3820.653, 878.0629
3822.581, 872.0413
3824.510, 857.8188
3826.438, 852.2321
3828.367, 856.8663
3830.295, 857.3160
3832.224, 857.7432
3834.152, 870.4054
3836.081, 878.3201
3838.009, 870.0255
3839.938, 866.6375
3841.866, 868.5969
3843.794, 871.8240
3845.723, 875.7831
3847.651, 878.7748
3849.580, 886.2583
3851.508, 901.6080
3853.437, 893.9328
3855.365, 876.3379
3857.294, 879.6803
3859.222, 882.4185
3861.151, 872.4440
3863.079, 864.8275
3865.008, 860.8889
3866.936, 859.5723
3868.865, 857.7628
3870.793, 848.7090
3872.721, 849.7043
3874.650, 866.3516
3876.578, 877.1638
3878.507, 881.7215
3880.435, 876.0724
3882.364, 868.0734
3884.292, 861.2056
3886.221, 856.2521
3888.149, 853.9635
3890.078, 867.3613
3892.006, 878.1649
3893.935, 863.3503
3895.863, 854.6543
3897.792, 857.3525
3899.720, 878.4752
3901.648, 900.6301
3903.577, 889.7699
3905.505, 875.5219
3907.434, 870.0939
3909.362, 854.2000
3911.291, 834.5034
3913.219, 839.3607
3915.148, 849.3776
3917.076, 853.5295
3919.005, 855.2825
3920.933, 854.6354
3922.862, 854.3373
3924.790, 853.7084
3926.719, 847.6629
3928.647, 846.4169
3930.575, 855.5804
3932.504, 859.1799
3934.432, 859.3603
3936.361, 857.1638
3938.289, 857.4709
3940.218, 862.6324
3942.146, 859.7755
3944.075, 853.5854
3946.003, 859.3962
3947.932, 861.4212
3949.860, 852.7545
3951.789, 848.5146
3953.717, 851.0259
3955.646, 852.8167
3957.574, 850.0988
3959.502, 846.2062
3961.431, 843.3098
3963.359, 842.2156
3965.288, 842.5389
3967.216, 841.8370
3969.145, 838.9440
3971.073, 839.3824
3973.002, 840.5049
3974.930, 847.4490
3976.859, 855.7229
3978.787, 860.8603
3980.716, 858.8297
3982.644, 834.2139
3984.573, 824.0854
3986.501, 838.6981
3988.429, 860.4789
3990.358, 865.2766
3992.286, 849.8712
3994.215, 845.6096
3996.143, 844.9756
3998.072, 838.8309
4000.000, 841.5652
4001.929, 846.4935
4003.857, 841.8041
4005.786, 831.3663
4007.714, 828.4517
4009.643, 838.0786
4011.571, 850.1229
4013.500, 846.7883
4015.428, 849.7637
4017.356, 856.2947
4019.285, 853.0568
4021.213, 853.4933
4023.142, 857.2076
4025.070, 853.6448
4026.999, 854.4357
4028.927, 851.4532
4030.856, 846.7926
4032.784, 850.9007
4034.713, 850.1388
4036.641, 838.0042
4038.570, 838.9819
4040.498, 850.4046
4042.427, 849.0896
4044.355, 841.8918
4046.283, 845.5184
4048.212, 848.5745
4050.140, 839.7779
4052.069, 840.2863
4053.997, 850.8347
4055.926, 853.1524
4057.854, 849.9633
4059.783, 850.1088
4061.711, 858.9676
4063.640, 863.3382
4065.568, 850.5552
4067.497, 844.5283
4069.425, 850.8203
4071.354, 839.0630
4073.282, 824.1879
4075.210, 837.5558
4077.139, 846.3185
4079.067, 840.4810
4080.996, 837.1949
4082.924, 831.4835
4084.853, 830.8243
4086.781, 833.2294
4088.710, 829.9789
4090.638, 824.8889
4092.567, 828.8333
4094.495, 839.0540
4096.424, 845.4910
4098.352, 845.6871
4100.280, 836.4719
4102.209, 822.8774
4104.138, 843.9720
4106.066, 863.2742
4107.994, 845.3218
4109.923, 835.7527
4111.852, 840.7305
4113.780, 839.7157
4115.708, 837.3150
4117.637, 836.8894
4119.565, 841.2884
4121.494, 851.3096
4123.422, 853.9122
4125.351, 850.2841
4127.279, 832.0243
4129.208, 832.7525
4131.136, 858.1428
4133.064, 861.6923
4134.993, 854.6129
4136.921, 845.4034
4138.850, 844.4971
4140.778, 853.9781
4142.707, 854.7897
4144.635, 852.0159
4146.563, 842.6146
4148.492, 843.1683
4150.421, 858.1940
4152.349, 863.3654
4154.277, 863.0281
4156.206, 859.9401
4158.135, 858.4177
4160.063, 860.1407
4161.991, 861.9419
4163.920, 861.0355
4165.849, 853.6912
4167.777, 856.6373
4169.705, 870.0455
4171.634, 857.9862
4173.563, 843.4797
4175.491, 855.4414
4177.419, 870.8691
4179.348, 883.4028
4181.276, 893.3029
4183.205, 898.2311
4185.133, 883.5050
4187.062, 873.4587
4188.990, 878.1389
4190.918, 865.3118
4192.847, 852.3618
4194.775, 865.8879
4196.704, 877.0410
4198.632, 879.8431
4200.561, 880.1949
4202.489, 882.7894
4204.418, 885.4679
4206.346, 893.3890
4208.274, 908.2315
4210.203, 903.7354
4212.132, 888.4736
4214.060, 864.9617
4215.988, 864.3395
4217.917, 886.6004
4219.846, 888.8469
4221.774, 885.5161
4223.702, 898.1179
4225.631, 891.1514
4227.560, 865.4225
4229.488, 888.5309
4231.416, 917.1642
4233.345, 913.8748
4235.273, 903.7570
4237.202, 894.3517
4239.130, 912.7780
4241.059, 930.2846
4242.987, 928.7751
4244.916, 917.9514
4246.844, 904.2670
4248.772, 903.8524
4250.701, 913.0749
4252.629, 940.0914
4254.558, 932.2089
4256.486, 909.0762
4258.415, 909.5845
4260.343, 916.6151
4262.271, 925.3723
4264.200, 940.6616
4266.129, 950.8616
4268.057, 929.8023
4269.985, 923.5999
4271.914, 941.6276
4273.843, 951.8328
4275.771, 956.2391
4277.699, 953.5483
4279.628, 954.9574
4281.557, 960.8645
4283.485, 966.3630
4285.413, 969.0998
4287.342, 966.8204
4289.271, 958.1130
4291.199, 950.7379
4293.127, 979.4044
4295.056, 997.7794
4296.984, 979.5757
4298.913, 969.4069
4300.841, 967.2219
4302.770, 981.0024
4304.698, 979.0031
4306.626, 951.1302
4308.555, 949.1399
4310.483, 961.4351
4312.412, 984.0181
4314.340, 989.9713
4316.269, 980.2302
4318.197, 991.2797
4320.126, 1001.413
4322.054, 997.7380
4323.982, 989.8630
4325.911, 981.6931
4327.840, 979.5870
4329.768, 984.7374
4331.696, 997.9457
4333.625, 999.1680
4335.554, 995.7795
4337.482, 999.0250
4339.410, 995.5151
4341.339, 984.8696
4343.268, 979.2838
4345.196, 975.7747
4347.124, 970.3909
4349.053, 978.4778
4350.981, 997.0163
4352.910, 1018.994
4354.838, 1035.139
4356.767, 1042.509
4358.695, 1032.782
4360.624, 1019.668
4362.552, 1021.505
4364.480, 1023.400
4366.409, 1022.594
4368.337, 1013.949
4370.266, 1011.306
4372.194, 1032.421
4374.123, 1033.219
4376.051, 1021.532
4377.979, 1016.732
4379.908, 1016.959
4381.837, 1022.534
4383.765, 1020.454
4385.693, 1018.333
4387.622, 1024.983
4389.551, 1029.801
4391.479, 1031.661
4393.407, 1029.048
4395.336, 1029.543
4397.265, 1036.654
4399.193, 1041.729
4401.121, 1041.861
4403.050, 1027.263
4404.979, 1027.240
4406.907, 1042.215
4408.835, 1049.377
4410.764, 1050.234
4412.692, 1044.357
4414.621, 1047.779
4416.549, 1051.535
4418.478, 1028.593
4420.406, 1024.520
4422.334, 1049.050
4424.263, 1038.870
4426.191, 1032.417
4428.120, 1072.295
4430.048, 1076.613
4431.977, 1055.327
4433.905, 1040.134
4435.834, 1031.896
4437.762, 1030.773
4439.690, 1039.843
4441.619, 1049.478
4443.548, 1051.517
4445.476, 1054.160
4447.404, 1058.795
4449.333, 1072.988
4451.262, 1070.672
4453.190, 1045.506
4455.118, 1041.903
4457.047, 1045.668
4458.976, 1041.854
4460.904, 1044.434
4462.832, 1050.583
4464.761, 1046.005
4466.689, 1049.990
4468.618, 1069.105
4470.546, 1067.846
4472.475, 1063.028
4474.403, 1069.245
4476.332, 1061.096
4478.260, 1046.379
4480.188, 1050.884
4482.117, 1049.552
4484.045, 1038.852
4485.974, 1056.873
4487.902, 1072.163
4489.831, 1052.315
4491.759, 1052.068
4493.688, 1059.771
4495.616, 1043.020
4497.545, 1037.960
4499.473, 1049.494
4501.401, 1050.530
4503.330, 1050.678
4505.259, 1054.979
4507.187, 1056.246
4509.115, 1055.853
4511.044, 1058.145
4512.973, 1051.267
4514.901, 1039.784
4516.829, 1050.316
4518.758, 1062.244
4520.687, 1066.956
4522.615, 1066.442
4524.543, 1066.741
4526.472, 1077.219
4528.400, 1066.182
4530.329, 1044.624
4532.257, 1046.019
4534.186, 1047.543
4536.114, 1045.458
4538.042, 1058.994
4539.971, 1066.828
4541.899, 1049.319
4543.828, 1053.268
4545.756, 1063.163
4547.685, 1055.771
4549.613, 1042.059
4551.542, 1028.283
4553.470, 1036.263
4555.398, 1043.653
4557.327, 1043.771
4559.256, 1039.878
4561.184, 1037.613
4563.112, 1039.232
4565.041, 1055.779
4566.970, 1076.041
4568.898, 1079.678
4570.826, 1080.747
4572.755, 1080.619
4574.684, 1072.476
4576.612, 1067.946
4578.540, 1070.348
4580.469, 1068.272
4582.397, 1058.772
4584.326, 1032.135
4586.254, 1039.040
4588.183, 1059.787
4590.111, 1053.267
4592.040, 1052.392
4593.968, 1062.561
4595.896, 1102.538
4597.825, 1104.880
4599.753, 1055.832
4601.682, 1054.411
4603.610, 1062.411
4605.539, 1048.699
4607.467, 1036.757
4609.396, 1031.719
4611.324, 1044.344
4613.253, 1047.942
4615.181, 1044.388
4617.109, 1047.966
4619.038, 1058.455
4620.967, 1071.894
4622.895, 1058.471
4624.823, 1045.989
4626.752, 1052.072
4628.681, 1057.968
4630.609, 1058.176
4632.537, 1044.823
4634.466, 1043.019
4636.395, 1045.634
4638.323, 1032.464
4640.251, 1031.329
4642.180, 1041.030
4644.108, 1037.177
4646.037, 1039.457
4647.965, 1053.928
4649.894, 1050.094
4651.822, 1049.300
4653.750, 1062.836
4655.679, 1058.410
4657.607, 1051.946
4659.536, 1066.835
4661.464, 1060.020
4663.393, 1044.572
4665.321, 1046.546
4667.250, 1063.411
4669.178, 1084.284
4671.106, 1069.543
4673.035, 1052.473
4674.964, 1044.094
4676.892, 1061.224
4678.820, 1073.518
4680.749, 1065.401
4682.678, 1047.721
4684.606, 1041.676
4686.534, 1065.219
4688.463, 1059.632
4690.392, 1045.507
4692.320, 1058.021
4694.248, 1053.457
4696.177, 1041.702
4698.105, 1056.609
4700.034, 1056.108
4701.962, 1042.032
4703.891, 1050.508
4705.819, 1054.014
4707.748, 1047.658
4709.676, 1073.212
4711.604, 1080.883
4713.533, 1048.502
4715.461, 1067.760
4717.390, 1087.522
4719.318, 1073.647
4721.247, 1066.091
4723.175, 1059.781
4725.104, 1042.705
4727.032, 1045.366
4728.961, 1057.616
4730.889, 1065.311
4732.817, 1055.853
4734.746, 1041.411
4736.675, 1050.993
4738.603, 1069.835
4740.531, 1088.957
4742.460, 1083.480
4744.389, 1066.311
4746.317, 1046.264
4748.245, 1053.002
4750.174, 1063.568
4752.103, 1068.544
4754.031, 1087.645
4755.959, 1088.120
4757.888, 1054.308
4759.816, 1056.050
4761.745, 1068.516
4763.673, 1072.029
4765.602, 1066.007
4767.530, 1062.321
4769.458, 1075.464
4771.387, 1066.490
4773.315, 1048.126
4775.244, 1035.801
4777.172, 1045.334
4779.101, 1062.335
4781.029, 1056.765
4782.958, 1058.017
4784.886, 1064.423
4786.814, 1059.734
4788.743, 1064.156
4790.672, 1074.341
4792.600, 1061.560
4794.528, 1055.289
4796.457, 1059.574
4798.386, 1063.020
4800.314, 1063.929
4802.242, 1063.381
4804.171, 1076.511
4806.100, 1086.139
4808.028, 1087.130
4809.956, 1093.909
4811.885, 1094.403
4813.813, 1083.073
4815.742, 1082.658
4817.670, 1082.642
4819.599, 1077.624
4821.527, 1080.146
4823.456, 1078.362
4825.384, 1062.378
4827.313, 1063.566
4829.241, 1070.712
4831.169, 1075.885
4833.098, 1068.589
4835.026, 1064.384
4836.955, 1083.041
4838.883, 1072.519
4840.812, 1059.512
4842.740, 1072.082
4844.669, 1071.602
4846.597, 1062.874
4848.525, 1051.801
4850.454, 1043.838
4852.383, 1048.802
4854.311, 1082.668
4856.239, 1090.163
4858.168, 1081.906
4860.097, 1078.625
4862.025, 1065.676
4863.953, 1054.954
4865.882, 1066.660
4867.811, 1069.446
4869.739, 1066.989
4871.667, 1070.929
4873.596, 1073.946
4875.524, 1070.699
4877.453, 1046.497
4879.381, 1062.277
4881.310, 1089.947
4883.238, 1062.838
4885.167, 1056.719
4887.095, 1068.944
4889.023, 1093.000
4890.952, 1079.287
4892.880, 1054.819
4894.809, 1077.907
4896.737, 1091.554
4898.666, 1092.731
4900.594, 1083.774
4902.522, 1078.919
4904.451, 1076.160
4906.380, 1067.465
4908.308, 1076.686
4910.236, 1090.852
4912.165, 1086.272
4914.094, 1079.742
4916.022, 1073.174
4917.950, 1064.464
4919.879, 1078.119
4921.808, 1095.473
4923.736, 1083.621
4925.664, 1076.365
4927.593, 1073.476
4929.521, 1070.973
4931.450, 1080.171
4933.378, 1088.186
4935.307, 1076.478
4937.235, 1084.390
4939.164, 1092.298
4941.092, 1072.310
4943.021, 1069.267
4944.949, 1078.335
4946.877, 1094.985
4948.806, 1083.585
4950.734, 1067.273
4952.663, 1067.747
4954.591, 1071.791
4956.520, 1073.169
4958.448, 1068.020
4960.377, 1074.899
4962.305, 1084.333
4964.233, 1090.201
4966.162, 1085.252
4968.091, 1079.496
4970.019, 1078.028
4971.947, 1077.420
4973.876, 1076.330
4975.805, 1074.716
4977.733, 1076.576
4979.661, 1079.463
4981.590, 1082.341
4983.519, 1088.617
4985.447, 1077.856
4987.375, 1056.254
4989.304, 1077.667
4991.232, 1085.835
4993.161, 1077.814
4995.089, 1085.090
4997.018, 1090.458
4998.946, 1094.852
5000.875, 1111.205
5002.803, 1109.834
5004.731, 1096.917
5006.660, 1087.616
5008.588, 1082.305
5010.517, 1077.537
5012.445, 1066.355
5014.374, 1078.957
5016.302, 1094.968
5018.230, 1093.838
5020.159, 1091.447
5022.088, 1089.423
5024.016, 1088.604
5025.944, 1085.144
5027.873, 1076.724
5029.802, 1063.932
5031.730, 1064.507
5033.658, 1072.248
5035.587, 1082.541
5037.516, 1079.099
5039.444, 1084.366
5041.372, 1097.570
5043.301, 1089.321
5045.229, 1092.479
5047.158, 1101.171
5049.086, 1082.564
5051.015, 1089.267
5052.943, 1104.916
5054.872, 1095.618
5056.800, 1082.888
5058.729, 1077.383
5060.657, 1087.894
5062.585, 1094.216
5064.514, 1096.078
5066.442, 1094.237
5068.371, 1088.960
5070.299, 1083.883
5072.228, 1080.606
5074.156, 1075.911
5076.085, 1083.250
5078.013, 1098.328
5079.941, 1090.235
5081.870, 1083.399
5083.799, 1084.430
5085.727, 1101.837
5087.655, 1102.534
5089.584, 1097.330
5091.513, 1106.237
5093.441, 1099.640
5095.369, 1089.633
5097.298, 1087.525
5099.227, 1100.323
5101.155, 1097.973
5103.083, 1070.857
5105.012, 1081.309
5106.940, 1102.292
5108.869, 1120.291
5110.797, 1120.929
5112.726, 1104.259
5114.654, 1083.206
5116.583, 1085.472
5118.511, 1084.139
5120.439, 1085.311
5122.368, 1099.737
5124.296, 1112.489
5126.225, 1113.762
5128.153, 1097.348
5130.082, 1073.588
5132.010, 1079.476
5133.938, 1117.205
5135.867, 1110.263
5137.796, 1085.489
5139.724, 1067.760
5141.652, 1111.653
5143.581, 1117.266
5145.510, 1104.705
5147.438, 1118.321
5149.366, 1097.880
5151.295, 1082.477
5153.224, 1097.347
5155.152, 1098.589
5157.080, 1089.899
5159.009, 1076.554
5160.938, 1065.109
5162.866, 1095.648
5164.794, 1142.750
5166.723, 1135.218
5168.651, 1114.276
5170.580, 1097.678
5172.508, 1097.932
5174.437, 1097.946
5176.365, 1099.249
5178.293, 1103.210
5180.222, 1107.015
5182.150, 1107.320
5184.079, 1107.156
5186.007, 1123.101
5187.936, 1116.159
5189.864, 1104.373
5191.793, 1124.713
5193.721, 1120.379
5195.649, 1109.443
5197.578, 1106.157
5199.507, 1102.391
5201.435, 1098.392
5203.363, 1097.660
5205.292, 1120.184
5207.221, 1117.456
5209.149, 1106.592
5211.077, 1132.870
5213.006, 1126.792
5214.935, 1118.946
5216.863, 1132.874
5218.791, 1116.381
5220.720, 1099.131
5222.648, 1093.875
5224.577, 1110.594
5226.505, 1124.288
5228.434, 1127.038
5230.362, 1108.180
5232.291, 1102.902
5234.219, 1103.911
5236.147, 1105.881
5238.076, 1123.492
5240.004, 1130.875
5241.933, 1124.919
5243.861, 1116.716
5245.790, 1123.831
5247.718, 1133.538
5249.646, 1127.207
5251.575, 1117.327
5253.504, 1114.728
5255.432, 1121.255
5257.360, 1104.569
5259.289, 1118.905
5261.218, 1145.997
5263.146, 1114.914
5265.074, 1099.952
5267.003, 1099.456
5268.932, 1106.919
5270.860, 1124.890
5272.788, 1139.095
5274.717, 1143.109
5276.646, 1125.016
5278.574, 1134.623
5280.502, 1149.231
5282.431, 1127.674
5284.359, 1127.265
5286.288, 1130.804
5288.216, 1129.191
5290.145, 1130.619
5292.073, 1126.266
5294.001, 1118.555
5295.930, 1113.863
5297.858, 1119.670
5299.787, 1131.340
5301.715, 1144.826
5303.644, 1135.693
5305.572, 1122.156
5307.501, 1114.338
5309.429, 1124.775
5311.357, 1125.308
5313.286, 1128.884
5315.215, 1147.161
5317.143, 1147.213
5319.071, 1141.277
5321.000, 1136.155
5322.929, 1139.680
5324.857, 1131.334
5326.785, 1124.913
5328.714, 1135.646
5330.643, 1130.336
5332.571, 1132.526
5334.499, 1138.837
5336.428, 1092.228
5338.356, 1116.520
5340.285, 1157.920
5342.213, 1143.033
5344.142, 1146.033
5346.070, 1152.104
5347.999, 1151.979
5349.927, 1131.250
5351.855, 1125.705
5353.784, 1128.851
5355.712, 1129.180
5357.641, 1141.532
5359.569, 1148.461
5361.498, 1144.916
5363.426, 1134.412
5365.354, 1132.530
5367.283, 1135.180
5369.212, 1137.034
5371.140, 1155.362
5373.068, 1160.275
5374.997, 1154.140
5376.926, 1176.743
5378.854, 1140.394
5380.782, 1111.226
5382.711, 1146.729
5384.640, 1135.658
5386.568, 1142.919
5388.496, 1157.614
5390.425, 1114.050
5392.354, 1121.456
5394.282, 1132.746
5396.210, 1117.864
5398.139, 1110.617
5400.067, 1132.114
5401.996, 1157.102
5403.924, 1135.083
5405.853, 1149.108
5407.781, 1152.934
5409.709, 1135.012
5411.638, 1149.765
5413.566, 1131.723
5415.495, 1123.880
5417.423, 1172.466
5419.352, 1159.299
5421.280, 1150.486
5423.209, 1161.288
5425.137, 1175.223
5427.065, 1153.455
5428.994, 1137.546
5430.923, 1152.096
5432.851, 1158.033
5434.779, 1147.010
5436.708, 1138.613
5438.637, 1160.123
5440.565, 1173.469
5442.493, 1164.648
5444.422, 1142.413
5446.351, 1150.268
5448.279, 1152.261
5450.207, 1149.549
5452.136, 1146.211
5454.064, 1135.342
5455.993, 1146.070
5457.921, 1167.814
5459.850, 1175.128
5461.778, 1155.552
5463.707, 1143.839
5465.635, 1150.917
5467.563, 1165.995
5469.492, 1163.145
5471.420, 1155.814
5473.349, 1156.283
5475.277, 1169.112
5477.206, 1175.804
5479.134, 1178.185
5481.063, 1185.783
5482.991, 1175.376
5484.920, 1151.765
5486.848, 1130.420
5488.776, 1144.791
5490.705, 1166.649
5492.634, 1177.314
5494.562, 1169.864
5496.490, 1163.239
5498.419, 1165.693
5500.348, 1168.904
5502.276, 1161.997
5504.204, 1155.919
5506.133, 1161.521
5508.062, 1174.131
5509.990, 1180.877
5511.918, 1169.007
5513.847, 1172.944
5515.775, 1192.132
5517.704, 1168.431
5519.632, 1155.000
5521.561, 1157.253
5523.489, 1170.486
5525.417, 1138.436
5527.346, 1131.200
5529.274, 1146.048
5531.203, 1165.491
5533.131, 1159.728
5535.060, 1160.780
5536.988, 1173.469
5538.917, 1191.920
5540.845, 1179.694
5542.773, 1174.223
5544.702, 1183.216
5546.631, 1186.603
5548.559, 1188.392
5550.487, 1180.672
5552.416, 1164.945
5554.345, 1167.659
5556.273, 1177.673
5558.201, 1178.137
5560.130, 1161.891
5562.059, 1158.679
5563.987, 1157.407
5565.915, 1162.476
5567.844, 1177.731
5569.772, 1174.667
5571.701, 1182.490
5573.629, 1181.045
5575.558, 1133.180
5577.486, 1158.184
5579.415, 1172.234
5581.343, 1167.480
5583.271, 1180.993
5585.200, 1183.214
5587.128, 1186.273
5589.057, 1186.022
5590.985, 1161.256
5592.914, 1159.629
5594.842, 1166.523
5596.771, 1174.398
5598.699, 1190.759
5600.628, 1187.958
5602.556, 1179.844
5604.484, 1174.037
5606.413, 1164.130
5608.342, 1142.506
5610.270, 1150.184
5612.198, 1194.290
5614.127, 1170.936
5616.056, 1167.918
5617.984, 1172.476
5619.912, 1169.533
5621.841, 1181.567
5623.770, 1184.945
5625.698, 1178.722
5627.626, 1167.616
5629.555, 1165.609
5631.483, 1157.654
5633.412, 1154.088
5635.340, 1164.320
5637.269, 1186.269
5639.197, 1165.028
5641.125, 1141.792
5643.054, 1159.048
5644.982, 1192.524
5646.911, 1191.081
5648.839, 1183.577
5650.768, 1201.679
5652.696, 1192.406
5654.625, 1190.638
5656.553, 1179.867
5658.481, 1147.870
5660.410, 1177.412
5662.339, 1187.698
5664.267, 1191.243
5666.195, 1207.916
5668.124, 1173.103
5670.053, 1194.501
5671.981, 1211.426
5673.909, 1163.227
5675.838, 1182.296
5677.767, 1199.110
5679.695, 1199.342
5681.623, 1185.557
5683.552, 1180.826
5685.480, 1204.979
5687.409, 1220.857
5689.337, 1204.696
5691.266, 1193.189
5693.194, 1179.982
5695.123, 1190.583
5697.051, 1224.340
5698.979, 1195.772
5700.908, 1196.201
5702.836, 1193.005
5704.765, 1175.132
5706.693, 1206.099
5708.622, 1233.265
5710.550, 1236.729
5712.479, 1222.151
5714.407, 1232.731
5716.336, 1217.468
5718.264, 1192.796
5720.192, 1182.212
5722.121, 1219.886
5724.050, 1230.770
5725.978, 1217.754
5727.906, 1202.497
5729.835, 1211.999
5731.764, 1195.519
5733.692, 1209.849
5735.620, 1228.131
5737.549, 1201.773
5739.478, 1177.411
5741.406, 1205.801
5743.334, 1234.732
5745.263, 1213.491
5747.191, 1213.236
5749.120, 1226.580
5751.048, 1229.619
5752.977, 1212.738
5754.905, 1208.439
5756.833, 1210.920
5758.762, 1215.898
5760.690, 1220.523
5762.619, 1224.377
5764.547, 1198.576
5766.476, 1198.829
5768.404, 1225.839
5770.333, 1240.813
5772.261, 1223.522
5774.189, 1217.011
5776.118, 1222.035
5778.047, 1224.525
5779.975, 1231.227
5781.903, 1223.995
5783.832, 1220.579
5785.761, 1232.752
5787.689, 1231.536
5789.617, 1228.344
5791.546, 1225.211
5793.475, 1224.972
5795.403, 1240.286
5797.331, 1226.452
5799.260, 1228.833
5801.188, 1246.607
5803.117, 1249.906
5805.045, 1211.601
5806.974, 1210.999
5808.902, 1222.814
5810.831, 1206.769
5812.759, 1222.653
5814.688, 1222.389
5816.616, 1224.210
5818.544, 1232.448
5820.473, 1211.007
5822.401, 1202.781
5824.330, 1207.639
5826.258, 1231.688
5828.187, 1281.730
5830.115, 1239.105
5832.044, 1222.812
5833.972, 1231.219
5835.900, 1235.173
5837.829, 1226.477
5839.758, 1225.870
5841.686, 1225.853
5843.614, 1226.133
5845.543, 1242.251
5847.472, 1244.332
5849.400, 1232.052
5851.328, 1234.332
5853.257, 1281.590
5855.186, 1291.661
5857.114, 1266.717
5859.042, 1257.190
5860.971, 1275.049
5862.899, 1251.505
5864.828, 1236.241
5866.756, 1245.834
5868.685, 1265.281
5870.613, 1267.785
5872.542, 1263.966
5874.470, 1245.394
5876.398, 1227.544
5878.327, 1224.560
5880.255, 1242.818
5882.184, 1239.887
5884.112, 1231.974
5886.041, 1239.838
5887.969, 1274.552
5889.897, 1261.414
5891.826, 1255.377
5893.755, 1248.648
5895.683, 1237.034
5897.611, 1250.773
5899.540, 1243.769
5901.469, 1278.925
5903.397, 1309.890
5905.325, 1263.025
5907.254, 1265.239
5909.183, 1255.227
5911.111, 1257.901
5913.039, 1279.179
5914.968, 1273.886
5916.896, 1257.956
5918.825, 1249.793
5920.753, 1253.888
5922.682, 1263.776
5924.610, 1212.776
5926.539, 1250.703
5928.467, 1260.017
5930.396, 1228.661
5932.324, 1268.458
5934.252, 1251.554
5936.181, 1244.336
5938.109, 1246.875
5940.038, 1249.836
5941.966, 1267.297
5943.895, 1274.167
5945.823, 1262.423
5947.752, 1252.651
5949.680, 1267.692
5951.608, 1252.663
5953.537, 1276.456
5955.466, 1289.852
5957.394, 1273.953
5959.322, 1247.857
5961.251, 1290.281
5963.180, 1281.711
5965.108, 1269.884
5967.036, 1289.598
5968.965, 1289.987
5970.894, 1267.717
5972.822, 1273.763
5974.750, 1280.971
5976.679, 1257.467
5978.607, 1240.695
5980.536, 1259.934
5982.464, 1270.351
5984.393, 1277.729
5986.321, 1306.219
5988.250, 1305.395
5990.178, 1295.678
5992.106, 1293.202
5994.035, 1296.406
5995.963, 1294.115
5997.892, 1325.816
5999.820, 1304.031
6001.749, 1299.245
6003.677, 1322.492
6005.605, 1286.095
6007.534, 1294.009
6009.463, 1309.065
6011.391, 1309.728
6013.319, 1293.516
6015.248, 1273.577
6017.177, 1282.696
6019.105, 1282.838
6021.033, 1292.090
6022.962, 1315.974
6024.891, 1289.191
6026.819, 1264.005
6028.747, 1279.374
6030.676, 1300.522
6032.604, 1294.320
6034.533, 1270.340
6036.461, 1298.740
6038.390, 1314.933
6040.318, 1319.573
6042.247, 1278.061
6044.175, 1296.145
6046.104, 1290.345
6048.032, 1283.567
6049.960, 1310.038
6051.889, 1275.239
6053.817, 1301.183
6055.746, 1302.880
6057.674, 1315.675
6059.603, 1304.438
6061.531, 1300.624
6063.460, 1320.849
6065.388, 1327.763
6067.316, 1313.760
6069.245, 1327.260
6071.174, 1298.931
6073.102, 1297.969
6075.030, 1285.521
6076.959, 1290.196
6078.888, 1311.675
6080.816, 1331.591
6082.744, 1306.148
6084.673, 1304.515
6086.602, 1307.780
6088.530, 1319.966
6090.458, 1337.854
6092.387, 1319.137
6094.315, 1286.674
6096.244, 1295.241
6098.172, 1311.418
6100.101, 1305.649
6102.029, 1286.432
6103.958, 1324.029
6105.886, 1310.240
6107.814, 1289.141
6109.743, 1297.552
6111.671, 1324.345
6113.600, 1326.709
6115.528, 1315.881
6117.457, 1301.837
6119.385, 1308.644
6121.313, 1350.404
6123.242, 1316.032
6125.171, 1310.455
6127.099, 1323.495
6129.027, 1324.742
6130.956, 1306.477
6132.885, 1335.181
6134.813, 1327.859
6136.741, 1319.598
6138.670, 1318.266
6140.599, 1320.762
6142.527, 1330.363
6144.455, 1312.705
6146.384, 1308.373
6148.313, 1317.236
6150.241, 1324.313
6152.169, 1317.525
6154.098, 1320.616
6156.026, 1314.560
6157.955, 1308.753
6159.883, 1313.644
6161.812, 1329.166
6163.740, 1331.589
6165.668, 1363.368
6167.597, 1357.355
6169.525, 1318.815
6171.454, 1298.854
6173.382, 1355.496
6175.311, 1340.163
6177.239, 1340.605
6179.168, 1346.574
6181.096, 1347.625
6183.024, 1346.527
6184.953, 1324.216
6186.882, 1343.615
6188.810, 1340.842
6190.738, 1329.243
6192.667, 1329.285
6194.596, 1315.861
6196.524, 1315.800
6198.452, 1302.047
6200.381, 1312.189
6202.310, 1334.491
6204.238, 1327.490
6206.166, 1307.626
6208.095, 1329.530
6210.023, 1334.273
6211.952, 1324.633
6213.880, 1317.728
6215.809, 1312.510
6217.737, 1313.720
6219.666, 1328.038
6221.594, 1342.644
6223.522, 1338.036
6225.451, 1314.411
6227.379, 1347.843
6229.308, 1328.041
6231.236, 1322.255
6233.165, 1309.939
6235.093, 1294.561
6237.021, 1315.456
6238.950, 1361.803
6240.879, 1304.137
6242.807, 1312.687
6244.735, 1337.982
6246.664, 1326.659
6248.593, 1344.399
6250.521, 1303.015
6252.449, 1324.459
6254.378, 1344.163
6256.307, 1339.062
6258.235, 1324.200
6260.163, 1310.831
6262.092, 1327.304
6264.021, 1334.787
6265.949, 1347.611
6267.877, 1355.279
6269.806, 1342.859
6271.734, 1340.994
6273.663, 1325.771
6275.591, 1331.130
6277.520, 1344.477
6279.448, 1349.122
6281.376, 1339.006
6283.305, 1318.888
6285.233, 1329.347
6287.162, 1345.785
6289.090, 1326.585
6291.019, 1303.655
6292.947, 1333.627
6294.876, 1304.723
6296.804, 1316.171
6298.732, 1337.206
6300.661, 1348.549
6302.590, 1340.949
6304.518, 1314.201
6306.446, 1315.716
6308.375, 1316.255
6310.304, 1302.657
6312.232, 1303.108
6314.160, 1317.797
6316.089, 1326.065
6318.018, 1345.593
6319.946, 1339.651
6321.874, 1318.789
6323.803, 1321.886
6325.731, 1329.408
6327.660, 1317.937
6329.588, 1366.603
6331.517, 1317.466
6333.445, 1317.849
6335.374, 1312.857
6337.302, 1305.658
6339.230, 1331.485
6341.159, 1347.421
6343.087, 1337.305
6345.016, 1313.443
6346.944, 1303.958
6348.873, 1325.277
6350.801, 1357.176
6352.729, 1338.614
6354.658, 1314.535
6356.587, 1331.175
6358.515, 1327.249
6360.443, 1314.541
6362.372, 1322.136
6364.301, 1350.463
6366.229, 1331.536
6368.157, 1342.943
6370.086, 1312.260
6372.015, 1324.233
6373.943, 1341.135
6375.871, 1296.570
6377.800, 1315.547
6379.729, 1341.348
6381.657, 1304.610
6383.585, 1306.922
6385.514, 1342.519
6387.442, 1359.409
6389.371, 1340.823
6391.299, 1322.382
6393.228, 1341.855
6395.156, 1329.274
6397.084, 1301.642
6399.013, 1308.915
6400.941, 1358.505
6402.870, 1329.251
6404.798, 1335.421
6406.727, 1322.570
6408.655, 1319.536
6410.584, 1321.416
6412.512, 1315.659
6414.440, 1310.734
6416.369, 1329.299
6418.298, 1323.975
6420.226, 1322.246
6422.154, 1328.679
6424.083, 1336.943
6426.012, 1334.784
6427.940, 1310.770
6429.868, 1328.965
6431.797, 1322.695
6433.726, 1301.131
6435.654, 1304.866
6437.582, 1325.096
6439.511, 1327.503
6441.439, 1311.069
6443.368, 1310.366
6445.296, 1298.825
6447.225, 1322.513
6449.153, 1337.682
6451.082, 1328.179
6453.010, 1324.123
6454.938, 1315.072
6456.867, 1310.380
6458.795, 1311.001
6460.724, 1293.959
6462.652, 1305.792
6464.581, 1320.746
6466.509, 1274.705
6468.438, 1307.962
6470.366, 1298.890
6472.295, 1287.651
6474.223, 1321.347
6476.151, 1346.383
6478.080, 1349.278
6480.009, 1362.981
6481.937, 1319.007
6483.865, 1293.504
6485.794, 1295.946
6487.723, 1305.655
6489.651, 1317.524
6491.579, 1326.019
6493.508, 1323.045
6495.437, 1312.732
6497.365, 1307.536
6499.293, 1297.551
6501.222, 1296.351
6503.150, 1305.647
6505.079, 1305.080
6507.007, 1290.124
6508.936, 1301.505
6510.864, 1311.235
6512.792, 1296.454
6514.721, 1317.085
6516.649, 1319.626
6518.578, 1308.694
6520.506, 1303.463
6522.435, 1287.606
6524.363, 1278.399
6526.292, 1293.349
##END=



