##NAMES=Davidite-(La)
##RRUFFID=R070698
##IDEAL CHEMISTRY=La(Y,U)Fe_2_(Ti,Fe,Cr,V)_18_(O,OH,F)_38_
##LOCALITY=Pandora prospect, Covered Wells, Quijotoa District, Quijotoa Mts, Pima County, Arizona, USA
##OWNER=RRUFF
##SOURCE=Michael Scott
##DESCRIPTION=Black submetallic massive
##STATUS=The identification of this mineral is confirmed by single-crystal X-ray diffraction and chemical analysis
##URL=https://www.rruff.net/odr/rruff_sample/R070698
##MEASURED CHEMISTRY=(La_0.48_Ce_0.35_Nd_0.03_Pr_0.01_Ca_0.13_)(U_0.32_Y_0.23_Sc_0.07_Ca_0.07_Th_0.05_)Fe_2_(Ti_12.42_Fe_4.24_Mg_0.29_Cr_0.25_Al_0.18_Zr_0.07_Mn_0.05_)O_38_
##DIFFRACTION SAMPLE DESCRIPTION=Single crystal, powder profile is calculated
##CELL PARAMETERS=a: 9.222 b: 9.222 c: 9.222 alpha: 68.488 beta: 68.488 gamma: 68.488 volume: 654 crystal system: hexagonal
##FILETYPE=Raman RAW
##RAMAN WAVELENGTH=532

193.2065, 691.0375
195.1350, 691.4680
197.0634, 699.6749
198.9919, 706.0114
200.9204, 707.3492
202.8488, 705.7620
204.7773, 704.6683
206.7058, 703.1207
208.6342, 703.1595
210.5627, 706.9291
212.4912, 715.1341
214.4196, 719.8436
216.3481, 717.9894
218.2766, 712.2595
220.2050, 708.4560
222.1335, 708.3184
224.0620, 708.1572
225.9904, 706.0561
227.9189, 698.4536
229.8474, 695.1468
231.7758, 699.2745
233.7043, 707.4814
235.6328, 713.4635
237.5612, 715.6716
239.4897, 717.4330
241.4182, 720.1904
243.3466, 724.6626
245.2751, 728.3837
247.2036, 731.7267
249.1320, 734.1561
251.0605, 735.2522
252.9890, 733.5586
254.9174, 731.5115
256.8459, 729.2632
258.7744, 727.2847
260.7029, 726.3227
262.6313, 726.7703
264.5598, 728.1265
266.4883, 730.1664
268.4167, 733.9201
270.3452, 737.0931
272.2737, 739.2269
274.2021, 740.5967
276.1306, 741.5615
278.0591, 741.8680
279.9875, 741.8975
281.9160, 741.7032
283.8445, 740.4342
285.7729, 740.7281
287.7014, 745.6923
289.6299, 753.3878
291.5583, 756.2125
293.4868, 749.9368
295.4153, 742.3093
297.3437, 736.2899
299.2722, 731.4946
301.2007, 729.3915
303.1291, 732.8437
305.0576, 738.8899
306.9861, 741.8662
308.9145, 738.7890
310.8430, 736.0075
312.7715, 735.6127
314.6999, 737.2972
316.6284, 738.9375
318.5569, 740.8365
320.4853, 742.6000
322.4138, 743.4146
324.3423, 743.6024
326.2707, 741.9404
328.1992, 736.3405
330.1277, 727.2134
332.0561, 722.7940
333.9846, 724.9270
335.9131, 729.5330
337.8415, 735.5267
339.7700, 743.8045
341.6985, 749.3986
343.6269, 750.1193
345.5554, 747.3143
347.4839, 744.2880
349.4123, 738.7785
351.3408, 735.1263
353.2693, 736.5106
355.1977, 743.3314
357.1262, 747.9641
359.0547, 747.4774
360.9831, 744.6739
362.9116, 743.8666
364.8401, 745.5519
366.7685, 747.8030
368.6970, 750.9199
370.6255, 754.5287
372.5539, 755.0067
374.4824, 748.3279
376.4109, 741.7162
378.3393, 741.2426
380.2678, 748.5123
382.1963, 753.3266
384.1247, 749.8520
386.0532, 741.5303
387.9817, 736.6650
389.9101, 737.7100
391.8386, 739.8464
393.7671, 741.9970
395.6955, 745.4787
397.6240, 749.0380
399.5525, 752.8264
401.4809, 754.7119
403.4094, 754.6580
405.3379, 752.5272
407.2663, 752.1436
409.1948, 755.2672
411.1233, 758.6043
413.0517, 759.7444
414.9802, 755.4467
416.9087, 754.1611
418.8371, 757.4520
420.7656, 763.2604
422.6941, 765.2979
424.6225, 760.3483
426.5510, 754.6057
428.4795, 751.5831
430.4079, 752.2826
432.3364, 754.6042
434.2649, 760.9808
436.1933, 768.4157
438.1218, 772.2350
440.0503, 769.6862
441.9787, 767.2453
443.9072, 765.8987
445.8357, 764.5364
447.7641, 761.9655
449.6926, 759.0248
451.6211, 758.9907
453.5495, 759.0591
455.4780, 757.4141
457.4065, 758.4732
459.3349, 767.9244
461.2634, 780.1236
463.1919, 785.6948
465.1203, 782.1168
467.0488, 777.3579
468.9773, 774.0479
470.9057, 772.7440
472.8342, 773.3700
474.7627, 775.8102
476.6911, 776.7645
478.6196, 776.2675
480.5481, 774.9727
482.4765, 775.8991
484.4050, 780.9437
486.3335, 786.4236
488.2619, 789.4838
490.1904, 789.6166
492.1189, 790.6584
494.0473, 790.5710
495.9758, 788.5898
497.9043, 785.9210
499.8327, 786.4046
501.7612, 787.7721
503.6897, 786.8347
505.6181, 782.9513
507.5466, 780.4706
509.4751, 780.3351
511.4035, 780.6655
513.3320, 781.0347
515.2604, 781.9636
517.1889, 782.8981
519.1174, 784.2247
521.0458, 786.7968
522.9743, 790.7607
524.9028, 795.4652
526.8312, 799.8688
528.7597, 801.9834
530.6882, 801.8519
532.6166, 801.2665
534.5451, 808.5184
536.4736, 815.3997
538.4020, 814.1075
540.3305, 805.4511
542.2590, 800.9125
544.1874, 808.1899
546.1159, 816.2415
548.0444, 819.0409
549.9728, 812.9960
551.9013, 809.6529
553.8298, 812.9801
555.7582, 819.3262
557.6867, 825.6997
559.6152, 833.3420
561.5436, 834.4948
563.4721, 824.3544
565.4006, 809.8560
567.3290, 805.4249
569.2575, 814.0973
571.1860, 823.9813
573.1144, 829.5944
575.0429, 829.9651
576.9714, 827.4075
578.8998, 820.8786
580.8283, 815.7930
582.7568, 815.4440
584.6852, 822.1020
586.6137, 832.1703
588.5422, 842.4525
590.4706, 848.3871
592.3991, 848.0922
594.3276, 841.2764
596.2560, 837.9873
598.1845, 840.0009
600.1130, 843.8105
602.0414, 846.3344
603.9699, 844.4279
605.8984, 842.2343
607.8268, 845.1435
609.7553, 852.4769
611.6838, 859.7411
613.6122, 860.9166
615.5407, 859.7097
617.4692, 855.7446
619.3976, 851.5723
621.3261, 849.5907
623.2546, 847.2302
625.1830, 846.1299
627.1115, 848.4178
629.0400, 857.2101
630.9684, 865.8245
632.8969, 871.4319
634.8254, 874.9206
636.7538, 876.9423
638.6823, 878.3890
640.6108, 879.2120
642.5392, 879.1591
644.4677, 879.1438
646.3962, 879.4399
648.3246, 878.8550
650.2531, 879.6735
652.1816, 883.6559
654.1100, 888.3745
656.0385, 891.4958
657.9670, 893.8578
659.8954, 895.9329
661.8239, 897.0988
663.7524, 897.0669
665.6808, 896.5641
667.6093, 896.1877
669.5378, 895.4301
671.4662, 892.2293
673.3947, 890.2542
675.3232, 891.9622
677.2516, 900.2441
679.1801, 907.0410
681.1086, 911.1032
683.0370, 911.9370
684.9655, 911.3714
686.8940, 909.1394
688.8224, 909.1388
690.7509, 914.5969
692.6794, 922.5582
694.6078, 926.2283
696.5363, 921.7257
698.4648, 916.8869
700.3932, 912.3057
702.3217, 910.0223
704.2502, 910.5927
706.1786, 916.0714
708.1071, 920.0589
710.0356, 920.8588
711.9641, 917.4980
713.8925, 913.9747
715.8210, 913.5827
717.7495, 914.0199
719.6779, 914.4571
721.6064, 911.2612
723.5349, 908.0150
725.4633, 904.0600
727.3918, 904.1279
729.3203, 909.1398
731.2487, 916.9710
733.1772, 921.3295
735.1057, 921.2601
737.0341, 919.8863
738.9626, 917.5938
740.8911, 914.3892
742.8195, 912.3041
744.7480, 912.1644
746.6765, 912.9171
748.6049, 915.3331
750.5334, 920.0380
752.4619, 919.0863
754.3903, 904.2451
756.3188, 891.8723
758.2473, 894.5403
760.1757, 910.2131
762.1042, 916.3824
764.0327, 900.0413
765.9611, 882.6447
767.8896, 872.8309
769.8181, 871.1675
771.7465, 870.1129
773.6750, 868.4896
775.6035, 868.4998
777.5319, 873.2799
779.4604, 882.7968
781.3889, 886.9232
783.3173, 878.8077
785.2458, 869.3879
787.1743, 864.4578
789.1027, 864.9703
791.0312, 863.6471
792.9597, 859.3168
794.8881, 854.5980
796.8166, 849.8495
798.7451, 844.6984
800.6735, 841.5004
802.6020, 843.5925
804.5305, 845.5571
806.4589, 843.9771
808.3874, 839.1640
810.3159, 835.1154
812.2443, 834.1351
814.1728, 830.9980
816.1013, 822.3115
818.0297, 808.6810
819.9582, 797.5286
821.8867, 791.6318
823.8151, 786.6027
825.7436, 780.0586
827.6721, 774.8111
829.6005, 772.6597
831.5290, 777.1305
833.4575, 777.4245
835.3859, 768.8635
837.3144, 755.4809
839.2429, 746.3809
841.1713, 745.3949
843.0998, 742.4667
845.0283, 735.7510
846.9567, 729.7828
848.8852, 726.3852
850.8137, 726.6157
852.7421, 724.4311
854.6706, 717.4158
856.5991, 705.9401
858.5275, 697.7758
860.4560, 696.7512
862.3845, 696.6906
864.3129, 692.9619
866.2414, 686.0410
868.1699, 679.2209
870.0983, 671.7550
872.0268, 664.1666
873.9553, 658.0156
875.8837, 657.5657
877.8122, 659.5919
879.7407, 665.4641
881.6691, 667.9752
883.5976, 664.0000
885.5261, 656.2774
887.4545, 650.2614
889.3830, 647.5075
891.3115, 647.1569
893.2399, 648.9767
895.1684, 648.8788
897.0969, 647.9949
899.0253, 647.5314
900.9538, 645.1603
902.8823, 633.7943
904.8107, 622.5937
906.7392, 618.8320
908.6677, 622.7748
910.5961, 625.0353
912.5246, 625.5228
914.4531, 625.8955
916.3815, 625.1493
918.3100, 622.3281
920.2385, 618.6108
922.1669, 614.5963
924.0954, 614.3302
926.0239, 613.7497
927.9523, 611.3323
929.8808, 609.0105
931.8093, 609.6008
933.7377, 610.6885
935.6662, 608.3027
937.5947, 603.0341
939.5231, 603.1203
941.4516, 613.0124
943.3801, 624.3832
945.3085, 620.7929
947.2370, 609.3220
949.1655, 601.6953
951.0939, 601.8465
953.0224, 601.9220
954.9509, 601.0627
956.8793, 604.8910
958.8078, 611.7213
960.7363, 617.8508
962.6647, 617.5114
964.5932, 609.7527
966.5217, 600.2904
968.4501, 597.0666
970.3786, 602.0153
972.3071, 611.0441
974.2355, 620.2492
976.1640, 620.6711
978.0925, 613.5708
980.0209, 607.2351
981.9494, 608.6726
983.8779, 615.2410
985.8063, 617.1309
987.7348, 613.9473
989.6633, 611.8198
991.5917, 613.2960
993.5202, 617.4911
995.4487, 617.6320
997.3771, 617.3994
999.3056, 619.4156
1001.234, 621.9568
1003.163, 621.9025
1005.091, 617.7793
1007.019, 611.1249
1008.948, 606.7731
1010.876, 606.0674
1012.805, 607.0276
1014.733, 608.0627
1016.662, 611.9520
1018.590, 619.1326
1020.519, 621.4774
1022.447, 617.4769
1024.376, 609.5688
1026.304, 609.5674
1028.233, 618.8609
1030.161, 624.0115
1032.090, 624.1397
1034.018, 624.0242
1035.947, 626.6372
1037.875, 625.5486
1039.803, 620.2443
1041.732, 617.6328
1043.660, 618.5914
1045.589, 621.8658
1047.517, 627.8066
1049.446, 632.9473
1051.374, 635.7718
1053.303, 637.9504
1055.231, 639.0139
1057.160, 637.2374
1059.088, 632.8855
1061.017, 627.5223
1062.945, 624.6313
1064.874, 625.4765
1066.802, 629.6888
1068.730, 633.9919
1070.659, 637.2584
1072.587, 637.3756
1074.516, 633.2625
1076.444, 624.5462
1078.373, 618.0538
1080.301, 616.4573
1082.230, 619.9651
1084.158, 629.0250
1086.087, 638.7713
1088.015, 643.8502
1089.944, 645.3652
1091.872, 647.6172
1093.801, 643.1262
1095.729, 633.7763
1097.657, 629.2835
1099.586, 630.7517
1101.514, 633.6226
1103.443, 638.9780
1105.371, 642.6610
1107.300, 642.4404
1109.228, 640.5574
1111.157, 639.6476
1113.085, 636.9509
1115.014, 631.5850
1116.942, 629.7048
1118.871, 634.7823
1120.799, 641.1181
1122.728, 647.4767
1124.656, 649.9024
1126.584, 647.4642
1128.513, 643.3815
1130.441, 641.8304
1132.370, 643.6370
1134.298, 645.3167
1136.227, 644.9950
1138.155, 643.9387
1140.084, 644.3381
1142.012, 646.7571
1143.941, 648.0601
1145.869, 645.4324
1147.798, 643.3411
1149.726, 644.7675
1151.655, 649.0850
1153.583, 653.9635
1155.511, 660.4125
1157.440, 662.0978
1159.368, 652.4225
1161.297, 642.8849
1163.225, 640.4347
1165.154, 644.1137
1167.082, 648.4574
1169.011, 654.1135
1170.939, 658.3317
1172.868, 660.6301
1174.796, 661.8106
1176.725, 661.2035
1178.653, 654.8661
1180.582, 651.8051
1182.510, 656.8268
1184.438, 665.0093
1186.367, 669.0908
1188.295, 667.3848
1190.224, 666.6361
1192.152, 668.6877
1194.081, 670.2075
1196.009, 668.5566
1197.938, 665.1956
1199.866, 663.3279
1201.795, 663.5232
1203.723, 663.5132
1205.652, 662.0544
1207.580, 660.5051
1209.509, 660.3763
1211.437, 661.9173
1213.365, 664.6624
1215.294, 671.7103
1217.222, 676.1396
1219.151, 672.2255
1221.079, 662.6361
1223.008, 661.6235
1224.936, 676.7274
1226.865, 687.3453
1228.793, 685.2758
1230.722, 680.4608
1232.650, 685.0547
1234.579, 698.5264
1236.507, 705.5261
1238.436, 699.8732
1240.364, 693.4756
1242.292, 692.1387
1244.221, 694.6200
1246.149, 696.4506
1248.078, 696.8089
1250.006, 697.0759
1251.935, 697.7518
1253.863, 699.5359
1255.792, 702.6926
1257.720, 707.4454
1259.649, 708.9747
1261.577, 703.0141
1263.506, 699.7107
1265.434, 704.7319
1267.363, 713.7820
1269.291, 717.5073
1271.219, 713.9930
1273.148, 712.1945
1275.076, 714.6824
1277.005, 718.1963
1278.933, 720.5709
1280.862, 722.7198
1282.790, 726.0779
1284.719, 731.8038
1286.647, 734.6923
1288.576, 732.2918
1290.504, 728.6135
1292.433, 723.2830
1294.361, 712.5531
1296.290, 709.3033
1298.218, 723.7977
1300.146, 736.8116
1302.075, 738.7480
1304.003, 733.3990
1305.932, 732.2589
1307.860, 739.4364
1309.789, 742.7081
1311.717, 738.6381
1313.646, 733.8285
1315.574, 726.9868
1317.503, 736.2280
1319.431, 741.7545
1321.360, 743.7667
1323.288, 731.7365
1325.217, 737.8390
1327.145, 736.6744
1329.073, 735.2120
1331.002, 743.8664
1332.930, 733.8787
1334.859, 742.3727
1336.787, 743.4889
1338.716, 747.9819
1340.644, 745.1631
1342.573, 744.6030
1344.501, 751.3563
1346.430, 754.0603
1348.358, 750.3999
1350.287, 755.1075
1352.215, 744.8644
1354.144, 747.7409
1356.072, 756.2773
1358.000, 752.9845
1359.929, 757.8258
1361.857, 759.5690
1363.786, 747.2344
1365.714, 759.3828
1367.643, 760.9433
1369.571, 751.6317
1371.500, 762.9415
1373.428, 755.1285
1375.357, 754.1416
1377.285, 758.2908
1379.214, 762.9745
1381.142, 773.8152
1383.071, 779.5249
1384.999, 778.7215
1386.927, 778.2076
1388.856, 779.6537
1390.784, 780.5818
1392.713, 779.3371
1394.641, 776.0625
1396.570, 775.5255
1398.498, 782.1862
1400.427, 786.4746
1402.355, 782.9100
1404.284, 775.3354
1406.212, 771.2806
1408.141, 772.1635
1410.069, 774.0690
1411.998, 776.1143
1413.926, 779.2455
1415.854, 785.2407
1417.783, 790.6913
1419.711, 788.5622
1421.640, 773.8338
1423.568, 765.6599
1425.497, 766.0260
1427.425, 768.2501
1429.354, 771.1735
1431.282, 776.2474
1433.211, 782.4909
1435.139, 786.9934
1437.068, 788.7556
1438.996, 788.4133
1440.925, 787.4410
1442.853, 787.8370
1444.781, 789.1948
1446.710, 787.1555
1448.638, 777.6328
1450.567, 769.7359
1452.495, 768.7292
1454.424, 772.4649
1456.352, 780.0374
1458.281, 789.0667
1460.209, 794.2299
1462.138, 794.3145
1464.066, 793.0128
1465.995, 793.4357
1467.923, 794.2343
1469.852, 790.9859
1471.780, 785.4977
1473.708, 788.0773
1475.637, 803.3247
1477.565, 812.2061
1479.494, 808.1990
1481.422, 802.3766
1483.351, 796.8263
1485.279, 792.0386
1487.208, 792.5012
1489.136, 802.2448
1491.065, 809.5615
1492.993, 814.8503
1494.922, 816.4601
1496.850, 810.6285
1498.779, 801.3822
1500.707, 798.3043
1502.635, 804.6104
1504.564, 808.5483
1506.492, 810.9982
1508.421, 812.6174
1510.349, 812.3829
1512.278, 809.3398
1514.206, 804.5898
1516.135, 797.9058
1518.063, 797.2026
1519.992, 805.6777
1521.920, 810.4580
1523.849, 806.3492
1525.777, 800.7307
1527.706, 803.7243
1529.634, 815.8550
1531.563, 822.6371
1533.491, 819.8322
1535.419, 816.3385
1537.348, 816.9841
1539.276, 818.5815
1541.205, 816.2976
1543.133, 810.7237
1545.062, 807.1967
1546.990, 805.7883
1548.919, 807.4041
1550.847, 814.5226
1552.776, 822.0433
1554.704, 827.2359
1556.633, 830.5796
1558.561, 832.4872
1560.490, 832.4788
1562.418, 833.2540
1564.346, 836.5416
1566.275, 839.0505
1568.203, 838.7798
1570.132, 837.0377
1572.060, 835.8136
1573.989, 835.1958
1575.917, 833.2939
1577.846, 820.8813
1579.774, 829.9471
1581.703, 835.2987
1583.631, 837.1353
1585.560, 824.9304
1587.488, 830.8572
1589.417, 829.5178
1591.345, 827.8802
1593.273, 836.3591
1595.202, 826.1965
1597.130, 834.5150
1599.059, 835.4563
1600.987, 839.7738
1602.916, 836.7802
1604.844, 836.0445
1606.773, 842.6229
1608.701, 845.1514
1610.630, 841.3161
1612.558, 845.8482
1614.487, 835.4302
1616.415, 838.1311
1618.344, 846.4927
1620.272, 843.0247
1622.200, 847.6905
1624.129, 849.2589
1626.057, 836.7487
1627.986, 848.7222
1629.914, 850.1071
1631.843, 840.6206
1633.771, 851.7549
1635.700, 843.7671
1637.628, 842.6046
1639.557, 846.5790
1641.485, 845.1983
1643.414, 852.2603
1645.342, 851.1889
1647.271, 849.3911
1649.199, 850.7642
1651.127, 843.1511
1653.056, 852.2094
1654.984, 849.8797
1656.913, 853.2109
1658.841, 857.8248
1660.770, 852.6147
1662.698, 857.8052
1664.627, 846.8667
1666.555, 849.4238
1668.484, 850.5280
1670.412, 860.2581
1672.341, 849.3983
1674.269, 851.5804
1676.198, 859.3160
1678.126, 859.2812
1680.054, 856.2820
1681.983, 860.7610
1683.911, 876.6236
1685.840, 887.4330
1687.768, 888.0682
1689.697, 885.2641
1691.625, 881.4020
1693.554, 876.8884
1695.482, 871.9441
1697.411, 865.9902
1699.339, 864.1363
1701.268, 868.4136
1703.196, 873.7600
1705.125, 883.4425
1707.053, 889.3591
1708.981, 881.7672
1710.910, 865.6718
1712.838, 859.3885
1714.767, 864.0890
1716.695, 872.9476
1718.624, 891.1887
1720.552, 903.8176
1722.481, 903.6810
1724.409, 897.9235
1726.338, 890.7414
1728.266, 882.9227
1730.195, 878.7582
1732.123, 878.4428
1734.052, 881.3447
1735.980, 890.8369
1737.908, 898.0541
1739.837, 896.3130
1741.765, 893.0513
1743.694, 895.9462
1745.622, 903.9252
1747.551, 913.0197
1749.479, 925.3538
1751.408, 926.4733
1753.336, 904.5032
1755.265, 885.4737
1757.193, 883.7601
1759.122, 889.2919
1761.050, 893.2980
1762.979, 895.7784
1764.907, 895.5728
1766.835, 891.1455
1768.764, 893.0065
1770.692, 910.0186
1772.621, 922.6048
1774.549, 917.2625
1776.478, 906.1686
1778.406, 900.4009
1780.335, 899.4936
1782.263, 902.7729
1784.192, 911.5001
1786.120, 916.4891
1788.049, 912.0850
1789.977, 910.2168
1791.906, 919.6321
1793.834, 930.7899
1795.762, 933.7844
1797.691, 930.5355
1799.619, 928.9836
1801.548, 929.6188
1803.476, 929.2881
1805.405, 926.9687
1807.333, 924.6442
1809.262, 920.1404
1811.190, 918.4024
1813.119, 928.1094
1815.047, 943.2160
1816.976, 944.3297
1818.904, 925.8875
1820.833, 917.8340
1822.761, 926.5282
1824.689, 936.1580
1826.618, 948.7014
1828.546, 956.4883
1830.475, 951.3929
1832.403, 939.7978
1834.332, 932.2370
1836.260, 928.5983
1838.189, 931.1464
1840.117, 944.4219
1842.046, 955.4421
1843.974, 965.0848
1845.903, 969.8275
1847.831, 964.1483
1849.760, 955.9088
1851.688, 954.3400
1853.616, 958.4789
1855.545, 961.3541
1857.473, 962.8447
1859.402, 963.5840
1861.330, 962.8060
1863.259, 962.8881
1865.187, 964.7548
1867.116, 967.6355
1869.044, 972.2904
1870.973, 977.0595
1872.901, 978.2487
1874.830, 976.0839
1876.758, 974.9329
1878.687, 975.7043
1880.615, 975.2543
1882.543, 970.9634
1884.472, 968.0292
1886.400, 968.1291
1888.329, 971.5670
1890.257, 983.4613
1892.186, 999.1148
1894.114, 998.2091
1896.043, 976.6670
1897.971, 965.3422
1899.900, 973.6191
1901.828, 980.8039
1903.757, 979.3055
1905.685, 979.4763
1907.614, 990.8279
1909.542, 1005.520
1911.470, 1011.249
1913.399, 1008.660
1915.327, 1007.953
1917.256, 1011.127
1919.184, 1011.382
1921.113, 1005.250
1923.041, 1000.776
1924.970, 999.2380
1926.898, 1000.443
1928.827, 1006.641
1930.755, 1014.321
1932.684, 1016.629
1934.612, 1014.129
1936.541, 1012.932
1938.469, 1012.802
1940.397, 1017.200
1942.326, 1030.570
1944.254, 1040.663
1946.183, 1042.320
1948.111, 1039.374
1950.040, 1032.165
1951.968, 1023.366
1953.897, 1016.198
1955.825, 1011.050
1957.754, 1012.884
1959.682, 1024.302
1961.611, 1033.710
1963.539, 1040.573
1965.468, 1044.073
1967.396, 1042.738
1969.324, 1039.328
1971.253, 1034.204
1973.181, 1029.054
1975.110, 1026.344
1977.038, 1026.087
1978.967, 1029.006
1980.895, 1036.664
1982.824, 1041.794
1984.752, 1040.316
1986.681, 1043.163
1988.609, 1058.561
1990.538, 1072.300
1992.466, 1076.192
1994.395, 1075.093
1996.323, 1074.808
1998.251, 1074.220
2000.180, 1067.153
2002.108, 1053.147
2004.037, 1051.723
2005.965, 1072.606
2007.894, 1083.106
2009.822, 1062.865
2011.751, 1047.115
2013.679, 1055.819
2015.608, 1070.017
2017.536, 1074.271
2019.465, 1070.950
2021.393, 1062.016
2023.322, 1047.140
2025.250, 1046.889
2027.178, 1070.950
2029.107, 1083.983
2031.035, 1075.814
2032.964, 1070.406
2034.892, 1077.954
2036.821, 1084.560
2038.749, 1075.887
2040.678, 1068.302
2042.606, 1086.622
2044.535, 1119.363
2046.463, 1134.908
2048.392, 1133.003
2050.320, 1126.007
2052.249, 1113.493
2054.177, 1101.089
2056.105, 1081.835
2058.034, 1074.543
2059.962, 1097.585
2061.891, 1120.118
2063.819, 1119.397
2065.748, 1107.651
2067.676, 1100.881
2069.605, 1097.897
2071.533, 1091.208
2073.462, 1078.652
2075.390, 1080.888
2077.319, 1105.859
2079.247, 1120.736
2081.176, 1115.071
2083.104, 1108.337
2085.032, 1107.906
2086.961, 1108.534
2088.889, 1105.440
2090.818, 1102.488
2092.746, 1103.702
2094.675, 1109.026
2096.603, 1121.003
2098.532, 1141.257
2100.460, 1147.915
2102.389, 1132.635
2104.317, 1120.232
2106.246, 1108.367
2108.174, 1103.824
2110.103, 1113.728
2112.031, 1124.286
2113.959, 1129.048
2115.888, 1130.752
2117.816, 1128.862
2119.745, 1127.198
2121.673, 1138.208
2123.602, 1158.274
2125.530, 1163.050
2127.459, 1149.873
2129.387, 1139.009
2131.316, 1132.734
2133.244, 1129.123
2135.173, 1129.919
2137.101, 1130.343
2139.030, 1125.300
2140.958, 1123.108
2142.886, 1133.622
2144.815, 1147.370
2146.743, 1149.497
2148.672, 1144.601
2150.600, 1150.612
2152.529, 1166.638
2154.457, 1174.195
2156.386, 1171.752
2158.314, 1165.263
2160.243, 1151.755
2162.171, 1145.251
2164.100, 1158.539
2166.028, 1167.101
2167.957, 1152.728
2169.885, 1139.379
2171.813, 1146.356
2173.742, 1163.438
2175.670, 1181.660
2177.599, 1197.899
2179.527, 1200.200
2181.456, 1188.684
2183.384, 1179.973
2185.313, 1174.452
2187.241, 1170.913
2189.170, 1169.479
2191.098, 1169.096
2193.027, 1169.316
2194.955, 1170.902
2196.884, 1174.367
2198.812, 1179.044
2200.740, 1187.268
2202.669, 1193.995
2204.597, 1191.421
2206.526, 1184.582
2208.454, 1185.821
2210.383, 1193.326
2212.311, 1190.756
2214.240, 1177.674
2216.168, 1166.505
2218.097, 1156.502
2220.025, 1158.872
2221.954, 1182.472
2223.882, 1199.696
2225.811, 1199.177
2227.739, 1195.200
2229.667, 1190.573
2231.596, 1187.675
2233.524, 1189.983
2235.453, 1193.322
2237.381, 1190.350
2239.310, 1185.848
2241.238, 1194.631
2243.167, 1212.507
2245.095, 1209.914
2247.024, 1187.320
2248.952, 1183.268
2250.881, 1204.640
2252.809, 1218.260
2254.738, 1214.544
2256.666, 1213.181
2258.594, 1226.182
2260.523, 1230.632
2262.451, 1208.180
2264.380, 1188.766
2266.308, 1192.133
2268.237, 1203.130
2270.165, 1209.833
2272.094, 1214.423
2274.022, 1221.978
2275.951, 1229.593
2277.879, 1226.276
2279.808, 1214.249
2281.736, 1216.310
2283.665, 1237.385
2285.593, 1246.438
2287.521, 1234.993
2289.450, 1226.263
2291.378, 1220.898
2293.307, 1217.273
2295.235, 1214.315
2297.164, 1214.614
2299.092, 1222.408
2301.021, 1228.952
2302.949, 1225.531
2304.878, 1222.536
2306.806, 1230.720
2308.735, 1243.139
2310.663, 1250.724
2312.592, 1254.963
2314.520, 1261.943
2316.448, 1269.895
2318.377, 1258.680
2320.305, 1227.679
2322.234, 1225.430
2324.162, 1257.441
2326.091, 1277.515
2328.019, 1278.192
2329.948, 1274.485
2331.876, 1265.138
2333.805, 1259.715
2335.733, 1267.456
2337.662, 1269.460
2339.590, 1249.452
2341.519, 1233.653
2343.447, 1244.838
2345.375, 1257.677
2347.304, 1245.475
2349.232, 1228.459
2351.161, 1232.423
2353.089, 1247.427
2355.018, 1255.833
2356.946, 1259.058
2358.875, 1263.740
2360.803, 1269.758
2362.732, 1267.447
2364.660, 1254.348
2366.589, 1249.110
2368.517, 1252.903
2370.446, 1261.638
2372.374, 1278.972
2374.302, 1284.081
2376.231, 1264.732
2378.159, 1249.496
2380.088, 1250.475
2382.016, 1251.342
2383.945, 1243.246
2385.873, 1237.433
2387.802, 1239.807
2389.730, 1246.781
2391.659, 1260.930
2393.587, 1273.424
2395.516, 1273.609
2397.444, 1268.145
2399.373, 1265.593
2401.301, 1265.261
2403.229, 1265.821
2405.158, 1267.128
2407.086, 1269.031
2409.015, 1271.552
2410.943, 1269.113
2412.872, 1261.481
2414.800, 1257.893
2416.729, 1258.875
2418.657, 1265.936
2420.586, 1283.474
2422.514, 1292.255
2424.443, 1281.444
2426.371, 1274.925
2428.300, 1280.188
2430.228, 1283.175
2432.156, 1278.196
2434.085, 1274.882
2436.013, 1275.841
2437.942, 1280.828
2439.870, 1294.616
2441.799, 1306.472
2443.727, 1308.328
2445.656, 1305.048
2447.584, 1299.500
2449.513, 1293.141
2451.441, 1287.513
2453.370, 1282.628
2455.298, 1277.663
2457.227, 1273.766
2459.155, 1273.940
2461.083, 1277.583
2463.012, 1283.356
2464.940, 1290.795
2466.869, 1291.791
2468.797, 1285.121
2470.726, 1286.414
2472.654, 1296.845
2474.583, 1301.902
2476.511, 1299.755
2478.440, 1301.184
2480.368, 1309.125
2482.297, 1314.549
2484.225, 1314.442
2486.154, 1314.431
2488.082, 1317.860
2490.010, 1316.384
2491.939, 1301.755
2493.867, 1296.040
2495.796, 1311.546
2497.724, 1326.766
2499.653, 1337.867
2501.581, 1337.915
2503.510, 1311.431
2505.438, 1287.843
2507.367, 1286.920
2509.295, 1295.629
2511.224, 1311.395
2513.152, 1323.921
2515.081, 1318.810
2517.009, 1310.085
2518.938, 1316.517
2520.866, 1327.390
2522.794, 1324.228
2524.723, 1314.772
2526.651, 1315.125
2528.580, 1321.998
2530.508, 1328.898
2532.437, 1333.645
2534.365, 1323.681
2536.294, 1304.506
2538.222, 1308.756
2540.151, 1334.386
2542.079, 1342.412
2544.008, 1331.390
2545.936, 1328.419
2547.865, 1334.035
2549.793, 1326.172
2551.721, 1302.618
2553.650, 1294.262
2555.578, 1307.107
2557.507, 1318.606
2559.435, 1325.611
2561.364, 1334.683
2563.292, 1349.862
2565.221, 1353.217
2567.149, 1338.444
2569.078, 1329.419
2571.006, 1333.664
2572.935, 1335.995
2574.863, 1329.235
2576.792, 1326.050
2578.720, 1330.395
2580.648, 1336.438
2582.577, 1347.192
2584.505, 1350.446
2586.434, 1334.795
2588.362, 1325.340
2590.291, 1339.093
2592.219, 1351.919
2594.148, 1352.685
2596.076, 1351.037
2598.005, 1350.057
2599.933, 1350.079
2601.862, 1353.503
2603.790, 1354.740
2605.719, 1346.883
2607.647, 1339.927
2609.575, 1337.079
2611.504, 1342.528
2613.432, 1370.351
2615.361, 1395.779
2617.289, 1394.319
2619.218, 1384.175
2621.146, 1377.843
2623.075, 1373.942
2625.003, 1373.697
2626.932, 1372.453
2628.860, 1363.437
2630.789, 1351.435
2632.717, 1337.595
2634.646, 1328.877
2636.574, 1339.354
2638.502, 1356.162
2640.431, 1360.599
2642.359, 1359.550
2644.288, 1365.641
2646.216, 1373.548
2648.145, 1371.157
2650.073, 1364.842
2652.002, 1367.835
2653.930, 1375.473
2655.859, 1378.842
2657.787, 1379.999
2659.716, 1386.384
2661.644, 1393.171
2663.573, 1381.700
2665.501, 1362.660
2667.429, 1369.612
2669.358, 1389.776
2671.286, 1387.264
2673.215, 1370.424
2675.143, 1365.124
2677.072, 1368.063
2679.000, 1365.650
2680.929, 1361.559
2682.857, 1369.662
2684.786, 1386.281
2686.714, 1401.694
2688.643, 1413.607
2690.571, 1409.703
2692.500, 1394.147
2694.428, 1384.071
2696.356, 1379.981
2698.285, 1389.293
2700.213, 1405.661
2702.142, 1401.537
2704.070, 1382.871
2705.999, 1376.170
2707.927, 1379.773
2709.856, 1386.887
2711.784, 1396.276
2713.713, 1404.808
2715.641, 1411.262
2717.570, 1412.163
2719.498, 1407.052
2721.427, 1386.786
2723.355, 1358.898
2725.283, 1366.744
2727.212, 1397.043
2729.140, 1403.007
2731.069, 1392.406
2732.997, 1393.424
2734.926, 1402.640
2736.854, 1406.524
2738.783, 1407.233
2740.711, 1416.536
2742.640, 1427.878
2744.568, 1417.779
2746.497, 1396.880
2748.425, 1399.143
2750.354, 1414.956
2752.282, 1416.018
2754.210, 1407.778
2756.139, 1402.245
2758.067, 1399.082
2759.996, 1395.094
2761.924, 1394.236
2763.853, 1413.016
2765.781, 1436.602
2767.710, 1427.931
2769.638, 1406.200
2771.567, 1402.667
2773.495, 1410.109
2775.424, 1422.423
2777.352, 1433.271
2779.281, 1429.995
2781.209, 1420.760
2783.137, 1414.681
2785.066, 1412.233
2786.994, 1419.431
2788.923, 1425.240
2790.851, 1408.073
2792.780, 1390.992
2794.708, 1405.622
2796.637, 1426.379
2798.565, 1431.562
2800.494, 1430.194
2802.422, 1425.994
2804.351, 1424.032
2806.279, 1434.549
2808.208, 1441.011
2810.136, 1427.613
2812.064, 1413.624
2813.993, 1411.088
2815.921, 1412.740
2817.850, 1411.437
2819.778, 1417.666
2821.707, 1446.009
2823.635, 1465.894
2825.564, 1453.269
2827.492, 1446.901
2829.421, 1476.976
2831.349, 1492.505
2833.278, 1467.301
2835.206, 1446.331
2837.135, 1440.947
2839.063, 1440.632
2840.991, 1445.951
2842.920, 1448.895
2844.848, 1445.698
2846.777, 1446.244
2848.705, 1453.686
2850.634, 1455.716
2852.562, 1449.853
2854.491, 1439.324
2856.419, 1415.732
2858.348, 1413.199
2860.276, 1434.906
2862.205, 1453.849
2864.133, 1468.362
2866.062, 1466.846
2867.990, 1445.912
2869.918, 1449.102
2871.847, 1476.059
2873.775, 1470.990
2875.704, 1441.717
2877.632, 1449.038
2879.561, 1483.047
2881.489, 1488.183
2883.418, 1471.968
2885.346, 1457.819
2887.275, 1448.343
2889.203, 1452.545
2891.132, 1463.894
2893.060, 1473.465
2894.989, 1480.253
2896.917, 1481.422
2898.845, 1480.076
2900.774, 1479.551
2902.702, 1478.684
2904.631, 1474.875
2906.559, 1472.178
2908.488, 1478.257
2910.416, 1480.084
2912.345, 1461.768
2914.273, 1452.082
2916.202, 1477.383
2918.130, 1496.856
2920.059, 1488.945
2921.987, 1481.713
2923.916, 1482.925
2925.844, 1481.093
2927.772, 1469.657
2929.701, 1463.112
2931.629, 1464.700
2933.558, 1467.725
2935.486, 1471.385
2937.415, 1481.907
2939.343, 1502.306
2941.272, 1505.213
2943.200, 1487.113
2945.129, 1486.558
2947.057, 1500.136
2948.986, 1492.694
2950.914, 1470.057
2952.843, 1465.517
2954.771, 1473.701
2956.699, 1478.714
2958.628, 1482.383
2960.556, 1493.899
2962.485, 1501.377
2964.413, 1476.022
2966.342, 1451.401
2968.270, 1474.312
2970.199, 1503.243
2972.127, 1505.898
2974.056, 1505.137
2975.984, 1519.438
2977.913, 1526.950
2979.841, 1512.649
2981.770, 1498.829
2983.698, 1489.022
2985.626, 1486.646
2987.555, 1502.742
2989.483, 1503.835
2991.412, 1480.271
2993.340, 1478.948
2995.269, 1506.098
2997.197, 1516.127
2999.126, 1504.156
3001.054, 1495.574
3002.983, 1490.686
3004.911, 1496.951
3006.840, 1508.901
3008.768, 1505.649
3010.697, 1494.785
3012.625, 1492.878
3014.553, 1496.162
3016.482, 1499.551
3018.410, 1504.184
3020.339, 1514.605
3022.267, 1522.244
3024.196, 1519.988
3026.124, 1512.920
3028.053, 1496.889
3029.981, 1490.496
3031.910, 1508.577
3033.838, 1524.307
3035.767, 1534.307
3037.695, 1535.223
3039.624, 1523.870
3041.552, 1524.470
3043.480, 1543.931
3045.409, 1551.228
3047.337, 1546.862
3049.266, 1542.808
3051.194, 1539.775
3053.123, 1541.939
3055.051, 1544.973
3056.980, 1536.319
3058.908, 1522.364
3060.837, 1507.299
3062.765, 1499.162
3064.694, 1512.185
3066.622, 1526.798
3068.551, 1529.162
3070.479, 1529.095
3072.407, 1530.643
3074.336, 1529.971
3076.264, 1522.937
3078.193, 1519.534
3080.121, 1521.336
3082.050, 1523.340
3083.978, 1525.029
3085.907, 1525.443
3087.835, 1524.545
3089.764, 1535.880
3091.692, 1553.036
3093.621, 1543.659
3095.549, 1523.622
3097.478, 1527.102
3099.406, 1539.480
3101.334, 1544.927
3103.263, 1543.897
3105.191, 1527.586
3107.120, 1518.765
3109.048, 1537.645
3110.977, 1554.734
3112.905, 1564.699
3114.834, 1563.416
3116.762, 1540.806
3118.691, 1531.177
3120.619, 1536.694
3122.548, 1551.880
3124.476, 1573.328
3126.405, 1563.881
3128.333, 1533.729
3130.261, 1524.298
3132.190, 1528.753
3134.118, 1538.778
3136.047, 1548.562
3137.975, 1553.893
3139.904, 1553.022
3141.832, 1536.894
3143.761, 1528.848
3145.689, 1542.821
3147.618, 1558.619
3149.546, 1580.119
3151.475, 1575.544
3153.403, 1539.368
3155.332, 1522.730
3157.260, 1529.805
3159.188, 1532.644
3161.117, 1533.487
3163.045, 1548.446
3164.974, 1565.839
3166.902, 1564.908
3168.831, 1554.832
3170.759, 1532.495
3172.688, 1525.463
3174.616, 1567.399
3176.545, 1598.388
3178.473, 1586.329
3180.402, 1575.501
3182.330, 1571.637
3184.259, 1570.108
3186.187, 1570.999
3188.115, 1566.703
3190.044, 1558.164
3191.972, 1560.363
3193.901, 1566.937
3195.829, 1560.227
3197.758, 1550.899
3199.686, 1555.714
3201.615, 1562.024
3203.543, 1558.750
3205.472, 1557.602
3207.400, 1566.521
3209.329, 1573.376
3211.257, 1576.393
3213.186, 1576.171
3215.114, 1571.921
3217.042, 1570.671
3218.971, 1572.399
3220.899, 1580.415
3222.828, 1587.918
3224.756, 1575.875
3226.685, 1558.532
3228.613, 1549.670
3230.542, 1550.790
3232.470, 1569.301
3234.399, 1586.450
3236.327, 1598.625
3238.256, 1598.105
3240.184, 1581.219
3242.113, 1574.085
3244.041, 1579.906
3245.969, 1588.427
3247.898, 1597.259
3249.826, 1592.608
3251.755, 1582.325
3253.683, 1578.296
3255.612, 1575.915
3257.540, 1564.693
3259.469, 1564.911
3261.397, 1602.119
3263.326, 1620.996
3265.254, 1605.631
3267.183, 1591.712
3269.111, 1582.227
3271.040, 1586.325
3272.968, 1602.128
3274.896, 1624.192
3276.825, 1643.883
3278.753, 1643.368
3280.682, 1635.845
3282.610, 1636.754
3284.539, 1629.818
3286.467, 1599.397
3288.396, 1582.991
3290.324, 1603.536
3292.253, 1612.289
3294.181, 1608.146
3296.110, 1611.757
3298.038, 1619.787
3299.967, 1608.915
3301.895, 1591.271
3303.823, 1586.422
3305.752, 1589.417
3307.680, 1604.578
3309.609, 1612.075
3311.537, 1601.847
3313.466, 1590.992
3315.394, 1581.341
3317.323, 1580.549
3319.251, 1588.686
3321.180, 1601.276
3323.108, 1613.937
3325.037, 1616.191
3326.965, 1610.676
3328.894, 1590.725
3330.822, 1580.002
3332.750, 1601.710
3334.679, 1618.406
3336.607, 1620.735
3338.536, 1612.858
3340.464, 1594.714
3342.393, 1593.319
3344.321, 1606.712
3346.250, 1630.508
3348.178, 1649.077
3350.107, 1632.089
3352.035, 1610.852
3353.964, 1612.749
3355.892, 1613.990
3357.821, 1606.198
3359.749, 1600.331
3361.677, 1596.367
3363.606, 1609.152
3365.534, 1632.431
3367.463, 1630.245
3369.391, 1615.627
3371.320, 1608.251
3373.248, 1608.602
3375.177, 1625.652
3377.105, 1633.755
3379.034, 1613.928
3380.962, 1608.219
3382.891, 1622.071
3384.819, 1627.803
3386.748, 1625.756
3388.676, 1628.524
3390.604, 1632.137
3392.533, 1632.530
3394.461, 1627.367
3396.390, 1609.648
3398.318, 1594.869
3400.247, 1587.715
3402.175, 1582.361
3404.104, 1576.161
3406.032, 1590.818
3407.961, 1618.718
3409.889, 1629.839
3411.818, 1632.895
3413.746, 1643.005
3415.675, 1647.476
3417.603, 1636.551
3419.531, 1621.425
3421.460, 1601.490
3423.388, 1593.887
3425.317, 1599.645
3427.245, 1608.139
3429.174, 1616.853
3431.102, 1617.423
3433.031, 1617.002
3434.959, 1625.250
3436.888, 1629.695
3438.816, 1624.039
3440.745, 1618.125
3442.673, 1612.170
3444.602, 1622.415
3446.530, 1644.309
3448.458, 1647.393
3450.387, 1641.258
3452.315, 1638.935
3454.244, 1633.565
3456.172, 1614.563
3458.101, 1609.587
3460.029, 1642.430
3461.958, 1649.600
3463.886, 1634.329
3465.815, 1634.062
3467.743, 1642.531
3469.672, 1650.874
3471.600, 1652.078
3473.529, 1630.791
3475.457, 1621.832
3477.385, 1646.720
3479.314, 1647.433
3481.242, 1621.540
3483.171, 1636.709
3485.099, 1671.067
3487.028, 1644.976
3488.956, 1612.087
3490.885, 1627.853
3492.813, 1643.897
3494.742, 1642.358
3496.670, 1642.899
3498.599, 1649.232
3500.527, 1648.149
3502.456, 1640.355
3504.384, 1621.415
3506.313, 1606.763
3508.241, 1620.380
3510.169, 1629.700
3512.098, 1619.455
3514.026, 1618.074
3515.955, 1631.304
3517.883, 1644.049
3519.812, 1652.696
3521.740, 1641.806
3523.669, 1630.314
3525.597, 1644.432
3527.526, 1653.864
3529.454, 1639.020
3531.383, 1640.258
3533.311, 1659.994
3535.240, 1665.320
3537.168, 1659.744
3539.096, 1652.687
3541.025, 1644.914
3542.953, 1631.998
3544.882, 1629.633
3546.810, 1650.484
3548.739, 1661.874
3550.667, 1661.991
3552.596, 1649.827
3554.524, 1635.390
3556.453, 1646.132
3558.381, 1656.883
3560.310, 1642.656
3562.238, 1641.263
3564.167, 1663.513
3566.095, 1661.010
3568.023, 1636.333
3569.952, 1640.018
3571.880, 1654.152
3573.809, 1656.021
3575.737, 1652.166
3577.666, 1641.682
3579.594, 1637.826
3581.523, 1642.671
3583.451, 1665.869
3585.380, 1695.587
3587.308, 1678.822
3589.237, 1654.366
3591.165, 1665.332
3593.094, 1664.778
3595.022, 1634.096
3596.950, 1622.989
3598.879, 1635.048
3600.807, 1647.127
3602.736, 1659.220
3604.664, 1676.581
3606.593, 1684.112
3608.521, 1668.063
3610.450, 1660.201
3612.378, 1670.617
3614.307, 1671.963
3616.235, 1665.783
3618.164, 1653.981
3620.092, 1643.436
3622.021, 1638.925
3623.949, 1643.343
3625.877, 1662.738
3627.806, 1673.021
3629.734, 1672.446
3631.663, 1640.801
3633.591, 1610.282
3635.520, 1640.304
3637.448, 1666.902
3639.377, 1657.634
3641.305, 1652.752
3643.234, 1657.108
3645.162, 1673.647
3647.091, 1690.391
3649.019, 1677.813
3650.948, 1660.795
3652.876, 1653.194
3654.804, 1650.519
3656.733, 1651.903
3658.661, 1660.425
3660.590, 1670.096
3662.518, 1658.839
3664.447, 1645.952
3666.375, 1649.350
3668.304, 1653.327
3670.232, 1651.336
3672.161, 1656.908
3674.089, 1666.616
3676.018, 1668.074
3677.946, 1660.233
3679.875, 1631.125
3681.803, 1615.933
3683.731, 1640.143
3685.660, 1647.562
3687.588, 1642.111
3689.517, 1659.020
3691.445, 1677.848
3693.374, 1660.174
3695.302, 1653.264
3697.231, 1696.089
3699.159, 1692.882
3701.088, 1649.636
3703.016, 1640.610
3704.945, 1648.653
3706.873, 1655.727
3708.802, 1655.002
3710.730, 1635.399
3712.658, 1631.566
3714.587, 1642.971
3716.515, 1649.504
3718.444, 1652.706
3720.372, 1655.082
3722.301, 1655.295
3724.229, 1649.125
3726.158, 1653.942
3728.086, 1668.428
3730.015, 1673.501
3731.943, 1671.580
3733.872, 1664.351
3735.800, 1653.851
3737.729, 1638.179
3739.657, 1626.622
3741.585, 1621.007
3743.514, 1637.953
3745.442, 1658.724
3747.371, 1659.197
3749.299, 1653.677
3751.228, 1642.744
3753.156, 1646.308
3755.085, 1659.946
3757.013, 1653.788
3758.942, 1641.094
3760.870, 1632.390
3762.799, 1631.519
3764.727, 1643.433
3766.656, 1644.417
3768.584, 1639.003
3770.512, 1649.777
3772.441, 1660.529
3774.369, 1655.475
3776.298, 1649.563
3778.226, 1645.791
3780.155, 1644.217
3782.083, 1644.596
3784.012, 1651.576
3785.940, 1649.362
3787.869, 1618.046
3789.797, 1613.211
3791.726, 1646.231
3793.654, 1656.388
3795.583, 1650.807
3797.511, 1634.983
3799.439, 1626.558
3801.368, 1635.406
3803.296, 1634.143
3805.225, 1623.107
3807.153, 1636.937
3809.082, 1657.228
3811.010, 1665.972
3812.939, 1667.971
3814.867, 1664.934
3816.796, 1650.294
3818.724, 1631.734
3820.653, 1641.164
3822.581, 1653.010
3824.510, 1644.973
3826.438, 1643.710
3828.366, 1652.192
3830.295, 1660.888
3832.223, 1665.398
3834.152, 1652.742
3836.080, 1644.836
3838.009, 1658.874
3839.937, 1650.655
3841.866, 1627.514
3843.794, 1647.692
3845.723, 1671.330
3847.651, 1657.483
3849.580, 1646.499
3851.508, 1648.701
3853.437, 1658.973
3855.365, 1668.887
3857.293, 1657.298
3859.222, 1645.498
3861.150, 1643.737
3863.079, 1645.301
3865.007, 1647.724
3866.936, 1635.795
3868.864, 1619.898
3870.793, 1604.842
3872.721, 1605.083
3874.650, 1629.145
3876.578, 1635.252
3878.507, 1626.787
3880.435, 1602.639
3882.364, 1586.425
3884.292, 1587.651
3886.220, 1606.449
3888.149, 1636.249
3890.077, 1632.524
3892.006, 1620.842
3893.934, 1629.449
3895.863, 1623.623
3897.791, 1598.377
3899.720, 1577.456
3901.648, 1566.374
3903.577, 1576.306
3905.505, 1596.666
3907.434, 1630.544
3909.362, 1626.134
3911.291, 1596.021
3913.219, 1584.344
3915.147, 1585.060
3917.076, 1601.134
3919.004, 1607.320
3920.933, 1601.614
3922.861, 1594.499
3924.790, 1589.290
3926.718, 1580.813
3928.647, 1576.421
3930.575, 1582.815
3932.504, 1574.784
3934.432, 1570.202
3936.361, 1589.776
3938.289, 1603.005
3940.218, 1600.252
3942.146, 1580.245
3944.074, 1557.598
3946.003, 1561.881
3947.931, 1567.938
3949.860, 1556.879
3951.788, 1553.215
3953.717, 1563.768
3955.645, 1556.331
3957.574, 1548.733
3959.502, 1572.711
3961.431, 1582.460
3963.359, 1567.986
3965.288, 1564.284
3967.216, 1563.671
3969.145, 1540.785
3971.073, 1535.370
3973.001, 1561.588
3974.930, 1556.828
3976.858, 1542.229
3978.787, 1544.267
3980.715, 1544.553
3982.644, 1532.314
3984.572, 1538.599
3986.501, 1553.494
3988.429, 1549.239
3990.358, 1546.432
3992.286, 1558.962
3994.215, 1556.748
3996.143, 1544.319
3998.072, 1539.275
4000.000, 1531.500
4001.928, 1526.143
4003.857, 1521.732
4005.785, 1512.960
4007.714, 1524.226
4009.642, 1543.556
4011.571, 1540.223
4013.499, 1533.136
4015.428, 1535.162
4017.356, 1529.114
4019.285, 1508.612
4021.213, 1503.478
4023.142, 1523.511
4025.070, 1530.755
4026.999, 1525.403
4028.927, 1515.900
4030.855, 1506.760
4032.784, 1496.159
4034.712, 1486.573
4036.641, 1506.119
4038.569, 1528.966
4040.498, 1527.671
4042.426, 1509.515
4044.355, 1495.004
4046.283, 1501.273
4048.212, 1515.161
4050.140, 1531.357
4052.069, 1519.531
4053.997, 1481.303
4055.926, 1481.318
4057.854, 1495.966
4059.782, 1512.527
4061.711, 1510.577
4063.639, 1491.272
4065.568, 1489.734
4067.496, 1488.682
4069.425, 1473.470
4071.353, 1458.316
4073.282, 1457.459
4075.210, 1488.421
4077.139, 1505.361
4079.067, 1467.417
4080.996, 1468.535
4082.924, 1508.000
4084.853, 1498.116
4086.781, 1481.488
4088.709, 1500.944
4090.638, 1495.839
4092.566, 1470.139
4094.495, 1472.128
4096.423, 1480.560
4098.352, 1479.072
4100.280, 1476.961
4102.208, 1478.230
4104.137, 1470.820
4106.065, 1463.430
4107.994, 1470.413
4109.922, 1473.468
4111.851, 1470.902
4113.779, 1460.899
4115.708, 1456.720
4117.636, 1481.158
4119.565, 1490.649
4121.493, 1477.730
4123.422, 1460.093
4125.350, 1448.977
4127.279, 1462.577
4129.207, 1473.633
4131.136, 1480.006
4133.064, 1458.811
4134.993, 1438.927
4136.921, 1469.922
4138.850, 1485.460
4140.778, 1467.749
4142.707, 1461.139
4144.635, 1463.319
4146.563, 1460.147
4148.492, 1457.926
4150.420, 1460.025
4152.349, 1456.422
4154.277, 1449.899
4156.206, 1454.089
4158.134, 1452.843
4160.063, 1445.226
4161.991, 1452.438
4163.919, 1460.956
4165.848, 1470.533
4167.776, 1466.982
4169.705, 1444.364
4171.633, 1446.487
4173.562, 1455.128
4175.490, 1446.367
4177.419, 1441.709
4179.347, 1444.984
4181.276, 1444.857
4183.204, 1442.569
4185.133, 1450.491
4187.061, 1452.492
4188.990, 1442.245
4190.918, 1431.345
4192.847, 1426.232
4194.775, 1435.214
4196.704, 1443.712
4198.632, 1451.894
4200.561, 1447.374
4202.489, 1440.928
4204.417, 1456.017
4206.346, 1464.568
4208.274, 1461.131
4210.203, 1449.512
4212.131, 1435.984
4214.060, 1435.089
4215.988, 1425.231
4217.917, 1407.810
4219.845, 1437.338
4221.773, 1465.540
4223.702, 1433.906
4225.630, 1416.480
4227.559, 1421.397
4229.487, 1420.811
4231.416, 1420.415
4233.344, 1427.221
4235.273, 1435.908
4237.201, 1444.861
4239.130, 1461.778
4241.058, 1466.739
4242.987, 1434.062
4244.915, 1428.554
4246.844, 1439.741
4248.772, 1431.202
4250.701, 1421.259
4252.629, 1416.542
4254.558, 1423.115
4256.486, 1435.506
4258.415, 1448.792
4260.343, 1447.621
4262.271, 1422.195
4264.200, 1417.722
4266.128, 1422.549
4268.057, 1417.693
4269.985, 1424.046
4271.914, 1445.374
4273.842, 1436.182
4275.771, 1419.744
4277.699, 1413.739
4279.627, 1429.578
4281.556, 1461.751
4283.484, 1463.959
4285.413, 1456.658
4287.341, 1450.467
4289.270, 1451.784
4291.198, 1455.792
4293.127, 1437.668
4295.055, 1434.429
4296.984, 1474.122
4298.912, 1473.396
4300.841, 1453.952
4302.769, 1459.580
4304.698, 1453.188
4306.626, 1423.768
4308.555, 1418.146
4310.483, 1428.279
4312.412, 1452.038
4314.340, 1474.043
4316.269, 1490.051
4318.197, 1478.920
4320.125, 1461.047
4322.054, 1445.192
4323.982, 1444.460
4325.911, 1453.129
4327.839, 1452.981
4329.768, 1461.516
4331.696, 1485.036
4333.625, 1490.047
4335.553, 1479.678
4337.481, 1448.382
4339.410, 1439.339
4341.338, 1455.685
4343.267, 1482.191
4345.195, 1491.373
4347.124, 1458.663
4349.052, 1456.198
4350.981, 1473.285
4352.909, 1461.698
4354.838, 1449.391
4356.766, 1445.851
4358.695, 1463.817
4360.623, 1481.179
4362.552, 1463.657
4364.480, 1457.399
4366.409, 1466.270
4368.337, 1456.106
4370.266, 1454.006
4372.194, 1499.154
4374.123, 1471.511
4376.051, 1417.708
4377.979, 1477.032
4379.908, 1510.048
4381.836, 1469.931
4383.765, 1454.510
4385.693, 1453.282
4387.622, 1457.690
4389.550, 1470.864
4391.479, 1488.872
4393.407, 1498.719
4395.335, 1486.780
4397.264, 1443.726
4399.192, 1463.375
4401.121, 1498.575
4403.049, 1467.066
4404.978, 1457.857
4406.906, 1478.238
4408.835, 1487.200
4410.763, 1481.516
4412.692, 1451.521
4414.620, 1470.693
4416.549, 1511.853
4418.477, 1522.734
4420.406, 1507.039
4422.334, 1467.812
4424.263, 1481.607
4426.191, 1499.074
4428.120, 1476.445
4430.048, 1458.198
4431.977, 1450.188
4433.905, 1464.671
4435.833, 1480.708
4437.762, 1492.330
4439.690, 1485.568
4441.619, 1471.500
4443.547, 1457.212
4445.476, 1448.541
4447.404, 1446.401
4449.333, 1455.652
4451.261, 1459.103
4453.189, 1452.608
4455.118, 1469.964
4457.046, 1491.121
4458.975, 1500.102
4460.903, 1491.807
4462.832, 1474.085
4464.760, 1466.095
4466.689, 1470.002
4468.617, 1487.609
4470.546, 1476.658
4472.474, 1469.669
4474.403, 1499.455
4476.331, 1479.533
4478.260, 1437.973
4480.188, 1469.041
4482.117, 1479.372
4484.045, 1451.737
4485.974, 1467.929
4487.902, 1483.816
4489.831, 1454.096
4491.759, 1450.827
4493.688, 1462.029
4495.616, 1459.247
4497.544, 1456.841
4499.473, 1457.665
4501.401, 1462.434
4503.330, 1469.568
4505.258, 1478.660
4507.187, 1483.186
4509.115, 1484.254
4511.043, 1481.067
4512.972, 1487.202
4514.900, 1497.937
4516.829, 1484.134
4518.757, 1470.435
4520.686, 1466.354
4522.614, 1487.237
4524.543, 1495.558
4526.471, 1443.960
4528.400, 1439.369
4530.328, 1460.883
4532.257, 1421.580
4534.185, 1415.686
4536.114, 1455.519
4538.042, 1475.337
4539.971, 1480.368
4541.899, 1465.890
4543.828, 1497.285
4545.756, 1526.561
4547.685, 1463.894
4549.613, 1442.531
4551.542, 1464.453
4553.470, 1477.228
4555.398, 1478.920
4557.327, 1469.773
4559.255, 1451.335
4561.184, 1438.833
4563.112, 1447.107
4565.041, 1449.557
4566.969, 1446.123
4568.897, 1433.845
4570.826, 1432.245
4572.754, 1442.215
4574.683, 1458.087
4576.611, 1466.299
4578.540, 1463.271
4580.468, 1472.339
4582.397, 1479.637
4584.325, 1470.111
4586.254, 1475.564
4588.182, 1482.439
4590.111, 1456.431
4592.039, 1446.908
4593.968, 1455.571
4595.896, 1457.843
4597.825, 1460.363
4599.753, 1464.825
4601.682, 1467.096
4603.610, 1462.014
4605.539, 1439.929
4607.467, 1440.885
4609.396, 1453.471
4611.324, 1465.299
4613.252, 1456.722
4615.181, 1438.139
4617.109, 1450.153
4619.038, 1465.745
4620.966, 1475.346
4622.895, 1454.988
4624.823, 1440.800
4626.751, 1460.337
4628.680, 1442.146
4630.608, 1427.831
4632.537, 1463.012
4634.465, 1473.935
4636.394, 1467.307
4638.322, 1464.141
4640.251, 1461.045
4642.179, 1455.371
4644.108, 1431.464
4646.036, 1426.430
4647.965, 1451.807
4649.893, 1479.620
4651.822, 1489.255
4653.750, 1469.553
4655.679, 1452.196
4657.607, 1442.816
4659.536, 1446.537
4661.464, 1456.042
4663.393, 1461.059
4665.321, 1435.206
4667.250, 1435.853
4669.178, 1457.629
4671.106, 1452.624
4673.035, 1438.904
4674.963, 1424.261
4676.892, 1427.410
4678.820, 1435.818
4680.749, 1443.646
4682.677, 1451.929
4684.605, 1457.851
4686.534, 1459.971
4688.462, 1444.103
4690.391, 1432.009
4692.319, 1465.081
4694.248, 1451.573
4696.176, 1417.847
4698.105, 1442.165
4700.033, 1456.192
4701.962, 1451.297
4703.890, 1435.553
4705.819, 1426.692
4707.747, 1429.388
4709.676, 1439.155
4711.604, 1446.474
4713.533, 1447.189
4715.461, 1439.193
4717.390, 1430.429
4719.318, 1425.363
4721.247, 1426.832
4723.175, 1436.609
4725.104, 1465.527
4727.032, 1458.054
4728.960, 1435.663
4730.889, 1435.937
4732.817, 1426.106
4734.746, 1412.441
4736.674, 1418.934
4738.603, 1429.235
4740.531, 1438.247
4742.459, 1437.377
4744.388, 1435.192
4746.316, 1435.059
4748.245, 1447.739
4750.173, 1449.567
4752.102, 1430.881
4754.030, 1451.894
4755.959, 1464.856
4757.887, 1446.431
4759.816, 1448.764
4761.744, 1452.252
4763.673, 1439.001
4765.601, 1421.310
4767.530, 1412.058
4769.458, 1426.221
4771.387, 1429.454
4773.315, 1426.449
4775.244, 1423.739
4777.172, 1436.349
4779.101, 1450.542
4781.029, 1432.334
4782.958, 1441.239
4784.886, 1465.104
4786.814, 1456.509
4788.743, 1438.199
4790.671, 1420.355
4792.600, 1427.393
4794.528, 1424.952
4796.457, 1409.930
4798.385, 1396.766
4800.313, 1413.986
4802.242, 1457.783
4804.170, 1411.391
4806.099, 1388.874
4808.027, 1423.371
4809.956, 1422.678
4811.884, 1417.398
4813.813, 1422.124
4815.741, 1421.586
4817.670, 1421.830
4819.598, 1425.826
4821.527, 1415.168
4823.455, 1401.770
4825.384, 1393.731
4827.312, 1378.687
4829.241, 1376.884
4831.169, 1404.908
4833.098, 1406.894
4835.026, 1397.072
4836.955, 1384.992
4838.883, 1402.271
4840.812, 1417.484
4842.740, 1398.144
4844.668, 1394.300
4846.597, 1397.700
4848.525, 1391.423
4850.454, 1408.061
4852.382, 1423.902
4854.311, 1404.579
4856.239, 1426.253
4858.167, 1453.103
4860.096, 1418.869
4862.024, 1418.386
4863.953, 1428.823
4865.881, 1404.130
4867.810, 1413.905
4869.738, 1435.083
4871.667, 1418.274
4873.595, 1406.567
4875.524, 1399.948
4877.452, 1389.748
4879.381, 1400.506
4881.309, 1414.911
4883.238, 1394.314
4885.166, 1382.480
4887.095, 1384.482
4889.023, 1412.926
4890.952, 1403.090
4892.880, 1377.270
4894.809, 1385.796
4896.737, 1394.990
4898.666, 1398.281
4900.594, 1389.972
4902.522, 1377.564
4904.451, 1371.483
4906.379, 1387.643
4908.308, 1418.171
4910.236, 1439.451
4912.165, 1408.018
4914.093, 1402.224
4916.021, 1411.200
4917.950, 1410.619
4919.878, 1397.021
4921.807, 1385.322
4923.735, 1402.975
4925.664, 1400.064
4927.592, 1394.694
4929.521, 1419.381
4931.449, 1407.378
4933.378, 1377.002
4935.306, 1349.706
4937.235, 1367.150
4939.163, 1398.996
4941.092, 1414.559
4943.020, 1423.864
4944.949, 1409.449
4946.877, 1351.593
4948.806, 1361.778
4950.734, 1387.320
4952.663, 1373.760
4954.591, 1379.863
4956.520, 1393.370
4958.448, 1405.804
4960.376, 1392.153
4962.305, 1379.324
4964.233, 1383.940
4966.162, 1392.762
4968.090, 1397.358
4970.019, 1393.658
4971.947, 1385.120
4973.875, 1362.281
4975.804, 1329.401
4977.732, 1354.798
4979.661, 1378.291
4981.589, 1379.204
4983.518, 1370.508
4985.446, 1362.336
4987.375, 1358.538
4989.303, 1364.149
4991.232, 1369.244
4993.160, 1370.550
4995.089, 1361.926
4997.017, 1361.734
4998.946, 1366.549
5000.874, 1361.156
5002.803, 1351.755
5004.731, 1347.968
5006.660, 1373.591
5008.588, 1363.415
5010.517, 1339.548
5012.445, 1334.177
5014.374, 1337.501
5016.302, 1341.794
5018.230, 1341.015
5020.159, 1332.483
5022.087, 1332.109
5024.016, 1353.774
5025.944, 1377.315
5027.873, 1372.163
5029.801, 1330.662
5031.729, 1324.466
5033.658, 1345.346
5035.586, 1380.446
5037.515, 1366.010
5039.443, 1354.048
5041.372, 1356.537
5043.300, 1367.046
5045.229, 1356.883
5047.157, 1338.479
5049.086, 1356.828
5051.014, 1353.941
5052.943, 1333.383
5054.871, 1301.199
5056.800, 1305.240
5058.728, 1324.106
5060.657, 1334.408
5062.585, 1345.716
5064.514, 1350.965
5066.442, 1344.576
5068.371, 1332.046
5070.299, 1331.143
5072.228, 1347.416
5074.156, 1360.448
5076.084, 1360.159
5078.013, 1346.343
5079.941, 1320.923
5081.870, 1316.181
5083.798, 1324.880
5085.727, 1311.500
5087.655, 1327.250
5089.583, 1353.477
5091.512, 1360.523
5093.440, 1340.390
5095.369, 1320.846
5097.297, 1328.316
5099.226, 1312.277
5101.154, 1295.742
5103.083, 1290.534
5105.011, 1303.177
5106.940, 1314.304
5108.868, 1318.901
5110.797, 1324.348
5112.725, 1310.491
5114.654, 1293.966
5116.582, 1328.281
5118.511, 1321.811
5120.439, 1297.342
5122.368, 1290.459
5124.296, 1302.910
5126.225, 1319.780
5128.153, 1331.753
5130.082, 1315.905
5132.010, 1296.431
5133.938, 1285.356
5135.867, 1302.535
5137.795, 1301.748
5139.724, 1287.350
5141.652, 1295.851
5143.581, 1290.188
5145.509, 1283.079
5147.438, 1298.070
5149.366, 1311.917
5151.294, 1316.707
5153.223, 1308.201
5155.151, 1280.052
5157.080, 1278.138
5159.008, 1307.790
5160.937, 1299.535
5162.865, 1288.444
5164.794, 1289.106
5166.722, 1323.398
5168.651, 1310.938
5170.579, 1282.875
5172.508, 1280.217
5174.436, 1289.787
5176.365, 1300.321
5178.293, 1305.918
5180.222, 1303.581
5182.150, 1284.760
5184.079, 1259.263
5186.007, 1264.674
5187.936, 1281.565
5189.864, 1295.397
5191.792, 1292.342
5193.721, 1262.098
5195.649, 1253.089
5197.578, 1300.610
5199.506, 1273.428
5201.435, 1261.937
5203.363, 1281.660
5205.292, 1275.865
5207.220, 1260.620
5209.148, 1249.413
5211.077, 1264.607
5213.005, 1255.740
5214.934, 1247.110
5216.862, 1257.222
5218.791, 1253.891
5220.719, 1245.708
5222.648, 1238.549
5224.576, 1237.917
5226.505, 1255.963
5228.433, 1280.423
5230.362, 1288.952
5232.290, 1312.671
5234.219, 1309.877
5236.147, 1259.601
5238.076, 1278.030
5240.004, 1282.388
5241.933, 1261.876
5243.861, 1267.858
5245.790, 1261.191
5247.718, 1249.128
5249.646, 1248.862
5251.575, 1232.020
5253.503, 1230.552
5255.432, 1253.769
5257.360, 1244.002
5259.289, 1243.669
5261.217, 1248.862
5263.146, 1217.849
5265.074, 1245.406
5267.002, 1275.487
5268.931, 1254.661
5270.859, 1221.785
5272.788, 1230.146
5274.716, 1275.101
5276.645, 1276.440
5278.573, 1262.574
5280.502, 1241.259
5282.430, 1207.856
5284.359, 1234.297
5286.287, 1254.760
5288.216, 1239.380
5290.144, 1229.452
5292.073, 1230.354
5294.001, 1236.375
5295.930, 1234.613
5297.858, 1253.053
5299.787, 1261.510
5301.715, 1238.946
5303.644, 1244.857
5305.572, 1240.346
5307.500, 1226.886
5309.429, 1238.093
5311.357, 1240.990
5313.286, 1233.070
5315.214, 1216.647
5317.143, 1203.063
5319.071, 1204.500
5321.000, 1215.404
5322.928, 1202.476
5324.856, 1205.759
5326.785, 1212.848
5328.713, 1207.372
5330.642, 1209.107
5332.570, 1209.002
5334.499, 1204.960
5336.427, 1199.780
5338.356, 1205.003
5340.284, 1213.081
5342.213, 1216.011
5344.141, 1207.509
5346.070, 1200.790
5347.998, 1201.503
5349.927, 1215.845
5351.855, 1199.859
5353.784, 1188.277
5355.712, 1219.411
5357.641, 1216.112
5359.569, 1209.120
5361.498, 1208.227
5363.426, 1197.685
5365.354, 1199.307
5367.283, 1209.874
5369.211, 1223.233
5371.140, 1183.694
5373.068, 1166.762
5374.997, 1184.078
5376.925, 1207.773
5378.854, 1203.754
5380.782, 1187.156
5382.710, 1171.893
5384.639, 1197.288
5386.567, 1195.028
5388.496, 1176.560
5390.424, 1208.135
5392.353, 1210.436
5394.281, 1187.442
5396.210, 1155.545
5398.138, 1175.069
5400.067, 1176.302
5401.995, 1160.492
5403.924, 1147.111
5405.852, 1162.958
5407.781, 1180.298
5409.709, 1185.226
5411.638, 1173.399
5413.566, 1161.816
5415.495, 1156.738
5417.423, 1160.610
5419.352, 1154.649
5421.280, 1165.026
5423.208, 1188.376
5425.137, 1200.103
5427.065, 1176.777
5428.994, 1157.054
5430.922, 1164.754
5432.851, 1190.831
5434.779, 1179.861
5436.708, 1155.312
5438.636, 1162.978
5440.564, 1171.637
5442.493, 1174.209
5444.421, 1169.916
5446.350, 1159.290
5448.278, 1161.063
5450.207, 1162.075
5452.135, 1151.560
5454.064, 1164.413
5455.992, 1163.398
5457.921, 1155.131
5459.849, 1163.734
5461.778, 1152.371
5463.706, 1147.143
5465.635, 1150.383
5467.563, 1122.030
5469.492, 1114.950
5471.420, 1120.350
5473.349, 1126.874
5475.277, 1125.260
5477.206, 1135.881
5479.134, 1154.687
5481.063, 1170.900
5482.991, 1140.672
5484.919, 1127.837
5486.848, 1137.884
5488.776, 1113.611
5490.705, 1121.334
5492.633, 1128.151
5494.562, 1113.020
5496.490, 1110.170
5498.418, 1121.710
5500.347, 1129.965
5502.275, 1114.262
5504.204, 1111.701
5506.132, 1141.863
5508.061, 1173.485
5509.989, 1142.052
5511.918, 1133.558
5513.846, 1135.765
5515.775, 1137.119
5517.703, 1133.020
5519.632, 1117.618
5521.560, 1100.024
5523.489, 1088.429
5525.417, 1105.656
5527.346, 1117.540
5529.274, 1116.757
5531.203, 1103.363
5533.131, 1115.964
5535.060, 1114.305
5536.988, 1105.104
5538.917, 1115.206
5540.845, 1099.315
5542.773, 1097.357
5544.702, 1113.422
5546.630, 1113.538
5548.559, 1126.466
5550.487, 1117.734
5552.416, 1081.306
5554.344, 1079.178
5556.272, 1069.728
5558.201, 1064.412
5560.129, 1075.013
5562.058, 1102.046
5563.986, 1096.967
5565.915, 1076.847
5567.843, 1067.153
5569.772, 1076.723
5571.700, 1084.653
5573.629, 1090.559
5575.557, 1100.807
5577.486, 1112.318
5579.414, 1097.467
5581.343, 1073.390
5583.271, 1088.934
5585.200, 1074.946
5587.128, 1085.943
5589.057, 1107.882
5590.985, 1062.057
5592.914, 1074.625
5594.842, 1085.064
5596.771, 1069.917
5598.699, 1055.509
5600.627, 1065.994
5602.556, 1070.597
5604.484, 1059.025
5606.413, 1064.539
5608.341, 1067.880
5610.270, 1065.480
5612.198, 1059.581
5614.126, 1067.566
5616.055, 1076.126
5617.983, 1070.433
5619.912, 1048.431
5621.840, 1052.896
5623.769, 1060.946
5625.697, 1055.057
5627.626, 1032.841
5629.554, 1045.764
5631.483, 1046.076
5633.411, 1046.794
5635.340, 1063.822
5637.268, 1092.759
5639.197, 1064.069
5641.125, 1029.444
5643.054, 1042.080
5644.982, 1057.261
5646.911, 1048.543
5648.839, 1028.814
5650.768, 1017.162
5652.696, 1049.191
5654.625, 1047.821
5656.553, 1019.500
5658.481, 990.5500
5660.410, 1009.461
5662.338, 1021.275
5664.267, 1027.570
5666.195, 1036.572
5668.124, 1012.454
5670.052, 1012.374
5671.980, 1023.700
5673.909, 1026.593
5675.837, 1023.649
5677.766, 1050.663
5679.694, 1047.102
5681.623, 975.6826
5683.551, 997.5197
5685.480, 1028.015
5687.408, 1038.111
5689.337, 1022.555
5691.265, 1008.222
5693.194, 994.1010
5695.122, 994.0873
5697.051, 1012.663
5698.979, 1035.275
5700.908, 1029.569
5702.836, 1020.897
5704.765, 1022.287
5706.693, 1020.482
5708.622, 981.5301
5710.550, 972.6987
5712.479, 1002.207
5714.407, 981.1378
5716.335, 984.7163
5718.264, 1004.369
5720.192, 1019.710
5722.121, 998.9676
5724.049, 1000.467
5725.978, 1014.492
5727.906, 1018.803
5729.834, 988.4018
5731.763, 966.3681
5733.691, 960.3328
5735.620, 973.6945
5737.548, 1005.951
5739.477, 1001.594
5741.405, 1006.784
5743.334, 1012.012
5745.262, 999.1124
5747.191, 969.8998
5749.119, 991.0665
5751.048, 1018.444
5752.976, 1014.000
5754.905, 981.6197
5756.833, 956.0314
5758.762, 958.5721
5760.690, 979.6827
5762.619, 964.7993
5764.547, 966.2186
5766.476, 971.1484
5768.404, 971.6719
5770.333, 966.8545
5772.261, 982.7156
5774.189, 971.0130
5776.118, 949.8949
5778.046, 954.4295
5779.975, 956.4162
5781.903, 961.6548
5783.832, 954.7321
5785.760, 935.1551
5787.688, 985.4359
5789.617, 985.2799
5791.545, 974.2754
5793.474, 973.6729
5795.402, 944.3439
5797.331, 963.5594
5799.259, 964.9636
5801.188, 952.5276
5803.116, 983.5848
5805.045, 993.1406
5806.973, 979.3353
5808.902, 954.6883
5810.830, 935.1938
5812.759, 962.3607
5814.687, 976.6930
5816.616, 984.6368
5818.544, 988.0869
5820.473, 961.2370
5822.401, 950.4669
5824.330, 949.0891
5826.258, 950.7266
5828.187, 953.2466
5830.115, 961.1122
5832.043, 963.3182
5833.972, 952.3252
5835.900, 931.4884
5837.829, 945.4619
5839.757, 952.5452
5841.686, 952.9754
5843.614, 948.7581
5845.542, 934.8877
5847.471, 932.6859
5849.399, 930.0352
5851.328, 928.0471
5853.256, 932.8007
5855.185, 924.1400
5857.113, 949.0168
5859.042, 958.0359
5860.970, 928.5233
5862.899, 900.0889
5864.827, 901.5842
5866.756, 919.6542
5868.684, 938.7108
5870.613, 945.3484
5872.541, 943.1140
5874.470, 923.3878
5876.398, 913.7093
5878.327, 926.9069
5880.255, 934.0453
5882.184, 931.7607
5884.112, 936.1575
5886.041, 947.8983
5887.969, 956.5610
5889.897, 911.9102
5891.826, 918.4198
5893.754, 927.6487
5895.683, 906.6808
5897.611, 904.6698
5899.540, 920.1816
5901.468, 933.9146
5903.396, 929.8301
5905.325, 903.4947
5907.253, 921.6053
5909.182, 913.7342
5911.110, 902.0305
5913.039, 905.5302
5914.967, 920.4635
5916.896, 924.1945
5918.824, 910.4929
5920.753, 897.3500
5922.681, 901.6027
5924.610, 902.1471
5926.538, 925.8748
5928.467, 913.5203
5930.395, 881.2462
5932.324, 930.1251
5934.252, 903.6916
5936.181, 900.6024
5938.109, 910.3170
5940.038, 906.0389
5941.966, 878.0047
5943.895, 864.5811
5945.823, 877.0562
5947.751, 895.4274
5949.680, 894.3546
5951.608, 892.3390
5953.537, 895.9986
5955.465, 902.5057
5957.394, 904.4153
5959.322, 892.7189
5961.250, 904.8430
5963.179, 892.0774
5965.107, 879.2715
5967.036, 891.3090
5968.964, 926.9177
5970.893, 912.7315
5972.821, 899.8361
5974.750, 887.4094
5976.678, 868.1501
5978.607, 888.9698
5980.535, 894.2289
5982.464, 887.8029
5984.392, 884.7296
5986.321, 890.5123
5988.249, 836.9894
5990.178, 857.8293
5992.106, 881.3383
5994.035, 878.9135
5995.963, 880.4862
5997.892, 853.2419
5999.820, 871.4301
6001.749, 884.6279
6003.677, 869.5869
6005.605, 863.3845
6007.534, 861.9774
6009.462, 866.1650
6011.391, 866.7472
6013.319, 860.1011
6015.248, 854.0569
6017.176, 868.4271
6019.104, 880.9686
6021.033, 873.6948
6022.961, 850.6011
6024.890, 857.8860
6026.818, 845.3042
6028.747, 854.3815
6030.675, 867.5273
6032.604, 862.6254
6034.532, 871.8943
6036.461, 842.2966
6038.389, 853.0413
6040.318, 873.5679
6042.246, 859.0811
6044.175, 873.7064
6046.103, 858.6874
6048.032, 850.8426
6049.960, 867.9021
6051.889, 900.1136
6053.817, 882.0633
6055.746, 891.6137
6057.674, 899.9952
6059.603, 893.3217
6061.531, 874.2668
6063.459, 852.9548
6065.388, 845.5313
6067.316, 847.8328
6069.245, 841.7720
6071.173, 822.7429
6073.102, 844.8257
6075.030, 850.3851
6076.958, 869.2747
6078.887, 869.1465
6080.815, 829.6274
6082.744, 825.8004
6084.672, 828.9397
6086.601, 827.1379
6088.529, 825.4973
6090.458, 828.4405
6092.386, 829.1131
6094.315, 826.2909
6096.243, 826.6842
6098.172, 832.1379
6100.100, 836.5935
6102.029, 824.5781
6103.957, 810.6431
6105.886, 819.4282
6107.814, 828.0750
6109.743, 828.0014
6111.671, 834.2493
6113.600, 832.1088
6115.528, 837.5855
6117.457, 824.2899
6119.385, 803.4586
6121.313, 807.3912
6123.242, 810.9996
6125.170, 809.9686
6127.099, 818.8054
6129.027, 829.6339
6130.956, 831.5698
6132.884, 847.1577
6134.813, 810.4720
6136.741, 798.3347
6138.669, 809.2230
6140.598, 819.0078
6142.526, 822.0751
6144.455, 811.6823
6146.383, 813.8708
6148.312, 823.8703
6150.240, 829.0270
6152.169, 820.4050
6154.097, 795.3170
6156.026, 793.2222
6157.954, 804.3596
6159.883, 808.0914
6161.811, 799.3044
6163.740, 819.1243
6165.668, 828.8073
6167.597, 821.2191
6169.525, 808.7296
6171.454, 800.8326
6173.382, 795.6822
6175.311, 781.4675
6177.239, 781.1315
6179.167, 787.6082
6181.096, 793.3205
6183.024, 794.9235
6184.953, 783.5170
6186.881, 791.6883
6188.810, 807.7553
6190.738, 801.2676
6192.667, 772.6402
6194.595, 775.0066
6196.523, 786.2841
6198.452, 788.0790
6200.380, 783.2720
6202.309, 786.7253
6204.237, 804.4662
6206.166, 763.4269
6208.094, 784.3209
6210.023, 800.3002
6211.951, 790.9178
6213.880, 770.6579
6215.808, 763.6756
6217.737, 747.7924
6219.665, 751.6118
6221.594, 779.1438
6223.522, 802.5576
6225.451, 800.0206
6227.379, 811.4587
6229.308, 780.9548
6231.236, 770.6898
6233.165, 766.1800
6235.093, 764.3927
6237.021, 785.0809
6238.950, 764.4213
6240.878, 757.7245
6242.807, 767.6605
6244.735, 766.7511
6246.664, 749.3156
6248.592, 746.5091
6250.521, 762.6319
6252.449, 767.5651
6254.377, 778.3320
6256.306, 770.7988
6258.234, 742.0656
6260.163, 766.3286
6262.091, 776.6900
6264.020, 747.1526
6265.948, 738.0156
6267.877, 753.7655
6269.805, 762.2291
6271.734, 756.1310
6273.662, 748.7052
6275.591, 741.3708
6277.519, 739.9116
6279.448, 739.3765
6281.376, 732.0495
6283.305, 728.9446
6285.233, 755.2300
6287.162, 761.3542
6289.090, 763.8594
6291.019, 761.3395
6292.947, 737.2522
6294.875, 764.5771
6296.804, 765.7360
6298.732, 757.3535
6300.661, 758.6790
6302.589, 755.5009
6304.518, 725.0144
6306.446, 741.7902
6308.375, 717.0909
6310.303, 721.2120
6312.231, 732.9346
6314.160, 730.4048
6316.088, 720.1929
6318.017, 719.3359
6319.945, 720.0031
6321.874, 744.7034
6323.802, 755.3602
6325.731, 742.9313
6327.659, 732.9966
6329.588, 751.5301
6331.516, 731.6456
6333.445, 720.0101
6335.373, 724.8486
6337.302, 729.4290
6339.230, 724.4205
6341.159, 730.1363
6343.087, 738.6385
6345.016, 734.0112
6346.944, 715.3633
6348.873, 713.9293
6350.801, 733.9487
6352.729, 721.7501
6354.658, 743.5408
6356.586, 738.5320
6358.515, 750.7459
6360.443, 746.0822
6362.372, 725.5436
6364.300, 741.2135
6366.229, 726.9218
6368.157, 740.2551
6370.085, 722.2334
6372.014, 698.5380
6373.942, 692.5763
6375.871, 702.3730
6377.799, 719.2455
6379.728, 737.4691
6381.656, 744.3079
6383.585, 717.8646
6385.513, 708.3013
6387.442, 736.1074
6389.370, 745.1760
6391.299, 715.2411
6393.227, 730.4191
6395.156, 735.5737
6397.084, 727.1926
6399.013, 716.8122
6400.941, 709.5132
6402.870, 711.1395
6404.798, 710.9796
6406.727, 713.4712
6408.655, 725.8290
6410.583, 731.2228
6412.512, 712.6561
6414.440, 681.8491
6416.369, 732.5067
6418.297, 712.5037
6420.226, 705.3739
6422.154, 694.9602
6424.083, 693.4717
6426.011, 717.6223
6427.939, 729.8226
6429.868, 728.4592
6431.796, 730.9149
6433.725, 697.9458
6435.653, 673.5937
6437.582, 675.9960
6439.510, 685.7017
6441.439, 696.9083
6443.367, 712.6441
6445.296, 695.8390
6447.224, 668.6616
6449.153, 676.5128
6451.081, 703.2976
6453.010, 704.6426
6454.938, 711.2906
6456.867, 691.1782
6458.795, 678.9127
6460.724, 683.8203
6462.652, 675.2351
6464.581, 662.2323
6466.509, 678.8166
6468.438, 669.4899
6470.366, 676.8704
6472.294, 682.9948
6474.223, 698.8522
6476.151, 705.7687
6478.080, 685.6780
6480.008, 650.7228
6481.937, 672.3649
6483.865, 682.7117
6485.793, 677.5793
6487.722, 682.6384
6489.650, 688.1951
6491.579, 680.4530
6493.507, 669.5948
6495.436, 688.7380
6497.364, 683.0771
6499.293, 683.7280
6501.221, 679.8781
6503.150, 676.0932
6505.078, 675.4902
6507.007, 670.5613
6508.935, 646.1676
6510.864, 666.9891
6512.792, 662.1752
6514.721, 638.9282
6516.649, 639.9323
6518.578, 648.1536
6520.506, 645.1059
6522.435, 649.8865
6524.363, 657.0484
6526.292, 679.6152
6528.220, 669.9664
6530.148, 662.2937
6532.077, 659.8087
6534.005, 654.1683
6535.934, 646.4105
6537.862, 640.5969
6539.791, 653.0767
6541.719, 660.5926
6543.647, 650.4342
6545.576, 654.5859
6547.504, 669.8770
6549.433, 674.2741
6551.361, 661.8561
6553.290, 649.8950
6555.218, 635.0463
6557.147, 633.6593
6559.075, 629.0804
6561.004, 634.4554
6562.932, 636.1667
6564.861, 626.1047
6566.789, 625.1564
6568.718, 613.9487
6570.646, 630.4003
6572.575, 617.5154
6574.503, 617.1537
6576.432, 601.7060
6578.360, 588.3711
##END=



