##NAMES=Davidite-(Ce)
##RRUFFID=R120009
##IDEAL CHEMISTRY=Ce(Y,U)Fe_2_(Ti,Fe,Cr,V)_18_(O,OH,F)_38_
##LOCALITY=Mount Kaskasnyunchorr, Khibiny Massif, Kola Peninsula, Russia
##OWNER=RRUFF
##SOURCE=Marcus Origlieri
##DESCRIPTION=Black rhombohedral grains associated with red rutile and colorless orthoclase
##STATUS=The identification of this mineral has been confirmed only by single crystal X-ray diffraction
##URL=https://www.rruff.net/odr/rruff_sample/R120009
##DIFFRACTION SAMPLE DESCRIPTION=Single crystal, powder profile is calculated
##CELL PARAMETERS=a: 10.4222 b: 10.4222 c: 20.943 alpha: 90 beta: 90 gamma: 120 volume: 1970.1 crystal system: hexagonal
##FILETYPE=Raman RAW
##RAMAN WAVELENGTH=780

7.931860e+001, 0.000000e+000
8.124707e+001, 1.222132e+006
8.317554e+001, 1.124730e+006
8.510400e+001, 1.152904e+006
8.703247e+001, 1.319004e+006
8.896094e+001, 1.502946e+006
9.088940e+001, 1.711600e+006
9.281787e+001, 1.922102e+006
9.474634e+001, 2.081216e+006
9.667480e+001, 2.071616e+006
9.860327e+001, 2.049863e+006
1.005317e+002, 2.033811e+006
1.024602e+002, 2.020914e+006
1.043887e+002, 2.010241e+006
1.063171e+002, 2.003272e+006
1.082456e+002, 1.997869e+006
1.101741e+002, 1.994950e+006
1.121025e+002, 1.994508e+006
1.140310e+002, 1.994995e+006
1.159595e+002, 1.997694e+006
1.178879e+002, 2.000175e+006
1.198164e+002, 2.004827e+006
1.217449e+002, 2.012247e+006
1.236733e+002, 2.020335e+006
1.256018e+002, 2.026750e+006
1.275303e+002, 2.031066e+006
1.294587e+002, 2.037312e+006
1.313872e+002, 2.045512e+006
1.333157e+002, 2.054150e+006
1.352441e+002, 2.062776e+006
1.371726e+002, 2.071374e+006
1.391011e+002, 2.079963e+006
1.410295e+002, 2.088573e+006
1.429580e+002, 2.097260e+006
1.448865e+002, 2.106134e+006
1.468149e+002, 2.114715e+006
1.487434e+002, 2.122646e+006
1.506719e+002, 2.130347e+006
1.526003e+002, 2.137799e+006
1.545288e+002, 2.145111e+006
1.564573e+002, 2.152955e+006
1.583857e+002, 2.161419e+006
1.603142e+002, 2.169660e+006
1.622427e+002, 2.177133e+006
1.641711e+002, 2.184768e+006
1.660996e+002, 2.193293e+006
1.680281e+002, 2.202304e+006
1.699565e+002, 2.210754e+006
1.718850e+002, 2.218625e+006
1.738135e+002, 2.226603e+006
1.757419e+002, 2.234889e+006
1.776704e+002, 2.243234e+006
1.795989e+002, 2.251430e+006
1.815273e+002, 2.259690e+006
1.834558e+002, 2.268469e+006
1.853843e+002, 2.277698e+006
1.873127e+002, 2.286565e+006
1.892412e+002, 2.294630e+006
1.911697e+002, 2.302873e+006
1.930981e+002, 2.311698e+006
1.950266e+002, 2.320647e+006
1.969551e+002, 2.329097e+006
1.988835e+002, 2.337279e+006
2.008120e+002, 2.346005e+006
2.027405e+002, 2.355683e+006
2.046689e+002, 2.365058e+006
2.065974e+002, 2.373671e+006
2.085259e+002, 2.382184e+006
2.104543e+002, 2.390907e+006
2.123828e+002, 2.399794e+006
2.143113e+002, 2.408883e+006
2.162397e+002, 2.418302e+006
2.181682e+002, 2.426992e+006
2.200967e+002, 2.434342e+006
2.220251e+002, 2.441649e+006
2.239536e+002, 2.449496e+006
2.258821e+002, 2.457382e+006
2.278105e+002, 2.464949e+006
2.297390e+002, 2.472205e+006
2.316675e+002, 2.478984e+006
2.335959e+002, 2.484967e+006
2.355244e+002, 2.490874e+006
2.374529e+002, 2.496766e+006
2.393813e+002, 2.502493e+006
2.413098e+002, 2.508058e+006
2.432383e+002, 2.513327e+006
2.451667e+002, 2.517922e+006
2.470952e+002, 2.521395e+006
2.490237e+002, 2.525557e+006
2.509521e+002, 2.531103e+006
2.528806e+002, 2.536434e+006
2.548091e+002, 2.540839e+006
2.567375e+002, 2.545049e+006
2.586660e+002, 2.549671e+006
2.605945e+002, 2.554648e+006
2.625229e+002, 2.559518e+006
2.644514e+002, 2.564134e+006
2.663799e+002, 2.568830e+006
2.683083e+002, 2.573660e+006
2.702368e+002, 2.578467e+006
2.721653e+002, 2.583343e+006
2.740938e+002, 2.588168e+006
2.760222e+002, 2.592725e+006
2.779507e+002, 2.597110e+006
2.798792e+002, 2.601774e+006
2.818076e+002, 2.606960e+006
2.837361e+002, 2.612051e+006
2.856646e+002, 2.616671e+006
2.875930e+002, 2.621334e+006
2.895215e+002, 2.626078e+006
2.914500e+002, 2.630965e+006
2.933784e+002, 2.636351e+006
2.953069e+002, 2.642184e+006
2.972354e+002, 2.647798e+006
2.991638e+002, 2.653089e+006
3.010923e+002, 2.658326e+006
3.030208e+002, 2.663692e+006
3.049492e+002, 2.669122e+006
3.068777e+002, 2.674663e+006
3.088062e+002, 2.680275e+006
3.107346e+002, 2.685626e+006
3.126631e+002, 2.690655e+006
3.145916e+002, 2.695994e+006
3.165200e+002, 2.701682e+006
3.184485e+002, 2.707471e+006
3.203770e+002, 2.713410e+006
3.223054e+002, 2.719142e+006
3.242339e+002, 2.724408e+006
3.261624e+002, 2.729253e+006
3.280908e+002, 2.733753e+006
3.300193e+002, 2.737966e+006
3.319477e+002, 2.742626e+006
3.338762e+002, 2.748088e+006
3.358047e+002, 2.753929e+006
3.377331e+002, 2.760416e+006
3.396616e+002, 2.766926e+006
3.415901e+002, 2.772789e+006
3.435185e+002, 2.778231e+006
3.454470e+002, 2.783847e+006
3.473755e+002, 2.789593e+006
3.493039e+002, 2.795479e+006
3.512324e+002, 2.802051e+006
3.531609e+002, 2.807669e+006
3.550893e+002, 2.811321e+006
3.570178e+002, 2.814626e+006
3.589463e+002, 2.818835e+006
3.608747e+002, 2.823668e+006
3.628032e+002, 2.828565e+006
3.647317e+002, 2.833573e+006
3.666601e+002, 2.838355e+006
3.685886e+002, 2.842534e+006
3.705171e+002, 2.847076e+006
3.724455e+002, 2.852137e+006
3.743740e+002, 2.857387e+006
3.763025e+002, 2.862636e+006
3.782309e+002, 2.867768e+006
3.801594e+002, 2.872637e+006
3.820879e+002, 2.877247e+006
3.840163e+002, 2.881880e+006
3.859448e+002, 2.886440e+006
3.878733e+002, 2.891446e+006
3.898017e+002, 2.896998e+006
3.917302e+002, 2.903090e+006
3.936587e+002, 2.909603e+006
3.955871e+002, 2.916903e+006
3.975156e+002, 2.925381e+006
3.994441e+002, 2.934793e+006
4.013725e+002, 2.944214e+006
4.033010e+002, 2.953235e+006
4.052295e+002, 2.963060e+006
4.071579e+002, 2.973976e+006
4.090864e+002, 2.984940e+006
4.110149e+002, 2.995641e+006
4.129433e+002, 3.006266e+006
4.148718e+002, 3.016959e+006
4.168003e+002, 3.027697e+006
4.187287e+002, 3.038458e+006
4.206572e+002, 3.049295e+006
4.225857e+002, 3.060277e+006
4.245141e+002, 3.072225e+006
4.264426e+002, 3.082487e+006
4.283711e+002, 3.089776e+006
4.302995e+002, 3.097380e+006
4.322280e+002, 3.107654e+006
4.341565e+002, 3.118206e+006
4.360849e+002, 3.127408e+006
4.380134e+002, 3.135350e+006
4.399419e+002, 3.142322e+006
4.418703e+002, 3.148351e+006
4.437988e+002, 3.152865e+006
4.457273e+002, 3.155798e+006
4.476557e+002, 3.157321e+006
4.495842e+002, 3.157005e+006
4.515127e+002, 3.155775e+006
4.534411e+002, 3.154135e+006
4.553696e+002, 3.151627e+006
4.572981e+002, 3.147609e+006
4.592265e+002, 3.142219e+006
4.611550e+002, 3.135807e+006
4.630835e+002, 3.128236e+006
4.650119e+002, 3.122553e+006
4.669404e+002, 3.119820e+006
4.688689e+002, 3.116062e+006
4.707973e+002, 3.108941e+006
4.727258e+002, 3.102305e+006
4.746543e+002, 3.097931e+006
4.765827e+002, 3.094944e+006
4.785112e+002, 3.092678e+006
4.804397e+002, 3.091083e+006
4.823681e+002, 3.089572e+006
4.842966e+002, 3.088206e+006
4.862251e+002, 3.088474e+006
4.881535e+002, 3.090736e+006
4.900820e+002, 3.093555e+006
4.920105e+002, 3.096686e+006
4.939389e+002, 3.099737e+006
4.958674e+002, 3.102478e+006
4.977959e+002, 3.104888e+006
4.997243e+002, 3.106920e+006
5.016528e+002, 3.108666e+006
5.035813e+002, 3.110345e+006
5.055097e+002, 3.112132e+006
5.074382e+002, 3.114462e+006
5.093667e+002, 3.117636e+006
5.112951e+002, 3.120930e+006
5.132236e+002, 3.124508e+006
5.151521e+002, 3.127804e+006
5.170806e+002, 3.130023e+006
5.190090e+002, 3.132314e+006
5.209375e+002, 3.135366e+006
5.228660e+002, 3.138760e+006
5.247944e+002, 3.142341e+006
5.267229e+002, 3.145854e+006
5.286514e+002, 3.148421e+006
5.305798e+002, 3.150094e+006
5.325083e+002, 3.151507e+006
5.344368e+002, 3.152405e+006
5.363652e+002, 3.154241e+006
5.382937e+002, 3.157386e+006
5.402222e+002, 3.161447e+006
5.421506e+002, 3.166534e+006
5.440791e+002, 3.172092e+006
5.460076e+002, 3.177505e+006
5.479360e+002, 3.182916e+006
5.498645e+002, 3.188458e+006
5.517930e+002, 3.194106e+006
5.537214e+002, 3.200544e+006
5.556499e+002, 3.208069e+006
5.575784e+002, 3.215396e+006
5.595068e+002, 3.222371e+006
5.614353e+002, 3.229488e+006
5.633638e+002, 3.236832e+006
5.652922e+002, 3.244359e+006
5.672207e+002, 3.251802e+006
5.691492e+002, 3.259615e+006
5.710776e+002, 3.268347e+006
5.730061e+002, 3.277438e+006
5.749345e+002, 3.286057e+006
5.768630e+002, 3.294171e+006
5.787914e+002, 3.301553e+006
5.807199e+002, 3.307695e+006
5.826484e+002, 3.315495e+006
5.845768e+002, 3.325716e+006
5.865053e+002, 3.335794e+006
5.884338e+002, 3.345127e+006
5.903622e+002, 3.354602e+006
5.922907e+002, 3.365159e+006
5.942192e+002, 3.375285e+006
5.961476e+002, 3.384021e+006
5.980761e+002, 3.391695e+006
6.000046e+002, 3.398652e+006
6.019330e+002, 3.404921e+006
6.038615e+002, 3.410765e+006
6.057900e+002, 3.416242e+006
6.077184e+002, 3.420412e+006
6.096469e+002, 3.423421e+006
6.115754e+002, 3.424247e+006
6.135038e+002, 3.422317e+006
6.154323e+002, 3.419275e+006
6.173608e+002, 3.415749e+006
6.192892e+002, 3.410907e+006
6.212177e+002, 3.403815e+006
6.231462e+002, 3.395863e+006
6.250746e+002, 3.388010e+006
6.270031e+002, 3.380184e+006
6.289316e+002, 3.371736e+006
6.308600e+002, 3.363263e+006
6.327885e+002, 3.357567e+006
6.347170e+002, 3.354409e+006
6.366454e+002, 3.350160e+006
6.385739e+002, 3.344314e+006
6.405024e+002, 3.339708e+006
6.424308e+002, 3.337510e+006
6.443593e+002, 3.335110e+006
6.462878e+002, 3.330797e+006
6.482162e+002, 3.327533e+006
6.501447e+002, 3.327016e+006
6.520732e+002, 3.327212e+006
6.540016e+002, 3.326554e+006
6.559301e+002, 3.325689e+006
6.578586e+002, 3.325397e+006
6.597870e+002, 3.325576e+006
6.617155e+002, 3.326208e+006
6.636440e+002, 3.327169e+006
6.655724e+002, 3.327449e+006
6.675009e+002, 3.326804e+006
6.694294e+002, 3.328203e+006
6.713578e+002, 3.333769e+006
6.732863e+002, 3.336785e+006
6.752148e+002, 3.334363e+006
6.771432e+002, 3.332506e+006
6.790717e+002, 3.332780e+006
6.810002e+002, 3.333532e+006
6.829286e+002, 3.334100e+006
6.848571e+002, 3.334597e+006
6.867856e+002, 3.335005e+006
6.887141e+002, 3.335514e+006
6.906425e+002, 3.336812e+006
6.925710e+002, 3.338272e+006
6.944995e+002, 3.338148e+006
6.964279e+002, 3.336624e+006
6.983564e+002, 3.335559e+006
7.002849e+002, 3.335075e+006
7.022133e+002, 3.335051e+006
7.041418e+002, 3.335601e+006
7.060703e+002, 3.336536e+006
7.079987e+002, 3.337478e+006
7.099272e+002, 3.339532e+006
7.118557e+002, 3.344330e+006
7.137841e+002, 3.347827e+006
7.157126e+002, 3.347327e+006
7.176411e+002, 3.346407e+006
7.195695e+002, 3.347586e+006
7.214980e+002, 3.349144e+006
7.234265e+002, 3.349344e+006
7.253549e+002, 3.349202e+006
7.272834e+002, 3.350463e+006
7.292119e+002, 3.352668e+006
7.311403e+002, 3.354210e+006
7.330688e+002, 3.355141e+006
7.349973e+002, 3.356443e+006
7.369257e+002, 3.358199e+006
7.388542e+002, 3.359512e+006
7.407827e+002, 3.360266e+006
7.427111e+002, 3.360598e+006
7.446396e+002, 3.360328e+006
7.465681e+002, 3.359922e+006
7.484965e+002, 3.359382e+006
7.504250e+002, 3.358835e+006
7.523535e+002, 3.358349e+006
7.542819e+002, 3.358011e+006
7.562104e+002, 3.358120e+006
7.581389e+002, 3.358490e+006
7.600673e+002, 3.359662e+006
7.619958e+002, 3.360732e+006
7.639243e+002, 3.359972e+006
7.658527e+002, 3.358996e+006
7.677812e+002, 3.360565e+006
7.697097e+002, 3.363803e+006
7.716381e+002, 3.366247e+006
7.735666e+002, 3.367939e+006
7.754951e+002, 3.370652e+006
7.774235e+002, 3.374030e+006
7.793520e+002, 3.375420e+006
7.812805e+002, 3.374575e+006
7.832089e+002, 3.373929e+006
7.851374e+002, 3.373999e+006
7.870659e+002, 3.373690e+006
7.889943e+002, 3.372613e+006
7.909228e+002, 3.372132e+006
7.928513e+002, 3.372825e+006
7.947797e+002, 3.373931e+006
7.967082e+002, 3.375762e+006
7.986367e+002, 3.377322e+006
8.005651e+002, 3.378007e+006
8.024936e+002, 3.378586e+006
8.044221e+002, 3.379835e+006
8.063505e+002, 3.380921e+006
8.082790e+002, 3.381026e+006
8.102075e+002, 3.380714e+006
8.121359e+002, 3.380275e+006
8.140644e+002, 3.380153e+006
8.159929e+002, 3.381179e+006
8.179213e+002, 3.382911e+006
8.198498e+002, 3.384490e+006
8.217783e+002, 3.385776e+006
8.237067e+002, 3.386214e+006
8.256352e+002, 3.385772e+006
8.275637e+002, 3.386207e+006
8.294921e+002, 3.387716e+006
8.314206e+002, 3.388176e+006
8.333491e+002, 3.387225e+006
8.352775e+002, 3.386436e+006
8.372060e+002, 3.386612e+006
8.391345e+002, 3.386186e+006
8.410629e+002, 3.385043e+006
8.429914e+002, 3.384150e+006
8.449199e+002, 3.383661e+006
8.468483e+002, 3.383544e+006
8.487768e+002, 3.383621e+006
8.507053e+002, 3.384036e+006
8.526337e+002, 3.384562e+006
8.545622e+002, 3.385384e+006
8.564907e+002, 3.386668e+006
8.584191e+002, 3.387754e+006
8.603476e+002, 3.388376e+006
8.622761e+002, 3.388339e+006
8.642045e+002, 3.387749e+006
8.661330e+002, 3.386325e+006
8.680615e+002, 3.383155e+006
8.699899e+002, 3.379780e+006
8.719184e+002, 3.378266e+006
8.738469e+002, 3.377903e+006
8.757753e+002, 3.377810e+006
8.777038e+002, 3.377759e+006
8.796323e+002, 3.376641e+006
8.815607e+002, 3.375003e+006
8.834892e+002, 3.374862e+006
8.854177e+002, 3.375919e+006
8.873461e+002, 3.376773e+006
8.892746e+002, 3.377303e+006
8.912031e+002, 3.377254e+006
8.931315e+002, 3.376561e+006
8.950600e+002, 3.375819e+006
8.969885e+002, 3.375004e+006
8.989169e+002, 3.374315e+006
9.008454e+002, 3.373756e+006
9.027739e+002, 3.372369e+006
9.047023e+002, 3.370021e+006
9.066308e+002, 3.367189e+006
9.085593e+002, 3.363825e+006
9.104877e+002, 3.361664e+006
9.124162e+002, 3.361555e+006
9.143447e+002, 3.361406e+006
9.162731e+002, 3.361016e+006
9.182016e+002, 3.360842e+006
9.201301e+002, 3.360755e+006
9.220585e+002, 3.361583e+006
9.239870e+002, 3.363824e+006
9.259155e+002, 3.365941e+006
9.278439e+002, 3.366967e+006
9.297724e+002, 3.367835e+006
9.317009e+002, 3.368375e+006
9.336293e+002, 3.368702e+006
9.355578e+002, 3.369589e+006
9.374863e+002, 3.369106e+006
9.394147e+002, 3.365649e+006
9.413432e+002, 3.362059e+006
9.432717e+002, 3.359977e+006
9.452001e+002, 3.358828e+006
9.471286e+002, 3.359321e+006
9.490571e+002, 3.359753e+006
9.509855e+002, 3.358557e+006
9.529140e+002, 3.357336e+006
9.548425e+002, 3.357023e+006
9.567709e+002, 3.357439e+006
9.586994e+002, 3.358646e+006
9.606279e+002, 3.359884e+006
9.625563e+002, 3.360206e+006
9.644848e+002, 3.360018e+006
9.664133e+002, 3.359840e+006
9.683417e+002, 3.359170e+006
9.702702e+002, 3.357229e+006
9.721987e+002, 3.354801e+006
9.741271e+002, 3.353209e+006
9.760556e+002, 3.351767e+006
9.779841e+002, 3.349340e+006
9.799125e+002, 3.346629e+006
9.818410e+002, 3.344247e+006
9.837695e+002, 3.342680e+006
9.856979e+002, 3.343500e+006
9.876264e+002, 3.345234e+006
9.895549e+002, 3.344723e+006
9.914833e+002, 3.342710e+006
9.934118e+002, 3.340709e+006
9.953403e+002, 3.338784e+006
9.972687e+002, 3.337495e+006
9.991972e+002, 3.336478e+006
1.001126e+003, 3.334631e+006
1.003054e+003, 3.332322e+006
1.004983e+003, 3.330563e+006
1.006911e+003, 3.329271e+006
1.008840e+003, 3.328048e+006
1.010768e+003, 3.326842e+006
1.012696e+003, 3.325000e+006
1.014625e+003, 3.322875e+006
1.016553e+003, 3.322058e+006
1.018482e+003, 3.322114e+006
1.020410e+003, 3.322165e+006
1.022339e+003, 3.321879e+006
1.024267e+003, 3.320151e+006
1.026196e+003, 3.317428e+006
1.028124e+003, 3.315722e+006
1.030053e+003, 3.314702e+006
1.031981e+003, 3.312109e+006
1.033910e+003, 3.308722e+006
1.035838e+003, 3.307076e+006
1.037767e+003, 3.306690e+006
1.039695e+003, 3.305748e+006
1.041624e+003, 3.304271e+006
1.043552e+003, 3.302575e+006
1.045480e+003, 3.300546e+006
1.047409e+003, 3.298104e+006
1.049337e+003, 3.295430e+006
1.051266e+003, 3.293430e+006
1.053194e+003, 3.291835e+006
1.055123e+003, 3.289915e+006
1.057051e+003, 3.287566e+006
1.058980e+003, 3.283639e+006
1.060908e+003, 3.279205e+006
1.062837e+003, 3.277202e+006
1.064765e+003, 3.276649e+006
1.066694e+003, 3.274831e+006
1.068622e+003, 3.272541e+006
1.070550e+003, 3.271909e+006
1.072479e+003, 3.272153e+006
1.074407e+003, 3.271845e+006
1.076336e+003, 3.270991e+006
1.078264e+003, 3.269447e+006
1.080193e+003, 3.267534e+006
1.082121e+003, 3.265994e+006
1.084050e+003, 3.264432e+006
1.085978e+003, 3.262250e+006
1.087907e+003, 3.259549e+006
1.089835e+003, 3.255980e+006
1.091764e+003, 3.252441e+006
1.093692e+003, 3.250511e+006
1.095620e+003, 3.249302e+006
1.097549e+003, 3.247524e+006
1.099477e+003, 3.245872e+006
1.101406e+003, 3.245554e+006
1.103334e+003, 3.245331e+006
1.105263e+003, 3.243505e+006
1.107191e+003, 3.241370e+006
1.109120e+003, 3.240174e+006
1.111048e+003, 3.239212e+006
1.112977e+003, 3.237885e+006
1.114905e+003, 3.236555e+006
1.116834e+003, 3.235469e+006
1.118762e+003, 3.234653e+006
1.120691e+003, 3.234341e+006
1.122619e+003, 3.233988e+006
1.124547e+003, 3.233286e+006
1.126476e+003, 3.232099e+006
1.128404e+003, 3.229643e+006
1.130333e+003, 3.227597e+006
1.132261e+003, 3.227448e+006
1.134190e+003, 3.226417e+006
1.136118e+003, 3.223090e+006
1.138047e+003, 3.219440e+006
1.139975e+003, 3.215922e+006
1.141904e+003, 3.213430e+006
1.143832e+003, 3.212773e+006
1.145761e+003, 3.211948e+006
1.147689e+003, 3.210352e+006
1.149618e+003, 3.208550e+006
1.151546e+003, 3.206662e+006
1.153474e+003, 3.204219e+006
1.155403e+003, 3.200913e+006
1.157331e+003, 3.198781e+006
1.159260e+003, 3.198573e+006
1.161188e+003, 3.197028e+006
1.163117e+003, 3.193683e+006
1.165045e+003, 3.191258e+006
1.166974e+003, 3.189926e+006
1.168902e+003, 3.188665e+006
1.170831e+003, 3.187258e+006
1.172759e+003, 3.187095e+006
1.174688e+003, 3.187779e+006
1.176616e+003, 3.186754e+006
1.178545e+003, 3.184069e+006
1.180473e+003, 3.180215e+006
1.182401e+003, 3.175668e+006
1.184330e+003, 3.171119e+006
1.186258e+003, 3.167037e+006
1.188187e+003, 3.164232e+006
1.190115e+003, 3.162382e+006
1.192044e+003, 3.160691e+006
1.193972e+003, 3.159291e+006
1.195901e+003, 3.158579e+006
1.197829e+003, 3.157722e+006
1.199758e+003, 3.155599e+006
1.201686e+003, 3.152978e+006
1.203615e+003, 3.150498e+006
1.205543e+003, 3.148082e+006
1.207472e+003, 3.145733e+006
1.209400e+003, 3.143764e+006
1.211328e+003, 3.143406e+006
1.213257e+003, 3.142202e+006
1.215185e+003, 3.138580e+006
1.217114e+003, 3.135098e+006
1.219042e+003, 3.132704e+006
1.220971e+003, 3.129938e+006
1.222899e+003, 3.125910e+006
1.224828e+003, 3.122441e+006
1.226756e+003, 3.119841e+006
1.228685e+003, 3.117308e+006
1.230613e+003, 3.114897e+006
1.232542e+003, 3.111977e+006
1.234470e+003, 3.108498e+006
1.236399e+003, 3.105235e+006
1.238327e+003, 3.102216e+006
1.240255e+003, 3.099242e+006
1.242184e+003, 3.096353e+006
1.244112e+003, 3.093586e+006
1.246041e+003, 3.091219e+006
1.247969e+003, 3.090522e+006
1.249898e+003, 3.090635e+006
1.251826e+003, 3.089794e+006
1.253755e+003, 3.088529e+006
1.255683e+003, 3.086721e+006
1.257612e+003, 3.085612e+006
1.259540e+003, 3.087154e+006
1.261469e+003, 3.088409e+006
1.263397e+003, 3.086826e+006
1.265326e+003, 3.084886e+006
1.267254e+003, 3.083693e+006
1.269182e+003, 3.082657e+006
1.271111e+003, 3.082240e+006
1.273039e+003, 3.080928e+006
1.274968e+003, 3.078199e+006
1.276896e+003, 3.076013e+006
1.278825e+003, 3.074610e+006
1.280753e+003, 3.073280e+006
1.282682e+003, 3.071800e+006
1.284610e+003, 3.071020e+006
1.286539e+003, 3.070655e+006
1.288467e+003, 3.068404e+006
1.290396e+003, 3.064896e+006
1.292324e+003, 3.062959e+006
1.294253e+003, 3.061599e+006
1.296181e+003, 3.058319e+006
1.298109e+003, 3.054346e+006
1.300038e+003, 3.050713e+006
1.301966e+003, 3.047879e+006
1.303895e+003, 3.046192e+006
1.305823e+003, 3.045333e+006
1.307752e+003, 3.045989e+006
1.309680e+003, 3.045673e+006
1.311609e+003, 3.042163e+006
1.313537e+003, 3.039452e+006
1.315466e+003, 3.038796e+006
1.317394e+003, 3.038621e+006
1.319323e+003, 3.039580e+006
1.321251e+003, 3.038758e+006
1.323180e+003, 3.035594e+006
1.325108e+003, 3.033277e+006
1.327036e+003, 3.031720e+006
1.328965e+003, 3.030200e+006
1.330893e+003, 3.028555e+006
1.332822e+003, 3.025690e+006
1.334750e+003, 3.022548e+006
1.336679e+003, 3.021524e+006
1.338607e+003, 3.020370e+006
1.340536e+003, 3.015996e+006
1.342464e+003, 3.011211e+006
1.344393e+003, 3.007756e+006
1.346321e+003, 3.004094e+006
1.348250e+003, 2.999340e+006
1.350178e+003, 2.995274e+006
1.352107e+003, 2.992866e+006
1.354035e+003, 2.989958e+006
1.355964e+003, 2.986237e+006
1.357892e+003, 2.983120e+006
1.359820e+003, 2.980735e+006
1.361749e+003, 2.977957e+006
1.363677e+003, 2.974875e+006
1.365606e+003, 2.972165e+006
1.367534e+003, 2.969823e+006
1.369463e+003, 2.967969e+006
1.371391e+003, 2.966471e+006
1.373320e+003, 2.965741e+006
1.375248e+003, 2.964458e+006
1.377177e+003, 2.960621e+006
1.379105e+003, 2.957374e+006
1.381034e+003, 2.956584e+006
1.382962e+003, 2.954664e+006
1.384891e+003, 2.950748e+006
1.386819e+003, 2.946326e+006
1.388747e+003, 2.941697e+006
1.390676e+003, 2.937482e+006
1.392604e+003, 2.933874e+006
1.394533e+003, 2.930740e+006
1.396461e+003, 2.928169e+006
1.398390e+003, 2.926076e+006
1.400318e+003, 2.924260e+006
1.402247e+003, 2.922140e+006
1.404175e+003, 2.920120e+006
1.406104e+003, 2.918583e+006
1.408032e+003, 2.916927e+006
1.409961e+003, 2.914633e+006
1.411889e+003, 2.912319e+006
1.413818e+003, 2.910046e+006
1.415746e+003, 2.908492e+006
1.417674e+003, 2.908217e+006
1.419603e+003, 2.906247e+006
1.421531e+003, 2.902691e+006
1.423460e+003, 2.899635e+006
1.425388e+003, 2.897205e+006
1.427317e+003, 2.896108e+006
1.429245e+003, 2.895288e+006
1.431174e+003, 2.893599e+006
1.433102e+003, 2.891194e+006
1.435031e+003, 2.887560e+006
1.436959e+003, 2.884463e+006
1.438888e+003, 2.882709e+006
1.440816e+003, 2.881264e+006
1.442745e+003, 2.880084e+006
1.444673e+003, 2.878273e+006
1.446601e+003, 2.875784e+006
1.448530e+003, 2.872352e+006
1.450458e+003, 2.868277e+006
1.452387e+003, 2.865558e+006
1.454315e+003, 2.862853e+006
1.456244e+003, 2.857170e+006
1.458172e+003, 2.851250e+006
1.460101e+003, 2.847327e+006
1.462029e+003, 2.844222e+006
1.463958e+003, 2.842107e+006
1.465886e+003, 2.838748e+006
1.467815e+003, 2.833384e+006
1.469743e+003, 2.829242e+006
1.471672e+003, 2.826623e+006
1.473600e+003, 2.824273e+006
1.475528e+003, 2.821945e+006
1.477457e+003, 2.818792e+006
1.479385e+003, 2.815393e+006
1.481314e+003, 2.813096e+006
1.483242e+003, 2.810324e+006
1.485171e+003, 2.805254e+006
1.487099e+003, 2.800246e+006
1.489028e+003, 2.796046e+006
1.490956e+003, 2.792133e+006
1.492885e+003, 2.788551e+006
1.494813e+003, 2.784786e+006
1.496742e+003, 2.780786e+006
1.498670e+003, 2.775448e+006
1.500599e+003, 2.769814e+006
1.502527e+003, 2.766495e+006
1.504455e+003, 2.763571e+006
1.506384e+003, 2.758499e+006
1.508312e+003, 2.753955e+006
1.510241e+003, 2.751913e+006
1.512169e+003, 2.749751e+006
1.514098e+003, 2.746839e+006
1.516026e+003, 2.743974e+006
1.517955e+003, 2.741046e+006
1.519883e+003, 2.738954e+006
1.521812e+003, 2.737221e+006
1.523740e+003, 2.735183e+006
1.525669e+003, 2.732480e+006
1.527597e+003, 2.728790e+006
1.529526e+003, 2.724681e+006
1.531454e+003, 2.720670e+006
1.533382e+003, 2.716546e+006
1.535311e+003, 2.712023e+006
1.537239e+003, 2.708352e+006
1.539168e+003, 2.705518e+006
1.541096e+003, 2.701987e+006
1.543025e+003, 2.697891e+006
1.544953e+003, 2.693618e+006
1.546882e+003, 2.689618e+006
1.548810e+003, 2.686647e+006
1.550739e+003, 2.684024e+006
1.552667e+003, 2.681606e+006
1.554596e+003, 2.678985e+006
1.556524e+003, 2.675685e+006
1.558453e+003, 2.673784e+006
1.560381e+003, 2.673036e+006
1.562309e+003, 2.670640e+006
1.564238e+003, 2.667196e+006
1.566166e+003, 2.664505e+006
1.568095e+003, 2.661495e+006
1.570023e+003, 2.656820e+006
1.571952e+003, 2.652558e+006
1.573880e+003, 2.649820e+006
1.575809e+003, 2.646148e+006
1.577737e+003, 2.641230e+006
1.579666e+003, 2.636576e+006
1.581594e+003, 2.632206e+006
1.583523e+003, 2.627195e+006
1.585451e+003, 2.622401e+006
1.587380e+003, 2.619065e+006
1.589308e+003, 2.616317e+006
1.591236e+003, 2.614199e+006
1.593165e+003, 2.610830e+006
1.595093e+003, 2.605581e+006
1.597022e+003, 2.600634e+006
1.598950e+003, 2.596026e+006
1.600879e+003, 2.590906e+006
1.602807e+003, 2.585693e+006
1.604736e+003, 2.581680e+006
1.606664e+003, 2.577420e+006
1.608593e+003, 2.571321e+006
1.610521e+003, 2.565699e+006
1.612450e+003, 2.561112e+006
1.614378e+003, 2.557743e+006
1.616307e+003, 2.555445e+006
1.618235e+003, 2.551722e+006
1.620163e+003, 2.546907e+006
1.622092e+003, 2.541168e+006
1.624020e+003, 2.535978e+006
1.625949e+003, 2.533104e+006
1.627877e+003, 2.530108e+006
1.629806e+003, 2.526019e+006
1.631734e+003, 2.521289e+006
1.633663e+003, 2.515764e+006
1.635591e+003, 2.512325e+006
1.637520e+003, 2.509704e+006
1.639448e+003, 2.504470e+006
1.641377e+003, 2.498419e+006
1.643305e+003, 2.492773e+006
1.645234e+003, 2.487677e+006
1.647162e+003, 2.483189e+006
1.649090e+003, 2.479926e+006
1.651019e+003, 2.477812e+006
1.652947e+003, 2.474113e+006
1.654876e+003, 2.469355e+006
1.656804e+003, 2.464611e+006
1.658733e+003, 2.460024e+006
1.660661e+003, 2.455876e+006
1.662590e+003, 2.451550e+006
1.664518e+003, 2.447021e+006
1.666447e+003, 2.443306e+006
1.668375e+003, 2.440477e+006
1.670304e+003, 2.436298e+006
1.672232e+003, 2.431642e+006
1.674161e+003, 2.427445e+006
1.676089e+003, 2.423777e+006
1.678017e+003, 2.420489e+006
1.679946e+003, 2.417477e+006
1.681874e+003, 2.414646e+006
1.683803e+003, 2.410389e+006
1.685731e+003, 2.404998e+006
1.687660e+003, 2.399924e+006
1.689588e+003, 2.394970e+006
1.691517e+003, 2.389689e+006
1.693445e+003, 2.385176e+006
1.695374e+003, 2.382176e+006
1.697302e+003, 2.378491e+006
1.699231e+003, 2.373983e+006
1.701159e+003, 2.370399e+006
1.703088e+003, 2.367321e+006
1.705016e+003, 2.364050e+006
1.706944e+003, 2.360617e+006
1.708873e+003, 2.357662e+006
1.710801e+003, 2.353258e+006
1.712730e+003, 2.347143e+006
1.714658e+003, 2.340804e+006
1.716587e+003, 2.334415e+006
1.718515e+003, 2.327195e+006
1.720444e+003, 2.320882e+006
1.722372e+003, 2.318021e+006
1.724301e+003, 2.314928e+006
1.726229e+003, 2.309591e+006
1.728158e+003, 2.304971e+006
1.730086e+003, 2.300939e+006
1.732015e+003, 2.296176e+006
1.733943e+003, 2.291306e+006
1.735871e+003, 2.287654e+006
1.737800e+003, 2.283762e+006
1.739728e+003, 2.278813e+006
1.741657e+003, 2.274247e+006
1.743585e+003, 2.270443e+006
1.745514e+003, 2.265473e+006
1.747442e+003, 2.259773e+006
1.749371e+003, 2.253896e+006
1.751299e+003, 2.248295e+006
1.753228e+003, 2.243190e+006
1.755156e+003, 2.238479e+006
1.757085e+003, 2.234119e+006
1.759013e+003, 2.229119e+006
1.760942e+003, 2.223508e+006
1.762870e+003, 2.216882e+006
1.764798e+003, 2.210928e+006
1.766727e+003, 2.207601e+006
1.768655e+003, 2.203364e+006
1.770584e+003, 2.197483e+006
1.772512e+003, 2.192777e+006
1.774441e+003, 2.189089e+006
1.776369e+003, 2.185458e+006
1.778298e+003, 2.181666e+006
1.780226e+003, 2.177340e+006
1.782155e+003, 2.173058e+006
1.784083e+003, 2.168872e+006
1.786012e+003, 2.164915e+006
1.787940e+003, 2.161158e+006
1.789869e+003, 2.158000e+006
1.791797e+003, 2.154435e+006
1.793725e+003, 2.149123e+006
1.795654e+003, 2.144020e+006
1.797582e+003, 2.139579e+006
1.799511e+003, 2.134517e+006
1.801439e+003, 2.128935e+006
1.803368e+003, 2.123078e+006
1.805296e+003, 2.117439e+006
1.807225e+003, 2.112562e+006
1.809153e+003, 2.108006e+006
1.811082e+003, 2.103838e+006
1.813010e+003, 2.099486e+006
1.814939e+003, 2.094886e+006
1.816867e+003, 2.089754e+006
1.818796e+003, 2.084488e+006
1.820724e+003, 2.079128e+006
1.822652e+003, 2.074113e+006
1.824581e+003, 2.069525e+006
1.826509e+003, 2.064850e+006
1.828438e+003, 2.060025e+006
1.830366e+003, 2.054802e+006
1.832295e+003, 2.049436e+006
1.834223e+003, 2.043904e+006
1.836152e+003, 2.038678e+006
1.838080e+003, 2.033799e+006
1.840009e+003, 2.028858e+006
1.841937e+003, 2.023707e+006
1.843866e+003, 2.018391e+006
1.845794e+003, 2.012336e+006
1.847723e+003, 2.005208e+006
1.849651e+003, 1.998880e+006
1.851579e+003, 1.993437e+006
1.853508e+003, 1.988271e+006
1.855436e+003, 1.983357e+006
1.857365e+003, 1.978844e+006
1.859293e+003, 1.973900e+006
1.861222e+003, 1.968306e+006
1.863150e+003, 1.963319e+006
1.865079e+003, 1.958611e+006
1.867007e+003, 1.952619e+006
1.868936e+003, 1.947355e+006
1.870864e+003, 1.944905e+006
1.872793e+003, 1.940590e+006
1.874721e+003, 1.934162e+006
1.876650e+003, 1.929268e+006
1.878578e+003, 1.925033e+006
1.880506e+003, 1.920525e+006
1.882435e+003, 1.915322e+006
1.884363e+003, 1.909110e+006
1.886292e+003, 1.903596e+006
1.888220e+003, 1.898669e+006
1.890149e+003, 1.893864e+006
1.892077e+003, 1.888600e+006
1.894006e+003, 1.881849e+006
1.895934e+003, 1.875985e+006
1.897863e+003, 1.871278e+006
1.899791e+003, 1.866221e+006
1.901720e+003, 1.861033e+006
1.903648e+003, 1.855921e+006
1.905577e+003, 1.850974e+006
1.907505e+003, 1.846640e+006
1.909433e+003, 1.840904e+006
1.911362e+003, 1.834189e+006
1.913290e+003, 1.828056e+006
1.915219e+003, 1.822225e+006
1.917147e+003, 1.816499e+006
1.919076e+003, 1.811504e+006
1.921004e+003, 1.807322e+006
1.922933e+003, 1.803009e+006
1.924861e+003, 1.798632e+006
1.926790e+003, 1.794148e+006
1.928718e+003, 1.789789e+006
1.930647e+003, 1.785633e+006
1.932575e+003, 1.780344e+006
1.934504e+003, 1.774475e+006
1.936432e+003, 1.769855e+006
1.938360e+003, 1.764939e+006
1.940289e+003, 1.758799e+006
1.942217e+003, 1.754149e+006
1.944146e+003, 1.750797e+006
1.946074e+003, 1.745564e+006
1.948003e+003, 1.739681e+006
1.949931e+003, 1.734274e+006
1.951860e+003, 1.728710e+006
1.953788e+003, 1.722966e+006
1.955717e+003, 1.717698e+006
1.957645e+003, 1.712826e+006
1.959574e+003, 1.708279e+006
1.961502e+003, 1.703815e+006
1.963431e+003, 1.699364e+006
1.965359e+003, 1.694526e+006
1.967287e+003, 1.689615e+006
1.969216e+003, 1.685448e+006
1.971144e+003, 1.681191e+006
1.973073e+003, 1.676245e+006
1.975001e+003, 1.672120e+006
1.976930e+003, 1.668286e+006
1.978858e+003, 1.662646e+006
1.980787e+003, 1.656730e+006
1.982715e+003, 1.651563e+006
1.984644e+003, 1.646885e+006
1.986572e+003, 1.642551e+006
1.988501e+003, 1.637221e+006
1.990429e+003, 1.631696e+006
1.992358e+003, 1.626470e+006
1.994286e+003, 1.621773e+006
1.996214e+003, 1.617598e+006
1.998143e+003, 1.612320e+006
2.000071e+003, 1.606978e+006
2.002000e+003, 1.602774e+006
2.003928e+003, 1.598313e+006
2.005857e+003, 1.593166e+006
2.007785e+003, 1.586962e+006
2.009714e+003, 1.580813e+006
2.011642e+003, 1.576617e+006
2.013571e+003, 1.572472e+006
2.015499e+003, 1.567933e+006
2.017428e+003, 1.562442e+006
2.019356e+003, 1.556474e+006
2.021285e+003, 1.550448e+006
2.023213e+003, 1.545131e+006
2.025141e+003, 1.540762e+006
2.027070e+003, 1.536517e+006
2.028998e+003, 1.532334e+006
2.030927e+003, 1.528370e+006
2.032855e+003, 1.523938e+006
2.034784e+003, 1.518728e+006
2.036712e+003, 1.513973e+006
2.038641e+003, 1.509376e+006
2.040569e+003, 1.504249e+006
2.042498e+003, 1.498891e+006
2.044426e+003, 1.493429e+006
2.046355e+003, 1.488842e+006
2.048283e+003, 1.484552e+006
2.050212e+003, 1.479200e+006
2.052140e+003, 1.473236e+006
2.054068e+003, 1.466619e+006
2.055997e+003, 1.461529e+006
2.057925e+003, 1.457362e+006
2.059854e+003, 1.453065e+006
2.061782e+003, 1.448073e+006
2.063711e+003, 1.441977e+006
2.065639e+003, 1.436910e+006
2.067568e+003, 1.432439e+006
2.069496e+003, 1.427141e+006
2.071425e+003, 1.422605e+006
2.073353e+003, 1.419769e+006
2.075281e+003, 1.415637e+006
2.077210e+003, 1.410450e+006
2.079138e+003, 1.404391e+006
2.081067e+003, 1.398773e+006
2.082995e+003, 1.394354e+006
2.084924e+003, 1.389491e+006
2.086852e+003, 1.384198e+006
2.088781e+003, 1.377965e+006
2.090709e+003, 1.372675e+006
2.092638e+003, 1.368908e+006
2.094566e+003, 1.365731e+006
2.096495e+003, 1.362322e+006
2.098423e+003, 1.357655e+006
2.100352e+003, 1.352542e+006
2.102280e+003, 1.347200e+006
2.104208e+003, 1.342709e+006
2.106137e+003, 1.338492e+006
2.108065e+003, 1.334109e+006
2.109994e+003, 1.329328e+006
2.111922e+003, 1.324233e+006
2.113851e+003, 1.319740e+006
2.115779e+003, 1.315363e+006
2.117708e+003, 1.310954e+006
2.119636e+003, 1.305667e+006
2.121565e+003, 1.299866e+006
2.123493e+003, 1.295077e+006
2.125422e+003, 1.290565e+006
2.127350e+003, 1.285962e+006
2.129279e+003, 1.281309e+006
2.131207e+003, 1.276650e+006
2.133135e+003, 1.272137e+006
2.135064e+003, 1.267539e+006
2.136992e+003, 1.262769e+006
2.138921e+003, 1.258579e+006
2.140849e+003, 1.254393e+006
2.142778e+003, 1.249106e+006
2.144706e+003, 1.244033e+006
2.146635e+003, 1.239378e+006
2.148563e+003, 1.234233e+006
2.150492e+003, 1.229254e+006
2.152420e+003, 1.225401e+006
2.154349e+003, 1.221003e+006
2.156277e+003, 1.216177e+006
2.158206e+003, 1.212666e+006
2.160134e+003, 1.209024e+006
2.162063e+003, 1.204317e+006
2.163991e+003, 1.199535e+006
2.165919e+003, 1.194927e+006
2.167848e+003, 1.191293e+006
2.169776e+003, 1.187177e+006
2.171705e+003, 1.182023e+006
2.173633e+003, 1.177305e+006
2.175562e+003, 1.173148e+006
2.177490e+003, 1.170048e+006
2.179419e+003, 1.165749e+006
2.181347e+003, 1.160091e+006
2.183276e+003, 1.155063e+006
2.185204e+003, 1.150384e+006
2.187133e+003, 1.145949e+006
2.189061e+003, 1.140702e+006
2.190990e+003, 1.135362e+006
2.192918e+003, 1.132435e+006
2.194846e+003, 1.129035e+006
2.196775e+003, 1.124374e+006
2.198703e+003, 1.119596e+006
2.200632e+003, 1.115016e+006
2.202560e+003, 1.111272e+006
2.204489e+003, 1.106579e+006
2.206417e+003, 1.101190e+006
2.208346e+003, 1.097548e+006
2.210274e+003, 1.094042e+006
2.212203e+003, 1.089841e+006
2.214131e+003, 1.084945e+006
2.216060e+003, 1.079825e+006
2.217988e+003, 1.075326e+006
2.219917e+003, 1.070895e+006
2.221845e+003, 1.066459e+006
2.223773e+003, 1.062430e+006
2.225702e+003, 1.058809e+006
2.227630e+003, 1.056087e+006
2.229559e+003, 1.051809e+006
2.231487e+003, 1.046525e+006
2.233416e+003, 1.042297e+006
2.235344e+003, 1.038003e+006
2.237273e+003, 1.033282e+006
2.239201e+003, 1.029829e+006
2.241130e+003, 1.026459e+006
2.243058e+003, 1.021703e+006
2.244987e+003, 1.017933e+006
2.246915e+003, 1.014894e+006
2.248844e+003, 1.010910e+006
2.250772e+003, 1.006454e+006
2.252700e+003, 1.001713e+006
2.254629e+003, 9.978191e+005
2.256557e+003, 9.939052e+005
2.258486e+003, 9.887736e+005
2.260414e+003, 9.846660e+005
2.262343e+003, 9.815140e+005
2.264271e+003, 9.773523e+005
2.266200e+003, 9.731656e+005
2.268128e+003, 9.692192e+005
2.270057e+003, 9.651426e+005
2.271985e+003, 9.611513e+005
2.273914e+003, 9.577678e+005
2.275842e+003, 9.539703e+005
2.277771e+003, 9.499455e+005
2.279699e+003, 9.469890e+005
2.281627e+003, 9.434943e+005
2.283556e+003, 9.389290e+005
2.285484e+003, 9.355240e+005
2.287413e+003, 9.325069e+005
2.289341e+003, 9.290468e+005
2.291270e+003, 9.252429e+005
2.293198e+003, 9.212741e+005
2.295127e+003, 9.178586e+005
2.297055e+003, 9.140681e+005
2.298984e+003, 9.096579e+005
2.300912e+003, 9.054475e+005
2.302841e+003, 9.012048e+005
2.304769e+003, 8.965184e+005
2.306698e+003, 8.925340e+005
2.308626e+003, 8.888262e+005
2.310554e+003, 8.841975e+005
2.312483e+003, 8.802588e+005
2.314411e+003, 8.772978e+005
2.316340e+003, 8.735414e+005
2.318268e+003, 8.697119e+005
2.320197e+003, 8.661683e+005
2.322125e+003, 8.625071e+005
2.324054e+003, 8.590598e+005
2.325982e+003, 8.564950e+005
2.327911e+003, 8.530316e+005
2.329839e+003, 8.487367e+005
2.331768e+003, 8.448567e+005
2.333696e+003, 8.414324e+005
2.335625e+003, 8.384066e+005
2.337553e+003, 8.347149e+005
2.339481e+003, 8.305796e+005
2.341410e+003, 8.262338e+005
2.343338e+003, 8.219634e+005
2.345267e+003, 8.177894e+005
2.347195e+003, 8.136236e+005
2.349124e+003, 8.096581e+005
2.351052e+003, 8.060234e+005
2.352981e+003, 8.029118e+005
2.354909e+003, 8.002471e+005
2.356838e+003, 7.978824e+005
2.358766e+003, 7.944772e+005
2.360695e+003, 7.907591e+005
2.362623e+003, 7.873524e+005
2.364552e+003, 7.843982e+005
2.366480e+003, 7.815304e+005
2.368408e+003, 7.780868e+005
2.370337e+003, 7.743624e+005
2.372265e+003, 7.706486e+005
2.374194e+003, 7.681258e+005
2.376122e+003, 7.655473e+005
2.378051e+003, 7.623460e+005
2.379979e+003, 7.597295e+005
2.381908e+003, 7.569032e+005
2.383836e+003, 7.530676e+005
2.385765e+003, 7.498861e+005
2.387693e+003, 7.470777e+005
2.389622e+003, 7.441986e+005
2.391550e+003, 7.411509e+005
2.393479e+003, 7.379642e+005
2.395407e+003, 7.347621e+005
2.397335e+003, 7.314246e+005
2.399264e+003, 7.278721e+005
2.401192e+003, 7.233997e+005
2.403121e+003, 7.195957e+005
2.405049e+003, 7.172103e+005
2.406978e+003, 7.139878e+005
2.408906e+003, 7.103189e+005
2.410835e+003, 7.066486e+005
2.412763e+003, 7.029125e+005
2.414692e+003, 6.992048e+005
2.416620e+003, 6.957520e+005
2.418549e+003, 6.922554e+005
2.420477e+003, 6.887879e+005
2.422406e+003, 6.857920e+005
2.424334e+003, 6.824367e+005
2.426262e+003, 6.786131e+005
2.428191e+003, 6.753433e+005
2.430119e+003, 6.718870e+005
2.432048e+003, 6.678991e+005
2.433976e+003, 6.647564e+005
2.435905e+003, 6.614246e+005
2.437833e+003, 6.567179e+005
2.439762e+003, 6.529667e+005
2.441690e+003, 6.498224e+005
2.443619e+003, 6.469334e+005
2.445547e+003, 6.433136e+005
2.447476e+003, 6.394163e+005
2.449404e+003, 6.363966e+005
2.451333e+003, 6.334185e+005
2.453261e+003, 6.304309e+005
2.455189e+003, 6.281666e+005
2.457118e+003, 6.256052e+005
2.459046e+003, 6.224687e+005
2.460975e+003, 6.200602e+005
2.462903e+003, 6.174036e+005
2.464832e+003, 6.139673e+005
2.466760e+003, 6.111498e+005
2.468689e+003, 6.079972e+005
2.470617e+003, 6.039611e+005
2.472546e+003, 6.000099e+005
2.474474e+003, 5.963648e+005
2.476403e+003, 5.931168e+005
2.478331e+003, 5.906470e+005
2.480260e+003, 5.881114e+005
2.482188e+003, 5.839051e+005
2.484116e+003, 5.803975e+005
2.486045e+003, 5.774618e+005
2.487973e+003, 5.744376e+005
2.489902e+003, 5.708454e+005
2.491830e+003, 5.669126e+005
2.493759e+003, 5.634501e+005
2.495687e+003, 5.603223e+005
2.497616e+003, 5.575564e+005
2.499544e+003, 5.555586e+005
2.501473e+003, 5.533884e+005
2.503401e+003, 5.507527e+005
2.505330e+003, 5.480539e+005
2.507258e+003, 5.456722e+005
2.509187e+003, 5.437591e+005
2.511115e+003, 5.410844e+005
2.513043e+003, 5.379543e+005
2.514972e+003, 5.345454e+005
2.516900e+003, 5.312817e+005
2.518829e+003, 5.281929e+005
2.520757e+003, 5.252615e+005
2.522686e+003, 5.228474e+005
2.524614e+003, 5.207217e+005
2.526543e+003, 5.186104e+005
2.528471e+003, 5.162378e+005
2.530400e+003, 5.138033e+005
2.532328e+003, 5.117021e+005
2.534257e+003, 5.088793e+005
2.536185e+003, 5.057471e+005
2.538114e+003, 5.030076e+005
2.540042e+003, 5.004067e+005
2.541970e+003, 4.978952e+005
2.543899e+003, 4.953543e+005
2.545827e+003, 4.930169e+005
2.547756e+003, 4.907652e+005
2.549684e+003, 4.883076e+005
2.551613e+003, 4.859674e+005
2.553541e+003, 4.836095e+005
2.555470e+003, 4.805224e+005
2.557398e+003, 4.781607e+005
2.559327e+003, 4.762788e+005
2.561255e+003, 4.733978e+005
2.563184e+003, 4.701558e+005
2.565112e+003, 4.668944e+005
2.567041e+003, 4.642505e+005
2.568969e+003, 4.616723e+005
2.570897e+003, 4.590701e+005
2.572826e+003, 4.565952e+005
2.574754e+003, 4.541585e+005
2.576683e+003, 4.517714e+005
2.578611e+003, 4.496310e+005
2.580540e+003, 4.472144e+005
2.582468e+003, 4.445233e+005
2.584397e+003, 4.424638e+005
2.586325e+003, 4.400098e+005
2.588254e+003, 4.370094e+005
2.590182e+003, 4.341482e+005
2.592111e+003, 4.315808e+005
2.594039e+003, 4.293056e+005
2.595968e+003, 4.269827e+005
2.597896e+003, 4.244271e+005
2.599824e+003, 4.216500e+005
2.601753e+003, 4.188899e+005
2.603681e+003, 4.165763e+005
2.605610e+003, 4.147008e+005
2.607538e+003, 4.125279e+005
2.609467e+003, 4.104237e+005
2.611395e+003, 4.084508e+005
2.613324e+003, 4.064923e+005
2.615252e+003, 4.042013e+005
2.617181e+003, 4.016524e+005
2.619109e+003, 3.996792e+005
2.621038e+003, 3.976244e+005
2.622966e+003, 3.953240e+005
2.624895e+003, 3.928022e+005
2.626823e+003, 3.901408e+005
2.628751e+003, 3.874818e+005
2.630680e+003, 3.851980e+005
2.632608e+003, 3.828177e+005
2.634537e+003, 3.804064e+005
2.636465e+003, 3.783674e+005
2.638394e+003, 3.763096e+005
2.640322e+003, 3.741870e+005
2.642251e+003, 3.719881e+005
2.644179e+003, 3.700897e+005
2.646108e+003, 3.682048e+005
2.648036e+003, 3.655963e+005
2.649965e+003, 3.635310e+005
2.651893e+003, 3.615100e+005
2.653822e+003, 3.584139e+005
2.655750e+003, 3.556175e+005
2.657678e+003, 3.531570e+005
2.659607e+003, 3.508707e+005
2.661535e+003, 3.486345e+005
2.663464e+003, 3.464403e+005
2.665392e+003, 3.442803e+005
2.667321e+003, 3.423572e+005
2.669249e+003, 3.403341e+005
2.671178e+003, 3.379284e+005
2.673106e+003, 3.354732e+005
2.675035e+003, 3.333153e+005
2.676963e+003, 3.316215e+005
2.678892e+003, 3.298081e+005
2.680820e+003, 3.277439e+005
2.682749e+003, 3.254305e+005
2.684677e+003, 3.231859e+005
2.686605e+003, 3.210782e+005
2.688534e+003, 3.191039e+005
2.690462e+003, 3.172143e+005
2.692391e+003, 3.150939e+005
2.694319e+003, 3.127871e+005
2.696248e+003, 3.106904e+005
2.698176e+003, 3.089231e+005
2.700105e+003, 3.073386e+005
2.702033e+003, 3.055750e+005
2.703962e+003, 3.035254e+005
2.705890e+003, 3.012973e+005
2.707819e+003, 2.992394e+005
2.709747e+003, 2.970398e+005
2.711676e+003, 2.947010e+005
2.713604e+003, 2.922177e+005
2.715532e+003, 2.900581e+005
2.717461e+003, 2.880011e+005
2.719389e+003, 2.857574e+005
2.721318e+003, 2.836164e+005
2.723246e+003, 2.817024e+005
2.725175e+003, 2.800825e+005
2.727103e+003, 2.785402e+005
2.729032e+003, 2.766607e+005
2.730960e+003, 2.743424e+005
2.732889e+003, 2.724806e+005
2.734817e+003, 2.706723e+005
2.736746e+003, 2.688646e+005
2.738674e+003, 2.672215e+005
2.740603e+003, 2.658696e+005
2.742531e+003, 2.646075e+005
2.744459e+003, 2.628549e+005
2.746388e+003, 2.613970e+005
2.748316e+003, 2.599441e+005
2.750245e+003, 2.579813e+005
2.752173e+003, 2.564878e+005
2.754102e+003, 2.548128e+005
2.756030e+003, 2.524521e+005
2.757959e+003, 2.509968e+005
2.759887e+003, 2.493682e+005
2.761816e+003, 2.471705e+005
2.763744e+003, 2.451663e+005
2.765673e+003, 2.438243e+005
2.767601e+003, 2.429206e+005
2.769530e+003, 2.415282e+005
2.771458e+003, 2.396995e+005
2.773386e+003, 2.377220e+005
2.775315e+003, 2.362301e+005
2.777243e+003, 2.340645e+005
2.779172e+003, 2.319998e+005
2.781100e+003, 2.310069e+005
2.783029e+003, 2.293200e+005
2.784957e+003, 2.276930e+005
2.786886e+003, 2.265506e+005
2.788814e+003, 2.247612e+005
2.790743e+003, 2.232665e+005
2.792671e+003, 2.221628e+005
2.794600e+003, 2.204592e+005
2.796528e+003, 2.189552e+005
2.798457e+003, 2.175792e+005
2.800385e+003, 2.159589e+005
2.802313e+003, 2.140576e+005
2.804242e+003, 2.123670e+005
2.806170e+003, 2.112565e+005
2.808099e+003, 2.100120e+005
2.810027e+003, 2.086740e+005
2.811956e+003, 2.072672e+005
2.813884e+003, 2.056623e+005
2.815813e+003, 2.041033e+005
2.817741e+003, 2.026005e+005
2.819670e+003, 2.009483e+005
2.821598e+003, 1.994495e+005
2.823527e+003, 1.979880e+005
2.825455e+003, 1.962682e+005
2.827384e+003, 1.951956e+005
2.829312e+003, 1.939691e+005
2.831240e+003, 1.921203e+005
2.833169e+003, 1.906778e+005
2.835097e+003, 1.894769e+005
2.837026e+003, 1.882442e+005
2.838954e+003, 1.861723e+005
2.840883e+003, 1.846517e+005
2.842811e+003, 1.833546e+005
2.844740e+003, 1.816108e+005
2.846668e+003, 1.801489e+005
2.848597e+003, 1.788893e+005
2.850525e+003, 1.777247e+005
2.852454e+003, 1.765142e+005
2.854382e+003, 1.751284e+005
2.856311e+003, 1.735844e+005
2.858239e+003, 1.719585e+005
2.860167e+003, 1.707620e+005
2.862096e+003, 1.697271e+005
2.864024e+003, 1.684885e+005
2.865953e+003, 1.672030e+005
2.867881e+003, 1.659940e+005
2.869810e+003, 1.648175e+005
2.871738e+003, 1.632031e+005
2.873667e+003, 1.618222e+005
2.875595e+003, 1.606554e+005
2.877524e+003, 1.593298e+005
2.879452e+003, 1.580925e+005
2.881381e+003, 1.569173e+005
2.883309e+003, 1.557432e+005
2.885238e+003, 1.548557e+005
2.887166e+003, 1.538420e+005
2.889094e+003, 1.526202e+005
2.891023e+003, 1.514898e+005
2.892951e+003, 1.498459e+005
2.894880e+003, 1.483980e+005
2.896808e+003, 1.482629e+005
2.898737e+003, 1.464862e+005
2.900665e+003, 1.445403e+005
2.902594e+003, 1.431309e+005
2.904522e+003, 1.418204e+005
2.906451e+003, 1.405893e+005
2.908379e+003, 1.394214e+005
2.910308e+003, 1.383025e+005
2.912236e+003, 1.370074e+005
2.914165e+003, 1.359008e+005
2.916093e+003, 1.351220e+005
2.918021e+003, 1.342941e+005
2.919950e+003, 1.332452e+005
2.921878e+003, 1.321043e+005
2.923807e+003, 1.312327e+005
2.925735e+003, 1.302710e+005
2.927664e+003, 1.290930e+005
2.929592e+003, 1.277366e+005
2.931521e+003, 1.270174e+005
2.933449e+003, 1.262443e+005
2.935378e+003, 1.252804e+005
2.937306e+003, 1.242412e+005
2.939235e+003, 1.233471e+005
2.941163e+003, 1.223555e+005
2.943092e+003, 1.211355e+005
2.945020e+003, 1.204867e+005
2.946948e+003, 1.196516e+005
2.948877e+003, 1.185657e+005
2.950805e+003, 1.174278e+005
2.952734e+003, 1.165727e+005
2.954662e+003, 1.157423e+005
2.956591e+003, 1.147478e+005
2.958519e+003, 1.139603e+005
2.960448e+003, 1.129657e+005
2.962376e+003, 1.118037e+005
2.964305e+003, 1.107127e+005
2.966233e+003, 1.096528e+005
2.968162e+003, 1.086318e+005
2.970090e+003, 1.076802e+005
2.972019e+003, 1.069262e+005
2.973947e+003, 1.061852e+005
2.975875e+003, 1.054412e+005
2.977804e+003, 1.047193e+005
2.979732e+003, 1.037799e+005
2.981661e+003, 1.029687e+005
2.983589e+003, 1.022771e+005
2.985518e+003, 1.010819e+005
2.987446e+003, 1.000375e+005
2.989375e+003, 9.904382e+004
2.991303e+003, 9.793788e+004
2.993232e+003, 9.689869e+004
2.995160e+003, 9.617438e+004
2.997089e+003, 9.563966e+004
2.999017e+003, 9.490442e+004
3.000946e+003, 9.411607e+004
3.002874e+003, 9.327753e+004
3.004802e+003, 9.238954e+004
3.006731e+003, 9.147619e+004
3.008659e+003, 9.071728e+004
3.010588e+003, 9.006973e+004
3.012516e+003, 8.943246e+004
3.014445e+003, 8.890650e+004
3.016373e+003, 8.810235e+004
3.018302e+003, 8.705955e+004
3.020230e+003, 8.637186e+004
3.022159e+003, 8.572126e+004
3.024087e+003, 8.513791e+004
3.026016e+003, 8.463608e+004
3.027944e+003, 8.367148e+004
3.029873e+003, 8.300390e+004
3.031801e+003, 8.254709e+004
3.033729e+003, 8.194739e+004
3.035658e+003, 8.137353e+004
3.037586e+003, 8.068511e+004
3.039515e+003, 7.988100e+004
3.041443e+003, 7.913867e+004
3.043372e+003, 7.842170e+004
3.045300e+003, 7.767179e+004
3.047229e+003, 7.684777e+004
3.049157e+003, 7.580975e+004
3.051086e+003, 7.497852e+004
3.053014e+003, 7.429302e+004
3.054943e+003, 7.358049e+004
3.056871e+003, 7.289073e+004
3.058800e+003, 7.238761e+004
3.060728e+003, 7.195143e+004
3.062656e+003, 7.124316e+004
3.064585e+003, 7.066812e+004
3.066513e+003, 7.020138e+004
3.068442e+003, 6.977520e+004
3.070370e+003, 6.927539e+004
3.072299e+003, 6.852029e+004
3.074227e+003, 6.780019e+004
3.076156e+003, 6.731085e+004
3.078084e+003, 6.680641e+004
3.080013e+003, 6.603105e+004
3.081941e+003, 6.533966e+004
3.083870e+003, 6.509192e+004
3.085798e+003, 6.457054e+004
3.087727e+003, 6.391979e+004
3.089655e+003, 6.319911e+004
3.091583e+003, 6.239233e+004
3.093512e+003, 6.198853e+004
3.095440e+003, 6.157260e+004
3.097369e+003, 6.102165e+004
3.099297e+003, 6.044501e+004
3.101226e+003, 6.007350e+004
3.103154e+003, 5.963742e+004
3.105083e+003, 5.903563e+004
3.107011e+003, 5.842689e+004
3.108940e+003, 5.772311e+004
3.110868e+003, 5.708492e+004
3.112797e+003, 5.660557e+004
3.114725e+003, 5.607730e+004
3.116654e+003, 5.540402e+004
3.118582e+003, 5.474356e+004
3.120510e+003, 5.424082e+004
3.122439e+003, 5.411336e+004
3.124367e+003, 5.354262e+004
3.126296e+003, 5.285089e+004
3.128224e+003, 5.250264e+004
3.130153e+003, 5.188576e+004
3.132081e+003, 5.134079e+004
3.134010e+003, 5.094523e+004
3.135938e+003, 5.065741e+004
3.137867e+003, 5.010304e+004
3.139795e+003, 4.964187e+004
3.141724e+003, 4.925563e+004
3.143652e+003, 4.874425e+004
3.145581e+003, 4.827167e+004
3.147509e+003, 4.789371e+004
3.149438e+003, 4.750063e+004
3.151366e+003, 4.687205e+004
3.153294e+003, 4.637170e+004
3.155223e+003, 4.601392e+004
3.157151e+003, 4.566651e+004
3.159080e+003, 4.501107e+004
3.161008e+003, 4.480034e+004
3.162937e+003, 4.464463e+004
3.164865e+003, 4.434938e+004
3.166794e+003, 4.385928e+004
3.168722e+003, 4.311611e+004
3.170651e+003, 4.270345e+004
3.172579e+003, 4.249897e+004
3.174508e+003, 4.176328e+004
3.176436e+003, 4.114088e+004
3.178365e+003, 4.076101e+004
3.180293e+003, 4.053871e+004
3.182221e+003, 4.024025e+004
3.184150e+003, 3.985787e+004
3.186078e+003, 3.969138e+004
3.188007e+003, 3.958420e+004
3.189935e+003, 3.904248e+004
3.191864e+003, 3.846173e+004
3.193792e+003, 3.774530e+004
3.195721e+003, 3.710116e+004
3.197649e+003, 3.694891e+004
3.199578e+003, 3.655729e+004
3.201506e+003, 3.606553e+004
3.203435e+003, 3.559913e+004
3.205363e+003, 3.525254e+004
3.207292e+003, 3.493016e+004
3.209220e+003, 3.456973e+004
3.211148e+003, 3.417573e+004
3.213077e+003, 3.377786e+004
3.215005e+003, 3.331441e+004
3.216934e+003, 3.287541e+004
3.218862e+003, 3.249340e+004
3.220791e+003, 3.218126e+004
3.222719e+003, 3.184236e+004
3.224648e+003, 3.171281e+004
3.226576e+003, 3.147827e+004
3.228505e+003, 3.087286e+004
3.230433e+003, 3.048310e+004
3.232362e+003, 3.019440e+004
3.234290e+003, 2.993702e+004
3.236219e+003, 2.964231e+004
3.238147e+003, 2.910389e+004
3.240075e+003, 2.869472e+004
3.242004e+003, 2.843322e+004
3.243932e+003, 2.822840e+004
3.245861e+003, 2.785853e+004
3.247789e+003, 2.754010e+004
3.249718e+003, 2.709138e+004
3.251646e+003, 2.663364e+004
3.253575e+003, 2.658961e+004
3.255503e+003, 2.624736e+004
3.257432e+003, 2.597777e+004
3.259360e+003, 2.581789e+004
3.261289e+003, 2.565360e+004
3.263217e+003, 2.531619e+004
3.265146e+003, 2.495872e+004
3.267074e+003, 2.468682e+004
3.269002e+003, 2.453143e+004
3.270931e+003, 2.413551e+004
3.272859e+003, 2.412600e+004
3.274788e+003, 2.401297e+004
3.276716e+003, 2.353965e+004
3.278645e+003, 2.315048e+004
3.280573e+003, 2.303368e+004
3.282502e+003, 2.281181e+004
3.284430e+003, 2.249383e+004
3.286359e+003, 2.241649e+004
3.288287e+003, 2.230672e+004
3.290216e+003, 2.211218e+004
3.292144e+003, 2.192328e+004
3.294073e+003, 2.180109e+004
3.296001e+003, 2.136140e+004
3.297929e+003, 2.116841e+004
3.299858e+003, 2.107133e+004
3.301786e+003, 2.088974e+004
3.303715e+003, 2.055192e+004
3.305643e+003, 2.064903e+004
3.307572e+003, 2.059470e+004
3.309500e+003, 2.027374e+004
3.311429e+003, 1.994021e+004
3.313357e+003, 1.974364e+004
3.315286e+003, 1.961513e+004
3.317214e+003, 1.947798e+004
3.319143e+003, 1.927877e+004
3.321071e+003, 1.900315e+004
3.323000e+003, 1.880279e+004
3.324928e+003, 1.867538e+004
3.326856e+003, 1.852219e+004
3.328785e+003, 1.815053e+004
3.330713e+003, 1.798691e+004
3.332642e+003, 1.779125e+004
3.334570e+003, 1.756972e+004
3.336499e+003, 1.741021e+004
3.338427e+003, 1.715305e+004
3.340356e+003, 1.683569e+004
3.342284e+003, 1.656845e+004
3.344213e+003, 1.643810e+004
3.346141e+003, 1.654899e+004
3.348070e+003, 1.633007e+004
3.349998e+003, 1.620393e+004
3.351927e+003, 1.611361e+004
3.353855e+003, 1.586129e+004
3.355783e+003, 1.594270e+004
3.357712e+003, 1.567458e+004
3.359640e+003, 1.547969e+004
3.361569e+003, 1.549160e+004
3.363497e+003, 1.516472e+004
3.365426e+003, 1.543574e+004
3.367354e+003, 1.530661e+004
3.369283e+003, 1.499103e+004
3.371211e+003, 1.493165e+004
3.373140e+003, 1.459313e+004
3.375068e+003, 1.468363e+004
3.376997e+003, 1.464270e+004
3.378925e+003, 1.440848e+004
3.380854e+003, 1.443778e+004
3.382782e+003, 1.439783e+004
3.384710e+003, 1.410694e+004
3.386639e+003, 1.373487e+004
3.388567e+003, 1.349653e+004
3.390496e+003, 1.360797e+004
3.392424e+003, 1.360290e+004
3.394353e+003, 1.355843e+004
3.396281e+003, 1.340875e+004
3.398210e+003, 1.310273e+004
3.400138e+003, 1.313117e+004
3.402067e+003, 1.298155e+004
3.403995e+003, 1.282957e+004
3.405924e+003, 1.278841e+004
3.407852e+003, 1.284463e+004
3.409781e+003, 1.281201e+004
3.411709e+003, 1.264024e+004
3.413637e+003, 1.244781e+004
3.415566e+003, 1.231505e+004
3.417494e+003, 1.222115e+004
3.419423e+003, 1.210797e+004
3.421351e+003, 1.183256e+004
3.423280e+003, 1.169757e+004
3.425208e+003, 1.186925e+004
3.427137e+003, 1.176529e+004
3.429065e+003, 1.164877e+004
3.430994e+003, 1.144070e+004
3.432922e+003, 1.128421e+004
3.434851e+003, 1.131463e+004
3.436779e+003, 1.102555e+004
3.438708e+003, 1.121678e+004
3.440636e+003, 1.124692e+004
3.442564e+003, 1.103588e+004
3.444493e+003, 1.091312e+004
3.446421e+003, 1.075621e+004
3.448350e+003, 1.077002e+004
3.450278e+003, 1.066098e+004
3.452207e+003, 1.044347e+004
3.454135e+003, 1.042286e+004
3.456064e+003, 1.022607e+004
##END=



