##NAMES=Deerite
##RRUFFID=R070393
##IDEAL CHEMISTRY=Fe^2+^_6_Fe^3+^_3_(Si_6_O_17_)O_3_(OH)_5_
##LOCALITY=Laytonville quarry, Laytonville, Mendocino County, California, USA
##OWNER=RRUFF
##SOURCE=Michael Scott
##DESCRIPTION=Black bladed crystals embedded in quartz and fibrous riebeckite
##STATUS=The identification of this mineral has been confirmed by single-crystal X-ray diffraction
##URL=https://www.rruff.net/odr/rruff_sample/R070393
##DIFFRACTION SAMPLE DESCRIPTION=Single crystal, powder profile is calculated
##CELL PARAMETERS=a: 10.774 b: 18.903 c: 9.561 alpha: 90 beta: 107.085 gamma: 90 volume: 1861.2 crystal system: monoclinic
##FILETYPE=Raman RAW
##RAMAN WAVELENGTH=532

154.6372, 1070.806
156.5656, 1104.767
158.4941, 1135.884
160.4226, 1162.309
162.3510, 1189.965
164.2795, 1221.578
166.2080, 1258.648
168.1364, 1293.047
170.0649, 1323.672
171.9934, 1352.028
173.9218, 1380.720
175.8503, 1410.683
177.7788, 1438.286
179.7072, 1462.112
181.6357, 1480.783
183.5642, 1499.092
185.4926, 1520.373
187.4211, 1540.698
189.3496, 1553.542
191.2780, 1552.206
193.2065, 1549.515
195.1350, 1547.978
197.0634, 1545.906
198.9919, 1550.220
200.9204, 1570.060
202.8488, 1597.596
204.7773, 1614.111
206.7058, 1614.657
208.6342, 1610.086
210.5627, 1601.873
212.4912, 1588.630
214.4196, 1580.733
216.3481, 1582.690
218.2766, 1590.379
220.2050, 1594.542
222.1335, 1591.121
224.0620, 1590.193
225.9904, 1597.224
227.9189, 1617.489
229.8474, 1628.767
231.7758, 1623.688
233.7043, 1612.014
235.6328, 1607.533
237.5612, 1615.788
239.4897, 1623.011
241.4182, 1622.733
243.3466, 1610.903
245.2751, 1608.267
247.2036, 1627.589
249.1320, 1651.111
251.0605, 1660.630
252.9890, 1636.633
254.9174, 1619.152
256.8459, 1621.660
258.7744, 1643.984
260.7029, 1659.247
262.6313, 1657.736
264.5598, 1651.187
266.4883, 1650.258
268.4167, 1664.891
270.3452, 1675.104
272.2737, 1674.598
274.2021, 1666.400
276.1306, 1662.091
278.0591, 1670.724
279.9875, 1678.933
281.9160, 1676.555
283.8445, 1658.374
285.7729, 1643.451
287.7014, 1637.036
289.6299, 1637.077
291.5583, 1638.071
293.4868, 1645.017
295.4153, 1648.917
297.3437, 1642.945
299.2722, 1626.596
301.2007, 1612.056
303.1291, 1603.731
305.0576, 1598.703
306.9861, 1591.668
308.9145, 1580.253
310.8430, 1569.386
312.7715, 1560.247
314.6999, 1552.555
316.6284, 1546.891
318.5569, 1546.679
320.4853, 1547.299
322.4138, 1541.975
324.3423, 1527.865
326.2707, 1515.517
328.1992, 1507.598
330.1277, 1503.623
332.0561, 1503.553
333.9846, 1508.349
335.9131, 1516.070
337.8415, 1526.723
339.7700, 1540.911
341.6985, 1551.848
343.6269, 1556.719
345.5554, 1557.872
347.4839, 1559.286
349.4123, 1559.296
351.3408, 1561.403
353.2693, 1567.321
355.1977, 1576.179
357.1262, 1583.107
359.0547, 1587.469
360.9831, 1590.873
362.9116, 1593.784
364.8401, 1596.275
366.7685, 1599.037
368.6970, 1600.619
370.6255, 1601.550
372.5539, 1606.691
374.4824, 1622.875
376.4109, 1636.582
378.3393, 1641.662
380.2678, 1639.305
382.1963, 1634.261
384.1247, 1620.462
386.0532, 1606.033
387.9817, 1603.270
389.9101, 1624.916
391.8386, 1640.987
393.7671, 1641.976
395.6955, 1631.091
397.6240, 1622.503
399.5525, 1619.399
401.4809, 1618.122
403.4094, 1616.592
405.3379, 1615.815
407.2663, 1614.359
409.1948, 1606.917
411.1233, 1595.757
413.0517, 1591.174
414.9802, 1604.461
416.9087, 1616.029
418.8371, 1615.462
420.7656, 1603.816
422.6941, 1597.723
424.6225, 1605.440
426.5510, 1617.650
428.4795, 1626.484
430.4079, 1629.522
432.3364, 1631.164
434.2649, 1629.287
436.1933, 1626.622
438.1218, 1629.712
440.0503, 1646.139
441.9787, 1662.216
443.9072, 1666.015
445.8357, 1653.897
447.7641, 1647.307
449.6926, 1659.195
451.6211, 1676.808
453.5495, 1686.386
455.4780, 1683.704
457.4065, 1680.808
459.3349, 1678.596
461.2634, 1678.285
463.1919, 1680.826
465.1203, 1686.998
467.0488, 1692.788
468.9773, 1696.066
470.9057, 1696.899
472.8342, 1700.577
474.7627, 1709.007
476.6911, 1720.193
478.6196, 1731.529
480.5481, 1742.055
482.4765, 1749.567
484.4050, 1760.505
486.3335, 1771.167
488.2619, 1774.787
490.1904, 1764.463
492.1189, 1756.237
494.0473, 1755.400
495.9758, 1760.167
497.9043, 1765.635
499.8327, 1770.803
501.7612, 1772.610
503.6897, 1771.195
505.6181, 1767.631
507.5466, 1769.060
509.4751, 1778.613
511.4035, 1788.319
513.3320, 1793.969
515.2604, 1793.883
517.1889, 1795.465
519.1174, 1797.114
521.0458, 1799.832
522.9743, 1805.901
524.9028, 1817.299
526.8312, 1828.813
528.7597, 1835.909
530.6882, 1838.822
532.6166, 1841.095
534.5451, 1850.396
536.4736, 1862.129
538.4020, 1871.485
540.3305, 1876.571
542.2590, 1878.696
544.1874, 1879.067
546.1159, 1882.338
548.0444, 1890.548
549.9728, 1904.359
551.9013, 1913.984
553.8298, 1909.343
555.7582, 1903.524
557.6867, 1910.419
559.6152, 1943.488
561.5436, 1971.816
563.4721, 1983.781
565.4006, 1983.668
567.3290, 1984.381
569.2575, 1988.942
571.1860, 1993.147
573.1144, 1992.802
575.0429, 1989.976
576.9714, 1997.512
578.8998, 2025.370
580.8283, 2049.408
582.7568, 2057.486
584.6852, 2052.766
586.6137, 2056.739
588.5422, 2074.918
590.4706, 2092.302
592.3991, 2100.875
594.3276, 2101.922
596.2560, 2104.329
598.1845, 2105.393
600.1130, 2106.514
602.0414, 2110.124
603.9699, 2116.925
605.8984, 2125.338
607.8268, 2135.239
609.7553, 2144.616
611.6838, 2150.399
613.6122, 2156.374
615.5407, 2163.996
617.4692, 2172.717
619.3976, 2175.747
621.3261, 2171.904
623.2546, 2169.478
625.1830, 2166.764
627.1115, 2160.712
629.0400, 2146.470
630.9684, 2131.546
632.8969, 2124.264
634.8254, 2116.940
636.7538, 2106.798
638.6823, 2086.354
640.6108, 2059.891
642.5392, 2030.442
644.4677, 2003.895
646.3962, 1981.763
648.3246, 1966.342
650.2531, 1950.880
652.1816, 1931.337
654.1100, 1907.692
656.0385, 1884.128
657.9670, 1865.213
659.8954, 1842.582
661.8239, 1813.208
663.7524, 1779.007
665.6808, 1741.499
667.6093, 1705.667
669.5378, 1673.140
671.4662, 1645.430
673.3947, 1617.063
675.3232, 1589.408
677.2516, 1565.051
679.1801, 1539.678
681.1086, 1512.724
683.0370, 1483.504
684.9655, 1452.154
686.8940, 1418.340
688.8224, 1387.232
690.7509, 1358.773
692.6794, 1335.513
694.6078, 1316.240
696.5363, 1298.524
698.4648, 1284.369
700.3932, 1277.441
702.3217, 1273.036
704.2502, 1265.467
706.1786, 1254.897
708.1071, 1244.375
710.0356, 1231.912
711.9641, 1214.241
713.8925, 1203.218
715.8210, 1206.952
717.7495, 1209.383
719.6779, 1201.296
721.6064, 1185.839
723.5349, 1175.691
725.4633, 1176.999
727.3918, 1178.340
729.3203, 1175.458
731.2487, 1165.566
733.1772, 1155.800
735.1057, 1149.239
737.0341, 1143.798
738.9626, 1136.998
740.8911, 1127.313
742.8195, 1119.255
744.7480, 1114.884
746.6765, 1112.446
748.6049, 1110.498
750.5334, 1108.235
752.4619, 1105.225
754.3903, 1102.066
756.3188, 1098.013
758.2473, 1091.483
760.1757, 1082.733
762.1042, 1076.331
764.0327, 1074.322
765.9611, 1073.661
767.8896, 1073.290
769.8181, 1073.197
771.7465, 1073.277
773.6750, 1076.256
775.6035, 1076.927
777.5319, 1070.305
779.4604, 1056.713
781.3889, 1048.439
783.3173, 1053.769
785.2458, 1059.042
787.1743, 1056.542
789.1027, 1043.769
791.0312, 1036.440
792.9597, 1036.921
794.8881, 1041.264
796.8166, 1048.250
798.7451, 1057.634
800.6735, 1063.155
802.6020, 1061.305
804.5305, 1057.155
806.4589, 1052.959
808.3874, 1052.058
810.3159, 1052.051
812.2443, 1051.754
814.1728, 1052.138
816.1013, 1057.863
818.0297, 1068.397
819.9582, 1074.866
821.8867, 1070.185
823.8151, 1067.214
825.7436, 1071.707
827.6721, 1083.295
829.6005, 1087.984
831.5290, 1080.277
833.4575, 1072.213
835.3859, 1070.271
837.3144, 1071.958
839.2429, 1076.367
841.1713, 1088.199
843.0998, 1101.859
845.0283, 1109.516
846.9567, 1105.635
848.8852, 1103.376
850.8137, 1104.550
852.7421, 1112.907
854.6706, 1127.671
856.5991, 1143.947
858.5275, 1154.131
860.4560, 1155.032
862.3845, 1153.960
864.3129, 1153.957
866.2414, 1154.085
868.1699, 1153.642
870.0983, 1152.355
872.0268, 1153.125
873.9553, 1155.370
875.8837, 1157.439
877.8122, 1161.389
879.7407, 1167.936
881.6691, 1177.616
883.5976, 1191.725
885.5261, 1205.665
887.4545, 1214.735
889.3830, 1217.524
891.3115, 1218.300
893.2399, 1213.923
895.1684, 1210.366
897.0969, 1216.161
899.0253, 1232.116
900.9538, 1246.224
902.8823, 1253.976
904.8107, 1258.903
906.7392, 1262.418
908.6677, 1264.744
910.5961, 1269.491
912.5246, 1278.973
914.4531, 1288.518
916.3815, 1293.984
918.3100, 1295.484
920.2385, 1296.848
922.1669, 1299.277
924.0954, 1303.226
926.0239, 1308.410
927.9523, 1315.018
929.8808, 1321.954
931.8093, 1329.434
933.7377, 1336.066
935.6662, 1340.746
937.5947, 1340.032
939.5231, 1340.837
941.4516, 1347.812
943.3801, 1365.420
945.3085, 1383.160
947.2370, 1398.234
949.1655, 1410.041
951.0939, 1418.701
953.0224, 1424.390
954.9509, 1426.302
956.8793, 1426.983
958.8078, 1431.135
960.7363, 1438.992
962.6647, 1447.204
964.5932, 1454.289
966.5217, 1468.564
968.4501, 1482.827
970.3786, 1489.153
972.3071, 1480.532
974.2355, 1459.283
976.1640, 1446.185
978.0925, 1447.121
980.0209, 1453.158
981.9494, 1450.300
983.8779, 1437.255
985.8063, 1430.123
987.7348, 1422.864
989.6633, 1407.290
991.5917, 1389.348
993.5202, 1379.931
995.4487, 1370.665
997.3771, 1349.206
999.3056, 1331.023
1001.234, 1323.836
1003.163, 1323.274
1005.091, 1312.426
1007.019, 1288.894
1008.948, 1268.147
1010.876, 1258.637
1012.805, 1255.618
1014.733, 1250.482
1016.662, 1237.953
1018.590, 1225.828
1020.519, 1216.093
1022.447, 1206.354
1024.376, 1195.359
1026.304, 1188.285
1028.233, 1184.653
1030.161, 1178.590
1032.090, 1171.757
1034.018, 1168.216
1035.947, 1169.473
1037.875, 1171.803
1039.803, 1165.845
1041.732, 1155.892
1043.660, 1146.768
1045.589, 1142.120
1047.517, 1141.517
1049.446, 1144.886
1051.374, 1144.693
1053.303, 1139.001
1055.231, 1134.520
1057.160, 1137.415
1059.088, 1142.083
1061.017, 1141.466
1062.945, 1134.418
1064.874, 1127.852
1066.802, 1124.741
1068.730, 1124.797
1070.659, 1125.029
1072.587, 1126.123
1074.516, 1122.585
1076.444, 1111.615
1078.373, 1101.793
1080.301, 1103.549
1082.230, 1108.503
1084.158, 1108.732
1086.087, 1104.273
1088.015, 1099.844
1089.944, 1095.647
1091.872, 1098.196
1093.801, 1110.112
1095.729, 1121.280
1097.657, 1126.611
1099.586, 1124.962
1101.514, 1118.197
1103.443, 1105.233
1105.371, 1097.066
1107.300, 1091.776
1109.228, 1086.847
1111.157, 1083.882
1113.085, 1087.994
1115.014, 1093.544
1116.942, 1096.687
1118.871, 1097.632
1120.799, 1097.368
1122.728, 1096.076
1124.656, 1092.390
1126.584, 1083.520
1128.513, 1075.821
1130.441, 1074.187
1132.370, 1077.793
1134.298, 1077.708
1136.227, 1071.485
1138.155, 1066.082
1140.084, 1060.485
1142.012, 1054.378
1143.941, 1048.947
1145.869, 1043.827
1147.798, 1039.232
1149.726, 1040.060
1151.655, 1043.971
1153.583, 1042.223
1155.511, 1033.155
1157.440, 1027.912
1159.368, 1032.010
1161.297, 1035.842
1163.225, 1034.183
1165.154, 1028.786
1167.082, 1023.689
1169.011, 1018.139
1170.939, 1012.385
1172.868, 1007.729
1174.796, 1005.340
1176.725, 1006.030
1178.653, 1013.460
1180.582, 1017.819
1182.510, 1015.799
1184.438, 1011.193
1186.367, 1009.110
1188.295, 1012.767
1190.224, 1014.162
1192.152, 1009.087
1194.081, 1004.436
1196.009, 1008.830
1197.938, 1019.427
1199.866, 1023.429
1201.795, 1017.436
1203.723, 1010.607
1205.652, 1003.166
1207.580, 998.7899
1209.509, 1002.082
1211.437, 1016.227
1213.365, 1023.490
1215.294, 1019.111
1217.222, 1011.748
1219.151, 1001.894
1221.079, 991.1182
1223.008, 988.5389
1224.936, 1000.024
1226.865, 1009.345
1228.793, 1013.770
1230.722, 1015.150
1232.650, 1014.745
1234.579, 1012.698
1236.507, 1009.457
1238.436, 1001.990
1240.364, 997.2363
1242.292, 1001.065
1244.221, 1010.060
1246.149, 1015.850
1248.078, 1018.356
1250.006, 1018.651
1251.935, 1013.266
1253.863, 1007.045
1255.792, 1006.980
1257.720, 1014.364
1259.649, 1016.235
1261.577, 1007.527
1263.506, 1001.852
1265.434, 1005.161
1267.363, 1013.499
1269.291, 1017.392
1271.219, 1012.229
1273.148, 1008.244
1275.076, 1008.260
1277.005, 1011.118
1278.933, 1017.698
1280.862, 1026.672
1282.790, 1027.848
1284.719, 1016.432
1286.647, 1004.017
1288.576, 991.2167
1290.504, 983.3318
1292.433, 986.1060
1294.361, 1001.260
1296.290, 1012.756
1298.218, 1019.426
1300.146, 1019.857
1302.075, 1009.116
1304.003, 995.4429
1305.932, 989.0469
1307.860, 992.5817
1309.789, 999.6511
1311.717, 1012.879
1313.646, 1020.830
1315.574, 1015.368
1317.503, 1004.759
1319.431, 998.9547
1321.360, 997.3952
1323.288, 998.1818
1325.217, 1003.869
1327.145, 1008.987
1329.073, 1008.857
1331.002, 1003.777
1332.930, 1001.030
1334.859, 1006.481
1336.787, 1011.046
1338.716, 1008.573
1340.644, 1000.948
1342.573, 996.4442
1344.501, 992.0264
1346.430, 988.2328
1348.358, 989.2172
1350.287, 993.7339
1352.215, 1001.019
1354.144, 1007.338
1356.072, 1008.417
1358.000, 1002.673
1359.929, 997.3064
1361.857, 992.1141
1363.786, 989.2595
1365.714, 990.5407
1367.643, 994.6371
1369.571, 999.5232
1371.500, 1007.214
1373.428, 1009.617
1375.357, 1000.950
1377.285, 990.5983
1379.214, 988.6189
1381.142, 993.3514
1383.071, 994.6169
1384.999, 986.9301
1386.927, 980.6710
1388.856, 983.6189
1390.784, 990.8828
1392.713, 994.5250
1394.641, 993.1146
1396.570, 990.5836
1398.498, 989.3320
1400.427, 989.7451
1402.355, 992.1583
1404.284, 992.6494
1406.212, 985.7179
1408.141, 970.4066
1410.069, 964.9662
1411.998, 970.2880
1413.926, 976.4783
1415.854, 982.2318
1417.783, 987.7103
1419.711, 989.3725
1421.640, 985.0679
1423.568, 985.1683
1425.497, 992.3689
1427.425, 998.5317
1429.354, 996.6763
1431.282, 989.1806
1433.211, 987.8007
1435.139, 999.2902
1437.068, 1005.635
1438.996, 999.7134
1440.925, 993.5238
1442.853, 988.5447
1444.781, 983.0009
1446.710, 983.3948
1448.638, 997.6423
1450.567, 1009.085
1452.495, 1007.150
1454.424, 999.4265
1456.352, 992.5020
1458.281, 989.0172
1460.209, 991.1430
1462.138, 998.0266
1464.066, 1002.002
1465.995, 1001.226
1467.923, 1000.779
1469.852, 1004.174
1471.780, 1009.776
1473.708, 1010.318
1475.637, 1001.681
1477.565, 998.5505
1479.494, 1014.044
1481.422, 1027.969
1483.351, 1028.099
1485.279, 1017.517
1487.208, 1007.603
1489.136, 997.7010
1491.065, 989.1430
1492.993, 979.3379
1494.922, 974.7477
1496.850, 984.1481
1498.779, 1000.504
1500.707, 1003.412
1502.635, 979.4147
1504.564, 968.4404
1506.492, 981.1866
1508.421, 996.0858
1510.349, 1003.140
1512.278, 1003.526
1514.206, 1002.591
1516.135, 1000.809
1518.063, 1001.003
1519.992, 1004.188
1521.920, 1005.528
1523.849, 1001.354
1525.777, 995.4920
1527.706, 994.9809
1529.634, 1000.248
1531.563, 1003.865
1533.491, 1005.047
1535.419, 1006.209
1537.348, 1005.471
1539.276, 1004.836
1541.205, 1009.091
1543.133, 1017.289
1545.062, 1019.571
1546.990, 1010.798
1548.919, 1007.823
1550.847, 1022.405
1552.776, 1038.016
1554.704, 1042.559
1556.633, 1038.101
1558.561, 1031.155
1560.490, 1021.132
1562.418, 1014.774
1564.346, 1015.990
1566.275, 1016.655
1568.203, 1010.995
1570.132, 1002.883
1572.060, 999.5720
1573.989, 1001.445
1575.917, 1004.912
1577.846, 1012.879
1579.774, 1016.922
1581.703, 1004.949
1583.631, 991.4582
1585.560, 998.5317
1587.488, 1025.009
1589.417, 1037.915
1591.345, 1029.441
1593.273, 1018.880
1595.202, 1009.459
1597.130, 1002.463
1599.059, 1001.083
1600.987, 1003.933
1602.916, 1001.930
1604.844, 991.7049
1606.773, 988.0747
1608.701, 999.8729
1610.630, 1011.644
1612.558, 1018.058
1614.487, 1019.210
1616.415, 1013.134
1618.344, 998.5073
1620.272, 990.0181
1622.200, 993.0810
1624.129, 995.1524
1626.057, 990.2869
1627.986, 984.9948
1629.914, 985.8750
1631.843, 992.1314
1633.771, 994.6260
1635.700, 990.7924
1637.628, 990.2136
1639.557, 999.7477
1641.485, 1006.929
1643.414, 1005.543
1645.342, 998.6719
1647.271, 990.3425
1649.199, 979.3176
1651.127, 976.3207
1653.056, 987.6678
1654.984, 997.4365
1656.913, 1004.195
1658.841, 1005.978
1660.770, 998.7776
1662.698, 984.6417
1664.627, 974.2641
1666.555, 967.2947
1668.484, 965.2339
1670.412, 973.4412
1672.341, 980.2789
1674.269, 982.2664
1676.198, 980.3699
1678.126, 973.2782
1680.054, 960.4647
1681.983, 958.7252
1683.911, 976.8185
1685.840, 987.3669
1687.768, 975.1863
1689.697, 965.3535
1691.625, 976.4754
1693.554, 997.3862
1695.482, 1004.176
1697.411, 995.1260
1699.339, 984.4310
1701.268, 968.9440
1703.196, 958.9682
1705.125, 959.0384
1707.053, 963.4811
1708.981, 968.7858
1710.910, 975.2173
1712.838, 985.2731
1714.767, 1001.211
1716.695, 1008.679
1718.624, 1003.269
1720.552, 993.6987
1722.481, 978.2225
1724.409, 963.8786
1726.338, 957.8035
1728.266, 958.5686
1730.195, 957.9181
1732.123, 954.2925
1734.052, 956.7458
1735.980, 972.5729
1737.908, 985.3898
1739.837, 985.7787
1741.765, 982.2548
1743.694, 982.5621
1745.622, 986.2425
1747.551, 991.9329
1749.479, 1001.052
1751.408, 1004.365
1753.336, 995.8874
1755.265, 988.0991
1757.193, 987.8303
1759.122, 990.3486
1761.050, 991.0108
1762.979, 990.2414
1764.907, 990.5737
1766.835, 992.8869
1768.764, 991.6749
1770.692, 982.1927
1772.621, 974.9669
1774.549, 976.6506
1776.478, 981.7653
1778.406, 986.1305
1780.335, 989.2102
1782.263, 987.6229
1784.192, 979.7228
1786.120, 976.4600
1788.049, 983.1049
1789.977, 989.2805
1791.906, 989.5898
1793.834, 988.3439
1795.762, 991.0270
1797.691, 995.7816
1799.619, 994.3713
1801.548, 984.9288
1803.476, 979.6161
1805.405, 985.0163
1807.333, 986.9997
1809.262, 975.5916
1811.190, 964.5848
1813.119, 967.0067
1815.047, 978.5180
1816.976, 986.7614
1818.904, 991.0177
1820.833, 995.0833
1822.761, 1002.083
1824.689, 1004.259
1826.618, 996.7813
1828.546, 987.9005
1830.475, 980.6702
1832.403, 976.3807
1834.332, 978.9724
1836.260, 989.3724
1838.189, 994.2739
1840.117, 990.4319
1842.046, 987.0557
1843.974, 981.8366
1845.903, 981.1071
1847.831, 993.4513
1849.760, 1007.068
1851.688, 1005.110
1853.616, 990.8910
1855.545, 990.9175
1857.473, 1009.202
1859.402, 1021.026
1861.330, 1022.328
1863.259, 1019.226
1865.187, 1009.779
1867.116, 1000.772
1869.044, 996.4941
1870.973, 995.8861
1872.901, 997.2997
1874.830, 1000.659
1876.758, 1006.015
1878.687, 1015.951
1880.615, 1017.531
1882.543, 998.1993
1884.472, 983.7303
1886.400, 992.5484
1888.329, 1008.177
1890.257, 1012.560
1892.186, 1008.933
1894.114, 1010.416
1896.043, 1018.278
1897.971, 1022.931
1899.900, 1022.357
1901.828, 1020.641
1903.757, 1016.369
1905.685, 1013.694
1907.614, 1016.832
1909.542, 1021.987
1911.470, 1022.614
1913.399, 1019.224
1915.327, 1020.287
1917.256, 1030.413
1919.184, 1033.923
1921.113, 1021.444
1923.041, 1014.882
1924.970, 1024.508
1926.898, 1035.795
1928.827, 1040.536
1930.755, 1040.001
1932.684, 1034.761
1934.612, 1025.450
1936.541, 1019.470
1938.469, 1017.526
1940.397, 1016.925
1942.326, 1018.550
1944.254, 1018.687
1946.183, 1014.106
1948.111, 1009.402
1950.040, 1007.909
1951.968, 1008.516
1953.897, 1009.917
1955.825, 1011.927
1957.754, 1012.025
1959.682, 1008.175
1961.611, 1009.605
1963.539, 1026.301
1965.468, 1035.677
1967.396, 1023.630
1969.324, 1011.093
1971.253, 1015.718
1973.181, 1027.250
1975.110, 1027.678
1977.038, 1017.910
1978.967, 1014.303
1980.895, 1020.051
1982.824, 1020.426
1984.752, 1008.372
1986.681, 1002.499
1988.609, 1013.859
1990.538, 1024.853
1992.466, 1024.736
1994.395, 1020.580
1996.323, 1020.907
1998.251, 1024.007
2000.180, 1023.565
2002.108, 1019.283
2004.037, 1018.874
2005.965, 1024.638
2007.894, 1029.790
2009.822, 1035.070
2011.751, 1036.309
2013.679, 1028.179
2015.608, 1018.678
2017.536, 1012.787
2019.465, 1011.599
2021.393, 1020.458
2023.322, 1039.729
2025.250, 1048.198
2027.178, 1041.500
2029.107, 1035.278
2031.035, 1029.565
2032.964, 1025.744
2034.892, 1022.464
2036.821, 1023.183
2038.749, 1035.226
2040.678, 1047.799
2042.606, 1047.320
2044.535, 1038.000
2046.463, 1029.983
2048.392, 1023.600
2050.320, 1022.824
2052.249, 1029.754
2054.177, 1035.624
2056.105, 1038.485
2058.034, 1040.479
2059.962, 1040.098
2061.891, 1041.477
2063.819, 1050.099
2065.748, 1060.220
2067.676, 1064.944
2069.605, 1064.309
2071.533, 1056.859
2073.462, 1040.772
2075.390, 1032.470
2077.319, 1035.655
2079.247, 1035.475
2081.176, 1025.706
2083.104, 1019.750
2085.032, 1026.143
2086.961, 1033.560
2088.889, 1035.515
2090.818, 1033.636
2092.746, 1027.339
2094.675, 1019.102
2096.603, 1017.646
2098.532, 1023.656
2100.460, 1028.069
2102.389, 1029.016
2104.317, 1032.056
2106.246, 1040.812
2108.174, 1046.441
2110.103, 1048.578
2112.031, 1045.311
2113.959, 1027.517
2115.888, 1011.227
2117.816, 1016.484
2119.745, 1032.937
2121.673, 1038.102
2123.602, 1033.622
2125.530, 1030.012
2127.459, 1027.710
2129.387, 1026.472
2131.316, 1024.687
2133.244, 1027.869
2135.173, 1047.050
2137.101, 1057.543
2139.030, 1041.730
2140.958, 1024.120
2142.886, 1022.543
2144.815, 1028.625
2146.743, 1035.275
2148.672, 1039.892
2150.600, 1028.900
2152.529, 1003.770
2154.457, 995.5235
2156.386, 1007.268
2158.314, 1023.335
2160.243, 1045.270
2162.171, 1060.629
2164.100, 1064.973
2166.028, 1063.438
2167.957, 1053.956
2169.885, 1043.888
2171.813, 1036.815
2173.742, 1033.724
2175.670, 1039.534
2177.599, 1049.882
2179.527, 1048.312
2181.456, 1035.001
2183.384, 1032.416
2185.313, 1042.583
2187.241, 1049.171
2189.170, 1049.233
2191.098, 1049.965
2193.027, 1058.722
2194.955, 1058.201
2196.884, 1023.938
2198.812, 999.6303
2200.740, 1025.350
2202.669, 1062.370
2204.597, 1070.743
2206.526, 1060.098
2208.454, 1046.241
2210.383, 1030.610
2212.311, 1026.894
2214.240, 1035.587
2216.168, 1041.122
2218.097, 1042.249
2220.025, 1042.042
2221.954, 1040.666
2223.882, 1038.908
2225.811, 1035.483
2227.739, 1033.840
2229.667, 1038.332
2231.596, 1041.606
2233.524, 1034.254
2235.453, 1026.714
2237.381, 1034.768
2239.310, 1050.148
2241.238, 1053.661
2243.167, 1047.471
2245.095, 1044.252
2247.024, 1044.142
2248.952, 1044.060
2250.881, 1043.057
2252.809, 1047.508
2254.738, 1065.042
2256.666, 1073.055
2258.594, 1059.352
2260.523, 1046.275
2262.451, 1040.211
2264.380, 1037.795
2266.308, 1040.940
2268.237, 1043.127
2270.165, 1035.345
2272.094, 1025.060
2274.022, 1022.570
2275.951, 1026.767
2277.879, 1039.535
2279.808, 1058.242
2281.736, 1056.820
2283.665, 1029.108
2285.593, 1014.233
2287.521, 1019.786
2289.450, 1025.385
2291.378, 1030.177
2293.307, 1036.555
2295.235, 1048.307
2297.164, 1055.666
2299.092, 1050.393
2301.021, 1026.116
2302.949, 1052.143
2304.878, 1066.882
2306.806, 1070.938
2308.735, 1032.472
2310.663, 1048.790
2312.592, 1043.077
2314.520, 1036.409
2316.448, 1060.283
2318.377, 1027.724
2320.305, 1051.004
2322.234, 1051.918
2324.162, 1062.990
2326.091, 1051.896
2328.019, 1047.577
2329.948, 1065.324
2331.876, 1070.769
2333.805, 1056.912
2335.733, 1068.309
2337.662, 1034.436
2339.590, 1040.187
2341.519, 1063.001
2343.447, 1049.987
2345.375, 1061.517
2347.304, 1063.625
2349.232, 1023.102
2351.161, 1056.569
2353.089, 1057.961
2355.018, 1026.419
2356.946, 1057.188
2358.875, 1030.070
2360.803, 1029.802
2362.732, 1031.133
2364.660, 1039.326
2366.589, 1046.424
2368.517, 1052.574
2370.446, 1056.103
2372.374, 1057.631
2374.302, 1052.539
2376.231, 1032.900
2378.159, 1021.595
2380.088, 1032.178
2382.016, 1042.024
2383.945, 1041.413
2385.873, 1040.061
2387.802, 1042.755
2389.730, 1047.031
2391.659, 1052.732
2393.587, 1057.546
2395.516, 1059.270
2397.444, 1058.648
2399.373, 1055.016
2401.301, 1050.559
2403.229, 1050.863
2405.158, 1055.147
2407.086, 1061.656
2409.015, 1070.472
2410.943, 1059.837
2412.872, 1028.719
2414.800, 1024.011
2416.729, 1052.616
2418.657, 1064.212
2420.586, 1044.558
2422.514, 1035.711
2424.443, 1058.061
2426.371, 1068.270
2428.300, 1046.053
2430.228, 1034.397
2432.156, 1054.229
2434.085, 1066.243
2436.013, 1046.957
2437.942, 1029.797
2439.870, 1034.530
2441.799, 1047.003
2443.727, 1067.583
2445.656, 1080.237
2447.584, 1057.566
2449.513, 1028.033
2451.441, 1035.000
2453.370, 1057.217
2455.298, 1051.425
2457.227, 1032.662
2459.155, 1041.950
2461.083, 1069.672
2463.012, 1074.001
2464.940, 1056.804
2466.869, 1045.035
2468.797, 1038.888
2470.726, 1036.800
2472.654, 1039.240
2474.583, 1041.575
2476.511, 1044.088
2478.440, 1039.889
2480.368, 1023.904
2482.297, 1017.809
2484.225, 1034.552
2486.154, 1044.890
2488.082, 1040.638
2490.010, 1037.867
2491.939, 1038.021
2493.867, 1042.464
2495.796, 1057.772
2497.724, 1065.932
2499.653, 1054.372
2501.581, 1039.604
2503.510, 1023.053
2505.438, 1015.036
2507.367, 1030.829
2509.295, 1047.921
2511.224, 1047.336
2513.152, 1040.903
2515.081, 1037.102
2517.009, 1035.736
2518.938, 1040.014
2520.866, 1043.973
2522.794, 1034.185
2524.723, 1019.923
2526.651, 1023.513
2528.580, 1037.006
2530.508, 1035.594
2532.437, 1025.005
2534.365, 1024.563
2536.294, 1032.282
2538.222, 1035.244
2540.151, 1034.024
2542.079, 1042.437
2544.008, 1062.081
2545.936, 1062.468
2547.865, 1042.718
2549.793, 1033.855
2551.721, 1037.868
2553.650, 1043.642
2555.578, 1051.855
2557.507, 1052.487
2559.435, 1037.498
2561.364, 1030.293
2563.292, 1032.751
2565.221, 1038.288
2567.149, 1049.072
2569.078, 1050.953
2571.006, 1036.069
2572.935, 1026.608
2574.863, 1031.378
2576.792, 1036.359
2578.720, 1041.051
2580.648, 1041.758
2582.577, 1033.914
2584.505, 1029.962
2586.434, 1036.362
2588.362, 1042.680
2590.291, 1045.772
2592.219, 1045.924
2594.148, 1040.860
2596.076, 1036.254
2598.005, 1037.439
2599.933, 1036.106
2601.862, 1022.581
2603.790, 1013.380
2605.719, 1023.862
2607.647, 1035.979
2609.575, 1039.368
2611.504, 1036.573
2613.432, 1022.292
2615.361, 1010.941
2617.289, 1017.310
2619.218, 1029.700
2621.146, 1043.082
2623.075, 1052.199
2625.003, 1048.593
2626.932, 1040.839
2628.860, 1037.032
2630.789, 1036.658
2632.717, 1041.449
2634.646, 1047.180
2636.574, 1049.977
2638.502, 1048.894
2640.431, 1037.779
2642.359, 1025.428
2644.288, 1030.420
2646.216, 1041.849
2648.145, 1037.691
2650.073, 1026.446
2652.002, 1021.124
2653.930, 1022.995
2655.859, 1042.231
2657.787, 1066.553
2659.716, 1064.785
2661.644, 1046.480
2663.573, 1033.291
2665.501, 1025.506
2667.429, 1027.469
2669.358, 1034.165
2671.286, 1030.114
2673.215, 1020.644
2675.143, 1025.331
2677.072, 1038.333
2679.000, 1035.905
2680.929, 1024.271
2682.857, 1026.039
2684.786, 1035.966
2686.714, 1033.730
2688.643, 1023.696
2690.571, 1024.448
2692.500, 1033.140
2694.428, 1037.914
2696.356, 1038.631
2698.285, 1030.569
2700.213, 1018.531
2702.142, 1023.766
2704.070, 1041.156
2705.999, 1047.779
2707.927, 1045.183
2709.856, 1038.552
2711.784, 1030.357
2713.713, 1033.032
2715.641, 1041.969
2717.570, 1035.387
2719.498, 1018.537
2721.427, 1016.554
2723.355, 1025.864
2725.283, 1029.205
2727.212, 1028.865
2729.140, 1033.707
2731.069, 1041.390
2732.997, 1042.705
2734.926, 1039.702
2736.854, 1040.423
2738.783, 1043.671
2740.711, 1047.487
2742.640, 1049.136
2744.568, 1036.805
2746.497, 1018.027
2748.425, 1016.593
2750.354, 1025.995
2752.282, 1028.087
2754.210, 1025.097
2756.139, 1022.836
2758.067, 1019.683
2759.996, 1004.606
2761.924, 990.4530
2763.853, 1017.582
2765.781, 1059.346
2767.710, 1053.297
2769.638, 1026.748
2771.567, 1027.321
2773.495, 1039.242
2775.424, 1035.609
2777.352, 1027.060
2779.281, 1031.989
2781.209, 1041.882
2783.137, 1045.829
2785.066, 1046.088
2786.994, 1045.533
2788.923, 1042.428
2790.851, 1030.606
2792.780, 1019.344
2794.708, 1022.138
2796.637, 1027.001
2798.565, 1021.193
2800.494, 1014.651
2802.422, 1015.832
2804.351, 1020.639
2806.279, 1026.918
2808.208, 1033.925
2810.136, 1042.992
2812.064, 1049.852
2813.993, 1054.228
2815.921, 1051.917
2817.850, 1033.343
2819.778, 1017.698
2821.707, 1013.084
2823.635, 1015.279
2825.564, 1028.672
2827.492, 1037.922
2829.421, 1034.021
2831.349, 1029.055
2833.278, 1022.823
2835.206, 1024.776
2837.135, 1043.510
2839.063, 1054.134
2840.991, 1039.174
2842.920, 1033.638
2844.848, 1052.227
2846.777, 1059.844
2848.705, 1050.416
2850.634, 1039.494
2852.562, 1027.708
2854.491, 1022.853
2856.419, 1030.991
2858.348, 1031.523
2860.276, 1023.021
2862.205, 1017.981
2864.133, 1017.389
2866.062, 1019.016
2867.990, 1022.946
2869.918, 1026.275
2871.847, 1028.984
2873.775, 1027.459
2875.704, 1023.057
2877.632, 1026.125
2879.561, 1034.649
2881.489, 1037.987
2883.418, 1037.202
2885.346, 1035.438
2887.275, 1033.303
2889.203, 1031.374
2891.132, 1030.827
2893.060, 1036.000
2894.989, 1042.144
2896.917, 1040.243
2898.845, 1036.589
2900.774, 1037.180
2902.702, 1041.046
2904.631, 1052.645
2906.559, 1060.320
2908.488, 1050.166
2910.416, 1038.900
2912.345, 1033.699
2914.273, 1033.972
2916.202, 1049.386
2918.130, 1054.245
2920.059, 1021.945
2921.987, 1006.949
2923.916, 1028.162
2925.844, 1049.048
2927.772, 1061.575
2929.701, 1067.540
2931.629, 1063.353
2933.558, 1065.231
2935.486, 1076.588
2937.415, 1072.249
2939.343, 1046.891
2941.272, 1027.707
2943.200, 1014.976
2945.129, 1018.703
2947.057, 1036.799
2948.986, 1053.547
2950.914, 1066.102
2952.843, 1060.475
2954.771, 1044.214
2956.699, 1042.619
2958.628, 1048.071
2960.556, 1042.227
2962.485, 1035.427
2964.413, 1044.990
2966.342, 1057.707
2968.270, 1056.350
2970.199, 1054.653
2972.127, 1066.336
2974.056, 1076.081
2975.984, 1076.650
2977.913, 1069.143
2979.841, 1043.737
2981.770, 1030.406
2983.698, 1044.726
2985.626, 1050.804
2987.555, 1025.293
2989.483, 1018.276
2991.412, 1037.232
2993.340, 1058.515
2995.269, 1081.414
2997.197, 1083.080
2999.126, 1059.788
3001.054, 1051.333
3002.983, 1056.051
3004.911, 1049.535
3006.840, 1037.824
3008.768, 1045.908
3010.697, 1062.639
3012.625, 1061.045
3014.553, 1051.719
3016.482, 1048.616
3018.410, 1049.651
3020.339, 1057.878
3022.267, 1062.847
3024.196, 1048.370
3026.124, 1041.171
3028.053, 1062.251
3029.981, 1074.403
3031.910, 1052.533
3033.838, 1038.242
3035.767, 1041.469
3037.695, 1044.899
3039.624, 1046.107
3041.552, 1050.459
3043.480, 1060.424
3045.409, 1060.773
3047.337, 1052.144
3049.266, 1053.629
3051.194, 1062.082
3053.123, 1062.500
3055.051, 1057.415
3056.980, 1049.518
3058.908, 1044.227
3060.837, 1053.082
3062.765, 1064.832
3064.694, 1069.808
3066.622, 1071.673
3068.551, 1071.103
3070.479, 1071.321
3072.407, 1075.575
3074.336, 1076.552
3076.264, 1071.333
3078.193, 1062.437
3080.121, 1048.302
3082.050, 1040.961
3083.978, 1041.953
3085.907, 1051.104
3087.835, 1068.206
3089.764, 1069.577
3091.692, 1060.592
3093.621, 1063.594
3095.549, 1073.580
3097.478, 1087.000
3099.406, 1093.828
3101.334, 1070.713
3103.263, 1046.522
3105.191, 1043.531
3107.120, 1047.728
3109.048, 1054.880
3110.977, 1061.370
3112.905, 1067.120
3114.834, 1068.983
3116.762, 1061.299
3118.691, 1063.893
3120.619, 1078.972
3122.548, 1091.322
3124.476, 1099.528
3126.405, 1096.493
3128.333, 1083.987
3130.261, 1058.814
3132.190, 1037.357
3134.118, 1062.046
3136.047, 1096.267
3137.975, 1098.920
3139.904, 1096.453
3141.832, 1111.000
3143.761, 1118.833
3145.689, 1105.656
3147.618, 1092.874
3149.546, 1083.739
3151.475, 1081.045
3153.403, 1085.558
3155.332, 1088.689
3157.260, 1089.749
3159.188, 1094.741
3161.117, 1101.055
3163.045, 1091.888
3164.974, 1077.177
3166.902, 1072.795
3168.831, 1075.086
3170.759, 1083.000
3172.688, 1091.516
3174.616, 1097.668
3176.545, 1103.550
3178.473, 1111.295
3180.402, 1116.552
3182.330, 1119.339
3184.259, 1115.013
3186.187, 1101.202
3188.115, 1095.651
3190.044, 1098.111
3191.972, 1109.006
3193.901, 1120.808
3195.829, 1112.953
3197.758, 1098.561
3199.686, 1093.691
3201.615, 1093.725
3203.543, 1095.514
3205.472, 1100.443
3207.400, 1113.929
3209.329, 1120.972
3211.257, 1118.551
3213.186, 1112.232
3215.114, 1100.552
3217.042, 1107.237
3218.971, 1129.597
3220.899, 1136.350
3222.828, 1131.303
3224.756, 1118.224
3226.685, 1106.408
3228.613, 1109.583
3230.542, 1117.198
3232.470, 1126.678
3234.399, 1131.165
3236.327, 1123.686
3238.256, 1118.883
3240.184, 1117.973
3242.113, 1125.153
3244.041, 1141.718
3245.969, 1140.166
3247.898, 1125.879
3249.826, 1122.957
3251.755, 1126.970
3253.683, 1134.743
3255.612, 1140.605
3257.540, 1136.748
3259.469, 1133.854
3261.397, 1140.135
3263.326, 1141.550
3265.254, 1132.040
3267.183, 1132.700
3269.111, 1145.555
3271.040, 1151.087
3272.968, 1150.252
3274.896, 1157.698
3276.825, 1162.859
3278.753, 1136.409
3280.682, 1111.508
3282.610, 1129.334
3284.539, 1146.368
3286.467, 1140.168
3288.396, 1137.853
3290.324, 1158.756
3292.253, 1152.767
3294.181, 1118.812
3296.110, 1117.156
3298.038, 1140.247
3299.967, 1139.567
3301.895, 1128.800
3303.823, 1133.741
3305.752, 1139.982
3307.680, 1136.068
3309.609, 1128.711
3311.537, 1116.734
3313.466, 1114.470
3315.394, 1127.572
3317.323, 1139.569
3319.251, 1149.620
3321.180, 1153.753
3323.108, 1151.938
3325.037, 1142.086
3326.965, 1130.412
3328.894, 1124.239
3330.822, 1121.132
3332.750, 1117.259
3334.679, 1122.325
3336.607, 1148.258
3338.536, 1144.315
3340.464, 1104.748
3342.393, 1094.109
3344.321, 1107.032
3346.250, 1104.780
3348.178, 1096.164
3350.107, 1091.032
3352.035, 1091.718
3353.964, 1104.996
3355.892, 1116.402
3357.821, 1123.114
3359.749, 1121.018
3361.677, 1106.569
3363.606, 1102.014
3365.534, 1105.281
3367.463, 1100.254
3369.391, 1096.236
3371.320, 1121.958
3373.248, 1142.703
3375.177, 1124.333
3377.105, 1106.266
3379.034, 1103.299
3380.962, 1105.598
3382.891, 1112.898
3384.819, 1112.148
3386.748, 1104.334
3388.676, 1096.418
3390.604, 1092.228
3392.533, 1101.959
3394.461, 1111.292
3396.390, 1104.648
3398.318, 1101.856
3400.247, 1112.495
3402.175, 1112.053
3404.104, 1094.829
3406.032, 1091.565
3407.961, 1098.211
3409.889, 1098.211
3411.818, 1095.251
3413.746, 1095.669
3415.675, 1094.441
3417.603, 1087.916
3419.531, 1079.653
3421.460, 1068.203
3423.388, 1067.606
3425.317, 1078.169
3427.245, 1081.307
3429.174, 1079.485
3431.102, 1078.789
3433.031, 1079.997
3434.959, 1088.111
3436.888, 1090.087
3438.816, 1076.473
3440.745, 1072.606
3442.673, 1085.841
3444.602, 1091.683
3446.530, 1090.796
3448.458, 1087.611
3450.387, 1085.376
3452.315, 1091.628
3454.244, 1096.505
3456.172, 1095.536
3458.101, 1089.131
3460.029, 1066.325
3461.958, 1071.325
3463.886, 1100.148
3465.815, 1107.283
3467.743, 1102.680
3469.672, 1106.001
3471.600, 1113.085
3473.529, 1126.990
3475.457, 1130.403
3477.385, 1110.538
3479.314, 1103.109
3481.242, 1110.571
3483.171, 1121.817
3485.099, 1132.865
3487.028, 1128.807
3488.956, 1124.382
3490.885, 1136.001
3492.813, 1146.634
3494.742, 1148.427
3496.670, 1158.030
3498.599, 1179.999
3500.527, 1179.120
3502.456, 1166.016
3504.384, 1182.448
3506.313, 1204.109
3508.241, 1206.767
3510.169, 1203.204
3512.098, 1193.322
3514.026, 1199.954
3515.955, 1230.872
3517.883, 1232.147
3519.812, 1219.431
3521.740, 1240.870
3523.669, 1270.809
3525.597, 1281.231
3527.526, 1291.448
3529.454, 1315.189
3531.383, 1319.256
3533.311, 1301.981
3535.240, 1311.707
3537.168, 1339.876
3539.096, 1373.791
3541.025, 1391.623
3542.953, 1364.214
3544.882, 1341.103
3546.810, 1341.631
3548.739, 1343.973
3550.667, 1347.551
3552.596, 1364.301
3554.524, 1383.014
3556.453, 1377.444
3558.381, 1362.603
3560.310, 1347.704
3562.238, 1327.840
3564.167, 1301.880
3566.095, 1271.855
3568.023, 1240.555
3569.952, 1232.031
3571.880, 1228.043
3573.809, 1198.662
3575.737, 1171.123
3577.666, 1162.300
3579.594, 1153.420
3581.523, 1142.099
3583.451, 1116.135
3585.380, 1086.397
3587.308, 1103.423
3589.237, 1128.678
3591.165, 1128.726
3593.094, 1118.639
3595.022, 1099.429
3596.950, 1094.403
3598.879, 1104.535
3600.807, 1105.695
3602.736, 1100.412
3604.664, 1089.120
3606.593, 1081.302
3608.521, 1085.288
3610.450, 1082.340
3612.378, 1064.465
3614.307, 1065.876
3616.235, 1079.125
3618.164, 1080.546
3620.092, 1078.393
3622.021, 1083.549
3623.949, 1081.600
3625.877, 1063.779
3627.806, 1058.279
3629.734, 1063.969
3631.663, 1056.691
3633.591, 1047.746
3635.520, 1057.811
3637.448, 1064.906
3639.377, 1055.911
3641.305, 1055.420
3643.234, 1066.617
3645.162, 1062.550
3647.091, 1050.908
3649.019, 1044.957
3650.948, 1046.989
3652.876, 1065.726
3654.804, 1066.650
3656.733, 1036.039
3658.661, 1027.391
3660.590, 1034.809
3662.518, 1038.658
3664.447, 1040.907
3666.375, 1041.079
3668.304, 1046.248
3670.232, 1065.922
3672.161, 1063.798
3674.089, 1044.900
3676.018, 1027.387
3677.946, 1018.883
3679.875, 1034.113
3681.803, 1047.314
3683.731, 1046.163
3685.660, 1048.330
3687.588, 1053.152
3689.517, 1056.382
3691.445, 1055.518
3693.374, 1043.170
3695.302, 1032.642
3697.231, 1025.901
3699.159, 1036.910
3701.088, 1060.617
3703.016, 1047.954
3704.945, 1026.658
3706.873, 1042.034
3708.802, 1057.958
3710.730, 1062.227
3712.658, 1051.218
3714.587, 1028.987
3716.515, 1035.053
3718.444, 1051.900
3720.372, 1055.714
3722.301, 1055.778
3724.229, 1055.844
3726.158, 1052.500
3728.086, 1045.898
3730.015, 1036.029
3731.943, 1028.160
3733.872, 1033.438
3735.800, 1037.506
3737.729, 1034.415
3739.657, 1027.723
3741.585, 1019.728
3743.514, 1029.582
3745.442, 1042.581
3747.371, 1034.243
3749.299, 1033.131
3751.228, 1055.470
3753.156, 1062.290
3755.085, 1053.613
3757.013, 1033.477
3758.942, 1014.115
3760.870, 1006.741
3762.799, 1011.273
3764.727, 1032.285
3766.656, 1048.936
3768.584, 1058.863
3770.512, 1052.997
3772.441, 1043.095
3774.369, 1036.331
3776.298, 1037.387
3778.226, 1051.502
3780.155, 1043.132
3782.083, 1024.288
3784.012, 1024.274
3785.940, 1032.485
3787.869, 1045.515
3789.797, 1052.078
3791.726, 1049.766
3793.654, 1056.783
3795.583, 1063.704
3797.511, 1055.731
3799.439, 1040.030
3801.368, 1015.224
3803.296, 1013.739
3805.225, 1034.721
3807.153, 1038.661
3809.082, 1038.315
3811.010, 1053.575
3812.939, 1055.615
3814.867, 1035.870
3816.796, 1028.356
3818.724, 1031.458
3820.653, 1036.084
3822.581, 1040.469
3824.510, 1045.223
3826.438, 1042.763
3828.366, 1033.054
3830.295, 1039.654
3832.223, 1050.505
3834.152, 1043.224
3836.080, 1030.672
3838.009, 1011.901
3839.937, 1014.499
3841.866, 1033.767
3843.794, 1033.103
3845.723, 1030.365
3847.651, 1048.550
3849.580, 1048.908
3851.508, 1021.591
3853.437, 1018.092
3855.365, 1028.616
3857.293, 1033.658
3859.222, 1036.041
3861.150, 1037.661
3863.079, 1031.183
3865.007, 1018.830
3866.936, 1014.205
3868.864, 1016.329
3870.793, 1032.646
3872.721, 1035.975
3874.650, 1013.276
3876.578, 1019.482
3878.507, 1035.310
3880.435, 1017.589
3882.364, 999.6931
3884.292, 995.0970
3886.220, 1005.091
3888.149, 1025.508
3890.077, 1032.718
3892.006, 1032.352
3893.934, 1026.174
3895.863, 1021.118
3897.791, 1018.652
3899.720, 1025.351
3901.648, 1033.051
3903.577, 1025.025
3905.505, 1018.027
3907.434, 1020.137
3909.362, 1015.025
3911.291, 1004.582
3913.219, 1006.608
3915.147, 1009.370
3917.076, 998.7386
3919.004, 1005.219
3920.933, 1027.345
3922.861, 1018.875
3924.790, 1001.353
3926.718, 996.5876
3928.647, 1001.092
3930.575, 1019.786
3932.504, 1017.748
3934.432, 1004.668
3936.361, 1012.636
3938.289, 1021.357
3940.218, 1016.082
3942.146, 1007.151
3944.074, 998.9728
3946.003, 989.7816
3947.931, 983.9164
3949.860, 989.1401
3951.788, 990.9028
3953.717, 983.8238
3955.645, 993.5751
3957.574, 1002.816
3959.502, 997.7413
3961.431, 997.2996
3963.359, 994.2229
3965.288, 994.0308
3967.216, 996.0907
3969.145, 995.6869
3971.073, 994.7547
3973.001, 998.7922
3974.930, 990.9166
3976.858, 981.7709
3978.787, 988.3252
3980.715, 986.9307
3982.644, 978.5869
3984.572, 980.5220
3986.501, 991.3920
3988.429, 977.0707
3990.358, 969.4596
3992.286, 990.2022
3994.215, 990.8530
3996.143, 972.9044
3998.072, 976.7551
4000.000, 985.9211
4001.928, 973.4076
4003.857, 976.3546
4005.785, 984.8358
4007.714, 985.7189
4009.642, 983.2337
4011.571, 973.7233
4013.499, 969.4227
4015.428, 966.0129
4017.356, 962.4221
4019.285, 960.9750
4021.213, 969.0184
4023.142, 967.5888
4025.070, 954.4799
4026.999, 956.2969
4028.927, 972.0170
4030.855, 977.3043
4032.784, 977.7200
4034.712, 986.4062
4036.641, 990.9757
4038.569, 991.3185
4040.498, 982.5856
4042.426, 980.3277
4044.355, 988.1011
4046.283, 989.7971
4048.212, 985.2709
4050.140, 964.6268
4052.069, 956.5002
4053.997, 970.8610
4055.926, 965.2698
4057.854, 961.3953
4059.782, 962.1534
4061.711, 965.2966
4063.639, 972.5314
4065.568, 970.6647
4067.496, 967.9245
4069.425, 967.4795
4071.353, 958.3347
4073.282, 947.8555
4075.210, 964.6042
4077.139, 978.2872
4079.067, 967.6076
4080.996, 962.0031
4082.924, 960.3239
4084.853, 962.0332
4086.781, 966.4704
4088.709, 969.3678
4090.638, 965.5820
4092.566, 956.1119
4094.495, 957.6577
4096.423, 963.7546
4098.352, 961.7896
4100.280, 968.5159
4102.208, 981.4471
4104.137, 980.2834
4106.065, 977.0682
4107.994, 978.9803
4109.922, 974.0400
4111.851, 962.9272
4113.779, 964.5892
4115.708, 970.8851
4117.636, 976.5784
4119.565, 977.6210
4121.493, 974.3926
4123.422, 979.4748
4125.350, 982.9999
4127.279, 967.4238
4129.207, 967.7214
4131.136, 986.1953
4133.064, 978.9727
4134.993, 966.4688
4136.921, 967.7502
4138.850, 969.0673
4140.778, 971.7287
4142.707, 972.7280
4144.635, 970.3722
4146.563, 964.6279
4148.492, 965.0820
4150.420, 971.8978
4152.349, 975.3209
4154.277, 977.5073
4156.206, 975.5066
4158.134, 965.9297
4160.063, 955.5476
4161.991, 971.2501
4163.919, 985.5339
4165.848, 967.2933
4167.776, 959.8207
4169.705, 966.0421
4171.633, 964.8949
4173.562, 963.5441
4175.490, 960.9341
4177.419, 973.7397
4179.347, 1011.279
4181.276, 1016.727
4183.204, 1002.910
4185.133, 980.0210
4187.061, 966.0927
4188.990, 973.1129
4190.918, 977.2502
4192.847, 978.2571
4194.775, 989.3364
4196.704, 995.5915
4198.632, 988.6922
4200.561, 994.1973
4202.489, 1001.187
4204.417, 988.7457
4206.346, 985.6409
4208.274, 995.3054
4210.203, 995.2075
4212.131, 996.2571
4214.060, 1014.889
4215.988, 1023.902
4217.917, 1017.283
4219.845, 1007.719
4221.773, 997.6816
4223.702, 983.5220
4225.630, 985.1509
4227.559, 1001.804
4229.487, 1007.650
4231.416, 1004.726
4233.344, 993.8937
4235.273, 991.6055
4237.201, 996.7675
4239.130, 1004.629
4241.058, 1011.550
4242.987, 1011.486
4244.915, 1027.543
4246.844, 1048.514
4248.772, 1036.432
4250.701, 1023.631
4252.629, 1028.928
4254.558, 1020.206
4256.486, 1008.014
4258.415, 1015.542
4260.343, 1025.349
4262.271, 1032.484
4264.200, 1033.478
4266.128, 1031.365
4268.057, 1028.963
4269.985, 1028.917
4271.914, 1031.913
4273.842, 1041.286
4275.771, 1048.117
4277.699, 1034.083
4279.627, 1045.881
4281.556, 1080.173
4283.484, 1074.460
4285.413, 1062.130
4287.341, 1067.634
4289.270, 1071.707
4291.198, 1071.479
4293.127, 1055.774
4295.055, 1044.730
4296.984, 1049.569
4298.912, 1047.542
4300.841, 1048.672
4302.769, 1083.236
4304.698, 1099.558
4306.626, 1082.809
4308.555, 1088.674
4310.483, 1095.887
4312.412, 1075.007
4314.340, 1076.905
4316.269, 1102.243
4318.197, 1103.665
4320.125, 1104.413
4322.054, 1122.141
4323.982, 1108.464
4325.911, 1079.655
4327.839, 1089.272
4329.768, 1097.969
4331.696, 1093.029
4333.625, 1092.648
4335.553, 1094.412
4337.481, 1093.798
4339.410, 1096.531
4341.338, 1102.750
4343.267, 1108.715
4345.195, 1110.516
4347.124, 1104.305
4349.052, 1101.908
4350.981, 1104.658
4352.909, 1119.015
4354.838, 1122.059
4356.766, 1105.963
4358.695, 1102.971
4360.623, 1106.262
4362.552, 1108.304
4364.480, 1101.956
4366.409, 1089.291
4368.337, 1095.581
4370.266, 1101.298
4372.194, 1084.633
4374.123, 1094.801
4376.051, 1120.031
4377.979, 1132.632
4379.908, 1135.734
4381.836, 1128.825
4383.765, 1129.111
4385.693, 1134.309
4387.622, 1146.295
4389.550, 1144.429
4391.479, 1132.132
4393.407, 1139.076
4395.335, 1139.813
4397.264, 1122.890
4399.192, 1116.123
4401.121, 1116.641
4403.049, 1119.547
4404.978, 1123.450
4406.906, 1128.480
4408.835, 1138.560
4410.763, 1148.267
4412.692, 1156.114
4414.620, 1148.661
4416.549, 1135.109
4418.477, 1134.336
4420.406, 1134.215
4422.334, 1132.065
4424.263, 1139.021
4426.191, 1142.357
4428.120, 1124.976
4430.048, 1133.644
4431.977, 1154.168
4433.905, 1137.953
4435.833, 1130.910
4437.762, 1144.737
4439.690, 1131.536
4441.619, 1123.993
4443.547, 1156.592
4445.476, 1151.503
4447.404, 1122.969
4449.333, 1127.999
4451.261, 1137.676
4453.189, 1143.006
4455.118, 1144.074
4457.046, 1142.364
4458.975, 1133.429
4460.903, 1148.065
4462.832, 1171.860
4464.760, 1150.226
4466.689, 1137.332
4468.617, 1149.696
4470.546, 1146.753
4472.474, 1145.730
4474.403, 1164.179
4476.331, 1158.165
4478.260, 1137.204
4480.188, 1130.251
4482.117, 1127.187
4484.045, 1126.132
4485.974, 1141.564
4487.902, 1153.621
4489.831, 1140.947
4491.759, 1139.496
4493.688, 1148.780
4495.616, 1176.565
4497.544, 1180.489
4499.473, 1155.891
4501.401, 1147.216
4503.330, 1139.167
4505.258, 1122.202
4507.187, 1145.336
4509.115, 1175.512
4511.043, 1161.709
4512.972, 1144.996
4514.900, 1135.037
4516.829, 1152.414
4518.757, 1155.526
4520.686, 1119.120
4522.614, 1138.513
4524.543, 1166.955
4526.471, 1160.426
4528.400, 1147.437
4530.328, 1137.572
4532.257, 1149.968
4534.185, 1160.132
4536.114, 1163.206
4538.042, 1170.608
4539.971, 1170.282
4541.899, 1149.391
4543.828, 1141.780
4545.756, 1143.364
4547.685, 1149.939
4549.613, 1155.943
4551.542, 1159.207
4553.470, 1152.548
4555.398, 1144.053
4557.327, 1136.882
4559.255, 1139.990
4561.184, 1147.503
4563.112, 1158.192
4565.041, 1152.969
4566.969, 1141.590
4568.897, 1144.204
4570.826, 1138.859
4572.754, 1128.084
4574.683, 1153.300
4576.611, 1155.345
4578.540, 1117.770
4580.468, 1117.661
4582.397, 1132.253
4584.325, 1143.017
4586.254, 1155.913
4588.182, 1161.812
4590.111, 1131.995
4592.039, 1130.637
4593.968, 1154.584
4595.896, 1141.318
4597.825, 1135.664
4599.753, 1149.798
4601.682, 1154.602
4603.610, 1154.565
4605.539, 1152.103
4607.467, 1156.000
4609.396, 1159.794
4611.324, 1152.634
4613.252, 1144.974
4615.181, 1140.734
4617.109, 1154.248
4619.038, 1154.209
4620.966, 1137.588
4622.895, 1136.147
4624.823, 1138.553
4626.751, 1139.483
4628.680, 1128.028
4630.608, 1122.400
4632.537, 1144.778
4634.465, 1139.731
4636.394, 1129.141
4638.322, 1177.074
4640.251, 1175.201
4642.179, 1130.185
4644.108, 1135.125
4646.036, 1145.314
4647.965, 1146.340
4649.893, 1127.535
4651.822, 1122.609
4653.750, 1149.622
4655.679, 1148.963
4657.607, 1143.563
4659.536, 1169.116
4661.464, 1156.623
4663.393, 1129.161
4665.321, 1137.322
4667.250, 1146.742
4669.178, 1148.328
4671.106, 1116.776
4673.035, 1113.757
4674.963, 1146.492
4676.892, 1142.869
4678.820, 1128.947
4680.749, 1115.647
4682.677, 1126.048
4684.605, 1138.981
4686.534, 1140.077
4688.462, 1127.278
4690.391, 1117.873
4692.319, 1138.965
4694.248, 1146.389
4696.176, 1144.236
4698.105, 1148.261
4700.033, 1155.755
4701.962, 1165.271
4703.890, 1182.452
4705.819, 1171.135
4707.747, 1129.218
4709.676, 1145.816
4711.604, 1164.713
4713.533, 1161.281
4715.461, 1146.850
4717.390, 1133.432
4719.318, 1127.321
4721.247, 1145.638
4723.175, 1160.777
4725.104, 1132.371
4727.032, 1142.585
4728.960, 1169.430
4730.889, 1175.583
4732.817, 1170.586
4734.746, 1160.918
4736.674, 1157.972
4738.603, 1149.954
4740.531, 1138.736
4742.459, 1144.701
4744.388, 1142.672
4746.316, 1131.014
4748.245, 1136.536
4750.173, 1147.670
4752.102, 1159.629
4754.030, 1160.592
4755.959, 1158.881
4757.887, 1158.521
4759.816, 1143.565
4761.744, 1136.840
4763.673, 1160.892
4765.601, 1183.512
4767.530, 1185.547
4769.458, 1141.844
4771.387, 1138.241
4773.315, 1149.611
4775.244, 1125.440
4777.172, 1139.631
4779.101, 1171.533
4781.029, 1171.999
4782.958, 1169.577
4784.886, 1167.991
4786.814, 1166.812
4788.743, 1160.258
4790.671, 1150.986
4792.600, 1149.915
4794.528, 1161.672
4796.457, 1178.583
4798.385, 1146.634
4800.313, 1138.504
4802.242, 1167.886
4804.170, 1159.218
4806.099, 1151.466
4808.027, 1156.070
4809.956, 1135.469
4811.884, 1127.381
4813.813, 1149.078
4815.741, 1146.194
4817.670, 1149.556
4819.598, 1174.627
4821.527, 1160.477
4823.455, 1144.385
4825.384, 1152.213
4827.312, 1156.587
4829.241, 1164.649
4831.169, 1182.917
4833.098, 1182.370
4835.026, 1173.194
4836.955, 1161.678
4838.883, 1170.715
4840.812, 1176.345
4842.740, 1152.541
4844.668, 1158.047
4846.597, 1170.310
4848.525, 1156.143
4850.454, 1156.155
4852.382, 1162.508
4854.311, 1164.548
4856.239, 1157.969
4858.167, 1152.297
4860.096, 1165.662
4862.024, 1157.174
4863.953, 1144.452
4865.881, 1158.089
4867.810, 1162.941
4869.738, 1160.368
4871.667, 1156.432
4873.595, 1161.487
4875.524, 1163.902
4877.452, 1137.784
4879.381, 1141.881
4881.309, 1159.566
4883.238, 1148.727
4885.166, 1146.661
4887.095, 1153.096
4889.023, 1165.105
4890.952, 1171.553
4892.880, 1165.382
4894.809, 1124.776
4896.737, 1135.838
4898.666, 1166.046
4900.594, 1141.841
4902.522, 1137.533
4904.451, 1151.297
4906.379, 1173.216
4908.308, 1165.424
4910.236, 1145.146
4912.165, 1140.332
4914.093, 1156.272
4916.021, 1171.709
4917.950, 1150.979
4919.878, 1159.008
4921.807, 1175.708
4923.735, 1156.864
4925.664, 1158.296
4927.592, 1166.008
4929.521, 1156.430
4931.449, 1159.444
4933.378, 1164.339
4935.306, 1154.833
4937.235, 1148.757
4939.163, 1146.843
4941.092, 1150.996
4943.020, 1138.867
4944.949, 1137.114
4946.877, 1171.919
4948.806, 1185.698
4950.734, 1180.245
4952.663, 1149.673
4954.591, 1181.780
4956.520, 1202.844
4958.448, 1164.694
4960.376, 1156.791
4962.305, 1168.361
4964.233, 1190.452
4966.162, 1163.882
4968.090, 1147.598
4970.019, 1171.419
4971.947, 1156.888
4973.875, 1151.536
4975.804, 1171.297
4977.732, 1196.187
4979.661, 1194.403
4981.589, 1163.398
4983.518, 1179.712
4985.446, 1174.903
4987.375, 1146.372
4989.303, 1169.657
4991.232, 1178.730
4993.160, 1166.055
4995.089, 1149.526
4997.017, 1146.975
4998.946, 1156.554
5000.874, 1170.197
5002.803, 1174.876
5004.731, 1170.525
5006.660, 1151.508
5008.588, 1169.273
5010.517, 1189.129
5012.445, 1157.373
5014.374, 1165.384
5016.302, 1181.311
5018.230, 1169.132
5020.159, 1169.062
5022.087, 1174.130
5024.016, 1178.316
5025.944, 1174.573
5027.873, 1178.184
5029.801, 1193.365
5031.729, 1185.521
5033.658, 1167.560
5035.586, 1149.811
5037.515, 1173.675
5039.443, 1182.930
5041.372, 1172.115
5043.300, 1184.408
5045.229, 1178.009
5047.157, 1161.323
5049.086, 1172.955
5051.014, 1176.083
5052.943, 1169.563
5054.871, 1151.835
5056.800, 1163.616
5058.728, 1176.010
5060.657, 1157.812
5062.585, 1167.164
5064.514, 1182.865
5066.442, 1187.902
5068.371, 1193.050
5070.299, 1184.319
5072.228, 1160.318
5074.156, 1179.520
5076.084, 1184.207
5078.013, 1171.258
5079.941, 1196.490
5081.870, 1206.434
5083.798, 1195.868
5085.727, 1168.463
5087.655, 1168.892
5089.583, 1183.057
5091.512, 1187.094
5093.440, 1184.964
5095.369, 1183.728
5097.297, 1189.266
5099.226, 1197.227
5101.154, 1194.835
5103.083, 1178.891
5105.011, 1190.358
5106.940, 1190.721
5108.868, 1177.619
5110.797, 1188.403
5112.725, 1200.640
5114.654, 1207.558
5116.582, 1205.896
5118.511, 1187.445
5120.439, 1179.801
5122.368, 1218.218
5124.296, 1177.368
5126.225, 1143.374
5128.153, 1182.632
5130.082, 1185.797
5132.010, 1183.993
5133.938, 1187.133
5135.867, 1168.736
5137.795, 1163.940
5139.724, 1177.386
5141.652, 1213.451
5143.581, 1212.257
5145.509, 1188.932
5147.438, 1165.844
5149.366, 1160.861
5151.294, 1161.568
5153.223, 1160.564
5155.151, 1191.124
5157.080, 1206.483
5159.008, 1194.197
5160.937, 1186.076
5162.865, 1186.989
5164.794, 1193.207
5166.722, 1193.137
5168.651, 1213.355
5170.579, 1225.272
5172.508, 1195.250
5174.436, 1205.751
5176.365, 1213.019
5178.293, 1191.048
5180.222, 1179.014
5182.150, 1182.220
5184.079, 1192.475
5186.007, 1175.381
5187.936, 1182.902
5189.864, 1200.810
5191.792, 1200.646
5193.721, 1180.589
5195.649, 1166.195
5197.578, 1174.421
5199.506, 1197.377
5201.435, 1226.577
5203.363, 1248.641
5205.292, 1216.771
5207.220, 1194.271
5209.148, 1185.675
5211.077, 1180.754
5213.005, 1190.187
5214.934, 1205.980
5216.862, 1222.073
5218.791, 1226.053
5220.719, 1208.704
5222.648, 1178.102
5224.576, 1166.870
5226.505, 1187.621
5228.433, 1213.648
5230.362, 1196.549
5232.290, 1202.097
5234.219, 1213.896
5236.147, 1217.921
5238.076, 1184.649
5240.004, 1183.487
5241.933, 1212.981
5243.861, 1202.720
5245.790, 1197.646
5247.718, 1201.122
5249.646, 1213.194
5251.575, 1202.324
5253.503, 1196.521
5255.432, 1207.710
5257.360, 1212.805
5259.289, 1221.680
5261.217, 1229.591
5263.146, 1215.340
5265.074, 1232.543
5267.002, 1241.015
5268.931, 1199.797
5270.859, 1231.721
5272.788, 1251.256
5274.716, 1238.573
5276.645, 1232.966
5278.573, 1236.624
5280.502, 1240.897
5282.430, 1236.807
5284.359, 1205.547
5286.287, 1201.109
5288.216, 1239.638
5290.144, 1210.309
5292.073, 1209.836
5294.001, 1229.299
5295.930, 1214.256
5297.858, 1211.404
5299.787, 1220.865
5301.715, 1238.786
5303.644, 1217.316
5305.572, 1196.866
5307.500, 1189.055
5309.429, 1191.706
5311.357, 1205.709
5313.286, 1223.291
5315.214, 1237.447
5317.143, 1233.638
5319.071, 1234.322
5321.000, 1239.693
5322.928, 1217.041
5324.856, 1225.330
5326.785, 1247.152
5328.713, 1259.274
5330.642, 1239.530
5332.570, 1214.455
5334.499, 1194.924
5336.427, 1171.268
5338.356, 1203.809
5340.284, 1248.772
5342.213, 1256.916
5344.141, 1233.591
5346.070, 1207.603
5347.998, 1198.054
5349.927, 1242.880
5351.855, 1233.099
5353.784, 1206.805
5355.712, 1216.245
5357.641, 1218.698
5359.569, 1224.190
5361.498, 1233.286
5363.426, 1231.608
5365.354, 1228.607
5367.283, 1225.559
5369.211, 1222.448
5371.140, 1216.859
5373.068, 1225.440
5374.997, 1242.920
5376.925, 1243.308
5378.854, 1238.652
5380.782, 1233.792
5382.710, 1231.256
5384.639, 1251.560
5386.567, 1257.810
5388.496, 1245.919
5390.424, 1224.726
5392.353, 1244.048
5394.281, 1264.740
5396.210, 1261.628
5398.138, 1244.072
5400.067, 1244.839
5401.995, 1249.692
5403.924, 1216.518
5405.852, 1249.788
5407.781, 1262.999
5409.709, 1230.323
5411.638, 1216.948
5413.566, 1224.052
5415.495, 1241.380
5417.423, 1257.217
5419.352, 1219.480
5421.280, 1221.679
5423.208, 1261.784
5425.137, 1255.449
5427.065, 1250.826
5428.994, 1253.130
5430.922, 1260.629
5432.851, 1234.343
5434.779, 1254.989
5436.708, 1288.088
5438.636, 1266.332
5440.564, 1281.568
5442.493, 1272.261
5444.421, 1232.489
5446.350, 1232.335
5448.278, 1250.036
5450.207, 1257.924
5452.135, 1238.593
5454.064, 1231.576
5455.992, 1242.220
5457.921, 1257.170
5459.849, 1255.182
5461.778, 1251.253
5463.706, 1252.037
5465.635, 1260.609
5467.563, 1289.143
5469.492, 1272.239
5471.420, 1248.818
5473.349, 1252.577
5475.277, 1236.770
5477.206, 1251.503
5479.134, 1266.677
5481.063, 1221.445
5482.991, 1237.642
5484.919, 1262.909
5486.848, 1272.591
5488.776, 1261.740
5490.705, 1274.025
5492.633, 1281.661
5494.562, 1267.062
5496.490, 1250.697
5498.418, 1252.061
5500.347, 1259.293
5502.275, 1254.563
5504.204, 1282.129
5506.132, 1279.878
5508.061, 1256.898
5509.989, 1261.160
5511.918, 1264.804
5513.846, 1271.636
5515.775, 1281.177
5517.703, 1276.644
5519.632, 1311.018
5521.560, 1327.059
5523.489, 1289.643
5525.417, 1278.710
5527.346, 1279.083
5529.274, 1272.172
5531.203, 1243.104
5533.131, 1253.897
5535.060, 1275.587
5536.988, 1285.917
5538.917, 1264.647
5540.845, 1259.559
5542.773, 1269.281
5544.702, 1279.946
5546.630, 1252.049
5548.559, 1281.940
5550.487, 1298.250
5552.416, 1274.904
5554.344, 1286.098
5556.272, 1289.717
5558.201, 1274.907
5560.129, 1245.103
5562.058, 1256.369
5563.986, 1274.454
5565.915, 1276.302
5567.843, 1252.394
5569.772, 1263.536
5571.700, 1299.299
5573.629, 1313.753
5575.557, 1251.585
5577.486, 1279.250
5579.414, 1283.176
5581.343, 1261.949
5583.271, 1284.338
5585.200, 1275.929
5587.128, 1264.757
5589.057, 1264.114
5590.985, 1277.222
5592.914, 1290.163
5594.842, 1286.508
5596.771, 1272.536
5598.699, 1282.985
5600.627, 1305.907
5602.556, 1313.345
5604.484, 1298.170
5606.413, 1289.600
5608.341, 1275.221
5610.270, 1278.012
5612.198, 1305.160
5614.126, 1318.282
5616.055, 1330.031
5617.983, 1316.869
5619.912, 1276.111
5621.840, 1305.806
5623.769, 1306.692
5625.697, 1292.918
5627.626, 1289.034
5629.554, 1296.409
5631.483, 1310.836
5633.411, 1306.236
5635.340, 1268.103
5637.268, 1247.991
5639.197, 1272.755
5641.125, 1303.090
5643.054, 1303.033
5644.982, 1316.582
5646.911, 1286.985
5648.839, 1272.562
5650.768, 1325.349
5652.696, 1299.083
5654.625, 1281.266
5656.553, 1294.003
5658.481, 1329.031
5660.410, 1282.888
5662.338, 1300.015
5664.267, 1325.727
5666.195, 1295.598
5668.124, 1284.502
5670.052, 1287.325
5671.980, 1303.318
5673.909, 1330.399
5675.837, 1322.641
5677.766, 1303.085
5679.694, 1287.655
5681.623, 1284.287
5683.551, 1274.534
5685.480, 1311.324
5687.408, 1341.195
5689.337, 1324.726
5691.265, 1302.919
5693.194, 1289.960
5695.122, 1304.586
5697.051, 1339.523
5698.979, 1311.949
5700.908, 1304.036
5702.836, 1301.477
5704.765, 1294.657
5706.693, 1303.175
5708.622, 1328.901
5710.550, 1329.689
5712.479, 1304.130
5714.407, 1316.202
5716.335, 1310.338
5718.264, 1308.706
5720.192, 1311.832
5722.121, 1293.886
5724.049, 1311.556
5725.978, 1326.408
5727.906, 1328.947
5729.834, 1328.728
5731.763, 1321.289
5733.691, 1325.340
5735.620, 1333.171
5737.548, 1330.098
5739.477, 1332.404
5741.405, 1307.024
5743.334, 1308.621
5745.262, 1378.319
5747.191, 1343.702
5749.119, 1309.179
5751.048, 1308.668
5752.976, 1339.743
5754.905, 1336.171
5756.833, 1323.009
5758.762, 1309.010
5760.690, 1307.076
5762.619, 1355.243
5764.547, 1343.672
5766.476, 1308.730
5768.404, 1290.197
5770.333, 1321.982
5772.261, 1331.807
5774.189, 1331.008
5776.118, 1338.370
5778.046, 1362.582
5779.975, 1313.007
5781.903, 1297.389
5783.832, 1332.415
5785.760, 1391.267
5787.688, 1346.443
5789.617, 1347.952
5791.545, 1345.140
5793.474, 1322.303
5795.402, 1365.864
5797.331, 1346.526
5799.259, 1322.027
5801.188, 1319.300
5803.116, 1345.457
5805.045, 1329.436
5806.973, 1337.204
5808.902, 1355.613
5810.830, 1356.008
5812.759, 1355.103
5814.687, 1362.373
5816.616, 1373.685
5818.544, 1371.092
5820.473, 1308.992
5822.401, 1321.798
5824.330, 1347.126
5826.258, 1355.346
5828.187, 1349.258
5830.115, 1327.406
5832.043, 1355.847
5833.972, 1380.531
5835.900, 1354.440
5837.829, 1349.384
5839.757, 1334.917
5841.686, 1348.089
5843.614, 1378.918
5845.542, 1338.639
5847.471, 1370.036
5849.399, 1363.318
5851.328, 1333.653
5853.256, 1342.244
5855.185, 1305.482
5857.113, 1326.903
5859.042, 1340.808
5860.970, 1347.597
5862.899, 1325.964
5864.827, 1341.033
5866.756, 1341.394
5868.684, 1341.151
5870.613, 1361.386
5872.541, 1343.886
5874.470, 1363.797
5876.398, 1368.773
5878.327, 1380.586
5880.255, 1377.596
5882.184, 1379.181
5884.112, 1395.566
5886.041, 1403.758
5887.969, 1399.066
5889.897, 1411.310
5891.826, 1393.296
5893.754, 1394.401
5895.683, 1369.277
5897.611, 1378.647
5899.540, 1362.405
5901.468, 1337.832
5903.396, 1329.411
5905.325, 1353.899
5907.253, 1417.688
5909.182, 1401.825
5911.110, 1387.880
5913.039, 1409.510
5914.967, 1383.879
5916.896, 1378.050
5918.824, 1383.875
5920.753, 1377.707
5922.681, 1348.304
5924.610, 1378.047
5926.538, 1386.249
5928.467, 1411.375
5930.395, 1442.537
5932.324, 1406.482
5934.252, 1386.479
5936.181, 1390.930
5938.109, 1388.659
5940.038, 1363.772
5941.966, 1334.133
5943.895, 1377.847
5945.823, 1401.893
5947.751, 1393.962
5949.680, 1380.596
5951.608, 1371.706
5953.537, 1394.196
5955.465, 1402.962
5957.394, 1388.645
5959.322, 1376.748
5961.250, 1380.721
5963.179, 1390.192
5965.107, 1394.353
5967.036, 1392.606
5968.964, 1399.401
5970.893, 1415.665
5972.821, 1439.831
5974.750, 1437.363
5976.678, 1392.480
5978.607, 1379.022
5980.535, 1394.252
5982.464, 1409.287
5984.392, 1415.970
5986.321, 1417.167
5988.249, 1397.596
5990.178, 1408.066
5992.106, 1402.554
5994.035, 1386.653
5995.963, 1407.628
5997.892, 1374.454
5999.820, 1395.229
6001.749, 1407.778
6003.677, 1398.159
6005.605, 1443.411
6007.534, 1446.219
6009.462, 1438.865
6011.391, 1445.678
6013.319, 1456.857
6015.248, 1416.884
6017.176, 1424.810
6019.104, 1418.478
6021.033, 1401.837
6022.961, 1397.738
6024.890, 1421.809
6026.818, 1419.699
6028.747, 1416.376
6030.675, 1420.264
6032.604, 1427.469
6034.532, 1427.476
6036.461, 1407.754
6038.389, 1421.040
6040.318, 1442.806
6042.246, 1435.372
6044.175, 1407.178
6046.103, 1426.190
6048.032, 1434.442
6049.960, 1426.480
6051.889, 1423.936
6053.817, 1449.609
6055.746, 1461.489
6057.674, 1465.511
6059.603, 1464.001
6061.531, 1457.533
6063.459, 1455.740
6065.388, 1445.723
6067.316, 1447.774
6069.245, 1447.857
6071.173, 1434.573
6073.102, 1460.008
6075.030, 1432.798
6076.958, 1441.955
6078.887, 1440.752
6080.815, 1389.554
6082.744, 1425.118
6084.672, 1410.318
6086.601, 1418.029
6088.529, 1435.458
6090.458, 1435.712
6092.386, 1429.737
6094.315, 1432.778
6096.243, 1435.005
6098.172, 1438.197
6100.100, 1446.673
6102.029, 1464.271
6103.957, 1446.294
6105.886, 1423.777
6107.814, 1424.880
6109.743, 1433.567
6111.671, 1400.340
6113.600, 1426.629
6115.528, 1432.203
6117.457, 1428.343
6119.385, 1431.486
6121.313, 1442.434
6123.242, 1427.160
6125.170, 1450.520
6127.099, 1457.898
6129.027, 1443.964
6130.956, 1433.086
6132.884, 1440.033
6134.813, 1419.541
6136.741, 1406.950
6138.669, 1409.131
6140.598, 1421.185
6142.526, 1441.001
6144.455, 1504.911
6146.383, 1507.529
6148.312, 1485.816
6150.240, 1452.255
6152.169, 1383.619
6154.097, 1443.852
6156.026, 1432.569
6157.954, 1439.342
6159.883, 1467.046
6161.811, 1465.114
6163.740, 1453.477
6165.668, 1424.819
6167.597, 1413.168
6169.525, 1428.225
6171.454, 1452.689
6173.382, 1450.438
6175.311, 1442.752
6177.239, 1453.628
6179.167, 1454.260
6181.096, 1442.408
6183.024, 1441.658
6184.953, 1478.141
6186.881, 1456.309
6188.810, 1439.010
6190.738, 1453.901
6192.667, 1479.786
6194.595, 1459.460
6196.523, 1452.052
6198.452, 1468.105
6200.380, 1490.937
6202.309, 1488.219
6204.237, 1443.237
6206.166, 1463.424
6208.094, 1482.513
6210.023, 1496.232
6211.951, 1481.029
6213.880, 1451.223
6215.808, 1480.111
6217.737, 1487.016
6219.665, 1461.250
6221.594, 1454.153
6223.522, 1454.342
6225.451, 1436.386
6227.379, 1464.590
6229.308, 1464.387
6231.236, 1446.214
6233.165, 1445.987
6235.093, 1451.193
6237.021, 1419.086
6238.950, 1438.592
6240.878, 1452.543
6242.807, 1438.146
6244.735, 1442.066
6246.664, 1465.047
6248.592, 1426.114
6250.521, 1428.021
6252.449, 1458.895
6254.377, 1464.652
6256.306, 1452.472
6258.234, 1452.168
6260.163, 1470.502
6262.091, 1431.087
6264.020, 1457.083
6265.948, 1477.234
6267.877, 1467.664
6269.805, 1455.011
6271.734, 1443.392
6273.662, 1407.967
6275.591, 1437.631
6277.519, 1452.923
6279.448, 1436.579
6281.376, 1437.934
6283.305, 1469.695
6285.233, 1474.635
6287.162, 1447.715
6289.090, 1433.036
6291.019, 1438.405
6292.947, 1443.206
6294.875, 1474.251
6296.804, 1441.840
6298.732, 1474.027
6300.661, 1483.478
6302.589, 1454.490
6304.518, 1462.363
6306.446, 1482.578
6308.375, 1448.368
6310.303, 1479.111
6312.231, 1480.067
6314.160, 1441.595
6316.088, 1444.697
6318.017, 1487.217
6319.945, 1476.821
6321.874, 1440.480
6323.802, 1433.024
6325.731, 1438.976
6327.659, 1423.360
6329.588, 1434.749
6331.516, 1420.157
6333.445, 1420.976
6335.373, 1468.311
6337.302, 1497.062
6339.230, 1461.755
6341.159, 1467.131
6343.087, 1431.566
6345.016, 1460.904
6346.944, 1457.889
6348.873, 1434.996
6350.801, 1440.504
6352.729, 1466.090
6354.658, 1455.274
6356.586, 1437.553
6358.515, 1455.772
6360.443, 1449.216
6362.372, 1420.252
6364.300, 1446.516
6366.229, 1447.590
6368.157, 1493.978
6370.085, 1480.549
6372.014, 1420.761
6373.942, 1417.576
6375.871, 1494.925
6377.799, 1452.545
6379.728, 1431.285
6381.656, 1437.136
6383.585, 1431.741
6385.513, 1435.019
6387.442, 1454.831
6389.370, 1452.597
6391.299, 1460.493
6393.227, 1453.786
6395.156, 1430.211
6397.084, 1427.425
6399.013, 1451.257
6400.941, 1471.942
6402.870, 1433.621
6404.798, 1447.473
6406.727, 1464.902
6408.655, 1456.869
6410.583, 1428.291
6412.512, 1414.778
6414.440, 1445.393
6416.369, 1438.432
6418.297, 1455.865
6420.226, 1446.342
6422.154, 1446.250
6424.083, 1458.740
6426.011, 1459.421
6427.939, 1446.571
6429.868, 1482.848
6431.796, 1441.969
6433.725, 1450.892
6435.653, 1452.402
6437.582, 1440.186
6439.510, 1463.729
6441.439, 1478.475
6443.367, 1427.410
6445.296, 1445.307
6447.224, 1467.543
6449.153, 1455.528
6451.081, 1427.607
6453.010, 1420.628
6454.938, 1446.069
6456.867, 1425.932
6458.795, 1461.441
6460.724, 1465.745
6462.652, 1445.835
6464.581, 1440.970
6466.509, 1457.235
6468.438, 1465.097
6470.366, 1441.332
6472.294, 1460.190
6474.223, 1452.110
6476.151, 1435.775
6478.080, 1430.250
6480.008, 1422.025
6481.937, 1446.801
6483.865, 1455.243
6485.793, 1446.868
6487.722, 1434.231
6489.650, 1429.691
6491.579, 1419.410
6493.507, 1403.659
6495.436, 1447.546
6497.364, 1463.492
6499.293, 1468.358
6501.221, 1429.220
6503.150, 1406.983
6505.078, 1419.050
6507.007, 1431.635
6508.935, 1418.536
6510.864, 1422.119
6512.792, 1409.927
6514.721, 1433.265
6516.649, 1443.902
6518.578, 1438.560
6520.506, 1430.198
6522.435, 1414.587
6524.363, 1433.024
6526.292, 1419.445
6528.220, 1437.806
6530.148, 1420.421
6532.077, 1391.355
6534.005, 1399.264
6535.934, 1435.030
6537.862, 1397.335
6539.791, 1432.865
6541.719, 1419.073
6543.647, 1416.450
6545.576, 1407.774
6547.504, 1409.064
6549.433, 1424.298
6551.361, 1412.438
6553.290, 1376.380
6555.218, 1395.136
6557.147, 1391.800
6559.075, 1400.726
6561.004, 1391.645
6562.932, 1371.466
6564.861, 1369.598
6566.789, 1380.009
6568.718, 1405.688
6570.646, 1371.399
6572.575, 1371.836
6574.503, 1361.693
6576.432, 1352.316
6578.360, 1342.394
6580.289, 1320.949
6582.217, 1341.448
6584.146, 1353.905
6586.074, 1339.806
6588.002, 1326.264
6589.931, 1324.334
6591.859, 1302.853
6593.788, 1287.602
6595.716, 1298.117
6597.645, 1307.759
6599.573, 1305.451
6601.501, 1283.997
6603.430, 1314.224
6605.358, 1293.149
6607.287, 1258.329
6609.215, 1301.310
6611.144, 1285.817
6613.072, 1305.680
6615.001, 1279.347
6616.929, 1244.213
6618.858, 1247.940
6620.786, 1260.132
6622.715, 1246.313
6624.643, 1229.909
6626.572, 1262.604
6628.500, 1249.795
6630.429, 1211.631
##END=



