##NAMES=Delhayelite
##RRUFFID=R070096
##IDEAL CHEMISTRY=K_7_Na_3_Ca_5_Al_2_Si_14_O_38_F_4_Cl_2_
##LOCALITY=Yukspor Mountain, Khibiny Massif, Kola Peninsula, Russia
##OWNER=RRUFF
##SOURCE=Michael Scott
##DESCRIPTION=Dark gray to colorless cleavage fragments associated with brown lamprophyllite, elongated blue aegerine, light yellow fenakite, grayish brown lomonosovite and very pale yellow to colorless Fenaksite (R080135).
##STATUS=The identification of this mineral has been confirmed by X-ray diffraction and chemical analysis
##URL=https://www.rruff.net/odr/rruff_sample/R070096
##MEASURED CHEMISTRY=K_7.25_Na_3.44_(Ca_4.32_Na_0.66_Mn_0.02_)(Al_1.97_Fe^3+^_0.03_)(Si_13.97_Al_0.03_)O_38_F_4_(Cl_1.70_F_0.30_)
##DIFFRACTION SAMPLE DESCRIPTION=Powder
##CELL PARAMETERS=a: 24.5858 b: 7.0626 c: 6.5756 alpha: 90 beta: 90 gamma: 90 volume: 1141.78 crystal system: orthorhombic
##FILETYPE=Raman RAW
##RAMAN WAVELENGTH=532

196.2170, 6237.296
198.1455, 6262.340
200.0739, 6283.714
202.0024, 6301.119
203.9309, 6316.128
205.8593, 6327.111
207.7878, 6337.666
209.7163, 6350.098
211.6447, 6365.719
213.5732, 6380.400
215.5017, 6391.720
217.4301, 6401.086
219.3586, 6414.281
221.2871, 6435.594
223.2155, 6456.023
225.1440, 6470.743
227.0725, 6468.792
229.0009, 6474.193
230.9294, 6492.189
232.8579, 6522.334
234.7863, 6555.664
236.7148, 6602.546
238.6433, 6640.577
240.5717, 6656.229
242.5002, 6634.961
244.4287, 6624.813
246.3571, 6639.915
248.2856, 6670.137
250.2141, 6692.608
252.1425, 6694.264
254.0710, 6698.831
255.9995, 6719.884
257.9279, 6758.790
259.8564, 6794.957
261.7849, 6826.797
263.7133, 6853.373
265.6418, 6870.399
267.5703, 6857.614
269.4987, 6855.458
271.4272, 6883.375
273.3557, 6941.492
275.2841, 6995.021
277.2126, 7039.702
279.1411, 7078.498
281.0695, 7114.666
282.9980, 7146.565
284.9265, 7179.542
286.8549, 7214.705
288.7834, 7252.653
290.7119, 7286.636
292.6404, 7311.324
294.5688, 7335.734
296.4973, 7370.036
298.4258, 7420.714
300.3542, 7462.185
302.2827, 7486.276
304.2112, 7494.440
306.1396, 7510.634
308.0681, 7546.870
309.9966, 7576.875
311.9250, 7586.897
313.8535, 7569.178
315.7820, 7559.210
317.7104, 7557.687
319.6389, 7564.299
321.5674, 7580.649
323.4958, 7618.083
325.4243, 7657.208
327.3528, 7686.519
329.2812, 7699.526
331.2097, 7710.392
333.1381, 7726.591
335.0666, 7749.824
336.9951, 7775.533
338.9235, 7796.193
340.8520, 7815.917
342.7805, 7837.035
344.7089, 7859.318
346.6374, 7880.042
348.5659, 7910.690
350.4943, 7940.825
352.4228, 7961.573
354.3513, 7963.643
356.2797, 7962.863
358.2082, 7967.443
360.1367, 7977.428
362.0651, 7986.783
363.9936, 7986.778
365.9221, 7986.732
367.8505, 7994.021
369.7790, 8015.992
371.7075, 8039.990
373.6359, 8066.373
375.5644, 8087.740
377.4929, 8096.377
379.4213, 8085.841
381.3498, 8086.032
383.2783, 8106.697
385.2067, 8143.904
387.1352, 8173.389
389.0637, 8186.269
390.9921, 8195.078
392.9206, 8205.889
394.8491, 8221.618
396.7775, 8250.985
398.7060, 8307.380
400.6345, 8366.771
402.5629, 8391.725
404.4914, 8360.728
406.4199, 8337.625
408.3483, 8351.126
410.2768, 8404.027
412.2053, 8453.789
414.1337, 8497.540
416.0622, 8532.413
417.9907, 8551.349
419.9191, 8553.494
421.8476, 8569.812
423.7761, 8616.387
425.7045, 8674.860
427.6330, 8716.988
429.5615, 8739.924
431.4899, 8765.667
433.4184, 8801.711
435.3469, 8841.213
437.2753, 8873.646
439.2038, 8893.555
441.1323, 8911.533
443.0607, 8931.802
444.9892, 8955.631
446.9177, 8980.910
448.8461, 9013.771
450.7746, 9050.743
452.7031, 9086.644
454.6315, 9105.243
456.5600, 9124.470
458.4885, 9144.545
460.4169, 9168.961
462.3454, 9201.521
464.2739, 9251.017
466.2023, 9295.482
468.1308, 9324.828
470.0593, 9339.164
471.9877, 9350.885
473.9162, 9357.355
475.8447, 9363.419
477.7731, 9371.678
479.7016, 9374.264
481.6301, 9390.307
483.5585, 9432.639
485.4870, 9494.612
487.4155, 9545.486
489.3439, 9583.021
491.2724, 9607.821
493.2009, 9619.346
495.1293, 9613.647
497.0578, 9607.062
498.9863, 9600.713
500.9147, 9598.731
502.8432, 9603.474
504.7717, 9615.146
506.7001, 9626.603
508.6286, 9638.343
510.5571, 9648.549
512.4855, 9652.729
514.4140, 9645.798
516.3425, 9645.952
518.2709, 9659.747
520.1994, 9676.648
522.1279, 9689.231
524.0563, 9697.844
525.9848, 9708.981
527.9133, 9717.705
529.8417, 9723.374
531.7702, 9749.255
533.6987, 9809.772
535.6271, 9874.628
537.5556, 9928.810
539.4841, 9973.731
541.4125, 10008.88
543.3410, 10028.96
545.2695, 10042.84
547.1979, 10060.62
549.1264, 10077.28
551.0549, 10101.75
552.9833, 10141.41
554.9118, 10191.80
556.8403, 10240.60
558.7687, 10287.14
560.6972, 10331.15
562.6257, 10370.62
564.5541, 10410.34
566.4826, 10449.59
568.4111, 10477.17
570.3395, 10514.48
572.2680, 10576.07
574.1965, 10677.40
576.1249, 10769.08
578.0534, 10849.48
579.9819, 10921.65
581.9103, 10983.16
583.8388, 11026.97
585.7673, 11088.67
587.6957, 11189.22
589.6242, 11310.78
591.5527, 11422.50
593.4811, 11517.52
595.4096, 11611.69
597.3381, 11701.90
599.2665, 11793.99
601.1950, 11899.61
603.1235, 12045.63
605.0519, 12167.46
606.9804, 12248.56
608.9089, 12286.86
610.8373, 12298.15
612.7658, 12278.04
614.6943, 12236.86
616.6227, 12176.46
618.5512, 12097.08
620.4797, 12012.50
622.4081, 11915.84
624.3366, 11819.57
626.2651, 11731.93
628.1935, 11655.88
630.1220, 11590.32
632.0505, 11543.73
633.9789, 11501.29
635.9074, 11450.78
637.8359, 11379.57
639.7643, 11328.37
641.6928, 11309.67
643.6213, 11310.49
645.5497, 11304.19
647.4782, 11283.02
649.4067, 11270.74
651.3351, 11280.05
653.2636, 11304.42
655.1921, 11327.27
657.1205, 11345.45
659.0490, 11365.63
660.9775, 11387.18
662.9059, 11409.65
664.8344, 11438.75
666.7629, 11481.68
668.6913, 11520.87
670.6198, 11546.24
672.5483, 11557.28
674.4767, 11578.74
676.4052, 11620.79
678.3337, 11665.02
680.2621, 11700.54
682.1906, 11724.01
684.1191, 11735.82
686.0475, 11718.63
687.9760, 11710.44
689.9045, 11728.94
691.8329, 11777.40
693.7614, 11814.68
695.6899, 11837.52
697.6183, 11862.81
699.5468, 11890.77
701.4753, 11925.56
703.4037, 11958.21
705.3322, 11984.88
707.2607, 12000.16
709.1891, 12015.88
711.1176, 12037.24
713.0461, 12064.06
714.9745, 12083.17
716.9030, 12105.78
718.8315, 12149.39
720.7599, 12223.64
722.6884, 12281.65
724.6169, 12304.09
726.5453, 12313.09
728.4738, 12332.65
730.4023, 12367.84
732.3307, 12390.55
734.2592, 12388.11
736.1877, 12389.86
738.1161, 12401.66
740.0446, 12421.69
741.9731, 12437.50
743.9016, 12459.59
745.8300, 12491.57
747.7585, 12530.67
749.6870, 12580.35
751.6154, 12636.37
753.5439, 12684.45
755.4724, 12709.66
757.4008, 12727.37
759.3293, 12744.99
761.2578, 12760.79
763.1862, 12755.17
765.1147, 12736.12
767.0432, 12742.63
768.9716, 12789.46
770.9001, 12846.58
772.8286, 12880.25
774.7570, 12889.18
776.6855, 12895.22
778.6140, 12899.53
780.5424, 12921.28
782.4709, 12969.31
784.3994, 13031.66
786.3278, 13073.67
788.2563, 13083.29
790.1848, 13098.01
792.1132, 13144.58
794.0417, 13194.68
795.9702, 13234.00
797.8986, 13268.36
799.8271, 13315.57
801.7556, 13349.23
803.6840, 13366.31
805.6125, 13379.88
807.5410, 13395.46
809.4694, 13422.19
811.3979, 13467.54
813.3264, 13507.16
815.2548, 13532.11
817.1833, 13544.28
819.1118, 13582.11
821.0402, 13621.73
822.9687, 13643.90
824.8972, 13653.23
826.8256, 13663.98
828.7541, 13681.98
830.6826, 13690.18
832.6110, 13695.29
834.5395, 13707.19
836.4680, 13730.46
838.3964, 13750.21
840.3249, 13786.05
842.2534, 13834.53
844.1818, 13881.22
846.1103, 13917.68
848.0388, 13948.80
849.9672, 13964.67
851.8957, 13970.46
853.8242, 13985.36
855.7526, 14025.20
857.6811, 14069.20
859.6096, 14094.23
861.5380, 14118.35
863.4665, 14143.37
865.3950, 14169.88
867.3234, 14215.86
869.2519, 14297.88
871.1804, 14356.44
873.1088, 14374.70
875.0373, 14369.83
876.9658, 14394.89
878.8942, 14415.88
880.8227, 14409.48
882.7512, 14405.93
884.6796, 14436.94
886.6081, 14494.52
888.5366, 14528.28
890.4650, 14549.04
892.3935, 14573.09
894.3220, 14603.48
896.2504, 14631.66
898.1789, 14663.03
900.1074, 14714.74
902.0358, 14775.73
903.9643, 14816.08
905.8928, 14799.47
907.8212, 14772.20
909.7497, 14765.65
911.6782, 14783.61
913.6066, 14817.39
915.5351, 14864.49
917.4636, 14919.12
919.3920, 14958.34
921.3205, 14973.72
923.2490, 14990.86
925.1774, 15028.40
927.1059, 15070.46
929.0344, 15092.01
930.9628, 15119.41
932.8913, 15155.18
934.8198, 15186.24
936.7482, 15195.26
938.6767, 15210.17
940.6052, 15247.89
942.5336, 15285.87
944.4621, 15319.98
946.3906, 15351.40
948.3190, 15373.91
950.2475, 15395.69
952.1760, 15423.81
954.1044, 15463.04
956.0329, 15513.00
957.9614, 15590.03
959.8898, 15637.87
961.8183, 15647.28
963.7468, 15649.68
965.6752, 15673.74
967.6037, 15713.77
969.5322, 15723.60
971.4606, 15733.19
973.3891, 15761.51
975.3176, 15806.65
977.2460, 15873.26
979.1745, 15929.30
981.1030, 15961.49
983.0314, 15972.75
984.9599, 15993.10
986.8884, 16030.78
988.8168, 16068.11
990.7453, 16091.75
992.6738, 16109.62
994.6022, 16141.24
996.5307, 16197.98
998.4592, 16254.21
1000.388, 16297.95
1002.316, 16314.29
1004.245, 16322.29
1006.173, 16329.29
1008.102, 16357.89
1010.030, 16403.07
1011.958, 16440.90
1013.887, 16474.47
1015.815, 16507.41
1017.744, 16544.42
1019.672, 16585.77
1021.601, 16621.06
1023.529, 16662.79
1025.458, 16722.26
1027.386, 16769.50
1029.315, 16772.53
1031.243, 16772.40
1033.172, 16807.74
1035.100, 16872.51
1037.028, 16916.95
1038.957, 16931.89
1040.885, 16946.65
1042.814, 16961.73
1044.742, 16983.28
1046.671, 17028.72
1048.599, 17107.78
1050.528, 17174.11
1052.456, 17203.62
1054.385, 17224.67
1056.313, 17258.44
1058.242, 17308.35
1060.170, 17363.40
1062.099, 17432.93
1064.027, 17496.88
1065.955, 17545.41
1067.884, 17577.73
1069.812, 17598.04
1071.741, 17596.56
1073.669, 17599.53
1075.598, 17617.79
1077.526, 17647.09
1079.455, 17685.17
1081.383, 17738.57
1083.312, 17790.58
1085.240, 17836.84
1087.169, 17877.09
1089.097, 17915.78
1091.026, 17955.48
1092.954, 17988.32
1094.882, 18013.19
1096.811, 18032.32
1098.739, 18040.78
1100.668, 18040.50
1102.596, 18050.04
1104.525, 18076.68
1106.453, 18103.85
1108.382, 18125.12
1110.310, 18141.18
1112.239, 18155.65
1114.167, 18161.89
1116.096, 18180.88
1118.024, 18218.34
1119.953, 18264.46
1121.881, 18314.62
1123.809, 18370.60
1125.738, 18420.26
1127.666, 18462.84
1129.595, 18502.61
1131.523, 18539.61
1133.452, 18570.71
1135.380, 18596.06
1137.309, 18611.66
1139.237, 18631.31
1141.166, 18664.96
1143.094, 18706.23
1145.023, 18731.42
1146.951, 18724.06
1148.880, 18735.67
1150.808, 18787.86
1152.736, 18844.75
1154.665, 18888.43
1156.593, 18933.41
1158.522, 18956.50
1160.450, 18934.10
1162.379, 18912.66
1164.307, 18916.29
1166.236, 18936.91
1168.164, 18963.19
1170.093, 19000.61
1172.021, 19028.51
1173.950, 19026.19
1175.878, 19023.88
1177.807, 19045.20
1179.735, 19090.30
1181.663, 19116.52
1183.592, 19104.69
1185.520, 19089.56
1187.449, 19091.13
1189.377, 19109.43
1191.306, 19123.31
1193.234, 19126.28
1195.163, 19140.24
1197.091, 19177.39
1199.020, 19226.80
1200.948, 19270.06
1202.877, 19295.27
1204.805, 19322.09
1206.734, 19371.89
1208.662, 19421.74
1210.590, 19441.39
1212.519, 19420.38
1214.447, 19424.37
1216.376, 19491.90
1218.304, 19557.49
1220.233, 19601.38
1222.161, 19626.36
1224.090, 19643.55
1226.018, 19637.03
1227.947, 19656.27
1229.875, 19724.06
1231.804, 19788.97
1233.732, 19814.55
1235.661, 19813.21
1237.589, 19814.58
1239.517, 19835.38
1241.446, 19877.63
1243.374, 19936.28
1245.303, 19973.06
1247.231, 19988.72
1249.160, 20015.61
1251.088, 20051.03
1253.017, 20100.82
1254.945, 20143.40
1256.874, 20162.46
1258.802, 20165.32
1260.731, 20190.42
1262.659, 20252.22
1264.588, 20312.24
1266.516, 20365.32
1268.444, 20409.48
1270.373, 20443.87
1272.301, 20478.03
1274.230, 20514.11
1276.158, 20528.37
1278.087, 20534.28
1280.015, 20545.62
1281.944, 20577.84
1283.872, 20627.43
1285.801, 20677.10
1287.729, 20709.51
1289.658, 20730.79
1291.586, 20755.68
1293.515, 20774.67
1295.443, 20773.60
1297.371, 20791.40
1299.300, 20883.71
1301.228, 20962.52
1303.157, 20972.81
1305.085, 20950.11
1307.014, 20956.35
1308.942, 21030.69
1310.871, 21070.81
1312.799, 21026.32
1314.728, 21002.29
1316.656, 21058.53
1318.585, 21161.92
1320.513, 21222.01
1322.442, 21230.38
1324.370, 21230.32
1326.298, 21232.17
1328.227, 21248.25
1330.155, 21282.12
1332.084, 21322.02
1334.012, 21352.23
1335.941, 21374.70
1337.869, 21387.01
1339.798, 21379.78
1341.726, 21381.10
1343.655, 21416.81
1345.583, 21484.00
1347.512, 21543.96
1349.440, 21592.10
1351.369, 21623.14
1353.297, 21642.60
1355.225, 21661.96
1357.154, 21686.81
1359.082, 21703.47
1361.011, 21727.13
1362.939, 21778.19
1364.868, 21829.86
1366.796, 21874.80
1368.725, 21919.88
1370.653, 21958.88
1372.582, 21968.23
1374.510, 21964.79
1376.439, 21978.29
1378.367, 22025.09
1380.296, 22086.35
1382.224, 22138.05
1384.152, 22161.87
1386.081, 22165.73
1388.009, 22190.72
1389.938, 22248.95
1391.866, 22298.56
1393.795, 22327.22
1395.723, 22344.80
1397.652, 22363.14
1399.580, 22367.61
1401.509, 22378.93
1403.437, 22412.41
1405.366, 22450.95
1407.294, 22492.69
1409.223, 22543.39
1411.151, 22585.14
1413.079, 22594.55
1415.008, 22611.01
1416.936, 22647.88
1418.865, 22689.65
1420.793, 22732.58
1422.722, 22783.73
1424.650, 22820.77
1426.579, 22813.46
1428.507, 22824.37
1430.436, 22885.40
1432.364, 22960.32
1434.293, 23015.27
1436.221, 23057.35
1438.150, 23093.80
1440.078, 23103.98
1442.006, 23102.18
1443.935, 23101.78
1445.863, 23118.53
1447.792, 23177.82
1449.720, 23283.06
1451.649, 23349.21
1453.577, 23333.59
1455.506, 23318.00
1457.434, 23352.56
1459.363, 23405.57
1461.291, 23445.87
1463.220, 23476.08
1465.148, 23512.14
1467.077, 23558.91
1469.005, 23599.04
1470.933, 23616.56
1472.862, 23632.41
1474.790, 23673.68
1476.719, 23741.10
1478.647, 23799.00
1480.576, 23842.01
1482.504, 23881.00
1484.433, 23906.57
1486.361, 23935.31
1488.290, 23995.50
1490.218, 24096.26
1492.147, 24177.07
1494.075, 24216.44
1496.004, 24259.53
1497.932, 24316.56
1499.860, 24384.61
1501.789, 24458.71
1503.717, 24540.64
1505.646, 24625.85
1507.574, 24713.46
1509.503, 24804.06
1511.431, 24911.86
1513.360, 25011.15
1515.288, 25081.97
1517.217, 25130.21
1519.145, 25170.01
1521.074, 25197.62
1523.002, 25222.95
1524.931, 25253.40
1526.859, 25277.24
1528.787, 25290.31
1530.716, 25293.88
1532.644, 25283.69
1534.573, 25255.64
1536.501, 25228.54
1538.430, 25202.08
1540.358, 25180.93
1542.287, 25162.06
1544.215, 25153.11
1546.144, 25176.50
1548.072, 25239.21
1550.001, 25272.46
1551.929, 25235.20
1553.858, 25210.94
1555.786, 25254.35
1557.714, 25325.46
1559.643, 25365.13
1561.571, 25374.74
1563.500, 25414.27
1565.428, 25517.89
1567.357, 25591.04
1569.285, 25560.82
1571.214, 25515.43
1573.142, 25540.93
1575.071, 25620.84
1576.999, 25667.96
1578.928, 25667.20
1580.856, 25667.55
1582.785, 25673.49
1584.713, 25694.86
1586.641, 25733.06
1588.570, 25788.77
1590.498, 25882.31
1592.427, 26030.01
1594.355, 26120.90
1596.284, 26086.13
1598.212, 26063.63
1600.141, 26130.24
1602.069, 26234.01
1603.998, 26302.07
1605.926, 26331.43
1607.855, 26356.58
1609.783, 26380.84
1611.712, 26401.79
1613.640, 26397.60
1615.568, 26406.02
1617.497, 26463.92
1619.425, 26563.35
1621.354, 26659.60
1623.282, 26763.02
1625.211, 26832.56
1627.139, 26840.21
1629.068, 26837.25
1630.996, 26833.39
1632.925, 26837.38
1634.853, 26866.22
1636.782, 26922.94
1638.710, 26963.42
1640.639, 26971.12
1642.567, 26990.40
1644.495, 27027.27
1646.424, 27080.76
1648.352, 27164.48
1650.281, 27267.19
1652.209, 27336.46
1654.138, 27362.72
1656.066, 27380.73
1657.995, 27371.59
1659.923, 27382.13
1661.852, 27449.94
1663.780, 27532.30
1665.709, 27566.04
1667.637, 27545.71
1669.566, 27571.98
1671.494, 27677.13
1673.422, 27766.45
1675.351, 27806.55
1677.279, 27847.42
1679.208, 27929.70
1681.136, 28029.50
1683.065, 28089.91
1684.993, 28102.63
1686.922, 28114.03
1688.850, 28112.87
1690.779, 28130.73
1692.707, 28185.78
1694.636, 28252.17
1696.564, 28308.00
1698.493, 28357.14
1700.421, 28417.07
1702.349, 28489.07
1704.278, 28568.18
1706.206, 28676.08
1708.135, 28761.59
1710.063, 28785.25
1711.992, 28796.67
1713.920, 28850.67
1715.849, 28944.32
1717.777, 29032.79
1719.706, 29121.13
1721.634, 29189.39
1723.563, 29198.99
1725.491, 29232.59
1727.420, 29344.20
1729.348, 29483.97
1731.276, 29583.47
1733.205, 29644.41
1735.133, 29727.97
1737.062, 29852.06
1738.990, 29951.72
1740.919, 29997.23
1742.847, 30035.65
1744.776, 30079.03
1746.704, 30133.81
1748.633, 30216.41
1750.561, 30324.86
1752.490, 30416.24
1754.418, 30479.36
1756.347, 30554.55
1758.275, 30674.58
1760.203, 30778.65
1762.132, 30819.79
1764.060, 30835.22
1765.989, 30880.07
1767.917, 30951.51
1769.846, 31011.40
1771.774, 31044.44
1773.703, 31113.80
1775.631, 31274.13
1777.560, 31420.92
1779.488, 31469.25
1781.417, 31488.25
1783.345, 31585.18
1785.274, 31741.73
1787.202, 31815.04
1789.130, 31767.92
1791.059, 31757.55
1792.987, 31842.33
1794.916, 31938.90
1796.844, 31996.63
1798.773, 32050.06
1800.701, 32147.75
1802.630, 32279.25
1804.558, 32389.74
1806.487, 32469.29
1808.415, 32564.50
1810.344, 32682.40
1812.272, 32817.45
1814.201, 32977.67
1816.129, 33145.74
1818.057, 33301.21
1819.986, 33450.38
1821.914, 33624.95
1823.843, 33837.46
1825.771, 34025.04
1827.700, 34156.51
1829.628, 34303.58
1831.557, 34495.01
1833.485, 34695.69
1835.414, 34899.58
1837.342, 35088.09
1839.271, 35215.38
1841.199, 35271.86
1843.128, 35327.63
1845.056, 35380.01
1846.984, 35435.69
1848.913, 35500.39
1850.841, 35562.69
1852.770, 35610.11
1854.698, 35656.79
1856.627, 35738.96
1858.555, 35850.09
1860.484, 35877.80
1862.412, 35796.85
1864.341, 35724.39
1866.269, 35686.27
1868.198, 35637.47
1870.126, 35555.75
1872.055, 35465.16
1873.983, 35368.50
1875.911, 35279.91
1877.840, 35255.14
1879.768, 35291.75
1881.697, 35239.04
1883.625, 35054.54
1885.554, 34879.02
1887.482, 34732.96
1889.411, 34627.31
1891.339, 34606.97
1893.268, 34601.68
1895.196, 34516.75
1897.125, 34379.60
1899.053, 34298.31
1900.982, 34283.83
1902.910, 34253.68
1904.839, 34202.46
1906.767, 34129.25
1908.695, 34009.70
1910.624, 33894.80
1912.552, 33800.52
1914.481, 33738.89
1916.409, 33738.66
1918.338, 33796.19
1920.266, 33845.09
1922.195, 33900.76
1924.123, 33916.31
1926.052, 33856.93
1927.980, 33807.82
1929.909, 33791.55
1931.837, 33789.15
1933.766, 33790.35
1935.694, 33795.70
1937.622, 33807.57
1939.551, 33825.55
1941.479, 33844.67
1943.408, 33870.50
1945.336, 33865.91
1947.265, 33796.52
1949.193, 33753.90
1951.122, 33795.77
1953.050, 33850.57
1954.979, 33868.31
1956.907, 33865.27
1958.836, 33853.31
1960.764, 33839.22
1962.693, 33878.45
1964.621, 33988.57
1966.549, 34077.57
1968.478, 34109.53
1970.406, 34154.24
1972.335, 34250.58
1974.263, 34343.74
1976.192, 34389.15
1978.120, 34414.63
1980.049, 34463.79
1981.977, 34533.89
1983.906, 34595.36
1985.834, 34646.37
1987.763, 34693.88
1989.691, 34726.52
1991.620, 34775.87
1993.548, 34850.79
1995.476, 34940.97
1997.405, 35060.64
1999.333, 35177.49
2001.262, 35244.14
2003.190, 35281.73
2005.119, 35359.06
2007.047, 35476.35
2008.976, 35567.88
2010.904, 35607.53
2012.833, 35699.34
2014.761, 35917.58
2016.690, 36114.26
2018.618, 36217.17
2020.547, 36288.02
2022.475, 36359.75
2024.403, 36441.01
2026.332, 36549.51
2028.260, 36684.13
2030.189, 36828.56
2032.117, 36993.00
2034.046, 37142.51
2035.974, 37285.88
2037.903, 37399.92
2039.831, 37445.78
2041.760, 37505.85
2043.688, 37655.88
2045.617, 37803.40
2047.545, 37832.24
2049.473, 37798.70
2051.402, 37845.50
2053.330, 37963.71
2055.259, 38042.05
2057.187, 38070.43
2059.116, 38075.77
2061.044, 38051.54
2062.973, 38025.86
2064.901, 38008.00
2066.830, 37990.17
2068.758, 37973.98
2070.687, 37950.51
2072.615, 37912.27
2074.543, 37858.07
2076.472, 37778.47
2078.400, 37669.29
2080.329, 37587.53
2082.257, 37547.73
2084.186, 37485.24
2086.114, 37393.01
2088.043, 37276.79
2089.971, 37105.29
2091.900, 36956.64
2093.828, 36876.34
2095.757, 36836.70
2097.685, 36832.41
2099.614, 36840.98
2101.542, 36799.51
2103.470, 36713.61
2105.399, 36690.63
2107.327, 36757.79
2109.256, 36799.86
2111.184, 36811.07
2113.113, 36799.68
2115.041, 36743.50
2116.970, 36695.87
2118.898, 36679.63
2120.827, 36677.72
2122.755, 36676.50
2124.684, 36681.54
2126.612, 36702.44
2128.541, 36737.16
2130.469, 36791.48
2132.397, 36864.34
2134.326, 36866.34
2136.254, 36760.13
2138.183, 36706.42
2140.111, 36764.38
2142.040, 36829.50
2143.968, 36884.14
2145.897, 36926.03
2147.825, 36939.57
2149.754, 36953.03
2151.682, 36994.07
2153.611, 37055.28
2155.539, 37126.76
2157.468, 37206.12
2159.396, 37273.06
2161.324, 37326.90
2163.253, 37379.25
2165.181, 37431.03
2167.110, 37484.66
2169.038, 37556.61
2170.967, 37598.09
2172.895, 37555.07
2174.824, 37523.60
2176.752, 37564.90
2178.681, 37632.59
2180.609, 37691.36
2182.538, 37740.45
2184.466, 37778.89
2186.395, 37806.71
2188.323, 37818.79
2190.251, 37813.26
2192.180, 37839.04
2194.108, 37907.97
2196.037, 37957.65
2197.965, 37980.61
2199.894, 37975.51
2201.822, 37895.73
2203.751, 37853.82
2205.679, 37935.11
2207.608, 38033.80
2209.536, 38071.81
2211.465, 38079.79
2213.393, 38089.43
2215.322, 38103.83
2217.250, 38133.20
2219.178, 38177.04
2221.107, 38227.79
2223.035, 38287.64
2224.964, 38318.15
2226.892, 38306.21
2228.821, 38311.41
2230.749, 38363.30
2232.678, 38396.12
2234.606, 38359.45
2236.535, 38338.25
2238.463, 38382.30
2240.392, 38446.14
2242.320, 38504.41
2244.249, 38553.47
2246.177, 38588.94
2248.105, 38611.32
2250.034, 38615.82
2251.962, 38607.02
2253.891, 38614.12
2255.819, 38638.05
2257.748, 38671.13
2259.676, 38704.78
2261.605, 38785.90
2263.533, 38979.83
2265.462, 39118.56
2267.390, 39125.46
2269.319, 39135.67
2271.247, 39183.80
2273.176, 39264.36
2275.104, 39408.01
2277.032, 39549.38
2278.961, 39616.19
2280.889, 39648.98
2282.818, 39699.64
2284.746, 39769.82
2286.675, 39860.51
2288.603, 39973.15
2290.532, 40131.54
2292.460, 40353.70
2294.389, 40537.53
2296.317, 40625.57
2298.246, 40804.62
2300.174, 41120.76
2302.103, 41448.12
2304.031, 41775.26
2305.959, 42083.67
2307.888, 42349.89
2309.816, 42620.32
2311.745, 42914.68
2313.673, 43233.02
2315.602, 43605.63
2317.530, 43977.77
2319.459, 44273.41
2321.387, 44511.31
2323.316, 44731.23
2325.244, 44932.11
2327.173, 45112.10
2329.101, 45268.97
2331.030, 45374.67
2332.958, 45430.19
2334.886, 45385.23
2336.815, 45221.88
2338.743, 45005.59
2340.672, 44715.81
2342.600, 44427.16
2344.529, 44155.80
2346.457, 43881.79
2348.386, 43607.62
2350.314, 43316.69
2352.243, 42979.34
2354.171, 42647.29
2356.100, 42312.48
2358.028, 42042.48
2359.957, 41961.32
2361.885, 41958.80
2363.813, 41847.40
2365.742, 41662.67
2367.670, 41504.29
2369.599, 41373.37
2371.527, 41285.20
2373.456, 41240.57
2375.384, 41215.54
2377.313, 41210.93
2379.241, 41203.04
2381.170, 41183.42
2383.098, 41190.69
2385.027, 41251.23
2386.955, 41297.71
2388.884, 41302.82
2390.812, 41313.54
2392.740, 41353.78
2394.669, 41386.37
2396.597, 41342.64
2398.526, 41354.33
2400.454, 41539.26
2402.383, 41760.64
2404.311, 41921.72
2406.240, 42043.95
2408.168, 42109.50
2410.097, 42180.76
2412.025, 42380.60
2413.954, 42675.84
2415.882, 42966.37
2417.811, 43255.71
2419.739, 43556.98
2421.667, 43875.39
2423.596, 44278.27
2425.524, 44770.36
2427.453, 45282.19
2429.381, 45793.03
2431.310, 46379.27
2433.238, 47044.04
2435.167, 47793.16
2437.095, 48682.23
2439.024, 49528.97
2440.952, 50239.28
2442.881, 51048.07
2444.809, 52056.48
2446.738, 53127.45
2448.666, 54294.29
2450.594, 55376.29
2452.523, 56350.13
2454.451, 57110.62
2456.380, 57564.41
2458.308, 57791.16
2460.237, 57888.66
2462.165, 57778.18
2464.094, 57294.84
2466.022, 56599.34
2467.951, 55935.00
2469.879, 55235.03
2471.808, 54298.97
2473.736, 53206.19
2475.665, 52247.22
2477.593, 51415.85
2479.521, 50609.09
2481.450, 49841.64
2483.378, 49277.02
2485.307, 48921.84
2487.235, 48619.46
2489.164, 48346.48
2491.092, 48195.02
2493.021, 48235.21
2494.949, 48245.41
2496.878, 48214.44
2498.806, 48188.84
2500.735, 48200.41
2502.663, 48126.14
2504.592, 47899.61
2506.520, 47677.09
2508.448, 47509.77
2510.377, 47347.65
2512.305, 47198.51
2514.234, 47019.40
2516.162, 46789.08
2518.091, 46529.53
2520.019, 46197.21
2521.948, 45913.32
2523.876, 45788.71
2525.805, 45698.39
2527.733, 45519.07
2529.662, 45361.70
2531.590, 45382.61
2533.519, 45434.40
2535.447, 45340.32
2537.375, 45180.96
2539.304, 45054.77
2541.232, 44943.74
2543.161, 44812.71
2545.089, 44678.54
2547.018, 44590.49
2548.946, 44524.86
2550.875, 44396.21
2552.803, 44225.57
2554.732, 44128.33
2556.660, 44079.66
2558.589, 43952.76
2560.517, 43756.05
2562.446, 43591.10
2564.374, 43459.24
2566.302, 43354.77
2568.231, 43278.14
2570.159, 43229.45
2572.088, 43210.38
2574.016, 43196.29
2575.945, 43188.36
2577.873, 43138.61
2579.802, 43024.18
2581.730, 42943.78
2583.659, 42910.73
2585.587, 42897.59
2587.516, 42906.86
2589.444, 42932.59
2591.373, 42991.53
2593.301, 42986.90
2595.229, 42850.00
2597.158, 42782.60
2599.086, 42903.75
2601.015, 42966.07
2602.943, 42882.69
2604.872, 42831.71
2606.800, 42861.12
2608.729, 42886.65
2610.657, 42853.88
2612.586, 42870.59
2614.514, 43019.92
2616.443, 43156.80
2618.371, 43227.99
2620.300, 43280.96
2622.228, 43323.98
2624.156, 43366.15
2626.085, 43413.04
2628.013, 43457.28
2629.942, 43486.09
2631.870, 43523.97
2633.799, 43602.90
2635.727, 43669.67
2637.656, 43641.54
2639.584, 43661.95
2641.513, 43858.52
2643.441, 44067.42
2645.370, 44167.10
2647.298, 44250.88
2649.227, 44368.88
2651.155, 44520.46
2653.083, 44732.81
2655.012, 44946.28
2656.940, 45093.81
2658.869, 45247.84
2660.797, 45496.43
2662.726, 45747.91
2664.654, 45897.79
2666.583, 46029.95
2668.511, 46213.22
2670.440, 46435.41
2672.368, 46730.74
2674.297, 47009.41
2676.225, 47160.16
2678.154, 47269.01
2680.082, 47417.49
2682.010, 47589.45
2683.939, 47805.24
2685.867, 47996.27
2687.796, 48047.74
2689.724, 48063.49
2691.653, 48145.54
2693.581, 48269.15
2695.510, 48461.77
2697.438, 48623.82
2699.367, 48571.13
2701.295, 48463.48
2703.224, 48542.77
2705.152, 48644.68
2707.081, 48553.93
2709.009, 48390.87
2710.938, 48301.21
2712.866, 48242.41
2714.794, 48165.16
2716.723, 48078.38
2718.651, 47983.49
2720.580, 47894.15
2722.508, 47840.31
2724.437, 47788.72
2726.365, 47691.21
2728.294, 47576.96
2730.222, 47493.87
2732.151, 47404.19
2734.079, 47238.07
2736.008, 47073.67
2737.936, 47027.27
2739.865, 47003.94
2741.793, 46904.35
2743.721, 46755.46
2745.650, 46533.27
2747.578, 46335.20
2749.507, 46297.71
2751.435, 46283.44
2753.364, 46133.23
2755.292, 45959.09
2757.221, 45869.80
2759.149, 45813.06
2761.078, 45770.74
2763.006, 45706.00
2764.935, 45558.17
2766.863, 45411.24
2768.792, 45358.47
2770.720, 45307.89
2772.648, 45152.33
2774.577, 45016.78
2776.505, 45002.93
2778.434, 45012.14
2780.362, 44993.56
2782.291, 44953.99
2784.219, 44921.41
2786.148, 44832.25
2788.076, 44574.57
2790.005, 44386.59
2791.933, 44461.85
2793.862, 44545.82
2795.790, 44507.15
2797.719, 44456.40
2799.647, 44418.07
2801.575, 44416.66
2803.504, 44501.21
2805.432, 44543.54
2807.361, 44483.11
2809.289, 44387.17
2811.218, 44226.54
2813.146, 44121.12
2815.075, 44108.80
2817.003, 44116.61
2818.932, 44128.22
2820.860, 44148.25
2822.789, 44188.93
2824.717, 44220.19
2826.646, 44253.26
2828.574, 44214.58
2830.502, 44056.87
2832.431, 44000.13
2834.359, 44166.50
2836.288, 44201.28
2838.216, 44046.07
2840.145, 43958.08
2842.073, 43955.38
2844.002, 43964.84
2845.930, 43980.71
2847.859, 44004.43
2849.787, 44045.01
2851.716, 43997.54
2853.644, 43870.22
2855.573, 43873.16
2857.501, 43993.84
2859.429, 44038.82
2861.358, 44012.36
2863.286, 43943.48
2865.215, 43854.71
2867.143, 43897.10
2869.072, 44012.20
2871.000, 44032.13
2872.929, 43992.24
2874.857, 43957.54
2876.786, 43939.84
2878.714, 43988.68
2880.643, 44046.77
2882.571, 44032.02
2884.500, 43981.42
2886.428, 43913.02
2888.356, 43862.44
2890.285, 43885.12
2892.213, 43920.09
2894.142, 43921.48
2896.070, 43915.13
2897.999, 43917.78
2899.927, 43919.65
2901.856, 43910.77
2903.784, 43907.16
2905.713, 43921.43
2907.641, 43928.61
2909.570, 43891.87
2911.498, 43894.03
2913.427, 44001.83
2915.355, 44058.45
2917.283, 44040.74
2919.212, 43963.82
2921.140, 43780.75
2923.069, 43710.39
2924.997, 43814.63
2926.926, 43881.95
2928.854, 43906.20
2930.783, 43881.12
2932.711, 43805.03
2934.640, 43741.26
2936.568, 43691.39
2938.497, 43647.40
2940.425, 43622.04
2942.354, 43725.04
2944.282, 43890.55
2946.210, 43918.45
2948.139, 43850.64
2950.067, 43741.77
2951.996, 43639.11
2953.924, 43616.96
2955.853, 43650.30
2957.781, 43754.74
2959.710, 43851.71
2961.638, 43861.88
2963.567, 43840.75
2965.495, 43806.63
2967.424, 43782.29
2969.352, 43805.33
2971.281, 43799.67
2973.209, 43703.37
2975.137, 43635.84
2977.066, 43631.78
2978.994, 43625.78
2980.923, 43594.10
2982.851, 43578.59
2984.780, 43583.43
2986.708, 43598.96
2988.637, 43624.98
2990.565, 43656.88
2992.494, 43694.62
2994.422, 43679.12
2996.351, 43617.54
2998.279, 43589.62
3000.208, 43585.27
3002.136, 43598.30
3004.064, 43592.44
3005.993, 43424.91
3007.921, 43249.84
3009.850, 43361.29
3011.778, 43517.43
3013.707, 43461.60
3015.635, 43395.79
3017.564, 43513.01
3019.492, 43603.41
3021.421, 43575.34
3023.349, 43498.22
3025.278, 43322.84
3027.206, 43248.27
3029.135, 43378.91
3031.063, 43452.55
3032.991, 43433.23
3034.920, 43438.10
3036.848, 43497.13
3038.777, 43459.02
3040.705, 43317.18
3042.634, 43291.14
3044.562, 43355.06
3046.491, 43391.29
3048.419, 43402.14
3050.348, 43389.32
3052.276, 43367.08
3054.205, 43373.28
3056.133, 43369.55
3058.062, 43295.89
3059.990, 43222.09
3061.918, 43163.77
3063.847, 43192.82
3065.775, 43423.29
3067.704, 43559.75
3069.632, 43431.07
3071.561, 43292.30
3073.489, 43147.67
3075.418, 43138.50
3077.346, 43298.92
3079.275, 43386.24
3081.203, 43378.16
3083.132, 43310.24
3085.060, 43199.76
3086.989, 43190.45
3088.917, 43242.18
3090.845, 43254.08
3092.774, 43236.27
3094.702, 43179.73
3096.631, 43134.75
3098.559, 43160.00
3100.488, 43198.01
3102.416, 43240.95
3104.345, 43227.59
3106.273, 43091.28
3108.202, 43009.79
3110.130, 43040.82
3112.059, 43114.84
3113.987, 43260.23
3115.916, 43286.46
3117.844, 43189.38
3119.772, 43139.52
3121.701, 43139.25
3123.629, 43122.19
3125.558, 43106.63
3127.486, 43189.37
3129.415, 43276.89
3131.343, 43195.02
3133.272, 43095.14
3135.200, 43162.79
3137.129, 43217.64
3139.057, 43137.30
3140.986, 43071.72
3142.914, 43100.28
3144.843, 43114.22
3146.771, 43089.34
3148.699, 43104.60
3150.628, 43177.15
3152.556, 43171.82
3154.485, 43089.58
3156.413, 43131.04
3158.342, 43237.64
3160.270, 43210.04
3162.199, 43125.18
3164.127, 43092.20
3166.056, 43096.90
3167.984, 43162.43
3169.913, 43198.92
3171.841, 43114.68
3173.770, 43054.91
3175.698, 43069.72
3177.626, 43103.98
3179.555, 43154.39
3181.483, 43190.95
3183.412, 43208.14
3185.340, 43229.98
3187.269, 43259.09
3189.197, 43326.63
3191.126, 43403.89
3193.054, 43415.60
3194.983, 43404.54
3196.911, 43450.80
3198.840, 43465.63
3200.768, 43336.27
3202.697, 43241.21
3204.625, 43253.95
3206.553, 43323.02
3208.482, 43465.44
3210.410, 43527.99
3212.339, 43467.52
3214.267, 43502.48
3216.196, 43605.36
3218.124, 43575.21
3220.053, 43468.24
3221.981, 43391.34
3223.910, 43358.29
3225.838, 43412.15
3227.767, 43481.13
3229.695, 43522.45
3231.624, 43555.83
3233.552, 43583.50
3235.480, 43624.61
3237.409, 43697.65
3239.337, 43688.39
3241.266, 43574.45
3243.194, 43570.88
3245.123, 43651.90
3247.051, 43724.51
3248.980, 43782.62
3250.908, 43824.01
3252.837, 43835.64
3254.765, 43760.70
3256.694, 43731.38
3258.622, 43868.08
3260.551, 43973.49
3262.479, 44009.92
3264.407, 44002.04
3266.336, 43945.04
3268.264, 43904.41
3270.193, 43885.61
3272.121, 43959.00
3274.050, 44072.55
3275.978, 44116.32
3277.907, 44138.68
3279.835, 44205.50
3281.764, 44254.59
3283.692, 44235.09
3285.621, 44224.62
3287.549, 44239.44
3289.478, 44289.44
3291.406, 44378.27
3293.334, 44412.21
3295.263, 44398.83
3297.191, 44434.23
3299.120, 44487.58
3301.048, 44467.34
3302.977, 44461.73
3304.905, 44607.20
3306.834, 44721.09
3308.762, 44717.14
3310.691, 44684.40
3312.619, 44613.23
3314.548, 44609.51
3316.476, 44674.96
3318.405, 44726.19
3320.333, 44766.59
3322.261, 44833.36
3324.190, 44901.23
3326.118, 44909.81
3328.047, 44925.10
3329.975, 45009.21
3331.904, 45090.91
3333.832, 45148.82
3335.761, 45189.12
3337.689, 45201.79
3339.618, 45288.43
3341.546, 45442.65
3343.475, 45517.74
3345.403, 45537.79
3347.332, 45524.88
3349.260, 45527.97
3351.188, 45631.89
3353.117, 45714.18
3355.045, 45676.14
3356.974, 45695.34
3358.902, 45813.42
3360.831, 45904.08
3362.759, 45962.79
3364.688, 46052.14
3366.616, 46161.02
3368.545, 46259.21
3370.473, 46347.79
3372.402, 46429.71
3374.330, 46498.84
3376.259, 46537.23
3378.187, 46603.59
3380.115, 46726.21
3382.044, 46792.93
3383.972, 46796.82
3385.901, 46814.39
3387.829, 46817.10
3389.758, 46695.02
3391.686, 46571.81
3393.615, 46597.96
3395.543, 46673.03
3397.472, 46815.74
3399.400, 46857.00
3401.329, 46757.37
3403.257, 46638.08
3405.186, 46518.16
3407.114, 46522.64
3409.042, 46582.38
3410.971, 46498.38
3412.899, 46414.14
3414.828, 46503.20
3416.756, 46546.49
3418.685, 46430.54
3420.613, 46378.51
3422.542, 46447.23
3424.470, 46437.21
3426.399, 46356.79
3428.327, 46268.38
3430.256, 46213.67
3432.184, 46327.33
3434.113, 46391.71
3436.041, 46218.55
3437.969, 46081.34
3439.898, 46093.70
3441.826, 46117.76
3443.755, 46146.59
3445.683, 46102.97
3447.612, 46015.86
3449.540, 45939.51
3451.469, 45903.14
3453.397, 45960.93
3455.326, 46015.72
3457.254, 46017.50
3459.183, 46023.69
3461.111, 46042.29
3463.040, 45979.57
3464.968, 45864.46
3466.896, 45882.45
3468.825, 45934.08
3470.753, 45877.48
3472.682, 45814.13
3474.610, 45804.88
3476.539, 45805.65
3478.467, 45811.79
3480.396, 45798.74
3482.324, 45769.54
3484.253, 45795.40
3486.181, 45832.20
3488.110, 45789.83
3490.038, 45748.86
3491.967, 45792.48
3493.895, 45777.29
3495.823, 45570.75
3497.752, 45559.32
3499.680, 45724.64
3501.609, 45791.15
3503.537, 45795.21
3505.466, 45823.04
3507.394, 45819.39
3509.323, 45706.01
3511.251, 45638.86
3513.180, 45691.04
3515.108, 45683.55
3517.037, 45614.78
3518.965, 45607.72
3520.894, 45624.13
3522.822, 45553.15
3524.750, 45490.50
3526.679, 45533.98
3528.607, 45547.88
3530.536, 45492.06
3532.464, 45478.01
3534.393, 45511.91
3536.321, 45497.36
3538.250, 45469.04
3540.178, 45500.36
3542.107, 45535.59
3544.035, 45536.39
3545.964, 45523.56
3547.892, 45498.02
3549.821, 45480.14
3551.749, 45469.54
3553.677, 45458.16
3555.606, 45434.05
3557.534, 45344.32
3559.463, 45298.67
3561.391, 45371.83
3563.320, 45432.13
3565.248, 45459.74
3567.177, 45395.39
3569.105, 45273.86
3571.034, 45233.22
3572.962, 45215.58
3574.891, 45122.64
3576.819, 45081.98
3578.748, 45167.47
3580.676, 45258.87
3582.604, 45344.32
3584.533, 45310.23
3586.461, 45225.48
3588.390, 45283.63
3590.318, 45326.73
3592.247, 45222.68
3594.175, 45119.94
3596.104, 45052.24
3598.032, 45029.17
3599.961, 45047.16
3601.889, 45110.91
3603.818, 45147.60
3605.746, 45013.75
3607.675, 44880.48
3609.603, 44842.25
3611.531, 44804.34
3613.460, 44758.21
3615.388, 44699.42
3617.317, 44637.46
3619.245, 44577.78
3621.174, 44557.69
3623.102, 44654.23
3625.031, 44688.53
3626.959, 44616.49
3628.888, 44581.09
3630.816, 44580.82
3632.745, 44552.80
3634.673, 44505.00
3636.602, 44441.17
3638.530, 44375.16
3640.458, 44303.04
3642.387, 44279.11
3644.315, 44303.59
3646.244, 44203.40
3648.172, 44083.64
3650.101, 44198.80
3652.029, 44289.10
3653.958, 44146.42
3655.886, 44047.28
3657.815, 44025.41
3659.743, 43941.55
3661.672, 43825.43
3663.600, 43768.63
3665.529, 43748.50
3667.457, 43804.80
3669.385, 43750.59
3671.314, 43529.09
3673.242, 43561.66
3675.171, 43763.93
3677.099, 43652.99
3679.028, 43485.59
3680.956, 43504.55
3682.885, 43562.21
3684.813, 43635.81
3686.742, 43576.85
3688.670, 43408.41
3690.599, 43328.58
3692.527, 43271.46
3694.456, 43113.79
3696.384, 43065.43
3698.313, 43217.20
3700.241, 43245.66
3702.169, 43141.85
3704.098, 43105.74
3706.026, 43101.43
3707.955, 43089.91
3709.883, 43075.94
3711.812, 43056.99
3713.740, 43065.22
3715.669, 43099.57
3717.597, 43129.57
3719.526, 43122.90
3721.454, 43005.14
3723.383, 42910.66
3725.311, 42893.54
3727.240, 42877.04
3729.168, 42854.04
3731.096, 42853.86
3733.025, 42845.70
3734.953, 42770.54
3736.882, 42717.89
3738.810, 42725.23
3740.739, 42727.69
3742.667, 42712.81
3744.596, 42601.00
3746.524, 42489.39
3748.453, 42495.97
3750.381, 42538.88
3752.310, 42598.63
3754.238, 42642.53
3756.167, 42652.29
3758.095, 42462.32
3760.023, 42285.64
3761.952, 42418.04
3763.880, 42454.30
3765.809, 42270.23
3767.737, 42298.13
3769.666, 42484.69
3771.594, 42524.20
3773.523, 42475.95
3775.451, 42319.06
3777.380, 42271.43
3779.308, 42376.06
3781.237, 42409.10
3783.165, 42386.57
3785.094, 42372.10
3787.022, 42355.24
3788.950, 42341.79
3790.879, 42281.21
3792.807, 42172.62
3794.736, 42139.78
3796.664, 42138.25
3798.593, 42044.68
3800.521, 42000.66
3802.450, 42123.53
3804.378, 42201.13
3806.307, 42225.41
3808.235, 42236.66
3810.164, 42225.13
3812.092, 42162.30
3814.021, 42106.07
3815.949, 42066.25
3817.877, 42104.41
3819.806, 42179.28
3821.734, 42153.56
3823.663, 42062.98
3825.591, 41886.75
3827.520, 41835.89
3829.448, 41969.64
3831.377, 41956.57
3833.305, 41894.44
3835.234, 42022.41
3837.162, 42086.07
3839.091, 41941.67
3841.019, 41862.15
3842.948, 41863.78
3844.876, 41867.63
3846.804, 41884.77
3848.733, 41969.29
3850.661, 41969.55
3852.590, 41821.52
3854.518, 41888.58
3856.447, 42017.09
3858.375, 41818.17
3860.304, 41632.46
3862.232, 41658.49
3864.161, 41729.24
3866.089, 41814.38
3868.018, 41844.22
3869.946, 41821.20
3871.875, 41717.65
3873.803, 41601.99
3875.731, 41487.79
3877.660, 41520.09
3879.588, 41632.33
3881.517, 41654.05
3883.445, 41623.58
3885.374, 41560.90
3887.302, 41494.16
3889.231, 41425.12
3891.159, 41410.40
3893.088, 41367.25
3895.016, 41122.05
3896.945, 41018.05
3898.873, 41208.78
3900.802, 41299.46
3902.730, 41282.21
3904.658, 41289.36
3906.587, 41286.80
3908.515, 41228.95
3910.444, 41172.62
3912.372, 41118.45
3914.301, 41066.56
3916.229, 41035.91
3918.158, 41034.01
3920.086, 40986.45
3922.015, 40887.09
3923.943, 40808.72
3925.872, 40770.47
3927.800, 40812.65
3929.729, 40802.68
3931.657, 40710.81
3933.585, 40737.56
3935.514, 40815.26
3937.442, 40721.81
3939.371, 40640.77
3941.299, 40699.91
3943.228, 40677.57
3945.156, 40589.86
3947.085, 40550.13
3949.013, 40509.55
3950.942, 40429.01
3952.870, 40412.88
3954.799, 40456.83
3956.727, 40374.77
3958.656, 40274.94
3960.584, 40330.95
3962.512, 40385.99
3964.441, 40390.46
3966.369, 40304.32
3968.298, 40191.53
3970.226, 40180.08
3972.155, 40191.05
3974.083, 40195.15
3976.012, 40186.71
3977.940, 40163.21
3979.869, 40126.44
3981.797, 40046.83
3983.726, 39861.82
3985.654, 39841.15
3987.583, 39991.66
3989.511, 39931.18
3991.439, 39814.69
3993.368, 39786.07
3995.296, 39824.98
3997.225, 39913.80
3999.153, 39872.83
4001.082, 39796.32
4003.010, 39756.81
4004.939, 39727.43
4006.867, 39693.27
4008.796, 39574.75
4010.724, 39496.08
4012.653, 39557.22
4014.581, 39575.41
4016.510, 39471.98
4018.438, 39425.91
4020.366, 39428.82
4022.295, 39370.75
4024.223, 39327.57
4026.152, 39316.30
4028.080, 39254.13
4030.009, 39191.17
4031.937, 39102.45
4033.866, 39037.21
4035.794, 39038.26
4037.723, 39039.88
4039.651, 39017.09
4041.580, 39027.54
4043.508, 38991.75
4045.437, 38928.21
4047.365, 38952.23
4049.293, 38933.09
4051.222, 38853.07
4053.150, 38787.21
4055.079, 38730.58
4057.007, 38687.55
4058.936, 38698.58
4060.864, 38741.43
4062.793, 38706.18
4064.721, 38602.29
4066.650, 38557.56
4068.578, 38533.48
4070.507, 38491.65
4072.435, 38471.20
4074.364, 38435.08
4076.292, 38286.66
4078.220, 38276.70
4080.149, 38331.76
4082.077, 38246.67
4084.006, 38200.17
4085.934, 38188.98
4087.863, 38181.03
4089.791, 38222.32
4091.720, 38133.34
4093.648, 37994.94
4095.577, 37998.70
4097.505, 37929.44
4099.434, 37819.34
4101.362, 37836.81
4103.291, 37808.92
4105.219, 37725.02
4107.147, 37734.49
4109.076, 37765.73
4111.004, 37657.91
4112.933, 37547.37
4114.861, 37565.06
4116.790, 37473.43
4118.718, 37319.42
4120.646, 37337.86
4122.575, 37371.11
4124.503, 37276.10
4126.432, 37161.52
4128.360, 37129.11
4130.289, 37152.40
4132.217, 37146.80
4134.146, 37128.02
4136.074, 37086.66
4138.003, 37060.33
4139.931, 37045.35
4141.860, 36997.46
4143.788, 36968.43
4145.717, 36898.27
4147.645, 36768.90
4149.574, 36703.86
4151.502, 36664.08
4153.431, 36603.02
4155.359, 36594.11
4157.288, 36656.00
4159.216, 36623.74
4161.145, 36549.55
4163.073, 36587.23
4165.001, 36595.15
4166.930, 36499.61
4168.858, 36423.11
4170.787, 36372.91
4172.715, 36357.02
4174.644, 36296.47
4176.572, 36182.95
4178.500, 36153.50
4180.429, 36142.43
4182.357, 36018.75
4184.286, 36000.63
4186.214, 36109.46
4188.143, 36055.03
4190.071, 35927.75
4192.000, 35789.05
4193.928, 35737.60
4195.857, 35780.39
4197.785, 35725.69
4199.714, 35662.89
4201.642, 35702.18
4203.571, 35679.09
4205.499, 35570.80
4207.428, 35535.13
4209.356, 35519.39
4211.285, 35481.45
4213.213, 35404.36
4215.142, 35295.62
4217.070, 35305.70
4218.999, 35302.77
4220.927, 35155.32
4222.855, 35088.35
4224.784, 35115.14
4226.712, 35144.95
4228.641, 35110.80
4230.569, 34904.07
4232.498, 34905.44
4234.426, 35073.21
4236.354, 35042.51
4238.283, 34972.82
4240.211, 34970.76
4242.140, 34895.34
4244.068, 34788.64
4245.997, 34821.36
4247.925, 34869.35
4249.854, 34884.35
4251.782, 34915.29
4253.711, 34917.68
4255.639, 34773.13
4257.568, 34678.68
4259.496, 34713.88
4261.425, 34721.80
4263.353, 34706.85
4265.282, 34655.15
4267.210, 34637.99
4269.139, 34674.03
4271.067, 34685.64
4272.996, 34658.41
4274.924, 34514.05
4276.853, 34548.26
4278.781, 34758.74
4280.709, 34621.03
4282.638, 34451.47
4284.566, 34493.73
4286.495, 34509.08
4288.423, 34477.91
4290.352, 34399.85
4292.280, 34298.56
4294.208, 34166.09
4296.137, 34146.55
4298.065, 34200.50
4299.994, 34244.91
4301.922, 34309.39
4303.851, 34411.14
4305.779, 34327.22
4307.708, 34187.01
4309.636, 34144.80
4311.565, 34113.51
4313.493, 34080.31
4315.422, 34134.12
4317.350, 34161.89
4319.279, 34053.16
4321.207, 34080.58
4323.136, 34197.90
4325.064, 34136.75
4326.993, 34031.87
4328.921, 33931.95
4330.850, 33963.13
4332.778, 34050.67
4334.707, 34053.54
4336.635, 34071.27
4338.563, 34119.84
4340.492, 34084.91
4342.420, 34053.80
4344.349, 34148.26
4346.277, 34138.47
4348.206, 34036.44
4350.134, 33983.82
4352.063, 33956.64
4353.991, 33960.21
4355.919, 33810.63
4357.848, 33657.70
4359.776, 33868.20
4361.705, 33981.81
4363.633, 33871.54
4365.562, 33890.52
4367.490, 33943.79
4369.419, 33956.36
4371.347, 33877.00
4373.276, 33760.31
4375.204, 33916.70
4377.133, 34063.82
4379.061, 34073.67
4380.990, 34002.49
4382.918, 33914.77
4384.847, 33917.95
4386.775, 33895.27
4388.704, 33830.34
4390.632, 33833.08
4392.561, 33847.52
4394.489, 33831.75
4396.417, 33847.31
4398.346, 33882.93
4400.274, 33916.09
4402.203, 33896.45
4404.131, 33813.81
4406.060, 33774.47
4407.988, 33749.77
4409.917, 33692.44
4411.845, 33684.07
4413.773, 33718.16
4415.702, 33742.52
4417.630, 33746.44
4419.559, 33714.06
4421.487, 33697.32
4423.416, 33710.12
4425.344, 33815.79
4427.273, 33807.23
4429.201, 33683.45
4431.130, 33679.96
4433.058, 33703.75
4434.987, 33706.92
4436.915, 33775.77
4438.844, 33845.34
4440.772, 33774.30
4442.701, 33759.69
4444.629, 33818.04
4446.558, 33833.74
4448.486, 33832.44
4450.415, 33828.72
4452.343, 33824.00
4454.271, 33828.99
4456.200, 33876.92
4458.128, 33903.96
4460.057, 33896.04
4461.985, 33832.04
4463.914, 33763.74
4465.842, 33714.49
4467.771, 33752.50
4469.699, 33806.86
4471.627, 33706.93
4473.556, 33747.66
4475.484, 33922.71
4477.413, 33832.93
4479.341, 33725.71
4481.270, 33744.05
4483.198, 33804.89
4485.127, 33858.55
4487.055, 33798.66
4488.984, 33838.76
4490.912, 33978.83
4492.841, 33961.85
4494.769, 33924.66
4496.698, 33934.92
4498.626, 33873.95
4500.555, 33839.52
4502.483, 34003.99
4504.412, 34004.88
4506.340, 33872.36
4508.269, 33876.74
4510.197, 33913.41
4512.125, 33942.69
4514.054, 33929.59
4515.982, 33946.45
4517.911, 34118.88
4519.839, 34153.11
4521.768, 34111.84
4523.696, 34222.04
4525.625, 34298.57
4527.553, 34307.75
4529.481, 34448.59
4531.410, 34540.16
4533.338, 34452.66
4535.267, 34550.69
4537.195, 34744.36
4539.124, 34863.74
4541.052, 35011.86
4542.981, 35185.66
4544.909, 35241.09
4546.838, 35411.40
4548.766, 35805.72
4550.695, 35723.12
4552.623, 35599.44
4554.552, 35838.01
4556.480, 35918.91
4558.409, 35917.43
4560.337, 36161.53
4562.266, 36220.49
4564.194, 36035.85
4566.123, 35893.06
4568.051, 35806.55
4569.979, 35795.02
4571.908, 35738.18
4573.836, 35644.71
4575.765, 35508.54
4577.693, 35463.10
4579.622, 35441.41
4581.550, 35194.38
4583.479, 35092.59
4585.407, 35196.59
4587.335, 35219.53
4589.264, 35171.74
4591.192, 35045.20
4593.121, 34986.37
4595.049, 34953.06
4596.978, 34907.84
4598.906, 34839.31
4600.835, 34737.71
4602.763, 34562.26
4604.692, 34422.88
4606.620, 34333.85
4608.549, 34215.63
4610.477, 34097.27
4612.406, 33989.87
4614.334, 33945.87
4616.263, 33921.77
4618.191, 33880.34
4620.120, 33853.95
4622.048, 33851.41
4623.977, 33895.70
4625.905, 33924.84
4627.833, 33921.85
4629.762, 33828.55
4631.690, 33777.88
4633.619, 33798.75
4635.547, 33731.07
4637.476, 33641.88
4639.404, 33572.62
4641.333, 33474.14
4643.261, 33388.54
4645.189, 33363.25
4647.118, 33400.36
4649.046, 33461.55
4650.975, 33475.44
4652.903, 33438.27
4654.832, 33384.39
4656.760, 33464.57
4658.689, 33535.02
4660.617, 33542.35
4662.546, 33462.46
4664.474, 33423.93
4666.403, 33511.47
4668.331, 33507.54
4670.260, 33547.50
4672.188, 33832.55
4674.117, 33900.63
4676.045, 33841.61
4677.974, 33865.55
4679.902, 33959.25
4681.831, 34119.38
4683.759, 34398.15
4685.688, 34595.55
4687.616, 34668.03
4689.544, 34621.26
4691.473, 34597.09
4693.401, 34689.86
4695.330, 34511.81
4697.258, 34255.88
4699.187, 34054.46
4701.115, 33901.63
4703.043, 33701.39
4704.972, 33294.72
4706.900, 32996.01
4708.829, 32803.51
4710.757, 32690.05
4712.686, 32545.80
4714.614, 32379.34
4716.543, 32261.68
4718.471, 32215.12
4720.400, 32227.19
4722.328, 32219.74
4724.257, 32153.33
4726.185, 32007.70
4728.114, 31936.71
4730.042, 31883.71
4731.971, 31818.39
4733.899, 31781.03
4735.828, 31746.12
4737.756, 31662.95
4739.685, 31699.91
4741.613, 31752.70
4743.542, 31666.63
4745.470, 31713.98
4747.398, 31789.11
4749.327, 31610.20
4751.255, 31526.09
4753.184, 31529.82
4755.112, 31436.85
4757.041, 31381.77
4758.969, 31375.51
4760.897, 31328.96
4762.826, 31339.13
4764.754, 31419.94
4766.683, 31371.48
4768.611, 31304.70
4770.540, 31265.45
4772.468, 31316.54
4774.397, 31305.65
4776.325, 31131.42
4778.254, 31063.35
4780.182, 31069.48
4782.111, 31132.13
4784.039, 31141.47
4785.968, 31102.55
4787.896, 31022.16
4789.825, 30910.46
4791.753, 30806.93
4793.682, 30767.78
4795.610, 30705.62
4797.539, 30633.13
4799.467, 30563.43
4801.396, 30586.58
4803.324, 30650.30
4805.252, 30626.53
4807.181, 30590.53
4809.109, 30530.95
4811.038, 30352.62
4812.966, 30209.54
4814.895, 30149.90
4816.823, 30304.71
4818.751, 30320.82
4820.680, 30175.91
4822.608, 30151.53
4824.537, 30154.98
4826.465, 30150.33
4828.394, 30077.44
4830.322, 30012.09
4832.251, 29977.96
4834.179, 29974.11
4836.108, 29943.27
4838.036, 29868.09
4839.965, 29965.28
4841.893, 29940.95
4843.822, 29693.31
4845.750, 29643.00
4847.679, 29646.12
4849.607, 29622.58
4851.536, 29553.48
4853.464, 29502.66
4855.393, 29502.04
4857.321, 29451.75
4859.250, 29396.45
4861.178, 29361.51
4863.106, 29413.53
4865.035, 29443.69
4866.963, 29383.37
4868.892, 29219.53
4870.820, 29131.63
4872.749, 29316.67
4874.677, 29204.57
4876.605, 29058.06
4878.534, 29066.59
4880.462, 29076.80
4882.391, 29101.44
4884.319, 29172.01
4886.248, 29178.18
4888.176, 29099.03
4890.105, 28904.32
4892.033, 28879.11
4893.962, 28937.80
4895.890, 29012.31
4897.819, 28959.82
4899.747, 28843.39
4901.676, 28697.47
4903.604, 28706.35
4905.533, 28740.86
4907.461, 28693.60
4909.390, 28679.90
4911.318, 28657.19
4913.247, 28559.80
4915.175, 28611.86
4917.104, 28611.27
4919.032, 28411.40
4920.960, 28319.75
4922.889, 28293.17
4924.817, 28278.46
4926.746, 28415.77
4928.674, 28512.60
4930.603, 28451.60
4932.531, 28413.97
4934.459, 28395.14
4936.388, 28388.86
4938.316, 28231.23
4940.245, 28136.00
4942.173, 28225.58
4944.102, 28062.91
4946.030, 27933.47
4947.959, 27968.39
4949.887, 28075.77
4951.816, 28094.66
4953.744, 27960.50
4955.673, 27929.96
4957.601, 27893.86
4959.530, 27829.37
4961.458, 27880.97
4963.387, 27878.08
4965.315, 27783.95
4967.244, 27779.50
4969.172, 27780.73
4971.101, 27756.36
4973.029, 27646.57
4974.958, 27623.61
4976.886, 27666.94
4978.814, 27555.11
4980.743, 27541.95
4982.671, 27610.47
4984.600, 27571.45
4986.528, 27579.54
4988.457, 27611.18
4990.385, 27577.84
4992.313, 27463.17
4994.242, 27345.40
4996.170, 27351.05
4998.099, 27417.78
5000.027, 27456.32
5001.956, 27366.91
5003.884, 27204.74
5005.813, 27107.80
5007.741, 27259.29
5009.670, 27222.56
5011.598, 27106.69
5013.527, 26990.79
5015.455, 27035.60
5017.384, 27087.61
5019.312, 27062.00
5021.241, 27021.18
5023.169, 26987.22
5025.098, 26970.74
5027.026, 27046.26
5028.955, 26964.71
5030.883, 26756.49
5032.812, 26883.32
5034.740, 26895.88
5036.668, 26759.08
5038.597, 26656.64
5040.525, 26607.96
5042.454, 26599.72
5044.382, 26605.47
5046.311, 26645.67
5048.239, 26644.88
5050.167, 26450.46
5052.096, 26436.81
5054.024, 26465.29
5055.953, 26396.56
5057.881, 26457.55
5059.810, 26495.75
5061.738, 26418.89
5063.667, 26310.67
5065.595, 26225.88
5067.524, 26182.97
5069.452, 26127.17
5071.381, 26134.18
5073.309, 26191.86
5075.238, 26193.80
5077.166, 26093.95
5079.095, 25984.56
5081.023, 26117.07
5082.952, 26112.00
5084.880, 26050.84
5086.809, 26111.87
5088.737, 25942.45
5090.666, 25831.67
5092.594, 26038.74
5094.522, 25982.79
5096.451, 25890.01
5098.379, 25894.54
5100.308, 25828.97
5102.236, 25777.32
5104.165, 25747.84
5106.093, 25623.50
5108.021, 25588.23
5109.950, 25613.62
5111.878, 25546.95
5113.807, 25506.35
5115.735, 25478.24
5117.664, 25423.97
5119.592, 25409.04
5121.521, 25400.68
5123.449, 25371.70
5125.378, 25387.19
5127.306, 25348.17
5129.235, 25222.58
5131.163, 25197.15
5133.092, 25167.77
5135.020, 25111.72
5136.949, 25034.13
5138.877, 25013.43
5140.806, 25048.38
5142.734, 25170.97
5144.663, 25068.64
5146.591, 24931.85
5148.520, 24930.88
5150.448, 24965.29
5152.376, 24966.55
5154.305, 24913.10
5156.233, 24840.29
5158.162, 24850.74
5160.090, 24908.38
5162.019, 24796.96
5163.947, 24755.30
5165.875, 24748.55
5167.804, 24677.11
5169.732, 24653.56
5171.661, 24626.47
5173.589, 24552.64
5175.518, 24472.32
5177.446, 24504.55
5179.375, 24639.02
5181.303, 24510.38
5183.232, 24402.08
5185.160, 24373.49
5187.089, 24434.99
5189.017, 24407.70
5190.946, 24370.30
5192.874, 24433.88
5194.803, 24375.00
5196.731, 24304.14
5198.660, 24278.30
5200.588, 24341.40
5202.517, 24228.45
5204.445, 24039.86
5206.374, 24233.00
5208.302, 24222.88
5210.230, 24116.54
5212.159, 24105.41
5214.087, 24093.00
5216.016, 24017.44
5217.944, 23864.70
5219.873, 23768.75
5221.801, 23745.59
5223.729, 23762.24
5225.658, 23715.14
5227.586, 23798.26
5229.515, 23823.62
5231.443, 23508.84
5233.372, 23604.97
5235.300, 23686.53
5237.229, 23573.13
5239.157, 23568.76
5241.086, 23461.81
5243.014, 23296.95
5244.943, 23298.17
5246.871, 23246.79
5248.800, 23211.27
5250.728, 23274.88
5252.657, 23215.51
5254.585, 23190.80
5256.514, 23227.75
5258.442, 23151.02
5260.371, 23092.50
5262.299, 23037.64
5264.228, 22900.19
5266.156, 22869.67
5268.084, 22877.32
5270.013, 22872.65
5271.941, 22835.64
5273.870, 22809.14
5275.798, 22788.79
5277.727, 22726.70
5279.655, 22676.95
5281.583, 22647.86
5283.512, 22645.26
5285.440, 22654.02
5287.369, 22626.16
5289.297, 22552.74
5291.226, 22462.26
5293.154, 22453.37
5295.083, 22469.33
5297.011, 22413.03
5298.940, 22320.78
5300.868, 22291.74
5302.797, 22359.63
5304.725, 22327.17
5306.654, 22168.76
5308.582, 22022.50
5310.511, 22163.19
5312.439, 22033.89
5314.368, 21877.57
5316.296, 21879.57
5318.225, 21819.37
5320.153, 21821.63
5322.082, 21858.93
5324.010, 21774.44
5325.938, 21665.50
5327.867, 21618.55
5329.795, 21675.00
5331.724, 21596.26
5333.652, 21506.67
5335.581, 21443.15
5337.509, 21382.63
5339.438, 21387.52
5341.366, 21381.87
5343.294, 21294.65
5345.223, 21260.83
5347.151, 21216.55
5349.080, 21148.43
5351.008, 21063.11
5352.937, 21075.98
5354.865, 21087.69
5356.794, 21010.55
5358.722, 20991.26
5360.651, 20958.86
5362.579, 20911.09
5364.508, 20915.19
5366.436, 20896.37
5368.365, 20840.87
5370.293, 20750.06
5372.222, 20685.51
5374.150, 20620.54
5376.079, 20566.31
5378.007, 20573.23
5379.936, 20563.78
5381.864, 20542.76
5383.792, 20514.34
5385.721, 20432.71
5387.649, 20251.02
5389.578, 20090.76
5391.506, 20163.10
5393.435, 20299.10
5395.363, 20291.25
5397.292, 20101.82
5399.220, 20077.24
5401.148, 19969.37
5403.077, 19865.13
5405.005, 19965.78
5406.934, 19956.78
5408.862, 19887.17
5410.791, 19811.38
5412.719, 19851.23
5414.648, 19781.78
5416.576, 19685.18
5418.505, 19654.38
5420.433, 19628.00
5422.362, 19594.38
5424.290, 19547.80
5426.219, 19479.18
5428.147, 19402.46
5430.076, 19349.91
5432.004, 19335.80
5433.933, 19345.86
5435.861, 19368.28
5437.790, 19300.96
5439.718, 19037.09
5441.646, 19018.85
5443.575, 19021.88
5445.503, 18977.80
5447.432, 18976.71
5449.360, 18940.86
5451.289, 18892.67
5453.217, 18854.81
5455.146, 18882.45
5457.074, 18781.34
5459.002, 18651.70
5460.931, 18675.51
5462.859, 18596.86
5464.788, 18558.39
5466.716, 18590.87
5468.645, 18620.57
5470.573, 18487.07
5472.502, 18374.52
5474.430, 18397.05
5476.359, 18235.89
5478.287, 18267.97
5480.216, 18348.75
5482.144, 18208.37
5484.073, 18232.50
5486.001, 18223.01
5487.930, 18149.31
5489.858, 18146.62
5491.787, 18056.04
5493.715, 17962.67
5495.644, 17917.96
5497.572, 17877.71
5499.500, 17820.18
5501.429, 17796.80
5503.357, 17854.46
5505.286, 17805.03
5507.214, 17715.75
5509.143, 17649.91
5511.071, 17675.35
5513.000, 17645.79
5514.928, 17594.57
5516.856, 17549.82
5518.785, 17547.60
5520.713, 17496.02
5522.642, 17443.33
5524.570, 17422.00
5526.499, 17418.25
5528.427, 17370.51
5530.356, 17296.42
5532.284, 17229.46
5534.213, 17280.25
5536.141, 17240.82
5538.070, 17167.31
5539.998, 17212.72
5541.927, 17145.30
5543.855, 17098.53
5545.784, 17068.17
5547.712, 16871.42
5549.641, 16842.52
5551.569, 16839.90
5553.498, 16790.81
5555.426, 16720.51
5557.354, 16729.07
5559.283, 16771.12
5561.211, 16787.03
5563.140, 16633.55
5565.068, 16607.84
5566.997, 16634.14
5568.925, 16601.27
5570.854, 16525.07
5572.782, 16416.89
5574.710, 16348.08
5576.639, 16422.75
5578.567, 16444.42
5580.496, 16354.46
5582.424, 16226.90
5584.353, 16203.86
5586.281, 16172.32
5588.210, 16135.77
5590.138, 16101.51
5592.067, 16075.97
5593.995, 16045.63
5595.924, 16009.22
5597.852, 15962.15
5599.781, 15870.14
5601.709, 15888.62
5603.638, 15917.47
5605.566, 15906.66
5607.495, 15883.52
5609.423, 15919.18
5611.352, 15882.19
5613.280, 15741.62
5615.208, 15738.95
5617.137, 15707.33
5619.065, 15691.82
5620.994, 15720.42
5622.922, 15687.03
5624.851, 15654.18
5626.779, 15630.91
5628.708, 15605.52
5630.636, 15471.19
5632.564, 15463.92
5634.493, 15441.46
5636.421, 15279.35
5638.350, 15295.23
5640.278, 15244.57
5642.207, 15197.29
5644.135, 15244.59
5646.064, 15236.10
5647.992, 15204.85
5649.921, 15179.95
5651.849, 15170.63
5653.778, 15100.56
5655.706, 14961.35
5657.635, 14830.80
5659.563, 14785.61
5661.492, 14971.04
5663.420, 14908.32
5665.349, 14789.85
5667.277, 14855.71
5669.206, 14926.36
5671.134, 14841.15
5673.063, 14743.59
5674.991, 14767.70
5676.919, 14669.70
5678.848, 14697.79
5680.776, 14691.99
5682.705, 14534.72
5684.633, 14576.75
5686.562, 14625.54
5688.490, 14568.92
5690.418, 14402.05
5692.347, 14396.72
5694.275, 14384.40
5696.204, 14383.95
5698.132, 14400.03
5700.061, 14277.59
5701.989, 14260.66
5703.918, 14296.59
5705.846, 14317.48
5707.775, 14239.77
5709.703, 14161.19
5711.632, 14095.62
5713.560, 14064.63
5715.489, 14136.83
5717.417, 14135.76
5719.346, 14097.82
5721.274, 14053.51
5723.203, 14013.67
5725.131, 13943.84
5727.060, 13911.04
5728.988, 13886.72
5730.917, 13787.15
5732.845, 13767.25
5734.773, 13765.23
5736.702, 13726.12
5738.630, 13612.72
5740.559, 13616.64
5742.487, 13654.22
5744.416, 13666.81
5746.344, 13621.30
5748.272, 13486.80
5750.201, 13444.49
5752.129, 13450.22
5754.058, 13442.63
5755.986, 13416.48
5757.915, 13346.77
5759.843, 13273.79
5761.772, 13239.09
5763.700, 13288.96
5765.629, 13325.42
5767.557, 13315.67
5769.486, 13266.20
5771.414, 13204.45
5773.343, 13164.11
5775.271, 13120.04
5777.200, 13069.89
5779.128, 13022.68
5781.057, 13016.38
5782.985, 13007.98
5784.914, 13001.58
5786.842, 13004.75
5788.771, 13004.14
5790.699, 12865.28
5792.627, 12771.39
5794.556, 12790.34
5796.484, 12781.24
5798.413, 12825.74
5800.341, 12801.29
5802.270, 12706.42
5804.198, 12618.93
5806.126, 12588.64
5808.055, 12540.59
5809.983, 12514.99
5811.912, 12538.79
5813.840, 12323.36
5815.769, 12408.48
5817.697, 12472.98
5819.626, 12339.85
5821.554, 12261.65
5823.483, 12301.24
5825.411, 12319.72
5827.340, 12282.97
5829.268, 12233.79
5831.197, 12245.29
5833.125, 12184.58
5835.054, 12083.70
5836.982, 12009.10
5838.911, 12037.93
5840.839, 12014.01
5842.768, 11985.50
5844.696, 11988.78
5846.625, 12048.74
5848.553, 11887.11
5850.481, 11805.85
5852.410, 11862.93
5854.338, 11984.82
5856.267, 11873.12
5858.195, 11737.34
5860.124, 11659.01
5862.052, 11653.62
5863.980, 11688.63
5865.909, 11651.98
5867.837, 11579.23
5869.766, 11514.13
5871.694, 11491.02
5873.623, 11557.60
5875.551, 11526.81
5877.480, 11493.77
5879.408, 11519.14
5881.337, 11461.90
5883.265, 11397.26
5885.194, 11274.27
5887.122, 11171.91
5889.051, 11222.50
5890.979, 11218.08
5892.908, 11197.15
5894.836, 11156.08
5896.765, 11102.47
5898.693, 11131.13
5900.622, 11017.52
5902.550, 10995.61
5904.479, 11025.79
5906.407, 10916.61
5908.335, 10923.99
5910.264, 10893.14
5912.192, 10880.35
5914.121, 10901.61
5916.049, 10840.70
5917.978, 10771.64
5919.906, 10752.43
5921.834, 10764.32
5923.763, 10767.42
5925.691, 10766.12
5927.620, 10699.81
5929.548, 10630.26
5931.477, 10580.19
5933.405, 10526.34
5935.334, 10525.50
5937.262, 10476.30
5939.191, 10489.63
5941.119, 10588.98
5943.048, 10473.13
5944.976, 10428.70
5946.905, 10448.67
5948.833, 10443.78
5950.762, 10352.17
5952.690, 10349.27
5954.619, 10345.75
5956.547, 10297.46
5958.476, 10249.92
5960.404, 10299.20
5962.333, 10162.11
5964.261, 10079.05
5966.189, 10151.45
5968.118, 10295.63
5970.046, 10170.03
5971.975, 10032.66
5973.903, 10067.36
5975.832, 10081.23
5977.760, 9918.202
5979.688, 10057.20
5981.617, 9998.374
5983.545, 9870.924
5985.474, 9787.060
5987.402, 9780.563
5989.331, 9825.454
5991.259, 9773.187
5993.188, 9742.027
5995.116, 9758.619
5997.045, 9735.206
5998.973, 9738.897
6000.902, 9735.717
6002.830, 9696.188
6004.759, 9618.758
6006.687, 9526.005
6008.616, 9452.826
6010.544, 9468.063
6012.473, 9485.253
6014.401, 9438.999
6016.330, 9350.804
6018.258, 9333.918
6020.187, 9347.877
6022.115, 9329.316
6024.043, 9267.823
6025.972, 9315.159
6027.900, 9239.586
6029.829, 9211.565
6031.757, 9231.258
6033.686, 9226.474
6035.614, 9100.300
6037.542, 9161.101
6039.471, 9194.233
6041.399, 9177.094
6043.328, 9162.293
6045.256, 9029.071
6047.185, 9107.031
6049.113, 9114.372
6051.042, 9031.605
6052.970, 8966.119
6054.899, 8938.332
6056.827, 8861.216
6058.756, 8887.948
6060.684, 8975.893
6062.613, 9004.414
6064.541, 8897.305
6066.470, 8844.031
6068.398, 8838.287
6070.327, 8830.498
6072.255, 8788.911
6074.184, 8762.313
6076.112, 8791.093
6078.041, 8798.429
6079.969, 8749.173
6081.897, 8661.964
6083.826, 8657.067
6085.754, 8596.896
6087.683, 8479.983
6089.611, 8449.740
6091.540, 8563.538
6093.468, 8614.176
6095.396, 8600.278
6097.325, 8574.347
6099.253, 8517.711
6101.182, 8442.888
6103.110, 8445.487
6105.039, 8445.641
6106.967, 8391.452
6108.896, 8350.813
6110.824, 8337.144
6112.753, 8281.314
6114.681, 8199.180
6116.610, 8272.115
6118.538, 8299.818
6120.467, 8254.431
6122.395, 8268.155
6124.324, 8178.743
6126.252, 8184.309
6128.181, 8189.424
6130.109, 8139.122
6132.038, 8048.004
6133.966, 8030.352
6135.895, 8033.090
6137.823, 8109.995
6139.751, 8134.545
6141.680, 8050.998
6143.608, 8052.847
6145.537, 8065.854
6147.465, 7992.885
6149.394, 7957.326
6151.322, 7976.042
6153.250, 7914.252
6155.179, 7911.164
6157.107, 7853.323
6159.036, 7821.327
6160.964, 7799.566
6162.893, 7743.128
6164.821, 7848.493
6166.750, 7774.472
6168.678, 7759.974
6170.607, 7785.446
6172.535, 7785.450
6174.464, 7810.880
6176.392, 7673.335
6178.321, 7727.662
6180.249, 7764.036
6182.178, 7730.645
6184.106, 7749.784
6186.035, 7762.660
6187.963, 7753.322
6189.892, 7665.823
6191.820, 7596.610
6193.749, 7611.338
6195.677, 7631.968
6197.605, 7649.551
6199.534, 7630.604
6201.462, 7644.474
6203.391, 7647.633
6205.319, 7567.915
6207.248, 7611.653
6209.176, 7691.917
6211.104, 7611.136
6213.033, 7567.223
6214.961, 7646.443
6216.890, 7621.045
6218.818, 7597.921
6220.747, 7556.594
6222.675, 7526.922
6224.604, 7546.799
6226.532, 7604.088
6228.461, 7573.243
6230.389, 7485.461
6232.318, 7539.906
6234.246, 7538.790
6236.175, 7459.687
6238.103, 7475.958
6240.032, 7446.539
6241.960, 7448.653
6243.889, 7457.434
6245.817, 7468.790
6247.746, 7449.060
6249.674, 7323.329
6251.603, 7256.893
6253.531, 7299.265
6255.459, 7317.317
6257.388, 7303.446
6259.316, 7290.022
6261.245, 7223.258
6263.173, 7218.968
6265.102, 7223.126
6267.030, 7174.391
6268.958, 7120.998
6270.887, 7133.564
6272.815, 7177.985
6274.744, 7188.236
6276.672, 7131.044
6278.601, 7160.966
6280.529, 7204.554
6282.458, 7116.832
6284.386, 7237.119
6286.315, 7183.582
6288.243, 7230.759
6290.172, 7203.945
6292.100, 7130.924
6294.029, 7187.856
6295.957, 7141.639
6297.886, 7120.068
6299.814, 7104.657
6301.743, 7059.984
6303.671, 7032.036
6305.600, 7071.986
6307.528, 7038.827
6309.457, 6994.939
6311.385, 6925.165
6313.313, 6882.800
6315.242, 6899.629
6317.170, 6933.053
6319.099, 6784.554
6321.027, 6801.182
6322.956, 6809.876
6324.884, 6817.185
6326.813, 6804.872
6328.741, 6750.545
6330.669, 6830.992
6332.598, 6724.934
6334.526, 6698.034
6336.455, 6683.536
6338.383, 6668.048
6340.312, 6680.274
6342.240, 6660.215
6344.169, 6703.604
6346.097, 6639.533
6348.026, 6672.600
6349.954, 6709.241
6351.883, 6702.737
6353.811, 6855.666
6355.740, 6841.271
6357.668, 6949.523
6359.597, 7007.434
6361.525, 6983.750
6363.454, 7164.174
6365.382, 7701.694
6367.311, 7389.211
6369.239, 7441.025
6371.167, 7509.791
6373.096, 7657.852
6375.024, 7838.318
6376.953, 7921.828
6378.881, 7985.777
6380.810, 8056.313
6382.738, 8176.548
6384.667, 8206.028
6386.595, 8256.254
6388.523, 8358.190
6390.452, 8332.605
6392.380, 8321.989
6394.309, 8222.792
6396.237, 8158.804
6398.166, 8087.627
6400.094, 8008.812
6402.023, 7916.258
6403.951, 7668.979
6405.880, 7617.152
6407.808, 7476.906
6409.737, 7409.663
6411.665, 7303.609
6413.594, 7107.586
6415.522, 6983.044
6417.451, 7029.247
6419.379, 6852.198
6421.308, 6774.169
6423.236, 6702.834
6425.165, 6637.712
6427.093, 6612.356
6429.021, 6531.352
6430.950, 6497.040
6432.878, 6388.302
6434.807, 6372.426
6436.735, 6321.924
6438.664, 6243.914
6440.592, 6253.976
6442.521, 6336.011
6444.449, 6255.327
6446.377, 6147.657
6448.306, 6123.901
6450.234, 6122.692
6452.163, 6096.129
6454.091, 6073.755
6456.020, 6118.823
6457.948, 6103.948
6459.877, 6074.888
6461.805, 6003.484
6463.734, 5980.349
6465.662, 5996.573
6467.591, 5963.643
6469.519, 5910.755
6471.448, 5942.336
6473.376, 5847.679
6475.305, 5786.531
6477.233, 5766.158
6479.162, 5743.618
6481.090, 5698.068
6483.019, 5605.664
6484.947, 5651.414
6486.875, 5546.567
6488.804, 5560.536
6490.732, 5560.252
6492.661, 5476.220
6494.589, 5391.890
6496.518, 5338.929
6498.446, 5331.815
6500.375, 5282.247
6502.303, 5342.442
6504.231, 5342.288
6506.160, 5275.199
6508.088, 5204.943
6510.017, 5084.688
6511.945, 5130.787
6513.874, 5068.955
6515.802, 5072.853
6517.731, 5050.804
6519.659, 5036.008
6521.588, 5032.856
6523.516, 4972.006
6525.445, 5003.511
6527.373, 4917.026
6529.302, 4902.275
6531.230, 4892.454
6533.159, 4897.819
6535.087, 4892.858
6537.016, 4859.506
6538.944, 4868.604
6540.873, 4800.610
6542.801, 4763.005
6544.729, 4727.875
6546.658, 4687.432
6548.586, 4673.540
6550.515, 4656.620
6552.443, 4610.587
6554.372, 4725.568
6556.300, 4666.456
6558.229, 4638.967
6560.157, 4659.791
6562.085, 4638.125
6564.014, 4598.479
6565.942, 4585.392
6567.871, 4572.463
6569.799, 4573.651
6571.728, 4602.315
6573.656, 4533.864
6575.585, 4535.831
6577.513, 4565.667
6579.442, 4553.750
6581.370, 4508.249
6583.299, 4480.056
6585.227, 4517.711
6587.156, 4478.056
6589.084, 4488.913
6591.013, 4488.994
6592.941, 4516.807
##END=



