##NAMES=Demesmaekerite
##RRUFFID=R080130
##IDEAL CHEMISTRY=Pb_2_Cu_5_(UO_2_)_2_(Se^4+^O_3_)_6_(OH)_6_·2H_2_O
##LOCALITY=Musonoi mine, Kolwezi, Katanga, Congo
##OWNER=RRUFF
##SOURCE=William W. Pinch
##DESCRIPTION=Dark green to light brownish green bladed crystals
##STATUS=The identification of this mineral has been confirmed by single-crystal X-ray diffraction
##URL=https://www.rruff.net/odr/rruff_sample/R080130
##DIFFRACTION SAMPLE DESCRIPTION=Single crystal, powder profile is calculated
##CELL PARAMETERS=a: 11.93 b: 10.033 c: 5.632 alpha: 89.77 beta: 100.39 gamma: 91.4 volume: 662.8 crystal system: triclinic
##FILETYPE=Raman RAW
##RAMAN WAVELENGTH=780

83.53443, 58.20232
85.46290, 64.66485
87.39137, 72.17457
89.31983, 80.52188
91.24830, 90.02247
93.17677, 99.29563
95.10523, 98.84647
97.03370, 98.14247
98.96217, 97.34239
100.8906, 96.60058
102.8191, 95.90625
104.7476, 95.17457
106.6760, 94.48694
108.6045, 93.98019
110.5330, 93.54145
112.4614, 93.44099
114.3899, 93.81908
116.3184, 94.23641
118.2468, 94.36046
120.1753, 94.35535
122.1038, 94.68108
124.0322, 95.30501
125.9607, 95.78157
127.8892, 96.07764
129.8176, 96.04537
131.7461, 95.27914
133.6746, 94.25203
135.6030, 94.05099
137.5315, 94.64829
139.4600, 94.61328
141.3884, 93.50912
143.3169, 91.90005
145.2454, 89.69389
147.1738, 87.21779
149.1023, 84.80694
151.0308, 82.47027
152.9592, 80.59872
154.8877, 79.10435
156.8162, 78.37903
158.7446, 78.88463
160.6731, 79.93654
162.6016, 80.84408
164.5300, 81.65931
166.4585, 82.63170
168.3870, 83.92616
170.3154, 85.13241
172.2439, 86.25571
174.1724, 87.20615
176.1008, 87.92828
178.0293, 88.41832
179.9578, 88.59161
181.8862, 88.33411
183.8147, 88.00071
185.7432, 88.05247
187.6716, 87.59809
189.6001, 85.74776
191.5286, 83.22183
193.4570, 81.16515
195.3855, 79.75522
197.3140, 78.20295
199.2424, 76.26928
201.1709, 74.46313
203.0994, 72.93031
205.0278, 71.62648
206.9563, 70.51564
208.8848, 69.60719
210.8132, 68.77665
212.7417, 68.19443
214.6702, 67.41917
216.5986, 66.19572
218.5271, 64.97619
220.4556, 64.05595
222.3840, 63.35882
224.3125, 62.62893
226.2410, 61.70096
228.1694, 61.19273
230.0979, 61.37524
232.0264, 61.55152
233.9548, 61.25513
235.8833, 60.89333
237.8118, 60.89889
239.7402, 61.28209
241.6687, 61.88535
243.5972, 62.93693
245.5256, 63.58506
247.4541, 63.31154
249.3826, 62.89098
251.3110, 62.93213
253.2395, 63.19111
255.1680, 62.88560
257.0964, 61.91097
259.0249, 61.14285
260.9534, 60.67067
262.8818, 60.37761
264.8103, 60.28686
266.7388, 60.27816
268.6672, 60.26756
270.5957, 60.25737
272.5242, 60.25188
274.4526, 60.26655
276.3811, 60.19843
278.3096, 60.09163
280.2380, 59.79033
282.1665, 59.15423
284.0950, 58.31683
286.0234, 57.39903
287.9519, 56.43155
289.8804, 55.76917
291.8088, 55.53050
293.7373, 55.25233
295.6658, 54.73542
297.5942, 54.21230
299.5227, 53.84002
301.4512, 53.53408
303.3796, 53.11248
305.3081, 52.59014
307.2366, 52.10292
309.1650, 51.73074
311.0935, 51.23709
313.0220, 50.42777
314.9504, 49.64051
316.8789, 49.18188
318.8074, 48.86260
320.7358, 48.22900
322.6643, 47.29042
324.5928, 46.65008
326.5212, 46.55910
328.4497, 46.49611
330.3782, 46.45615
332.3066, 46.30244
334.2351, 45.84129
336.1636, 45.27770
338.0920, 44.95378
340.0205, 44.87321
341.9490, 44.65789
343.8774, 44.00325
345.8059, 43.63339
347.7344, 43.78167
349.6628, 44.06052
351.5913, 44.34228
353.5198, 44.55059
355.4482, 44.53119
357.3767, 44.27283
359.3052, 44.15160
361.2336, 44.08085
363.1621, 44.33157
365.0906, 45.31499
367.0190, 46.16017
368.9475, 46.31487
370.8760, 46.17466
372.8044, 46.13227
374.7329, 46.19083
376.6614, 46.37096
378.5898, 46.85987
380.5183, 47.04131
382.4468, 46.63523
384.3752, 46.36806
386.3037, 46.63127
388.2322, 47.05186
390.1606, 47.36712
392.0891, 47.58979
394.0176, 47.76555
395.9460, 47.92078
397.8745, 48.01169
399.8030, 48.09673
401.7314, 47.93276
403.6599, 47.26036
405.5884, 46.55757
407.5168, 46.19426
409.4453, 45.93587
411.3738, 45.34542
413.3022, 44.43921
415.2307, 43.75148
417.1592, 43.28474
419.0876, 42.90021
421.0161, 42.64327
422.9446, 42.36820
424.8730, 41.96995
426.8015, 41.53891
428.7300, 41.18828
430.6584, 40.89110
432.5869, 40.45511
434.5154, 39.86390
436.4438, 39.42285
438.3723, 39.15496
440.3008, 39.08062
442.2292, 39.39489
444.1577, 39.64716
446.0862, 39.59885
448.0146, 39.44954
449.9431, 39.41076
451.8716, 39.45514
453.8000, 39.50248
455.7285, 39.55486
457.6570, 39.55040
459.5854, 39.46452
461.5139, 39.35702
463.4424, 39.22396
465.3708, 39.09927
467.2993, 39.01850
469.2278, 38.93059
471.1563, 38.77563
473.0847, 38.58393
475.0132, 38.43245
476.9417, 38.32594
478.8701, 38.14622
480.7986, 37.82442
482.7271, 37.54089
484.6555, 37.27425
486.5840, 37.10763
488.5125, 37.09094
490.4409, 37.20331
492.3694, 37.60914
494.2979, 38.03567
496.2263, 37.78748
498.1548, 36.82131
500.0833, 36.23618
502.0117, 36.28679
503.9402, 36.40184
505.8687, 36.64094
507.7971, 36.79382
509.7256, 36.76168
511.6541, 36.62897
513.5825, 36.45436
515.5110, 36.24352
517.4395, 36.01891
519.3679, 35.78190
521.2964, 35.41626
523.2249, 34.73802
525.1533, 34.35648
527.0818, 34.51544
529.0103, 34.54786
530.9387, 34.21706
532.8672, 33.84958
534.7957, 33.55278
536.7241, 33.36843
538.6526, 33.38539
540.5811, 33.55556
542.5095, 33.76603
544.4380, 34.03556
546.3665, 34.01345
548.2949, 33.59632
550.2234, 33.30124
552.1519, 33.19986
554.0803, 33.19472
556.0088, 33.40004
557.9373, 33.47076
559.8657, 33.00488
561.7942, 32.50209
563.7227, 32.62120
565.6511, 33.12854
567.5796, 33.30275
569.5081, 33.12275
571.4365, 32.94859
573.3650, 32.78198
575.2935, 32.75209
577.2219, 32.91962
579.1504, 33.06065
581.0789, 33.11825
583.0073, 33.14149
584.9358, 33.05954
586.8643, 33.00651
588.7927, 33.19276
590.7212, 33.46484
592.6497, 33.46553
594.5781, 33.27147
596.5066, 33.31176
598.4351, 33.60836
600.3635, 33.70252
602.2920, 33.42443
604.2205, 33.29872
606.1489, 33.65239
608.0774, 33.90213
610.0059, 33.77708
611.9343, 33.64974
613.8628, 33.75094
615.7913, 33.91520
617.7197, 34.05643
619.6482, 34.17236
621.5767, 34.12739
623.5051, 33.97872
625.4336, 34.09440
627.3621, 34.52740
629.2905, 34.96288
631.2190, 35.47580
633.1475, 35.78914
635.0759, 35.62649
637.0044, 35.61961
638.9329, 36.10823
640.8613, 36.66840
642.7898, 36.99155
644.7183, 37.25582
646.6467, 37.71758
648.5752, 38.24948
650.5037, 38.54835
652.4321, 38.63590
654.3606, 38.82094
656.2891, 39.15314
658.2175, 39.41420
660.1460, 39.57938
662.0745, 39.69227
664.0029, 39.70654
665.9314, 39.79188
667.8599, 40.02638
669.7883, 40.22902
671.7168, 40.22035
673.6453, 40.26791
675.5737, 40.76706
677.5022, 41.29832
679.4307, 41.16528
681.3591, 40.62134
683.2876, 40.49607
685.2161, 40.77671
687.1445, 41.03595
689.0730, 41.31437
691.0015, 41.60850
692.9299, 41.89064
694.8584, 42.10442
696.7869, 42.19752
698.7153, 42.42510
700.6438, 43.02928
702.5723, 43.45930
704.5007, 43.36679
706.4292, 43.12694
708.3577, 42.75047
710.2861, 42.47300
712.2146, 42.68880
714.1431, 43.27037
716.0715, 43.78340
718.0000, 44.24381
719.9285, 44.99627
721.8569, 46.03855
723.7854, 47.26372
725.7139, 48.68121
727.6423, 50.01933
729.5708, 51.14211
731.4993, 52.77262
733.4277, 55.24656
735.3562, 57.78526
737.2847, 60.18671
739.2131, 62.60030
741.1416, 65.00010
743.0701, 67.50516
744.9985, 70.33777
746.9270, 73.14128
748.8555, 75.87231
750.7839, 78.12429
752.7124, 79.00740
754.6409, 79.01330
756.5693, 79.35108
758.4978, 79.83569
760.4263, 79.74027
762.3547, 79.10268
764.2832, 78.71359
766.2117, 78.59747
768.1401, 78.96941
770.0686, 79.80692
771.9971, 81.29382
773.9255, 83.43998
775.8540, 86.25331
777.7825, 90.01812
779.7109, 94.01036
781.6394, 97.73903
783.5679, 102.1219
785.4963, 107.8504
787.4248, 113.9557
789.3533, 119.9432
791.2817, 126.0214
793.2102, 132.5633
795.1387, 138.9592
797.0671, 145.1383
798.9956, 150.2424
800.9241, 152.4780
802.8525, 151.8589
804.7810, 148.2887
806.7095, 141.7995
808.6379, 133.8780
810.5664, 124.3508
812.4949, 114.1603
814.4233, 102.5712
816.3518, 92.55154
818.2803, 84.21066
820.2087, 77.18302
822.1372, 71.59254
824.0657, 66.90187
825.9941, 63.08651
827.9226, 59.93164
829.8511, 57.54243
831.7795, 55.53790
833.7080, 53.76755
835.6365, 52.20895
837.5649, 50.89495
839.4934, 49.86279
841.4219, 49.07824
843.3503, 48.54028
845.2788, 48.41882
847.2073, 48.42848
849.1357, 48.12865
851.0642, 47.71043
852.9927, 47.73357
854.9211, 47.95221
856.8496, 47.48470
858.7781, 46.53822
860.7065, 46.07016
862.6350, 45.92980
864.5635, 45.32822
866.4919, 44.33125
868.4204, 43.16236
870.3489, 41.83980
872.2773, 40.90493
874.2058, 40.41597
876.1343, 39.70713
878.0627, 38.64875
879.9912, 37.89062
881.9197, 37.55280
883.8481, 37.38578
885.7766, 37.43892
887.7051, 37.42395
889.6335, 37.30236
891.5620, 37.07964
893.4905, 36.64750
895.4189, 36.26341
897.3474, 36.10513
899.2759, 35.84930
901.2043, 35.28446
903.1328, 34.75011
905.0613, 34.41187
906.9897, 34.14837
908.9182, 33.86827
910.8467, 33.58939
912.7751, 33.38478
914.7036, 33.22353
916.6321, 33.11260
918.5605, 32.90152
920.4890, 32.32154
922.4175, 31.81340
924.3459, 31.86034
926.2744, 32.07931
928.2029, 32.16682
930.1313, 32.12000
932.0598, 31.87358
933.9883, 31.53635
935.9167, 31.18592
937.8452, 30.90199
939.7737, 30.97870
941.7021, 31.28111
943.6306, 31.41133
945.5591, 31.42162
947.4875, 31.49326
949.4160, 31.56722
951.3445, 31.33847
953.2729, 30.87643
955.2014, 30.82576
957.1299, 31.14566
959.0583, 31.15691
960.9868, 30.88262
962.9153, 30.62204
964.8438, 30.35465
966.7722, 30.16109
968.7007, 30.05148
970.6292, 30.11503
972.5576, 30.35293
974.4861, 30.30425
976.4146, 29.95266
978.3430, 29.74819
980.2715, 29.70110
982.2000, 29.73403
984.1284, 29.87753
986.0569, 30.06315
987.9854, 30.25124
989.9138, 30.28285
991.8423, 30.16681
993.7708, 29.95623
995.6992, 29.61367
997.6277, 29.45658
999.5562, 29.56490
1001.485, 29.64208
1003.413, 29.64141
1005.342, 29.57104
1007.270, 29.41918
1009.198, 29.32668
1011.127, 29.33256
1013.055, 29.29545
1014.984, 29.16617
1016.912, 29.07456
1018.841, 29.03635
1020.769, 29.12605
1022.698, 29.44765
1024.626, 29.49299
1026.555, 29.06538
1028.483, 28.82420
1030.412, 28.92997
1032.340, 28.98483
1034.269, 28.90469
1036.197, 28.87294
1038.125, 28.96313
1040.054, 28.95461
1041.982, 28.78750
1043.911, 28.65369
1045.839, 28.51740
1047.768, 28.45862
1049.696, 28.54562
1051.625, 28.60192
1053.553, 28.63746
1055.482, 28.57675
1057.410, 28.30227
1059.339, 28.32885
1061.267, 28.88208
1063.196, 29.00286
1065.124, 28.47518
1067.052, 28.20219
1068.981, 28.31318
1070.909, 28.16386
1072.838, 27.63296
1074.766, 27.49128
1076.695, 27.85167
1078.623, 28.01473
1080.552, 27.94753
1082.480, 27.90538
1084.409, 27.86370
1086.337, 27.70587
1088.266, 27.43626
1090.194, 27.46413
1092.123, 27.82962
1094.051, 28.01419
1095.979, 27.96209
1097.908, 27.81959
1099.836, 27.62720
1101.765, 27.71309
1103.693, 28.02825
1105.622, 27.87499
1107.550, 27.32922
1109.479, 27.09491
1111.407, 27.15486
1113.336, 27.28069
1115.264, 27.39634
1117.193, 27.35304
1119.121, 27.20782
1121.050, 26.95566
1122.978, 26.69129
1124.906, 26.77209
1126.835, 27.00290
1128.763, 26.98600
1130.692, 26.90558
1132.620, 27.08848
1134.549, 27.33595
1136.477, 27.35590
1138.406, 27.20541
1140.334, 26.89017
1142.263, 26.56595
1144.191, 26.35823
1146.120, 26.33856
1148.048, 26.69251
1149.977, 27.07769
1151.905, 27.23073
1153.833, 27.21154
1155.762, 27.02829
1157.690, 26.86146
1159.619, 26.71731
1161.547, 26.65887
1163.476, 26.79824
1165.404, 26.94084
1167.333, 27.02480
1169.261, 27.06709
1171.190, 27.02923
1173.118, 27.04702
1175.047, 27.24607
1176.975, 27.31458
1178.904, 27.03968
1180.832, 26.99110
1182.760, 27.41544
1184.689, 27.63713
1186.617, 27.51792
1188.546, 27.36031
1190.474, 27.19349
1192.403, 27.00522
1194.331, 26.77129
1196.260, 26.63416
1198.188, 26.60431
1200.117, 26.69411
1202.045, 26.85352
1203.974, 26.94594
1205.902, 26.99576
1207.831, 26.76545
1209.759, 26.43681
1211.688, 26.73363
1213.616, 27.26965
1215.544, 27.27444
1217.473, 27.06890
1219.401, 27.11301
1221.330, 27.16053
1223.258, 26.80916
1225.187, 26.55004
1227.115, 26.82398
1229.044, 27.18494
1230.972, 27.57119
1232.901, 27.72719
1234.829, 27.38705
1236.758, 27.08648
1238.686, 26.94677
1240.615, 26.89865
1242.543, 26.93759
1244.471, 27.00483
1246.400, 27.11518
1248.328, 27.07513
1250.257, 26.87106
1252.185, 26.86052
1254.114, 27.04172
1256.042, 27.01187
1257.971, 26.81672
1259.899, 26.99141
1261.828, 27.35002
1263.756, 27.23180
1265.685, 26.91204
1267.613, 26.85394
1269.542, 26.92247
1271.470, 26.99542
1273.398, 27.07421
1275.327, 27.19326
1277.255, 27.30050
1279.184, 27.30989
1281.112, 27.31035
1283.041, 27.41703
1284.969, 27.47235
1286.898, 27.32263
1288.826, 27.27910
1290.755, 27.47289
1292.683, 27.64120
1294.612, 27.74072
1296.540, 27.78287
1298.469, 27.76894
1300.397, 27.70338
1302.325, 27.61353
1304.254, 27.63675
1306.182, 27.76653
1308.111, 28.07166
1310.039, 28.30446
1311.968, 27.88490
1313.896, 27.39691
1315.825, 27.54605
1317.753, 27.83912
1319.682, 27.89156
1321.610, 27.93879
1323.539, 28.19038
1325.467, 28.37551
1327.396, 28.36367
1329.324, 28.27351
1331.252, 28.13554
1333.181, 28.02214
1335.109, 27.93721
1337.038, 28.07840
1338.966, 28.43339
1340.895, 28.37575
1342.823, 28.04978
1344.752, 28.20714
1346.680, 28.56359
1348.609, 28.73335
1350.537, 28.74631
1352.466, 28.39310
1354.394, 28.00700
1356.323, 27.83207
1358.251, 27.82586
1360.179, 28.07837
1362.108, 28.23529
1364.036, 28.22826
1365.965, 28.10858
1367.893, 27.85925
1369.822, 27.85719
1371.750, 28.09134
1373.679, 28.19574
1375.607, 28.22431
1377.536, 28.38154
1379.464, 28.51641
1381.393, 28.35883
1383.321, 28.22011
1385.250, 28.47998
1387.178, 28.68472
1389.106, 28.48796
1391.035, 28.40499
1392.963, 28.70675
1394.892, 28.80804
1396.820, 28.54468
1398.749, 28.34665
1400.677, 28.21325
1402.606, 28.35835
1404.534, 28.68603
1406.463, 28.67202
1408.391, 28.53678
1410.320, 28.58642
1412.248, 28.63823
1414.177, 28.70015
1416.105, 28.70874
1418.033, 28.46428
1419.962, 28.32949
1421.890, 28.51565
1423.819, 28.72853
1425.747, 28.86000
1427.676, 28.79667
1429.604, 28.58465
1431.533, 28.63226
1433.461, 28.80764
1435.390, 28.69963
1437.318, 28.47472
1439.247, 28.30296
1441.175, 28.22970
1443.104, 28.31529
1445.032, 28.42135
1446.960, 28.61671
1448.889, 28.58356
1450.817, 28.14725
1452.746, 28.15501
1454.674, 28.66779
1456.603, 29.07456
1458.531, 29.28178
1460.460, 28.75937
1462.388, 28.05321
1464.317, 28.19644
1466.245, 28.57828
1468.174, 28.84534
1470.102, 28.86003
1472.031, 28.29161
1473.959, 27.99093
1475.887, 28.15966
1477.816, 28.23515
1479.744, 28.17404
1481.673, 28.31442
1483.601, 28.55431
1485.530, 28.32300
1487.458, 27.99335
1489.387, 28.11728
1491.315, 28.22968
1493.244, 27.87526
1495.172, 27.67284
1497.101, 27.97049
1499.029, 28.21360
1500.958, 28.38176
1502.886, 28.20059
1504.814, 27.69937
1506.743, 27.59841
1508.671, 27.78629
1510.600, 27.96102
1512.528, 28.06730
1514.457, 28.14407
1516.385, 28.12612
1518.314, 27.83721
1520.242, 27.72162
1522.171, 28.01961
1524.099, 28.17721
1526.028, 28.11728
1527.956, 28.05652
1529.885, 28.04898
1531.813, 28.15924
1533.741, 28.28935
1535.670, 28.42707
1537.598, 28.42820
1539.527, 28.23110
1541.455, 28.09163
1543.384, 27.99430
1545.312, 27.92643
1547.241, 27.93890
1549.169, 28.14260
1551.098, 28.35096
1553.026, 28.18254
1554.955, 27.87754
1556.883, 27.50338
1558.812, 27.38051
1560.740, 27.71099
1562.668, 27.84487
1564.597, 27.75216
1566.525, 27.64250
1568.454, 27.59114
1570.382, 27.76556
1572.311, 27.89192
1574.239, 27.64453
1576.168, 27.53262
1578.096, 28.04029
1580.025, 28.23034
1581.953, 27.76850
1583.882, 27.74394
1585.810, 28.07011
1587.739, 28.14412
1589.667, 28.07391
1591.595, 27.86735
1593.524, 27.73008
1595.452, 27.82531
1597.381, 27.86672
1599.309, 27.80219
1601.238, 27.74103
1603.166, 27.70148
1605.095, 27.87723
1607.023, 28.11203
1608.952, 27.90010
1610.880, 27.70208
1612.809, 28.17021
1614.737, 28.33103
1616.666, 27.48834
1618.594, 27.03529
1620.522, 27.37904
1622.451, 27.49893
1624.379, 27.44220
1626.308, 27.64696
1628.236, 27.83582
1630.165, 27.58612
1632.093, 27.37222
1634.022, 27.39044
1635.950, 27.35349
1637.879, 27.25064
1639.807, 27.24768
1641.736, 27.21887
1643.664, 27.18480
1645.593, 27.22174
1647.521, 27.31310
1649.449, 27.19507
1651.378, 26.60473
1653.306, 26.41549
1655.235, 26.85827
1657.163, 27.18999
1659.092, 27.25240
1661.020, 27.10572
1662.949, 26.96229
1664.877, 26.92965
1666.806, 26.83798
1668.734, 26.61496
1670.663, 26.72882
1672.591, 27.18376
1674.520, 27.12853
1676.448, 26.80935
1678.376, 26.65476
1680.305, 26.59830
1682.233, 26.90986
1684.162, 27.08358
1686.090, 26.70330
1688.019, 26.43211
1689.947, 26.33665
1691.876, 26.39179
1693.804, 26.65646
1695.733, 26.98516
1697.661, 27.04368
1699.590, 26.85109
1701.518, 26.72712
1703.447, 26.55779
1705.375, 26.49319
1707.303, 26.53777
1709.232, 26.43999
1711.160, 26.29828
1713.089, 26.31063
1715.017, 26.45493
1716.946, 26.41412
1718.874, 26.30205
1720.803, 26.51231
1722.731, 26.70424
1724.660, 26.61147
1726.588, 26.31888
1728.517, 26.13865
1730.445, 26.12691
1732.374, 26.13781
1734.302, 26.10350
1736.230, 25.95118
1738.159, 25.86954
1740.087, 26.08019
1742.016, 26.20603
1743.944, 26.05371
1745.873, 26.07994
1747.801, 26.17562
1749.730, 25.98638
1751.658, 25.76085
1753.587, 25.63447
1755.515, 25.62862
1757.444, 25.82809
1759.372, 25.93667
1761.301, 25.88774
1763.229, 25.67381
1765.157, 25.40772
1767.086, 25.52054
1769.014, 25.72284
1770.943, 25.51757
1772.871, 25.39878
1774.800, 25.52458
1776.728, 25.53155
1778.657, 25.42404
1780.585, 25.41722
1782.514, 25.46379
1784.442, 25.22390
1786.371, 25.13981
1788.299, 25.49491
1790.228, 25.53324
1792.156, 25.38530
1794.084, 25.37204
1796.013, 25.35865
1797.941, 25.20371
1799.870, 25.06639
1801.798, 25.25565
1803.727, 25.25704
1805.655, 24.89299
1807.584, 25.07247
1809.512, 25.35346
1811.441, 24.99760
1813.369, 24.73558
1815.298, 24.99653
1817.226, 25.19431
1819.155, 25.11244
1821.083, 24.84419
1823.011, 24.72248
1824.940, 25.06831
1826.868, 25.18703
1828.797, 24.80680
1830.725, 24.51556
1832.654, 24.41570
1834.582, 24.36415
1836.511, 24.35062
1838.439, 24.28331
1840.368, 24.22423
1842.296, 24.31936
1844.225, 24.22395
1846.153, 23.97337
1848.082, 24.03456
1850.010, 24.22617
1851.938, 24.09424
1853.867, 23.96734
1855.795, 23.96875
1857.724, 23.86053
1859.652, 23.76174
1861.581, 23.68596
1863.509, 23.69959
1865.438, 23.78649
1867.366, 23.91153
1869.295, 23.98271
1871.223, 23.66106
1873.152, 23.35650
1875.080, 23.40660
1877.009, 23.36875
1878.937, 23.26953
1880.865, 23.44453
1882.794, 23.54884
1884.722, 23.61536
1886.651, 23.50494
1888.579, 23.05487
1890.508, 23.00748
1892.436, 23.24290
1894.365, 23.15935
1896.293, 22.92814
1898.222, 22.84296
1900.150, 22.88642
1902.079, 23.18724
1904.007, 23.20609
1905.936, 23.07174
1907.864, 22.97446
1909.792, 22.77811
1911.721, 22.92914
1913.649, 23.13894
1915.578, 22.99457
1917.506, 22.61772
1919.435, 22.38952
1921.363, 22.62813
1923.292, 22.89129
1925.220, 22.87579
1927.149, 22.71411
1929.077, 22.57776
1931.006, 22.31990
1932.934, 22.37337
1934.863, 22.69786
1936.791, 22.70569
1938.719, 22.59960
1940.648, 22.35044
1942.576, 22.06416
1944.505, 21.92124
1946.433, 22.12566
1948.362, 22.36626
1950.290, 22.19777
1952.219, 22.00362
1954.147, 21.79209
1956.076, 21.58877
1958.004, 21.68248
1959.933, 21.97038
1961.861, 22.12491
1963.790, 22.11132
1965.718, 22.18851
1967.646, 22.19201
1969.575, 21.90053
1971.503, 21.74522
1973.432, 21.90859
1975.360, 21.95662
1977.289, 21.72905
1979.217, 21.66525
1981.146, 21.68047
1983.074, 21.27134
1985.003, 20.93093
1986.931, 21.17915
1988.860, 21.34671
1990.788, 21.35495
1992.717, 21.42208
1994.645, 21.29164
1996.573, 21.21749
1998.502, 21.15307
2000.430, 21.01111
2002.359, 21.07503
2004.287, 21.24862
2006.216, 20.97923
2008.144, 20.75807
2010.073, 20.87338
2012.001, 20.77053
2013.930, 20.57453
2015.858, 20.55541
2017.787, 20.72985
2019.715, 20.81795
2021.644, 20.82752
2023.572, 20.82354
2025.500, 20.72240
2027.429, 20.85526
2029.357, 20.66356
2031.286, 20.17158
2033.214, 20.22948
2035.143, 20.50598
2037.071, 20.28813
2039.000, 20.01351
2040.928, 19.84406
2042.857, 19.89429
2044.785, 20.17504
2046.714, 20.09207
2048.642, 20.02377
2050.571, 20.36601
2052.499, 20.35799
2054.427, 19.80325
2056.356, 19.55431
2058.284, 19.82403
2060.213, 19.81936
2062.141, 19.69239
2064.070, 19.64725
2065.998, 19.43316
2067.927, 19.27682
2069.855, 19.47030
2071.784, 19.63366
2073.712, 19.54140
2075.641, 19.46480
2077.569, 19.54337
2079.498, 19.44780
2081.426, 19.26580
2083.354, 19.30043
2085.283, 19.26768
2087.211, 19.22029
2089.140, 19.18603
2091.068, 18.71261
2092.997, 18.70304
2094.925, 19.02265
2096.854, 18.95343
2098.782, 18.83556
2100.711, 18.78184
2102.639, 18.82817
2104.568, 18.81908
2106.496, 18.64044
2108.425, 18.51284
2110.353, 18.55239
2112.281, 18.55029
2114.210, 18.46462
2116.138, 18.57374
2118.067, 18.63894
2119.995, 18.34852
2121.924, 18.10665
2123.852, 18.12037
2125.781, 17.93650
2127.709, 17.97991
2129.638, 18.48486
2131.566, 18.65095
2133.495, 18.29958
2135.423, 17.95357
2137.352, 17.87846
2139.280, 18.12577
2141.208, 18.13450
2143.137, 17.93795
2145.065, 18.01651
2146.994, 17.94511
2148.922, 17.57506
2150.851, 17.41558
2152.779, 17.57296
2154.708, 17.68871
2156.636, 17.66204
2158.565, 17.65320
2160.493, 17.59236
2162.422, 17.70187
2164.350, 17.66892
2166.279, 17.20185
2168.207, 17.43366
2170.135, 17.80884
2172.064, 17.52808
2173.992, 17.24551
2175.921, 17.14704
2177.849, 17.23742
2179.778, 17.44497
2181.706, 17.14351
2183.635, 16.93295
2185.563, 16.97963
2187.492, 16.83708
2189.420, 16.84826
2191.349, 16.91014
2193.277, 16.70560
2195.206, 16.82484
2197.134, 17.31188
2199.063, 17.07278
2200.991, 16.65220
2202.919, 16.77185
2204.848, 16.82077
2206.776, 16.79331
2208.705, 16.68588
2210.633, 16.41053
2212.562, 16.30194
2214.490, 16.45926
2216.419, 16.38160
2218.347, 16.20701
2220.276, 16.42811
2222.204, 16.41117
2224.133, 16.24442
2226.061, 16.22968
2227.990, 16.04159
2229.918, 15.87174
2231.846, 15.90685
2233.775, 16.16611
2235.703, 16.06488
2237.632, 15.66524
2239.560, 15.66689
2241.489, 15.70069
2243.417, 15.64579
2245.346, 15.82170
2247.274, 15.84393
2249.203, 15.65891
2251.131, 15.44133
2253.060, 15.35798
2254.988, 15.67389
2256.917, 15.92945
2258.845, 15.49475
2260.773, 15.46600
2262.702, 15.79407
2264.630, 15.64937
2266.559, 15.28974
2268.487, 15.05935
2270.416, 15.13429
2272.344, 15.37887
2274.273, 15.28193
2276.201, 15.22412
2278.130, 15.32586
2280.058, 15.16007
2281.987, 14.92347
2283.915, 14.84468
2285.844, 14.81724
2287.772, 14.81202
2289.700, 14.86989
2291.629, 14.81460
2293.557, 14.73822
2295.486, 14.93310
2297.414, 14.94309
2299.343, 14.65338
2301.271, 14.69610
2303.200, 14.71975
2305.128, 14.48564
2307.057, 14.57202
2308.985, 14.61877
2310.914, 14.61709
2312.842, 14.62323
2314.771, 14.47213
2316.699, 14.24371
2318.627, 13.98291
2320.556, 13.92799
2322.484, 14.14146
2324.413, 14.24597
2326.341, 14.18956
2328.270, 14.23408
2330.198, 13.98681
2332.127, 14.02250
2334.055, 14.17371
2335.984, 14.01762
2337.912, 13.95686
2339.841, 14.01581
2341.769, 14.14645
2343.698, 14.26243
2345.626, 14.15416
2347.554, 13.87772
2349.483, 13.62956
2351.411, 13.46631
2353.340, 13.45664
2355.268, 13.19630
2357.197, 12.92502
2359.125, 13.23511
2361.054, 13.50759
2362.982, 13.51823
2364.911, 13.48709
2366.839, 13.34052
2368.768, 13.58468
2370.696, 13.62263
2372.625, 13.11820
2374.553, 12.83730
2376.481, 12.92942
2378.410, 12.91214
2380.338, 12.81520
2382.267, 12.79529
2384.195, 13.26235
2386.124, 13.29797
2388.052, 12.87784
2389.981, 12.69775
2391.909, 12.81026
2393.838, 12.87799
2395.766, 12.89547
2397.695, 12.87298
2399.623, 12.80027
2401.552, 12.55008
2403.480, 12.44989
2405.408, 12.66175
2407.337, 12.72615
2409.265, 12.57987
2411.194, 12.33003
2413.122, 12.14620
2415.051, 12.03640
2416.979, 11.89842
2418.908, 11.91144
2420.836, 12.18158
2422.765, 12.30336
2424.693, 12.27753
2426.622, 12.23825
2428.550, 12.22871
2430.479, 12.15825
2432.407, 11.84933
2434.335, 11.77852
2436.264, 11.85711
2438.192, 11.97767
2440.121, 12.16314
2442.049, 11.99708
2443.978, 11.78765
2445.906, 11.57821
2447.835, 11.52046
2449.763, 11.64074
2451.692, 11.63964
2453.620, 11.29539
2455.549, 11.76266
2457.477, 12.02634
2459.406, 11.35624
2461.334, 11.54149
2463.262, 11.69870
2465.191, 11.69697
2467.119, 11.62461
2469.048, 11.28989
2470.976, 10.87095
2472.905, 10.76342
2474.833, 11.09377
2476.762, 11.05099
2478.690, 10.90720
2480.619, 10.96005
2482.547, 10.99031
2484.476, 10.96232
2486.404, 10.98707
2488.333, 10.99433
2490.261, 11.02355
2492.189, 10.85206
2494.118, 10.59962
2496.046, 10.45507
2497.975, 10.29466
2499.903, 10.46843
2501.832, 10.75539
2503.760, 10.65582
2505.689, 10.70627
2507.617, 10.97357
2509.546, 10.67065
2511.474, 10.38514
2513.403, 10.47029
2515.331, 10.70707
2517.260, 10.44115
2519.188, 9.978751
2521.116, 10.01657
2523.045, 10.14695
2524.973, 10.24579
2526.902, 9.870861
2528.830, 9.716175
2530.759, 9.981413
2532.687, 10.23311
2534.616, 10.14961
2536.544, 10.04210
2538.473, 10.35749
2540.401, 10.34707
2542.330, 10.07367
2544.258, 9.949252
2546.187, 9.742828
2548.115, 9.530394
2550.043, 9.533759
2551.972, 9.611810
2553.900, 9.647458
2555.829, 9.468171
2557.757, 9.304730
2559.686, 9.397593
2561.614, 9.315015
2563.543, 9.280903
2565.471, 9.739008
2567.400, 9.856662
2569.328, 9.582564
2571.257, 9.076528
2573.185, 9.342265
2575.114, 9.663319
2577.042, 9.115029
2578.970, 8.944913
2580.899, 9.182352
2582.827, 9.124678
2584.756, 9.143004
2586.684, 9.299352
2588.613, 8.860682
2590.541, 8.823477
2592.470, 8.974421
2594.398, 8.806074
2596.327, 9.073164
2598.255, 9.098419
2600.184, 8.600103
2602.112, 8.459245
2604.041, 8.497814
2605.969, 8.628180
2607.897, 8.448060
2609.826, 8.274746
2611.754, 8.463009
2613.683, 8.334436
2615.611, 8.139886
2617.540, 8.364564
2619.468, 8.561179
2621.397, 8.539359
2623.325, 8.169183
2625.254, 8.250350
2627.182, 8.436064
2629.111, 8.218380
2631.039, 8.260372
2632.968, 8.291911
2634.896, 7.952316
2636.824, 7.890964
2638.753, 7.917531
2640.681, 7.981034
2642.610, 8.294358
2644.538, 8.382468
2646.467, 7.565881
2648.395, 7.675716
2650.324, 8.041775
2652.252, 8.038174
2654.181, 8.143217
2656.109, 8.053243
2658.038, 7.574835
2659.966, 7.579284
2661.895, 7.669863
2663.823, 7.744513
2665.751, 7.591179
2667.680, 7.353751
2669.608, 7.251494
2671.537, 7.271174
2673.465, 7.357176
2675.394, 7.615671
2677.322, 7.511788
2679.251, 7.294675
2681.179, 7.125968
2683.108, 6.950890
2685.036, 6.838330
2686.965, 6.936660
2688.893, 7.138231
2690.822, 7.110530
2692.750, 6.940503
2694.678, 7.117599
2696.607, 7.130185
2698.535, 7.077745
2700.464, 6.678383
2702.392, 6.736678
2704.321, 7.074529
2706.249, 6.806395
2708.178, 6.803244
2710.106, 6.966975
2712.035, 7.080451
2713.963, 6.790998
2715.892, 6.459706
2717.820, 6.590506
2719.749, 6.772927
2721.677, 6.797204
2723.605, 6.709143
2725.534, 6.713473
2727.462, 6.667538
2729.391, 6.419828
2731.319, 6.193306
2733.248, 6.129666
2735.176, 6.117178
2737.105, 6.122011
2739.033, 6.092856
2740.962, 5.981840
2742.890, 6.036912
2744.819, 6.082152
2746.747, 6.082736
2748.676, 6.324335
2750.604, 6.428312
2752.532, 6.260673
2754.461, 5.918771
2756.389, 6.084815
2758.318, 6.269659
2760.246, 6.189174
2762.175, 5.953270
2764.103, 5.735474
2766.032, 5.650681
2767.960, 6.026370
2769.889, 6.106665
2771.817, 5.867315
2773.746, 5.743216
2775.674, 5.564168
2777.603, 5.451816
2779.531, 5.774132
2781.459, 5.561525
2783.388, 5.307817
2785.316, 5.550674
2787.245, 5.729034
2789.173, 5.724790
2791.102, 5.493166
2793.030, 5.550914
2794.959, 5.727385
2796.887, 5.825324
2798.816, 5.562149
2800.744, 5.318084
2802.673, 5.229549
2804.601, 5.341755
2806.530, 5.435279
2808.458, 5.323561
2810.386, 4.784512
2812.315, 4.889572
2814.243, 4.988813
2816.172, 4.642646
2818.100, 4.982514
2820.029, 5.295760
2821.957, 5.439168
2823.886, 5.378408
2825.814, 5.314418
2827.743, 5.290527
2829.671, 5.188716
2831.600, 5.266157
2833.528, 5.242195
2835.457, 4.785973
2837.385, 4.538661
2839.313, 4.687895
2841.242, 5.175071
2843.170, 5.036236
2845.099, 4.882163
2847.027, 4.793561
2848.956, 4.754250
2850.884, 4.642700
2852.813, 4.546432
2854.741, 4.701775
2856.670, 4.482141
2858.598, 4.293390
2860.527, 4.327708
2862.455, 4.521556
2864.384, 4.479780
2866.312, 4.277124
2868.240, 4.427972
2870.169, 4.322457
2872.097, 4.220016
2874.026, 4.434824
2875.954, 4.504412
2877.883, 4.447763
2879.811, 4.202226
2881.740, 3.805614
2883.668, 4.016596
2885.597, 4.448118
2887.525, 4.426126
2889.454, 4.419739
2891.382, 4.399427
2893.311, 4.412124
2895.239, 3.998797
2897.167, 4.046435
2899.096, 4.354025
2901.024, 3.813945
2902.953, 3.688192
2904.881, 3.846970
2906.810, 3.891706
2908.738, 3.780643
2910.667, 3.786171
2912.595, 3.909485
2914.524, 4.018328
2916.452, 3.715258
2918.381, 3.464426
2920.309, 3.740592
2922.238, 3.935271
2924.166, 3.957664
2926.094, 3.911663
2928.023, 3.547369
2929.951, 3.765079
2931.880, 4.129749
2933.808, 3.520066
2935.737, 3.607075
2937.665, 3.745279
2939.594, 3.480869
2941.522, 2.924526
2943.451, 3.137613
2945.379, 3.630026
2947.308, 3.065553
2949.236, 3.272926
2951.165, 3.542241
2953.093, 3.360787
2955.021, 3.172107
2956.950, 3.185656
2958.878, 3.258660
2960.807, 3.105325
2962.735, 2.919650
2964.664, 2.794191
2966.592, 2.573463
2968.521, 2.948258
2970.449, 3.360034
2972.378, 3.518028
2974.306, 3.324207
2976.235, 3.483449
2978.163, 3.537735
2980.092, 3.089945
2982.020, 3.042011
2983.948, 2.762650
2985.877, 2.448951
2987.805, 2.632599
2989.734, 2.656747
2991.662, 2.980067
2993.591, 3.385659
2995.519, 2.780244
2997.448, 2.774129
2999.376, 2.838448
3001.305, 2.968502
3003.233, 3.067294
3005.162, 2.827377
3007.090, 2.543199
3009.019, 2.834824
3010.947, 2.699710
3012.875, 2.454547
3014.804, 2.443793
3016.732, 2.392507
3018.661, 2.431643
3020.589, 2.664008
3022.518, 2.860106
3024.446, 2.621753
3026.375, 2.525054
3028.303, 2.637000
3030.232, 2.528946
3032.160, 2.361939
3034.089, 2.226877
3036.017, 2.226555
3037.946, 2.403450
3039.874, 2.424857
3041.802, 2.281821
3043.731, 2.425439
3045.659, 2.263120
3047.588, 2.184631
3049.516, 2.331394
3051.445, 2.342873
3053.373, 2.171590
3055.302, 2.148834
3057.230, 2.383663
3059.159, 2.408419
3061.087, 2.523993
3063.016, 2.538350
3064.944, 2.060097
3066.873, 1.796004
3068.801, 1.937624
3070.729, 2.337125
3072.658, 2.122358
3074.586, 2.197369
3076.515, 2.234050
3078.443, 1.803566
3080.372, 1.946304
3082.300, 2.266511
3084.229, 2.299302
3086.157, 1.942468
3088.086, 1.864048
3090.014, 2.220523
3091.943, 2.566432
3093.871, 2.226446
3095.800, 1.927509
3097.728, 1.740688
3099.656, 1.785215
3101.585, 2.162288
3103.513, 2.223103
3105.442, 2.122789
3107.370, 2.122827
3109.299, 2.408441
3111.227, 1.780831
3113.156, 1.488391
3115.084, 2.336160
3117.013, 2.128563
3118.941, 1.756768
3120.870, 1.642457
3122.798, 1.896322
3124.727, 1.755393
3126.655, 1.860959
3128.583, 1.921297
3130.512, 1.569681
3132.440, 1.657715
3134.369, 1.914945
3136.297, 2.163061
3138.226, 1.856833
3140.154, 1.783089
3142.083, 1.636187
3144.011, 1.357282
3145.940, 1.849311
3147.868, 1.491168
3149.797, 1.447873
3151.725, 2.036452
3153.654, 1.954147
3155.582, 1.378667
3157.510, 1.267873
3159.439, 1.721881
3161.367, 1.386283
3163.296, 1.448789
3165.224, 1.621397
3167.153, 1.595336
3169.081, 1.391230
3171.010, 1.292377
3172.938, 1.427374
3174.867, 1.533669
3176.795, 2.111511
3178.724, 1.933583
3180.652, 1.722667
3182.581, 2.030866
3184.509, 1.384216
3186.438, 1.485571
3188.366, 1.638857
3190.294, 1.342744
3192.223, 1.288201
3194.151, 1.276591
3196.080, 1.421647
3198.008, 1.552256
3199.937, 1.572684
3201.865, 1.426088
3203.794, 1.412583
3205.722, 1.562489
3207.651, 1.246595
3209.579, 1.395177
3211.508, 1.295631
3213.436, 0.8004664
3215.365, 0.9297775
3217.293, 0.8068346
3219.221, 0.7984846
3221.150, 1.046736
3223.078, 0.9465396
3225.007, 0.6723638
3226.935, 0.9126757
3228.864, 1.513999
3230.792, 1.164218
3232.721, 1.270611
3234.649, 1.327606
3236.578, 1.230355
3238.506, 1.259342
3240.435, 1.085481
3242.363, 1.196069
3244.292, 1.331545
3246.220, 0.6983220
3248.148, 1.045842
3250.077, 1.033435
3252.005, 0.7129915
3253.934, 0.7101066
3255.862, 1.019157
3257.791, 1.163980
3259.719, 1.223808
3261.648, 1.399343
3263.576, 1.519890
3265.505, 1.080747
3267.433, 0.7572588
3269.362, 1.117215
3271.290, 1.465214
3273.219, 1.178892
3275.147, 0.8275441
3277.075, 0.7539939
3279.004, 1.033414
3280.932, 0.7921832
3282.861, 0.6060442
3284.789, 0.6204389
3286.718, 0.6506969
3288.646, 0.9848561
3290.575, 1.047100
3292.503, 1.029360
3294.432, 1.194081
3296.360, 0.2887292
3298.289, 0.5643227
3300.217, 0.8500009
3302.146, 0.3982615
3304.074, 0.9805506
3306.002, 0.8404591
3307.931, 0.7052677
3309.859, 0.8520188
3311.788, 0.9050645
3313.716, 1.052181
3315.645, 0.9011615
3317.573, 0.8609838
3319.502, 1.557375
3321.430, 1.271022
3323.359, 0.9330625
3325.287, 0.7798752
3327.216, 0.8322898
3329.144, 0.8741521
3331.073, 1.014532
3333.001, 0.8957785
3334.929, 0.7513551
3336.858, 1.024544
3338.786, 0.6728480
3340.715, 0.8123795
3342.643, 1.021240
3344.572, 0.7613684
3346.500, 0.4602551
3348.429, 0.8140241
3350.357, 0.9649658
3352.286, 0.7534354
3354.214, 0.7651883
3356.143, 0.6273436
3358.071, 0.4689756
3360.000, 0.4546370
3361.928, 0.6381548
3363.856, 1.109673
3365.785, 0.5225685
3367.713, 0.4661676
3369.642, 0.9797415
3371.570, 0.6804941
3373.499, 0.6373246
3375.427, 0.7748924
3377.356, 0.7816344
3379.284, 0.4944589
3381.213, 0.4817209
3383.141, 0.9435912
3385.070, 1.156231
3386.998, 0.9638746
3388.927, 0.7314194
3390.855, 0.6971360
3392.783, 0.8137118
3394.712, 0.8834231
3396.640, 0.8620749
3398.569, 0.9981095
3400.497, 0.8005139
3402.426, 1.046025
3404.354, 1.240820
3406.283, 0.6958796
3408.211, 0.9721758
3410.140, 0.8078032
3412.068, 0.7302076
3413.997, 0.9135605
3415.925, 1.032408
3417.854, 0.7659913
3419.782, 0.5125344
3421.710, 0.2800382
3423.639, 0.1306686
3425.567, 0.4959356
3427.496, 0.9874208
3429.424, 1.207079
3431.353, 1.152531
3433.281, 1.023709
3435.210, 1.590934
3437.138, 0.8863835
3439.067, 0.7566941
3440.995, 1.057492
3442.924, 0.6837929
3444.852, 0.9940642
3446.781, 0.8557891
3448.709, 0.6049849
3450.637, 0.4405631
3452.566, 0.1655707
3454.494, 0.7563497
3456.423, 0.2905678
3458.351, 0.1989284
3460.280, 0.8202719
3462.208, 0.5339277
3464.137, 0.6585760
3466.065, 0.4851350
3467.994, 0.3137600
3469.922, 0.4361658
3471.851, 0.7722415
3473.779, 0.5499296
3475.708, 0.7183825
3477.636, 0.8593859
3479.564, 0.6508392
3481.493, 0.5760467
3483.421, 0.8866846
3485.350, 0.8138059
3487.278, 0.6766743
3489.207, 0.7356039
3491.135, 0.5104162
3493.064, 0.1984089
3494.992, 0.3177750
3496.921, 0.6755570
3498.849, 0.8846255
3500.778, 0.5654148
3502.706, 0.3223475
3504.635, 0.3967582
3506.563, 0.5956253
3508.491, 0.7145928
3510.420, 0.7547331
3512.348, 1.8626660E-02
3514.277, 0.4444531
3516.205, 1.008410
3518.134, 0.8761355
3520.062, 0.5185919
3521.991, 0.1454949
3523.919, 0.4563563
3525.848, 0.5285645
3527.776, 0.1638242
3529.705, 0.1851766
3531.633, 0.7881022
3533.562, 0.2104302
3535.490, 6.0403779E-02
3537.418, 0.3369093
3539.347, -9.9673606E-02
3541.275, 0.3138517
3543.204, 0.3430731
3545.132, 0.3361468
3547.061, 0.4602037
3548.989, 0.5983896
3550.918, 0.4564227
3552.846, 0.1581516
3554.775, 0.2958175
3556.703, 0.3565315
3558.632, 7.9336546E-02
3560.560, 0.4116820
3562.489, 0.6067988
3564.417, 0.6195814
3566.345, 0.4020354
3568.274, 0.2036980
3570.202, 0.5299233
3572.131, 0.8669679
3574.059, 0.7200775
3575.988, 0.5492591
3577.916, 0.6708692
3579.845, 0.9121357
3581.773, 2.0557350E-02
3583.702, 0.4477592
3585.630, 0.2641188
3587.559, 0.3621302
3589.487, 0.9495250
3591.416, 0.3259107
3593.344, 0.3661741
3595.272, 0.3197007
3597.201, 0.1438980
3599.129, -6.9832958E-02
3601.058, -0.1491852
3602.986, 0.5509238
3604.915, 0.6442481
3606.843, 0.7311911
3608.772, 0.5169883
3610.700, 3.2947960E-03
3612.629, -0.1635496
3614.557, -0.1048911
3616.486, 0.3320682
3618.414, 9.2347860E-02
3620.343, -5.4100171E-02
3622.271, 0.6611512
3624.199, 0.7558152
3626.128, 0.2972736
3628.056, 0.5453517
3629.985, 0.5631306
3631.913, 0.2367657
3633.842, 0.3576958
3635.770, 0.5975998
3637.699, 4.6330150E-02
3639.627, -0.2793530
3641.556, -3.1633489E-02
3643.484, 0.4830893
3645.413, 0.6689206
3647.341, 0.3013670
3649.270, 0.3836830
3651.198, 9.1126554E-02
3653.126, 5.3188160E-02
3655.055, 0.5150555
3656.983, 0.2610085
3658.912, 0.2922668
3660.840, 0.1961586
3662.769, 0.1530680
3664.697, 0.2384513
3666.626, 0.3998848
3668.554, 0.5812131
3670.483, 0.2073922
3672.411, -8.3564229E-02
3674.340, 2.0407259E-02
3676.268, 0.3470629
3678.197, 0.5316827
3680.125, 5.5797711E-02
3682.053, 0.1015584
3683.982, 1.5352200E-02
3685.910, 0.2205825
3687.839, 0.3435322
3689.767, -3.4778140E-02
3691.696, -0.5526093
3693.624, -0.1212183
3695.553, 0.1293375
3697.481, 0.1765659
3699.410, 5.2016690E-02
3701.338, -9.1019183E-02
3703.267, 7.5881958E-02
3705.195, -0.1735279
3707.124, 0.3509846
3709.052, -1.7367059E-02
3710.980, -0.1843714
3712.909, 0.1519291
3714.837, -0.4062915
3716.766, 0.1816814
3718.694, 0.3632675
3720.623, 0.2019884
3722.551, 0.1395171
3724.480, 0.2533010
3726.408, 0.3397187
3728.337, 0.4299479
3730.265, 0.3321666
3732.194, 8.1365429E-02
3734.122, 0.4000374
3736.051, 0.2878679
3737.979, -0.5065861
3739.907, 0.8696996
3741.836, 0.7487538
3743.764, 0.3464538
3745.693, 0.2320623
3747.621, 0.4796076
3749.550, 0.7057341
3751.478, 0.3890485
3753.407, -0.2157917
3755.335, 0.3316027
3757.264, 0.1394023
3759.192, 1.8639470E-02
3761.121, 0.2224926
3763.049, 0.1706079
3764.978, -0.4943751
3766.906, 0.3616209
3768.834, 8.7210692E-02
3770.763, 0.3934108
3772.691, 0.2051586
3774.620, -6.1944641E-02
3776.548, 0.7123073
3778.477, 0.2383796
3780.405, 0.1689130
3782.334, -0.2527777
3784.262, -0.1477322
3786.191, 0.1567628
3788.119, 0.3839717
3790.048, 0.6994492
3791.976, 0.2555844
3793.905, 0.2783301
3795.833, 0.1185340
3797.761, 0.4874080
3799.690, 0.4742514
3801.618, 0.1197879
3803.547, 0.5831137
3805.475, -0.1016117
3807.404, -3.6088981E-02
3809.332, 0.2660368
3811.261, 0.4274757
3813.189, 0.3512292
3815.118, 0.1772404
3817.046, 6.3910678E-02
3818.975, -0.1281941
3820.903, 2.8142260E-02
3822.832, 0.1783752
3824.760, 0.2469704
3826.688, 0.1518771
3828.617, 3.5550911E-02
3830.545, 5.8134910E-02
3832.474, -0.1263171
3834.402, 5.9301320E-02
3836.331, 0.1866618
3838.259, -6.0343880E-02
3840.188, -0.2873967
3842.116, -0.2394183
3844.045, 5.1017299E-02
3845.973, 0.5021363
3847.902, -0.3038224
3849.830, -0.1232083
3851.759, -0.1294143
3853.687, -0.6308554
3855.615, -0.3473939
3857.544, 0.4990574
3859.472, 0.2753652
3861.401, 0.3939322
3863.329, -0.2280007
3865.258, -8.6269848E-02
3867.186, -9.3433186E-02
3869.115, 0.1807272
3871.043, 0.4166972
3872.972, 0.1700637
3874.900, 0.1419238
3876.829, 0.1039862
3878.757, 0.3532909
3880.686, -0.3727693
3882.614, -0.3354505
3884.542, 9.4208993E-02
3886.471, -2.5287479E-02
3888.399, -0.4811290
3890.328, 2.2181081E-02
3892.256, 0.1040137
3894.185, 7.2659008E-02
3896.113, 1.9471779E-02
3898.042, -0.4609708
3899.970, -0.4396332
3901.899, -5.5872831E-03
3903.827, 3.3991151E-03
3905.756, -9.6275300E-02
3907.684, 0.1364806
3909.613, -0.1441714
3911.541, 3.7947372E-02
3913.469, 2.1949060E-02
3915.398, -2.9786410E-02
3917.326, -9.8857529E-02
3919.255, -0.1484288
3921.183, 0.2322847
3923.112, -0.1261585
3925.040, -0.2309353
3926.969, 0.3925975
3928.897, 0.1268269
3930.826, -0.1980268
3932.754, 0.1409066
3934.683, 0.5819690
3936.611, 0.3928417
3938.540, 0.3399808
3940.468, -0.4165565
3942.396, 0.1547614
3944.325, 0.1978018
3946.253, 0.5218337
3948.182, 0.3240894
3950.110, -2.9929141E-02
3952.039, 0.2643788
3953.967, 0.4455460
3955.896, -5.9732269E-02
3957.824, -4.2219210E-02
3959.753, 0.1914760
3961.681, 9.6306518E-02
3963.610, 0.3290592
3965.538, 0.4872926
3967.467, 0.3206723
3969.395, 0.1670766
3971.323, -4.7660351E-02
3973.252, -0.4324915
3975.180, 0.1375170
3977.109, 0.1270523
3979.037, -0.1222281
3980.966, -8.1601128E-02
3982.894, -0.4506024
3984.823, -8.6805843E-02
3986.751, 0.4175958
3988.680, -0.2048467
3990.608, -0.8502874
3992.537, -5.3179931E-02
3994.465, 0.4141860
3996.394, 2.7529759E-02
3998.322, -0.2441856
4000.250, -0.4594312
4002.179, 0.4918187
4004.107, 0.2755131
4006.036, 0.2935462
4007.964, 0.5014813
4009.893, 0.1955393
4011.821, 0.1520686
4013.750, 6.1240770E-02
4015.678, -0.1752231
4017.607, -0.3070180
4019.535, 1.6595230E-02
4021.464, 4.9467650E-03
4023.392, -0.4369232
4025.321, 0.1373898
4027.249, 0.5779302
4029.177, -4.1614408E-03
4031.106, 0.7267462
4033.034, -0.4669858
4034.963, 8.6371973E-02
4036.891, 2.0087959E-02
4038.820, -0.4364993
4040.748, -0.2299039
4042.677, -0.1123121
4044.605, 0.3790967
4046.534, 0.6034805
4048.462, -0.2796002
4050.391, -0.5100724
4052.319, 0.1088057
4054.248, -0.2932367
4056.176, 0.3936725
4058.104, 0.3289871
4060.033, 2.5853639E-02
4061.961, 8.1659913E-02
4063.890, 7.4241757E-02
4065.818, 0.1313108
4067.747, 0.4386476
4069.675, 0.2951732
4071.604, -0.4292003
4073.532, -0.3033418
4075.461, -0.1065828
4077.389, 0.5642321
4079.318, 0.2188150
4081.246, -6.6181198E-02
4083.175, -0.2392443
4085.103, -0.1470958
4087.031, -4.4527508E-02
4088.960, -0.2535463
4090.888, -0.3699800
4092.817, -0.6581639
4094.745, 0.1361630
4096.674, -0.2939092
4098.603, 0.4593627
4100.531, -0.3335473
4102.459, -0.2966060
4104.388, -0.4127875
4106.316, -0.3135458
4108.245, 0.2070882
4110.173, 7.8963332E-02
4112.102, -0.5380237
4114.030, -0.2152787
4115.958, 0.2312644
4117.887, 0.6499379
4119.815, 3.3629231E-02
4121.744, -0.3120729
4123.672, -8.1629902E-02
4125.601, 0.7186445
4127.529, 1.0018020E-02
4129.458, -0.4230872
4131.386, 0.1144072
4133.315, 0.1022661
4135.243, -0.3029554
4137.172, -0.2492243
4139.100, -0.3115648
4141.029, 5.3158078E-02
4142.957, -0.3001570
4144.886, -0.4621387
4146.814, 0.2360656
4148.743, 0.2098758
4150.671, 0.2357430
4152.600, 0.2682270
4154.528, 0.5565395
4156.457, 0.2795532
4158.385, -0.4585614
4160.313, 0.2782669
4162.242, 0.4008539
4164.170, 0.1327498
4166.099, 0.2349786
4168.027, -0.1250687
4169.956, 0.3149599
4171.884, 0.4987153
4173.813, 0.3924758
4175.741, 0.2214933
4177.669, 0.1376706
4179.598, 0.2587923
4181.526, 0.2248518
4183.455, -0.1345631
4185.383, -0.4691877
4187.312, -0.4400505
4189.240, 5.8489501E-02
4191.169, -0.3103665
4193.097, 0.1410250
4195.026, -5.6976698E-02
4196.954, 0.7109715
4198.883, 2.8959081E-02
4200.811, -7.8735471E-02
4202.740, -0.2877988
4204.668, -0.1280012
4206.597, 0.2364558
4208.525, 0.1972619
4210.454, 0.2691117
4212.382, 0.2763271
4214.311, 0.1480082
4216.239, 0.6903324
4218.167, -0.6556045
4220.096, 0.2390083
4222.024, 0.2463111
4223.953, 0.5443820
4225.881, -0.2037631
4227.810, 6.3980468E-02
4229.738, 0.3073948
4231.667, 0.2737568
4233.595, 0.2655705
4235.523, 0.2323353
4237.452, 0.4480735
4239.380, 0.1319280
4241.309, -0.3127215
4243.237, 0.1211765
4245.166, 0.4039257
4247.094, -0.1500616
4249.023, -6.7378521E-02
4250.951, -0.5594606
4252.880, 0.1618950
4254.808, 0.1842910
4256.737, 0.1643129
4258.665, 0.1731995
4260.594, -0.4523147
4262.522, -0.5375274
4264.451, -0.4400313
4266.379, 0.2927952
4268.308, 0.2690670
4270.236, 0.1642919
4272.165, -0.1028403
4274.093, 0.5653045
4276.021, 9.4118997E-02
4277.950, -0.5241904
4279.878, -0.1132693
4281.807, -0.1928485
4283.735, -0.1047264
4285.664, -9.0027437E-02
4287.592, 3.9950609E-02
4289.521, -0.1114612
4291.449, -0.3267302
4293.377, 0.2439349
4295.306, 3.7423320E-02
4297.234, -0.1439716
4299.163, -0.3902974
4301.091, -0.2732560
4303.020, -0.5793912
4304.948, -5.0597470E-03
4306.877, -0.1330031
4308.805, -0.4166541
4310.734, -0.2777652
4312.662, -0.1137234
4314.591, -7.6244898E-02
4316.519, 0.1065678
4318.448, 0.3230026
4320.376, 8.5351333E-02
4322.305, 3.5036951E-02
4324.233, 0.1875532
4326.162, -0.1090727
4328.090, -0.2431034
4330.019, -0.1960245
4331.947, -5.1570800E-03
4333.875, -0.1389951
4335.804, -0.6805798
4337.732, -0.3861557
4339.661, -0.1774220
4341.589, 8.3922356E-02
4343.518, -7.6082133E-02
4345.446, 0.2668433
4347.375, 0.2390450
4349.303, -0.2376308
4351.231, -0.2098275
4353.160, 0.2372978
4355.088, -6.5895967E-02
4357.017, 6.7277148E-02
4358.945, -0.1658547
4360.874, -0.1236688
4362.802, 0.4931771
4364.731, 3.6976181E-02
4366.659, -0.3650394
4368.588, -0.2785029
4370.516, -0.2545630
4372.445, -0.1607624
4374.373, 0.3798644
4376.302, 0.4542235
4378.230, 0.2922938
4380.159, -8.7185912E-02
4382.087, 5.9144821E-02
##END=



