##NAMES=Descloizite
##RRUFFID=R050509
##IDEAL CHEMISTRY=PbZn(VO_4_)(OH)
##LOCALITY=Grootfontein district, Namibia
##OWNER=RRUFF
##SOURCE=University of Arizona Mineral Museum
##DESCRIPTION=Group of brown tabular crystals
##STATUS=The identification of this mineral has been confirmed by X-ray diffraction and chemical analysis
##URL=https://www.rruff.net/odr/rruff_sample/R050509
##MEASURED CHEMISTRY=Pb_1.00_(Zn_0.85_Cu_0.15_)((V_0.97_As_0.03_)O_4_)(OH) ; (OH) estimated by difference and stoichiometry
##DIFFRACTION SAMPLE DESCRIPTION=Powder
##CELL PARAMETERS=a: 7.612 b: 6.057 c: 9.432 alpha: 90 beta: 90 gamma: 90 volume: 434.91 crystal system: orthorhombic
##FILETYPE=Raman Processed
##RAMAN WAVELENGTH=780

83.25658, 865.8074
85.18504, 904.2254
87.11351, 962.2209
89.04198, 1041.748
90.97044, 1144.164
92.89891, 1264.041
94.82738, 1318.213
96.75584, 1350.375
98.68431, 1389.652
100.6128, 1425.731
102.5412, 1477.980
104.4697, 1499.228
106.3982, 1484.273
108.3266, 1436.180
110.2551, 1344.726
112.1836, 1215.664
114.1120, 1088.901
116.0405, 957.8929
117.9690, 843.1084
119.8974, 747.2985
121.8259, 669.4511
123.7544, 610.7955
125.6828, 568.8302
127.6113, 535.9506
129.5398, 514.3519
131.4682, 497.1020
133.3967, 483.5596
135.3252, 472.7879
137.2536, 464.2277
139.1821, 457.5545
141.1106, 451.6173
143.0390, 447.0202
144.9675, 441.9977
146.8960, 436.0678
148.8244, 429.7116
150.7529, 423.4087
152.6814, 417.0716
154.6098, 410.2545
156.5383, 403.2306
158.4668, 395.0962
160.3952, 385.2907
162.3237, 374.8449
164.2522, 363.8394
166.1806, 352.7614
168.1091, 342.8643
170.0376, 334.4132
171.9660, 326.9115
173.8945, 320.1966
175.8230, 314.5082
177.7514, 310.3935
179.6799, 307.2284
181.6084, 304.3546
183.5368, 302.0309
185.4653, 299.0344
187.3938, 295.4432
189.3223, 291.1477
191.2507, 285.8802
193.1792, 280.0179
195.1077, 273.7047
197.0361, 266.9486
198.9646, 260.6151
200.8931, 254.4464
202.8215, 249.2063
204.7500, 245.5042
206.6785, 242.3332
208.6069, 238.7635
210.5354, 235.1660
212.4639, 233.0424
214.3923, 232.6362
216.3208, 232.3985
218.2493, 231.9564
220.1777, 232.1060
222.1062, 233.5456
224.0347, 235.4665
225.9631, 236.7454
227.8916, 237.3876
229.8201, 238.7191
231.7485, 240.6681
233.6770, 243.5025
235.6055, 247.6208
237.5339, 252.3879
239.4624, 257.1896
241.3909, 262.4099
243.3193, 269.2073
245.2478, 277.5513
247.1763, 286.7494
249.1047, 295.9931
251.0332, 307.4442
252.9617, 321.8531
254.8901, 338.6132
256.8186, 357.5587
258.7471, 378.3790
260.6755, 400.0152
262.6040, 422.4710
264.5325, 445.4862
266.4609, 470.0509
268.3894, 493.8392
270.3179, 514.3998
272.2463, 534.2781
274.1748, 556.9492
276.1033, 582.2780
278.0317, 609.9517
279.9602, 640.2099
281.8887, 672.5065
283.8171, 708.0847
285.7456, 744.1783
287.6741, 780.2418
289.6025, 815.1222
291.5310, 847.7582
293.4595, 878.4455
295.3879, 902.4781
297.3164, 918.1569
299.2449, 928.8869
301.1733, 933.4630
303.1018, 934.7413
305.0303, 932.6277
306.9587, 929.3422
308.8872, 929.3817
310.8157, 933.0674
312.7441, 939.4875
314.6726, 947.9193
316.6011, 959.5784
318.5295, 976.8434
320.4580, 995.5495
322.3865, 1014.226
324.3149, 1031.809
326.2434, 1045.122
328.1719, 1053.278
330.1003, 1059.707
332.0288, 1065.565
333.9573, 1067.541
335.8857, 1065.964
337.8142, 1058.289
339.7427, 1043.274
341.6711, 1021.159
343.5996, 992.1404
345.5281, 955.0228
347.4565, 915.6539
349.3850, 873.7635
351.3135, 830.5593
353.2419, 785.9335
355.1704, 740.5369
357.0989, 694.8665
359.0273, 648.6093
360.9558, 600.3531
362.8843, 550.0692
364.8127, 503.4192
366.7412, 459.8705
368.6697, 422.5162
370.5981, 393.0244
372.5266, 369.3654
374.4551, 352.1042
376.3835, 339.0609
378.3120, 327.7331
380.2405, 318.0410
382.1689, 309.9293
384.0974, 303.8404
386.0259, 296.0340
387.9543, 285.1533
389.8828, 273.2057
391.8113, 259.9940
393.7397, 246.8339
395.6682, 234.5794
397.5967, 223.4888
399.5251, 213.9385
401.4536, 205.9077
403.3821, 198.6522
405.3105, 191.8958
407.2390, 186.3233
409.1675, 182.1440
411.0959, 179.0174
413.0244, 176.9893
414.9529, 175.6925
416.8813, 174.7297
418.8098, 174.0863
420.7383, 173.8350
422.6667, 174.0906
424.5952, 174.3409
426.5237, 175.0275
428.4521, 174.9627
430.3806, 174.2291
432.3091, 172.3174
434.2375, 168.6040
436.1660, 163.4960
438.0945, 157.2665
440.0229, 149.9762
441.9514, 143.1864
443.8799, 136.6596
445.8083, 131.1169
447.7368, 126.9045
449.6653, 123.2875
451.5938, 119.9650
453.5222, 117.1738
455.4507, 115.3921
457.3792, 114.1736
459.3076, 112.4221
461.2361, 110.0199
463.1646, 108.0845
465.0930, 106.6282
467.0215, 105.6058
468.9500, 105.4264
470.8784, 104.9381
472.8069, 103.2167
474.7354, 101.4279
476.6638, 100.5407
478.5923, 100.1761
480.5208, 99.55930
482.4492, 98.67705
484.3777, 97.49063
486.3062, 95.86372
488.2346, 94.69447
490.1631, 94.24110
492.0916, 93.95925
494.0200, 93.75658
495.9485, 93.52544
497.8770, 93.22692
499.8054, 92.81597
501.7339, 92.16272
503.6624, 91.33315
505.5908, 90.67686
507.5193, 90.17559
509.4478, 89.81472
511.3762, 89.64297
513.3047, 89.50984
515.2332, 89.45412
517.1616, 89.28712
519.0901, 88.91630
521.0186, 88.43340
522.9470, 87.80235
524.8755, 87.14696
526.8040, 86.90661
528.7324, 87.00229
530.6609, 86.70596
532.5894, 85.80836
534.5178, 85.33607
536.4463, 85.85140
538.3748, 86.25339
540.3032, 86.26183
542.2317, 86.12589
544.1602, 85.84463
546.0886, 85.60278
548.0171, 85.79877
549.9456, 86.16797
551.8740, 85.94582
553.8025, 85.12788
555.7310, 84.88371
557.6594, 85.57371
559.5879, 86.18118
561.5164, 86.76717
563.4448, 87.02640
565.3733, 86.36942
567.3018, 85.97128
569.2302, 86.95724
571.1587, 88.22178
573.0872, 88.64412
575.0156, 88.45072
576.9441, 88.11259
578.8726, 87.57898
580.8010, 87.50227
582.7295, 88.02496
584.6580, 88.74911
586.5864, 90.04771
588.5149, 90.83618
590.4434, 90.55098
592.3718, 90.17650
594.3003, 90.24276
596.2288, 90.42829
598.1572, 90.48354
600.0857, 90.47910
602.0142, 90.63790
603.9426, 90.88075
605.8711, 90.53004
607.7996, 90.50937
609.7280, 90.30235
611.6565, 89.57696
613.5850, 89.55935
615.5134, 88.16763
617.4419, 87.24279
619.3704, 87.87334
621.2988, 88.63459
623.2273, 88.74785
625.1558, 88.66836
627.0842, 88.75568
629.0127, 89.02105
630.9412, 89.47924
632.8696, 90.10860
634.7981, 90.84944
636.7266, 91.70228
638.6550, 92.47625
640.5835, 93.10709
642.5120, 93.97633
644.4404, 95.31319
646.3689, 96.57886
648.2974, 97.02002
650.2258, 98.14976
652.1543, 101.1898
654.0828, 104.5441
656.0112, 106.9202
657.9397, 108.7899
659.8682, 110.7679
661.7966, 112.7997
663.7251, 114.6256
665.6536, 116.3526
667.5820, 118.7824
669.5105, 122.0343
671.4390, 125.2055
673.3674, 128.1619
675.2959, 131.1419
677.2244, 133.9976
679.1528, 137.1769
681.0813, 141.4617
683.0098, 145.2163
684.9382, 147.3035
686.8667, 148.8638
688.7952, 150.5693
690.7236, 152.5047
692.6521, 155.1331
694.5806, 157.9053
696.5090, 159.4932
698.4375, 159.9563
700.3660, 160.2054
702.2944, 160.3944
704.2229, 159.7129
706.1514, 157.4098
708.0798, 155.7410
710.0083, 155.2240
711.9368, 154.3006
713.8652, 152.1711
715.7937, 150.5238
717.7222, 149.8777
719.6506, 150.0541
721.5791, 151.0266
723.5076, 152.7307
725.4360, 154.9449
727.3645, 157.9741
729.2930, 161.9771
731.2214, 167.2329
733.1499, 174.1615
735.0784, 182.9242
737.0068, 194.9401
738.9353, 210.3564
740.8638, 228.4664
742.7922, 249.3332
744.7207, 272.6950
746.6492, 298.8070
748.5776, 326.0907
750.5061, 354.4898
752.4346, 383.3148
754.3630, 412.0893
756.2915, 441.7142
758.2200, 471.6422
760.1484, 503.7424
762.0769, 539.5776
764.0054, 577.3181
765.9338, 616.6764
767.8623, 655.9943
769.7908, 695.5992
771.7192, 732.2441
773.6477, 760.5231
775.5762, 779.4832
777.5046, 786.6830
779.4331, 782.2245
781.3616, 764.9133
783.2900, 735.1022
785.2185, 704.3849
787.1470, 672.9604
789.0754, 646.0136
791.0039, 622.7618
792.9324, 608.4278
794.8608, 602.9683
796.7893, 608.4128
798.7178, 626.3895
800.6462, 653.3162
802.5747, 688.0046
804.5032, 731.7293
806.4316, 786.1193
808.3601, 848.3271
810.2886, 919.0988
812.2170, 994.1553
814.1455, 1073.146
816.0740, 1150.739
818.0024, 1221.953
819.9309, 1287.448
821.8594, 1346.709
823.7878, 1401.583
825.7163, 1458.043
827.6448, 1515.297
829.5732, 1569.101
831.5017, 1619.747
833.4302, 1657.309
835.3586, 1683.685
837.2871, 1685.079
839.2156, 1661.054
841.1440, 1611.632
843.0725, 1537.337
845.0010, 1435.139
846.9294, 1299.869
848.8579, 1149.524
850.7864, 977.3235
852.7148, 817.6285
854.6433, 675.8155
856.5718, 557.2773
858.5002, 466.7971
860.4287, 395.2674
862.3572, 342.7497
864.2856, 301.9622
866.2141, 271.6370
868.1426, 247.8529
870.0710, 229.6994
871.9995, 215.2678
873.9280, 203.7826
875.8564, 194.2539
877.7849, 186.0477
879.7134, 178.8456
881.6418, 172.4009
883.5703, 166.5197
885.4988, 160.8259
887.4272, 155.4165
889.3557, 150.4728
891.2842, 145.9164
893.2126, 141.7101
895.1411, 137.7899
897.0696, 133.8244
898.9980, 129.8121
900.9265, 125.6740
902.8550, 121.4707
904.7834, 117.8779
906.7119, 114.9193
908.6404, 112.0701
910.5688, 109.3069
912.4973, 106.3435
914.4258, 103.0411
916.3542, 100.3032
918.2827, 98.36849
920.2112, 96.40331
922.1396, 94.18910
924.0681, 92.31882
925.9966, 90.54343
927.9250, 88.62722
929.8535, 87.33426
931.7820, 85.34608
933.7104, 84.01904
935.6389, 82.97990
937.5674, 82.43748
939.4958, 81.67138
941.4243, 80.38779
943.3528, 79.15513
945.2813, 78.10389
947.2097, 77.19817
949.1382, 76.39838
951.0667, 75.71239
952.9951, 75.18480
954.9236, 74.81285
956.8521, 74.76913
958.7805, 74.41897
960.7090, 73.24631
962.6375, 72.16258
964.5659, 71.69176
966.4944, 71.24261
968.4229, 70.32708
970.3513, 69.72111
972.2798, 70.22185
974.2083, 70.63792
976.1367, 70.00806
978.0652, 69.23443
979.9937, 68.98264
981.9221, 68.80787
983.8506, 68.32947
985.7791, 67.87349
987.7075, 67.68399
989.6360, 67.62562
991.5645, 67.74917
993.4929, 67.83376
995.4214, 67.50460
997.3499, 67.02911
999.2783, 66.69919
1001.207, 66.62566
1003.135, 67.01973
1005.064, 67.41306
1006.992, 67.16328
1008.921, 66.76173
1010.849, 66.85763
1012.778, 67.17056
1014.706, 67.37289
1016.635, 67.45163
1018.563, 67.41769
1020.491, 67.31978
1022.420, 67.10158
1024.348, 66.92413
1026.277, 67.13875
1028.205, 67.37814
1030.134, 67.06318
1032.062, 66.61407
1033.991, 66.54386
1035.919, 66.64688
1037.848, 66.72240
1039.776, 66.76242
1041.705, 66.85693
1043.633, 66.84315
1045.562, 66.29678
1047.490, 65.71548
1049.418, 65.91614
1051.347, 66.31882
1053.275, 66.08727
1055.204, 65.57558
1057.132, 65.31492
1059.061, 65.12453
1060.989, 64.66713
1062.918, 64.24495
1064.846, 64.20101
1066.775, 64.19270
1068.703, 63.97703
1070.632, 63.74097
1072.560, 63.68349
1074.489, 63.52724
1076.417, 62.82377
1078.345, 62.19581
1080.274, 62.22843
1082.202, 62.38863
1084.131, 62.44675
1086.059, 62.42653
1087.988, 62.19056
1089.916, 61.81394
1091.845, 61.35369
1093.773, 60.92656
1095.702, 60.53149
1097.630, 60.30254
1099.559, 60.49697
1101.487, 60.55047
1103.416, 59.99386
1105.344, 59.56097
1107.272, 59.69873
1109.201, 59.89138
1111.129, 59.99178
1113.058, 59.85546
1114.986, 59.36686
1116.915, 58.96288
1118.843, 58.59074
1120.772, 58.34934
1122.700, 58.50746
1124.629, 58.57819
1126.557, 58.36494
1128.486, 58.14397
1130.414, 57.95449
1132.343, 57.81535
1134.271, 57.73759
1136.199, 57.72399
1138.128, 57.79039
1140.056, 57.78777
1141.985, 57.67663
1143.913, 57.53931
1145.842, 57.42966
1147.770, 57.26785
1149.699, 57.02139
1151.627, 56.91047
1153.556, 56.66346
1155.484, 56.67965
1157.413, 56.23115
1159.341, 55.94932
1161.270, 55.76674
1163.198, 55.82694
1165.126, 55.58094
1167.055, 55.47269
1168.983, 55.38722
1170.912, 55.21291
1172.840, 55.25890
1174.769, 55.28378
1176.697, 55.26956
1178.626, 55.21638
1180.554, 55.05790
1182.483, 54.53513
1184.411, 54.11275
1186.340, 54.65523
1188.268, 55.21941
1190.197, 54.47221
1192.125, 53.55727
1194.053, 53.65936
1195.982, 53.80582
1197.910, 53.01167
1199.839, 52.85588
1201.767, 54.74406
1203.696, 55.58919
1205.624, 53.85109
1207.553, 52.53899
1209.481, 52.62886
1211.410, 52.60109
1213.338, 52.01447
1215.267, 51.80776
1217.195, 52.19850
1219.124, 52.32758
1221.052, 52.12035
1222.980, 51.83422
1224.909, 51.47301
1226.837, 51.66996
1228.766, 51.36242
1230.694, 52.00953
1232.623, 51.13483
1234.551, 50.61953
1236.480, 50.49535
1238.408, 50.97191
1240.337, 51.42747
1242.265, 50.81815
1244.194, 50.04213
1246.122, 50.18587
1248.051, 50.50658
1249.979, 50.19103
1251.907, 49.75563
1253.836, 49.77650
1255.764, 49.83678
1257.693, 49.53222
1259.621, 49.31657
1261.550, 49.46510
1263.478, 49.54396
1265.407, 49.39952
1267.335, 49.22261
1269.264, 49.06599
1271.192, 49.10344
1273.121, 48.91661
1275.049, 49.12157
1276.978, 48.67119
1278.906, 48.83135
1280.834, 48.68596
1282.763, 48.71624
1284.691, 48.83219
1286.620, 48.87630
1288.548, 48.94359
1290.477, 49.13976
1292.405, 49.06223
1294.334, 49.12274
1296.262, 49.16555
1298.191, 49.05742
1300.119, 49.14843
1302.048, 49.11330
1303.976, 48.96361
1305.905, 49.17209
1307.833, 48.79327
1309.761, 48.92751
1311.690, 49.18964
1313.618, 49.41053
1315.547, 49.40350
1317.475, 49.30486
1319.404, 49.04105
1321.332, 48.66222
1323.261, 48.96635
1325.189, 49.58482
1327.118, 49.72509
1329.046, 49.66679
1330.975, 49.52887
1332.903, 49.43703
1334.832, 49.63551
1336.760, 49.81301
1338.688, 49.80674
1340.617, 49.74730
1342.545, 49.78255
1344.474, 49.74652
1346.402, 49.43821
1348.331, 49.20976
1350.259, 49.14650
1352.188, 49.20090
1354.116, 49.39313
1356.045, 49.05391
1357.973, 49.25458
1359.902, 49.27462
1361.830, 49.28816
1363.759, 49.40542
1365.687, 49.28101
1367.615, 49.23096
1369.544, 49.00198
1371.472, 49.04398
1373.401, 49.11118
1375.329, 49.04950
1377.258, 49.32255
1379.186, 49.30674
1381.115, 49.22887
1383.043, 49.10171
1384.972, 49.51822
1386.900, 49.45990
1388.829, 49.47021
1390.757, 49.67983
1392.686, 49.46888
1394.614, 49.44171
1396.542, 49.59124
1398.471, 49.84269
1400.399, 49.99164
1402.328, 49.93949
1404.256, 49.65553
1406.185, 49.44987
1408.113, 49.41173
1410.042, 49.64082
1411.970, 50.15490
1413.899, 50.29414
1415.827, 49.98193
1417.756, 49.81900
1419.684, 49.90382
1421.613, 49.99316
1423.541, 49.87177
1425.469, 49.75984
1427.398, 49.80420
1429.326, 49.75690
1431.255, 49.52227
1433.183, 49.23805
1435.112, 49.17020
1437.040, 49.24544
1438.969, 49.33521
1440.897, 49.45392
1442.826, 49.45719
1444.754, 49.43102
1446.683, 49.46288
1448.611, 49.31325
1450.540, 48.93828
1452.468, 48.81480
1454.396, 49.44662
1456.325, 49.93016
1458.253, 49.67599
1460.182, 49.43383
1462.110, 49.29631
1464.039, 49.20675
1465.967, 49.22840
1467.896, 49.17553
1469.824, 49.02413
1471.753, 48.86271
1473.681, 48.86137
1475.610, 48.78787
1477.538, 48.72614
1479.467, 48.82717
1481.395, 48.70648
1483.323, 48.82823
1485.252, 48.97302
1487.180, 49.16401
1489.109, 49.06872
1491.037, 48.81988
1492.966, 49.01876
1494.894, 48.83945
1496.823, 49.10154
1498.751, 48.76639
1500.680, 48.80923
1502.608, 48.86439
1504.537, 49.23974
1506.465, 49.56433
1508.394, 49.38537
1510.322, 49.39021
1512.250, 49.63109
1514.179, 49.46593
1516.107, 49.13139
1518.036, 49.41061
1519.964, 49.17686
1521.893, 49.65076
1523.821, 49.21943
1525.750, 49.49892
1527.678, 49.85471
1529.607, 49.83735
1531.535, 49.84071
1533.464, 49.97252
1535.392, 50.00053
1537.321, 50.22583
1539.249, 50.46384
1541.177, 50.39566
1543.106, 50.16865
1545.034, 50.06633
1546.963, 50.23860
1548.891, 50.42791
1550.820, 50.62825
1552.748, 50.85852
1554.677, 50.85802
1556.605, 50.17761
1558.534, 49.42724
1560.462, 49.84369
1562.391, 50.43628
1564.319, 50.06531
1566.248, 49.51199
1568.176, 49.52039
1570.104, 49.55369
1572.033, 49.15062
1573.961, 49.01237
1575.890, 49.21795
1577.818, 49.39531
1579.747, 49.55228
1581.675, 49.50090
1583.604, 49.21857
1585.532, 49.02419
1587.461, 49.18069
1589.389, 49.39123
1591.318, 49.17112
1593.246, 48.78849
1595.175, 48.65911
1597.103, 48.76922
1599.031, 48.75758
1600.960, 48.50993
1602.888, 48.97068
1604.817, 49.51054
1606.745, 49.10035
1608.674, 48.41389
1610.602, 48.04177
1612.531, 48.31114
1614.459, 48.80653
1616.388, 48.82926
1618.316, 48.55414
1620.245, 48.05111
1622.173, 47.53888
1624.102, 47.32205
1626.030, 47.47792
1627.958, 47.77370
1629.887, 47.74048
1631.815, 47.91845
1633.744, 47.63776
1635.672, 47.95959
1637.601, 47.92955
1639.529, 47.65154
1641.458, 47.61293
1643.386, 47.62307
1645.315, 47.32892
1647.243, 46.92179
1649.172, 46.55243
1651.100, 46.47463
1653.029, 46.63909
1654.957, 46.64165
1656.885, 46.57396
1658.814, 46.32943
1660.742, 46.16710
1662.671, 46.55178
1664.599, 46.66852
1666.528, 46.43554
1668.456, 46.57404
1670.385, 46.67477
1672.313, 46.33235
1674.242, 46.04190
1676.170, 45.96818
1678.099, 45.88125
1680.027, 45.78764
1681.956, 45.98490
1683.884, 46.34267
1685.813, 46.38995
1687.741, 45.88518
1689.669, 45.62124
1691.598, 45.90260
1693.526, 46.01027
1695.455, 45.48098
1697.383, 45.01160
1699.312, 45.44975
1701.240, 45.84840
1703.169, 45.59010
1705.097, 45.16050
1707.026, 44.94544
1708.954, 45.01238
1710.883, 44.98459
1712.811, 45.07615
1714.740, 45.09655
1716.668, 44.80233
1718.596, 44.65765
1720.525, 44.56493
1722.453, 44.34363
1724.382, 44.09231
1726.310, 43.99323
1728.239, 44.04015
1730.167, 44.38003
1732.096, 44.68083
1734.024, 44.50399
1735.953, 44.08509
1737.881, 43.51870
1739.810, 43.34540
1741.738, 43.43312
1743.667, 43.53914
1745.595, 43.60436
1747.523, 43.22181
1749.452, 43.01957
1751.380, 43.35174
1753.309, 43.13119
1755.237, 43.28635
1757.166, 43.29494
1759.094, 43.33567
1761.023, 43.26104
1762.951, 42.92046
1764.880, 42.83526
1766.808, 42.69525
1768.737, 42.47624
1770.665, 42.29473
1772.594, 42.36141
1774.522, 42.46766
1776.450, 42.20076
1778.379, 42.31089
1780.307, 41.99407
1782.236, 42.22307
1784.164, 41.97187
1786.093, 41.78084
1788.021, 42.00364
1789.950, 42.10699
1791.878, 41.90855
1793.807, 41.74174
1795.735, 41.51593
1797.664, 41.34117
1799.592, 41.12528
1801.521, 40.90635
1803.449, 40.91540
1805.377, 40.80009
1807.306, 40.75163
1809.234, 40.82685
1811.163, 40.69690
1813.091, 40.83884
1815.020, 40.81869
1816.948, 40.58704
1818.877, 40.79424
1820.805, 41.09907
1822.734, 41.00383
1824.662, 40.47514
1826.591, 39.92340
1828.519, 39.96944
1830.448, 40.16309
1832.376, 39.98621
1834.304, 39.89196
1836.233, 39.68408
1838.161, 39.57339
1840.090, 39.50570
1842.018, 39.32471
1843.947, 39.39000
1845.875, 39.29438
1847.804, 39.20713
1849.732, 39.12540
1851.661, 38.94221
1853.589, 38.89153
1855.518, 38.73426
1857.446, 38.66829
1859.375, 38.50822
1861.303, 38.52906
1863.231, 38.42818
1865.160, 38.32774
1867.088, 38.22940
1869.017, 38.04755
1870.945, 37.80507
1872.874, 38.01446
1874.802, 38.17771
1876.731, 38.01986
1878.659, 37.92674
1880.588, 37.58338
1882.516, 37.61809
1884.445, 37.59739
1886.373, 37.26396
1888.302, 37.28966
1890.230, 37.39310
1892.158, 37.40646
1894.087, 37.27972
1896.015, 37.08011
1897.944, 36.93902
1899.872, 37.40186
1901.801, 37.62794
1903.729, 37.19519
1905.658, 36.90807
1907.586, 36.92749
1909.515, 37.10881
1911.443, 37.28234
1913.372, 37.06830
1915.300, 36.66222
1917.229, 36.52508
1919.157, 36.39553
1921.085, 36.18348
1923.014, 36.10639
1924.942, 36.06549
1926.871, 35.97423
1928.799, 36.21844
1930.728, 36.31982
1932.656, 36.03873
1934.585, 35.67656
1936.513, 35.76662
1938.442, 35.82963
1940.370, 35.57603
1942.299, 35.42700
1944.227, 35.64176
1946.156, 35.94344
1948.084, 35.78020
1950.012, 35.37848
1951.941, 35.24859
1953.869, 35.15920
1955.798, 34.92299
1957.726, 34.87492
1959.655, 34.84493
1961.583, 34.67066
1963.512, 34.70792
1965.440, 34.85318
1967.369, 34.81542
1969.297, 34.71055
1971.226, 34.65055
1973.154, 34.56237
1975.083, 34.38942
1977.011, 34.21082
1978.939, 34.29139
1980.868, 34.27568
1982.796, 33.86855
1984.725, 33.71275
1986.653, 33.96723
1988.582, 33.76720
1990.510, 33.30189
1992.439, 33.47289
1994.367, 33.51401
1996.296, 33.42387
1998.224, 33.46482
2000.153, 33.44701
2002.081, 33.40299
2004.010, 33.28191
2005.938, 33.33080
2007.866, 33.25174
2009.795, 33.25776
2011.723, 33.13070
2013.652, 33.03001
2015.580, 32.86127
2017.509, 33.10954
2019.437, 33.28689
2021.366, 32.94641
2023.294, 32.48428
2025.223, 32.44651
2027.151, 32.42725
2029.080, 32.40352
2031.008, 32.50890
2032.937, 32.32963
2034.865, 32.14432
2036.793, 32.16865
2038.722, 32.34983
2040.650, 32.03451
2042.579, 32.16565
2044.507, 31.62214
2046.436, 31.96492
2048.364, 31.74859
2050.293, 31.22910
2052.221, 31.15123
2054.150, 31.25142
2056.078, 31.21206
2058.007, 31.21684
2059.935, 31.35071
2061.864, 31.56351
2063.792, 31.27445
2065.720, 30.95934
2067.649, 30.74327
2069.577, 30.83549
2071.506, 30.58019
2073.434, 30.77678
2075.363, 30.43086
2077.291, 30.87934
2079.220, 31.01686
2081.148, 30.85900
2083.077, 30.80619
2085.005, 30.77125
2086.934, 30.47549
2088.862, 30.40179
2090.791, 30.41930
2092.719, 30.24888
2094.647, 30.23027
2096.576, 30.14851
2098.504, 29.90772
2100.433, 29.65353
2102.361, 29.50909
2104.290, 29.41169
2106.218, 29.50650
2108.147, 29.62380
2110.075, 29.35162
2112.004, 29.16978
2113.932, 29.20802
2115.861, 29.16091
2117.789, 29.16567
2119.718, 29.14715
2121.646, 29.02917
2123.574, 29.05396
2125.503, 29.01936
2127.431, 28.85299
2129.360, 28.81714
2131.288, 28.80433
2133.217, 29.07019
2135.145, 29.28310
2137.074, 28.85489
2139.002, 28.43548
2140.931, 28.30569
2142.859, 28.44226
2144.788, 28.60002
2146.716, 28.59562
2148.645, 28.46826
2150.573, 28.33920
2152.501, 28.49788
2154.430, 28.36427
2156.358, 27.86716
2158.287, 27.72902
2160.215, 27.83032
2162.144, 27.87533
2164.072, 27.85134
2166.001, 27.71758
2167.929, 27.50799
2169.858, 27.39671
2171.786, 27.32049
2173.715, 27.16188
2175.643, 27.30367
2177.572, 27.21063
2179.500, 26.82706
2181.428, 26.79525
2183.357, 26.89912
2185.285, 26.82763
2187.214, 26.74927
2189.142, 26.55550
2191.071, 26.46035
2192.999, 26.56159
2194.928, 26.88973
2196.856, 26.91662
2198.785, 26.68862
2200.713, 26.91327
2202.642, 26.55434
2204.570, 25.95171
2206.499, 25.84175
2208.427, 25.77105
2210.355, 25.94595
2212.284, 26.06943
2214.212, 25.91435
2216.141, 26.01642
2218.069, 26.02747
2219.998, 25.82941
2221.926, 25.96274
2223.855, 25.91414
2225.783, 25.44725
2227.712, 25.25908
2229.640, 25.16833
2231.569, 25.29275
2233.497, 25.53881
2235.426, 25.73513
2237.354, 25.66025
2239.282, 24.99159
2241.211, 24.74036
2243.139, 24.97261
2245.068, 24.64249
2246.996, 24.50932
2248.925, 24.92883
2250.853, 25.24805
2252.782, 24.85586
2254.710, 24.32449
2256.639, 24.39559
2258.567, 24.69857
2260.496, 24.80386
2262.424, 24.47175
2264.353, 24.37994
2266.281, 24.27170
2268.209, 24.07335
2270.138, 24.01627
2272.066, 23.88260
2273.995, 23.79391
2275.923, 23.88434
2277.852, 23.80624
2279.780, 23.91377
2281.709, 23.75098
2283.637, 23.86453
2285.566, 23.70838
2287.494, 23.60299
2289.423, 23.44624
2291.351, 23.39021
2293.280, 23.52333
2295.208, 23.47535
2297.136, 23.39169
2299.065, 23.19299
2300.993, 23.08756
2302.922, 23.32215
2304.850, 23.26374
2306.779, 23.41880
2308.707, 23.22155
2310.636, 22.87111
2312.564, 22.95535
2314.493, 22.59124
2316.421, 22.33524
2318.350, 22.66691
2320.278, 22.54887
2322.207, 22.34421
2324.135, 22.75997
2326.063, 22.83325
2327.992, 22.35981
2329.920, 22.33029
2331.849, 22.44996
2333.777, 22.18356
2335.706, 21.95201
2337.634, 21.92215
2339.563, 21.88838
2341.491, 21.63459
2343.420, 21.57016
2345.348, 21.54638
2347.277, 21.46179
2349.205, 21.53083
2351.134, 21.46800
2353.062, 21.41257
2354.990, 21.46344
2356.919, 21.50392
2358.847, 21.41967
2360.776, 21.70216
2362.704, 21.30162
2364.633, 21.42279
2366.561, 21.00401
2368.490, 21.29296
2370.418, 21.42121
2372.347, 21.21899
2374.275, 20.82571
2376.204, 20.58892
2378.132, 20.51960
2380.061, 20.39147
2381.989, 20.58216
2383.917, 20.53845
2385.846, 20.74334
2387.774, 21.14989
2389.703, 21.12479
2391.631, 20.71811
2393.560, 20.32394
2395.488, 19.80768
2397.417, 19.73495
2399.345, 19.71438
2401.274, 19.84522
2403.202, 19.81223
2405.131, 19.82245
2407.059, 19.79922
2408.988, 19.76285
2410.916, 19.76125
2412.844, 19.71123
2414.773, 19.66083
2416.701, 19.63434
2418.630, 19.43175
2420.558, 19.40047
2422.487, 19.36527
2424.415, 19.34843
2426.344, 19.36444
2428.272, 19.34729
2430.201, 19.32287
2432.129, 19.16566
2434.058, 18.85662
2435.986, 18.64258
2437.915, 18.65400
2439.843, 18.70103
2441.771, 18.67553
2443.700, 18.87355
2445.628, 18.87836
2447.557, 18.46379
2449.485, 18.31715
2451.414, 18.52693
2453.342, 18.50588
2455.271, 18.35080
2457.199, 17.97291
2459.128, 17.66228
2461.056, 17.66862
2462.985, 17.57617
2464.913, 17.75229
2466.842, 17.97562
2468.770, 18.41356
2470.698, 19.10479
2472.627, 18.27454
2474.555, 17.59618
2476.484, 17.57946
2478.412, 17.62631
2480.341, 17.36417
2482.269, 17.26432
2484.198, 17.50536
2486.126, 17.62793
2488.055, 17.48051
2489.983, 17.27921
2491.912, 17.33831
2493.840, 17.17805
2495.769, 17.10858
2497.697, 17.09937
2499.625, 17.03129
2501.554, 16.68436
2503.482, 16.96785
2505.411, 17.03401
2507.339, 16.93901
2509.268, 16.32532
2511.196, 16.58349
2513.125, 16.39897
2515.053, 16.13031
2516.982, 16.20358
2518.910, 16.23147
2520.839, 16.38570
2522.767, 16.37471
2524.696, 16.13481
2526.624, 16.22090
2528.552, 16.37853
2530.481, 16.02627
2532.409, 16.11904
2534.338, 16.15390
2536.266, 15.96254
2538.195, 16.19105
2540.123, 16.14754
2542.052, 15.89877
2543.980, 15.52781
2545.909, 15.27513
2547.837, 15.45119
2549.766, 15.59568
2551.694, 15.10417
2553.623, 15.16393
2555.551, 15.56188
2557.479, 15.32277
2559.408, 15.00589
2561.336, 14.85937
2563.265, 14.69709
2565.193, 14.48423
2567.122, 14.33329
2569.050, 14.84915
2570.979, 14.97229
2572.907, 14.77863
2574.836, 14.77719
2576.764, 14.81093
2578.693, 14.74377
2580.621, 14.48024
2582.550, 14.23930
2584.478, 14.19834
2586.406, 14.46101
2588.335, 14.24094
2590.263, 14.32847
2592.192, 14.05642
2594.120, 14.32457
2596.049, 14.26942
2597.977, 14.30710
2599.906, 14.27119
2601.834, 14.04628
2603.763, 13.80513
2605.691, 13.70449
2607.620, 13.67859
2609.548, 13.47643
2611.477, 13.32680
2613.405, 13.45711
2615.333, 13.46121
2617.262, 13.47408
2619.190, 13.59845
2621.119, 13.32186
2623.047, 13.17641
2624.976, 13.29564
2626.904, 13.07242
2628.833, 12.97734
2630.761, 13.28890
2632.690, 13.48905
2634.618, 13.18110
2636.547, 12.59667
2638.475, 12.53710
2640.404, 12.66891
2642.332, 12.85500
2644.260, 12.64399
2646.189, 12.60863
2648.117, 12.54711
2650.046, 12.52804
2651.974, 12.50876
2653.903, 12.82511
2655.831, 12.51532
2657.760, 12.48814
2659.688, 12.53349
2661.617, 12.10742
2663.545, 12.16552
2665.474, 12.41927
2667.402, 12.14138
2669.331, 11.98438
2671.259, 11.96510
2673.188, 11.65371
2675.116, 11.65140
2677.044, 11.94702
2678.973, 11.81925
2680.901, 11.97094
2682.830, 12.15799
2684.758, 12.18714
2686.687, 11.87110
2688.615, 11.58250
2690.544, 11.55634
2692.472, 12.20774
2694.401, 11.34943
2696.329, 11.61466
2698.258, 11.50270
2700.186, 11.14885
2702.115, 10.93585
2704.043, 11.25557
2705.971, 11.18260
2707.900, 10.68564
2709.828, 10.93536
2711.757, 11.22205
2713.685, 11.11589
2715.614, 10.60072
2717.542, 10.50872
2719.471, 10.66539
2721.399, 10.74200
2723.328, 10.38796
2725.256, 10.14383
2727.185, 10.72614
2729.113, 10.49858
2731.042, 10.09917
2732.970, 10.60583
2734.898, 10.60674
2736.827, 10.40546
2738.755, 10.17707
2740.684, 10.51439
2742.612, 10.57192
2744.541, 10.17299
2746.469, 10.09976
2748.398, 10.05713
2750.326, 9.943634
2752.255, 10.00786
2754.183, 9.897717
2756.112, 9.693537
2758.040, 9.775894
2759.969, 9.580953
2761.897, 9.359011
2763.825, 9.364493
2765.754, 9.676888
2767.682, 10.01405
2769.611, 9.878897
2771.539, 9.675706
2773.468, 9.435021
2775.396, 9.465755
2777.325, 9.209971
2779.253, 9.502554
2781.182, 9.553171
2783.110, 9.550731
2785.039, 9.484478
2786.967, 9.327186
2788.896, 8.968948
2790.824, 8.927381
2792.752, 8.896710
2794.681, 8.634561
2796.609, 8.748829
2798.538, 8.795253
2800.466, 8.470382
2802.395, 8.521025
2804.323, 8.524969
2806.252, 8.266816
2808.180, 8.743064
2810.109, 8.825010
2812.037, 8.385366
2813.966, 8.225947
2815.894, 8.438505
2817.823, 8.911920
2819.751, 8.817735
2821.679, 8.638086
2823.608, 8.591685
2825.536, 8.551499
2827.465, 8.182851
2829.393, 8.154578
2831.322, 7.996945
2833.250, 8.109285
2835.179, 7.910649
2837.107, 7.955179
2839.036, 8.230835
2840.964, 8.420404
2842.893, 8.334337
2844.821, 7.908483
2846.750, 7.425482
2848.678, 7.217677
2850.606, 7.404778
2852.535, 7.328353
2854.463, 7.703593
2856.392, 8.211241
2858.320, 8.227357
2860.249, 7.737639
2862.177, 7.299998
2864.106, 7.191820
2866.034, 6.952275
2867.963, 6.881076
2869.891, 6.898239
2871.820, 6.926355
2873.748, 7.114369
2875.677, 7.273008
2877.605, 7.404884
2879.533, 7.409567
2881.462, 7.397563
2883.390, 7.431657
2885.319, 7.329254
2887.247, 7.269298
2889.176, 7.113597
2891.104, 6.965755
2893.033, 6.856412
2894.961, 6.512705
2896.890, 6.643889
2898.818, 6.929579
2900.747, 7.078681
2902.675, 6.901373
2904.604, 6.231728
2906.532, 6.130859
2908.460, 6.421597
2910.389, 6.444725
2912.317, 6.683433
2914.246, 6.742606
2916.174, 6.715813
2918.103, 6.530758
2920.031, 6.613070
2921.960, 6.459666
2923.888, 6.415401
2925.817, 6.516834
2927.745, 6.453696
2929.674, 5.928583
2931.602, 5.824578
2933.531, 6.139412
2935.459, 6.608489
2937.387, 6.360168
2939.316, 6.259824
2941.244, 6.354560
2943.173, 6.405966
2945.101, 6.438897
2947.030, 6.418559
2948.958, 6.614764
2950.887, 6.391698
2952.815, 6.513784
2954.744, 6.674528
2956.672, 6.335435
2958.601, 6.327081
2960.529, 6.474062
2962.458, 6.511280
2964.386, 6.576810
2966.314, 6.563541
2968.243, 6.545929
2970.171, 6.450434
2972.100, 6.070899
2974.028, 5.939988
2975.957, 6.041777
2977.885, 5.920319
2979.814, 5.936852
2981.742, 5.868033
2983.671, 5.770988
2985.599, 5.590075
2987.528, 5.683130
2989.456, 5.471763
2991.385, 5.645491
2993.313, 5.565210
2995.241, 5.513551
2997.170, 5.633434
2999.098, 5.275481
3001.027, 5.611231
3002.955, 6.140714
3004.884, 5.768088
3006.812, 5.813225
3008.741, 5.870581
3010.669, 5.756194
3012.598, 5.558741
3014.526, 5.552520
3016.455, 5.701575
3018.383, 5.975786
3020.312, 5.576941
3022.240, 5.285559
3024.168, 5.408748
3026.097, 5.778360
3028.025, 5.320415
3029.954, 5.116440
3031.882, 5.630675
3033.811, 5.243781
3035.739, 5.169796
3037.668, 5.432026
3039.596, 5.615135
3041.525, 5.623575
3043.453, 5.619759
3045.382, 5.592289
3047.310, 5.309698
3049.239, 5.456578
3051.167, 5.438484
3053.095, 4.999202
3055.024, 4.887655
3056.952, 4.977391
3058.881, 5.304314
3060.809, 5.363969
3062.738, 5.637601
3064.666, 5.498436
3066.595, 4.949152
3068.523, 5.021709
3070.452, 5.235312
3072.380, 5.473692
3074.309, 5.544860
3076.237, 5.549622
3078.166, 5.170785
3080.094, 5.416693
3082.022, 5.217166
3083.951, 5.191699
3085.879, 5.079676
3087.808, 5.000979
3089.736, 5.154485
3091.665, 5.042495
3093.593, 5.392991
3095.522, 5.082692
3097.450, 5.320566
3099.379, 5.530524
3101.307, 5.590943
3103.236, 5.473878
3105.164, 5.152074
3107.093, 4.997941
3109.021, 4.901861
3110.949, 5.039314
3112.878, 5.401780
3114.806, 5.302967
3116.735, 5.222991
3118.663, 5.528569
3120.592, 5.066320
3122.520, 4.925107
3124.449, 5.099861
3126.377, 5.552833
3128.306, 5.357102
3130.234, 5.322176
3132.163, 5.320745
3134.091, 5.261668
3136.020, 5.163452
3137.948, 4.931307
3139.876, 4.883186
3141.805, 5.202319
3143.733, 4.801079
3145.662, 4.802841
3147.590, 5.475911
3149.519, 5.552392
3151.447, 5.574899
3153.376, 5.485854
3155.304, 5.412030
3157.233, 5.644243
3159.161, 5.646355
3161.090, 5.649329
3163.018, 5.879479
3164.947, 5.044756
3166.875, 5.594090
3168.803, 5.948496
3170.732, 5.258741
3172.660, 5.165082
3174.589, 5.533270
3176.517, 5.741435
3178.446, 5.403723
3180.374, 5.391368
3182.303, 5.420286
3184.231, 5.185359
3186.160, 5.302027
3188.088, 4.990658
3190.017, 5.337960
3191.945, 5.650766
3193.874, 5.580362
3195.802, 5.973076
3197.730, 5.352282
3199.659, 4.991270
3201.587, 5.049510
3203.516, 4.749477
3205.444, 5.052242
3207.373, 5.581581
3209.301, 5.931044
3211.230, 5.809953
3213.158, 5.372885
3215.087, 5.032634
3217.015, 4.858487
3218.944, 4.500908
3220.872, 4.582870
3222.801, 4.852530
3224.729, 5.031105
3226.657, 5.108976
3228.586, 5.434796
3230.514, 5.575755
3232.443, 5.402203
3234.371, 4.943158
3236.300, 4.616671
3238.228, 4.392992
3240.157, 4.395086
3242.085, 4.494930
3244.014, 4.156851
3245.942, 4.090472
3247.871, 4.125241
3249.799, 4.006464
3251.728, 4.144176
3253.656, 4.152392
3255.584, 4.003727
3257.513, 3.924209
3259.441, 4.000466
3261.370, 3.883619
3263.298, 3.888706
3265.227, 4.354925
3267.155, 3.485882
3269.084, 3.451012
3271.012, 3.878529
3272.941, 3.980003
3274.869, 3.462413
3276.798, 3.318585
3278.726, 3.871068
3280.655, 4.463359
3282.583, 3.393230
3284.511, 3.153082
3286.440, 3.534278
3288.368, 3.773923
3290.297, 3.165591
3292.225, 2.911060
3294.154, 3.083780
3296.082, 3.161862
3298.011, 2.591317
3299.939, 3.159890
3301.868, 3.408883
3303.796, 3.108779
3305.725, 2.614919
3307.653, 2.983003
3309.582, 2.897046
3311.510, 2.732767
3313.438, 2.841239
3315.367, 2.723786
3317.295, 3.090650
3319.224, 2.720439
3321.152, 2.441480
3323.081, 2.569380
3325.009, 2.241897
3326.938, 2.462272
3328.866, 2.926967
3330.795, 3.141212
3332.723, 2.927490
3334.652, 2.596560
3336.580, 2.596893
3338.509, 2.644085
3340.437, 2.271026
3342.365, 2.433690
3344.294, 2.432761
3346.222, 2.355416
3348.151, 2.276842
3350.079, 2.390794
3352.008, 2.268477
3353.936, 2.067506
3355.865, 1.992125
3357.793, 2.242340
3359.722, 1.884176
3361.650, 1.369137
3363.579, 1.151361
3365.507, 1.508357
3367.436, 2.493391
3369.364, 2.562911
3371.292, 1.888657
3373.221, 1.262962
3375.149, 1.714713
3377.078, 1.873196
3379.006, 2.147122
3380.935, 2.143028
3382.863, 1.767961
3384.792, 1.907398
3386.720, 1.717800
3388.649, 1.811638
3390.577, 1.914711
3392.506, 1.854759
3394.434, 1.623888
3396.363, 1.856351
3398.291, 1.763817
3400.219, 1.679511
3402.148, 1.834582
3404.076, 1.714301
3406.005, 1.644278
3407.933, 1.647764
3409.862, 1.348368
3411.790, 1.293697
3413.719, 1.034208
3415.647, 1.309811
3417.576, 1.573460
3419.504, 1.468054
3421.433, 1.631746
3423.361, 1.541733
3425.290, 1.595993
3427.218, 1.706486
3429.146, 1.575568
3431.075, 1.689857
3433.003, 1.432093
3434.932, 1.365685
3436.860, 1.646082
3438.789, 1.071712
3440.717, 1.058450
3442.646, 1.586415
3444.574, 1.657218
3446.503, 1.560947
3448.431, 1.542645
3450.360, 1.291566
3452.288, 1.253958
3454.217, 1.255648
3456.145, 1.280319
3458.073, 1.434399
3460.002, 1.328554
3461.930, 1.741318
3463.859, 1.387132
3465.787, 1.316464
3467.716, 1.453824
3469.644, 0.8832640
3471.573, 0.3693896
3473.501, 0.5109413
3475.430, 1.339701
3477.358, 1.322785
3479.287, 1.005685
3481.215, 0.9522093
3483.144, 1.107537
3485.072, 0.9248178
3487.000, 0.7751399
3488.929, 0.9517094
3490.857, 0.9116537
3492.786, 0.6686439
3494.714, 0.9408229
3496.643, 0.7222538
3498.571, 1.113117
3500.500, 0.7160137
3502.428, 1.076075
3504.357, 1.506157
3506.285, 1.488859
3508.214, 1.370418
3510.142, 1.281567
3512.071, 1.066014
3513.999, 0.6089235
3515.927, 1.132054
3517.856, 0.5207125
3519.784, 0.5418712
3521.713, 1.271968
3523.641, 1.059969
3525.570, 0.4778614
3527.498, 0.6053610
3529.427, 1.093470
3531.355, 1.233274
3533.284, 0.6573220
3535.212, 0.8405943
3537.141, 0.6645018
3539.069, 0.6571082
3540.998, 0.9746468
3542.926, 1.309770
3544.854, 0.8285495
3546.783, 0.7015092
3548.711, 0.5354826
3550.640, 0.4818694
3552.568, 0.5684522
3554.497, 0.1967368
3556.425, 0.9700735
3558.354, 1.460734
3560.282, 1.013262
3562.211, 0.2469826
3564.139, 0.4700811
3566.068, 1.158628
3567.996, 1.363013
3569.925, 1.254059
3571.853, 0.8195786
3573.781, 1.098628
3575.710, 0.4349139
3577.638, 1.198171
3579.567, 0.9871368
3581.495, 0.7813463
3583.424, 1.054802
3585.352, 0.5432829
3587.281, 1.259574
3589.209, 1.039482
3591.138, 0.9549582
3593.066, 1.201417
3594.995, 1.070545
3596.923, 0.6586007
3598.852, 0.9111274
3600.780, 0.5913351
3602.708, 0.1798725
3604.637, 0.2566200
3606.565, 0.4538076
3608.494, 0.8286819
3610.422, 0.4716455
3612.351, 0.5005915
3614.279, 0.7090321
3616.208, 0.3909852
3618.136, 0.5647048
3620.065, 0.2910498
3621.993, 0.2482004
3623.922, 0.3803948
3625.850, 0.4131876
3627.779, 0.1610234
3629.707, 0.7862781
3631.635, 0.3701111
3633.564, 0.8837958
3635.492, 1.007478
3637.421, 0.1522991
3639.349, 1.507370
3641.278, -0.1614618
3643.206, -0.1296247
3645.135, 0.8792569
3647.063, 1.114879
3648.992, 0.1377983
3650.920, 0.3724966
3652.849, -1.5467140E-02
3654.777, 0.7403447
3656.706, 1.269179
3658.634, 0.8395240
3660.563, 1.213504
3662.491, 0.5067058
3664.419, 0.9361583
3666.348, 1.026761
3668.276, 0.6335914
3670.205, 0.2917442
3672.133, 0.5642572
3674.062, 0.2301200
3675.990, 0.2453158
3677.919, 0.8378425
3679.847, 1.343346
3681.776, 1.253132
3683.704, 0.7012378
3685.633, 1.506842
3687.561, 0.7833512
3689.490, 0.6371439
3691.418, 0.3724376
3693.346, 0.3637760
3695.275, 0.2717039
3697.203, 0.2469484
3699.132, 0.2664323
3701.060, 0.3305372
3702.989, 0.3874075
3704.917, 0.4920691
3706.846, 0.8328473
3708.774, 0.6421350
3710.703, 0.6583615
3712.631, 0.4247555
3714.560, 0.5319688
3716.488, 0.5118211
3718.417, 0.7999967
3720.345, 0.9807639
3722.273, 0.8806641
3724.202, 3.1884201E-02
3726.130, 0.5660544
3728.059, 0.6596600
3729.987, 0.2130754
3731.916, 0.5812184
3733.844, 0.3040642
3735.773, -0.2906646
3737.701, 0.3888624
3739.630, 1.007205
3741.558, 0.8840581
3743.487, 0.4921883
3745.415, 0.1032792
3747.344, 0.2874198
3749.272, 0.7491068
3751.200, 0.2773075
3753.129, 0.2605838
3755.057, 0.9614400
3756.986, 0.3899713
3758.914, 0.7160524
3760.843, 0.6224948
3762.771, 0.2750982
3764.700, 0.1993487
3766.628, 0.4230520
3768.557, 0.4792350
3770.485, 0.6033882
3772.414, 0.5620707
3774.342, 0.7108777
3776.271, 0.5058015
3778.199, 0.1200562
3780.127, -7.5680673E-02
3782.056, 0.3038709
3783.984, 0.5128596
3785.913, -8.1332875E-03
3787.841, -0.2148195
3789.770, -0.3252284
3791.698, 0.2550133
3793.627, 0.9827223
3795.555, 0.2232080
3797.484, 5.1096499E-02
3799.412, 1.075751
3801.341, 0.4533574
3803.269, 0.5634049
3805.198, 0.7418154
3807.126, 0.1255467
3809.054, -0.1775895
3810.983, 0.5247780
3812.911, 0.3600643
3814.840, 0.5746843
3816.768, 0.2862402
3818.697, 5.4191239E-02
3820.625, 0.4728135
3822.554, 0.2193953
3824.482, 0.4835550
3826.411, 0.2527371
3828.339, 0.2540272
3830.268, 0.3271128
3832.196, 0.4186912
3834.125, 0.7092401
3836.053, 1.100899
3837.981, 1.006070
3839.910, 0.3534567
3841.838, 0.6705636
3843.767, 0.4456360
3845.695, -0.2854346
3847.624, -0.3816075
3849.552, 0.3249389
3851.481, -2.6942489E-03
3853.409, 0.4234268
3855.338, 0.4890226
3857.266, 0.1416076
3859.195, 0.9841919
3861.123, 1.224299
3863.052, 0.6416650
3864.980, 1.072057
3866.908, 0.8031282
3868.837, 0.3951670
3870.765, 0.4574718
3872.694, 0.5691195
3874.622, 0.6482290
3876.551, 0.8076534
3878.479, 0.6791762
3880.408, -0.1780893
3882.336, 0.1633931
3884.265, 0.6392979
3886.193, 0.1715132
3888.122, 0.7481282
3890.050, 0.7441173
3891.979, 0.4120658
3893.907, 0.6156753
3895.835, 0.2291786
3897.764, 9.0851933E-02
3899.692, 0.2991491
3901.621, 0.6795950
3903.549, 0.5942328
3905.478, 0.6257423
3907.406, 0.4889577
3909.335, 0.5224055
3911.263, 0.5878465
3913.192, 0.6319841
3915.120, 0.4512648
3917.049, 0.6801460
3918.977, 0.6166228
3920.906, 0.2465620
3922.834, 0.7346221
3924.762, 0.5049058
3926.691, 0.6752243
3928.619, 0.7126210
3930.548, 0.1632743
3932.476, 0.8256667
3934.405, -0.3637490
3936.333, 0.1075904
3938.262, 0.7996266
3940.190, 0.5090449
3942.119, 0.3390627
3944.047, 0.4423383
3945.976, 0.4762385
3947.904, 4.5397200E-02
3949.833, -0.2977819
3951.761, -0.4593780
3953.689, -0.4737955
3955.618, 0.3846716
3957.546, -4.2162672E-02
3959.475, 0.2475224
3961.403, 0.8722487
3963.332, 0.6251094
3965.260, 0.7291586
3967.189, 0.2477426
3969.117, 0.3561177
3971.046, 0.1876383
3972.974, -5.7256959E-02
3974.903, 5.4248068E-02
3976.831, 0.6069083
3978.760, 0.6786158
3980.688, 0.1367514
3982.616, -0.1949904
3984.545, 0.4802686
3986.473, 0.2444768
3988.402, 0.1390174
3990.330, 7.3769838E-02
3992.259, 9.5522935E-03
3994.187, 0.3654325
3996.116, 0.6218480
3998.044, 0.5745518
3999.973, 0.7190024
4001.901, 0.4565936
4003.830, 0.6463007
4005.758, 0.3293434
4007.687, 0.3540435
4009.615, 0.6530584
4011.543, 0.4616081
4013.472, 3.5732221E-02
4015.400, 0.3209784
4017.329, 4.3219142E-02
4019.257, 1.2045610E-02
4021.186, 0.7699768
4023.114, 1.2957550E-02
4025.043, -0.3931970
4026.971, -5.4150209E-02
4028.900, 0.2860931
4030.828, 8.5612327E-02
4032.757, 0.3229093
4034.685, -0.2894058
4036.614, 0.3038296
4038.542, 0.6834096
4040.470, 0.5577379
4042.399, 0.1386587
4044.327, -0.2605833
4046.256, -0.2455478
4048.184, 0.2310887
4050.113, 0.3269373
4052.041, -0.2794508
4053.970, -0.1958093
4055.898, -0.6487307
4057.827, -0.4591877
4059.755, -2.2517329E-02
4061.684, 0.2061726
4063.612, 0.4017791
4065.541, 0.4531122
4067.469, 5.1207509E-02
4069.397, -0.2077252
4071.326, -2.9709609E-02
4073.254, -0.1895956
4075.183, 6.1310779E-02
4077.111, -0.1075465
4079.040, -2.3085706E-02
4080.968, -0.2667984
4082.897, 7.8473031E-04
4084.825, 0.1731266
4086.754, 5.4237619E-02
4088.682, -4.1103169E-02
4090.611, -8.5370347E-02
4092.539, -0.1121138
4094.468, -0.1365768
4096.396, -9.8345801E-02
4098.324, -0.1315058
4100.253, -0.1358792
4102.181, -0.1296353
4104.110, -2.4281150E-02
4106.038, 2.5922997E-02
4107.967, -3.1755190E-02
4109.895, 0.1744506
4111.824, 6.8414003E-02
4113.752, 3.2613549E-02
4115.681, 0.5810245
4117.609, -0.3891046
4119.538, 0.6628906
4121.466, -0.2768778
4123.395, -0.1108791
4125.323, -4.9135949E-02
4127.251, -0.3359973
4129.180, 0.1332379
4131.108, 0.1467233
4133.037, 0.1707335
4134.965, 0.3387129
4136.894, 3.0039759E-02
4138.822, -0.1609388
4140.750, 0.2511174
4142.679, 0.6133896
4144.607, 0.1186825
4146.536, -8.0783337E-02
4148.464, 0.2180716
4150.393, 0.3337646
4152.321, 0.3860228
4154.250, 0.3777986
4156.178, 0.4085172
4158.107, 0.8103946
4160.035, 0.2473149
4161.964, 0.3319494
4163.892, -1.8862020E-02
4165.821, 0.4118346
4167.749, -0.5725582
4169.678, 0.7118586
4171.606, -0.5666266
4173.535, -0.7746481
4175.463, -0.4950831
4177.392, 0.1379216
4179.320, 0.1435782
4181.249, 0.4518994
4183.177, 0.6817237
4185.105, 0.4159072
4187.034, -3.5419229E-02
4188.962, -2.4035079E-02
4190.891, -0.1959205
4192.819, -0.3200712
4194.748, -0.2634890
4196.676, -0.3306585
4198.604, -0.3963286
4200.533, -0.1901384
4202.461, -6.9288246E-02
4204.390, -7.9553174E-03
4206.318, -0.1966903
4208.247, 8.9241683E-02
4210.175, 0.2852583
4212.104, 6.9391010E-03
4214.032, 2.6460370E-02
4215.961, 0.3064204
4217.889, 0.2982338
4219.818, 0.1194925
4221.746, -0.3690783
4223.675, 0.1103354
4225.603, -0.4017422
4227.532, -0.1309549
4229.460, -1.5296340E-03
4231.389, -0.3885669
4233.317, 0.1656619
4235.246, -0.6687998
4237.174, -0.6205962
4239.103, 0.2474523
4241.031, -8.8190153E-02
4242.959, 0.1507340
4244.888, -0.4346700
4246.816, 0.1021460
4248.745, -0.1474959
4250.673, -0.2407981
4252.602, -0.3554718
4254.530, -0.2052674
4256.458, -0.6144670
4258.387, 7.9782970E-02
4260.315, 8.6154098E-05
4262.244, -0.1910773
4264.172, -0.3934274
4266.101, -0.1340630
4268.029, 0.1190778
4269.958, 4.6918001E-03
4271.886, 7.2045729E-02
4273.815, -0.3178398
4275.743, -0.1179796
4277.672, 2.2192789E-02
4279.600, -5.6354001E-02
4281.529, 6.4410761E-02
4283.457, -0.4714408
4285.386, -0.9599915
4287.314, -0.6832196
4289.243, -0.2659210
4291.171, 0.2315656
4293.100, 0.4966036
4295.028, 0.8404164
4296.957, -0.2659099
4298.885, 0.1837936
4300.813, 0.1827766
4302.742, 0.6089607
4304.670, -0.1815976
4306.599, 0.7665120
4308.527, -0.6886696
4310.456, 0.1367316
4312.384, 1.095420
4314.313, 1.203249
4316.241, 0.5293137
4318.169, 0.6595741
4320.098, 0.3031858
4322.026, 0.6400398
4323.955, 0.5978088
4325.883, 0.3098230
4327.812, 0.3044701
4329.740, 2.7372910E-02
4331.669, -6.8614773E-02
4333.597, -0.7200510
4335.526, -0.9511253
4337.454, 0.3336959
4339.383, -0.1784074
4341.311, 0.1614351
4343.240, 0.2553594
4345.168, 0.1347886
4347.097, -0.3688773
4349.025, 0.2744832
4350.954, 1.066437
4352.882, 1.4851430E-02
4354.811, -1.0592420E-02
4356.739, 1.108289
4358.667, 5.0117709E-02
4360.596, 0.1150460
4362.524, -0.1113404
4364.453, 0.1837418
4366.381, 0.2507941
4368.310, 0.5387226
4370.238, 0.2761056
4372.167, 0.3015944
4374.095, 4.0813930E-02
4376.023, 0.2816984
4377.952, -2.7532199E-02
##END=



