##NAMES=Diaboleite
##RRUFFID=R050372
##IDEAL CHEMISTRY=CuPb_2_Cl_2_(OH)_4_
##LOCALITY=Collins Vein, Mammoth mine, Tiger, Arizona
##OWNER=RRUFF
##SOURCE=Eugene Schlepp
##DESCRIPTION=Blue massive fragment
##STATUS=The identification of this mineral has been confirmed by X-ray diffraction and chemical analysis
##URL=https://www.rruff.net/odr/rruff_sample/R050372
##MEASURED CHEMISTRY=(Cu_0.91_Pb_0.09_)Pb_2.00_Cl_2.00_(OH)_4_
##DIFFRACTION SAMPLE DESCRIPTION=Powder
##CELL PARAMETERS=a: 5.8698 b: 5.8698 c: 5.4952 alpha: 90 beta: 90 gamma: 90 volume: 189.342 crystal system: tetragonal
##FILETYPE=Raman Processed
##RAMAN WAVELENGTH=532

91.17627, 444.3340
93.10474, 584.3358
95.03320, 734.9235
96.96167, 894.9846
98.89014, 1060.327
100.8186, 1202.885
102.7471, 1367.789
104.6755, 1577.340
106.6040, 1820.214
108.5325, 2134.031
110.4609, 2542.891
112.3894, 3072.254
114.3179, 3576.807
116.2463, 4073.169
118.1748, 4536.364
120.1033, 4931.410
122.0317, 5110.175
123.9602, 5342.533
125.8887, 5619.098
127.8171, 5851.831
129.7456, 6122.406
131.6741, 6590.490
133.6025, 7129.787
135.5310, 7248.044
137.4595, 6865.805
139.3879, 6293.595
141.3164, 5657.973
143.2449, 4886.217
145.1733, 4230.415
147.1018, 3710.313
149.0303, 3332.171
150.9587, 3049.318
152.8872, 2883.780
154.8157, 2795.461
156.7441, 2749.100
158.6726, 2756.814
160.6011, 2795.197
162.5295, 2860.052
164.4580, 2950.657
166.3865, 3084.559
168.3149, 3274.007
170.2434, 3504.180
172.1719, 3771.889
174.1003, 4187.620
176.0288, 4520.471
177.9573, 4705.606
179.8857, 4755.593
181.8142, 4665.819
183.7427, 4378.098
185.6711, 3971.815
187.5996, 3606.052
189.5281, 3276.241
191.4565, 2993.018
193.3850, 2751.805
195.3135, 2563.775
197.2419, 2408.781
199.1704, 2290.718
201.0989, 2206.839
203.0273, 2143.024
204.9558, 2109.008
206.8843, 2087.855
208.8127, 2072.134
210.7412, 2061.198
212.6697, 2057.458
214.5981, 2062.996
216.5266, 2076.298
218.4551, 2095.056
220.3835, 2122.335
222.3120, 2152.743
224.2405, 2186.263
226.1689, 2226.633
228.0974, 2256.987
230.0259, 2275.432
231.9543, 2282.654
233.8828, 2270.247
235.8113, 2238.630
237.7397, 2190.213
239.6682, 2123.650
241.5967, 2036.565
243.5251, 1944.021
245.4536, 1845.720
247.3821, 1743.100
249.3105, 1647.477
251.2390, 1557.903
253.1675, 1475.622
255.0959, 1399.805
257.0244, 1330.574
258.9529, 1269.059
260.8813, 1215.366
262.8098, 1170.163
264.7383, 1130.847
266.6667, 1096.781
268.5952, 1070.220
270.5237, 1051.428
272.4521, 1042.625
274.3806, 1040.216
276.3091, 1043.608
278.2375, 1053.816
280.1660, 1071.300
282.0945, 1097.812
284.0229, 1131.233
285.9514, 1170.675
287.8799, 1217.954
289.8083, 1269.016
291.7368, 1328.120
293.6653, 1390.974
295.5938, 1448.063
297.5222, 1502.799
299.4507, 1547.477
301.3792, 1576.705
303.3076, 1588.875
305.2361, 1593.300
307.1646, 1585.123
309.0930, 1570.348
311.0215, 1560.588
312.9500, 1553.711
314.8784, 1554.046
316.8069, 1564.044
318.7354, 1583.013
320.6638, 1611.062
322.5923, 1649.520
324.5208, 1696.738
326.4492, 1752.685
328.3777, 1816.801
330.3062, 1889.188
332.2346, 1970.214
334.1631, 2058.746
336.0915, 2159.568
338.0200, 2273.455
339.9485, 2399.309
341.8769, 2539.582
343.8054, 2695.349
345.7339, 2860.250
347.6623, 3038.504
349.5908, 3227.668
351.5193, 3411.216
353.4477, 3597.281
355.3762, 3772.703
357.3047, 3929.278
359.2331, 4075.643
361.1616, 4187.095
363.0901, 4255.411
365.0185, 4286.153
366.9470, 4282.583
368.8755, 4243.358
370.8039, 4175.547
372.7324, 4073.244
374.6609, 3938.714
376.5893, 3789.546
378.5178, 3623.743
380.4463, 3447.176
382.3747, 3266.004
384.3032, 3070.938
386.2317, 2881.549
388.1601, 2700.829
390.0886, 2528.556
392.0171, 2370.974
393.9455, 2232.266
395.8740, 2106.516
397.8025, 1990.946
399.7309, 1885.276
401.6594, 1788.469
403.5879, 1702.410
405.5163, 1625.271
407.4448, 1556.157
409.3733, 1491.057
411.3017, 1437.005
413.2302, 1399.421
415.1587, 1378.566
417.0871, 1367.802
419.0156, 1367.736
420.9441, 1377.250
422.8725, 1396.531
424.8010, 1437.815
426.7295, 1476.459
428.6579, 1505.864
430.5864, 1527.245
432.5149, 1549.424
434.4433, 1577.640
436.3718, 1603.605
438.3003, 1622.390
440.2287, 1635.382
442.1572, 1638.386
444.0857, 1623.827
446.0141, 1600.081
447.9426, 1581.338
449.8711, 1564.255
451.7995, 1558.443
453.7280, 1565.220
455.6565, 1585.405
457.5849, 1622.985
459.5134, 1683.813
461.4419, 1759.418
463.3703, 1846.700
465.2988, 1961.700
467.2273, 2050.421
469.1557, 2118.212
471.0842, 2154.510
473.0127, 2130.068
474.9411, 2026.760
476.8696, 1889.316
478.7981, 1729.711
480.7265, 1542.228
482.6550, 1371.751
484.5835, 1217.023
486.5119, 1079.950
488.4404, 964.7134
490.3689, 870.9233
492.2973, 792.6918
494.2258, 732.0300
496.1543, 685.7446
498.0827, 647.1663
500.0112, 620.2811
501.9397, 596.9539
503.8681, 575.3809
505.7966, 555.4318
507.7251, 536.5225
509.6535, 518.3558
511.5820, 501.3600
513.5105, 485.9428
515.4390, 471.9774
517.3674, 459.8944
519.2959, 450.0540
521.2244, 442.2247
523.1528, 435.7871
525.0813, 431.5714
527.0098, 427.6151
528.9382, 423.0213
530.8667, 417.7272
532.7952, 413.6046
534.7236, 411.3398
536.6521, 409.7240
538.5806, 408.1169
540.5090, 406.5436
542.4375, 405.0189
544.3660, 403.0203
546.2944, 401.2228
548.2229, 400.7794
550.1514, 402.3286
552.0798, 403.8739
554.0083, 404.5736
555.9368, 404.7658
557.8652, 405.5241
559.7937, 407.1190
561.7222, 409.0980
563.6506, 411.5602
565.5791, 414.6336
567.5076, 417.1950
569.4360, 418.6764
571.3645, 420.0731
573.2930, 422.0722
575.2214, 424.8600
577.1499, 427.9540
579.0783, 431.1745
581.0068, 434.6506
582.9352, 438.6431
584.8637, 443.2096
586.7922, 448.0002
588.7206, 453.1691
590.6491, 458.6035
592.5776, 463.2540
594.5060, 465.2380
596.4345, 468.2091
598.3630, 474.1727
600.2914, 483.0983
602.2199, 491.6821
604.1484, 498.4965
606.0768, 505.7069
608.0053, 514.7316
609.9338, 526.0138
611.8622, 538.4503
613.7907, 551.7422
615.7192, 566.2808
617.6476, 582.2372
619.5761, 599.1558
621.5046, 618.7210
623.4330, 642.7539
625.3615, 670.0061
627.2900, 696.0231
629.2184, 719.1360
631.1469, 742.8474
633.0754, 767.9252
635.0038, 794.2880
636.9323, 822.0751
638.8608, 851.9059
640.7892, 882.4354
642.7177, 912.8019
644.6462, 942.2828
646.5746, 973.8883
648.5031, 1008.356
650.4316, 1044.261
652.3600, 1080.618
654.2885, 1117.373
656.2170, 1154.790
658.1454, 1194.261
660.0739, 1234.108
662.0024, 1272.231
663.9308, 1311.022
665.8593, 1345.438
667.7878, 1375.747
669.7162, 1400.812
671.6447, 1419.795
673.5732, 1433.007
675.5016, 1438.349
677.4301, 1436.401
679.3586, 1426.995
681.2870, 1408.036
683.2155, 1374.583
685.1440, 1338.007
687.0724, 1302.597
689.0009, 1267.975
690.9294, 1230.827
692.8578, 1187.938
694.7863, 1145.027
696.7148, 1104.102
698.6432, 1064.241
700.5717, 1030.285
702.5002, 1004.131
704.4286, 982.3999
706.3571, 961.5890
708.2856, 940.7482
710.2141, 926.8584
712.1425, 923.3925
714.0710, 926.4764
715.9995, 933.0344
717.9279, 942.3164
719.8564, 956.8413
721.7849, 977.2861
723.7133, 1003.432
725.6418, 1034.016
727.5703, 1069.177
729.4987, 1108.428
731.4272, 1151.494
733.3557, 1198.026
735.2841, 1247.813
737.2126, 1303.261
739.1411, 1358.883
741.0695, 1412.846
742.9980, 1466.448
744.9265, 1522.437
746.8549, 1582.188
748.7834, 1642.433
750.7119, 1701.890
752.6403, 1760.810
754.5688, 1820.526
756.4973, 1878.669
758.4257, 1940.040
760.3542, 2006.346
762.2827, 2077.375
764.2111, 2152.454
766.1396, 2232.611
768.0681, 2316.055
769.9965, 2404.125
771.9250, 2497.973
773.8535, 2583.898
775.7819, 2665.737
777.7104, 2738.171
779.6389, 2802.565
781.5673, 2857.994
783.4958, 2888.500
785.4243, 2889.041
787.3527, 2864.148
789.2812, 2816.710
791.2097, 2745.696
793.1381, 2651.523
795.0666, 2524.151
796.9951, 2384.640
798.9235, 2242.793
800.8520, 2098.891
802.7805, 1955.508
804.7089, 1807.121
806.6374, 1665.950
808.5659, 1538.900
810.4943, 1427.399
812.4228, 1326.473
814.3513, 1236.102
816.2797, 1154.510
818.2082, 1081.807
820.1367, 1017.653
822.0651, 959.9285
823.9936, 908.6384
825.9221, 864.3512
827.8505, 827.6491
829.7790, 800.3532
831.7075, 775.1682
833.6359, 752.2238
835.5644, 730.6893
837.4929, 709.6680
839.4213, 688.9396
841.3498, 671.2125
843.2783, 658.3636
845.2067, 647.4447
847.1352, 636.6799
849.0637, 626.0242
850.9921, 615.5368
852.9206, 605.0598
854.8491, 594.8344
856.7775, 585.1967
858.7060, 576.2271
860.6345, 566.8806
862.5629, 556.7623
864.4914, 546.5109
866.4199, 536.5049
868.3483, 526.7551
870.2768, 516.9777
872.2053, 507.1636
874.1337, 497.3517
876.0622, 487.4663
877.9907, 477.4672
879.9191, 468.0638
881.8476, 459.6927
883.7761, 451.4914
885.7045, 442.8047
887.6330, 433.7532
889.5615, 425.4412
891.4899, 418.1515
893.4184, 411.5333
895.3469, 405.7255
897.2753, 400.7639
899.2038, 395.5145
901.1323, 389.8321
903.0607, 384.0795
904.9892, 378.4030
906.9177, 372.7072
908.8461, 366.6536
910.7746, 359.8408
912.7031, 353.1006
914.6315, 346.4875
916.5600, 340.0653
918.4885, 334.3704
920.4169, 330.4904
922.3454, 326.0732
924.2739, 320.0595
926.2023, 313.3513
928.1308, 307.9548
930.0593, 304.3541
931.9877, 300.9424
933.9162, 297.2558
935.8447, 293.4189
937.7731, 289.5872
939.7016, 285.8320
941.6301, 281.9144
943.5585, 277.3014
945.4870, 272.7160
947.4155, 269.2594
949.3439, 267.1876
951.2724, 264.9336
953.2009, 262.3470
955.1293, 259.3749
957.0578, 255.6922
958.9863, 251.0059
960.9147, 247.5448
962.8432, 246.2334
964.7717, 245.6728
966.7001, 245.4452
968.6286, 245.7643
970.5571, 244.6468
972.4855, 240.6328
974.4140, 236.5852
976.3425, 233.8368
978.2709, 232.1884
980.1994, 231.1776
982.1279, 231.3949
984.0563, 231.3020
985.9848, 230.3084
987.9133, 228.5767
989.8417, 226.7663
991.7702, 224.7090
993.6987, 222.8199
995.6271, 221.5288
997.5556, 220.3665
999.4841, 218.3145
1001.413, 214.9569
1003.341, 212.3454
1005.269, 211.6818
1007.198, 211.6211
1009.126, 210.7344
1011.055, 208.4523
1012.983, 207.1576
1014.912, 207.8904
1016.840, 208.8379
1018.769, 208.8732
1020.697, 207.8762
1022.626, 206.4539
1024.554, 203.8661
1026.483, 201.6967
1028.411, 201.2520
1030.340, 201.9348
1032.268, 201.6644
1034.197, 199.4112
1036.125, 197.6992
1038.053, 197.6153
1039.982, 198.5006
1041.910, 198.8565
1043.839, 198.1547
1045.767, 197.6198
1047.696, 197.7394
1049.624, 197.8403
1051.553, 196.9211
1053.481, 194.8751
1055.410, 193.5699
1057.338, 194.0949
1059.267, 194.7038
1061.195, 194.1623
1063.124, 192.3828
1065.052, 191.2273
1066.980, 191.5435
1068.909, 191.6135
1070.837, 190.6547
1072.766, 188.9689
1074.694, 187.7812
1076.623, 187.1906
1078.551, 186.8578
1080.480, 187.1237
1082.408, 187.3934
1084.337, 186.9743
1086.265, 185.7827
1088.193, 184.4085
1090.122, 182.4715
1092.050, 180.8209
1093.979, 180.2372
1095.907, 180.9969
1097.836, 180.7015
1099.764, 177.6149
1101.693, 175.4982
1103.621, 176.6591
1105.550, 179.8618
1107.478, 181.0912
1109.407, 179.6136
1111.335, 178.1369
1113.264, 177.4404
1115.192, 177.2023
1117.120, 177.1427
1119.049, 177.3192
1120.977, 177.4316
1122.906, 177.1371
1124.834, 177.0559
1126.763, 177.7995
1128.691, 179.3540
1130.620, 179.9692
1132.548, 178.7070
1134.477, 177.6982
1136.405, 177.7466
1138.334, 178.3306
1140.262, 178.4486
1142.191, 177.9375
1144.119, 177.7063
1146.047, 178.2511
1147.976, 178.9584
1149.904, 179.3505
1151.833, 179.3776
1153.761, 179.6122
1155.690, 180.2623
1157.618, 180.9366
1159.547, 181.5620
1161.475, 182.1193
1163.404, 182.5899
1165.332, 183.3345
1167.261, 183.2564
1169.189, 181.3720
1171.118, 179.0706
1173.046, 177.7400
1174.974, 177.3551
1176.903, 176.7490
1178.831, 175.5228
1180.760, 174.4020
1182.688, 173.8042
1184.617, 173.6189
1186.545, 173.2854
1188.474, 172.4862
1190.402, 172.0568
1192.331, 172.5260
1194.259, 173.1070
1196.188, 172.7687
1198.116, 171.1932
1200.045, 170.4791
1201.973, 171.5443
1203.901, 172.5326
1205.830, 172.3479
1207.758, 171.5096
1209.687, 171.1971
1211.615, 171.5614
1213.544, 172.1652
1215.472, 173.1694
1217.401, 174.1822
1219.329, 174.9429
1221.258, 175.4907
1223.186, 175.6229
1225.115, 174.7511
1227.043, 174.1631
1228.972, 174.2074
1230.900, 174.8437
1232.828, 176.1125
1234.757, 178.4299
1236.685, 180.1705
1238.614, 180.7139
1240.542, 180.8646
1242.471, 181.1338
1244.399, 181.5098
1246.328, 181.9571
1248.256, 182.4338
1250.185, 183.0939
1252.113, 184.2060
1254.042, 185.4619
1255.970, 186.4223
1257.899, 187.0450
1259.827, 187.4951
1261.755, 187.4530
1263.684, 187.5438
1265.612, 188.0435
1267.541, 188.9075
1269.469, 190.0265
1271.398, 191.9858
1273.326, 193.1456
1275.255, 192.7738
1277.183, 191.8637
1279.112, 191.2073
1281.040, 190.8125
1282.969, 190.7454
1284.897, 190.8430
1286.826, 191.6022
1288.754, 193.9417
1290.682, 196.7946
1292.611, 198.4959
1294.539, 198.8378
1296.468, 198.9119
1298.396, 198.1702
1300.325, 197.8876
1302.253, 198.9826
1304.182, 201.0993
1306.110, 202.5924
1308.039, 203.1580
1309.967, 203.4801
1311.896, 203.1089
1313.824, 202.8869
1315.753, 203.9903
1317.681, 206.2458
1319.609, 206.8252
1321.538, 204.6294
1323.466, 202.7328
1325.395, 202.3400
1327.323, 202.6861
1329.252, 202.9999
1331.180, 203.2860
1333.109, 203.5976
1335.037, 204.2243
1336.966, 204.4729
1338.894, 203.6482
1340.823, 202.4446
1342.751, 202.2449
1344.680, 203.5049
1346.608, 204.4296
1348.536, 204.6572
1350.465, 204.7535
1352.393, 204.7890
1354.322, 204.8794
1356.250, 205.5280
1358.179, 207.4123
1360.107, 208.5240
1362.036, 207.9370
1363.964, 207.2498
1365.893, 207.7642
1367.821, 209.1405
1369.750, 209.8589
1371.678, 209.8791
1373.607, 209.2280
1375.535, 206.5124
1377.464, 204.3330
1379.392, 205.3640
1381.320, 208.9285
1383.249, 210.5731
1385.177, 208.9771
1387.106, 207.7679
1389.034, 208.9162
1390.963, 210.2580
1392.891, 209.5143
1394.820, 206.3488
1396.748, 204.9107
1398.677, 207.1673
1400.605, 208.5657
1402.534, 207.9453
1404.462, 206.2579
1406.391, 204.1470
1408.319, 201.3802
1410.247, 200.1839
1412.176, 202.4889
1414.104, 203.7674
1416.033, 202.1603
1417.961, 199.4314
1419.890, 197.7454
1421.818, 197.0981
1423.747, 196.2507
1425.675, 194.8434
1427.604, 193.7281
1429.532, 193.3743
1431.461, 193.3995
1433.389, 193.4029
1435.318, 193.3712
1437.246, 193.2638
1439.174, 193.0227
1441.103, 192.7356
1443.031, 192.4660
1444.960, 192.1160
1446.888, 191.4908
1448.817, 190.5690
1450.745, 190.0029
1452.674, 190.5003
1454.602, 190.3671
1456.531, 188.7695
1458.459, 186.6635
1460.388, 184.8799
1462.316, 183.3240
1464.245, 182.8971
1466.173, 185.0692
1468.101, 186.3541
1470.030, 185.5561
1471.958, 183.9292
1473.887, 182.6555
1475.815, 181.7384
1477.744, 180.7413
1479.672, 179.4981
1481.601, 178.4692
1483.529, 177.9537
1485.458, 177.5568
1487.386, 176.8318
1489.315, 175.8752
1491.243, 175.4348
1493.172, 175.9160
1495.100, 175.7801
1497.028, 174.0110
1498.957, 172.0170
1500.885, 170.7152
1502.814, 169.9769
1504.742, 169.4895
1506.671, 169.2315
1508.599, 169.4024
1510.528, 170.6871
1512.456, 171.6641
1514.385, 171.3933
1516.313, 170.2953
1518.242, 169.0980
1520.170, 167.6910
1522.099, 166.9447
1524.027, 167.4200
1525.955, 167.9607
1527.884, 168.4572
1529.812, 168.5473
1531.741, 167.2802
1533.669, 164.2544
1535.598, 162.8860
1537.526, 165.1272
1539.455, 166.5415
1541.383, 165.3041
1543.312, 163.2700
1545.240, 162.3390
1547.169, 162.5387
1549.097, 162.4014
1551.026, 161.3846
1552.954, 160.8007
1554.882, 161.4358
1556.811, 161.9081
1558.739, 161.0141
1560.668, 159.1315
1562.596, 157.8645
1564.525, 157.7695
1566.453, 157.2691
1568.382, 155.9273
1570.310, 154.7003
1572.239, 154.2493
1574.167, 154.0910
1576.096, 153.3695
1578.024, 151.9850
1579.953, 150.6170
1581.881, 149.0791
1583.809, 147.7887
1585.738, 146.7888
1587.666, 146.1065
1589.595, 145.8813
1591.523, 146.0500
1593.452, 146.2430
1595.380, 146.7129
1597.309, 146.4570
1599.237, 144.4207
1601.166, 142.5442
1603.094, 142.4662
1605.023, 143.0735
1606.951, 141.9364
1608.880, 138.9370
1610.808, 137.1403
1612.736, 137.4073
1614.665, 137.9720
1616.593, 138.3598
1618.522, 138.5744
1620.450, 138.6550
1622.379, 138.5683
1624.307, 138.1582
1626.236, 137.3793
1628.164, 136.4091
1630.093, 135.0475
1632.021, 133.8250
1633.950, 133.2526
1635.878, 132.9216
1637.807, 132.0181
1639.735, 130.5603
1641.663, 130.0589
1643.592, 131.4424
1645.520, 131.9775
1647.449, 129.7287
1649.377, 127.2183
1651.306, 126.4373
1653.234, 126.8742
1655.163, 127.0547
1657.091, 126.9459
1659.020, 126.4375
1660.948, 125.2420
1662.877, 124.0845
1664.805, 123.5305
1666.734, 123.0202
1668.662, 121.5770
1670.590, 119.4732
1672.519, 118.9494
1674.447, 120.8139
1676.376, 121.8592
1678.304, 120.7345
1680.233, 119.3616
1682.161, 118.6071
1684.090, 118.2827
1686.018, 118.1867
1687.947, 118.3122
1689.875, 118.1936
1691.804, 117.5903
1693.732, 117.2771
1695.661, 117.7741
1697.589, 118.3264
1699.517, 118.5722
1701.446, 118.5114
1703.374, 118.1200
1705.303, 117.3843
1707.231, 116.3775
1709.160, 114.7388
1711.088, 113.5915
1713.017, 113.6821
1714.945, 114.0303
1716.874, 113.8773
1718.802, 113.4719
1720.731, 113.6917
1722.659, 114.6765
1724.588, 114.9244
1726.516, 113.8554
1728.444, 112.7889
1730.373, 112.2615
1732.301, 111.8502
1734.230, 111.0506
1736.158, 110.1323
1738.087, 110.0623
1740.015, 110.9873
1741.944, 111.5364
1743.872, 111.4775
1745.801, 111.1213
1747.729, 110.2502
1749.658, 109.4347
1751.586, 109.2790
1753.515, 109.4867
1755.443, 109.1260
1757.371, 108.1007
1759.300, 107.5967
1761.228, 108.1345
1763.157, 108.4156
1765.085, 107.5301
1767.014, 106.6531
1768.942, 106.8960
1770.871, 107.7141
1772.799, 107.9297
1774.728, 107.5141
1776.656, 106.7047
1778.585, 105.1467
1780.513, 104.1983
1782.442, 104.9314
1784.370, 105.7670
1786.298, 105.6291
1788.227, 104.8508
1790.155, 103.7648
1792.084, 102.4119
1794.012, 101.9099
1795.941, 102.7046
1797.869, 103.2833
1799.798, 103.0571
1801.726, 102.7163
1803.655, 102.8541
1805.583, 102.9998
1807.512, 102.0507
1809.440, 100.2944
1811.369, 100.3092
1813.297, 103.0812
1815.225, 104.4231
1817.154, 102.4254
1819.082, 100.3463
1821.011, 98.78498
1822.939, 98.25154
1824.868, 100.2330
1826.796, 103.8148
1828.725, 104.7879
1830.653, 102.3885
1832.582, 100.7748
1834.510, 100.7361
1836.439, 100.6480
1838.367, 99.99792
1840.296, 99.34968
1842.224, 98.91364
1844.152, 98.81077
1846.081, 99.54823
1848.009, 101.2874
1849.938, 101.9128
1851.866, 100.5826
1853.795, 99.45525
1855.723, 98.34857
1857.652, 97.79794
1859.580, 98.58120
1861.509, 99.56261
1863.437, 99.40993
1865.366, 98.38826
1867.294, 97.83625
1869.223, 97.92150
1871.151, 97.75215
1873.079, 97.02333
1875.008, 96.54122
1876.936, 96.94952
1878.865, 97.14263
1880.793, 96.08543
1882.722, 94.69869
1884.650, 94.47858
1886.579, 95.26202
1888.507, 95.84426
1890.436, 96.19811
1892.364, 96.20123
1894.293, 95.72719
1896.221, 95.10910
1898.150, 93.97574
1900.078, 93.27910
1902.006, 93.94917
1903.935, 95.43507
1905.863, 96.40004
1907.792, 97.07628
1909.720, 100.2367
1911.649, 106.9889
1913.577, 112.4129
1915.506, 117.3612
1917.434, 118.1543
1919.363, 109.6286
1921.291, 99.98751
1923.220, 96.24021
1925.148, 96.30366
1927.077, 95.67860
1929.005, 94.32415
1930.933, 92.98952
1932.862, 91.34261
1934.790, 90.30209
1936.719, 90.35512
1938.647, 90.38799
1940.576, 89.72128
1942.504, 89.19140
1944.433, 89.73339
1946.361, 90.82536
1948.290, 91.24966
1950.218, 90.95634
1952.147, 91.10113
1954.075, 91.99703
1956.004, 92.28181
1957.932, 91.32928
1959.860, 90.50748
1961.789, 90.41395
1963.717, 90.46703
1965.646, 90.15312
1967.574, 89.81032
1969.503, 90.12645
1971.431, 90.94033
1973.360, 91.32968
1975.288, 91.21715
1977.217, 90.96490
1979.145, 90.54337
1981.074, 90.16241
1983.002, 89.74360
1984.931, 89.54890
1986.859, 90.11017
1988.787, 90.69586
1990.716, 90.14039
1992.644, 88.82129
1994.573, 88.42603
1996.501, 89.30077
1998.430, 89.47218
2000.358, 88.31168
2002.287, 87.46199
2004.215, 86.85809
2006.144, 86.80392
2008.072, 88.16282
2010.001, 89.34678
2011.929, 88.65474
2013.858, 87.06892
2015.786, 86.51317
2017.714, 86.89738
2019.643, 87.41386
2021.571, 88.08683
2023.500, 88.52979
2025.428, 88.74989
2027.357, 88.58173
2029.285, 87.40525
2031.214, 86.63158
2033.142, 87.52187
2035.071, 88.75874
2036.999, 89.24045
2038.928, 88.97066
2040.856, 87.30630
2042.785, 84.12867
2044.713, 83.91878
2046.641, 87.81916
2048.570, 92.14760
2050.499, 100.0867
2052.427, 103.5846
2054.355, 97.77663
2056.284, 90.99257
2058.212, 86.85712
2060.141, 84.52827
2062.069, 83.41009
2063.998, 83.29549
2065.926, 83.71413
2067.854, 84.64235
2069.783, 86.06810
2071.711, 88.28424
2073.640, 88.77880
2075.568, 86.27700
2077.497, 84.25246
2079.425, 84.09439
2081.354, 84.36651
2083.282, 84.71777
2085.211, 84.81020
2087.139, 83.92010
2089.068, 82.67078
2090.996, 82.72276
2092.925, 83.97198
2094.853, 83.90017
2096.781, 81.58393
2098.710, 80.64835
2100.638, 82.08075
2102.567, 82.98174
2104.495, 82.53895
2106.424, 82.02721
2108.352, 81.90849
2110.281, 81.88985
2112.209, 81.84651
2114.138, 81.72398
2116.066, 81.28899
2117.995, 80.73527
2119.923, 80.76180
2121.852, 81.37311
2123.780, 81.77086
2125.708, 81.95717
2127.637, 81.81567
2129.565, 80.85651
2131.494, 80.32618
2133.422, 81.10366
2135.351, 81.55482
2137.279, 80.27619
2139.208, 78.97670
2141.136, 79.47031
2143.065, 80.74339
2144.993, 81.05456
2146.922, 80.58369
2148.850, 80.05498
2150.779, 79.49031
2152.707, 79.55731
2154.635, 80.53841
2156.564, 80.88616
2158.492, 79.84973
2160.421, 79.17834
2162.349, 79.81752
2164.278, 80.38313
2166.206, 79.96829
2168.135, 79.47971
2170.063, 79.92339
2171.992, 80.61836
2173.920, 80.35789
2175.849, 79.40374
2177.777, 78.96804
2179.706, 79.04617
2181.634, 78.78135
2183.563, 78.06067
2185.491, 77.61394
2187.419, 77.60493
2189.348, 77.65547
2191.276, 77.66190
2193.205, 77.71067
2195.133, 77.99171
2197.062, 78.15264
2198.990, 77.88239
2200.919, 77.46684
2202.847, 77.00957
2204.776, 76.73433
2206.704, 77.41325
2208.633, 78.83623
2210.561, 79.03540
2212.490, 77.92729
2214.418, 77.14258
2216.346, 76.77605
2218.275, 76.74502
2220.203, 77.25723
2222.132, 77.49397
2224.060, 77.12777
2225.989, 76.60844
2227.917, 75.92505
2229.846, 75.37785
2231.774, 75.31849
2233.703, 75.34164
2235.631, 74.94154
2237.560, 74.33288
2239.488, 73.90377
2241.417, 73.65914
2243.345, 73.60802
2245.273, 73.76180
2247.202, 74.42905
2249.130, 75.77699
2251.059, 76.05263
2252.987, 74.46389
2254.916, 73.56993
2256.844, 74.50900
2258.773, 75.35237
2260.701, 75.48979
2262.630, 75.47160
2264.558, 75.74968
2266.487, 75.78855
2268.415, 74.88796
2270.344, 73.75071
2272.272, 73.31738
2274.200, 73.30678
2276.129, 72.93794
2278.057, 72.39703
2279.986, 72.64288
2281.914, 73.67003
2283.843, 74.21799
2285.771, 74.04649
2287.700, 74.07549
2289.628, 74.73579
2291.557, 74.99069
2293.485, 74.34210
2295.414, 73.96332
2297.342, 74.24309
2299.271, 74.64697
2301.199, 75.21501
2303.127, 75.51199
2305.056, 74.80476
2306.984, 74.09899
2308.913, 74.81468
2310.841, 75.91209
2312.770, 75.53680
2314.698, 74.21290
2316.627, 73.35655
2318.555, 73.00957
2320.484, 74.00143
2322.412, 76.58892
2324.341, 78.16682
2326.269, 78.55460
2328.198, 78.56460
2330.126, 78.22389
2332.054, 77.74834
2333.983, 77.29530
2335.911, 76.47121
2337.840, 74.58066
2339.768, 73.13553
2341.697, 73.10918
2343.625, 73.25693
2345.554, 72.89397
2347.482, 72.32896
2349.411, 71.46095
2351.339, 70.84111
2353.268, 71.61758
2355.196, 72.89559
2357.125, 72.83427
2359.053, 71.83504
2360.981, 71.34092
2362.910, 71.31970
2364.838, 71.22752
2366.767, 71.00038
2368.695, 71.20872
2370.624, 72.18518
2372.552, 72.30178
2374.481, 71.07210
2376.409, 70.56884
2378.338, 71.51534
2380.266, 72.08653
2382.195, 71.44260
2384.123, 70.91786
2386.052, 71.45558
2387.980, 71.58936
2389.908, 69.55200
2391.837, 68.14876
2393.765, 70.34239
2395.694, 72.93064
2397.622, 72.62727
2399.551, 71.30206
2401.479, 71.26633
2403.408, 71.88540
2405.336, 72.13789
2407.265, 72.08945
2409.193, 71.87596
2411.122, 71.52193
2413.050, 71.32515
2414.979, 71.31245
2416.907, 70.79394
2418.835, 69.63675
2420.764, 69.53292
2422.692, 70.78715
2424.621, 71.37201
2426.549, 70.79402
2428.478, 70.48940
2430.406, 70.87894
2432.335, 71.29121
2434.263, 71.65418
2436.192, 71.94104
2438.120, 72.53535
2440.049, 72.45882
2441.977, 70.69543
2443.906, 69.19663
2445.834, 69.19802
2447.762, 69.51143
2449.691, 69.47500
2451.619, 69.20966
2453.548, 68.62926
2455.476, 68.06118
2457.405, 67.87559
2459.333, 67.99041
2461.262, 68.39488
2463.190, 68.93706
2465.119, 69.45739
2467.047, 69.77076
2468.976, 69.00075
2470.904, 67.44630
2472.833, 67.21861
2474.761, 68.30652
2476.689, 67.90562
2478.618, 65.55299
2480.546, 64.85972
2482.475, 65.99288
2484.403, 67.38004
2486.332, 69.05921
2488.260, 69.66018
2490.189, 68.68880
2492.117, 67.73900
2494.046, 66.71933
2495.974, 66.36884
2497.903, 67.57680
2499.831, 68.08593
2501.760, 67.10970
2503.688, 66.29326
2505.616, 66.18484
2507.545, 66.19398
2509.473, 65.81461
2511.402, 65.85070
2513.330, 67.21938
2515.259, 68.40676
2517.187, 68.50967
2519.116, 68.10308
2521.044, 67.10958
2522.973, 66.32185
2524.901, 66.59572
2526.830, 67.16042
2528.758, 67.37404
2530.687, 67.35133
2532.615, 66.88909
2534.543, 66.54311
2536.472, 67.58792
2538.400, 69.16982
2540.329, 69.45719
2542.257, 68.95107
2544.186, 68.83778
2546.114, 68.99194
2548.043, 69.00219
2549.971, 68.92908
2551.900, 69.14389
2553.828, 69.58540
2555.757, 69.50746
2557.685, 68.93812
2559.614, 68.81040
2561.542, 69.07805
2563.470, 68.80077
2565.399, 67.91470
2567.327, 67.29616
2569.256, 67.10061
2571.184, 66.58598
2573.113, 65.55870
2575.041, 64.94737
2576.970, 64.79859
2578.898, 65.08662
2580.827, 66.03673
2582.755, 65.89030
2584.684, 63.57034
2586.612, 62.67998
2588.541, 65.01823
2590.469, 66.34252
2592.397, 65.82304
2594.326, 65.79429
2596.254, 67.05597
2598.183, 67.37571
2600.111, 65.61787
2602.040, 64.24514
2603.968, 63.93251
2605.897, 64.15219
2607.825, 65.19122
2609.754, 66.10994
2611.682, 67.05934
2613.611, 67.04070
2615.539, 64.86455
2617.468, 63.26060
2619.396, 63.91590
2621.324, 64.61416
2623.253, 64.20882
2625.181, 63.99537
2627.110, 64.79223
2629.038, 65.58895
2630.967, 66.25218
2632.895, 66.30556
2634.824, 64.97198
2636.752, 63.62982
2638.681, 62.70613
2640.609, 62.53399
2642.538, 64.21932
2644.466, 65.57484
2646.395, 65.04594
2648.323, 64.01572
2650.251, 62.71645
2652.180, 62.13454
2654.108, 63.92600
2656.037, 65.60860
2657.965, 64.45634
2659.894, 63.20362
2661.822, 64.76010
2663.751, 66.38763
2665.679, 65.75209
2667.608, 64.47029
2669.536, 63.65951
2671.465, 63.21256
2673.393, 63.15325
2675.322, 63.26657
2677.250, 63.37793
2679.178, 63.52532
2681.107, 63.82540
2683.035, 64.08363
2684.964, 64.14015
2686.892, 64.03234
2688.821, 63.52351
2690.749, 63.16916
2692.678, 63.79052
2694.606, 64.61641
2696.535, 65.12826
2698.463, 65.22017
2700.392, 64.52609
2702.320, 63.60788
2704.249, 63.06918
2706.177, 62.62951
2708.105, 61.48775
2710.034, 60.84389
2711.962, 62.68407
2713.891, 64.65208
2715.819, 63.80438
2717.748, 62.47789
2719.676, 63.52537
2721.605, 64.91842
2723.533, 64.37842
2725.462, 63.40731
2727.390, 63.34927
2729.319, 63.52818
2731.247, 63.34892
2733.176, 63.05334
2735.104, 62.61623
2737.032, 62.45934
2738.961, 63.37031
2740.889, 64.24158
2742.818, 64.21436
2744.746, 63.73859
2746.675, 62.79047
2748.603, 62.04063
2750.532, 62.20343
2752.460, 62.57327
2754.389, 63.00866
2756.317, 62.97344
2758.246, 61.30632
2760.174, 60.09031
2762.103, 61.14251
2764.031, 62.59555
2765.959, 63.78617
2767.888, 64.23613
2769.816, 63.10229
2771.745, 62.09799
2773.673, 62.49702
2775.602, 62.85098
2777.530, 62.12836
2779.459, 61.64486
2781.387, 62.40252
2783.316, 62.68513
2785.244, 61.24465
2787.173, 60.14027
2789.101, 60.09304
2791.030, 60.73813
2792.958, 62.88733
2794.886, 64.06004
2796.815, 63.20559
2798.743, 62.48014
2800.672, 62.69147
2802.600, 62.89991
2804.529, 62.90040
2806.457, 62.84496
2808.386, 62.88417
2810.314, 62.35009
2812.243, 60.62427
2814.171, 60.27297
2816.100, 63.00428
2818.028, 64.24824
2819.957, 63.02062
2821.885, 62.38839
2823.813, 62.71912
2825.742, 62.30629
2827.670, 60.69932
2829.599, 60.18219
2831.527, 61.34108
2833.456, 61.83491
2835.384, 61.61141
2837.313, 61.39660
2839.241, 61.24036
2841.170, 61.75167
2843.098, 62.94273
2845.027, 63.52833
2846.955, 63.53851
2848.884, 63.44857
2850.812, 63.26637
2852.740, 63.15449
2854.669, 62.94431
2856.597, 61.61531
2858.526, 59.82548
2860.454, 59.64721
2862.383, 60.60810
2864.311, 61.99449
2866.240, 63.39370
2868.168, 64.39834
2870.097, 64.73146
2872.025, 63.49718
2873.954, 61.83110
2875.882, 60.97071
2877.811, 60.61662
2879.739, 60.65001
2881.667, 60.86392
2883.596, 61.22021
2885.524, 61.51086
2887.453, 61.63722
2889.381, 61.56755
2891.310, 61.02188
2893.238, 60.71987
2895.167, 61.03057
2897.095, 61.62486
2899.024, 62.90424
2900.952, 63.38548
2902.881, 62.25869
2904.809, 61.67290
2906.738, 60.34709
2908.666, 64.22780
2910.594, 76.84747
2912.523, 86.98270
2914.451, 94.29256
2916.380, 94.62181
2918.308, 86.24104
2920.237, 81.49519
2922.165, 80.95863
2924.094, 83.49622
2926.022, 88.93741
2927.951, 96.12648
2929.879, 104.0792
2931.808, 106.4814
2933.736, 105.5025
2935.665, 110.9450
2937.593, 119.0247
2939.521, 123.5816
2941.450, 120.9039
2943.378, 94.82804
2945.307, 68.82307
2947.235, 80.59881
2949.164, 100.3017
2951.092, 102.3817
2953.021, 95.55581
2954.949, 79.28534
2956.878, 65.67815
2958.806, 57.59537
2960.735, 62.08577
2962.663, 92.91252
2964.592, 108.7594
2966.520, 85.71849
2968.448, 66.94559
2970.377, 63.39674
2972.305, 62.85365
2974.234, 65.22151
2976.162, 65.98802
2978.091, 64.31812
2980.019, 63.48085
2981.948, 63.71902
2983.876, 63.91391
2985.805, 64.11494
2987.733, 65.02602
2989.662, 66.29275
2991.590, 66.27956
2993.519, 65.47667
2995.447, 65.13474
2997.375, 65.01794
2999.304, 64.93329
3001.232, 64.59455
3003.161, 62.93472
3005.089, 61.78804
3007.018, 63.67279
3008.946, 65.36922
3010.875, 64.63316
3012.803, 64.08791
3014.732, 65.58398
3016.660, 66.31570
3018.589, 65.03606
3020.517, 64.39340
3022.446, 64.80489
3024.374, 66.10677
3026.302, 68.95015
3028.231, 70.47368
3030.159, 70.61015
3032.088, 71.33617
3034.016, 72.50548
3035.945, 71.92043
3037.873, 70.30250
3039.802, 71.08144
3041.730, 73.12985
3043.659, 74.02631
3045.587, 74.21500
3047.516, 74.06233
3049.444, 73.75798
3051.373, 73.46538
3053.301, 73.13838
3055.229, 72.66998
3057.158, 72.29840
3059.086, 72.37286
3061.015, 72.05976
3062.943, 70.82584
3064.872, 70.20240
3066.800, 70.59589
3068.729, 70.68857
3070.657, 70.38637
3072.586, 69.05315
3074.514, 66.82314
3076.443, 66.97050
3078.371, 68.93938
3080.300, 69.86427
3082.228, 70.05342
3084.156, 70.17048
3086.085, 70.15957
3088.013, 69.98409
3089.942, 69.60452
3091.870, 68.07043
3093.799, 67.70489
3095.727, 71.33189
3097.656, 73.74822
3099.584, 72.35799
3101.513, 71.20418
3103.441, 71.43335
3105.370, 71.92075
3107.298, 72.65775
3109.227, 73.13120
3111.155, 73.28123
3113.083, 73.39717
3115.012, 73.47112
3116.940, 73.23955
3118.869, 73.01307
3120.797, 73.70936
3122.726, 74.65613
3124.654, 74.82880
3126.583, 74.86423
3128.511, 75.17068
3130.440, 75.76128
3132.368, 76.89142
3134.297, 77.87432
3136.225, 78.53557
3138.154, 78.85519
3140.082, 78.71492
3142.010, 79.00395
3143.939, 79.94839
3145.867, 80.58592
3147.796, 80.97399
3149.724, 81.67223
3151.653, 82.59803
3153.581, 83.54479
3155.510, 84.47189
3157.438, 85.39186
3159.367, 86.16418
3161.295, 86.86397
3163.224, 87.10307
3165.152, 85.98794
3167.081, 85.63026
3169.009, 86.80916
3170.938, 87.84120
3172.866, 88.05580
3174.794, 89.52089
3176.723, 92.45620
3178.651, 94.00542
3180.580, 94.32594
3182.508, 94.29689
3184.437, 94.26512
3186.365, 94.96164
3188.294, 96.19718
3190.222, 98.23045
3192.151, 99.91929
3194.079, 99.79692
3196.008, 100.2035
3197.936, 102.1787
3199.865, 104.1432
3201.793, 105.7534
3203.721, 107.2142
3205.650, 108.5563
3207.578, 109.5742
3209.507, 110.3599
3211.435, 111.4019
3213.364, 112.7627
3215.292, 114.6863
3217.221, 116.9308
3219.149, 119.2871
3221.078, 121.6592
3223.006, 124.0575
3224.935, 126.2687
3226.863, 128.0826
3228.792, 130.0686
3230.720, 132.2460
3232.648, 135.1976
3234.577, 139.0615
3236.505, 141.9689
3238.434, 144.0161
3240.362, 145.4954
3242.291, 146.8705
3244.219, 149.0709
3246.148, 151.6372
3248.076, 153.9782
3250.005, 156.7028
3251.933, 160.5691
3253.862, 164.0686
3255.790, 166.7668
3257.719, 169.5217
3259.647, 172.3505
3261.575, 175.9653
3263.504, 180.4191
3265.432, 183.2747
3267.361, 189.7269
3269.289, 219.1801
3271.218, 249.4461
3273.146, 250.2299
3275.075, 244.3947
3277.003, 244.1708
3278.932, 242.5553
3280.860, 234.1237
3282.789, 233.2560
3284.717, 241.7097
3286.646, 249.4559
3288.574, 255.9516
3290.502, 263.6057
3292.431, 272.2478
3294.359, 281.8228
3296.288, 291.6462
3298.216, 300.8525
3300.145, 310.0473
3302.073, 318.3154
3304.002, 329.7007
3305.930, 347.7747
3307.859, 363.4468
3309.787, 375.9572
3311.716, 391.4595
3313.644, 409.8105
3315.573, 428.1725
3317.501, 447.4301
3319.429, 469.0836
3321.358, 492.8364
3323.286, 519.3682
3325.215, 546.3194
3327.143, 572.2415
3329.072, 599.4622
3331.000, 628.5712
3332.929, 657.7949
3334.857, 687.0306
3336.786, 713.4059
3338.714, 736.9732
3340.643, 758.3116
3342.571, 777.1287
3344.500, 792.9845
3346.428, 805.5977
3348.356, 815.1667
3350.285, 820.6776
3352.213, 820.6862
3354.142, 820.3132
3356.070, 819.8616
3357.999, 816.1995
3359.927, 811.6666
3361.856, 818.0344
3363.784, 827.7533
3365.713, 830.0503
3367.641, 831.6683
3369.570, 836.4297
3371.498, 843.4561
3373.427, 852.1971
3375.355, 865.0153
3377.283, 882.5787
3379.212, 901.0223
3381.140, 920.4199
3383.069, 940.0977
3384.997, 962.3532
3386.926, 992.2550
3388.854, 1024.271
3390.783, 1053.780
3392.711, 1087.318
3394.640, 1129.969
3396.568, 1169.307
3398.497, 1205.265
3400.425, 1250.568
3402.354, 1304.072
3404.282, 1361.594
3406.210, 1424.401
3408.139, 1489.425
3410.067, 1566.228
3411.996, 1660.203
3413.924, 1769.290
3415.853, 1893.725
3417.781, 2031.222
3419.710, 2181.291
3421.638, 2343.925
3423.567, 2537.747
3425.495, 2781.581
3427.424, 3101.313
3429.352, 3547.986
3431.281, 4046.941
3433.209, 4595.388
3435.137, 5107.754
3437.066, 5567.491
3438.994, 5985.906
3440.923, 6392.455
3442.851, 6899.036
3444.780, 7493.702
3446.708, 8209.908
3448.637, 8926.166
3450.565, 9651.586
3452.494, 10183.08
3454.422, 10486.58
3456.351, 10558.38
3458.279, 10396.37
3460.208, 10101.30
3462.136, 9719.090
3464.064, 9345.061
3465.993, 8957.447
3467.921, 8543.150
3469.850, 8093.375
3471.778, 7605.713
3473.707, 7088.349
3475.635, 6534.480
3477.564, 6031.908
3479.492, 5577.595
3481.421, 5170.445
3483.349, 4796.638
3485.278, 4440.955
3487.206, 4117.082
3489.135, 3829.468
3491.063, 3572.043
3492.991, 3346.421
3494.920, 3132.768
3496.848, 2935.933
3498.777, 2772.232
3500.705, 2635.132
3502.634, 2524.179
3504.562, 2426.237
3506.491, 2334.745
3508.419, 2256.661
3510.348, 2192.545
3512.276, 2140.558
3514.205, 2100.023
3516.133, 2069.417
3518.062, 2042.345
3519.990, 2009.875
3521.918, 1977.789
3523.847, 1952.124
3525.775, 1920.692
3527.704, 1882.022
3529.632, 1842.075
3531.561, 1799.256
3533.489, 1743.042
3535.418, 1676.734
3537.346, 1602.507
3539.275, 1523.770
3541.203, 1440.875
3543.132, 1355.878
3545.060, 1268.471
3546.989, 1187.996
3548.917, 1112.899
3550.845, 1033.559
3552.774, 960.1005
3554.702, 905.9641
3556.631, 857.2381
3558.559, 809.0741
3560.488, 764.8573
3562.416, 725.1171
3564.345, 689.3937
3566.273, 657.5661
3568.202, 630.2679
3570.130, 603.7341
3572.059, 574.3571
3573.987, 545.8999
3575.916, 519.5511
3577.844, 493.9693
3579.772, 469.0290
3581.701, 443.9478
3583.629, 419.3298
3585.558, 396.2827
3587.486, 373.6322
3589.415, 349.8721
3591.343, 328.8391
3593.272, 311.5346
3595.200, 293.6618
3597.129, 276.0894
3599.057, 261.5270
3600.986, 249.2611
3602.914, 240.0133
3604.843, 229.5583
3606.771, 213.8786
3608.699, 203.0645
3610.628, 196.8943
3612.556, 189.8849
3614.485, 181.8943
3616.413, 171.4004
3618.342, 162.2742
3620.270, 157.0230
3622.199, 153.6568
3624.127, 152.0316
3626.056, 146.6457
3627.984, 138.9571
3629.913, 134.2937
3631.841, 130.8638
3633.770, 127.2822
3635.698, 123.6622
3637.626, 120.0177
3639.555, 116.3174
3641.483, 112.6998
3643.412, 110.3009
3645.340, 108.1792
3647.269, 104.8828
3649.197, 101.5202
3651.126, 98.31252
3653.054, 96.07347
3654.983, 94.79966
3656.911, 93.61050
3658.840, 91.87624
3660.768, 87.12672
3662.697, 82.98011
3664.625, 82.10101
3666.553, 81.77415
3668.482, 81.63504
3670.410, 80.47565
3672.339, 78.70006
3674.267, 77.39534
3676.196, 76.52944
3678.124, 76.32045
3680.053, 75.99716
3681.981, 75.36195
3683.910, 75.36282
3685.838, 75.80294
3687.767, 75.65163
3689.695, 75.23692
3691.624, 75.11199
3693.552, 74.19202
3695.480, 71.91130
3697.409, 71.55199
3699.337, 72.84512
3701.266, 72.92945
3703.194, 72.47969
3705.123, 72.11510
3707.051, 71.80592
3708.980, 71.55124
3710.908, 71.37597
3712.837, 71.15581
3714.765, 69.78398
3716.694, 68.31080
3718.622, 67.79117
3720.551, 67.98626
3722.479, 69.03530
3724.407, 69.63008
3726.336, 69.70588
3728.264, 69.82486
3730.193, 69.56807
3732.121, 67.77865
3734.050, 66.94407
3735.978, 68.30721
3737.907, 68.86774
3739.835, 68.67356
3741.764, 70.07020
3743.692, 71.18339
3745.621, 68.79510
3747.549, 67.88358
3749.478, 70.80900
3751.406, 71.51987
3753.334, 70.05258
3755.263, 67.99184
3757.191, 66.79285
3759.120, 68.57837
3761.048, 69.95200
3762.977, 69.90741
3764.905, 69.95188
3766.834, 69.81047
3768.762, 67.57819
3770.691, 65.44334
3772.619, 65.28865
3774.548, 65.54198
3776.476, 65.89941
3778.405, 65.79184
3780.333, 65.50571
3782.261, 65.86660
3784.190, 66.52280
3786.118, 67.66991
3788.047, 67.65766
3789.975, 66.27926
3791.904, 65.57610
3793.832, 65.16422
3795.761, 63.79042
3797.689, 63.13292
3799.618, 64.26991
3801.546, 65.57036
3803.475, 66.78259
3805.403, 66.93058
3807.332, 66.30934
3809.260, 64.65887
3811.188, 63.52501
3813.117, 63.67976
3815.045, 63.25123
3816.974, 62.37861
3818.902, 61.89240
3820.831, 61.79157
3822.759, 62.19075
3824.688, 62.75550
3826.616, 63.49520
3828.545, 63.88684
3830.473, 63.70460
3832.402, 62.01207
3834.330, 60.67421
3836.259, 60.92247
3838.187, 60.34712
3840.115, 58.81188
3842.044, 59.67068
3843.972, 61.42136
3845.901, 62.74474
3847.829, 62.95924
3849.758, 61.83356
3851.686, 60.85383
3853.615, 60.10688
3855.543, 59.25707
3857.472, 59.03680
3859.400, 60.86391
3861.329, 61.19024
3863.257, 59.83175
3865.186, 60.41816
3867.114, 61.61437
3869.042, 61.12224
3870.971, 60.77617
3872.899, 61.65828
3874.828, 61.62548
3876.756, 60.69300
3878.685, 59.99442
3880.613, 59.91033
3882.542, 61.00306
3884.470, 60.75951
3886.399, 59.06812
3888.327, 58.48872
3890.256, 58.65370
3892.184, 59.68200
3894.113, 60.37634
3896.041, 60.01615
3897.969, 59.46891
3899.898, 59.13903
3901.826, 59.73397
3903.755, 60.03579
3905.683, 59.70679
3907.612, 59.99295
3909.540, 60.70372
3911.469, 60.01356
3913.397, 58.72691
3915.326, 58.14474
3917.254, 58.49815
3919.183, 59.19397
3921.111, 59.54726
3923.040, 59.77612
3924.968, 59.39465
3926.896, 59.25391
3928.825, 59.90696
3930.753, 60.29353
3932.682, 60.22556
3934.610, 59.32122
3936.539, 58.56648
3938.467, 59.96582
3940.396, 61.15223
3942.324, 61.42106
3944.253, 59.95130
3946.181, 58.29964
3948.110, 58.90844
3950.038, 59.40917
3951.967, 60.04835
3953.895, 60.45723
3955.823, 60.04105
3957.752, 58.30164
3959.680, 57.76487
3961.609, 59.63457
3963.537, 59.96309
3965.466, 58.55813
3967.394, 57.80814
3969.323, 57.92092
3971.251, 58.72944
3973.180, 59.44856
3975.108, 60.03253
3977.037, 59.61164
3978.965, 58.84219
3980.894, 57.96004
3982.822, 57.31264
3984.750, 58.08282
3986.679, 59.85115
3988.607, 60.89470
3990.536, 60.27677
3992.464, 60.28892
3994.393, 62.03450
3996.321, 62.02189
3998.250, 60.39820
4000.178, 60.26055
4002.107, 60.72961
4004.035, 59.54561
4005.964, 58.54337
4007.892, 59.04014
4009.821, 59.85069
4011.749, 60.77832
4013.677, 61.69183
4015.606, 61.22487
4017.534, 60.74601
4019.463, 60.64928
4021.391, 60.60716
4023.320, 60.65278
4025.248, 60.09921
4027.177, 59.68845
4029.105, 60.25384
4031.034, 61.15386
4032.962, 61.79739
4034.891, 62.24089
4036.819, 62.49510
4038.748, 61.32408
4040.676, 61.26480
4042.604, 62.88529
4044.533, 62.54886
4046.461, 61.28601
4048.390, 61.50878
4050.318, 62.01794
4052.247, 62.44756
4054.175, 63.02336
4056.104, 63.41105
4058.032, 63.81630
4059.961, 64.61984
4061.889, 64.61508
4063.818, 64.54812
4065.746, 65.07677
4067.675, 65.32549
4069.603, 65.68572
4071.531, 66.93088
4073.460, 67.40257
4075.388, 66.69836
4077.317, 65.41801
4079.245, 65.37276
4081.174, 67.60420
4083.102, 67.46803
4085.031, 66.23002
4086.959, 65.77849
4088.888, 65.98792
4090.816, 67.72286
4092.745, 67.50329
4094.673, 66.12306
4096.602, 67.53492
4098.530, 69.09447
4100.458, 68.76113
4102.387, 68.52124
4104.315, 68.67272
4106.244, 69.11642
4108.172, 69.54201
4110.101, 69.59396
4112.029, 69.27256
4113.958, 68.80703
4115.886, 69.17503
4117.814, 70.17478
4119.743, 72.57063
4121.671, 73.36880
4123.600, 72.49419
4125.528, 73.29701
4127.457, 74.30032
4129.385, 74.42829
4131.314, 73.77306
4133.242, 72.67744
4135.171, 72.91747
4137.099, 73.57869
4139.028, 74.22906
4140.956, 73.80232
4142.885, 72.55333
4144.813, 73.19865
4146.742, 74.02898
4148.670, 73.47517
4150.599, 73.44717
4152.527, 74.17427
4154.456, 75.52498
4156.384, 76.15240
4158.313, 74.75370
4160.241, 74.05724
4162.169, 74.21760
4164.098, 74.78735
4166.026, 75.15272
4167.955, 74.48592
4169.883, 74.77745
4171.812, 75.87502
4173.740, 75.17070
4175.668, 74.46111
4177.597, 75.95565
4179.525, 74.69981
4181.454, 71.55355
4183.382, 73.46937
4185.311, 75.94691
4187.239, 75.48671
4189.168, 74.60697
4191.096, 73.74413
4193.025, 73.09232
4194.953, 73.24933
4196.882, 74.32838
4198.810, 74.86438
4200.739, 75.08746
4202.667, 75.01859
4204.596, 74.90179
4206.524, 74.92757
4208.453, 74.62480
4210.381, 74.55688
4212.310, 76.63436
4214.238, 77.25686
4216.167, 75.24767
4218.095, 74.93888
4220.023, 75.64187
4221.952, 75.81517
4223.880, 75.03073
4225.809, 73.38018
4227.737, 74.30608
4229.666, 75.72891
4231.594, 74.24394
4233.522, 74.30502
4235.451, 76.46700
4237.379, 75.19675
4239.308, 72.89052
4241.236, 71.46296
4243.165, 71.79814
4245.093, 73.56540
4247.022, 73.20335
4248.950, 72.71122
4250.879, 73.57713
4252.807, 73.94099
4254.736, 73.66677
4256.664, 72.55202
4258.593, 71.84518
4260.521, 72.21731
4262.450, 72.28963
4264.378, 72.17898
4266.307, 72.31138
4268.235, 72.64056
4270.164, 73.20933
4272.092, 72.09714
4274.021, 70.65504
4275.949, 70.72963
4277.877, 71.06352
4279.806, 71.36772
4281.734, 70.86660
4283.663, 70.58395
4285.591, 71.54741
4287.520, 72.04243
4289.448, 72.02355
4291.376, 72.21778
4293.305, 72.46659
4295.233, 72.73864
4297.162, 72.74727
4299.090, 72.25099
4301.019, 69.69800
4302.947, 69.10575
4304.876, 71.49564
4306.804, 72.80956
4308.733, 73.32707
4310.661, 73.81067
4312.590, 72.20836
4314.518, 68.89537
4316.447, 67.91833
4318.375, 68.14229
4320.304, 68.93179
4322.232, 70.01543
4324.161, 71.15642
4326.089, 72.25572
4328.018, 72.16310
4329.946, 70.60438
4331.875, 69.34874
4333.803, 68.93578
4335.731, 70.47290
4337.660, 71.05095
4339.588, 70.65820
4341.517, 72.67548
4343.445, 73.28440
4345.374, 69.34845
4347.302, 67.55434
4349.230, 67.87561
4351.159, 69.89303
4353.087, 70.91230
4355.016, 70.09368
4356.944, 69.63855
4358.873, 68.83975
4360.801, 65.67651
4362.730, 66.11192
4364.658, 69.40598
4366.587, 68.17651
4368.515, 66.66067
4370.444, 67.37666
4372.372, 68.11229
4374.301, 68.41231
4376.229, 67.04863
4378.158, 66.00165
4380.086, 65.68422
4382.015, 66.94492
4383.943, 68.81243
4385.872, 71.16154
4387.800, 70.31280
4389.729, 67.73726
4391.657, 67.60744
4393.585, 67.46735
4395.514, 66.67448
4397.442, 66.70709
4399.371, 67.35190
4401.299, 68.85265
4403.228, 68.20513
4405.156, 66.15273
4407.084, 65.24124
4409.013, 66.46205
4410.941, 70.08598
4412.870, 71.31358
4414.798, 70.88139
4416.727, 69.21491
4418.655, 68.54891
4420.584, 68.80473
4422.512, 68.40972
4424.441, 68.35416
4426.369, 69.32241
4428.298, 69.81190
4430.226, 69.50535
4432.155, 67.28367
4434.083, 66.30541
4436.012, 66.87830
4437.940, 69.91517
4439.869, 70.54435
4441.797, 66.56723
4443.726, 65.83113
4445.654, 67.09650
4447.583, 69.26149
4449.511, 69.91452
4451.439, 69.12559
4453.368, 67.78885
4455.296, 67.14678
4457.225, 67.74365
4459.153, 66.80293
4461.082, 65.72352
4463.010, 66.76719
4464.938, 65.75826
4466.867, 63.82749
4468.795, 67.90455
4470.724, 70.19340
4472.652, 67.61164
4474.581, 67.70145
4476.509, 68.23955
4478.438, 66.80956
4480.366, 68.94654
4482.295, 72.45824
4484.223, 70.09165
4486.152, 68.08975
4488.080, 67.84398
4490.009, 66.56782
4491.937, 66.21980
4493.866, 69.02394
4495.794, 69.51665
4497.723, 69.00734
4499.651, 70.43299
4501.580, 71.51842
4503.508, 71.80940
4505.437, 70.61412
4507.365, 69.42250
4509.293, 68.89732
4511.222, 67.75629
4513.150, 67.37661
4515.079, 70.26855
4517.007, 69.17280
4518.936, 65.81673
4520.864, 67.80870
4522.792, 68.88802
4524.721, 67.25966
4526.649, 68.45845
4528.578, 69.59126
4530.506, 68.19882
4532.435, 67.44066
4534.363, 67.60213
4536.292, 69.58501
4538.220, 69.72324
4540.149, 68.30644
4542.077, 69.78514
4544.006, 70.04295
4545.934, 67.80342
4547.863, 68.93401
4549.791, 69.72690
4551.720, 65.20851
4553.648, 65.19063
4555.577, 67.82011
4557.505, 69.34596
4559.434, 69.59453
4561.362, 68.76180
4563.291, 67.85860
4565.219, 67.07067
4567.147, 66.49660
4569.076, 67.51772
4571.004, 68.37496
4572.933, 66.73238
4574.861, 68.03964
4576.790, 70.27135
4578.718, 68.74367
4580.646, 67.94310
4582.575, 68.27596
4584.503, 68.52561
4586.432, 67.87505
4588.360, 66.22554
4590.289, 65.71050
4592.217, 66.78628
4594.146, 70.51680
4596.074, 70.23411
4598.003, 68.20691
4599.931, 68.15217
4601.860, 67.88798
4603.788, 67.37852
4605.717, 67.14865
4607.645, 67.46039
4609.574, 68.30334
4611.502, 69.93450
4613.431, 70.20364
4615.359, 67.80919
4617.288, 67.25336
4619.216, 67.82494
4621.145, 69.39319
4623.073, 68.24627
4625.001, 66.29100
4626.930, 67.49348
4628.858, 68.41203
4630.787, 68.36752
4632.715, 66.37904
4634.644, 65.53400
4636.572, 66.67739
4638.500, 67.36530
4640.429, 67.84396
4642.357, 68.20143
4644.286, 69.12479
4646.214, 69.87535
4648.143, 69.83575
4650.071, 68.69170
4652.000, 67.81194
4653.928, 70.09708
4655.857, 70.38503
4657.785, 68.89121
4659.714, 68.37824
4661.642, 68.30676
4663.571, 68.49798
4665.499, 68.76458
4667.428, 68.78203
4669.356, 68.45974
4671.285, 69.12879
4673.213, 69.48552
4675.142, 68.30032
4677.070, 67.69296
4678.999, 67.57719
4680.927, 67.77274
4682.855, 69.11900
4684.784, 70.35000
4686.712, 68.68943
4688.641, 67.67039
4690.569, 67.90077
4692.498, 70.53313
4694.426, 71.45632
4696.354, 69.92371
4698.283, 66.33380
4700.211, 65.84657
4702.140, 69.70049
4704.068, 68.27647
4705.997, 66.88016
4707.925, 69.35446
4709.854, 69.51958
4711.782, 69.53171
4713.711, 71.40408
4715.639, 71.31514
4717.568, 69.93816
4719.496, 67.86259
4721.425, 67.76118
4723.353, 68.91541
4725.282, 69.83421
4727.210, 69.79584
4729.139, 69.08075
4731.067, 68.72032
4732.996, 68.30899
4734.924, 67.86400
4736.853, 67.93908
4738.781, 68.37627
4740.709, 68.99530
4742.638, 66.93365
4744.566, 65.80307
4746.495, 66.93868
4748.423, 68.10061
4750.352, 68.90272
4752.280, 69.18906
4754.208, 68.13284
4756.137, 67.80795
4758.065, 70.04438
4759.994, 68.12516
4761.922, 65.88976
4763.851, 68.92673
4765.779, 70.00830
4767.708, 69.60515
4769.636, 68.62701
4771.565, 68.34070
4773.493, 68.71971
4775.422, 69.89510
4777.350, 69.95673
4779.279, 69.08902
4781.207, 68.31082
4783.136, 67.24260
4785.064, 66.40156
4786.993, 68.44576
4788.921, 68.81758
4790.850, 67.25014
4792.778, 67.75133
4794.707, 68.78294
4796.635, 69.76594
4798.563, 69.99084
4800.492, 69.15044
4802.420, 67.36785
4804.349, 67.11735
4806.277, 67.65668
4808.206, 68.63650
4810.134, 69.73480
4812.063, 69.63002
4813.991, 67.80615
4815.919, 69.46022
4817.848, 70.50359
4819.776, 68.51058
4821.705, 68.84467
4823.633, 68.99557
4825.562, 67.24080
4827.490, 68.90304
4829.419, 70.64702
4831.347, 69.81711
4833.276, 68.78218
4835.204, 68.26479
4837.133, 68.73570
4839.061, 69.93553
4840.990, 70.96980
4842.918, 71.19508
4844.847, 69.30138
4846.775, 67.36157
4848.704, 67.33672
4850.632, 67.80125
4852.561, 68.20469
4854.489, 68.05450
4856.417, 67.88925
4858.346, 67.85088
4860.274, 67.91940
4862.203, 69.07628
4864.131, 70.41988
4866.060, 70.99129
4867.988, 70.38414
4869.917, 69.14464
4871.845, 67.49410
4873.773, 67.80118
4875.702, 68.32930
4877.630, 66.69926
4879.559, 65.38861
4881.487, 65.44362
4883.416, 68.75957
4885.344, 69.58627
4887.273, 68.65078
4889.201, 66.81310
4891.130, 67.37356
4893.058, 69.09629
4894.987, 71.06088
4896.915, 69.48837
4898.844, 67.28577
4900.772, 67.65575
4902.701, 69.84646
4904.629, 71.30469
4906.558, 68.48756
4908.486, 68.26982
4910.415, 68.98593
4912.343, 68.94070
4914.271, 68.39861
4916.200, 67.70347
4918.128, 67.06663
4920.057, 66.68941
4921.985, 67.17711
4923.914, 69.10632
4925.842, 68.65819
4927.771, 68.18281
4929.699, 69.70665
4931.627, 68.42033
4933.556, 67.56554
4935.484, 69.28450
4937.413, 69.40379
4939.341, 68.74781
4941.270, 67.90144
4943.198, 69.00621
4945.127, 69.11790
4947.055, 66.74548
4948.984, 66.99660
4950.912, 67.77654
4952.841, 68.13658
4954.769, 66.70043
4956.698, 66.99565
4958.626, 69.71822
4960.555, 69.71363
4962.483, 67.98983
4964.412, 65.94407
4966.340, 68.87777
4968.269, 70.05989
4970.197, 68.73132
4972.125, 67.80334
4974.054, 67.38313
4975.982, 67.38120
4977.911, 67.50044
4979.839, 68.36013
4981.768, 69.10400
4983.696, 67.19102
4985.625, 68.29408
4987.553, 70.29144
4989.481, 69.33615
4991.410, 66.25079
4993.338, 64.37796
4995.267, 68.20908
4997.195, 69.38965
4999.124, 68.90154
5001.052, 67.67482
5002.981, 68.33694
5004.909, 68.95154
5006.838, 68.26192
5008.766, 66.78580
5010.695, 66.21648
5012.623, 67.29945
5014.552, 68.55186
5016.480, 69.17406
5018.409, 68.80484
5020.337, 65.94359
5022.266, 65.68915
5024.194, 68.16381
5026.123, 69.73057
5028.051, 68.35715
5029.979, 66.01826
5031.908, 68.10541
5033.836, 68.42036
5035.765, 67.99672
5037.693, 70.20978
5039.622, 68.93604
5041.550, 66.71380
5043.479, 66.23776
5045.407, 67.10256
5047.335, 68.09604
5049.264, 68.43649
5051.192, 67.76250
5053.121, 67.14497
5055.049, 66.97956
5056.978, 64.64256
5058.906, 65.79637
5060.835, 69.88258
5062.763, 68.38057
5064.692, 67.59244
5066.620, 68.02008
5068.549, 67.71719
5070.477, 66.95608
5072.406, 66.56917
5074.334, 67.80330
5076.263, 67.78342
5078.191, 67.50969
5080.120, 68.29707
5082.048, 67.93728
5083.977, 67.57097
5085.905, 67.73248
5087.833, 66.96062
5089.762, 67.68597
5091.690, 69.76152
5093.619, 68.02367
5095.547, 67.08392
5097.476, 67.35593
5099.404, 67.26315
5101.333, 67.29564
5103.261, 67.71864
5105.189, 69.21353
5107.118, 66.32132
5109.046, 64.21407
5110.975, 67.87447
5112.903, 69.47737
5114.832, 68.26260
5116.760, 64.93333
5118.689, 66.60966
5120.617, 67.68654
5122.546, 67.30283
5124.474, 68.45677
5126.403, 67.07343
5128.331, 65.33771
5130.260, 67.80842
5132.188, 68.84814
5134.117, 68.62552
5136.045, 67.75964
5137.974, 66.47519
5139.902, 65.94426
5141.831, 66.67613
5143.759, 69.19860
5145.688, 67.81123
5147.616, 64.03217
5149.544, 67.05973
5151.473, 66.73929
5153.401, 65.07535
5155.330, 66.93655
5157.258, 69.01874
5159.187, 68.94640
5161.115, 65.58818
5163.043, 67.17101
5164.972, 68.65181
5166.900, 68.08206
5168.829, 65.82200
5170.757, 65.33533
5172.686, 66.36345
5174.614, 67.16078
5176.543, 67.21648
5178.471, 66.41485
5180.400, 64.67427
5182.328, 65.71024
5184.257, 66.23997
5186.185, 64.90134
5188.114, 65.93788
5190.042, 65.29922
5191.971, 63.90701
5193.899, 66.75813
5195.828, 67.44825
5197.756, 66.77149
5199.685, 66.31747
5201.613, 66.33822
5203.542, 66.90290
5205.470, 67.80959
5207.398, 65.55985
5209.327, 66.32346
5211.255, 69.41216
5213.184, 70.27151
5215.112, 68.03271
5217.041, 65.77842
5218.969, 66.86221
5220.897, 68.48026
5222.826, 70.45370
5224.754, 72.25188
5226.683, 70.90251
5228.611, 68.66905
5230.540, 66.98920
5232.468, 67.81639
5234.397, 69.23550
5236.325, 69.54259
5238.254, 67.44243
5240.182, 65.95143
5242.111, 67.02666
5244.039, 69.89949
5245.968, 68.76234
5247.896, 68.11116
5249.825, 68.06577
5251.753, 67.65647
5253.682, 66.72586
5255.610, 66.88171
5257.539, 68.64043
5259.467, 67.43658
5261.396, 65.93615
5263.324, 65.50224
5265.252, 68.36241
5267.181, 68.50799
5269.109, 67.22613
5271.038, 66.10810
5272.966, 66.25758
5274.895, 67.23819
5276.823, 68.56054
5278.751, 69.56492
5280.680, 68.21346
5282.608, 66.69461
5284.537, 68.86491
5286.465, 68.28312
5288.394, 67.37401
5290.322, 67.31055
5292.251, 67.19664
5294.179, 66.81218
5296.108, 66.55638
5298.036, 67.31059
5299.965, 67.08504
5301.893, 66.79129
5303.822, 67.10341
5305.750, 68.53822
5307.679, 69.03957
5309.607, 68.80168
5311.536, 69.48611
5313.464, 67.84193
5315.393, 66.91792
5317.321, 68.93669
5319.250, 68.93779
5321.178, 67.84115
5323.106, 66.61646
5325.035, 66.95631
5326.963, 66.23086
5328.892, 65.43254
5330.820, 65.57014
5332.749, 67.25619
5334.677, 67.28963
5336.605, 66.06180
5338.534, 67.27153
5340.462, 68.03337
5342.391, 67.55370
5344.319, 65.55792
5346.248, 65.07681
5348.176, 65.60300
5350.105, 66.17496
5352.033, 64.80981
5353.962, 64.64489
5355.890, 65.81581
5357.819, 68.19903
5359.747, 68.64199
5361.676, 68.28740
5363.604, 67.74281
5365.533, 67.51408
5367.461, 67.46293
5369.390, 66.88433
5371.318, 65.67946
5373.247, 66.96043
5375.175, 65.20745
5377.104, 62.65022
5379.032, 65.20618
5380.960, 69.52574
5382.889, 70.64919
5384.817, 67.52690
5386.746, 67.39223
5388.674, 66.38373
5390.603, 65.80582
5392.531, 68.01018
5394.459, 68.99712
5396.388, 68.39339
5398.316, 66.78062
5400.245, 66.00381
5402.173, 66.89162
5404.102, 67.58799
5406.030, 66.70848
5407.959, 67.05023
5409.887, 66.30687
5411.816, 65.20557
5413.744, 66.65880
5415.673, 67.99949
5417.601, 68.07878
5419.530, 66.77149
5421.458, 66.98756
5423.387, 67.28398
5425.315, 68.17256
5427.244, 70.40842
5429.172, 68.09734
5431.101, 66.30756
5433.029, 66.23035
5434.958, 65.41796
5436.886, 66.50285
5438.814, 67.10606
5440.743, 65.81567
5442.671, 67.16407
5444.600, 66.59307
5446.528, 65.22688
5448.457, 65.75426
5450.385, 65.76165
5452.313, 66.43199
5454.242, 67.30643
5456.170, 64.78033
5458.099, 64.77826
5460.027, 66.08852
5461.956, 67.35796
5463.884, 66.55820
5465.813, 66.65247
5467.741, 67.35562
5469.670, 67.52927
5471.598, 67.59012
5473.527, 68.06542
5475.455, 68.60421
5477.384, 67.44039
5479.312, 68.91066
5481.241, 69.14731
5483.169, 66.51845
5485.098, 67.14942
5487.026, 67.55363
5488.955, 66.49017
5490.883, 63.67319
5492.812, 63.15511
5494.740, 64.60799
5496.668, 66.32580
5498.597, 65.88062
5500.525, 64.27679
5502.454, 64.88969
5504.382, 67.57735
5506.311, 66.93317
5508.239, 65.60152
5510.167, 65.24557
5512.096, 66.45150
5514.024, 67.64872
5515.953, 65.43701
5517.881, 63.44157
5519.810, 65.51124
5521.738, 66.71862
5523.667, 66.48098
5525.595, 65.62524
5527.524, 65.53445
5529.452, 66.01651
5531.381, 66.95357
5533.309, 67.87078
5535.238, 67.76966
5537.166, 66.82533
5539.095, 65.93453
5541.023, 65.43654
5542.952, 64.58199
5544.880, 64.91991
5546.809, 65.12075
5548.737, 64.37386
5550.666, 66.23622
5552.594, 67.91587
5554.522, 67.88103
5556.451, 65.15932
5558.379, 66.55128
5560.308, 67.05213
5562.236, 66.89239
5564.165, 67.99826
5566.093, 64.69958
5568.021, 65.22405
5569.950, 68.66121
5571.878, 68.55604
5573.807, 66.22858
5575.735, 66.99008
5577.664, 70.03092
5579.592, 67.28843
5581.521, 64.70223
5583.449, 63.70779
5585.378, 63.97721
5587.306, 62.93346
5589.235, 64.20314
5591.163, 65.07295
5593.092, 64.46318
5595.020, 66.36256
5596.949, 64.90131
5598.877, 63.53151
5600.806, 64.61873
5602.734, 63.83702
5604.663, 65.25748
5606.591, 66.82338
5608.520, 66.53923
5610.448, 65.91053
5612.376, 65.36952
5614.305, 65.68162
5616.233, 66.91451
5618.162, 63.52134
5620.090, 63.53690
5622.019, 64.98351
5623.947, 64.56250
5625.875, 63.73017
5627.804, 64.83861
5629.732, 65.88750
5631.661, 64.21102
5633.589, 64.75414
5635.518, 64.39321
5637.446, 63.68782
5639.375, 64.09227
5641.303, 65.24626
5643.232, 64.08873
5645.160, 62.17995
5647.089, 61.99819
5649.017, 63.45495
5650.946, 62.78091
5652.874, 61.99974
5654.803, 64.00739
5656.731, 63.29562
5658.660, 63.07072
5660.588, 63.67052
5662.517, 64.60804
5664.445, 62.94129
5666.374, 63.03691
5668.302, 64.03667
5670.230, 63.98429
5672.159, 64.04468
5674.087, 63.74883
5676.016, 64.08700
5677.944, 65.73906
5679.873, 65.70842
5681.801, 64.86205
5683.729, 64.66485
5685.658, 65.83819
5687.586, 65.19344
5689.515, 65.89220
5691.443, 66.37389
5693.372, 65.16570
5695.300, 62.75152
5697.229, 64.25750
5699.157, 65.24897
5701.086, 63.06499
5703.014, 61.97233
5704.943, 62.27156
5706.871, 62.84385
5708.800, 63.03631
5710.728, 62.95138
5712.657, 63.76699
5714.585, 63.98310
5716.514, 63.47225
5718.442, 64.19958
5720.371, 63.22999
5722.299, 63.25869
5724.228, 64.01215
5726.156, 62.24661
5728.084, 60.25507
5730.013, 60.73554
5731.941, 62.46226
5733.870, 62.34245
5735.798, 62.93820
5737.727, 64.34875
5739.655, 65.26997
5741.583, 64.47298
5743.512, 63.55128
5745.440, 61.38366
5747.369, 61.17576
5749.297, 64.39749
5751.226, 64.65112
5753.154, 63.02871
5755.083, 61.99538
5757.011, 62.66759
5758.940, 65.03725
5760.868, 61.27541
5762.797, 60.76101
5764.725, 64.11798
5766.654, 62.39804
5768.582, 62.70419
5770.511, 63.10748
5772.439, 63.39541
5774.368, 64.18896
5776.296, 61.79312
5778.225, 61.21709
5780.153, 62.12194
5782.082, 62.65368
5784.010, 59.19918
5785.938, 60.64643
5787.867, 62.54177
5789.795, 62.33958
5791.724, 63.47663
5793.652, 62.14335
5795.581, 62.12653
5797.509, 63.04401
5799.438, 60.88005
5801.366, 62.87303
5803.294, 62.67461
5805.223, 60.76943
5807.151, 59.77183
5809.080, 64.79662
5811.008, 63.36526
5812.937, 60.21043
5814.865, 59.76701
5816.794, 61.97066
5818.722, 60.92674
5820.651, 60.77236
5822.579, 61.69923
5824.508, 60.99548
5826.436, 62.56351
5828.365, 62.49807
5830.293, 61.50129
5832.222, 61.15273
5834.150, 61.02654
5836.079, 61.66755
5838.007, 61.74691
5839.936, 61.22694
5841.864, 62.33006
5843.792, 61.32647
5845.721, 61.54545
5847.649, 62.36038
5849.578, 61.51875
5851.506, 58.62244
5853.435, 58.51037
5855.363, 60.93586
5857.292, 63.71615
5859.220, 61.39101
5861.148, 61.20217
5863.077, 61.75539
5865.005, 62.19158
5866.934, 62.39864
5868.862, 61.90471
5870.791, 61.10776
5872.719, 60.93508
5874.648, 61.63169
5876.576, 61.78053
5878.505, 62.13431
5880.433, 63.40535
5882.362, 64.01153
5884.290, 61.71598
5886.219, 59.77181
5888.147, 61.92971
5890.076, 62.68964
5892.004, 59.69525
5893.933, 60.61966
5895.861, 61.02008
5897.790, 60.15620
5899.718, 59.39183
5901.646, 60.56542
5903.575, 58.78861
5905.503, 59.22880
5907.432, 60.52782
5909.360, 61.43796
5911.289, 63.14146
5913.217, 61.53593
5915.146, 58.64997
5917.074, 57.21896
5919.002, 58.89181
5920.931, 58.26263
5922.859, 57.82167
5924.788, 58.97423
5926.716, 60.61486
5928.645, 59.94553
5930.573, 59.36023
5932.502, 59.97489
5934.430, 60.89956
5936.359, 60.70808
5938.287, 57.48334
5940.216, 59.02132
5942.144, 59.85295
5944.073, 60.52051
5946.001, 63.22146
5947.930, 60.03220
5949.858, 58.13062
5951.787, 59.14227
5953.715, 60.75555
5955.644, 58.78313
5957.572, 59.67800
5959.500, 58.76307
5961.429, 58.15961
5963.357, 59.63762
5965.286, 61.78059
5967.214, 63.04513
5969.143, 64.27047
5971.071, 65.33916
5973.000, 65.76784
5974.928, 64.41949
5976.856, 64.33620
5978.785, 66.87154
5980.713, 71.02287
5982.642, 74.82216
5984.570, 69.85755
5986.499, 64.27794
5988.427, 62.71494
5990.356, 63.54238
5992.284, 60.48080
5994.213, 58.28700
5996.141, 57.29406
5998.070, 56.11473
5999.998, 55.86016
6001.927, 61.97853
6003.855, 63.77973
6005.784, 61.62220
6007.712, 59.62475
6009.641, 59.53364
6011.569, 57.60179
6013.498, 56.99800
6015.426, 58.05876
6017.354, 58.74601
6019.283, 58.02146
6021.211, 58.97753
6023.140, 58.06121
6025.068, 57.64542
6026.997, 56.83787
6028.925, 55.08533
6030.854, 57.58352
6032.782, 58.15306
6034.710, 57.53653
6036.639, 57.21566
6038.567, 57.80300
6040.496, 57.75210
6042.424, 54.90477
6044.353, 57.27965
6046.281, 59.85128
6048.210, 56.25654
6050.138, 55.99941
6052.067, 55.61853
6053.995, 53.99259
6055.924, 53.52565
6057.852, 56.20638
6059.781, 58.59628
6061.709, 59.25655
6063.638, 57.27648
6065.566, 55.93397
6067.495, 57.36068
6069.423, 55.21747
6071.352, 55.25615
6073.280, 55.35593
6075.208, 55.24795
6077.137, 55.79810
6079.065, 58.04177
6080.994, 57.74976
6082.922, 56.95936
6084.851, 55.73132
6086.779, 54.79696
6088.708, 58.76252
6090.636, 59.06470
6092.564, 58.15118
6094.493, 58.26060
6096.421, 59.36186
6098.350, 58.82682
6100.278, 57.13784
6102.207, 58.43330
6104.135, 58.86790
6106.064, 57.13485
6107.992, 56.79475
6109.921, 57.18768
6111.849, 56.15621
6113.778, 55.55943
6115.706, 56.58342
6117.635, 58.51036
6119.563, 54.91499
6121.492, 53.60720
6123.420, 55.37896
6125.349, 57.32524
6127.277, 56.53917
6129.206, 52.76600
6131.134, 53.09080
6133.063, 55.23688
6134.991, 55.54644
6136.919, 53.62241
6138.848, 55.14693
6140.776, 55.60879
6142.705, 54.98207
6144.633, 53.79412
6146.562, 53.98175
6148.490, 57.84968
6150.418, 53.47717
6152.347, 53.57672
6154.275, 54.99902
6156.204, 56.40789
6158.132, 58.76443
6160.061, 59.27285
6161.989, 56.07114
6163.918, 55.57281
6165.846, 54.55825
6167.775, 51.81235
6169.703, 55.61906
6171.632, 55.27129
6173.560, 54.46913
6175.489, 55.43867
6177.417, 56.38295
6179.346, 54.43862
6181.274, 55.72892
6183.203, 53.46283
6185.131, 52.60514
6187.060, 52.73544
6188.988, 52.49012
6190.917, 54.63042
6192.845, 55.14528
6194.773, 53.43523
6196.702, 53.56385
6198.630, 55.70912
6200.559, 56.18821
6202.487, 52.24481
6204.416, 53.14245
6206.344, 54.82904
6208.272, 55.31046
6210.201, 54.84657
6212.129, 54.45720
6214.058, 54.47036
6215.986, 54.35516
6217.915, 52.89683
6219.843, 51.36494
6221.772, 52.02221
6223.700, 54.73086
6225.629, 53.12316
6227.557, 52.95976
6229.486, 52.88799
6231.414, 51.78849
6233.343, 51.79985
6235.271, 54.28535
6237.200, 52.42645
6239.128, 51.35679
6241.057, 52.19456
6242.985, 53.05453
6244.914, 51.63035
6246.842, 53.43953
6248.771, 57.85894
6250.699, 55.96958
6252.627, 52.14344
6254.556, 54.08551
6256.484, 51.12240
6258.413, 53.58852
6260.341, 54.12629
6262.270, 53.70362
6264.198, 53.88380
6266.126, 54.23948
6268.055, 51.78155
6269.983, 48.90449
6271.912, 50.27657
6273.840, 52.89161
6275.769, 53.54122
6277.697, 51.82021
6279.626, 50.14870
6281.554, 49.33279
6283.483, 50.93940
6285.411, 53.27248
6287.340, 54.02998
6289.268, 52.30903
6291.197, 50.97936
6293.125, 50.74754
6295.054, 50.49891
6296.982, 50.53952
6298.911, 51.24193
6300.839, 52.25514
6302.768, 53.22197
6304.696, 54.25261
6306.625, 52.12018
6308.553, 50.53910
6310.481, 50.28604
6312.410, 47.63636
6314.338, 49.56524
6316.267, 51.28172
6318.195, 50.93878
6320.124, 51.03529
6322.052, 52.03133
6323.980, 51.77788
6325.909, 53.67593
6327.837, 51.01628
6329.766, 52.25079
6331.694, 52.88562
6333.623, 52.06717
6335.551, 54.14498
6337.480, 55.83710
6339.408, 51.91558
6341.337, 49.46233
6343.265, 50.34709
6345.194, 51.54556
6347.122, 50.42748
6349.051, 50.31773
6350.979, 51.27988
6352.908, 50.39904
6354.836, 48.68356
6356.765, 48.52008
6358.693, 50.46712
6360.622, 51.97936
6362.550, 49.81626
6364.479, 48.98811
6366.407, 50.00875
6368.335, 51.83461
6370.264, 52.71077
6372.192, 51.81627
6374.121, 54.57417
6376.049, 52.22927
6377.978, 50.11247
6379.906, 48.86060
6381.834, 49.57557
6383.763, 52.52140
6385.691, 51.74155
6387.620, 45.03154
6389.548, 48.44373
6391.477, 50.25335
6393.405, 49.47565
6395.334, 48.97790
6397.262, 47.67597
6399.191, 52.05830
6401.119, 50.47820
6403.048, 48.07362
6404.976, 48.11413
6406.905, 48.91494
6408.833, 48.75121
6410.762, 50.57075
6412.690, 51.39579
6414.619, 48.95301
6416.547, 48.17612
6418.476, 49.73612
6420.404, 50.21844
6422.333, 47.27425
6424.261, 48.56649
6426.189, 50.12586
6428.118, 49.13470
6430.046, 50.71311
6431.975, 51.46796
6433.903, 49.20131
6435.832, 49.28107
6437.760, 47.26997
6439.688, 49.99954
6441.617, 46.05732
6443.545, 46.08600
6445.474, 48.95556
6447.402, 47.97385
6449.331, 46.12340
6451.259, 48.97332
6453.188, 46.79748
6455.116, 47.15272
6457.045, 47.85636
6458.973, 48.57817
6460.902, 50.59361
6462.830, 51.01752
6464.759, 48.24163
6466.687, 48.93017
6468.616, 49.26948
6470.544, 48.45281
6472.473, 47.97778
6474.401, 48.81951
6476.330, 50.37626
6478.258, 48.38700
6480.187, 49.26405
6482.115, 48.91535
6484.043, 47.04090
6485.972, 46.34856
6487.900, 47.32446
6489.829, 46.62855
6491.757, 48.40749
6493.686, 45.05041
6495.614, 44.76356
6497.542, 44.95520
6499.471, 46.09892
6501.399, 48.14037
6503.328, 46.47204
6505.256, 45.67054
6507.185, 49.00559
6509.113, 48.20648
6511.042, 47.52467
6512.970, 46.53588
6514.899, 44.93856
6516.827, 45.36155
6518.756, 47.15755
6520.684, 45.50562
6522.613, 48.05260
6524.541, 44.58314
6526.470, 42.89471
6528.398, 44.21000
6530.327, 44.06777
6532.255, 46.58390
6534.184, 47.71853
6536.112, 46.04682
6538.041, 45.92764
6539.969, 44.45551
6541.897, 44.63119
6543.826, 46.56451
6545.754, 45.21350
6547.683, 44.44607
6549.611, 48.43103
6551.540, 47.11691
6553.468, 46.01464
6555.396, 45.27129
6557.325, 44.01871
6559.253, 43.86209
6561.182, 46.31470
6563.110, 45.14872
6565.039, 46.94393
6566.967, 45.88981
6568.896, 43.81502
6570.824, 44.23432
6572.753, 45.44686
6574.681, 45.39848
6576.610, 48.38811
6578.538, 46.55848
6580.467, 46.99583
6582.395, 47.71669
6584.324, 44.00609
6586.252, 44.58204
6588.181, 47.95518
6590.109, 45.46923
6592.038, 43.23653
6593.966, 42.79877
6595.895, 43.43552
6597.823, 47.93009
6599.751, 45.90088
6601.680, 44.62924
6603.608, 44.73501
6605.537, 42.34972
6607.465, 47.62534
6609.394, 43.31141
6611.322, 44.41496
6613.250, 45.12902
6615.179, 45.71035
6617.107, 45.70347
6619.036, 46.56058
6620.964, 47.10636
6622.893, 41.54000
6624.821, 43.62227
6626.750, 45.99606
##END=



