##NAMES=Diaboleite
##RRUFFID=R050372
##IDEAL CHEMISTRY=CuPb_2_Cl_2_(OH)_4_
##LOCALITY=Collins Vein, Mammoth mine, Tiger, Arizona
##OWNER=RRUFF
##SOURCE=Eugene Schlepp
##DESCRIPTION=Blue massive fragment
##STATUS=The identification of this mineral has been confirmed by X-ray diffraction and chemical analysis
##URL=https://www.rruff.net/odr/rruff_sample/R050372
##MEASURED CHEMISTRY=(Cu_0.91_Pb_0.09_)Pb_2.00_Cl_2.00_(OH)_4_
##DIFFRACTION SAMPLE DESCRIPTION=Powder
##CELL PARAMETERS=a: 5.8698 b: 5.8698 c: 5.4952 alpha: 90 beta: 90 gamma: 90 volume: 189.342 crystal system: tetragonal
##FILETYPE=Raman RAW
##RAMAN WAVELENGTH=780

83.81592, 123.1103
85.74438, 133.5710
87.67285, 150.2231
89.60132, 168.1602
91.52979, 188.5560
93.45825, 208.7823
95.38672, 216.7329
97.31519, 229.4569
99.24365, 249.3295
101.1721, 269.9214
103.1006, 290.8101
105.0291, 310.2156
106.9575, 323.9808
108.8860, 333.2715
110.8145, 334.7313
112.7429, 324.7953
114.6714, 312.0113
116.5999, 298.6137
118.5283, 286.2434
120.4568, 278.4528
122.3853, 274.8162
124.3137, 277.2615
126.2422, 291.8615
128.1707, 305.4373
130.0991, 313.2924
132.0276, 314.1427
133.9561, 304.3281
135.8845, 280.4030
137.8130, 253.9563
139.7415, 221.7829
141.6699, 191.8922
143.5984, 167.2848
145.5269, 147.6958
147.4553, 133.3826
149.3838, 125.5422
151.3123, 119.9596
153.2407, 116.6349
155.1692, 115.1716
157.0977, 115.5269
159.0261, 117.7359
160.9546, 122.2044
162.8831, 129.3701
164.8115, 136.4991
166.7400, 144.2999
168.6685, 150.8898
170.5969, 157.0260
172.5254, 160.3992
174.4539, 158.5509
176.3823, 151.5520
178.3108, 143.6582
180.2393, 134.7988
182.1677, 125.4419
184.0962, 114.7199
186.0247, 104.6635
187.9531, 96.18497
189.8816, 89.33199
191.8101, 84.56583
193.7385, 82.14818
195.6670, 80.10886
197.5955, 78.24123
199.5239, 76.65357
201.4524, 75.20006
203.3809, 74.10254
205.3093, 73.94026
207.2378, 74.76378
209.1663, 74.99207
211.0947, 74.07446
213.0232, 73.77863
214.9517, 75.35794
216.8801, 77.25245
218.8086, 78.17229
220.7371, 78.26900
222.6655, 78.54448
224.5940, 79.08302
226.5225, 79.29691
228.4509, 78.62633
230.3794, 78.04205
232.3079, 78.07018
234.2363, 78.39130
236.1648, 78.54021
238.0933, 78.51552
240.0217, 78.01836
241.9502, 77.00215
243.8787, 75.47191
245.8071, 72.71030
247.7356, 70.11996
249.6641, 69.12105
251.5925, 69.21184
253.5210, 69.09380
255.4495, 68.76129
257.3779, 68.02028
259.3064, 66.28933
261.2349, 64.84338
263.1633, 64.36464
265.0918, 64.26678
267.0203, 63.59023
268.9487, 62.54523
270.8772, 62.55676
272.8057, 64.67516
274.7341, 66.03600
276.6626, 65.39931
278.5911, 64.92854
280.5195, 65.87086
282.4480, 67.76470
284.3765, 70.20943
286.3049, 73.33937
288.2334, 75.41531
290.1619, 75.66869
292.0903, 75.86952
294.0188, 76.77205
295.9473, 77.21468
297.8757, 76.17960
299.8042, 74.18671
301.7327, 72.28773
303.6611, 70.46706
305.5896, 68.81999
307.5181, 67.26126
309.4465, 65.98366
311.3750, 65.29790
313.3035, 64.64787
315.2319, 63.34617
317.1604, 61.77877
319.0889, 61.21774
321.0173, 61.84904
322.9458, 63.10427
324.8743, 65.30946
326.8027, 67.45733
328.7312, 68.55693
330.6597, 70.15434
332.5882, 73.88480
334.5166, 78.97939
336.4451, 82.67909
338.3736, 84.57985
340.3020, 87.57515
342.2305, 92.16820
344.1590, 96.92543
346.0874, 101.5215
348.0159, 105.8550
349.9444, 109.9059
351.8728, 113.6251
353.8013, 117.0822
355.7298, 120.3054
357.6582, 122.1440
359.5867, 122.2455
361.5152, 121.7761
363.4436, 121.6325
365.3721, 120.4391
367.3006, 116.9239
369.2290, 112.0605
371.1575, 107.4245
373.0860, 103.0251
375.0144, 99.24590
376.9429, 96.44234
378.8714, 92.86945
380.7998, 86.98067
382.7283, 81.54787
384.6568, 77.95953
386.5852, 75.15302
388.5137, 71.84917
390.4422, 68.21272
392.3706, 64.62978
394.2991, 60.98741
396.2276, 58.45512
398.1560, 58.25395
400.0845, 57.79269
402.0130, 56.17455
403.9414, 54.37965
405.8699, 53.23153
407.7984, 52.42104
409.7268, 51.29271
411.6553, 49.86815
413.5838, 48.87981
415.5122, 48.79120
417.4407, 48.34090
419.3692, 46.69733
421.2976, 45.52496
423.2261, 45.92524
425.1546, 46.88899
427.0830, 47.47142
429.0115, 47.73038
430.9400, 47.80599
432.8684, 47.65600
434.7969, 47.51556
436.7254, 47.40408
438.6538, 47.29148
440.5823, 47.22508
442.5108, 47.09815
444.4392, 46.70005
446.3677, 46.30544
448.2962, 46.20528
450.2246, 46.40173
452.1531, 46.95046
454.0816, 48.12144
456.0100, 48.95615
457.9385, 49.23590
459.8670, 49.61122
461.7954, 50.39101
463.7239, 51.16655
465.6524, 51.84420
467.5808, 52.26160
469.5093, 52.18184
471.4378, 51.61477
473.3662, 50.73047
475.2947, 49.60744
477.2232, 47.67079
479.1516, 44.30791
481.0801, 41.62668
483.0086, 40.86966
484.9370, 40.30445
486.8655, 38.86868
488.7940, 37.14399
490.7224, 35.70358
492.6509, 34.60493
494.5794, 34.48756
496.5078, 35.41071
498.4363, 35.18177
500.3648, 33.05179
502.2932, 31.73688
504.2217, 32.85868
506.1502, 33.84879
508.0786, 33.52495
510.0071, 32.66402
511.9356, 31.85306
513.8640, 31.13216
515.7925, 30.59959
517.7209, 30.24921
519.6494, 30.18892
521.5779, 30.51025
523.5063, 30.59956
525.4348, 30.01860
527.3633, 29.72032
529.2917, 30.34987
531.2202, 30.89088
533.1487, 30.56697
535.0771, 29.86216
537.0056, 29.34033
538.9341, 29.01195
540.8625, 28.96375
542.7910, 29.19897
544.7195, 29.43905
546.6479, 29.69724
548.5764, 29.84811
550.5049, 29.98352
552.4333, 29.86795
554.3618, 28.81861
556.2903, 28.13782
558.2188, 29.38042
560.1472, 31.17521
562.0757, 31.63982
564.0042, 31.11692
565.9326, 30.83109
567.8611, 30.83357
569.7896, 30.97102
571.7180, 31.43954
573.6465, 31.69614
575.5750, 31.39865
577.5034, 31.34521
579.4319, 32.17345
581.3604, 32.89138
583.2889, 32.77915
585.2173, 32.25063
587.1458, 31.56304
589.0743, 30.85598
591.0027, 30.62135
592.9312, 30.88263
594.8597, 31.42291
596.7881, 32.48065
598.7166, 33.14262
600.6451, 33.31761
602.5735, 33.18114
604.5020, 32.42973
606.4305, 31.94230
608.3589, 32.68642
610.2874, 33.40416
612.2159, 32.76217
614.1443, 31.65143
616.0728, 31.72408
618.0013, 32.78321
619.9297, 33.59641
621.8582, 34.14803
623.7867, 34.57194
625.7151, 34.86288
627.6436, 35.03413
629.5721, 34.95358
631.5005, 35.13020
633.4290, 36.22250
635.3575, 36.92901
637.2859, 36.18668
639.2144, 35.31431
641.1429, 35.42947
643.0714, 36.15411
644.9998, 36.98454
646.9283, 37.87384
648.8568, 38.54811
650.7852, 39.05072
652.7137, 39.99788
654.6422, 41.51550
656.5706, 42.57507
658.4991, 42.86829
660.4276, 43.05409
662.3560, 43.32207
664.2845, 43.47581
666.2130, 43.43575
668.1414, 43.28987
670.0699, 43.11892
671.9984, 42.85554
673.9268, 42.21356
675.8553, 41.53753
677.7838, 41.72357
679.7122, 42.39217
681.6407, 41.98762
683.5692, 40.48220
685.4976, 39.95000
687.4261, 41.01126
689.3546, 41.30581
691.2830, 39.59543
693.2115, 38.71380
695.1400, 39.64895
697.0684, 40.43258
698.9969, 40.29058
700.9254, 39.99083
702.8538, 40.08216
704.7823, 40.12145
706.7108, 39.45520
708.6392, 38.66802
710.5677, 38.63815
712.4962, 39.11999
714.4246, 39.15051
716.3531, 38.75188
718.2816, 39.54097
720.2100, 42.17471
722.1385, 43.10241
724.0670, 41.26895
725.9954, 40.52500
727.9239, 41.51735
729.8524, 42.55134
731.7808, 43.27330
733.7093, 43.96095
735.6378, 44.70890
737.5662, 45.47414
739.4947, 46.35968
741.4232, 47.11045
743.3516, 47.26451
745.2801, 47.40565
747.2086, 48.38336
749.1370, 49.85615
751.0655, 50.96242
752.9940, 51.85024
754.9224, 53.46572
756.8509, 55.80862
758.7794, 57.54775
760.7078, 58.67284
762.6363, 59.32567
764.5648, 59.39886
766.4932, 59.85059
768.4217, 60.92585
770.3502, 62.11968
772.2786, 63.49200
774.2071, 64.55705
776.1356, 65.06975
778.0640, 65.33879
779.9925, 65.66094
781.9210, 65.55492
783.8494, 64.33218
785.7779, 62.92394
787.7064, 62.55104
789.6348, 62.29559
791.5633, 60.53450
793.4918, 58.07402
795.4202, 57.01039
797.3487, 56.59458
799.2772, 54.13159
801.2056, 50.17678
803.1341, 48.08390
805.0626, 47.96569
806.9910, 48.24410
808.9195, 48.96318
810.8480, 48.78137
812.7764, 47.21182
814.7049, 45.76420
816.6334, 44.29850
818.5618, 43.53004
820.4903, 44.12883
822.4188, 44.47217
824.3472, 43.65125
826.2757, 43.28831
828.2042, 44.87828
830.1326, 45.91503
832.0611, 44.15543
833.9896, 42.39444
835.9180, 43.22558
837.8465, 44.39930
839.7750, 43.57941
841.7034, 42.17388
843.6319, 41.90215
845.5604, 42.06530
847.4888, 41.16621
849.4173, 39.82860
851.3458, 40.01345
853.2742, 41.34032
855.2027, 41.83350
857.1312, 41.52689
859.0596, 41.12741
860.9881, 40.64532
862.9166, 39.82102
864.8450, 38.48107
866.7735, 37.85366
868.7020, 38.17877
870.6304, 37.86825
872.5589, 36.62991
874.4874, 35.72843
876.4158, 35.45091
878.3443, 34.96859
880.2728, 33.91150
882.2012, 33.35255
884.1297, 33.76123
886.0582, 34.26067
887.9866, 34.87788
889.9151, 34.87401
891.8436, 33.44869
893.7720, 32.13625
895.7005, 31.56437
897.6290, 31.27076
899.5574, 31.19079
901.4859, 31.10160
903.4144, 30.93354
905.3428, 30.60813
907.2713, 29.86865
909.1998, 29.14613
911.1282, 28.98595
913.0567, 28.95811
914.9852, 28.36863
916.9136, 27.75248
918.8421, 28.10685
920.7706, 28.78397
922.6990, 28.67116
924.6275, 28.08724
926.5560, 27.52800
928.4844, 27.05493
930.4129, 26.78915
932.3414, 26.73023
934.2698, 27.09299
936.1983, 27.62138
938.1268, 27.20245
940.0552, 26.10717
941.9837, 25.95537
943.9122, 26.61455
945.8406, 26.44891
947.7691, 25.47080
949.6976, 25.35384
951.6260, 26.20962
953.5545, 26.32989
955.4830, 25.54033
957.4114, 25.00924
959.3399, 24.75948
961.2684, 24.81396
963.1968, 25.42775
965.1253, 25.43987
967.0538, 24.32233
968.9822, 24.13525
970.9107, 25.54292
972.8392, 26.06832
974.7676, 25.26318
976.6961, 24.86000
978.6246, 25.30692
980.5530, 24.86386
982.4815, 22.72509
984.4100, 22.14412
986.3384, 24.30559
988.2669, 25.00507
990.1954, 23.01976
992.1238, 21.79283
994.0523, 22.11104
995.9808, 22.60072
997.9092, 23.04140
999.8377, 23.41849
1001.766, 23.75385
1003.695, 23.90596
1005.623, 23.75370
1007.552, 23.79750
1009.480, 24.42593
1011.409, 24.23158
1013.337, 22.23304
1015.265, 21.44422
1017.194, 23.29663
1019.122, 24.53234
1021.051, 24.15084
1022.979, 23.41133
1024.908, 22.29203
1026.836, 21.74761
1028.765, 22.41534
1030.693, 22.76521
1032.622, 22.35516
1034.550, 21.72365
1036.479, 20.57879
1038.407, 20.06913
1040.335, 20.64427
1042.264, 21.50755
1044.192, 23.26007
1046.121, 23.91970
1048.049, 22.06204
1049.978, 20.95125
1051.906, 21.70596
1053.835, 22.24110
1055.763, 22.18677
1057.692, 21.92818
1059.620, 21.19046
1061.549, 20.87035
1063.477, 21.41529
1065.406, 21.81680
1067.334, 21.83422
1069.262, 21.86391
1071.191, 22.02277
1073.120, 22.09460
1075.048, 22.04513
1076.976, 21.90735
1078.905, 21.57287
1080.833, 21.38966
1082.762, 21.48238
1084.690, 21.50703
1086.619, 21.38892
1088.547, 21.33781
1090.476, 21.44260
1092.404, 21.36521
1094.333, 20.97445
1096.261, 20.74532
1098.190, 20.71246
1100.118, 20.85441
1102.047, 21.25041
1103.975, 21.46944
1105.903, 21.44583
1107.832, 21.50251
1109.760, 21.65774
1111.689, 21.76880
1113.617, 21.89803
1115.546, 21.38221
1117.474, 20.12374
1119.403, 20.16064
1121.331, 21.46772
1123.260, 21.28596
1125.188, 19.83105
1127.117, 19.96497
1129.045, 21.36720
1130.974, 22.03303
1132.902, 21.99125
1134.830, 21.16111
1136.759, 19.91886
1138.687, 19.34212
1140.616, 19.33595
1142.544, 20.08046
1144.473, 21.06889
1146.401, 21.26739
1148.330, 20.85525
1150.258, 19.64911
1152.187, 18.51858
1154.115, 18.79184
1156.044, 19.70397
1157.972, 20.77906
1159.901, 21.55842
1161.829, 21.31746
1163.757, 20.98577
1165.686, 21.48104
1167.614, 21.88339
1169.543, 21.52510
1171.471, 20.86770
1173.400, 20.06713
1175.328, 19.39633
1177.257, 18.69601
1179.185, 18.43107
1181.114, 19.15815
1183.042, 19.81700
1184.971, 20.00099
1186.899, 20.21084
1188.828, 20.80086
1190.756, 20.94511
1192.684, 19.80337
1194.613, 19.85131
1196.541, 22.12041
1198.470, 22.82083
1200.398, 21.41873
1202.327, 20.68779
1204.255, 20.68570
1206.184, 21.34283
1208.112, 22.54450
1210.041, 22.94648
1211.969, 22.74569
1213.898, 22.15010
1215.826, 21.23525
1217.755, 20.76753
1219.683, 20.66891
1221.611, 20.61333
1223.540, 20.63280
1225.468, 20.73911
1227.397, 20.91590
1229.325, 21.39466
1231.254, 21.81454
1233.182, 21.85820
1235.111, 21.45567
1237.039, 20.08752
1238.968, 19.42610
1240.896, 20.66666
1242.825, 21.45678
1244.753, 20.73109
1246.682, 20.28295
1248.610, 20.56356
1250.538, 21.32525
1252.467, 22.68993
1254.395, 22.58724
1256.324, 20.77423
1258.252, 20.77958
1260.181, 22.55915
1262.109, 22.51020
1264.038, 21.05689
1265.966, 20.84105
1267.895, 21.35768
1269.823, 21.32072
1271.752, 21.08558
1273.680, 20.98608
1275.609, 20.95153
1277.537, 21.28546
1279.465, 21.60388
1281.394, 21.34566
1283.322, 21.02411
1285.251, 20.92955
1287.179, 20.84772
1289.108, 20.68864
1291.036, 20.69536
1292.965, 20.86539
1294.893, 21.09027
1296.822, 21.51260
1298.750, 21.79526
1300.679, 21.96868
1302.607, 22.34939
1304.536, 22.73680
1306.464, 22.85277
1308.392, 22.87211
1310.321, 22.65239
1312.249, 22.30667
1314.178, 21.94623
1316.106, 21.55569
1318.035, 21.85907
1319.963, 22.33874
1321.892, 21.75373
1323.820, 21.38179
1325.749, 22.25705
1327.677, 23.07479
1329.606, 23.43076
1331.534, 23.66480
1333.463, 23.76151
1335.391, 23.41629
1337.319, 22.57287
1339.248, 22.22809
1341.176, 22.45328
1343.105, 22.66249
1345.033, 22.87005
1346.962, 22.34908
1348.890, 21.58569
1350.819, 22.11722
1352.747, 23.12977
1354.676, 24.19640
1356.604, 25.12594
1358.533, 25.16785
1360.461, 24.39728
1362.390, 22.48490
1364.318, 21.77309
1366.246, 23.38458
1368.175, 24.05098
1370.103, 22.91643
1372.032, 22.58702
1373.960, 23.40521
1375.889, 23.41260
1377.817, 22.68373
1379.746, 22.99349
1381.674, 23.86801
1383.603, 24.18274
1385.531, 24.20754
1387.460, 23.45588
1389.388, 22.69838
1391.317, 23.43682
1393.245, 24.17679
1395.173, 23.36176
1397.102, 22.79404
1399.030, 23.69020
1400.959, 23.91556
1402.887, 23.22151
1404.816, 22.82724
1406.744, 22.55008
1408.673, 22.26794
1410.601, 22.30193
1412.530, 23.51912
1414.458, 24.61065
1416.387, 23.52625
1418.315, 22.43857
1420.244, 22.69381
1422.172, 23.27464
1424.100, 24.20541
1426.029, 24.66912
1427.957, 24.15939
1429.886, 23.50180
1431.814, 22.64439
1433.743, 23.02399
1435.671, 24.61828
1437.600, 24.66620
1439.528, 23.58771
1441.457, 23.43391
1443.385, 23.67865
1445.314, 23.25968
1447.242, 22.95409
1449.171, 23.09846
1451.099, 23.18934
1453.027, 23.11953
1454.956, 23.11505
1456.884, 23.34319
1458.813, 24.10215
1460.741, 25.08275
1462.670, 25.17279
1464.598, 24.79083
1466.527, 24.91395
1468.455, 24.95770
1470.384, 23.44139
1472.312, 22.14647
1474.241, 23.30571
1476.169, 24.52743
1478.098, 24.42479
1480.026, 23.70154
1481.954, 22.90221
1483.883, 23.45629
1485.811, 24.80038
1487.740, 24.76352
1489.668, 24.06548
1491.597, 23.62976
1493.525, 23.51366
1495.454, 24.41945
1497.382, 24.76984
1499.311, 23.16227
1501.239, 22.38703
1503.168, 23.00003
1505.096, 23.61041
1507.025, 24.46891
1508.953, 23.95093
1510.881, 22.57875
1512.810, 23.75026
1514.738, 25.26502
1516.667, 24.18600
1518.595, 23.04998
1520.524, 23.14670
1522.452, 23.25702
1524.381, 23.13508
1526.309, 22.98457
1528.238, 22.84137
1530.166, 23.01470
1532.095, 23.35965
1534.023, 22.68386
1535.952, 21.93194
1537.880, 23.31895
1539.808, 24.56822
1541.737, 24.01386
1543.665, 22.99327
1545.594, 21.51157
1547.522, 21.56513
1549.451, 23.78637
1551.379, 23.82533
1553.308, 22.41790
1555.236, 23.33102
1557.165, 24.90936
1559.093, 25.13202
1561.022, 25.09529
1562.950, 25.04217
1564.879, 24.48186
1566.807, 23.62372
1568.735, 23.06199
1570.664, 22.56218
1572.592, 22.86903
1574.521, 23.98260
1576.449, 24.50933
1578.378, 24.33886
1580.306, 23.61218
1582.235, 23.05655
1584.163, 22.91053
1586.092, 23.74667
1588.020, 25.61012
1589.949, 25.07478
1591.877, 22.99295
1593.806, 23.87781
1595.734, 25.84909
1597.662, 25.69983
1599.591, 24.76729
1601.519, 24.94102
1603.448, 24.96320
1605.376, 23.78583
1607.305, 23.09798
1609.233, 23.12106
1611.162, 23.84715
1613.090, 24.64349
1615.019, 24.59997
1616.947, 24.05183
1618.876, 23.37313
1620.804, 23.20703
1622.733, 23.30207
1624.661, 23.23530
1626.589, 23.27056
1628.518, 24.25164
1630.446, 25.59752
1632.375, 25.07911
1634.303, 23.81704
1636.232, 23.21390
1638.160, 22.97067
1640.089, 22.92555
1642.017, 23.48149
1643.946, 24.55822
1645.874, 24.61506
1647.803, 23.91186
1649.731, 23.39161
1651.660, 23.13256
1653.588, 23.51639
1655.516, 24.11517
1657.445, 24.29502
1659.373, 24.16875
1661.302, 24.09759
1663.230, 23.98359
1665.159, 23.70171
1667.087, 24.53298
1669.016, 25.27959
1670.944, 24.31158
1672.873, 23.72109
1674.801, 23.39528
1676.730, 23.54969
1678.658, 24.24481
1680.587, 23.72492
1682.515, 22.97544
1684.443, 23.01069
1686.372, 22.99371
1688.300, 23.12259
1690.229, 23.89905
1692.157, 24.72855
1694.086, 24.30533
1696.014, 23.58273
1697.943, 24.49496
1699.871, 25.21420
1701.800, 23.49758
1703.728, 22.57898
1705.657, 23.79329
1707.585, 24.64094
1709.514, 25.19726
1711.442, 25.30496
1713.370, 25.04339
1715.299, 24.58742
1717.227, 24.59872
1719.156, 25.85550
1721.084, 25.99328
1723.013, 24.96570
1724.941, 24.16927
1726.870, 23.46676
1728.798, 23.57458
1730.727, 24.05613
1732.655, 24.61500
1734.584, 24.75457
1736.512, 24.35978
1738.441, 24.22939
1740.369, 24.53049
1742.297, 24.78492
1744.226, 24.35186
1746.154, 24.25867
1748.083, 25.06801
1750.011, 25.99290
1751.940, 25.17477
1753.868, 23.56596
1755.797, 24.32380
1757.725, 25.40613
1759.654, 25.71883
1761.582, 25.42472
1763.511, 23.72671
1765.439, 23.36734
1767.368, 24.53881
1769.296, 24.94456
1771.224, 24.73779
1773.153, 24.12026
1775.081, 23.71018
1777.010, 24.18984
1778.938, 24.17321
1780.867, 23.57743
1782.795, 23.58787
1784.724, 23.77485
1786.652, 24.18933
1788.581, 24.50712
1790.509, 23.54059
1792.438, 23.48861
1794.366, 24.68320
1796.295, 25.62142
1798.223, 26.01976
1800.151, 25.85929
1802.080, 25.57816
1804.008, 25.00345
1805.937, 24.42860
1807.865, 24.04610
1809.794, 23.54265
1811.722, 23.76340
1813.651, 25.26599
1815.579, 26.31139
1817.508, 26.41566
1819.436, 25.95860
1821.365, 24.93993
1823.293, 24.79562
1825.222, 26.09940
1827.150, 27.22337
1829.078, 26.95857
1831.007, 26.21598
1832.935, 25.48095
1834.864, 25.20777
1836.792, 25.53366
1838.721, 25.80550
1840.649, 26.01900
1842.578, 26.11660
1844.506, 26.11066
1846.435, 25.89927
1848.363, 25.15668
1850.292, 24.58415
1852.220, 25.28695
1854.149, 26.70750
1856.077, 26.71232
1858.005, 25.15233
1859.934, 24.38342
1861.862, 24.75382
1863.791, 25.92524
1865.719, 26.52159
1867.648, 25.81875
1869.576, 25.31458
1871.505, 25.30435
1873.433, 26.18963
1875.362, 27.07381
1877.290, 25.68150
1879.219, 24.86628
1881.147, 25.66120
1883.076, 26.10688
1885.004, 26.28113
1886.932, 26.19168
1888.861, 25.83811
1890.789, 25.38230
1892.718, 25.74681
1894.646, 26.53179
1896.575, 26.56490
1898.503, 26.61837
1900.432, 26.45965
1902.360, 25.82526
1904.289, 25.55125
1906.217, 26.37488
1908.146, 27.14570
1910.074, 26.73645
1912.003, 26.26588
1913.931, 26.62040
1915.859, 27.10895
1917.788, 26.34858
1919.716, 25.86445
1921.645, 26.42794
1923.573, 26.01567
1925.502, 25.53552
1927.430, 26.62891
1929.359, 28.20262
1931.287, 28.72496
1933.216, 28.38310
1935.144, 28.26560
1937.073, 27.66640
1939.001, 26.50822
1940.930, 26.09512
1942.858, 27.80258
1944.786, 28.95580
1946.715, 28.29787
1948.643, 28.51853
1950.572, 28.75794
1952.500, 28.29313
1954.429, 27.41005
1956.357, 26.16655
1958.286, 25.98507
1960.214, 27.29037
1962.143, 28.65718
1964.071, 29.12545
1966.000, 29.35332
1967.928, 29.40093
1969.857, 28.99722
1971.785, 28.70346
1973.714, 29.10646
1975.642, 28.96046
1977.570, 27.84178
1979.499, 27.41442
1981.427, 28.25420
1983.356, 29.27368
1985.284, 28.87882
1987.213, 28.55250
1989.141, 29.12273
1991.070, 29.03974
1992.998, 29.64507
1994.927, 30.33909
1996.855, 29.94231
1998.784, 29.72279
2000.712, 30.16121
2002.641, 30.49227
2004.569, 30.53892
2006.497, 31.01250
2008.426, 30.41891
2010.354, 29.51005
2012.283, 29.24148
2014.211, 29.11628
2016.140, 29.65219
2018.068, 31.31798
2019.997, 31.97376
2021.925, 31.27879
2023.854, 30.49539
2025.782, 30.21983
2027.711, 30.92796
2029.639, 30.37716
2031.568, 29.37501
2033.496, 29.89491
2035.424, 30.36027
2037.353, 30.97925
2039.281, 31.25258
2041.210, 30.85636
2043.138, 30.57933
2045.067, 30.68714
2046.995, 31.29634
2048.924, 31.49937
2050.852, 31.06384
2052.781, 31.29436
2054.709, 32.04346
2056.637, 32.19886
2058.566, 31.38128
2060.495, 31.43384
2062.423, 32.15882
2064.352, 32.14191
2066.280, 31.71437
2068.208, 32.01658
2070.137, 33.85851
2072.065, 33.45449
2073.994, 32.26038
2075.922, 33.59233
2077.851, 33.80490
2079.779, 32.07206
2081.708, 31.89852
2083.636, 32.56533
2085.565, 33.88696
2087.493, 34.17348
2089.422, 32.66980
2091.350, 32.45760
2093.279, 32.65742
2095.207, 33.19247
2097.135, 33.60446
2099.064, 33.41814
2100.992, 33.76006
2102.921, 33.70213
2104.849, 33.48878
2106.778, 34.13923
2108.706, 35.45421
2110.635, 34.50734
2112.563, 33.39271
2114.492, 34.34364
2116.420, 34.37089
2118.349, 33.99501
2120.277, 33.96439
2122.206, 35.09701
2124.134, 35.99464
2126.063, 36.09338
2127.991, 36.06960
2129.919, 35.80141
2131.848, 36.17445
2133.776, 36.37119
2135.705, 36.03239
2137.633, 36.01116
2139.562, 36.12621
2141.490, 36.42430
2143.419, 37.62466
2145.347, 38.41373
2147.276, 38.32048
2149.204, 37.87329
2151.133, 36.62119
2153.061, 36.74279
2154.990, 37.36917
2156.918, 36.31836
2158.846, 35.67366
2160.775, 36.35202
2162.703, 36.83705
2164.632, 36.17248
2166.560, 36.71357
2168.489, 38.37152
2170.417, 37.77988
2172.346, 37.10493
2174.274, 37.74093
2176.203, 38.78134
2178.131, 38.64140
2180.060, 37.86455
2181.988, 38.52499
2183.917, 38.76223
2185.845, 38.42389
2187.773, 39.53393
2189.702, 39.02542
2191.630, 38.50991
2193.559, 39.43155
2195.487, 40.60741
2197.416, 40.63464
2199.344, 38.94385
2201.273, 39.10636
2203.201, 41.47363
2205.130, 42.64664
2207.058, 41.83202
2208.987, 40.30990
2210.915, 39.84298
2212.844, 40.88987
2214.772, 41.10279
2216.700, 40.24662
2218.629, 40.49358
2220.557, 41.34796
2222.486, 41.94271
2224.414, 41.21535
2226.343, 41.04463
2228.271, 41.98109
2230.200, 41.84879
2232.128, 41.57958
2234.057, 42.57904
2235.985, 43.16399
2237.914, 42.77483
2239.842, 43.21257
2241.771, 44.23282
2243.699, 44.27953
2245.627, 43.52222
2247.556, 44.31790
2249.484, 45.17430
2251.413, 43.87332
2253.341, 43.63428
2255.270, 44.51440
2257.198, 46.16857
2259.127, 47.11034
2261.055, 45.67751
2262.984, 44.57047
2264.912, 44.77389
2266.841, 44.90392
2268.769, 44.70274
2270.698, 44.86407
2272.626, 45.84901
2274.554, 46.48708
2276.483, 47.23270
2278.411, 47.18099
2280.340, 45.75671
2282.268, 47.03540
2284.197, 48.70752
2286.125, 48.50494
2288.054, 48.71553
2289.982, 48.60268
2291.911, 48.26736
2293.839, 48.49869
2295.768, 48.76431
2297.696, 48.34709
2299.625, 47.51566
2301.553, 47.71203
2303.481, 48.46980
2305.410, 48.40902
2307.338, 48.85500
2309.267, 49.14620
2311.195, 49.20918
2313.124, 50.39152
2315.052, 50.66860
2316.981, 50.48867
2318.909, 51.42679
2320.838, 51.43684
2322.766, 51.47989
2324.695, 51.95969
2326.623, 51.03060
2328.552, 50.79289
2330.480, 51.36166
2332.408, 52.35468
2334.337, 52.39399
2336.265, 51.79118
2338.194, 52.44025
2340.122, 52.09365
2342.051, 51.89046
2343.979, 52.38238
2345.908, 52.51889
2347.836, 52.59060
2349.765, 52.66647
2351.693, 53.25869
2353.622, 53.93805
2355.550, 54.08445
2357.479, 54.33680
2359.407, 54.71627
2361.335, 54.56603
2363.264, 54.72631
2365.192, 54.75694
2367.121, 55.71345
2369.049, 56.45794
2370.978, 56.61970
2372.906, 57.45352
2374.835, 56.81130
2376.763, 56.18624
2378.692, 56.43635
2380.620, 56.95345
2382.549, 57.87099
2384.477, 58.38378
2386.406, 58.20771
2388.334, 58.30680
2390.262, 58.92852
2392.191, 59.33730
2394.119, 59.51030
2396.048, 58.63467
2397.976, 59.47300
2399.905, 61.00530
2401.833, 60.03127
2403.762, 60.16471
2405.690, 61.10442
2407.619, 61.84165
2409.547, 61.33016
2411.476, 60.76192
2413.404, 61.75858
2415.333, 63.02891
2417.261, 63.45034
2419.189, 62.59287
2421.118, 61.94949
2423.046, 62.01717
2424.975, 63.01004
2426.903, 64.07619
2428.832, 64.39766
2430.760, 64.50192
2432.689, 64.10820
2434.617, 63.42660
2436.546, 63.93432
2438.474, 65.55071
2440.403, 65.91097
2442.331, 66.06525
2444.260, 65.96623
2446.188, 65.91186
2448.116, 66.45953
2450.045, 67.96377
2451.973, 68.90459
2453.902, 68.32419
2455.830, 66.89793
2457.759, 67.95991
2459.687, 70.15590
2461.616, 71.47121
2463.544, 72.01325
2465.473, 71.87238
2467.401, 69.84938
2469.330, 69.52661
2471.258, 70.41825
2473.187, 70.16769
2475.115, 69.14347
2477.043, 69.80540
2478.972, 71.66826
2480.900, 72.50677
2482.829, 71.90025
2484.757, 72.04026
2486.686, 73.02057
2488.614, 74.05652
2490.543, 73.49475
2492.471, 73.27904
2494.400, 74.22464
2496.328, 75.28450
2498.257, 75.73949
2500.185, 73.54054
2502.114, 74.20760
2504.042, 75.63035
2505.970, 75.18639
2507.899, 75.51028
2509.827, 77.14211
2511.756, 78.03871
2513.684, 77.10825
2515.613, 76.00695
2517.541, 76.55261
2519.470, 77.69251
2521.398, 79.06789
2523.327, 77.98512
2525.255, 77.75986
2527.184, 78.28281
2529.112, 79.66353
2531.041, 82.16393
2532.969, 83.04652
2534.897, 80.44543
2536.826, 79.58363
2538.754, 82.34637
2540.683, 83.13622
2542.611, 83.27411
2544.540, 84.17285
2546.468, 84.95424
2548.397, 84.07835
2550.325, 83.09892
2552.254, 84.49288
2554.182, 85.17658
2556.111, 84.78429
2558.039, 86.56885
2559.968, 88.69355
2561.896, 88.14765
2563.824, 88.08358
2565.753, 88.44492
2567.681, 89.24487
2569.610, 89.88197
2571.538, 89.27342
2573.467, 89.44064
2575.395, 89.12776
2577.324, 89.00328
2579.252, 92.31529
2581.181, 92.35234
2583.109, 91.31772
2585.038, 92.26842
2586.966, 93.18001
2588.895, 93.08113
2590.823, 93.16417
2592.751, 94.58646
2594.680, 95.08247
2596.608, 94.52367
2598.537, 93.27665
2600.465, 92.79883
2602.394, 94.91540
2604.322, 95.36832
2606.251, 94.81146
2608.179, 95.53151
2610.108, 96.85107
2612.036, 98.29101
2613.965, 99.74168
2615.893, 100.5146
2617.822, 99.63319
2619.750, 98.19904
2621.678, 98.32293
2623.607, 99.22164
2625.535, 99.86446
2627.464, 100.4592
2629.392, 101.0604
2631.321, 100.9565
2633.249, 100.0538
2635.178, 99.45543
2637.106, 102.0348
2639.035, 101.6006
2640.963, 100.1507
2642.892, 101.8840
2644.820, 102.9894
2646.749, 103.9592
2648.677, 105.5533
2650.605, 106.4263
2652.534, 105.8319
2654.462, 105.2532
2656.391, 106.9735
2658.319, 108.1533
2660.248, 108.1612
2662.176, 107.1003
2664.105, 105.9637
2666.033, 106.4725
2667.962, 107.3300
2669.890, 108.2176
2671.819, 108.1063
2673.747, 109.4591
2675.676, 110.5844
2677.604, 110.5839
2679.532, 111.1417
2681.461, 111.1796
2683.389, 111.3178
2685.318, 109.5318
2687.246, 109.1488
2689.175, 111.3984
2691.103, 113.0662
2693.032, 113.7819
2694.960, 113.0005
2696.889, 112.5355
2698.817, 113.0830
2700.746, 113.6563
2702.674, 113.6474
2704.603, 113.9870
2706.531, 114.3779
2708.459, 115.7540
2710.388, 115.9522
2712.316, 115.3474
2714.245, 114.6687
2716.173, 115.2751
2718.102, 116.4596
2720.030, 117.6208
2721.959, 118.8971
2723.887, 119.0757
2725.816, 117.1790
2727.744, 117.6181
2729.673, 119.0998
2731.601, 120.6941
2733.530, 120.3017
2735.458, 119.3597
2737.386, 118.6205
2739.315, 119.6976
2741.243, 119.4859
2743.172, 118.1212
2745.100, 120.4589
2747.029, 121.3341
2748.957, 120.7843
2750.886, 120.8994
2752.814, 121.1032
2754.743, 120.9918
2756.671, 121.1406
2758.600, 121.6833
2760.528, 122.1497
2762.457, 122.6893
2764.385, 121.8694
2766.313, 122.6453
2768.242, 125.2760
2770.170, 122.5349
2772.099, 121.5629
2774.027, 122.5098
2775.956, 119.9256
2777.884, 120.7315
2779.813, 122.9354
2781.741, 123.6985
2783.670, 121.8355
2785.598, 120.1124
2787.527, 121.7261
2789.455, 124.0125
2791.384, 123.9622
2793.312, 120.7330
2795.240, 121.3888
2797.169, 122.1326
2799.097, 122.0541
2801.026, 122.9752
2802.954, 122.1659
2804.883, 121.0183
2806.811, 122.4153
2808.740, 123.4920
2810.668, 123.7035
2812.597, 122.3032
2814.525, 120.7261
2816.454, 119.5562
2818.382, 119.4461
2820.311, 120.4857
2822.239, 121.2060
2824.167, 121.5962
2826.096, 121.4704
2828.024, 122.1322
2829.953, 122.9071
2831.881, 122.9494
2833.810, 121.3751
2835.738, 119.8026
2837.667, 119.4243
2839.595, 118.9672
2841.524, 118.7098
2843.452, 118.5601
2845.381, 115.8093
2847.309, 116.8772
2849.238, 118.9814
2851.166, 115.8703
2853.094, 117.7737
2855.023, 119.3252
2856.951, 116.4621
2858.880, 114.5306
2860.808, 114.1963
2862.737, 115.5388
2864.665, 118.5466
2866.594, 117.5420
2868.522, 115.0693
2870.451, 116.9610
2872.379, 117.6127
2874.308, 117.5468
2876.236, 117.1494
2878.165, 116.5220
2880.093, 115.4693
2882.021, 114.4731
2883.950, 115.8315
2885.878, 115.8909
2887.807, 114.7667
2889.735, 112.8504
2891.664, 112.5636
2893.592, 112.4350
2895.521, 111.7456
2897.449, 110.6167
2899.378, 110.6505
2901.306, 111.1926
2903.235, 110.5233
2905.163, 110.0551
2907.092, 108.7850
2909.020, 106.0298
2910.948, 107.2121
2912.877, 107.8889
2914.805, 107.0605
2916.734, 106.5982
2918.662, 105.6436
2920.591, 105.3152
2922.519, 106.6872
2924.448, 106.1191
2926.376, 105.0344
2928.305, 104.4422
2930.233, 106.6448
2932.162, 105.7500
2934.090, 103.5030
2936.019, 103.3226
2937.947, 102.1992
2939.875, 102.2059
2941.804, 103.4601
2943.732, 101.4766
2945.661, 101.4779
2947.589, 102.3693
2949.518, 100.5703
2951.446, 99.62553
2953.375, 100.0446
2955.303, 101.3523
2957.232, 99.08907
2959.160, 99.09911
2961.089, 100.1059
2963.017, 98.45419
2964.946, 98.51614
2966.874, 97.34602
2968.802, 94.32410
2970.731, 95.20196
2972.659, 95.45267
2974.588, 94.98941
2976.516, 94.50336
2978.445, 94.51668
2980.373, 93.65810
2982.302, 91.78140
2984.230, 92.05338
2986.159, 90.74509
2988.087, 89.78304
2990.016, 91.33662
2991.944, 88.86809
2993.873, 88.60528
2995.801, 91.06717
2997.729, 90.03175
2999.658, 88.55618
3001.586, 86.78496
3003.515, 85.06828
3005.443, 86.01436
3007.372, 85.79643
3009.300, 84.08635
3011.229, 82.74949
3013.157, 83.08781
3015.086, 82.73125
3017.014, 81.10143
3018.943, 80.50698
3020.871, 81.05443
3022.800, 81.25977
3024.728, 79.49558
3026.656, 77.66572
3028.585, 76.68748
3030.513, 76.46538
3032.442, 77.67470
3034.370, 76.47855
3036.299, 75.35458
3038.227, 75.93004
3040.156, 74.66539
3042.084, 74.15172
3044.013, 74.15618
3045.941, 73.69807
3047.870, 73.44099
3049.798, 73.27103
3051.727, 72.75230
3053.655, 69.28275
3055.583, 68.43998
3057.512, 68.72791
3059.440, 68.17223
3061.369, 67.95895
3063.297, 68.33096
3065.226, 67.24777
3067.154, 63.82389
3069.083, 66.74699
3071.011, 67.00969
3072.940, 64.40475
3074.868, 64.31161
3076.797, 62.77075
3078.725, 62.12316
3080.654, 63.24474
3082.582, 66.00587
3084.510, 63.15224
3086.439, 58.88002
3088.367, 57.37031
3090.296, 58.70807
3092.224, 59.46401
3094.153, 59.21352
3096.081, 58.19511
3098.010, 57.14395
3099.938, 58.31438
3101.867, 59.73060
3103.795, 57.94961
3105.724, 56.07447
3107.652, 55.26197
3109.581, 55.81407
3111.509, 56.82059
3113.438, 54.64690
3115.366, 52.71047
3117.294, 53.37092
3119.223, 54.29814
3121.151, 51.58525
3123.080, 49.20853
3125.008, 50.49394
3126.937, 50.97528
3128.865, 50.23565
3130.794, 48.74314
3132.722, 47.36132
3134.651, 50.27066
3136.579, 49.07762
3138.508, 45.53337
3140.436, 45.60674
3142.365, 45.92923
3144.293, 43.58080
3146.221, 41.32236
3148.150, 45.58640
3150.078, 43.80401
3152.007, 43.38142
3153.935, 44.91265
3155.864, 40.55289
3157.792, 38.73777
3159.721, 38.37603
3161.649, 39.11090
3163.578, 41.69609
3165.506, 39.77849
3167.435, 37.25956
3169.363, 36.36262
3171.292, 37.99767
3173.220, 37.66282
3175.148, 36.40725
3177.077, 35.54035
3179.005, 35.89589
3180.934, 34.76283
3182.862, 34.09153
3184.791, 34.57322
3186.719, 33.58269
3188.648, 34.12225
3190.576, 33.85248
3192.505, 31.81566
3194.433, 30.48515
3196.362, 31.27943
3198.290, 31.41254
3200.219, 30.17366
3202.147, 29.71729
3204.075, 30.02091
3206.004, 29.60217
3207.932, 28.00958
3209.861, 28.39454
3211.789, 27.96933
3213.718, 28.02510
3215.646, 28.28198
3217.575, 25.75111
3219.503, 26.30902
3221.432, 26.40056
3223.360, 25.48341
3225.289, 27.59409
3227.217, 26.40722
3229.146, 25.47673
3231.074, 25.47878
3233.002, 24.11247
3234.931, 24.13602
3236.859, 24.52384
3238.788, 24.40208
3240.716, 22.87069
3242.645, 22.61521
3244.573, 24.40320
3246.502, 25.65559
3248.430, 21.95417
3250.359, 20.57703
3252.287, 21.81067
3254.216, 22.81532
3256.144, 21.13514
3258.073, 20.64849
3260.001, 21.27032
3261.929, 20.95480
3263.858, 18.52457
3265.786, 18.16933
3267.715, 17.79943
3269.643, 18.26839
3271.572, 19.09880
3273.500, 17.46638
3275.429, 18.96752
3277.357, 18.48307
3279.286, 15.77100
3281.214, 16.44506
3283.143, 15.81554
3285.071, 15.90064
3287.000, 16.36971
3288.928, 15.41490
3290.856, 14.18317
3292.785, 15.18233
3294.713, 15.85818
3296.642, 14.39508
3298.570, 17.04310
3300.499, 15.10800
3302.427, 13.53535
3304.356, 14.76748
3306.284, 15.62180
3308.213, 14.90383
3310.141, 15.00958
3312.070, 15.21405
3313.998, 13.46179
3315.927, 12.11128
3317.855, 12.78395
3319.783, 12.68799
3321.712, 8.821583
3323.640, 11.45617
3325.569, 11.10086
3327.497, 10.73600
3329.426, 11.98748
3331.354, 11.59178
3333.283, 12.13245
3335.211, 12.18807
3337.140, 12.02894
3339.068, 12.50761
3340.997, 10.82893
3342.925, 10.49011
3344.854, 11.08239
3346.782, 11.45640
3348.710, 11.80239
3350.639, 9.742694
3352.567, 8.847174
3354.496, 9.643708
3356.424, 10.18585
3358.353, 9.502636
3360.281, 8.512571
3362.210, 8.105898
3364.138, 8.410379
3366.067, 8.252246
3367.995, 9.420815
3369.924, 11.89035
3371.852, 13.52513
3373.781, 10.72319
3375.709, 10.02310
3377.637, 9.867174
3379.566, 9.930834
3381.494, 9.700581
3383.423, 7.936742
3385.351, 9.269133
3387.280, 10.24595
3389.208, 9.484231
3391.137, 7.394517
3393.065, 9.043643
3394.994, 7.187166
3396.922, 5.381879
3398.851, 6.513406
3400.779, 7.895823
3402.708, 7.605174
3404.636, 7.523445
3406.564, 7.652490
3408.493, 7.093112
3410.421, 5.915024
3412.350, 7.441463
3414.278, 7.459200
3416.207, 6.129485
3418.135, 7.438905
3420.064, 6.945760
3421.992, 5.288400
3423.921, 5.471117
3425.849, 7.822202
3427.778, 6.899622
3429.706, 8.577527
3431.635, 7.636361
3433.563, 6.463702
3435.491, 8.231276
3437.420, 7.739114
3439.348, 5.607594
3441.277, 6.681222
3443.205, 8.319426
3445.134, 4.765890
3447.062, 6.912080
3448.991, 7.701540
3450.919, 8.052797
3452.848, 7.969015
3454.776, 4.357049
3456.705, 7.344305
3458.633, 8.467852
3460.562, 7.102979
3462.490, 5.650140
3464.418, 7.972978
3466.347, 8.182861
3468.275, 8.234532
3470.204, 8.083571
3472.132, 7.377952
3474.061, 6.434595
3475.989, 8.872712
3477.918, 8.570940
3479.846, 6.339849
3481.775, 4.962319
3483.703, 6.273499
3485.632, 6.691075
3487.560, 4.469380
3489.489, 2.468679
3491.417, 2.887239
3493.345, 3.159276
3495.274, 5.241032
3497.202, 3.624703
3499.131, 1.501449
3501.059, 2.513795
3502.988, 4.000064
3504.916, 3.877914
3506.845, 4.384178
3508.773, 5.031594
3510.702, 5.011382
3512.630, 5.455035
3514.559, 3.344345
3516.487, 4.785775
3518.416, 4.696042
3520.344, 0.6224688
3522.272, 2.564781
3524.201, 4.226783
3526.129, 2.318478
3528.058, 2.229732
3529.986, 5.433763
3531.915, 5.267323
3533.843, 3.746206
3535.772, 3.000668
3537.700, 3.462698
3539.629, 3.941479
3541.557, 2.563731
3543.486, 2.534863
3545.414, 3.839981
3547.343, 3.562670
3549.271, 2.519988
3551.199, 3.240989
3553.128, 2.488517
3555.056, 2.491452
3556.985, 1.191807
3558.913, 1.133175
3560.842, 4.106814
3562.770, 3.271584
3564.699, 2.071579
3566.627, 3.536848
3568.556, 5.395956
3570.484, 5.152138
3572.413, 2.158859
3574.341, 0.4872261
3576.270, 2.551776
3578.198, 4.104910
3580.126, 4.083831
3582.055, 4.576312
3583.983, 1.802007
3585.912, 3.487731
3587.840, 2.537720
3589.769, 0.9567387
3591.697, 2.454358
3593.626, 4.115912
3595.554, 1.740906
3597.483, 2.614885
3599.411, 2.737294
3601.340, 1.422588
3603.268, 2.622701
3605.197, 2.868203
3607.125, 3.098099
3609.053, 0.9230493
3610.982, -0.8115482
3612.910, 0.4045026
3614.839, 1.295474
3616.767, 1.013774
3618.696, 3.819366
3620.624, 3.878987
3622.553, 1.681709
3624.481, 2.078600
3626.410, 1.413446
3628.338, 2.759448
3630.267, 4.439908
3632.195, 4.945252
3634.124, 3.859292
3636.052, 1.649220
3637.980, 1.948754
3639.909, -0.8902456
3641.837, -0.5849735
3643.766, 1.810072
3645.694, 2.598855
3647.623, 2.646772
3649.551, 1.076677
3651.480, -3.3925921E-02
3653.408, -0.2757122
3655.337, 0.3559535
3657.265, 1.674036
3659.194, 2.703902
3661.122, 1.231714
3663.051, 1.971321
3664.979, 1.789208
3666.907, 0.7242126
3668.836, 1.657832
3670.764, 2.099009
3672.693, 1.793803
3674.621, 3.716796
3676.550, 2.826351
3678.478, 0.4771411
3680.407, 2.080649
3682.335, 0.2519074
3684.264, 0.7074592
3686.192, 2.443224
3688.121, 1.903568
3690.049, 0.6635701
3691.978, 2.560377
3693.906, 0.4716589
3695.834, 1.430861
3697.763, 1.574783
3699.691, 2.719389
3701.620, 4.114625
3703.548, 2.934953
3705.477, 2.235701
3707.405, 2.582435
3709.334, 0.2448604
3711.262, 0.2752017
3713.191, 2.001533
3715.119, 1.575304
3717.048, 1.774956
3718.976, 3.162172
3720.905, 2.283535
3722.833, 0.1375247
3724.761, -1.610265
3726.690, -1.561564
3728.618, 1.150755
3730.547, 3.393660
3732.475, -0.1266278
3734.404, -1.614694
3736.332, -1.169669
3738.261, 3.5869841E-02
3740.189, 2.990686
3742.118, 1.854283
3744.046, 3.090792
3745.975, 1.970855
3747.903, 2.8793350E-02
3749.832, -0.6937784
3751.760, -3.8256131E-02
3753.688, 1.101518
3755.617, 1.648054
3757.545, -2.326965
3759.474, -1.769068
3761.402, 0.9489156
3763.331, 1.438333
3765.259, 0.1178483
3767.188, -1.723580
3769.116, 1.853443
3771.045, 1.571440
3772.973, -0.7417417
3774.902, -1.130758
3776.830, 0.7604254
3778.759, 1.224487
3780.687, 1.558343
3782.615, 1.717227
3784.544, 0.9298173
3786.472, 0.7337738
3788.401, 0.9638000
3790.329, 0.2249109
3792.258, -0.6315330
3794.186, 2.372937
3796.115, 3.599213
3798.043, 1.933680
3799.972, 0.7956126
3801.900, 1.802907
3803.829, 2.833144
3805.757, -0.5561808
3807.686, -0.4862154
3809.614, 2.131063
3811.542, -0.2008221
3813.471, -1.453148
3815.399, 0.7591454
3817.328, 1.241792
3819.256, -0.9065703
3821.185, 1.208680
3823.113, -0.3334975
3825.042, -0.4457407
3826.970, -0.3521342
3828.899, 0.2671181
3830.827, 3.129821
3832.756, 1.983310
3834.684, -1.700899
3836.613, 0.7138941
3838.541, 1.132935
3840.469, 0.6286159
3842.398, 1.362622
3844.326, 2.603037
3846.255, 2.982091
3848.183, 3.024279
3850.112, 2.748140
3852.040, 0.6957690
3853.969, -1.135132
3855.897, -1.156043
3857.826, -0.4293813
3859.754, -0.9273483
3861.683, 0.8109220
3863.611, -2.202934
3865.540, -1.022229
3867.468, -1.209916
3869.396, 6.0095951E-02
3871.325, 1.677819
3873.253, 0.2669419
3875.182, 0.5717449
3877.110, 4.911712
3879.039, 2.106902
3880.967, 1.589762
3882.896, 0.5445834
3884.824, -0.1382582
3886.753, 0.4177867
3888.681, 0.2106960
3890.610, -0.6947386
3892.538, -0.3123154
3894.467, -0.1432502
3896.395, -2.374009
3898.323, -2.411274
3900.252, -0.9043958
3902.180, -2.1211460E-02
3904.109, 0.5221295
3906.037, 0.4010556
3907.966, 0.1052946
3909.894, 0.2035429
3911.823, -4.1975301E-02
3913.751, -0.5689566
3915.680, -1.315953
3917.608, 0.2721804
3919.537, 4.144723
3921.465, -1.775098
3923.394, -1.648941
3925.322, -0.1864435
3927.250, -1.132485
3929.179, -1.304874
3931.107, -0.5591750
3933.036, 0.3293023
3934.964, 0.8221852
3936.893, -0.6305392
3938.821, -8.8406630E-02
3940.750, -0.1911743
3942.678, 0.8367146
3944.607, 1.359963
3946.535, 1.788873
3948.464, 1.799082
3950.392, 1.127226
3952.321, 0.4939102
3954.249, 5.7671819E-02
3956.177, 1.828903
3958.106, 0.3951442
3960.034, 3.4087609E-02
3961.963, -0.8426414
3963.891, -6.1046410E-02
3965.820, 0.8608649
3967.748, -0.1243394
3969.677, -0.4379856
3971.605, 1.320603
3973.534, 0.1109002
3975.462, 0.4050729
3977.391, -1.770022
3979.319, 0.2635147
3981.248, 1.514498
3983.176, 1.209056
3985.104, 0.4924195
3987.033, -0.7022295
3988.961, 1.410961
3990.890, 0.8676397
3992.818, -0.5172369
3994.747, 0.4930057
3996.675, -0.5346341
3998.604, -0.8436818
4000.532, 1.031240
4002.461, 1.583872
4004.389, 0.1161518
4006.318, 1.806053
4008.246, 0.1651844
4010.175, -1.485589
4012.103, 0.6608424
4014.031, 1.814373
4015.960, 0.6720887
4017.888, -0.7062153
4019.817, -1.351259
4021.745, -1.113937
4023.674, 0.4612781
4025.602, 2.540630
4027.531, -0.2663384
4029.459, -1.854893
4031.388, -2.102579
4033.316, -1.043548
4035.245, 0.6732513
4037.173, -0.3020672
4039.102, -1.179417
4041.030, 1.366395
4042.958, 2.853818
4044.887, 1.510110
4046.815, 3.487682
4048.744, -1.619842
4050.672, 0.7771438
4052.601, -1.619510
4054.529, -3.260898
4056.458, -0.1960833
4058.386, 1.257224
4060.315, -0.8823410
4062.243, -4.3767840E-02
4064.172, 0.6603845
4066.100, -2.502698
4068.029, 0.2914676
4069.957, -0.1301090
4071.885, -0.6979515
4073.814, -0.4482730
4075.742, 6.3759767E-02
4077.671, -0.6650066
4079.599, -1.151543
4081.528, 0.3709864
4083.456, 0.3441636
4085.385, -1.290266
4087.313, -2.697901
4089.242, -0.3516737
4091.170, -0.2472835
4093.099, 1.030053
4095.027, 1.722616
4096.956, 1.275679
4098.884, -0.3012941
4100.813, 0.4969881
4102.741, 2.592841
4104.669, -1.846880
4106.598, -0.2274274
4108.526, -0.2536228
4110.455, -3.552592
4112.383, -0.9613427
4114.312, 0.7101485
4116.240, -5.0103121E-02
4118.169, -0.8328754
4120.097, -0.2771796
4122.026, -0.9851024
4123.954, -2.345786
4125.883, -0.8145663
4127.811, 0.5543109
4129.740, 1.542473
4131.668, 0.2012819
4133.597, 0.7911812
4135.525, -0.8622996
4137.454, -1.091866
4139.382, 0.1423361
4141.311, -0.5063455
4143.239, 0.1424509
4145.167, -0.2154753
4147.096, -1.406419
4149.024, 0.6947528
4150.953, 1.762709
4152.881, 0.2252273
4154.810, 3.191864
4156.738, -0.3640962
4158.667, -1.696078
4160.595, 4.6898481E-02
4162.523, -1.344924
4164.452, 0.4317239
4166.380, 1.445335
4168.309, 0.8629457
4170.237, 2.9981580E-02
4172.166, 0.2903649
4174.094, 0.7051083
4176.023, -0.9036964
4177.951, -0.3445322
4179.880, -1.926296
4181.808, -2.622158
4183.737, -1.103359
4185.665, -0.5124909
4187.594, 1.043524
4189.522, -0.7079536
4191.451, -1.214935
4193.379, 0.9107888
4195.308, 0.8049058
4197.236, 0.4654587
4199.165, -0.3087156
4201.093, -0.8839858
4203.021, 1.844882
4204.950, 0.6848277
4206.878, -0.3793339
4208.807, 0.2774549
4210.735, 1.907889
4212.664, 0.9632241
4214.592, -1.442449
4216.521, -1.366644
4218.449, -0.8551384
4220.377, -0.3400423
4222.306, -0.5866772
4224.234, -0.7968313
4226.163, -1.784311
4228.091, -1.150075
4230.020, -6.3988663E-02
4231.948, -1.332456
4233.877, -2.046121
4235.805, -2.742535
4237.734, -0.9543397
4239.662, 2.343487
4241.591, 2.207165
4243.519, -1.145661
4245.448, -0.9334299
4247.376, 0.2490059
4249.305, 1.161738
4251.233, 1.542470
4253.162, -0.4501658
4255.090, -0.7689625
4257.019, -2.923297
4258.947, -0.5153276
4260.875, 1.902048
4262.804, 2.288815
4264.732, 1.937130
4266.661, -0.8758714
4268.589, 7.9798587E-02
4270.518, 0.7687929
4272.446, 3.729754
4274.375, -2.498881
4276.303, -0.7414606
4278.231, 0.3550094
4280.160, 1.627110
4282.088, 0.9115178
4284.017, -2.392138
4285.945, 0.5232044
4287.874, -0.1787302
4289.802, -1.260248
4291.731, -1.174926
4293.659, -1.690647
4295.588, -2.640863
4297.516, -2.290303
4299.445, 0.8206037
4301.373, 2.384229
4303.302, 0.4807906
4305.230, 2.8315941E-02
4307.159, 0.8445348
4309.087, 9.7832419E-02
4311.016, 1.265082
4312.944, -3.268645
4314.873, -2.363232
4316.801, 1.798342
4318.729, -1.451557
4320.658, -1.348903
4322.586, 0.9920937
4324.515, -0.4492223
4326.443, 3.460049
4328.372, -0.2204898
4330.300, -0.6145632
4332.229, -0.3433189
4334.157, 1.027622
4336.085, -1.513300
4338.014, 0.6839027
4339.942, 2.362395
4341.871, 2.560829
4343.799, -0.1731434
4345.728, -5.7508140E-03
4347.656, -0.4152991
4349.585, -1.065194
4351.513, -1.770312
4353.442, -1.395033
4355.370, 1.300796
4357.299, -5.5521261E-02
4359.227, -0.3992344
4361.156, 0.2261674
4363.084, 0.1898619
4365.013, 1.154071
4366.941, -9.0160079E-02
4368.870, -0.8884113
4370.798, -0.7756015
4372.727, 0.4056300
4374.655, 2.060594
##END=



