##NAMES=Diaphorite
##RRUFFID=R060173
##IDEAL CHEMISTRY=Ag_3_Pb_2_Sb_3_S_8_
##LOCALITY=Van Silver mine, Vancouver, British Columbia, Canada
##OWNER=RRUFF
##SOURCE=Ty Balacko
##DESCRIPTION=Steel-gray striated prismatic crystals
##STATUS=The identification of this mineral is confirmed by single-crystal X-ray diffraction and chemical analysis
##URL=https://www.rruff.net/odr/rruff_sample/R060173
##MEASURED CHEMISTRY=(Pb_1.90_Ag_0.07_Cu_0.03_)Ag_3.00_Sb_3.00_S_8.00_
##DIFFRACTION SAMPLE DESCRIPTION=Single crystal, powder profile is calculated
##CELL PARAMETERS=a: 17.93 b: 5.906 c: 15.88 alpha: 90 beta: 116.31 gamma: 90 volume: 1507 crystal system: monoclinic
##FILETYPE=Raman RAW
##RAMAN WAVELENGTH=532

85.98978, 3.705318
87.91824, 4.027251
89.84671, 4.163992
91.77518, 3.883298
93.70364, 3.514048
95.63211, 3.398119
97.56058, 3.662678
99.48904, 3.897348
101.4175, 3.963566
103.3460, 3.793921
105.2744, 3.681248
107.2029, 3.629501
109.1314, 3.636842
111.0598, 3.691637
112.9883, 3.809132
114.9168, 3.970297
116.8452, 4.051450
118.7737, 3.997496
120.7022, 4.408803
122.6306, 5.485117
124.5591, 7.083058
126.4876, 9.089130
128.4160, 11.55011
130.3445, 14.32384
132.2730, 17.44762
134.2014, 21.02180
136.1299, 24.44693
138.0584, 27.57942
139.9868, 30.49900
141.9153, 33.44249
143.8438, 36.26715
145.7722, 39.25611
147.7007, 42.52231
149.6292, 45.71567
151.5576, 46.87932
153.4861, 47.69432
155.4146, 48.20265
157.3430, 48.21038
159.2715, 47.26429
161.2000, 46.25273
163.1284, 45.59635
165.0569, 45.28854
166.9854, 45.16541
168.9138, 45.34768
170.8423, 45.75990
172.7708, 45.84391
174.6992, 45.28570
176.6277, 44.69006
178.5562, 44.53159
180.4846, 44.96726
182.4131, 45.20009
184.3416, 44.92815
186.2701, 44.21156
188.1985, 43.71059
190.1270, 43.40947
192.0555, 43.29906
193.9839, 43.39806
195.9124, 43.89204
197.8409, 44.31345
199.7693, 44.54459
201.6978, 44.61572
203.6263, 44.69054
205.5547, 44.86372
207.4832, 44.95207
209.4117, 44.83098
211.3401, 44.18937
213.2686, 43.82864
215.1971, 43.96288
217.1255, 44.43459
219.0540, 44.90696
220.9825, 45.46098
222.9109, 45.95259
224.8394, 46.24556
226.7679, 46.31898
228.6963, 46.39363
230.6248, 46.50092
232.5533, 46.62159
234.4817, 46.74737
236.4102, 46.87543
238.3387, 47.01749
240.2671, 47.17665
242.1956, 47.33987
244.1241, 47.59574
246.0525, 48.01348
247.9810, 48.52944
249.9095, 48.96460
251.8379, 49.21977
253.7664, 49.55086
255.6949, 50.03188
257.6233, 50.72623
259.5518, 51.33494
261.4803, 51.82602
263.4087, 52.26749
265.3372, 52.73820
267.2657, 53.26966
269.1941, 53.74748
271.1226, 54.11090
273.0511, 54.32560
274.9795, 54.57018
276.9080, 54.97936
278.8365, 55.36889
280.7649, 55.58710
282.6934, 55.41087
284.6219, 55.39362
286.5503, 55.78927
288.4788, 56.52301
290.4073, 56.96157
292.3357, 56.68761
294.2642, 56.35818
296.1927, 56.38079
298.1211, 57.42931
300.0496, 57.99543
301.9781, 57.76719
303.9065, 56.95390
305.8350, 56.11748
307.7635, 55.39131
309.6919, 54.72986
311.6204, 54.07410
313.5489, 53.42852
315.4773, 52.63739
317.4058, 51.57617
319.3343, 50.46813
321.2627, 49.54488
323.1912, 48.95176
325.1197, 48.24294
327.0481, 47.38054
328.9766, 46.42936
330.9051, 45.62243
332.8336, 44.97958
334.7620, 44.38495
336.6905, 43.79328
338.6190, 43.27609
340.5474, 42.70876
342.4759, 41.92730
344.4044, 41.02164
346.3328, 40.26009
348.2613, 39.82005
350.1898, 39.45352
352.1182, 39.10326
354.0467, 38.78549
355.9752, 38.57933
357.9036, 38.45855
359.8321, 38.31253
361.7606, 38.08140
363.6890, 37.73280
365.6175, 37.51367
367.5460, 37.41774
369.4744, 37.39746
371.4029, 37.38263
373.3314, 37.56639
375.2598, 37.70914
377.1883, 37.62097
379.1168, 37.12600
381.0452, 36.80510
382.9737, 36.93499
384.9022, 37.28846
386.8306, 37.46148
388.7591, 36.96103
390.6876, 36.41560
392.6160, 36.11383
394.5445, 36.13257
396.4730, 36.30370
398.4014, 36.80296
400.3299, 37.27862
402.2584, 37.46866
404.1868, 36.87477
406.1153, 36.38441
408.0438, 36.15862
409.9722, 36.13526
411.9007, 36.14968
413.8292, 36.26056
415.7576, 36.36803
417.6861, 36.38130
419.6146, 36.24095
421.5430, 36.13965
423.4715, 36.05145
425.4000, 35.95243
427.3284, 35.86597
429.2569, 35.94275
431.1854, 36.04973
433.1138, 36.11357
435.0423, 36.11614
436.9708, 36.09022
438.8992, 36.07390
440.8277, 36.03659
442.7562, 35.84296
444.6846, 35.34883
446.6131, 34.91490
448.5416, 34.98694
450.4700, 35.29932
452.3985, 35.61395
454.3270, 35.81464
456.2554, 35.84455
458.1839, 35.62749
460.1124, 35.28236
462.0408, 34.99699
463.9693, 34.85077
465.8978, 34.86812
467.8262, 35.03627
469.7547, 35.24340
471.6832, 35.29229
473.6116, 35.26127
475.5401, 35.20108
477.4686, 35.07808
479.3970, 34.89500
481.3255, 34.90104
483.2540, 35.24148
485.1824, 35.61812
487.1109, 35.77289
489.0394, 35.48291
490.9678, 35.19024
492.8963, 34.97820
494.8248, 34.86494
496.7532, 34.76325
498.6817, 34.66965
500.6102, 34.61473
502.5386, 34.60307
504.4671, 34.59703
506.3956, 34.58954
508.3240, 34.56864
510.2525, 34.55951
512.1810, 34.57732
514.1094, 34.66050
516.0379, 34.78913
517.9664, 34.89471
519.8948, 34.92894
521.8233, 34.89295
523.7518, 34.91055
525.6802, 34.87876
527.6087, 34.72701
529.5372, 34.54865
531.4656, 34.54731
533.3941, 34.83843
535.3226, 35.08358
537.2510, 35.16854
539.1795, 35.08210
541.1080, 34.92093
543.0364, 34.59620
544.9649, 34.33759
546.8934, 34.28540
548.8218, 34.54637
550.7503, 34.75285
552.6788, 34.86433
554.6072, 34.86173
556.5357, 34.69984
558.4642, 34.55722
560.3926, 34.54056
562.3211, 34.65893
564.2496, 34.76125
566.1780, 34.72180
568.1065, 34.54750
570.0350, 34.43613
571.9634, 34.47201
573.8919, 34.50068
575.8204, 34.46442
577.7488, 34.61369
579.6773, 34.77243
581.6058, 34.83162
583.5342, 34.67214
585.4627, 34.51538
587.3912, 34.42563
589.3196, 34.42050
591.2481, 34.49800
593.1766, 34.47402
595.1050, 34.52853
597.0335, 34.79913
598.9620, 35.08967
600.8904, 35.12849
602.8189, 35.02053
604.7474, 34.89525
606.6758, 34.62919
608.6043, 34.30724
610.5328, 34.27581
612.4612, 34.93664
614.3897, 35.36559
616.3182, 35.19316
618.2466, 34.70438
620.1751, 34.47743
622.1036, 34.75387
624.0320, 35.09850
625.9605, 35.41473
627.8890, 35.68441
629.8174, 35.80289
631.7459, 35.57422
633.6744, 35.35870
635.6028, 35.43067
637.5313, 35.65074
639.4598, 35.67008
641.3882, 35.50509
643.3167, 35.43986
645.2452, 35.53257
647.1736, 35.62343
649.1021, 35.73558
651.0306, 35.92668
652.9590, 36.03486
654.8875, 35.93896
656.8160, 35.78285
658.7444, 35.78724
660.6729, 36.02372
662.6014, 36.22583
664.5298, 36.26605
666.4583, 36.13888
668.3868, 36.07928
670.3152, 36.21333
672.2437, 36.42073
674.1722, 36.47703
676.1006, 36.38271
678.0291, 36.37989
679.9576, 36.50958
681.8860, 36.65249
683.8145, 36.86037
685.7430, 37.18382
687.6714, 37.39105
689.5999, 37.32547
691.5284, 37.20222
693.4568, 37.23735
695.3853, 37.54062
697.3138, 37.69484
699.2422, 37.48516
701.1707, 37.13264
703.0992, 36.86318
705.0276, 36.63195
706.9561, 36.51918
708.8846, 36.70827
710.8130, 37.16533
712.7415, 37.43675
714.6700, 37.51770
716.5984, 37.50834
718.5269, 37.37368
720.4554, 37.10074
722.3839, 36.96590
724.3123, 37.07369
726.2408, 37.30764
728.1693, 37.63131
730.0977, 37.89937
732.0262, 37.95876
733.9547, 37.64893
735.8831, 37.34327
737.8116, 37.20446
739.7401, 37.24054
741.6685, 37.29205
743.5970, 37.43003
745.5255, 37.49952
747.4539, 37.42339
749.3824, 37.21014
751.3109, 37.01118
753.2393, 36.69164
755.1678, 36.54483
757.0963, 36.80778
759.0247, 37.52415
760.9532, 37.94817
762.8817, 37.91490
764.8101, 37.72289
766.7386, 37.43360
768.6671, 37.06667
770.5955, 36.86061
772.5240, 36.96041
774.4525, 37.08741
776.3809, 37.08989
778.3094, 36.93549
780.2379, 36.85504
782.1663, 36.88819
784.0948, 36.95436
786.0233, 37.02040
787.9517, 37.08220
789.8802, 37.10408
791.8087, 37.04903
793.7371, 36.99923
795.6656, 37.01831
797.5941, 37.12563
799.5225, 37.12012
801.4510, 36.96977
803.3795, 36.77540
805.3079, 36.51688
807.2364, 36.18501
809.1649, 35.97558
811.0933, 35.93109
813.0218, 35.99886
814.9503, 36.19556
816.8787, 36.52260
818.8072, 36.67729
820.7357, 36.51407
822.6641, 36.37223
824.5926, 36.35979
826.5211, 36.42101
828.4495, 36.44931
830.3780, 36.38107
832.3065, 36.32722
834.2349, 36.36792
836.1634, 36.55135
838.0919, 36.71469
840.0203, 36.87305
841.9488, 36.95266
843.8773, 36.93153
845.8057, 36.75653
847.7342, 36.58372
849.6627, 36.42957
851.5911, 36.37556
853.5196, 36.45468
855.4481, 36.53674
857.3765, 36.55524
859.3050, 36.50608
861.2335, 36.49425
863.1619, 36.44370
865.0904, 36.24841
867.0189, 36.11150
868.9473, 36.09461
870.8758, 36.10527
872.8043, 36.06260
874.7327, 36.02862
876.6612, 35.98573
878.5897, 35.84980
880.5181, 35.71255
882.4466, 35.75932
884.3751, 36.03657
886.3035, 36.10509
888.2320, 35.85221
890.1605, 35.57368
892.0889, 35.35541
894.0174, 35.27024
895.9459, 35.27855
897.8743, 35.33249
899.8028, 35.33850
901.7313, 35.38636
903.6597, 35.51941
905.5882, 35.53273
907.5167, 35.64395
909.4451, 35.63990
911.3736, 35.21942
913.3021, 34.48847
915.2305, 34.27112
917.1590, 34.86039
919.0875, 35.39531
921.0159, 35.48366
922.9444, 35.29935
924.8729, 35.22759
926.8013, 35.29728
928.7298, 35.44192
930.6583, 35.73795
932.5867, 36.15365
934.5152, 36.48399
936.4437, 36.55060
938.3721, 36.57011
940.3006, 36.58141
942.2291, 36.63170
944.1575, 36.71756
946.0860, 36.89205
948.0145, 37.00248
949.9429, 36.96149
951.8714, 36.92576
953.7999, 37.10362
955.7283, 37.46992
957.6568, 37.53657
959.5853, 37.07064
961.5137, 36.62593
963.4422, 36.52916
965.3707, 36.79210
967.2991, 37.05386
969.2276, 37.17225
971.1561, 37.28040
973.0845, 37.45789
975.0130, 37.68677
976.9415, 37.94526
978.8699, 38.27809
980.7984, 38.54585
982.7269, 38.70314
984.6553, 38.82928
986.5838, 38.90418
988.5123, 38.75886
990.4407, 38.64653
992.3692, 38.75365
994.2977, 39.08373
996.2261, 39.46383
998.1546, 39.66205
1000.083, 39.70945
1002.012, 39.63556
1003.940, 39.61784
1005.868, 39.73671
1007.797, 39.87352
1009.725, 40.01275
1011.654, 40.27496
1013.582, 40.56121
1015.511, 40.73243
1017.439, 40.77459
1019.368, 40.96146
1021.296, 41.38251
1023.225, 41.70809
1025.153, 41.75867
1027.082, 41.59962
1029.010, 41.67957
1030.939, 42.06489
1032.867, 42.30703
1034.796, 42.27514
1036.724, 42.24772
1038.652, 42.39530
1040.581, 42.73361
1042.509, 43.28448
1044.438, 43.87006
1046.366, 44.20263
1048.295, 44.19609
1050.223, 44.14032
1052.152, 44.12634
1054.080, 44.05615
1056.009, 43.95030
1057.937, 43.79887
1059.866, 43.71107
1061.794, 43.98724
1063.723, 44.69609
1065.651, 45.28438
1067.579, 45.52273
1069.508, 45.56953
1071.436, 45.63064
1073.365, 45.58074
1075.293, 45.54967
1077.222, 45.68040
1079.150, 45.99272
1081.079, 46.43708
1083.007, 46.86779
1084.936, 47.06172
1086.864, 47.03609
1088.793, 47.06863
1090.721, 47.31116
1092.650, 47.57305
1094.578, 47.64267
1096.506, 47.79681
1098.435, 48.02205
1100.363, 48.08168
1102.292, 47.87275
1104.220, 47.71358
1106.149, 48.03037
1108.077, 48.58192
1110.006, 49.04693
1111.934, 49.26640
1113.863, 49.25164
1115.791, 49.17525
1117.720, 49.14817
1119.648, 49.21264
1121.577, 49.37987
1123.505, 49.53406
1125.433, 49.60004
1127.362, 49.73971
1129.290, 50.19616
1131.219, 50.50166
1133.147, 50.44664
1135.076, 50.22375
1137.004, 50.33845
1138.933, 51.02074
1140.861, 51.70117
1142.790, 52.20773
1144.718, 52.48636
1146.647, 52.61117
1148.575, 52.70823
1150.504, 52.85903
1152.432, 52.80293
1154.360, 52.56169
1156.289, 52.43855
1158.217, 52.64182
1160.146, 53.21321
1162.074, 53.84284
1164.003, 54.04279
1165.931, 54.37093
1167.860, 54.90031
1169.788, 55.24517
1171.717, 54.79404
1173.645, 54.51227
1175.574, 55.24513
1177.502, 56.15057
1179.431, 56.30254
1181.359, 55.70707
1183.287, 55.47129
1185.216, 55.99110
1187.144, 56.71054
1189.073, 57.09421
1191.001, 57.22744
1192.930, 57.48180
1194.858, 58.00835
1196.787, 58.46386
1198.715, 58.60876
1200.644, 58.72479
1202.572, 59.02829
1204.501, 59.45410
1206.429, 59.70131
1208.358, 59.59788
1210.286, 59.95926
1212.214, 60.79174
1214.143, 61.51665
1216.071, 61.83249
1218.000, 61.87336
1219.928, 62.02135
1221.857, 62.19068
1223.785, 62.41655
1225.714, 62.81157
1227.642, 63.25040
1229.571, 63.43394
1231.499, 63.19699
1233.428, 63.29824
1235.356, 63.90314
1237.285, 64.62215
1239.213, 65.23454
1241.141, 65.79729
1243.070, 66.11442
1244.998, 65.92312
1246.927, 65.77369
1248.855, 65.84423
1250.784, 66.20228
1252.712, 66.82927
1254.641, 67.78800
1256.569, 68.39736
1258.498, 68.38491
1260.426, 68.37680
1262.355, 68.70048
1264.283, 69.34476
1266.212, 69.96920
1268.140, 70.54239
1270.068, 70.91451
1271.997, 71.04372
1273.925, 71.09581
1275.854, 71.38765
1277.782, 72.15170
1279.711, 72.69905
1281.639, 72.69345
1283.568, 72.65181
1285.496, 72.91550
1287.425, 73.40868
1289.353, 73.91789
1291.282, 74.45491
1293.210, 75.03447
1295.139, 75.78243
1297.067, 76.33338
1298.995, 76.33064
1300.924, 76.03780
1302.852, 76.24405
1304.781, 77.23478
1306.709, 77.92374
1308.638, 77.98014
1310.566, 77.92289
1312.495, 78.03425
1314.423, 78.27393
1316.352, 78.46052
1318.280, 78.66285
1320.209, 78.85056
1322.137, 78.77412
1324.066, 78.65038
1325.994, 78.90363
1327.922, 79.78501
1329.851, 80.40396
1331.779, 80.60735
1333.708, 80.83798
1335.636, 81.29493
1337.565, 81.88171
1339.493, 82.35307
1341.422, 82.71890
1343.350, 82.90612
1345.279, 82.59756
1347.207, 82.40157
1349.136, 82.76562
1351.064, 83.56736
1352.993, 84.24710
1354.921, 84.73464
1356.849, 85.13906
1358.778, 85.54600
1360.706, 85.94987
1362.635, 86.15300
1364.563, 86.05115
1366.492, 86.20912
1368.420, 86.97930
1370.349, 87.69019
1372.277, 88.04330
1374.206, 88.20582
1376.134, 88.47617
1378.063, 88.89360
1379.991, 89.24901
1381.920, 89.39876
1383.848, 89.62772
1385.776, 90.21923
1387.705, 90.95914
1389.633, 91.31920
1391.562, 91.21551
1393.490, 91.11170
1395.419, 91.04814
1397.347, 91.12395
1399.276, 91.34083
1401.204, 91.67134
1403.133, 92.20911
1405.061, 93.00768
1406.990, 93.68707
1408.918, 94.17810
1410.847, 94.50317
1412.775, 94.55077
1414.703, 94.46633
1416.632, 94.64068
1418.560, 95.20023
1420.489, 95.67378
1422.417, 96.08980
1424.346, 96.34255
1426.274, 96.21377
1428.203, 95.92982
1430.131, 96.05580
1432.060, 96.93768
1433.988, 97.48718
1435.917, 97.33236
1437.845, 97.24174
1439.774, 97.61654
1441.702, 98.29155
1443.630, 98.92826
1445.559, 99.54707
1447.487, 100.0476
1449.416, 100.4507
1451.344, 100.6844
1453.273, 100.5352
1455.201, 100.2698
1457.130, 100.3006
1459.058, 100.6301
1460.987, 101.2122
1462.915, 102.2588
1464.844, 103.2296
1466.772, 103.8599
1468.701, 104.2408
1470.629, 104.5135
1472.557, 104.6790
1474.486, 104.6913
1476.414, 104.3257
1478.343, 104.1862
1480.271, 104.6351
1482.200, 105.3069
1484.128, 105.7361
1486.057, 105.8764
1487.985, 105.9614
1489.914, 105.8766
1491.842, 105.8468
1493.771, 105.8283
1495.699, 105.9647
1497.628, 106.5456
1499.556, 107.6668
1501.484, 108.0517
1503.413, 106.9631
1505.341, 106.1812
1507.270, 106.1992
1509.198, 106.5700
1511.127, 106.8549
1513.055, 107.0305
1514.984, 107.3744
1516.912, 108.1322
1518.841, 108.5963
1520.769, 108.4929
1522.698, 108.1415
1524.626, 107.6134
1526.555, 107.0137
1528.483, 106.7958
1530.411, 107.1220
1532.340, 107.2467
1534.268, 106.9884
1536.197, 106.5275
1538.125, 105.6842
1540.054, 104.7750
1541.982, 104.5586
1543.911, 105.1382
1545.839, 105.3821
1547.768, 104.9319
1549.696, 104.4592
1551.625, 104.2837
1553.553, 104.1810
1555.482, 104.0590
1557.410, 103.9199
1559.339, 103.3973
1561.267, 102.2494
1563.195, 101.2285
1565.124, 100.7434
1567.052, 100.2612
1568.981, 99.32020
1570.909, 98.10568
1572.838, 97.40475
1574.766, 97.42651
1576.695, 97.12743
1578.623, 96.09683
1580.552, 95.10915
1582.480, 94.54768
1584.409, 94.14971
1586.337, 93.50050
1588.266, 92.54319
1590.194, 91.59536
1592.122, 90.77448
1594.051, 89.78993
1595.979, 88.27744
1597.908, 86.82304
1599.836, 86.13127
1601.765, 86.09451
1603.693, 85.56351
1605.622, 84.13917
1607.550, 82.89427
1609.479, 81.90880
1611.407, 81.08549
1613.336, 80.46528
1615.264, 79.93821
1617.193, 79.30508
1619.121, 78.56693
1621.049, 77.81640
1622.978, 77.21863
1624.906, 76.36709
1626.835, 74.94667
1628.763, 73.39436
1630.692, 72.00758
1632.620, 70.82715
1634.549, 70.09938
1636.477, 70.14918
1638.406, 69.95280
1640.334, 69.31982
1642.263, 68.52553
1644.191, 67.61169
1646.120, 66.63963
1648.048, 65.64264
1649.976, 64.59619
1651.905, 63.88802
1653.833, 63.87334
1655.762, 63.55791
1657.690, 62.49855
1659.619, 61.31670
1661.547, 60.38725
1663.476, 59.68390
1665.404, 59.17491
1667.333, 58.91819
1669.261, 58.51016
1671.190, 57.72428
1673.118, 57.07084
1675.047, 56.96624
1676.975, 56.85769
1678.903, 56.00105
1680.832, 54.61561
1682.760, 53.93829
1684.689, 54.21234
1686.617, 54.24477
1688.546, 53.63612
1690.474, 53.01336
1692.403, 52.61418
1694.331, 52.35011
1696.260, 52.20632
1698.188, 52.14912
1700.117, 51.78310
1702.045, 50.93966
1703.974, 50.28724
1705.902, 50.17302
1707.830, 50.03025
1709.759, 49.37219
1711.687, 48.61225
1713.616, 48.49056
1715.544, 48.96172
1717.473, 49.08604
1719.401, 48.70363
1721.330, 48.29152
1723.258, 47.84262
1725.187, 47.52434
1727.115, 47.63780
1729.044, 47.85670
1730.972, 47.51601
1732.901, 46.62059
1734.829, 46.05749
1736.757, 45.99520
1738.686, 45.95716
1740.614, 45.90545
1742.543, 45.77718
1744.471, 45.43990
1746.400, 45.04300
1748.328, 44.87490
1750.257, 44.94546
1752.185, 44.95504
1754.114, 44.89420
1756.042, 44.78335
1757.971, 44.52322
1759.899, 44.32744
1761.828, 44.42958
1763.756, 44.61330
1765.684, 44.50235
1767.613, 44.08268
1769.541, 43.67401
1771.470, 43.10653
1773.398, 42.88558
1775.327, 43.46058
1777.255, 43.94628
1779.184, 43.78337
1781.112, 43.36214
1783.041, 43.19999
1784.969, 43.28896
1786.898, 42.79827
1788.826, 43.54128
1790.755, 43.97539
1792.683, 44.11716
1794.611, 43.09111
1796.540, 43.57309
1798.468, 43.45070
1800.397, 43.30355
1802.325, 43.99775
1804.254, 43.14157
1806.182, 43.82243
1808.111, 43.88974
1810.039, 44.23785
1811.968, 43.97790
1813.896, 43.90575
1815.825, 44.44188
1817.753, 44.64120
1819.682, 44.31125
1821.610, 44.67720
1823.538, 43.79976
1825.467, 44.06097
1827.395, 44.22335
1829.324, 44.26770
1831.252, 43.99252
1833.181, 43.73995
1835.109, 43.63440
1837.038, 43.67814
1838.966, 43.98137
1840.895, 44.51204
1842.823, 44.65402
1844.752, 44.24895
1846.680, 44.04902
1848.609, 44.20587
1850.537, 44.53049
1852.465, 45.31126
1854.394, 45.88998
1856.322, 45.48050
1858.251, 44.52479
1860.179, 44.22149
1862.108, 44.59049
1864.036, 44.80627
1865.965, 44.77301
1867.893, 44.62902
1869.822, 44.18081
1871.750, 43.96117
1873.679, 44.65593
1875.607, 45.47900
1877.536, 45.27915
1879.464, 44.35189
1881.392, 44.00090
1883.321, 44.35051
1885.249, 44.62783
1887.178, 44.73066
1889.106, 44.74263
1891.035, 44.57594
1892.963, 44.45097
1894.892, 44.57970
1896.820, 44.82409
1898.749, 44.88259
1900.677, 44.76552
1902.606, 45.00669
1904.534, 46.03484
1906.463, 46.49797
1908.391, 45.80532
1910.319, 45.29150
1912.248, 45.54851
1914.176, 45.92027
1916.105, 45.86066
1918.033, 45.56269
1919.962, 45.40530
1921.890, 45.38354
1923.819, 45.57110
1925.747, 46.14965
1927.676, 46.43571
1929.604, 46.13377
1931.533, 45.85811
1933.461, 45.84372
1935.390, 45.89655
1937.318, 45.82750
1939.246, 45.74953
1941.175, 46.00878
1943.103, 46.54153
1945.032, 46.57049
1946.960, 45.90992
1948.889, 45.51777
1950.817, 45.67362
1952.746, 45.92417
1954.674, 46.13243
1956.603, 46.31923
1958.531, 46.55659
1960.460, 46.75169
1962.388, 46.68309
1964.317, 46.39151
1966.245, 46.29301
1968.173, 46.41273
1970.102, 46.65947
1972.030, 47.17857
1973.959, 47.60812
1975.887, 47.90778
1977.816, 48.05155
1979.744, 47.96839
1981.673, 47.75068
1983.601, 47.42253
1985.530, 47.04492
1987.458, 47.03400
1989.387, 47.51548
1991.315, 47.71589
1993.244, 47.44614
1995.172, 47.28328
1997.100, 47.42562
1999.029, 47.58109
2000.957, 47.66315
2002.886, 47.68390
2004.814, 47.55438
2006.743, 47.41397
2008.671, 47.64611
2010.600, 48.17512
2012.528, 48.29241
2014.457, 47.86422
2016.385, 47.56182
2018.314, 47.54135
2020.242, 47.55734
2022.171, 47.48921
2024.099, 47.48624
2026.027, 47.78867
2027.956, 48.08749
2029.884, 47.87600
2031.813, 47.35374
2033.741, 47.28093
2035.670, 47.74546
2037.598, 48.08318
2039.527, 48.29182
2041.455, 48.37932
2043.384, 48.22947
2045.312, 48.13358
2047.241, 48.25003
2049.169, 48.35363
2051.098, 48.23726
2053.026, 48.08466
2054.955, 48.15355
2056.883, 48.37848
2058.812, 48.56642
2060.740, 48.71227
2062.668, 48.82626
2064.597, 48.91470
2066.525, 48.94675
2068.454, 48.89122
2070.382, 48.81781
2072.311, 48.79451
2074.239, 48.70839
2076.168, 48.25592
2078.096, 47.87991
2080.025, 48.35366
2081.953, 49.35533
2083.882, 49.74565
2085.810, 49.46882
2087.739, 48.99525
2089.667, 48.09140
2091.595, 47.82767
2093.524, 48.69373
2095.452, 49.39412
2097.381, 49.44889
2099.309, 49.39087
2101.238, 49.51582
2103.166, 49.65748
2105.095, 49.71828
2107.023, 49.67204
2108.952, 49.37774
2110.880, 48.89116
2112.809, 48.66176
2114.737, 48.72192
2116.666, 48.89445
2118.594, 49.40469
2120.522, 49.62868
2122.451, 49.23738
2124.379, 48.93207
2126.308, 49.01552
2128.236, 49.16344
2130.165, 49.20277
2132.093, 49.16942
2134.022, 49.05411
2135.950, 48.90975
2137.879, 48.94369
2139.807, 49.11284
2141.736, 49.00256
2143.664, 48.54165
2145.593, 48.25560
2147.521, 48.24420
2149.449, 48.36100
2151.378, 48.75194
2153.306, 49.03241
2155.235, 49.01332
2157.163, 48.88868
2159.092, 48.74206
2161.020, 48.58570
2162.949, 48.33620
2164.877, 48.10588
2166.806, 48.34227
2168.734, 48.99696
2170.663, 49.32705
2172.591, 49.29868
2174.520, 49.25587
2176.448, 49.23413
2178.376, 49.25341
2180.305, 49.38757
2182.233, 49.43147
2184.162, 49.11036
2186.090, 48.91443
2188.019, 49.36468
2189.947, 49.84397
2191.876, 49.63825
2193.804, 49.09074
2195.733, 48.83822
2197.661, 48.83583
2199.590, 48.77584
2201.518, 48.64762
2203.447, 48.71675
2205.375, 49.05944
2207.303, 49.11624
2209.232, 48.65586
2211.160, 48.37065
2213.089, 48.54586
2215.017, 48.79209
2216.946, 49.06709
2218.874, 49.23119
2220.803, 49.08617
2222.731, 48.87500
2224.660, 48.91432
2226.588, 49.04243
2228.517, 48.86515
2230.445, 48.46405
2232.374, 48.42955
2234.302, 48.76237
2236.230, 48.89308
2238.159, 48.75728
2240.087, 48.77260
2242.016, 49.10124
2243.944, 49.23822
2245.873, 48.96363
2247.801, 48.62694
2249.730, 47.98380
2251.658, 47.76947
2253.587, 48.91445
2255.515, 50.10728
2257.444, 50.05864
2259.372, 49.45631
2261.301, 49.18034
2263.229, 49.18164
2265.157, 49.39147
2267.086, 49.76105
2269.014, 50.02140
2270.943, 50.16180
2272.871, 50.20560
2274.800, 50.11692
2276.728, 50.10078
2278.657, 50.38301
2280.585, 50.40318
2282.514, 49.84740
2284.442, 49.35958
2286.371, 49.07511
2288.299, 48.97324
2290.228, 49.24013
2292.156, 49.48036
2294.084, 49.27183
2296.013, 48.96846
2297.941, 48.94418
2299.870, 49.15362
2301.798, 49.67125
2303.727, 50.35992
2305.655, 50.41847
2307.584, 49.78730
2309.512, 49.53460
2311.441, 49.25736
2313.369, 49.99181
2315.298, 50.41737
2317.226, 50.55059
2319.155, 49.51600
2321.083, 49.98940
2323.011, 49.85846
2324.940, 49.70276
2326.868, 50.38841
2328.797, 49.52368
2330.725, 50.19599
2332.654, 50.25474
2334.582, 50.59430
2336.511, 50.32580
2338.439, 50.24509
2340.368, 50.77267
2342.296, 50.96344
2344.225, 50.62494
2346.153, 50.98235
2348.082, 50.09637
2350.010, 50.84443
2351.938, 51.24165
2353.867, 51.53315
2355.795, 51.72094
2357.724, 51.79284
2359.652, 51.70884
2361.581, 51.56698
2363.509, 51.18416
2365.438, 51.11016
2367.366, 51.83247
2369.295, 52.17685
2371.223, 51.41231
2373.152, 50.60506
2375.080, 50.24806
2377.009, 50.19571
2378.937, 50.37779
2380.865, 50.77552
2382.794, 51.72667
2384.722, 52.62793
2386.651, 52.32345
2388.579, 51.29622
2390.508, 50.68980
2392.436, 50.47121
2394.365, 50.64392
2396.293, 51.13111
2398.222, 51.27594
2400.150, 51.00998
2402.079, 51.13015
2404.007, 51.99778
2405.936, 52.29369
2407.864, 51.68376
2409.792, 51.22755
2411.721, 50.89355
2413.649, 51.00411
2415.578, 51.90845
2417.506, 52.58879
2419.435, 52.71671
2421.363, 52.53166
2423.292, 51.74521
2425.220, 51.20130
2427.149, 51.53604
2429.077, 52.08174
2431.006, 52.52753
2432.934, 52.76652
2434.863, 52.45155
2436.791, 52.06830
2438.719, 52.39198
2440.648, 52.97252
2442.576, 52.92770
2444.505, 52.58814
2446.433, 53.02315
2448.362, 53.97763
2450.290, 53.91817
2452.219, 52.87783
2454.147, 52.60258
2456.076, 53.09883
2458.004, 53.34663
2459.933, 53.28363
2461.861, 53.31522
2463.790, 53.52417
2465.718, 53.56990
2467.646, 53.27473
2469.575, 53.10698
2471.503, 53.20752
2473.432, 53.26761
2475.360, 53.28091
2477.289, 53.20775
2479.217, 52.94420
2481.146, 52.79747
2483.074, 52.92617
2485.003, 53.12130
2486.931, 53.26769
2488.860, 53.46535
2490.788, 53.89491
2492.717, 54.23751
2494.645, 54.19917
2496.573, 54.07002
2498.502, 54.09613
2500.430, 54.15531
2502.359, 54.04122
2504.287, 53.96309
2506.216, 54.25127
2508.144, 54.71455
2510.073, 55.09820
2512.001, 55.36300
2513.930, 55.33277
2515.858, 55.12342
2517.787, 55.23388
2519.715, 55.51231
2521.644, 55.24438
2523.572, 54.53852
2525.500, 54.39991
2527.429, 54.83621
2529.357, 55.03998
2531.286, 54.97088
2533.214, 54.98491
2535.143, 55.09515
2537.071, 55.02752
2539.000, 54.72713
2540.928, 54.73705
2542.857, 55.22701
2544.785, 55.55754
2546.714, 55.55352
2548.642, 55.58102
2550.571, 55.62930
2552.499, 55.78101
2554.427, 56.13572
2556.356, 56.29340
2558.284, 56.02290
2560.213, 55.92054
2562.141, 56.45517
2564.070, 56.70469
2565.998, 56.07610
2567.927, 55.67829
2569.855, 56.07911
2571.784, 56.38579
2573.712, 56.10738
2575.641, 56.00529
2577.569, 56.81353
2579.498, 57.38090
2581.426, 56.85780
2583.354, 56.24352
2585.283, 55.97039
2587.211, 56.03570
2589.140, 56.95357
2591.068, 57.59739
2592.997, 56.75678
2594.925, 55.83459
2596.854, 56.06690
2598.782, 56.67544
2600.711, 57.01101
2602.639, 57.20673
2604.568, 57.25484
2606.496, 57.38634
2608.425, 58.09853
2610.353, 58.86831
2612.281, 59.02736
2614.210, 58.89451
2616.138, 58.90676
2618.067, 58.94833
2619.995, 58.85869
2621.924, 58.62305
2623.852, 58.01591
2625.781, 57.35847
2627.709, 57.38046
2629.638, 57.80043
2631.566, 58.04856
2633.495, 58.21935
2635.423, 58.69731
2637.352, 59.25383
2639.280, 58.99480
2641.208, 58.24402
2643.137, 57.93946
2645.065, 58.08662
2646.994, 58.97970
2648.922, 60.26104
2650.851, 60.14577
2652.779, 59.03118
2654.708, 59.40658
2656.636, 60.86969
2658.565, 61.07104
2660.493, 60.27935
2662.422, 59.89170
2664.350, 59.85789
2666.279, 59.56914
2668.207, 59.07436
2670.135, 59.04864
2672.064, 59.42415
2673.992, 59.50128
2675.921, 59.34885
2677.849, 59.56450
2679.778, 60.11806
2681.706, 60.25352
2683.635, 60.00004
2685.563, 60.28566
2687.492, 61.04740
2689.420, 61.09228
2691.349, 60.51736
2693.277, 60.39437
2695.206, 60.72368
2697.134, 60.47638
2699.063, 59.66452
2700.991, 59.91075
2702.919, 61.13097
2704.848, 61.33108
2706.776, 60.61071
2708.705, 60.06824
2710.633, 59.74934
2712.562, 59.61234
2714.490, 59.65669
2716.419, 60.18443
2718.347, 61.13094
2720.276, 61.49697
2722.204, 61.35629
2724.133, 61.43210
2726.061, 61.71758
2727.990, 61.75390
2729.918, 61.56278
2731.846, 61.61267
2733.775, 61.83960
2735.703, 61.58708
2737.632, 60.99865
2739.560, 61.03187
2741.489, 61.59911
2743.417, 62.11090
2745.346, 62.53290
2747.274, 62.52786
2749.203, 62.18978
2751.131, 61.91257
2753.060, 61.72039
2754.988, 61.72203
2756.917, 61.85886
2758.845, 61.82860
2760.773, 61.73379
2762.702, 62.05614
2764.630, 62.63307
2766.559, 63.08041
2768.487, 63.32324
2770.416, 62.88846
2772.344, 62.23677
2774.273, 62.92855
2776.201, 64.17157
2778.130, 63.77733
2780.058, 62.73823
2781.987, 63.08026
2783.915, 63.95673
2785.844, 63.88393
2787.772, 63.32233
2789.700, 62.79504
2791.629, 62.48944
2793.557, 62.87581
2795.486, 63.46028
2797.414, 63.63093
2799.343, 63.67949
2801.271, 64.16643
2803.200, 64.48733
2805.128, 63.67700
2807.057, 62.74418
2808.985, 62.46191
2810.914, 62.57777
2812.842, 63.13216
2814.771, 63.68360
2816.699, 63.89256
2818.627, 63.97356
2820.556, 63.96145
2822.484, 64.01962
2824.413, 64.25851
2826.341, 64.56503
2828.270, 65.15034
2830.198, 65.33195
2832.127, 64.45843
2834.055, 63.84433
2835.984, 64.16851
2837.912, 64.43523
2839.841, 64.07026
2841.769, 63.99163
2843.698, 64.82186
2845.626, 65.02737
2847.554, 63.95326
2849.483, 63.60000
2851.411, 65.00886
2853.340, 65.63184
2855.268, 64.54603
2857.197, 64.04723
2859.125, 64.36629
2861.054, 64.53237
2862.982, 64.40154
2864.911, 64.49113
2866.839, 65.01216
2868.768, 64.79072
2870.696, 63.74425
2872.625, 63.70836
2874.553, 64.63401
2876.481, 65.31580
2878.410, 65.69453
2880.338, 65.71701
2882.267, 65.40989
2884.195, 64.75082
2886.124, 63.99106
2888.052, 64.15888
2889.981, 64.75160
2891.909, 64.48776
2893.838, 63.86789
2895.766, 63.76028
2897.695, 64.03960
2899.623, 64.76446
2901.552, 65.49461
2903.480, 65.76292
2905.408, 65.76049
2907.337, 65.54559
2909.265, 65.30904
2911.194, 65.22329
2913.122, 65.12534
2915.051, 64.72983
2916.979, 64.58871
2918.908, 65.25888
2920.836, 65.76120
2922.765, 65.76961
2924.693, 65.62397
2926.622, 65.30728
2928.550, 65.13231
2930.479, 65.12765
2932.407, 65.43992
2934.335, 66.22218
2936.264, 66.58341
2938.192, 66.37095
2940.121, 66.09342
2942.049, 65.74834
2943.978, 65.65595
2945.906, 65.81355
2947.835, 66.05136
2949.763, 66.25350
2951.692, 65.42099
2953.620, 63.98604
2955.549, 63.84190
2957.477, 64.54530
2959.406, 65.13191
2961.334, 65.47058
2963.262, 65.16757
2965.191, 64.72117
2967.119, 64.82341
2969.048, 65.07159
2970.976, 65.19295
2972.905, 65.14629
2974.833, 64.53849
2976.762, 64.30972
2978.690, 65.62782
2980.619, 66.30855
2982.547, 65.21246
2984.476, 64.56248
2986.404, 65.25272
2988.333, 65.82735
2990.261, 65.83768
2992.189, 66.10255
2994.118, 66.73562
2996.046, 66.90913
2997.975, 66.52081
2999.903, 66.17377
3001.832, 65.89629
3003.760, 65.71033
3005.689, 65.61756
3007.617, 65.65269
3009.546, 65.74612
3011.474, 65.65467
3013.403, 65.53279
3015.331, 65.70891
3017.260, 65.99602
3019.188, 66.19604
3021.116, 66.37596
3023.045, 66.74437
3024.973, 66.91172
3026.902, 66.45909
3028.830, 66.03387
3030.759, 65.94199
3032.687, 65.75088
3034.616, 64.97225
3036.544, 64.84269
3038.473, 65.71845
3040.401, 66.10960
3042.330, 65.79182
3044.258, 65.63290
3046.187, 65.70645
3048.115, 65.61350
3050.043, 65.40616
3051.972, 65.50777
3053.900, 65.83850
3055.829, 66.32853
3057.757, 66.70626
3059.686, 66.19473
3061.614, 65.54623
3063.543, 65.76739
3065.471, 66.01387
3067.400, 65.55396
3069.328, 64.96694
3071.257, 64.17932
3073.185, 64.11143
3075.114, 65.56725
3077.042, 66.46214
3078.970, 65.88656
3080.899, 65.41939
3082.827, 65.07835
3084.756, 65.54597
3086.684, 66.86062
3088.613, 66.41775
3090.541, 64.55434
3092.470, 64.50923
3094.398, 65.50446
3096.327, 65.41850
3098.255, 64.95212
3100.184, 65.25025
3102.112, 65.64714
3104.041, 65.35984
3105.969, 65.04752
3107.897, 64.99953
3109.826, 65.20562
3111.754, 66.14788
3113.683, 66.31375
3115.611, 65.15154
3117.540, 64.58564
3119.468, 65.18206
3121.397, 65.27242
3123.325, 64.78197
3125.254, 64.94875
3127.182, 65.56337
3129.111, 65.49126
3131.039, 65.02977
3132.968, 64.88468
3134.896, 64.84381
3136.824, 64.63939
3138.753, 64.35972
3140.681, 63.98006
3142.610, 63.68262
3144.538, 63.30573
3146.467, 63.63917
3148.395, 65.37477
3150.324, 66.36855
3152.252, 66.01722
3154.181, 65.28716
3156.109, 64.21002
3158.038, 63.98713
3159.966, 64.50239
3161.895, 64.68074
3163.823, 64.61019
3165.751, 64.42442
3167.680, 64.23112
3169.608, 64.10175
3171.537, 64.10040
3173.465, 64.34687
3175.394, 64.62643
3177.322, 64.83252
3179.251, 65.11395
3181.179, 65.86055
3183.108, 65.83216
3185.036, 64.83780
3186.965, 64.63965
3188.893, 65.24341
3190.822, 64.80679
3192.750, 63.70647
3194.678, 63.49039
3196.607, 63.77785
3198.535, 64.15482
3200.464, 64.42780
3202.392, 64.40821
3204.321, 64.22579
3206.249, 63.83656
3208.178, 63.59645
3210.106, 63.67293
3212.035, 63.83854
3213.963, 64.09994
3215.892, 64.10828
3217.820, 63.86365
3219.749, 63.79126
3221.677, 63.86684
3223.605, 64.20214
3225.534, 64.37666
3227.462, 63.46518
3229.391, 62.54433
3231.319, 62.46437
3233.248, 62.93682
3235.176, 64.25610
3237.105, 64.90541
3239.033, 63.89375
3240.962, 63.40452
3242.890, 63.57182
3244.819, 63.49631
3246.747, 63.17778
3248.676, 62.94409
3250.604, 62.77920
3252.532, 62.53658
3254.461, 62.46638
3256.389, 63.15110
3258.318, 63.61887
3260.246, 62.69481
3262.175, 62.43117
3264.103, 63.70884
3266.032, 64.41399
3267.960, 63.97802
3269.889, 63.39119
3271.817, 62.72382
3273.746, 62.86700
3275.674, 63.42859
3277.603, 63.17175
3279.531, 62.79939
3281.459, 63.54879
3283.388, 64.11427
3285.316, 63.28425
3287.245, 62.72297
3289.173, 63.00813
3291.102, 63.32138
3293.030, 63.56817
3294.959, 63.43263
3296.887, 62.95304
3298.816, 63.49571
3300.744, 64.44335
3302.673, 64.21289
3304.601, 63.71880
3306.530, 64.24274
3308.458, 64.66058
3310.386, 64.26683
3312.315, 63.82453
3314.243, 63.48061
3316.172, 63.32299
3318.100, 63.35728
3320.029, 63.43855
3321.957, 63.56893
3323.886, 63.92966
3325.814, 64.23007
3327.743, 63.61234
3329.671, 63.09478
3331.600, 63.87937
3333.528, 64.45065
3335.457, 64.21347
3337.385, 63.83028
3339.313, 63.37249
3341.242, 63.05189
3343.170, 62.88025
3345.099, 63.02755
3347.027, 63.34479
3348.956, 63.53924
3350.884, 63.58059
3352.813, 63.16542
3354.741, 63.05307
3356.670, 64.07108
3358.598, 64.60761
3360.527, 64.28858
3362.455, 64.07021
3364.384, 64.04456
3366.312, 64.16395
3368.240, 64.33781
3370.169, 64.16659
3372.097, 63.96488
3374.026, 64.10599
3375.954, 64.36927
3377.883, 64.74246
3379.811, 64.92220
3381.740, 64.80692
3383.668, 64.49233
3385.597, 63.98637
3387.525, 64.02457
3389.454, 64.36758
3391.382, 64.23858
3393.311, 63.99628
3395.239, 64.12730
3397.167, 64.26809
3399.096, 64.10181
3401.024, 64.22542
3402.953, 64.86406
3404.881, 64.87259
3406.810, 64.21863
3408.738, 64.30390
3410.667, 64.72646
3412.595, 64.26537
3414.524, 63.65720
3416.452, 63.51102
3418.381, 63.64411
3420.309, 64.10805
3422.238, 64.37932
3424.166, 64.33182
3426.094, 64.10658
3428.023, 63.78891
3429.951, 64.11843
3431.880, 64.74178
3433.808, 65.36453
3435.737, 65.54498
3437.665, 64.68364
3439.594, 64.06136
3441.522, 64.33836
3443.451, 64.44645
3445.379, 64.36465
3447.308, 64.51670
3449.236, 64.81892
3451.165, 65.08313
3453.093, 65.18143
3455.021, 64.81918
3456.950, 64.53553
3458.878, 64.80552
3460.807, 64.64349
3462.735, 63.89959
3464.664, 63.65630
3466.592, 63.88980
3468.521, 64.20392
3470.449, 64.63847
3472.378, 65.42403
3474.306, 66.02650
3476.235, 65.87791
3478.163, 66.00600
3480.092, 66.77299
3482.020, 66.50540
3483.948, 65.23463
3485.877, 65.13493
3487.805, 65.54809
3489.734, 65.14648
3491.662, 64.94285
3493.591, 66.07732
3495.519, 66.58968
3497.448, 65.41609
3499.376, 64.91147
3501.305, 65.09647
3503.233, 65.15422
3505.162, 65.11203
3507.090, 64.94293
3509.019, 64.94086
3510.947, 65.59209
3512.875, 65.83121
3514.804, 64.91570
3516.732, 64.84914
3518.661, 65.61868
3520.589, 65.79224
3522.518, 65.68250
3524.446, 66.31155
3526.375, 66.70208
3528.303, 65.62021
3530.232, 65.09905
3532.160, 65.80385
3534.089, 66.09385
3536.017, 65.85680
3537.946, 66.06837
3539.874, 66.47337
3541.802, 66.67117
3543.731, 66.59972
3545.659, 65.93645
3547.588, 65.51627
3549.516, 65.50489
3551.445, 65.84039
3553.373, 66.44631
3555.302, 66.86026
3557.230, 66.97467
3559.159, 66.33771
3561.087, 65.89358
3563.016, 66.29616
3564.944, 66.59138
3566.873, 66.49548
3568.801, 66.83447
3570.729, 67.42407
3572.658, 67.32597
3574.586, 66.96036
3576.515, 66.57355
3578.443, 66.56755
3580.372, 67.31359
3582.300, 67.63354
3584.229, 67.39201
3586.157, 66.32488
3588.086, 65.15469
3590.014, 65.94701
3591.943, 66.88630
3593.871, 66.43757
3595.800, 66.00790
3597.728, 65.93720
3599.656, 66.38633
3601.585, 65.89352
3603.513, 66.74234
3605.442, 67.28232
3607.370, 67.52993
3609.299, 66.60977
3611.227, 67.19754
3613.156, 67.18105
3615.084, 67.13970
3617.013, 67.93979
3618.941, 66.21851
3620.870, 66.96825
3622.798, 67.40904
3624.727, 67.55755
3626.655, 66.53820
3628.583, 67.02686
3630.512, 66.91120
3632.440, 66.77074
3634.369, 67.47167
3636.297, 66.62218
3638.226, 67.66026
3640.154, 67.63916
3642.083, 67.41918
3644.011, 67.49921
3645.940, 67.86467
3647.868, 67.81446
3649.797, 67.47167
3651.725, 66.78170
3653.654, 66.44878
3655.582, 67.09488
3657.510, 67.89211
3659.439, 68.74028
3661.367, 69.13110
3663.296, 69.05592
3665.224, 68.11623
3667.153, 67.19292
3669.081, 66.91869
3671.010, 67.13618
3672.938, 67.90318
3674.867, 67.49964
3676.795, 66.33148
3678.724, 66.75335
3680.652, 67.80026
3682.581, 68.87240
3684.509, 69.35368
3686.438, 68.97559
3688.366, 68.59600
3690.294, 68.28649
3692.223, 67.85708
3694.151, 67.75851
3696.080, 68.85436
3698.008, 69.76428
3699.937, 70.00925
3701.865, 69.70950
3703.794, 68.96022
3705.722, 68.55145
3707.651, 68.49078
3709.579, 68.86951
3711.508, 69.37106
3713.436, 69.98602
3715.365, 70.30804
3717.293, 70.25840
3719.221, 69.28735
3721.150, 68.21526
3723.078, 68.41044
3725.007, 68.75322
3726.935, 68.63008
3728.864, 68.96166
3730.792, 69.70647
3732.721, 69.51498
3734.649, 69.07833
3736.578, 69.50437
3738.506, 70.06559
3740.435, 70.56767
3742.363, 70.74142
3744.292, 70.57393
3746.220, 70.04634
3748.148, 69.60847
3750.077, 70.14861
3752.005, 70.46127
3753.934, 69.76057
3755.862, 69.73330
3757.791, 70.30956
3759.719, 70.30592
3761.648, 70.04826
3763.576, 69.84755
3765.505, 69.77041
3767.433, 69.89043
3769.362, 69.95626
3771.290, 69.97036
3773.219, 69.90091
3775.147, 69.97764
3777.075, 70.44036
3779.004, 71.09245
3780.932, 72.09653
3782.861, 71.59958
3784.789, 70.22088
3786.718, 70.00288
3788.646, 70.41444
3790.575, 71.41072
3792.503, 71.67574
3794.432, 70.89174
3796.360, 70.36761
3798.289, 70.30543
3800.217, 71.49789
3802.146, 72.51513
3804.074, 72.76505
3806.002, 70.82501
3807.931, 71.50211
3809.859, 71.87031
3811.788, 71.94617
3813.716, 70.85422
3815.645, 71.27027
3817.573, 71.08199
3819.502, 70.86891
3821.430, 71.49722
3823.359, 70.57511
3825.287, 71.19007
3827.216, 71.19145
3829.144, 71.47367
3831.073, 71.14779
3833.001, 71.00974
3834.929, 71.47997
3836.858, 71.61337
3838.786, 72.22632
3840.715, 71.62086
3842.643, 70.81960
3844.572, 70.04507
3846.500, 70.64468
3848.429, 71.71141
3850.357, 72.28676
3852.286, 72.39465
3854.214, 72.03799
3856.143, 71.60104
3858.071, 71.15111
3860.000, 70.68293
3861.928, 70.51500
3863.856, 71.04313
3865.785, 71.69520
3867.713, 72.34791
3869.642, 71.95312
3871.570, 71.37183
3873.499, 72.24146
3875.427, 72.93368
3877.356, 72.80118
3879.284, 72.00727
3881.213, 71.06887
3883.141, 72.04150
3885.070, 73.25501
3886.998, 73.70825
3888.927, 73.23504
3890.855, 71.96976
3892.783, 72.84624
3894.712, 74.10177
3896.640, 73.01598
3898.569, 72.04784
3900.497, 72.04393
3902.426, 71.96442
3904.354, 71.93223
3906.283, 72.38026
3908.211, 72.50439
3910.140, 72.51827
3912.068, 72.71791
3913.997, 72.78515
3915.925, 72.05558
3917.854, 71.76163
3919.782, 73.93001
3921.710, 74.50134
3923.639, 72.77092
3925.567, 72.50545
3927.496, 73.05711
3929.424, 73.06318
3931.353, 73.24395
3933.281, 73.91122
3935.210, 73.70983
3937.138, 72.93547
3939.067, 73.10792
3940.995, 73.68734
3942.924, 73.64061
3944.852, 73.06216
3946.781, 72.81417
3948.709, 73.43134
3950.637, 73.57922
3952.566, 73.51424
3954.494, 73.94741
3956.423, 74.34188
3958.351, 74.04700
3960.280, 73.60555
3962.208, 74.36080
3964.137, 75.05933
3966.065, 75.01742
3967.994, 74.44518
3969.922, 73.83143
3971.851, 74.06345
3973.779, 74.01345
3975.708, 73.05315
3977.636, 73.52466
3979.564, 74.47631
3981.493, 74.26720
3983.421, 73.86464
3985.350, 73.82457
3987.278, 74.30973
3989.207, 74.71512
3991.135, 74.61658
3993.064, 74.42466
3994.992, 74.68696
3996.921, 74.93820
3998.849, 74.61611
4000.778, 74.36021
4002.706, 74.44376
4004.635, 74.25676
4006.563, 74.27623
4008.491, 74.83700
4010.420, 75.47495
4012.348, 75.88454
4014.277, 74.73714
4016.205, 73.54975
4018.134, 73.59447
4020.062, 74.43388
4021.991, 75.12612
4023.919, 75.08872
4025.848, 75.30553
4027.776, 75.79021
4029.705, 76.48683
4031.633, 76.94047
4033.562, 76.11932
4035.490, 75.53072
4037.418, 75.13980
4039.347, 74.58327
4041.275, 74.39612
4043.204, 74.92834
4045.132, 75.46201
4047.061, 75.60732
4048.989, 75.21534
4050.918, 74.91548
4052.846, 75.82781
4054.775, 76.54223
4056.703, 76.41479
4058.632, 76.60188
4060.560, 76.75261
4062.489, 76.07564
4064.417, 75.37669
4066.345, 74.95164
4068.274, 75.41344
4070.202, 76.54921
4072.131, 76.79472
4074.059, 76.94860
4075.988, 77.89062
4077.916, 77.89646
4079.845, 76.88902
4081.773, 76.47523
4083.702, 76.38859
4085.630, 76.59699
4087.559, 76.52206
4089.487, 76.14787
4091.416, 77.33129
4093.344, 78.48184
4095.272, 77.66074
4097.201, 76.71509
4099.129, 76.04525
4101.058, 76.70797
4102.986, 77.52422
4104.915, 77.08666
4106.843, 76.72350
4108.772, 76.65541
4110.700, 77.30379
4112.629, 77.94959
4114.557, 77.48421
4116.486, 76.96179
4118.414, 76.80293
4120.343, 77.75322
4122.271, 78.78928
4124.200, 78.81847
4126.128, 78.35646
4128.057, 77.77082
4129.985, 77.83181
4131.914, 77.88614
4133.842, 77.54309
4135.771, 77.34254
4137.699, 77.06255
4139.627, 77.67812
4141.556, 78.79636
4143.484, 79.03059
4145.413, 78.63912
4147.341, 78.25577
4149.270, 78.12373
4151.198, 77.88760
4153.126, 78.06434
4155.055, 78.55300
4156.983, 78.89816
4158.912, 78.31767
4160.840, 77.60069
4162.769, 78.14968
4164.697, 78.85611
4166.626, 79.09293
4168.554, 78.54412
4170.483, 78.20884
4172.411, 79.45066
4174.340, 79.66231
4176.268, 78.27869
4178.197, 78.04829
4180.125, 78.56640
4182.054, 79.06540
4183.982, 78.72771
4185.911, 77.34693
4187.839, 78.30339
4189.768, 80.03636
4191.696, 80.51366
4193.625, 81.09177
4195.553, 81.01838
4197.481, 80.31404
4199.410, 79.73239
4201.338, 78.53738
4203.267, 78.71359
4205.195, 80.35863
4207.124, 79.88779
4209.052, 78.95857
4210.980, 78.99492
4212.909, 79.60964
4214.837, 80.47153
4216.766, 80.34035
4218.694, 79.99861
4220.623, 80.14799
4222.551, 80.36529
4224.480, 80.48552
4226.408, 79.92269
4228.337, 79.31165
4230.265, 79.08105
4232.194, 79.43388
4234.122, 80.09793
4236.051, 80.67203
4237.979, 80.47265
4239.908, 78.84881
4241.836, 78.88332
4243.765, 79.99503
4245.693, 80.86001
4247.622, 80.97048
4249.550, 80.14848
4251.479, 80.20316
4253.407, 80.54667
4255.335, 80.14321
4257.264, 79.89519
4259.192, 79.96446
4261.121, 79.51165
4263.049, 79.35099
4264.978, 80.59904
4266.906, 81.53975
4268.834, 81.87349
4270.763, 81.03520
4272.691, 80.12672
4274.620, 79.71268
4276.548, 80.41996
4278.477, 81.68867
4280.405, 81.70850
4282.334, 81.70842
4284.262, 82.24636
4286.191, 81.43824
4288.119, 80.32134
4290.048, 81.21024
4291.976, 81.25998
4293.905, 80.01156
4295.833, 81.05568
4297.762, 82.45031
4299.690, 81.76891
4301.619, 82.09443
4303.547, 83.27746
4305.476, 82.75216
4307.404, 81.84598
4309.333, 81.30387
4311.261, 80.86314
4313.189, 80.97830
4315.118, 83.39932
4317.046, 84.68709
4318.975, 83.65960
4320.903, 82.66663
4322.832, 81.89296
4324.760, 81.51641
4326.688, 81.25349
4328.617, 81.05037
4330.545, 80.84862
4332.474, 80.62904
4334.402, 80.20214
4336.331, 80.55764
4338.259, 81.23938
4340.188, 80.76342
4342.116, 80.55641
4344.045, 81.14956
4345.973, 82.34818
4347.902, 83.24907
4349.830, 82.22388
4351.759, 82.02885
4353.687, 82.75918
4355.616, 82.33781
4357.544, 81.93486
4359.473, 82.26543
4361.401, 82.64601
4363.330, 82.85730
4365.258, 82.31382
4367.187, 82.14651
4369.115, 82.63349
4371.043, 82.15481
4372.972, 81.37992
4374.900, 80.55186
4376.829, 81.54286
4378.757, 83.55263
4380.686, 83.56880
4382.614, 82.80622
4384.542, 81.72137
4386.471, 81.38417
4388.399, 81.72803
4390.328, 82.97921
4392.256, 83.73275
4394.185, 83.78145
4396.113, 82.51701
4398.042, 82.05177
4399.970, 83.80369
4401.899, 83.69644
4403.827, 82.55067
4405.756, 81.30269
4407.684, 81.84377
4409.613, 84.08801
4411.541, 83.19643
4413.470, 82.17870
4415.398, 83.19272
4417.327, 84.38168
4419.255, 84.99618
4421.184, 82.89711
4423.112, 82.25126
4425.041, 83.81066
4426.969, 82.24266
4428.897, 80.69804
4430.826, 81.26455
4432.754, 81.36210
4434.683, 81.31239
4436.611, 82.41353
4438.540, 83.28010
4440.468, 83.61190
4442.396, 83.48721
4444.325, 83.06625
4446.253, 82.24023
4448.182, 82.34229
4450.110, 82.98818
4452.039, 83.54606
4453.967, 83.59914
4455.896, 83.05165
4457.824, 81.42866
4459.753, 80.56001
4461.681, 81.91806
4463.610, 82.91724
4465.538, 83.41141
4467.467, 83.10213
4469.395, 83.40199
4471.324, 84.27393
4473.252, 83.11388
4475.181, 82.63371
4477.109, 84.26620
4479.038, 83.80651
4480.966, 82.76126
4482.895, 83.86720
4484.823, 83.53188
4486.751, 82.01469
4488.680, 82.82380
4490.608, 83.74198
4492.537, 83.79210
4494.465, 83.73769
4496.394, 83.53358
4498.322, 83.01922
4500.250, 83.00833
4502.179, 83.30913
4504.107, 83.13306
4506.036, 83.14327
4507.964, 83.43908
4509.893, 83.24133
4511.821, 83.29267
4513.750, 84.25375
4515.678, 84.83809
4517.607, 84.86778
4519.535, 83.37306
4521.464, 84.16951
4523.392, 86.84053
4525.321, 84.98035
4527.249, 83.48786
4529.178, 84.25124
4531.106, 84.26325
4533.035, 83.79719
4534.963, 83.01219
4536.892, 83.09406
4538.820, 83.49995
4540.749, 82.42056
4542.677, 82.61630
4544.605, 84.33286
4546.534, 84.12862
4548.462, 83.64625
4550.391, 83.76805
4552.319, 83.90886
4554.248, 83.70739
4556.176, 82.60278
4558.104, 81.92467
4560.033, 81.98413
4561.961, 83.88184
4563.890, 84.34892
4565.818, 83.10225
4567.747, 84.19168
4569.675, 85.55103
4571.604, 86.17497
4573.532, 85.13122
4575.461, 83.74199
4577.389, 83.20339
4579.318, 84.33530
4581.246, 85.88209
4583.175, 84.65014
4585.103, 83.34507
4587.032, 82.71560
4588.960, 83.58512
4590.889, 84.92591
4592.817, 86.50738
4594.746, 85.50368
4596.674, 84.12520
4598.603, 84.35660
4600.531, 84.35993
4602.459, 84.09187
4604.388, 83.67699
4606.316, 83.23624
4608.245, 82.84761
4610.173, 82.51016
4612.102, 82.85756
4614.030, 84.07346
4615.958, 83.98975
4617.887, 83.86771
4619.815, 84.50538
4621.744, 84.35718
4623.672, 83.88230
4625.601, 83.35606
4627.529, 84.38798
4629.458, 85.94823
4631.386, 85.68715
4633.315, 85.06631
4635.243, 84.38691
4637.172, 83.43274
4639.100, 83.07072
4641.029, 83.56220
4642.957, 85.17118
4644.886, 85.89016
4646.814, 84.42540
4648.743, 84.63523
4650.671, 85.34058
4652.600, 84.95459
4654.528, 84.93055
4656.457, 85.00247
4658.385, 84.45405
4660.313, 83.94878
4662.242, 83.70760
4664.170, 84.28088
4666.099, 84.51475
4668.027, 84.18940
4669.956, 84.63528
4671.884, 84.83870
4673.813, 84.33031
4675.741, 83.21581
4677.669, 82.59196
4679.598, 83.29301
4681.526, 83.09611
4683.455, 82.98940
4685.383, 84.83583
4687.312, 85.73939
4689.240, 85.34814
4691.169, 82.70406
4693.097, 81.66695
4695.026, 82.32996
4696.954, 83.67879
4698.883, 84.06564
4700.811, 83.33468
4702.740, 83.36719
4704.668, 83.72290
4706.597, 84.23477
4708.525, 85.34094
4710.454, 85.55363
4712.382, 84.01492
4714.311, 84.64621
4716.239, 85.44947
4718.167, 83.97913
4720.096, 83.83078
4722.024, 84.39171
4723.953, 84.96160
4725.881, 84.47902
4727.810, 83.54174
4729.738, 83.40982
4731.667, 83.16306
4733.595, 82.91515
4735.523, 83.63852
4737.452, 83.89022
4739.380, 83.59995
4741.309, 84.02682
4743.237, 84.03584
4745.166, 83.41442
4747.094, 83.97725
4749.023, 83.95655
4750.951, 82.63376
4752.880, 81.76650
4754.808, 81.94298
4756.737, 83.43633
4758.665, 83.91317
4760.594, 84.35033
4762.522, 85.96996
4764.451, 84.95291
4766.379, 83.44442
4768.308, 83.57156
4770.236, 83.00369
4772.165, 82.52383
4774.093, 83.79652
4776.021, 84.21040
4777.950, 83.80772
4779.878, 82.55474
4781.807, 83.28477
4783.735, 84.96873
4785.664, 84.65520
4787.592, 84.65623
4789.521, 84.95364
4791.449, 84.34850
4793.377, 83.64010
4795.306, 83.20780
4797.234, 84.18482
4799.163, 84.24998
4801.091, 83.19682
4803.020, 83.06393
4804.948, 83.25223
4806.877, 83.67236
4808.805, 85.54936
4810.734, 85.83348
4812.662, 83.69805
4814.591, 83.06628
4816.519, 83.76182
4818.448, 85.43374
4820.376, 84.00336
4822.305, 82.77830
4824.233, 83.38976
4826.162, 85.21641
4828.090, 85.85992
4830.019, 84.14910
4831.947, 83.78963
4833.875, 83.73430
4835.804, 83.21286
4837.732, 84.12563
4839.661, 84.62972
4841.589, 83.49909
4843.518, 82.73225
4845.446, 82.89559
4847.375, 84.50643
4849.303, 85.47573
4851.231, 85.42583
4853.160, 83.97343
4855.088, 84.57574
4857.017, 85.39680
4858.945, 84.76540
4860.874, 84.14058
4862.802, 83.42724
4864.731, 82.43092
4866.659, 82.98068
4868.588, 83.92506
4870.516, 84.08992
4872.445, 84.89461
4874.373, 85.18102
4876.302, 83.81020
4878.230, 83.81640
4880.159, 84.26575
4882.087, 84.11137
4884.016, 83.91800
4885.944, 83.57355
4887.873, 82.90468
4889.801, 83.86629
4891.729, 84.87395
4893.658, 84.31465
4895.586, 83.04939
4897.515, 82.30511
4899.443, 83.06699
4901.372, 83.52721
4903.300, 83.94587
4905.229, 84.82898
4907.157, 84.04255
4909.085, 83.56575
4911.014, 84.82424
4912.942, 83.68210
4914.871, 82.36344
4916.799, 82.58991
4918.728, 82.98083
4920.656, 83.31176
4922.585, 83.48356
4924.513, 83.94221
4926.442, 84.68636
4928.370, 85.67354
4930.299, 85.42295
4932.227, 84.54166
4934.156, 83.34695
4936.084, 82.99222
4938.013, 82.95229
4939.941, 82.99049
4941.870, 83.05277
4943.798, 83.06606
4945.727, 83.00786
4947.655, 82.75772
4949.583, 82.77091
4951.512, 83.14103
4953.440, 83.83756
4955.369, 84.33082
4957.297, 84.34717
4959.226, 82.71886
4961.154, 82.62949
4963.083, 83.96758
4965.011, 84.36038
4966.939, 82.74430
4968.868, 80.60938
4970.796, 82.71604
4972.725, 83.84525
4974.653, 83.67146
4976.582, 82.85680
4978.510, 83.50433
4980.439, 84.71962
4982.367, 85.10013
4984.296, 83.72157
4986.224, 82.60617
4988.153, 84.30721
4990.081, 84.16907
4992.010, 83.36038
4993.938, 83.30642
4995.867, 82.56466
4997.795, 82.48402
4999.724, 84.04445
5001.652, 83.27632
5003.581, 82.74725
5005.509, 83.65838
5007.438, 84.28508
5009.366, 84.33138
5011.294, 83.83409
5013.223, 84.24313
5015.151, 83.83997
5017.080, 82.77359
5019.008, 83.53889
5020.937, 83.89458
5022.865, 83.63003
5024.793, 83.43344
5026.722, 83.24667
5028.650, 82.93293
5030.579, 82.16044
5032.507, 82.15308
5034.436, 82.56822
5036.364, 83.00932
5038.293, 82.76875
5040.221, 82.39078
5042.150, 82.30562
5044.078, 82.45591
5046.007, 82.40828
5047.935, 81.98217
5049.864, 82.27908
5051.792, 83.03740
5053.721, 83.94203
5055.649, 83.55756
5057.578, 82.35126
5059.506, 81.23325
5061.435, 82.95559
5063.363, 83.41650
5065.292, 82.70612
5067.220, 82.02805
5069.148, 82.30434
5071.077, 82.58414
5073.005, 81.62897
5074.934, 81.63799
5076.862, 82.09763
5078.791, 82.55815
5080.719, 82.14128
5082.647, 82.36314
5084.576, 83.59603
5086.504, 82.88212
5088.433, 82.34603
5090.361, 82.46915
5092.290, 82.57449
5094.218, 83.22163
5096.147, 83.89656
5098.075, 83.24043
5100.004, 83.29770
5101.932, 83.34219
5103.861, 82.11938
5105.789, 83.27973
5107.718, 84.48385
5109.646, 83.97511
5111.575, 82.70527
5113.503, 83.14388
5115.432, 85.23576
5117.360, 83.52354
5119.289, 82.27856
5121.217, 82.28915
5123.146, 83.00977
5125.074, 83.92403
5127.002, 84.30177
5128.931, 83.24068
5130.859, 82.16413
5132.788, 81.86522
5134.716, 82.81247
5136.645, 83.01454
5138.573, 83.37867
5140.501, 83.97749
5142.430, 81.36195
5144.358, 81.52670
5146.287, 83.65315
5148.215, 82.14857
5150.144, 82.23575
5152.072, 82.76660
5154.001, 81.32464
5155.929, 81.32955
5157.858, 81.79411
5159.786, 82.07232
5161.715, 82.71822
5163.643, 83.18209
5165.572, 83.31245
5167.500, 83.34940
5169.429, 83.04887
5171.357, 82.71658
5173.286, 82.92697
5175.214, 83.70972
5177.143, 83.75990
5179.071, 82.08427
5181.000, 82.23057
5182.928, 82.73570
5184.856, 82.82790
5186.785, 82.07832
5188.713, 81.49085
5190.642, 81.49389
5192.570, 82.65612
5194.499, 83.04701
5196.427, 83.02275
5198.355, 83.11934
5200.284, 83.41460
5202.212, 83.06444
5204.141, 81.95477
5206.069, 82.31222
5207.998, 81.99102
5209.926, 81.49071
5211.855, 83.30630
5213.783, 83.67010
5215.712, 83.03538
5217.640, 81.73592
5219.569, 83.75340
5221.497, 84.33100
5223.426, 82.35197
5225.354, 82.66586
5227.283, 82.24267
5229.211, 81.36919
5231.140, 81.60806
5233.068, 82.99353
5234.997, 83.38992
5236.925, 81.28934
5238.854, 81.75851
5240.782, 82.66154
5242.710, 83.10316
5244.639, 82.99724
5246.567, 81.70415
5248.496, 80.61373
5250.424, 82.04248
5252.353, 82.57552
5254.281, 82.49200
5256.209, 82.21049
5258.138, 83.70379
5260.066, 83.34060
5261.995, 81.73705
5263.923, 82.24266
5265.852, 82.99355
5267.780, 83.07005
5269.709, 81.83244
5271.637, 82.40784
5273.566, 83.13331
5275.494, 83.17879
5277.423, 81.43953
5279.351, 80.76185
5281.280, 81.14792
5283.208, 82.58183
5285.137, 81.96021
5287.065, 81.71107
5288.994, 82.60625
5290.922, 82.32287
5292.851, 81.58764
5294.779, 81.16922
5296.708, 82.32990
5298.636, 81.01340
5300.564, 80.26486
5302.493, 81.80440
5304.421, 82.44663
5306.350, 82.36831
5308.278, 82.05153
5310.207, 82.31358
5312.135, 82.07153
5314.063, 81.58699
5315.992, 81.15598
5317.920, 81.91744
5319.849, 82.38656
5321.777, 82.14458
5323.706, 81.06709
5325.634, 80.69627
5327.563, 81.22229
5329.491, 82.46127
5331.420, 82.59681
5333.348, 81.47826
5335.277, 80.02532
5337.205, 80.39555
5339.134, 81.58298
5341.062, 82.05647
5342.991, 80.95466
5344.919, 81.04862
5346.848, 80.90456
5348.776, 80.69514
5350.705, 81.98584
5352.633, 81.93993
5354.562, 81.10014
5356.490, 80.03881
5358.418, 81.14775
5360.347, 80.94125
5362.275, 79.88240
5364.204, 80.45328
5366.132, 81.63235
5368.061, 82.01616
5369.989, 81.04921
5371.917, 80.30471
5373.846, 79.69563
5375.774, 79.29419
5377.703, 79.28525
5379.631, 78.86655
5381.560, 79.81493
5383.488, 82.21848
5385.417, 82.82027
5387.345, 81.12097
5389.274, 79.28378
5391.202, 79.81996
5393.131, 78.99169
5395.059, 79.77994
5396.988, 81.96365
5398.916, 81.03621
5400.845, 80.26640
5402.773, 80.03913
5404.702, 80.23524
5406.630, 80.03395
5408.559, 80.47970
5410.487, 81.15192
5412.416, 80.63515
5414.344, 79.92028
5416.272, 79.96156
5418.201, 80.82430
5420.129, 79.71655
5422.058, 78.81390
5423.986, 79.00274
5425.915, 80.70101
5427.843, 81.43172
5429.771, 81.35654
5431.700, 80.61944
5433.628, 78.69434
5435.557, 79.18454
5437.485, 80.42503
5439.414, 81.05563
5441.342, 80.33131
5443.271, 80.65108
5445.199, 80.73683
5447.128, 78.36841
5449.056, 78.90215
5450.985, 79.88177
5452.913, 80.16408
5454.842, 79.33541
5456.770, 80.85094
5458.699, 81.45091
5460.627, 79.21419
5462.556, 80.25365
5464.484, 80.12370
5466.413, 79.15156
5468.341, 78.87577
5470.270, 78.30451
5472.198, 78.06255
5474.126, 78.20363
5476.055, 78.33430
5477.983, 77.67117
5479.912, 77.70938
5481.840, 78.92713
5483.769, 78.51174
5485.697, 78.29301
5487.625, 78.47215
5489.554, 78.85352
5491.482, 78.71406
5493.411, 78.17383
5495.339, 77.93755
5497.268, 79.59002
5499.196, 78.81863
5501.125, 77.67152
5503.053, 77.21728
5504.982, 77.60108
5506.910, 79.24417
5508.839, 79.75939
5510.767, 78.14720
5512.696, 77.91258
5514.624, 79.01090
5516.553, 80.03559
5518.481, 79.70771
5520.410, 80.11971
5522.338, 78.85982
5524.267, 77.40224
5526.195, 79.87160
5528.124, 78.28989
5530.052, 77.80285
5531.980, 78.97132
5533.909, 77.97410
5535.837, 78.04858
5537.766, 78.31883
5539.694, 78.17728
5541.623, 77.88865
5543.551, 77.96367
5545.479, 77.96461
5547.408, 77.61660
5549.336, 78.59519
5551.265, 78.39698
5553.193, 77.62330
5555.122, 77.34506
5557.050, 75.24562
5558.979, 76.30447
5560.907, 78.40952
5562.836, 77.22282
5564.764, 76.24276
5566.693, 75.92070
5568.621, 76.03777
5570.550, 75.84693
5572.478, 77.27090
5574.407, 78.31523
5576.335, 78.32098
5578.264, 77.82639
5580.192, 76.62984
5582.121, 76.20779
5584.049, 76.66732
5585.978, 75.68981
5587.906, 76.55967
5589.834, 77.66223
5591.763, 77.72197
5593.691, 76.13135
5595.620, 76.25579
5597.548, 76.87341
5599.477, 76.86874
5601.405, 76.74702
5603.333, 76.10274
5605.262, 75.77437
5607.190, 76.37154
5609.119, 76.55241
5611.047, 77.09390
5612.976, 77.17437
5614.904, 76.12786
5616.833, 75.70500
5618.761, 76.26313
5620.690, 76.58264
5622.618, 75.51205
5624.547, 75.80388
5626.475, 75.57620
5628.404, 75.29385
5630.332, 76.02341
5632.261, 75.59018
5634.189, 75.84556
5636.118, 76.35986
5638.046, 76.14441
5639.975, 75.60532
5641.903, 75.20995
5643.832, 74.83578
5645.760, 74.27315
5647.688, 74.76331
5649.617, 74.88571
5651.545, 74.92586
5653.474, 75.74788
5655.402, 74.07291
5657.331, 73.46160
5659.259, 74.20433
5661.188, 75.53197
5663.116, 74.46521
5665.044, 73.92962
5666.973, 74.24160
5668.901, 74.84039
5670.830, 74.32652
5672.758, 74.56654
5674.687, 75.12580
5676.615, 75.18208
5678.544, 75.26283
5680.472, 74.47548
5682.401, 73.46312
5684.329, 73.00253
5686.258, 74.43884
5688.186, 74.54746
5690.115, 74.08270
5692.043, 74.18428
5693.972, 75.19369
5695.900, 73.79523
5697.829, 73.28690
5699.757, 75.28917
5701.686, 73.93980
5703.614, 72.76871
5705.542, 72.20383
5707.471, 72.21791
5709.399, 73.33750
5711.328, 72.63552
5713.256, 72.76127
5715.185, 74.07748
5717.113, 72.63113
5719.042, 72.23521
5720.970, 72.90096
5722.898, 73.81841
5724.827, 73.42664
5726.755, 73.77048
5728.684, 73.78365
5730.612, 73.56698
5732.541, 73.85548
5734.469, 73.09025
5736.398, 72.83167
5738.326, 73.30310
5740.255, 74.06252
5742.183, 72.65274
5744.112, 72.84975
5746.040, 73.60745
5747.969, 73.35088
5749.897, 71.36767
5751.826, 71.07579
5753.754, 71.80116
5755.683, 72.50220
5757.611, 72.00514
5759.540, 71.24986
5761.468, 71.03338
5763.396, 71.15671
5765.325, 70.41030
5767.253, 70.84743
5769.182, 71.39085
5771.110, 71.43821
5773.039, 70.84399
5774.967, 71.30067
5776.896, 71.37626
5778.824, 71.41994
5780.752, 71.95447
5782.681, 72.15873
5784.609, 70.81348
5786.538, 69.64587
5788.466, 69.59411
5790.395, 69.56283
5792.323, 69.62246
5794.252, 70.23130
5796.180, 71.04414
5798.109, 70.82835
5800.037, 72.09225
5801.966, 71.57307
5803.894, 69.73933
5805.823, 68.47848
5807.751, 71.57322
5809.680, 70.58530
5811.608, 68.84872
5813.537, 69.42964
5815.465, 70.59727
5817.394, 69.64808
5819.322, 69.26690
5821.250, 70.10325
5823.179, 70.86649
5825.107, 70.10981
5827.036, 70.04842
5828.964, 70.37561
5830.893, 70.21152
5832.821, 70.28023
5834.750, 70.23199
5836.678, 69.79869
5838.606, 69.10434
5840.535, 68.89452
5842.463, 69.16469
5844.392, 68.77845
5846.320, 68.42587
5848.249, 69.57786
5850.177, 70.79939
5852.106, 70.39517
5854.034, 69.69350
5855.963, 69.87373
5857.891, 70.69592
5859.820, 69.26497
5861.748, 68.71298
5863.677, 69.05564
5865.605, 68.22084
5867.534, 67.98437
5869.462, 68.69517
5871.391, 69.80925
5873.319, 70.32822
5875.248, 67.01295
5877.176, 68.67348
5879.104, 68.06091
5881.033, 66.19131
5882.961, 70.83752
5884.890, 69.01390
5886.818, 69.41917
5888.747, 70.33264
5890.675, 69.21945
5892.604, 67.88551
5894.532, 68.42355
5896.460, 68.01817
5898.389, 66.94233
5900.317, 67.42358
5902.246, 68.88111
5904.174, 67.76153
5906.103, 66.67046
5908.031, 67.43935
5909.960, 68.64376
5911.888, 67.80818
5913.817, 67.26399
5915.745, 67.09968
5917.674, 66.51662
5919.602, 66.37969
5921.531, 66.55491
5923.459, 66.66231
5925.388, 66.62002
5927.316, 66.65334
5929.245, 65.15229
5931.173, 65.99951
5933.102, 67.03708
5935.030, 66.24441
5936.958, 65.37901
5938.887, 66.02763
5940.815, 66.36737
5942.744, 66.41476
5944.672, 65.29436
5946.601, 65.68192
5948.529, 65.46519
5950.458, 65.22363
5952.386, 65.82347
5954.314, 64.87293
5956.243, 65.45940
5958.171, 65.43235
5960.100, 65.68607
5962.028, 65.33176
5963.957, 65.16521
5965.885, 65.60699
5967.814, 65.71191
5969.742, 65.28758
5971.671, 65.55917
5973.599, 64.58737
5975.528, 64.70666
5977.456, 65.29671
5979.385, 64.90295
5981.313, 65.18566
5983.242, 65.21072
5985.170, 64.06496
5987.099, 64.95538
5989.027, 64.96526
5990.956, 64.07090
5992.884, 64.89159
5994.813, 64.12189
5996.741, 63.91988
5998.669, 64.14508
6000.598, 63.92489
6002.526, 64.40688
6004.455, 64.21242
6006.383, 63.95756
6008.312, 63.96640
6010.240, 63.22791
6012.168, 63.87593
6014.097, 63.57682
6016.025, 63.74852
6017.954, 63.36168
6019.882, 63.62459
6021.811, 62.82029
6023.739, 62.87264
6025.668, 63.20811
6027.596, 62.72593
6029.525, 62.87775
6031.453, 62.83591
6033.382, 62.25800
6035.310, 62.01802
6037.239, 62.83943
6039.167, 62.49887
6041.096, 63.21574
6043.024, 62.76323
6044.953, 61.94453
6046.881, 62.52974
6048.810, 62.20203
6050.738, 61.08968
6052.667, 61.18810
6054.595, 62.31588
6056.523, 63.17197
6058.452, 62.27227
6060.380, 63.29162
6062.309, 63.53245
6064.237, 62.00303
6066.166, 59.52621
6068.094, 60.69830
6070.022, 61.48611
6071.951, 60.85806
6073.879, 60.37742
6075.808, 61.49617
6077.736, 61.35938
6079.665, 60.59898
6081.593, 61.35930
6083.522, 62.25321
6085.450, 61.67456
6087.379, 61.49277
6089.307, 61.47972
6091.236, 61.41311
6093.164, 61.05287
6095.093, 60.59200
6097.021, 61.33529
6098.950, 61.52757
6100.878, 61.16499
6102.807, 60.46744
6104.735, 59.90456
6106.664, 60.35014
6108.592, 61.34829
6110.521, 61.63366
6112.449, 61.42730
6114.377, 60.82422
6116.306, 59.32505
6118.234, 59.68709
6120.163, 59.77134
6122.091, 60.13371
6124.020, 60.64906
6125.948, 60.57727
6127.876, 59.96455
6129.805, 58.97521
6131.733, 58.50347
6133.662, 58.17505
6135.590, 57.67043
6137.519, 58.78883
6139.447, 58.89382
6141.376, 58.51821
6143.304, 58.71835
6145.233, 59.51936
6147.161, 59.65631
6149.090, 58.74516
6151.018, 59.51801
6152.947, 59.95900
6154.875, 59.22930
6156.804, 58.06035
6158.732, 57.36796
6160.661, 57.51944
6162.589, 57.94322
6164.518, 58.17250
6166.446, 58.10424
6168.375, 58.12384
6170.303, 58.36953
6172.231, 58.87713
6174.160, 58.32723
6176.088, 56.91710
6178.017, 56.42000
6179.945, 56.92930
6181.874, 57.20229
6183.802, 56.97882
6185.730, 57.26994
6187.659, 58.44496
6189.587, 57.17333
6191.516, 57.53521
6193.444, 57.98893
6195.373, 57.50353
6197.301, 56.88245
6199.230, 58.09022
6201.158, 57.40231
6203.087, 57.95996
6205.015, 57.52821
6206.944, 56.77150
6208.872, 57.00080
6210.801, 57.20688
6212.729, 57.28345
6214.658, 55.82772
6216.586, 54.84330
6218.515, 55.28919
6220.443, 56.40310
6222.372, 56.36702
6224.300, 55.37691
6226.229, 54.57778
6228.157, 55.04718
6230.085, 56.49907
6232.014, 57.12831
6233.942, 54.45962
6235.871, 55.95243
6237.799, 55.87360
6239.728, 54.69165
6241.656, 55.11159
6243.584, 55.09124
6245.513, 54.45969
6247.441, 55.37864
6249.370, 55.37211
6251.298, 54.44735
6253.227, 54.26329
6255.155, 53.48003
6257.084, 54.03342
6259.012, 54.92458
6260.941, 55.24075
6262.869, 55.42350
6264.798, 56.45520
6266.726, 56.74150
6268.655, 55.39363
6270.583, 54.08207
6272.512, 53.56324
6274.440, 54.01308
6276.369, 55.23346
6278.297, 54.27156
6280.226, 54.41429
6282.154, 53.38783
6284.083, 53.40661
6286.011, 54.96989
6287.939, 54.20045
6289.868, 54.56343
6291.796, 54.03190
6293.725, 54.02454
6295.653, 54.63289
6297.582, 55.09703
6299.510, 54.55453
6301.438, 54.97230
6303.367, 53.79108
6305.295, 53.54132
6307.224, 53.98270
6309.152, 54.06858
6311.081, 53.74532
6313.009, 53.52005
6314.938, 54.72930
6316.866, 54.16745
6318.795, 52.47295
6320.723, 51.95598
6322.652, 53.83648
6324.580, 54.57140
6326.509, 52.41903
6328.437, 52.90796
6330.366, 54.09476
6332.294, 53.82948
6334.223, 52.95299
6336.151, 53.03138
6338.080, 52.61284
6340.008, 52.70170
6341.937, 52.49928
6343.865, 52.25378
6345.793, 52.48525
6347.722, 50.49214
6349.650, 51.08518
6351.579, 51.27544
6353.507, 52.20543
6355.436, 53.99326
6357.364, 54.75282
6359.292, 50.69984
6361.221, 51.55469
6363.149, 51.77568
6365.078, 51.60926
6367.006, 50.72691
6368.935, 49.78897
6370.863, 51.03204
6372.792, 50.76835
6374.720, 50.29775
6376.649, 49.13171
6378.577, 50.16400
6380.506, 51.73871
6382.434, 50.42952
6384.363, 49.25505
6386.291, 51.01552
6388.220, 50.47018
6390.148, 49.55913
6392.077, 49.91631
6394.005, 50.95150
6395.934, 50.83474
6397.862, 49.98296
6399.791, 50.76470
6401.719, 50.97828
6403.647, 50.68754
6405.576, 50.45760
6407.504, 50.31431
6409.433, 49.81239
6411.361, 50.04945
6413.290, 48.63655
6415.218, 48.43316
6417.146, 49.58569
6419.075, 50.09619
6421.003, 48.37495
6422.932, 47.65580
6424.860, 50.00246
6426.789, 49.89558
6428.717, 49.04225
6430.646, 48.66619
6432.574, 48.55709
6434.503, 48.71430
6436.431, 50.40838
6438.360, 50.16824
6440.288, 48.78445
6442.217, 48.49385
6444.145, 48.34564
6446.074, 47.47750
6448.002, 49.21271
6449.931, 49.43248
6451.859, 49.16923
6453.788, 49.03223
6455.716, 48.26802
6457.645, 48.50979
6459.573, 50.68789
6461.501, 48.77813
6463.430, 50.75556
6465.358, 47.72216
6467.287, 47.01647
6469.215, 47.94252
6471.144, 48.19749
6473.072, 47.97013
6475.000, 48.48746
6476.929, 47.17273
6478.857, 47.91018
6480.786, 48.11438
6482.714, 47.29181
6484.643, 47.11919
6486.571, 48.16211
6488.500, 47.66023
6490.428, 49.76587
6492.357, 47.12934
6494.285, 46.85398
6496.214, 47.39386
6498.142, 47.64456
6500.071, 47.53384
6501.999, 45.35926
6503.928, 46.38937
6505.856, 47.39788
6507.785, 46.55052
6509.713, 46.17631
6511.642, 46.54753
6513.570, 46.83255
6515.499, 46.63311
6517.427, 45.00219
6519.355, 47.00861
6521.284, 47.36396
6523.212, 45.46001
6525.141, 45.33525
6527.069, 46.56226
6528.998, 46.26130
6530.926, 46.56652
6532.854, 45.42419
6534.783, 45.98747
6536.711, 44.80332
6538.640, 44.98018
6540.568, 46.28886
6542.497, 46.34940
6544.425, 45.08412
6546.354, 44.92330
6548.282, 44.06960
6550.211, 44.64418
6552.139, 45.86037
6554.068, 44.80950
6555.996, 43.68469
6557.925, 45.00742
6559.853, 45.10487
6561.782, 44.83794
6563.710, 43.90035
6565.639, 44.74331
6567.567, 44.69445
6569.496, 44.36950
6571.424, 44.12624
6573.353, 43.72654
6575.281, 45.19395
6577.209, 44.70012
6579.138, 44.92757
6581.066, 45.11870
6582.995, 44.15635
6584.923, 43.44383
6586.852, 43.75322
6588.780, 44.02283
6590.708, 42.55761
6592.637, 43.66036
6594.565, 43.70465
6596.494, 43.43467
6598.422, 44.18091
6600.351, 44.31625
6602.279, 43.62992
6604.208, 43.54651
6606.136, 43.35125
6608.065, 42.89754
6609.993, 44.29473
6611.922, 43.46726
6613.850, 42.19476
6615.779, 41.83004
6617.707, 41.91438
6619.636, 42.18431
6621.564, 43.48075
6623.493, 42.78774
6625.421, 41.47003
6627.350, 41.43399
6629.278, 41.42698
##END=



