##NAMES=Diaspore
##RRUFFID=R060546
##IDEAL CHEMISTRY=AlO(OH)
##LOCALITY=Turkey
##OWNER=RRUFF
##SOURCE=Gemological Institute of America
##DESCRIPTION=Platy transparent pale yellow fragment
##STATUS=The identification of this mineral has been confirmed by X-ray diffraction and chemical analysis
##URL=https://www.rruff.net/odr/rruff_sample/R060546
##MEASURED CHEMISTRY=(Al_0.99_Fe^3+^_0.01_)O(OH) ; OH estimated by difference  Fe^3+^ by charge balance
##DIFFRACTION SAMPLE DESCRIPTION=Powder
##CELL PARAMETERS=a: 4.4035 b: 9.4324 c: 2.84753 alpha: 90 beta: 90 gamma: 90 volume: 118.276 crystal system: orthorhombic
##FILETYPE=Raman Processed
##RAMAN WAVELENGTH=780

131.6289, 232.4905
133.5574, 231.3302
135.4858, 227.4403
137.4143, 227.5904
139.3428, 233.2292
141.2712, 245.2854
143.1997, 267.9738
145.1281, 301.6901
147.0566, 338.9732
148.9851, 390.5653
150.9135, 426.4116
152.8420, 435.2296
154.7705, 420.7703
156.6989, 382.3693
158.6274, 320.2324
160.5559, 265.6768
162.4843, 221.3992
164.4128, 188.0749
166.3413, 167.9044
168.2697, 156.2550
170.1982, 148.8234
172.1267, 145.2685
174.0551, 142.6695
175.9836, 140.8947
177.9121, 139.9172
179.8405, 140.2864
181.7690, 140.8390
183.6975, 140.6099
185.6259, 139.6770
187.5544, 138.3605
189.4829, 136.5550
191.4113, 134.7678
193.3398, 133.0360
195.2683, 131.4487
197.1967, 129.9333
199.1252, 128.6583
201.0537, 128.0100
202.9821, 128.0770
204.9106, 127.9546
206.8391, 127.1935
208.7675, 126.5717
210.6960, 126.3247
212.6245, 126.3545
214.5529, 126.6301
216.4814, 127.1131
218.4099, 127.4057
220.3383, 127.2251
222.2668, 127.2270
224.1953, 127.7338
226.1237, 128.2631
228.0522, 128.4191
229.9807, 128.3148
231.9091, 128.1397
233.8376, 127.8332
235.7661, 127.6463
237.6945, 127.8203
239.6230, 127.8576
241.5515, 127.2812
243.4799, 126.6281
245.4084, 126.6073
247.3369, 127.2668
249.2654, 127.5280
251.1938, 126.8552
253.1223, 126.5188
255.0508, 126.9612
256.9792, 127.5179
258.9077, 127.6370
260.8362, 127.5405
262.7646, 127.9025
264.6931, 129.1026
266.6216, 129.8117
268.5500, 129.7744
270.4785, 129.6397
272.4070, 129.4454
274.3354, 129.4271
276.2639, 129.8729
278.1924, 130.7357
280.1208, 131.4044
282.0493, 131.6564
283.9778, 132.3253
285.9062, 133.5646
287.8347, 135.1203
289.7632, 136.4615
291.6916, 138.2574
293.6201, 141.3598
295.5486, 145.8049
297.4770, 152.0393
299.4055, 160.3376
301.3340, 169.3911
303.2624, 179.5683
305.1909, 189.5547
307.1194, 198.6910
309.0478, 207.0928
310.9763, 213.9750
312.9048, 218.6489
314.8332, 228.0212
316.7617, 239.6876
318.6902, 263.0063
320.6186, 305.7172
322.5471, 357.0212
324.4756, 421.9364
326.4040, 488.3041
328.3325, 529.0653
330.2609, 544.7189
332.1894, 524.2188
334.1179, 455.1324
336.0463, 381.8467
337.9748, 310.3682
339.9033, 249.2939
341.8317, 205.5051
343.7602, 175.9641
345.6887, 155.8679
347.6171, 144.4729
349.5456, 136.1749
351.4741, 131.1331
353.4025, 127.3066
355.3310, 124.1575
357.2595, 121.9055
359.1879, 121.1301
361.1164, 121.1638
363.0449, 120.7563
364.9733, 120.0005
366.9018, 119.4683
368.8303, 119.1282
370.7587, 119.2872
372.6872, 120.5013
374.6157, 121.5916
376.5441, 121.9385
378.4726, 121.9332
380.4011, 122.2079
382.3295, 122.5820
384.2580, 122.2289
386.1865, 120.8166
388.1149, 119.8591
390.0434, 119.8767
391.9719, 119.9755
393.9003, 119.6475
395.8288, 119.5138
397.7573, 120.2324
399.6857, 121.5747
401.6142, 122.7653
403.5427, 123.4958
405.4711, 126.4413
407.3996, 131.1841
409.3281, 139.3003
411.2565, 149.6617
413.1850, 165.0306
415.1135, 188.2066
417.0419, 216.9203
418.9704, 249.1483
420.8989, 284.6176
422.8273, 319.4433
424.7558, 356.1053
426.6843, 386.5679
428.6127, 399.7945
430.5412, 421.6866
432.4697, 443.2036
434.3981, 494.7804
436.3266, 598.0685
438.2551, 747.0334
440.1835, 944.3119
442.1120, 1210.086
444.0405, 1398.187
445.9689, 1535.087
447.8974, 1545.063
449.8259, 1364.949
451.7543, 1132.873
453.6828, 872.7261
455.6113, 632.5746
457.5397, 456.7630
459.4682, 338.2015
461.3967, 253.5506
463.3251, 208.3814
465.2536, 175.7703
467.1821, 158.2095
469.1105, 145.9963
471.0390, 138.7271
472.9675, 133.3931
474.8959, 128.5873
476.8244, 124.7190
478.7529, 122.3959
480.6813, 121.2864
482.6098, 120.2383
484.5383, 119.2089
486.4667, 119.4121
488.3952, 121.0039
490.3237, 123.4355
492.2521, 127.3242
494.1806, 130.7372
496.1091, 133.9085
498.0375, 135.3563
499.9660, 133.1413
501.8945, 128.1873
503.8229, 122.4881
505.7514, 116.2001
507.6799, 111.4514
509.6083, 108.4741
511.5368, 106.0987
513.4653, 103.8656
515.3937, 102.6478
517.3222, 103.2677
519.2507, 104.2487
521.1791, 104.6796
523.1076, 104.8291
525.0361, 105.0217
526.9645, 105.2800
528.8930, 105.7224
530.8215, 106.3552
532.7499, 106.9932
534.6784, 107.5228
536.6069, 108.2970
538.5353, 108.9941
540.4638, 110.4521
542.3923, 112.9994
544.3207, 116.4999
546.2492, 121.7064
548.1777, 127.4029
550.1061, 131.7519
552.0346, 134.5821
553.9631, 134.6012
555.8915, 131.3076
557.8200, 127.2647
559.7485, 121.8525
561.6769, 117.1367
563.6054, 113.3805
565.5339, 110.4660
567.4623, 108.6170
569.3908, 107.3447
571.3193, 106.2093
573.2477, 105.2953
575.1762, 104.8227
577.1047, 104.7755
579.0331, 104.8022
580.9616, 104.8376
582.8901, 105.1288
584.8185, 105.8252
586.7470, 106.5093
588.6755, 107.0618
590.6039, 107.7239
592.5324, 108.6166
594.4609, 109.5906
596.3893, 110.3663
598.3178, 111.2554
600.2463, 113.0340
602.1747, 115.4593
604.1032, 116.9519
606.0317, 117.4494
607.9601, 117.3937
609.8886, 116.8502
611.8171, 115.5850
613.7455, 113.0967
615.6740, 110.8765
617.6025, 109.5471
619.5309, 108.4386
621.4594, 106.9409
623.3879, 105.7345
625.3163, 105.4020
627.2448, 105.7843
629.1733, 106.6742
631.1017, 108.0435
633.0302, 109.4348
634.9587, 110.8164
636.8871, 112.5545
638.8156, 114.6509
640.7441, 117.1541
642.6725, 120.1163
644.6010, 123.3986
646.5295, 126.7984
648.4579, 130.7564
650.3864, 135.0183
652.3149, 140.3538
654.2433, 147.8423
656.1718, 156.6939
658.1003, 166.3745
660.0287, 176.2867
661.9572, 183.8755
663.8857, 189.0676
665.8141, 189.1448
667.7426, 183.7398
669.6711, 175.0973
671.5995, 162.3326
673.5280, 150.0278
675.4565, 138.9663
677.3849, 129.3814
679.3134, 121.2482
681.2419, 114.8177
683.1703, 110.6530
685.0988, 107.8169
687.0273, 105.5900
688.9557, 103.7979
690.8842, 102.1003
692.8127, 100.6144
694.7411, 99.69582
696.6696, 99.28831
698.5980, 98.73524
700.5265, 97.92568
702.4550, 97.54681
704.3834, 97.95664
706.3119, 98.14828
708.2404, 97.82845
710.1688, 97.54292
712.0973, 97.60582
714.0258, 97.45487
715.9542, 96.44758
717.8827, 95.55029
719.8112, 95.74917
721.7396, 96.35073
723.6681, 96.52331
725.5966, 96.43787
727.5250, 96.44794
729.4535, 96.55490
731.3820, 96.68346
733.3104, 96.83871
735.2389, 96.91307
737.1674, 96.90401
739.0958, 96.76094
741.0243, 96.24345
742.9528, 96.05480
744.8812, 96.60590
746.8097, 96.84208
748.7382, 96.22447
750.6666, 95.68868
752.5951, 95.73235
754.5236, 95.91276
756.4520, 95.96426
758.3805, 95.96455
760.3090, 96.05589
762.2374, 96.15489
764.1659, 95.99355
766.0944, 95.68938
768.0228, 95.63115
769.9513, 95.77870
771.8798, 95.96925
773.8082, 96.23738
775.7367, 96.27116
777.6652, 95.98164
779.5936, 96.16751
781.5221, 97.03268
783.4506, 97.49311
785.3790, 97.28129
787.3075, 97.01514
789.2360, 96.84440
791.1644, 96.70485
793.0929, 96.55091
795.0214, 96.40305
796.9498, 96.31184
798.8783, 96.23374
800.8068, 96.15038
802.7352, 96.03096
804.6637, 95.95483
806.5922, 95.75255
808.5206, 94.93581
810.4491, 93.92503
812.3776, 93.64367
814.3060, 93.93672
816.2345, 94.38618
818.1630, 94.91985
820.0914, 94.92684
822.0199, 93.85201
823.9484, 94.56960
825.8768, 94.96395
827.8053, 95.05244
829.7338, 93.91898
831.6622, 94.36341
833.5907, 94.21664
835.5192, 94.11836
837.4476, 93.93095
839.3761, 93.72987
841.3046, 93.53161
843.2330, 93.34083
845.1615, 93.16341
847.0900, 92.96777
849.0184, 92.65926
850.9469, 92.41627
852.8754, 92.43910
854.8038, 92.51382
856.7323, 92.52279
858.6608, 92.38063
860.5892, 91.83330
862.5177, 91.29026
864.4462, 91.35715
866.3746, 91.63189
868.3031, 91.52830
870.2316, 91.18127
872.1600, 90.98186
874.0885, 90.84317
876.0170, 90.27114
877.9454, 89.34949
879.8739, 88.92848
881.8024, 89.03418
883.7308, 88.76146
885.6593, 87.97297
887.5878, 87.57890
889.5162, 87.76453
891.4447, 87.73791
893.3732, 87.30614
895.3016, 87.18454
897.2301, 87.68045
899.1586, 87.61584
901.0870, 86.68917
903.0155, 85.83639
904.9440, 85.07228
906.8724, 84.73410
908.8009, 85.18212
910.7294, 85.27227
912.6578, 84.33847
914.5863, 83.85690
916.5148, 84.71997
918.4432, 85.30928
920.3717, 84.78387
922.3002, 84.14502
924.2286, 83.78899
926.1571, 83.54481
928.0856, 83.41341
930.0140, 83.31010
931.9425, 83.20193
933.8710, 83.00951
935.7994, 82.64883
937.7279, 82.26192
939.6564, 81.92715
941.5848, 81.63128
943.5133, 81.40126
945.4418, 81.22839
947.3702, 81.01810
949.2987, 80.85342
951.2272, 80.88245
953.1556, 81.00938
955.0841, 81.19894
957.0126, 81.38176
958.9410, 81.42783
960.8695, 81.29928
962.7980, 80.71292
964.7264, 80.03691
966.6549, 80.29613
968.5834, 81.01514
970.5118, 81.02682
972.4403, 80.61578
974.3688, 80.41303
976.2972, 80.31509
978.2257, 79.95102
980.1542, 79.48423
982.0826, 79.62367
984.0111, 80.20277
985.9396, 80.43014
987.8680, 80.34317
989.7965, 80.30596
991.7250, 80.30852
993.6534, 80.19265
995.5819, 79.97622
997.5104, 79.76370
999.4388, 79.57967
1001.367, 79.81721
1003.296, 80.45750
1005.224, 80.42722
1007.153, 79.68342
1009.081, 79.61418
1011.010, 80.29165
1012.938, 80.60178
1014.867, 80.54447
1016.795, 80.48759
1018.724, 80.38189
1020.652, 80.49683
1022.580, 80.84709
1024.509, 81.26369
1026.437, 81.78692
1028.366, 82.02714
1030.294, 81.83562
1032.223, 82.89532
1034.151, 85.39146
1036.080, 87.02577
1038.008, 87.69421
1039.937, 88.69877
1041.865, 90.17190
1043.794, 91.22787
1045.722, 91.87330
1047.651, 92.07329
1049.579, 91.93002
1051.507, 90.20303
1053.436, 86.69314
1055.364, 83.89404
1057.293, 81.85235
1059.221, 80.37200
1061.150, 79.44944
1063.078, 78.45982
1065.007, 77.41332
1066.935, 76.80512
1068.864, 76.62596
1070.792, 76.49718
1072.721, 76.39523
1074.649, 76.24873
1076.578, 76.07690
1078.506, 75.97554
1080.434, 75.92172
1082.363, 75.85380
1084.291, 75.75117
1086.220, 75.43262
1088.148, 75.01057
1090.077, 74.98245
1092.005, 75.18595
1093.934, 74.96311
1095.862, 74.47231
1097.791, 74.29699
1099.719, 74.34860
1101.648, 74.38072
1103.576, 74.38212
1105.505, 74.26772
1107.433, 74.09790
1109.361, 74.13484
1111.290, 74.24540
1113.218, 74.06102
1115.147, 73.71029
1117.075, 73.47019
1119.004, 73.29446
1120.932, 72.91570
1122.861, 72.61111
1124.789, 73.07059
1126.718, 73.60067
1128.646, 73.21420
1130.575, 72.58635
1132.503, 72.37491
1134.432, 72.35280
1136.360, 72.32603
1138.288, 72.34940
1140.217, 72.47534
1142.145, 72.61552
1144.074, 72.72907
1146.002, 72.91198
1147.931, 73.32459
1149.859, 73.59101
1151.788, 73.35667
1153.716, 73.21207
1155.645, 73.63583
1157.573, 73.82887
1159.502, 73.24015
1161.430, 72.75565
1163.359, 72.75024
1165.287, 72.95504
1167.215, 73.22690
1169.144, 73.64943
1171.072, 74.40222
1173.001, 74.84471
1174.929, 74.71867
1176.858, 74.86559
1178.786, 75.35673
1180.715, 76.55238
1182.643, 78.56052
1184.572, 80.42969
1186.500, 82.16824
1188.429, 82.68179
1190.357, 81.93113
1192.286, 80.94469
1194.214, 79.72202
1196.142, 78.20457
1198.071, 76.49110
1199.999, 74.79268
1201.928, 73.32331
1203.856, 73.09150
1205.785, 73.35421
1207.713, 72.33682
1209.642, 70.92905
1211.570, 70.53530
1213.499, 70.51766
1215.427, 70.10851
1217.356, 69.79202
1219.284, 70.13200
1221.213, 70.41554
1223.141, 70.16772
1225.069, 69.92246
1226.998, 69.77322
1228.926, 69.68021
1230.855, 69.85655
1232.783, 69.89034
1234.712, 69.48093
1236.640, 69.29480
1238.569, 69.57422
1240.497, 69.59233
1242.426, 69.03762
1244.354, 69.37336
1246.283, 70.91573
1248.211, 71.05061
1250.140, 69.74906
1252.068, 69.12320
1253.996, 69.08567
1255.925, 69.05695
1257.853, 68.98349
1259.782, 68.78275
1261.710, 68.61285
1263.639, 68.63283
1265.567, 68.62058
1267.496, 68.23771
1269.424, 67.88004
1271.353, 67.94109
1273.281, 68.13359
1275.210, 68.24389
1277.138, 68.46085
1279.067, 69.02632
1280.995, 69.38489
1282.923, 69.24971
1284.852, 69.12509
1286.780, 69.12618
1288.709, 69.18742
1290.637, 69.30823
1292.566, 69.49181
1294.494, 69.72464
1296.423, 69.70509
1298.351, 69.53117
1300.280, 69.57006
1302.208, 69.67090
1304.137, 69.65792
1306.065, 69.69852
1307.994, 69.94778
1309.922, 70.11349
1311.850, 70.01364
1313.779, 69.83228
1315.707, 69.34415
1317.636, 69.06939
1319.564, 69.71481
1321.493, 70.15711
1323.421, 69.84000
1325.350, 69.67664
1327.278, 69.94875
1329.207, 69.99136
1331.135, 69.70553
1333.064, 69.38157
1334.992, 69.09415
1336.921, 68.85857
1338.849, 68.62634
1340.777, 68.93262
1342.706, 69.49510
1344.634, 69.30195
1346.563, 68.81545
1348.491, 68.58817
1350.420, 68.47553
1352.348, 68.49015
1354.277, 68.55042
1356.205, 68.55856
1358.134, 68.57397
1360.062, 68.73849
1361.991, 68.70370
1363.919, 68.22804
1365.848, 67.89635
1367.776, 67.76176
1369.704, 67.77284
1371.633, 67.95601
1373.561, 68.22869
1375.490, 68.43458
1377.418, 68.07204
1379.347, 67.61522
1381.275, 67.89407
1383.204, 68.23960
1385.132, 68.00622
1387.061, 67.66233
1388.989, 67.62208
1390.918, 67.63351
1392.846, 67.41022
1394.775, 67.36552
1396.703, 67.76211
1398.631, 67.65645
1400.560, 66.87841
1402.488, 66.73714
1404.417, 67.16702
1406.345, 67.14675
1408.274, 66.85572
1410.202, 67.10712
1412.131, 67.63466
1414.059, 67.98988
1415.988, 68.10641
1417.916, 67.83149
1419.845, 67.61520
1421.773, 67.75453
1423.702, 67.63631
1425.630, 67.12708
1427.558, 66.80145
1429.487, 66.73737
1431.415, 66.95856
1433.344, 67.28124
1435.272, 67.37267
1437.201, 67.36698
1439.129, 67.64682
1441.058, 67.79578
1442.986, 67.02589
1444.915, 66.49017
1446.843, 67.14767
1448.771, 67.45840
1450.700, 66.90355
1452.628, 66.68253
1454.557, 66.92241
1456.485, 66.88480
1458.414, 66.69276
1460.342, 66.62764
1462.271, 66.51807
1464.199, 66.25031
1466.128, 66.04707
1468.056, 65.84215
1469.985, 65.56760
1471.913, 65.22470
1473.842, 65.26168
1475.770, 66.17471
1477.698, 66.42483
1479.627, 65.76900
1481.555, 65.57548
1483.484, 65.72461
1485.412, 65.23467
1487.341, 64.71420
1489.269, 64.80522
1491.198, 64.87524
1493.126, 64.96346
1495.055, 65.02475
1496.983, 64.62716
1498.912, 64.52341
1500.840, 65.22497
1502.769, 65.17298
1504.697, 64.28870
1506.625, 64.29356
1508.554, 64.73428
1510.482, 64.27449
1512.411, 63.79753
1514.339, 64.00714
1516.268, 63.96144
1518.196, 63.56078
1520.125, 63.44259
1522.053, 63.58710
1523.982, 63.53217
1525.910, 63.27065
1527.839, 63.21363
1529.767, 63.38341
1531.696, 63.72012
1533.624, 63.95195
1535.552, 63.81314
1537.481, 63.77848
1539.409, 63.89803
1541.338, 63.87173
1543.266, 63.70232
1545.195, 63.72954
1547.123, 64.05566
1549.052, 64.06780
1550.980, 63.82057
1552.909, 63.97285
1554.837, 64.28291
1556.766, 64.28139
1558.694, 63.96434
1560.623, 63.29841
1562.551, 63.10627
1564.479, 63.51044
1566.408, 63.69833
1568.336, 63.59345
1570.265, 63.38766
1572.193, 63.25373
1574.122, 63.08301
1576.050, 62.89614
1577.979, 62.83751
1579.907, 62.94230
1581.836, 63.48201
1583.764, 63.53174
1585.693, 62.94853
1587.621, 62.80017
1589.550, 62.79820
1591.478, 62.79337
1593.406, 62.92513
1595.335, 62.75942
1597.263, 62.58820
1599.192, 62.59806
1601.120, 62.54891
1603.049, 62.54526
1604.977, 62.43756
1606.906, 62.21958
1608.834, 62.37054
1610.763, 62.47246
1612.691, 62.14654
1614.620, 61.81292
1616.548, 61.46215
1618.477, 61.31166
1620.405, 61.45618
1622.333, 61.58590
1624.262, 61.63591
1626.190, 61.35387
1628.119, 61.12142
1630.047, 61.45559
1631.976, 61.57412
1633.904, 61.17339
1635.833, 60.91399
1637.761, 60.82834
1639.690, 60.76080
1641.618, 60.62812
1643.547, 60.37706
1645.475, 60.17127
1647.404, 60.46334
1649.332, 60.75987
1651.260, 60.43849
1653.189, 60.32033
1655.117, 60.49805
1657.046, 60.55665
1658.974, 60.31178
1660.903, 60.07317
1662.831, 60.06887
1664.760, 59.90991
1666.688, 59.78193
1668.617, 59.90820
1670.545, 59.80083
1672.474, 59.62361
1674.402, 59.75665
1676.331, 59.90787
1678.259, 59.69762
1680.188, 59.49359
1682.116, 59.39482
1684.044, 59.18310
1685.973, 59.15638
1687.901, 59.22697
1689.830, 59.20449
1691.758, 59.10318
1693.687, 58.76715
1695.615, 58.20089
1697.544, 58.05756
1699.472, 58.82950
1701.401, 59.26254
1703.329, 58.76105
1705.258, 58.33236
1707.186, 58.15590
1709.115, 58.53829
1711.043, 58.84716
1712.971, 58.40185
1714.900, 58.05493
1716.828, 58.04717
1718.757, 57.88268
1720.685, 57.62441
1722.614, 57.82711
1724.542, 58.04724
1726.471, 57.90052
1728.399, 57.82858
1730.328, 57.84742
1732.256, 57.76255
1734.185, 57.62793
1736.113, 57.39875
1738.042, 57.00702
1739.970, 56.78506
1741.898, 56.94229
1743.827, 57.12207
1745.755, 57.11858
1747.684, 57.01627
1749.612, 57.02301
1751.541, 57.27776
1753.469, 57.36475
1755.398, 57.18106
1757.326, 57.03106
1759.255, 56.88382
1761.183, 56.59177
1763.112, 56.40282
1765.040, 56.30107
1766.969, 56.08789
1768.897, 55.77089
1770.825, 55.63707
1772.754, 55.62862
1774.682, 55.56903
1776.611, 55.49885
1778.539, 55.49864
1780.468, 55.53192
1782.396, 55.51659
1784.325, 55.19292
1786.253, 54.70847
1788.182, 54.81121
1790.110, 54.97031
1792.039, 54.79920
1793.967, 54.89132
1795.896, 54.86812
1797.824, 54.47628
1799.752, 54.28696
1801.681, 54.29683
1803.609, 54.20829
1805.538, 54.15781
1807.466, 54.03861
1809.395, 53.71572
1811.323, 53.73501
1813.252, 53.87999
1815.180, 53.61884
1817.109, 53.45424
1819.037, 53.65364
1820.966, 53.62020
1822.894, 53.26809
1824.823, 52.82823
1826.751, 52.68106
1828.679, 52.80011
1830.608, 52.90413
1832.536, 53.00035
1834.465, 52.94210
1836.393, 52.60396
1838.322, 52.39879
1840.250, 52.46678
1842.179, 52.49416
1844.107, 52.42243
1846.036, 52.46450
1847.964, 52.26104
1849.893, 51.77953
1851.821, 51.76388
1853.750, 51.87157
1855.678, 51.68782
1857.606, 51.45150
1859.535, 51.38741
1861.463, 51.65995
1863.392, 51.93839
1865.320, 51.71640
1867.249, 51.32357
1869.177, 50.96615
1871.106, 50.87666
1873.034, 50.79015
1874.963, 50.55693
1876.891, 50.60194
1878.820, 50.74845
1880.748, 50.75255
1882.677, 50.80856
1884.605, 50.92312
1886.533, 50.80287
1888.462, 50.88639
1890.390, 51.22858
1892.319, 51.11471
1894.247, 50.89602
1896.176, 50.85100
1898.104, 50.81377
1900.033, 50.96234
1901.961, 51.35579
1903.890, 51.58105
1905.818, 51.77308
1907.747, 51.98297
1909.675, 52.07466
1911.604, 52.20220
1913.532, 52.29302
1915.460, 52.26979
1917.389, 52.35603
1919.317, 52.79082
1921.246, 53.25799
1923.174, 53.35427
1925.103, 53.25079
1927.031, 53.42546
1928.960, 53.69562
1930.888, 53.84010
1932.817, 53.81085
1934.745, 53.58480
1936.674, 53.52264
1938.602, 53.77405
1940.531, 54.33431
1942.459, 54.44748
1944.387, 54.30413
1946.316, 54.55685
1948.244, 54.85467
1950.173, 54.86781
1952.101, 54.81419
1954.030, 54.54690
1955.958, 54.31883
1957.887, 54.65422
1959.815, 54.73605
1961.744, 54.48290
1963.672, 54.78888
1965.601, 55.06890
1967.529, 54.69613
1969.458, 54.95348
1971.386, 55.37837
1973.314, 55.37995
1975.243, 55.42643
1977.171, 55.55213
1979.100, 55.60642
1981.028, 55.57033
1982.957, 55.70661
1984.885, 55.95068
1986.814, 55.81320
1988.742, 55.43185
1990.671, 55.59777
1992.599, 55.71445
1994.528, 55.24508
1996.456, 54.67654
1998.385, 54.35044
2000.313, 53.71214
2002.241, 52.55415
2004.170, 52.12963
2006.098, 52.31336
2008.027, 51.90983
2009.955, 51.35571
2011.884, 51.10159
2013.812, 50.53274
2015.741, 49.89680
2017.669, 49.39019
2019.598, 48.72902
2021.526, 48.39761
2023.455, 48.41317
2025.383, 48.17655
2027.312, 47.99338
2029.240, 47.86088
2031.168, 47.65879
2033.097, 47.43164
2035.025, 47.04691
2036.954, 46.58479
2038.882, 46.57056
2040.811, 46.64406
2042.739, 46.52415
2044.668, 46.32878
2046.596, 46.00591
2048.525, 46.04588
2050.453, 46.68744
2052.382, 46.47834
2054.310, 45.57866
2056.239, 45.35044
2058.167, 45.12795
2060.095, 45.08099
2062.024, 45.02179
2063.952, 44.44139
2065.881, 44.29315
2067.809, 44.46767
2069.738, 44.05658
2071.666, 43.97339
2073.595, 44.05497
2075.523, 43.93106
2077.452, 44.31435
2079.380, 44.22575
2081.309, 43.76228
2083.237, 43.36853
2085.166, 42.84540
2087.094, 42.46266
2089.022, 42.12110
2090.951, 41.91317
2092.879, 42.01203
2094.808, 41.81688
2096.736, 41.37001
2098.665, 41.32259
2100.593, 41.31940
2102.522, 40.97874
2104.450, 40.58608
2106.379, 40.37703
2108.307, 40.07967
2110.236, 39.83231
2112.164, 40.00011
2114.093, 40.15798
2116.021, 40.25082
2117.949, 39.91150
2119.878, 39.55441
2121.806, 39.87052
2123.735, 39.78946
2125.663, 39.32522
2127.592, 39.67514
2129.520, 39.73499
2131.449, 39.41279
2133.377, 39.58065
2135.306, 39.47212
2137.234, 39.11652
2139.163, 39.17545
2141.091, 39.37994
2143.020, 39.50212
2144.948, 39.58399
2146.876, 39.42089
2148.805, 39.13151
2150.733, 39.22959
2152.662, 39.33812
2154.590, 39.38960
2156.519, 39.30248
2158.447, 38.83565
2160.376, 38.50920
2162.304, 38.81954
2164.233, 39.14597
2166.161, 39.27565
2168.090, 39.30864
2170.018, 39.13573
2171.947, 38.84746
2173.875, 38.84694
2175.803, 39.78581
2177.732, 39.70990
2179.660, 38.72895
2181.589, 38.62738
2183.517, 38.52915
2185.446, 38.54223
2187.374, 38.90736
2189.303, 38.91809
2191.231, 38.74317
2193.160, 38.81357
2195.088, 38.73206
2197.017, 38.47463
2198.945, 38.31831
2200.874, 38.36316
2202.802, 38.63192
2204.730, 38.57653
2206.659, 38.20697
2208.587, 38.30436
2210.516, 38.52244
2212.444, 38.66228
2214.373, 38.65398
2216.301, 38.61318
2218.230, 38.89184
2220.158, 38.98862
2222.087, 38.30288
2224.015, 38.08818
2225.944, 38.55123
2227.872, 38.67660
2229.801, 38.62536
2231.729, 38.65007
2233.657, 38.68205
2235.586, 38.62570
2237.514, 38.43059
2239.443, 38.35416
2241.371, 38.52475
2243.300, 38.65683
2245.228, 38.80701
2247.157, 38.83372
2249.085, 38.65269
2251.014, 38.42081
2252.942, 38.78068
2254.871, 39.01828
2256.799, 38.76604
2258.728, 38.89158
2260.656, 39.17440
2262.584, 39.18213
2264.513, 39.20483
2266.441, 39.22013
2268.370, 39.28643
2270.298, 39.48244
2272.227, 39.78910
2274.155, 40.26062
2276.084, 40.38959
2278.012, 39.93848
2279.941, 40.12215
2281.869, 40.40334
2283.798, 39.91928
2285.726, 39.74882
2287.655, 39.99382
2289.583, 40.08291
2291.511, 40.12976
2293.440, 40.41077
2295.368, 40.22780
2297.297, 39.85060
2299.225, 39.88314
2301.154, 39.94518
2303.082, 39.78145
2305.011, 39.68232
2306.939, 39.79431
2308.868, 39.65636
2310.796, 39.68213
2312.725, 39.69830
2314.653, 39.19380
2316.582, 38.93534
2318.510, 38.90316
2320.438, 38.44060
2322.367, 38.24406
2324.295, 38.51469
2326.224, 38.11237
2328.152, 37.58630
2330.081, 37.63078
2332.009, 37.11568
2333.938, 36.13878
2335.866, 35.82074
2337.795, 35.52180
2339.723, 34.78454
2341.652, 34.41908
2343.580, 34.13441
2345.509, 33.16000
2347.437, 33.04578
2349.365, 33.50088
2351.294, 33.12223
2353.222, 32.66596
2355.151, 32.67824
2357.079, 32.45665
2359.008, 32.20034
2360.936, 32.27278
2362.865, 31.87801
2364.793, 31.51069
2366.722, 31.65282
2368.650, 31.58769
2370.579, 31.41331
2372.507, 31.42989
2374.436, 31.53176
2376.364, 31.55732
2378.292, 31.34507
2380.221, 31.17381
2382.149, 31.21902
2384.078, 30.97557
2386.006, 30.73112
2387.935, 30.92855
2389.863, 30.80543
2391.792, 30.54446
2393.720, 30.48940
2395.649, 30.52633
2397.577, 30.92015
2399.506, 30.89387
2401.434, 30.57186
2403.363, 30.41225
2405.291, 30.26268
2407.219, 30.18512
2409.148, 30.36553
2411.076, 30.52274
2413.005, 30.39879
2414.933, 30.13259
2416.862, 30.06966
2418.790, 30.03205
2420.719, 29.86901
2422.647, 29.90256
2424.576, 30.13869
2426.504, 29.92319
2428.433, 29.81774
2430.361, 29.95568
2432.290, 29.66168
2434.218, 29.45014
2436.146, 29.84656
2438.075, 29.95078
2440.003, 29.73024
2441.932, 29.32406
2443.860, 29.57537
2445.789, 29.92197
2447.717, 29.79071
2449.646, 29.53605
2451.574, 29.23332
2453.503, 28.96633
2455.431, 28.83063
2457.360, 28.95355
2459.288, 28.76553
2461.217, 28.54218
2463.145, 28.56230
2465.073, 28.69249
2467.002, 28.72810
2468.930, 28.59745
2470.859, 28.39474
2472.787, 28.30346
2474.716, 28.30319
2476.644, 28.35333
2478.573, 28.37583
2480.501, 28.29477
2482.430, 28.34308
2484.358, 28.35455
2486.287, 27.97711
2488.215, 27.96044
2490.144, 28.05086
2492.072, 27.56292
2494.000, 27.52370
2495.929, 27.75144
2497.857, 27.58045
2499.786, 27.57874
2501.714, 27.87587
2503.643, 27.69989
2505.571, 27.38580
2507.500, 27.04663
2509.428, 27.36018
2511.357, 27.68431
2513.285, 27.48441
2515.214, 27.23220
2517.142, 27.09507
2519.071, 27.15403
2520.999, 27.07873
2522.927, 27.01361
2524.856, 27.09118
2526.784, 26.86439
2528.713, 26.58755
2530.641, 26.84657
2532.570, 27.01081
2534.498, 26.98026
2536.427, 26.36792
2538.355, 26.17818
2540.284, 26.51338
2542.212, 26.23320
2544.141, 26.26681
2546.069, 26.67250
2547.998, 26.53239
2549.926, 26.27023
2551.854, 25.94141
2553.783, 25.79053
2555.711, 25.98591
2557.640, 26.51649
2559.568, 26.60731
2561.497, 26.48292
2563.425, 26.28619
2565.354, 25.72110
2567.282, 25.56367
2569.211, 26.06950
2571.139, 26.08285
2573.068, 25.94946
2574.996, 25.86458
2576.925, 25.97414
2578.853, 26.05811
2580.781, 25.85796
2582.710, 25.78953
2584.638, 25.82933
2586.567, 25.89718
2588.495, 25.44483
2590.424, 25.00233
2592.352, 25.16138
2594.281, 25.00061
2596.209, 24.74949
2598.138, 24.79428
2600.066, 24.95586
2601.995, 25.13816
2603.923, 25.29540
2605.852, 25.00728
2607.780, 24.60900
2609.708, 24.36329
2611.637, 24.59630
2613.565, 24.77974
2615.494, 24.47345
2617.422, 24.54748
2619.351, 24.55044
2621.279, 24.09421
2623.208, 23.99976
2625.136, 24.11065
2627.065, 24.21815
2628.993, 24.26661
2630.922, 24.23521
2632.850, 24.13132
2634.779, 24.08115
2636.707, 23.94137
2638.635, 23.75384
2640.564, 23.72588
2642.492, 23.95032
2644.421, 24.34941
2646.349, 24.13711
2648.278, 23.92907
2650.206, 24.03336
2652.135, 24.03195
2654.063, 24.05405
2655.992, 24.26115
2657.920, 24.26211
2659.849, 24.16366
2661.777, 24.07938
2663.706, 24.11730
2665.634, 24.11540
2667.563, 23.98693
2669.491, 23.82708
2671.419, 23.83203
2673.348, 24.01318
2675.276, 23.98606
2677.205, 23.83449
2679.133, 23.75538
2681.062, 24.17543
2682.990, 24.03233
2684.919, 23.75558
2686.847, 24.49836
2688.776, 25.27070
2690.704, 25.27085
2692.633, 24.59054
2694.561, 24.41342
2696.490, 24.32236
2698.418, 24.05665
2700.346, 24.33341
2702.275, 24.50173
2704.203, 24.05997
2706.132, 24.25962
2708.060, 24.76308
2709.989, 25.22125
2711.917, 25.00818
2713.846, 24.83511
2715.774, 24.92139
2717.703, 24.89478
2719.631, 24.88329
2721.560, 24.74512
2723.488, 24.67746
2725.417, 24.97329
2727.345, 25.54645
2729.273, 26.01383
2731.202, 25.82092
2733.130, 25.24077
2735.059, 25.36676
2736.987, 25.71512
2738.916, 26.06117
2740.844, 26.30653
2742.773, 26.01221
2744.701, 25.76114
2746.630, 26.27850
2748.558, 26.63549
2750.487, 26.79665
2752.415, 26.74668
2754.344, 26.45449
2756.272, 26.36092
2758.200, 26.58405
2760.129, 26.48773
2762.057, 26.67348
2763.986, 26.99800
2765.914, 26.94303
2767.843, 27.06337
2769.771, 27.36265
2771.700, 27.94792
2773.628, 28.26462
2775.557, 28.50933
2777.485, 29.01794
2779.414, 28.63014
2781.342, 28.25875
2783.271, 28.71193
2785.199, 28.96726
2787.127, 28.83817
2789.056, 28.65845
2790.984, 29.06940
2792.913, 29.34522
2794.841, 29.51333
2796.770, 29.39249
2798.698, 29.56130
2800.627, 29.98925
2802.555, 30.65035
2804.484, 30.54790
2806.412, 30.40277
2808.341, 30.70396
2810.269, 30.94573
2812.198, 31.07597
2814.126, 31.12213
2816.054, 30.89160
2817.983, 31.12721
2819.911, 31.47462
2821.840, 31.37516
2823.768, 31.69975
2825.697, 31.96469
2827.625, 33.59919
2829.554, 32.65965
2831.482, 31.57004
2833.411, 31.69911
2835.339, 31.84773
2837.268, 32.28520
2839.196, 32.60716
2841.125, 32.31120
2843.053, 32.26092
2844.981, 32.43714
2846.910, 32.30082
2848.838, 32.53415
2850.767, 32.60615
2852.695, 32.40624
2854.624, 32.15739
2856.552, 32.14028
2858.481, 32.57371
2860.409, 32.57794
2862.338, 32.78645
2864.266, 32.85133
2866.195, 32.56888
2868.123, 32.49029
2870.052, 32.41384
2871.980, 32.68566
2873.908, 32.95656
2875.837, 33.20983
2877.765, 33.26481
2879.694, 32.66575
2881.622, 32.60332
2883.551, 32.84423
2885.479, 32.53202
2887.408, 32.66429
2889.336, 32.51751
2891.265, 32.28166
2893.193, 32.04422
2895.122, 31.86085
2897.050, 32.05880
2898.979, 32.31419
2900.907, 31.96579
2902.835, 31.48638
2904.764, 31.17334
2906.692, 31.19030
2908.621, 31.16749
2910.549, 30.98160
2912.478, 31.23940
2914.406, 31.23598
2916.335, 30.76710
2918.263, 29.74344
2920.191, 29.79430
2922.120, 30.13800
2924.048, 30.22208
2925.977, 29.62762
2927.905, 29.12200
2929.834, 28.86093
2931.762, 28.50243
2933.691, 28.30845
2935.619, 27.98240
2937.548, 27.70017
2939.476, 27.89074
2941.405, 27.73105
2943.333, 27.12489
2945.261, 26.23889
2947.190, 26.42063
2949.118, 26.47571
2951.047, 25.89952
2952.975, 25.49851
2954.904, 25.13916
2956.832, 24.61072
2958.761, 24.08733
2960.689, 23.84665
2962.618, 23.47774
2964.546, 22.90623
2966.475, 22.46471
2968.403, 22.18477
2970.332, 21.76653
2972.260, 21.02018
2974.188, 20.88532
2976.117, 20.69532
2978.045, 19.97098
2979.974, 19.72093
2981.902, 19.55598
2983.831, 19.37332
2985.759, 19.27214
2987.688, 18.42456
2989.616, 17.76233
2991.545, 17.64961
2993.473, 17.92230
2995.402, 17.70378
2997.330, 17.42842
2999.259, 17.82278
3001.187, 17.37328
3003.115, 16.96626
3005.044, 16.86733
3006.972, 16.43877
3008.901, 16.27212
3010.829, 16.22292
3012.758, 16.34739
3014.686, 17.34289
3016.615, 17.26811
3018.543, 16.48888
3020.472, 16.14388
3022.400, 15.59012
3024.329, 15.52070
3026.257, 15.78773
3028.186, 15.12263
3030.114, 14.85092
3032.042, 14.68381
3033.971, 14.39021
3035.899, 14.45025
3037.828, 14.43189
3039.756, 14.40056
3041.685, 13.99245
3043.613, 13.59136
3045.542, 13.58285
3047.470, 14.12523
3049.399, 13.52981
3051.327, 12.98665
3053.256, 12.80869
3055.184, 13.20701
3057.113, 12.96539
3059.041, 12.68336
3060.969, 12.47787
3062.898, 11.85269
3064.826, 11.77694
3066.755, 11.97512
3068.683, 12.08921
3070.612, 11.52443
3072.540, 11.12593
3074.469, 11.07674
3076.397, 10.97750
3078.326, 10.74135
3080.254, 10.66779
3082.183, 10.89849
3084.111, 11.41953
3086.040, 10.89361
3087.968, 10.79793
3089.896, 11.14836
3091.825, 10.91667
3093.753, 10.64551
3095.682, 10.52691
3097.610, 10.40155
3099.539, 10.17273
3101.467, 10.28566
3103.396, 10.17669
3105.324, 9.741003
3107.253, 9.354276
3109.181, 9.523568
3111.110, 9.523219
3113.038, 9.215189
3114.967, 9.334239
3116.895, 9.380566
3118.823, 9.430410
3120.752, 8.923841
3122.680, 8.887017
3124.609, 8.708690
3126.537, 8.449652
3128.466, 8.422351
3130.394, 8.609633
3132.323, 8.168981
3134.251, 7.939215
3136.180, 8.106311
3138.108, 8.384446
3140.037, 8.513791
3141.965, 8.440782
3143.894, 8.382933
3145.822, 7.876270
3147.750, 7.655976
3149.679, 7.861967
3151.607, 7.633134
3153.536, 7.606759
3155.464, 7.725184
3157.393, 7.905179
3159.321, 7.970146
3161.250, 7.765097
3163.178, 7.676545
3165.107, 7.639834
3167.035, 6.657450
3168.964, 6.478753
3170.892, 6.618484
3172.821, 6.670811
3174.749, 6.641307
3176.677, 6.553628
3178.606, 6.466347
3180.534, 6.301488
3182.463, 5.801334
3184.391, 6.017230
3186.320, 6.075444
3188.248, 5.708047
3190.177, 5.799681
3192.105, 5.683253
3194.034, 5.755281
3195.962, 6.070704
3197.891, 5.677883
3199.819, 5.664854
3201.748, 5.707078
3203.676, 5.605619
3205.604, 5.596168
3207.533, 5.959770
3209.461, 6.121002
3211.390, 5.767943
3213.318, 5.751725
3215.247, 5.763796
3217.175, 5.474563
3219.104, 5.034030
3221.032, 5.124607
3222.961, 4.875747
3224.889, 4.744544
3226.818, 4.853484
3228.746, 4.591181
3230.675, 4.813407
3232.603, 4.919136
3234.531, 5.041783
3236.460, 4.876945
3238.388, 5.035480
3240.317, 4.815592
3242.245, 4.380231
3244.174, 4.600437
3246.102, 4.053319
3248.031, 4.149001
3249.959, 4.609194
3251.888, 3.861355
3253.816, 4.176335
3255.745, 4.308298
3257.673, 4.152649
3259.602, 3.859419
3261.530, 4.071002
3263.458, 4.159139
3265.387, 4.053796
3267.315, 4.107494
3269.244, 4.211731
3271.172, 3.907311
3273.101, 3.883830
3275.029, 4.112923
3276.958, 3.907469
3278.886, 3.969407
3280.815, 3.984153
3282.743, 3.876004
3284.672, 3.897070
3286.600, 4.076941
3288.529, 4.137735
3290.457, 4.049863
3292.385, 3.810518
3294.314, 3.903298
3296.242, 3.904563
3298.171, 3.717994
3300.099, 3.590036
3302.028, 3.380738
3303.956, 3.489798
3305.885, 4.002728
3307.813, 4.477284
3309.742, 3.750060
3311.670, 3.605967
3313.599, 3.521769
3315.527, 3.550862
3317.456, 3.908716
3319.384, 3.537819
3321.313, 3.699076
3323.241, 3.582555
3325.169, 2.804464
3327.098, 3.236151
3329.026, 3.660878
3330.955, 3.809315
3332.883, 3.648929
3334.812, 3.405192
3336.740, 3.558669
3338.669, 3.235942
3340.597, 2.961032
3342.526, 3.254108
3344.454, 3.330464
3346.383, 3.489605
3348.311, 3.439759
3350.240, 3.135153
3352.168, 2.915418
3354.096, 2.892246
3356.025, 2.781539
3357.953, 2.731858
3359.882, 2.839453
3361.810, 3.144521
3363.739, 3.467232
3365.667, 3.472510
3367.596, 3.189490
3369.524, 3.031228
3371.453, 2.955140
3373.381, 2.755487
3375.310, 2.778409
3377.238, 3.272279
3379.167, 2.704227
3381.095, 2.765877
3383.023, 2.954013
3384.952, 2.902002
3386.880, 2.604625
3388.809, 3.324492
3390.737, 3.217278
3392.666, 2.604546
3394.594, 2.214871
3396.523, 2.928552
3398.451, 2.480820
3400.380, 2.385587
3402.308, 2.768271
3404.237, 2.782028
3406.165, 2.558649
3408.094, 3.606248
3410.022, 3.726640
3411.950, 2.676473
3413.879, 2.720472
3415.807, 2.760316
3417.736, 3.070832
3419.664, 3.157004
3421.593, 2.723423
3423.521, 2.100275
3425.450, 2.671736
3427.378, 2.901044
3429.307, 2.680146
3431.235, 2.538005
3433.164, 2.555991
3435.092, 2.301817
3437.021, 2.670654
3438.949, 3.232775
3440.877, 2.588893
3442.806, 2.331547
3444.734, 2.405486
3446.663, 2.261136
3448.591, 1.929613
3450.520, 2.131124
3452.448, 2.309956
3454.377, 2.047025
3456.305, 2.029789
3458.234, 2.411444
3460.162, 2.307585
3462.091, 2.112171
3464.019, 2.610931
3465.948, 2.939673
3467.876, 2.529989
3469.804, 2.180805
3471.733, 2.375257
3473.661, 2.266036
3475.590, 2.022806
3477.518, 2.016859
3479.447, 2.315241
3481.375, 1.962893
3483.304, 2.017855
3485.232, 2.236810
3487.161, 2.116755
3489.089, 1.705292
3491.018, 2.166475
3492.946, 1.732096
3494.875, 1.409283
3496.803, 2.181286
3498.731, 2.034169
3500.660, 1.671523
3502.588, 1.649615
3504.517, 1.912613
3506.445, 2.179341
3508.374, 2.088098
3510.302, 1.678526
3512.231, 1.350369
3514.159, 1.343428
3516.088, 1.582096
3518.016, 1.606959
3519.945, 1.528397
3521.873, 1.845752
3523.802, 1.959445
3525.730, 1.681776
3527.658, 1.708747
3529.587, 1.534678
3531.515, 1.794634
3533.444, 2.000094
3535.372, 1.862880
3537.301, 1.571696
3539.229, 1.927813
3541.158, 2.135886
3543.086, 2.164136
3545.015, 2.143310
3546.943, 2.124335
3548.872, 1.369439
3550.800, 1.557691
3552.729, 1.512568
3554.657, 1.339718
3556.585, 1.526898
3558.514, 1.617367
3560.442, 1.543057
3562.371, 1.582933
3564.299, 1.427821
3566.228, 1.194351
3568.156, 1.657425
3570.085, 1.599766
3572.013, 1.199245
3573.942, 1.050521
3575.870, 1.241718
3577.799, 1.477504
3579.727, 1.598088
3581.656, 1.102404
3583.584, 1.171772
3585.512, 1.460234
3587.441, 1.389599
3589.369, 1.208157
3591.298, 1.250902
3593.226, 1.006158
3595.155, 0.8228776
3597.083, 1.086356
3599.012, 1.828156
3600.940, 1.535647
3602.869, 1.944102
3604.797, 1.626890
3606.726, 1.035720
3608.654, 0.9507099
3610.583, 1.334491
3612.511, 0.9545159
3614.439, 0.8276017
3616.368, 1.437618
3618.296, 1.872003
3620.225, 1.240551
3622.153, 1.671015
3624.082, 1.996460
3626.010, 1.451299
3627.939, 1.157172
3629.867, 1.484652
3631.796, 1.608831
3633.724, 1.169413
3635.653, 1.714130
3637.581, 1.344235
3639.510, 0.8284515
3641.438, 0.9592025
3643.366, 0.5602559
3645.295, 1.101504
3647.223, 1.368096
3649.152, 1.187038
3651.080, 1.025621
3653.009, 1.153749
3654.937, 0.9603331
3656.866, 1.565755
3658.794, 1.437756
3660.723, 1.181680
3662.651, 1.095162
3664.580, 1.144344
3666.508, 1.907157
3668.437, 1.897477
3670.365, 1.406620
3672.293, 1.221912
3674.222, 1.413208
3676.150, 1.508138
3678.079, 1.036871
3680.007, 0.8154103
3681.936, 0.7413530
3683.864, 0.8145576
3685.793, 1.003480
3687.721, 1.137271
3689.650, 0.8380557
3691.578, 0.6531632
3693.507, 0.8136708
3695.435, 1.057086
3697.364, 0.9283078
3699.292, 0.4645149
3701.220, 0.9880740
3703.149, -0.5971981
3705.077, 0.5960110
3707.006, 3.060458
3708.934, 3.124767
3710.863, 0.6916297
3712.791, 1.323855
3714.720, 0.9157357
3716.648, 0.6519151
3718.577, 0.8690875
3720.505, 0.9013309
3722.434, 0.6744699
3724.362, 0.8682318
3726.291, 1.055768
3728.219, 1.076157
3730.147, 1.208398
3732.076, 1.037033
3734.004, 0.8421997
3735.933, 0.9958865
3737.861, 0.5484070
3739.790, 0.9792131
3741.718, 0.9042890
3743.647, 0.8748628
3745.575, 0.5744841
3747.504, 0.2880857
3749.432, 1.325623
3751.361, 0.9747248
3753.289, 0.6730816
3755.218, 0.2775542
3757.146, 0.4671674
3759.074, 0.7627302
3761.003, 0.4377894
3762.931, 0.5885406
3764.860, 0.6622807
3766.788, 0.8670137
3768.717, 0.7394226
3770.645, 0.8123570
3772.574, 0.9545473
3774.502, 0.4978481
3776.431, 1.297138
3778.359, 0.9963312
3780.288, 0.9259778
3782.216, 0.6082979
3784.145, 0.4320309
3786.073, 0.7095327
3788.001, 0.8675767
3789.930, 1.210001
3791.858, 0.6324156
3793.787, 1.310294
3795.715, 1.461480
3797.644, 1.035501
3799.572, 0.7662099
3801.501, 0.3610720
3803.429, 0.8300756
3805.358, 0.5066466
3807.286, 0.6645496
3809.215, 0.9194927
3811.143, 0.8390754
3813.072, 0.5170346
3815.000, 0.3289072
3816.928, 0.5061783
3818.857, 1.084194
3820.785, 0.8503703
3822.714, 0.7316553
3824.642, 0.6275203
3826.571, 0.6220301
3828.499, 1.195883
3830.428, 0.4282949
3832.356, 0.6421602
3834.285, 0.6743692
3836.213, 4.9870890E-02
3838.142, 0.1975418
3840.070, 0.8603522
3841.999, 0.6720973
3843.927, 0.7626343
3845.855, 0.5253142
3847.784, 0.9604942
3849.712, 0.5811994
3851.641, 0.6390387
3853.569, 0.9583133
3855.498, 0.6100996
3857.426, 7.4180752E-02
3859.355, 0.8878717
3861.283, 0.8008860
3863.212, 0.3676526
3865.140, 0.7324560
3867.069, 0.9112715
3868.997, 0.7549759
3870.926, 1.103739
3872.854, 1.383144
3874.782, 0.8128177
3876.711, 0.7341173
3878.639, 0.7030968
3880.568, 0.6200559
3882.496, 0.8506317
3884.425, 1.046097
3886.353, 0.7132491
3888.282, 0.9507143
3890.210, 0.4217530
3892.139, 0.8552732
3894.067, 0.6155930
3895.996, 0.4734687
3897.924, 0.5396652
3899.853, 0.3466770
3901.781, 3.2526139E-02
3903.709, 0.8779463
3905.638, 0.1720928
3907.566, 0.9035591
3909.495, 1.052115
3911.423, 0.5774013
3913.352, 0.5059780
3915.280, 0.6103248
3917.209, 0.3364905
3919.137, 0.8950222
3921.066, 0.3971379
3922.994, 0.8124275
3924.923, 0.6041458
3926.851, 0.3819850
3928.780, 0.7210442
3930.708, 0.7952006
3932.636, 0.3674726
3934.565, 0.6304045
3936.493, 0.5058710
3938.422, 0.8241549
3940.350, -0.2343024
3942.279, -6.0851080E-03
3944.207, 0.1218516
3946.136, 0.1019564
3948.064, 0.6381016
3949.993, 1.297393
3951.921, 0.9064573
3953.850, 0.6865137
3955.778, 0.5479306
3957.707, 0.5604895
3959.635, 1.0033230E-02
3961.563, 7.9939701E-02
3963.492, 0.2764445
3965.420, 0.2337763
3967.349, 0.2352932
3969.277, 0.3225721
3971.206, 6.9401331E-02
3973.134, 1.6796719E-02
3975.063, 0.2695387
3976.991, 0.6271894
3978.920, 0.4535182
3980.848, 0.4741377
3982.777, 0.4557557
3984.705, 5.6423731E-02
3986.634, 0.1311020
3988.562, 0.2857539
3990.490, 0.2600060
3992.419, 0.2169750
3994.347, 3.9189208E-02
3996.276, 0.8590636
3998.204, 0.3788894
4000.133, 0.2428375
4002.061, 0.1233779
4003.990, 0.8786998
4005.918, 0.9196326
4007.847, 0.1738512
4009.775, 0.6241963
4011.704, 0.4897799
4013.632, 0.3707117
4015.561, -0.2676052
4017.489, 2.4927140E-03
4019.417, 0.2980091
4021.346, 6.0256060E-02
4023.274, 6.8133019E-02
4025.203, 0.4707069
4027.131, 0.5320777
4029.060, 0.1287783
4030.988, 0.8688570
4032.917, 0.4800209
4034.845, -0.1422309
4036.774, 0.2258576
4038.702, 7.0374161E-03
4040.631, -1.2323740E-02
4042.559, 0.1692056
4044.488, 0.2053914
4046.416, 0.1805525
4048.344, -0.1586710
4050.273, -6.9370881E-02
4052.201, 0.1957381
4054.130, 0.4410071
4056.058, 0.4514508
4057.987, 9.4913463E-05
4059.915, -3.8565010E-02
4061.844, 0.3292401
4063.772, 0.3752488
4065.701, 9.2343520E-03
4067.629, 8.1074182E-03
4069.558, 0.4985979
4071.486, -3.4632329E-02
4073.415, 0.1674829
4075.343, 0.1641494
4077.271, 6.4609550E-02
4079.200, 9.1839418E-02
4081.128, 0.1404017
4083.057, 0.1130402
4084.985, -6.3273679E-03
4086.914, -1.1495260E-03
4088.842, 0.1654924
4090.771, -0.8001631
4092.699, -0.1105914
4094.628, 2.2237180E-02
4096.556, 0.1156528
4098.484, 0.3024197
4100.413, 0.5122482
4102.341, 0.3735357
4104.270, 0.1805981
4106.198, -4.5860659E-02
4108.127, -0.2528221
4110.055, 0.1361901
4111.984, 0.3849555
4113.912, 0.3539195
4115.841, 0.4461852
4117.769, -9.4400793E-02
4119.698, -0.1478460
4121.626, 5.5136788E-04
4123.555, 0.1220754
4125.483, 0.5795842
4127.412, 0.5747147
4129.340, -9.1496743E-02
4131.269, -0.3516273
4133.197, 0.1180562
4135.125, 0.4982879
4137.054, -0.2090149
4138.982, -5.6681540E-02
4140.911, 0.7179738
4142.839, -0.5502431
4144.768, 0.1114414
4146.696, 0.8515074
4148.625, 7.4452899E-02
4150.553, -0.5591006
4152.481, -0.1236558
4154.410, 0.3281587
4156.338, 0.1005585
4158.267, -0.1715101
4160.195, -0.2669874
4162.124, -0.3050855
4164.052, 0.2414815
4165.981, 0.6326441
4167.909, 0.1753400
4169.838, -0.1006022
4171.766, 0.1072301
4173.695, 0.3165423
4175.623, 0.5624307
4177.552, 0.2598477
4179.480, -9.0390950E-02
4181.409, 0.1945143
4183.337, 1.2033540E-02
4185.266, -8.2791314E-02
4187.194, 0.6466807
4189.123, 0.1996829
4191.051, 0.6870169
4192.979, -0.2774406
4194.908, 0.6764321
4196.836, -2.6362740E-02
4198.765, -0.3646257
4200.693, 0.1845044
4202.622, -2.8371960E-02
4204.550, -0.3551585
4206.479, -2.6580799E-02
4208.407, 0.1618728
4210.335, -7.2878681E-02
4212.264, 2.2746969E-03
4214.192, 0.6165943
4216.121, 0.4596629
4218.049, -0.3655898
4219.978, 0.2932585
4221.906, 0.5420735
4223.835, -7.2073728E-02
4225.763, 0.1458913
4227.692, 0.3034540
4229.620, 0.1133848
4231.549, -5.0590679E-02
4233.477, 0.1208698
4235.406, -5.7891510E-02
4237.334, -0.1964377
4239.263, 5.4945540E-02
4241.191, 2.9931320E-02
4243.120, -0.1251621
4245.048, -0.2333109
4246.977, -2.3321370E-02
4248.905, -0.4008918
4250.833, -0.1493432
4252.762, 0.3765838
4254.690, -1.3176690E-02
4256.619, 0.3900483
4258.547, 0.2052711
4260.476, -3.4867600E-02
4262.404, -0.1072656
4264.333, -5.4633871E-02
4266.261, 0.2575622
4268.189, 0.3304789
4270.118, 0.3861232
4272.046, 0.1799894
4273.975, -4.2777602E-02
4275.903, 0.2961610
4277.832, 0.3455240
4279.760, -1.7066941E-02
4281.689, 2.3689819E-02
4283.617, 0.6649684
4285.546, -9.2228152E-02
4287.474, 3.2562241E-02
4289.403, -0.1698937
4291.331, 0.6466428
4293.260, 0.4481940
4295.188, 0.2364726
4297.117, 0.1051657
4299.045, -0.1662899
4300.974, 5.0332472E-02
4302.902, 0.4879813
4304.831, 0.4966168
4306.759, 0.1829767
4308.688, 0.2878858
4310.616, 0.2857321
4312.544, 1.7321820E-03
4314.473, 7.5287819E-02
4316.401, 0.4066072
4318.330, 0.1709101
4320.258, -0.6572669
4322.187, -0.7709072
4324.115, -0.1499725
4326.043, 8.0626018E-02
4327.972, 0.4350734
4329.900, 0.1501344
4331.829, 0.2162872
4333.757, 0.4587096
4335.686, 0.2426114
4337.614, -0.2209361
4339.543, 0.2751715
4341.471, 0.3712924
4343.400, 0.3960056
4345.328, 0.1706107
4347.257, 0.2619365
4349.185, 0.7267466
4351.114, 0.4625485
4353.042, -5.5583332E-02
4354.971, 0.2418901
4356.899, -0.4390862
4358.828, -7.6809250E-02
4360.756, -2.9241019E-03
4362.685, 0.1219325
4364.613, 0.1831865
4366.542, 8.0093533E-02
4368.470, 0.2656981
4370.398, 0.4749471
4372.327, 0.5296391
4374.255, 0.1357574
4376.184, 0.1087725
4378.112, 0.2848687
##END=



