##NAMES=Diaspore
##RRUFFID=R060287
##IDEAL CHEMISTRY=AlO(OH)
##LOCALITY=Selcuk, Mugla Province, Turkey
##OWNER=RRUFF
##SOURCE=Herb Obodda
##DESCRIPTION=Colorless transparent platy fragment
##STATUS=The identification of this mineral has been confirmed by X-ray diffraction and chemical analysis
##URL=https://www.rruff.net/odr/rruff_sample/R060287
##MEASURED CHEMISTRY=(Al_0.99_Fe^3+^_0.01_)O(OH) ; trace amounts of Ti   OH estimated by difference   Fe^3+^ by charge balance
##DIFFRACTION SAMPLE DESCRIPTION=Powder
##CELL PARAMETERS=a: 4.3999 b: 9.4254 c: 2.8453 alpha: 90 beta: 90 gamma: 90 volume: 117.996 crystal system: orthorhombic
##FILETYPE=Raman Processed
##RAMAN WAVELENGTH=780

89.20262, 251.8282
91.13109, 269.4532
93.05956, 281.2740
94.98802, 293.4068
96.91649, 301.5159
98.84496, 298.4588
100.7734, 288.2969
102.7019, 279.5200
104.6304, 271.7525
106.5588, 265.2194
108.4873, 258.6103
110.4158, 254.3471
112.3442, 253.8027
114.2727, 255.9716
116.2011, 257.1491
118.1296, 255.6188
120.0581, 258.7472
121.9865, 271.5518
123.9150, 283.7836
125.8435, 288.6884
127.7719, 288.6837
129.7004, 291.1227
131.6289, 295.1325
133.5574, 304.2419
135.4858, 316.8379
137.4143, 338.4252
139.3428, 361.6022
141.2712, 396.3483
143.1997, 461.3016
145.1281, 548.8618
147.0566, 719.2887
148.9851, 1039.131
150.9135, 1358.560
152.8420, 1706.866
154.7705, 1979.236
156.6989, 1924.728
158.6274, 1549.548
160.5559, 1173.689
162.4843, 790.7528
164.4128, 498.7498
166.3413, 354.0011
168.2697, 295.7217
170.1982, 261.0027
172.1267, 247.8156
174.0551, 238.5048
175.9836, 230.1721
177.9121, 229.7807
179.8405, 244.2192
181.7690, 262.0023
183.6975, 275.9221
185.6259, 284.7745
187.5544, 283.3829
189.4829, 268.4421
191.4113, 253.8378
193.3398, 243.0957
195.2683, 233.2814
197.1967, 221.7661
199.1252, 210.4712
201.0537, 203.4046
202.9821, 200.9820
204.9106, 199.2850
206.8391, 195.8803
208.7675, 195.2562
210.6960, 202.1826
212.6245, 210.7415
214.5529, 213.0364
216.4814, 209.7287
218.4099, 206.1630
220.3383, 202.3994
222.2668, 199.2592
224.1953, 196.9224
226.1237, 195.2418
228.0522, 194.2722
229.9807, 193.8359
231.9091, 193.5851
233.8376, 193.4155
235.7661, 193.7407
237.6945, 195.0880
239.6230, 196.2551
241.5515, 196.6680
243.4799, 196.7683
245.4084, 196.9037
247.3369, 197.0508
249.2654, 197.3546
251.1938, 199.3378
253.1223, 199.2829
255.0508, 193.9751
256.9792, 189.1046
258.9077, 188.9943
260.8362, 192.0920
262.7646, 194.5097
264.6931, 196.8522
266.6216, 196.6814
268.5500, 190.3964
270.4785, 186.9437
272.4070, 191.7355
274.3354, 199.0472
276.2639, 203.6972
278.1924, 205.8235
280.1208, 208.5686
282.0493, 212.2275
283.9778, 215.9276
285.9062, 218.3396
287.8347, 222.4917
289.7632, 230.0459
291.6916, 240.2056
293.6201, 251.6917
295.5486, 264.5120
297.4770, 282.5103
299.4055, 308.0849
301.3340, 331.0048
303.2624, 347.4838
305.1909, 362.2124
307.1194, 374.6505
309.0478, 388.4729
310.9763, 407.6625
312.9048, 430.9787
314.8332, 476.9438
316.7617, 538.9102
318.6902, 642.1497
320.6186, 768.1442
322.5471, 972.6819
324.4756, 1312.302
326.4040, 1749.721
328.3325, 2273.494
330.2609, 2891.600
332.1894, 3168.833
334.1179, 3023.402
336.0463, 2671.501
337.9748, 1993.795
339.9033, 1337.398
341.8317, 903.8152
343.7602, 644.7283
345.6887, 473.0926
347.6171, 382.0462
349.5456, 320.8987
351.4741, 292.1202
353.4025, 272.9636
355.3310, 259.8356
357.2595, 250.4598
359.1879, 244.1757
361.1164, 240.3617
363.0449, 239.2452
364.9733, 240.4684
366.9018, 240.1250
368.8303, 236.3481
370.7587, 235.4275
372.6872, 240.1684
374.6157, 246.3026
376.5441, 251.0845
378.4726, 256.9766
380.4011, 270.1111
382.3295, 287.0745
384.2580, 294.5579
386.1865, 290.1404
388.1149, 282.5937
390.0434, 267.7704
391.9719, 257.4607
393.9003, 258.5426
395.8288, 263.3233
397.7573, 264.1879
399.6857, 263.1196
401.6142, 262.9246
403.5427, 262.7131
405.4711, 271.7903
407.3996, 288.7041
409.3281, 318.9944
411.2565, 367.0573
413.1850, 425.1024
415.1135, 490.2747
417.0419, 561.7196
418.9704, 640.4084
420.8989, 725.5375
422.8273, 804.5840
424.7558, 870.7936
426.6843, 943.3146
428.6127, 982.4245
430.5412, 1082.286
432.4697, 1232.066
434.3981, 1499.562
436.3266, 1883.815
438.2551, 2427.957
440.1835, 3218.521
442.1120, 4230.116
444.0405, 5751.231
445.9689, 8460.391
447.8974, 10214.25
449.8259, 10750.07
451.7543, 10241.24
453.6828, 8013.015
455.6113, 5398.660
457.5397, 3482.402
459.4682, 2198.086
461.3967, 1340.425
463.3251, 988.7407
465.2536, 739.2927
467.1821, 613.1573
469.1105, 528.1099
471.0390, 479.4572
472.9675, 445.0468
474.8959, 415.8985
476.8244, 392.2585
478.7529, 372.0055
480.6813, 357.6785
482.6098, 357.1945
484.5383, 370.3519
486.4667, 401.8775
488.3952, 448.5608
490.3237, 525.9937
492.2521, 638.0642
494.1806, 783.9462
496.1091, 1025.855
498.0375, 1239.681
499.9660, 1326.092
501.8945, 1293.242
503.8229, 1122.232
505.7514, 825.2658
507.6799, 588.2930
509.6083, 420.6778
511.5368, 307.6912
513.4653, 265.2727
515.3937, 242.5404
517.3222, 227.2361
519.2507, 218.4237
521.1791, 218.6031
523.1076, 222.8930
525.0361, 223.1857
526.9645, 220.7361
528.8930, 220.5950
530.8215, 222.9950
532.7499, 225.7281
534.6784, 227.4139
536.6069, 232.0136
538.5353, 236.2146
540.4638, 248.9060
542.3923, 272.4705
544.3207, 307.2982
546.2492, 355.3655
548.1777, 414.9801
550.1061, 493.8258
552.0346, 583.7773
553.9631, 634.1403
555.8915, 640.9742
557.8200, 609.0751
559.7485, 506.3436
561.6769, 413.1947
563.6054, 336.2264
565.5339, 278.3099
567.4623, 246.4725
569.3908, 229.3301
571.3193, 219.5403
573.2477, 214.9656
575.1762, 212.4335
577.1047, 211.7360
579.0331, 212.3035
580.9616, 214.9396
582.8901, 216.3333
584.8185, 216.5852
586.7470, 215.5090
588.6755, 209.3960
590.6039, 206.5387
592.5324, 210.8772
594.4609, 219.5288
596.3893, 232.0797
598.3178, 246.4366
600.2463, 259.0173
602.1747, 270.2525
604.1032, 284.3936
606.0317, 303.2363
607.9601, 317.5329
609.8886, 329.6483
611.8171, 331.1878
613.7455, 317.7694
615.6740, 300.1870
617.6025, 277.2116
619.5309, 258.6586
621.4594, 251.1183
623.3879, 249.6297
625.3163, 251.1234
627.2448, 255.3098
629.1733, 261.3740
631.1017, 269.2641
633.0302, 279.1260
634.9587, 290.9924
636.8871, 307.0222
638.8156, 328.3531
640.7441, 348.1084
642.6725, 361.7786
644.6010, 381.6320
646.5295, 412.4590
648.4579, 450.9778
650.3864, 488.8658
652.3149, 539.9865
654.2433, 616.8452
656.1718, 715.7762
658.1003, 835.2363
660.0287, 972.2975
661.9572, 1125.141
663.8857, 1290.259
665.8141, 1391.382
667.7426, 1424.561
669.6711, 1382.934
671.5995, 1245.813
673.5280, 1089.853
675.4565, 913.4080
677.3849, 756.3496
679.3134, 632.2685
681.2419, 531.1428
683.1703, 447.8932
685.0988, 382.8674
687.0273, 340.4130
688.9557, 314.5345
690.8842, 296.5070
692.8127, 284.1792
694.7411, 270.3127
696.6696, 255.3194
698.5980, 246.8567
700.5265, 246.8803
702.4550, 244.2124
704.3834, 236.2057
706.3119, 228.0006
708.2404, 219.4483
710.1688, 212.3589
712.0973, 207.0673
714.0258, 203.1863
715.9542, 201.5329
717.8827, 200.5058
719.8112, 199.0797
721.7396, 196.8856
723.6681, 191.8710
725.5966, 186.8264
727.5250, 188.8590
729.4535, 196.2878
731.3820, 198.8756
733.3104, 196.0655
735.2389, 192.0847
737.1674, 184.8335
739.0958, 182.1201
741.0243, 187.3090
742.9528, 190.4519
744.8812, 189.7923
746.8097, 188.9495
748.7382, 189.1261
750.6666, 188.6751
752.5951, 186.3937
754.5236, 183.8833
756.4520, 181.7715
758.3805, 180.4432
760.3090, 181.2315
762.2374, 182.3566
764.1659, 180.3287
766.0944, 176.6721
768.0228, 175.9438
769.9513, 177.9643
771.8798, 179.7566
773.8082, 181.1261
775.7367, 180.7180
777.6652, 183.1065
779.5936, 185.2825
781.5221, 185.8831
783.4506, 190.5025
785.3790, 190.7205
787.3075, 191.6632
789.2360, 194.9677
791.1644, 198.4866
793.0929, 203.4942
795.0214, 205.2538
796.9498, 199.8936
798.8783, 193.0879
800.8068, 187.3119
802.7352, 182.2663
804.6637, 177.6255
806.5922, 174.0178
808.5206, 173.1727
810.4491, 173.5561
812.3776, 171.2000
814.3060, 170.8650
816.2345, 166.9652
818.1630, 169.4195
820.0914, 167.8496
822.0199, 168.3977
823.9484, 169.6288
825.8768, 167.6927
827.8053, 170.6193
829.7338, 170.1817
831.6622, 168.2717
833.5907, 164.3492
835.5192, 162.1649
837.4476, 163.2971
839.3761, 164.1257
841.3046, 164.0620
843.2330, 163.5408
845.1615, 162.5049
847.0900, 161.6618
849.0184, 160.9590
850.9469, 160.6204
852.8754, 160.3857
854.8038, 160.7014
856.7323, 163.0132
858.6608, 165.8126
860.5892, 168.7971
862.5177, 169.7783
864.4462, 163.9026
866.3746, 155.6191
868.3031, 151.6405
870.2316, 150.8297
872.1600, 151.2278
874.0885, 152.0151
876.0170, 149.9648
877.9454, 149.3622
879.8739, 147.5937
881.8024, 144.9085
883.7308, 143.3790
885.6593, 141.4358
887.5878, 139.8603
889.5162, 137.6271
891.4447, 137.4576
893.3732, 134.9253
895.3016, 134.2571
897.2301, 137.5581
899.1586, 138.7155
901.0870, 136.1227
903.0155, 133.0443
904.9440, 129.0971
906.8724, 127.5390
908.8009, 130.3058
910.7294, 132.6075
912.6578, 133.2625
914.5863, 132.2329
916.5148, 128.0365
918.4432, 125.5885
920.3717, 127.9198
922.3002, 130.6285
924.2286, 133.2387
926.1571, 133.2940
928.0856, 126.6407
930.0140, 120.8298
931.9425, 121.9126
933.8710, 123.4422
935.7994, 119.8312
937.7279, 116.2111
939.6564, 117.5229
941.5848, 115.4023
943.5133, 118.2101
945.4418, 116.1524
947.3702, 117.4970
949.2987, 120.0665
951.2272, 122.0300
953.1556, 122.5609
955.0841, 117.7426
957.0126, 111.9835
958.9410, 115.6885
960.8695, 113.2998
962.7980, 122.2622
964.7264, 116.7981
966.6549, 117.7170
968.5834, 121.6783
970.5118, 119.1335
972.4403, 113.3134
974.3688, 113.4780
976.2972, 117.6308
978.2257, 119.1351
980.1542, 118.6746
982.0826, 119.6544
984.0111, 121.8882
985.9396, 123.4429
987.8680, 123.8777
989.7965, 122.9942
991.7250, 121.2184
993.6534, 119.3251
995.5819, 117.6091
997.5104, 118.3404
999.4388, 121.3478
1001.367, 125.9709
1003.296, 132.2440
1005.224, 134.9785
1007.153, 133.9354
1009.081, 134.6352
1011.010, 137.2162
1012.938, 138.3521
1014.867, 137.9951
1016.795, 138.6345
1018.724, 140.3176
1020.652, 141.5933
1022.580, 141.9396
1024.509, 147.8271
1026.437, 160.8668
1028.366, 166.1581
1030.294, 161.8494
1032.223, 161.6455
1034.151, 165.1311
1036.080, 174.8772
1038.008, 190.9897
1039.937, 215.4427
1041.865, 249.7113
1043.794, 278.9773
1045.722, 304.3367
1047.651, 323.2363
1049.579, 321.8369
1051.507, 327.8826
1053.436, 293.7014
1055.364, 256.4296
1057.293, 215.9959
1059.221, 182.1423
1061.150, 155.2310
1063.078, 141.1018
1065.007, 139.3481
1066.935, 131.2948
1068.864, 117.2511
1070.792, 112.4142
1072.721, 116.3582
1074.649, 116.7840
1076.578, 113.9505
1078.506, 113.6255
1080.434, 115.3322
1082.363, 114.8099
1084.291, 112.6430
1086.220, 113.7768
1088.148, 117.5247
1090.077, 118.3866
1092.005, 116.2572
1093.934, 112.1478
1095.862, 107.5332
1097.791, 106.2487
1099.719, 107.1217
1101.648, 108.9357
1103.576, 110.9709
1105.505, 108.5693
1107.433, 103.7157
1109.361, 102.8200
1111.290, 104.5696
1113.218, 106.0637
1115.147, 106.8233
1117.075, 104.3734
1119.004, 101.4274
1120.932, 104.9659
1122.861, 102.8435
1124.789, 108.0575
1126.718, 103.7414
1128.646, 103.5532
1130.575, 104.9649
1132.503, 104.8276
1134.432, 104.1483
1136.360, 104.0092
1138.288, 104.5197
1140.217, 106.3503
1142.145, 107.5817
1144.074, 106.5395
1146.002, 105.1559
1147.931, 104.5610
1149.859, 104.2396
1151.788, 103.5758
1153.716, 103.3202
1155.645, 102.8159
1157.573, 104.6453
1159.502, 111.8831
1161.430, 117.6052
1163.359, 119.0948
1165.287, 119.3366
1167.215, 118.0544
1169.144, 119.3158
1171.072, 125.3775
1173.001, 128.5534
1174.929, 125.6594
1176.858, 128.3535
1178.786, 138.6590
1180.715, 151.4655
1182.643, 165.9398
1184.572, 189.1432
1186.500, 222.4347
1188.429, 244.5582
1190.357, 254.6673
1192.286, 248.9998
1194.214, 228.6198
1196.142, 206.0174
1198.071, 182.1223
1199.999, 163.6676
1201.928, 149.5016
1203.856, 133.7168
1205.785, 119.1252
1207.713, 115.1762
1209.642, 104.8255
1211.570, 106.1079
1213.499, 96.84739
1215.427, 97.47732
1217.356, 100.3793
1219.284, 98.91247
1221.213, 96.97143
1223.141, 97.49423
1225.069, 98.52829
1226.998, 99.82848
1228.926, 99.12162
1230.855, 93.92802
1232.783, 91.15114
1234.712, 92.56599
1236.640, 94.96326
1238.569, 100.0727
1240.497, 101.5404
1242.426, 97.16434
1244.354, 95.50300
1246.283, 97.51201
1248.211, 97.87784
1250.140, 96.50018
1252.068, 97.88940
1253.996, 101.0451
1255.925, 97.80280
1257.853, 98.80508
1259.782, 98.14848
1261.710, 96.31660
1263.639, 96.30854
1265.567, 94.31591
1267.496, 93.18013
1269.424, 94.75027
1271.353, 103.4846
1273.281, 108.9164
1275.210, 101.5830
1277.138, 96.06933
1279.067, 101.1247
1280.995, 104.5615
1282.923, 101.0800
1284.852, 99.46965
1286.780, 101.9161
1288.709, 102.1452
1290.637, 99.45115
1292.566, 99.67334
1294.494, 102.7751
1296.423, 104.4071
1298.351, 104.8202
1300.280, 104.7641
1302.208, 104.5315
1304.137, 102.7460
1306.065, 99.74375
1307.994, 97.78408
1309.922, 97.31295
1311.850, 97.92339
1313.779, 99.12637
1315.707, 102.4940
1317.636, 105.9462
1319.564, 108.5668
1321.493, 107.6277
1323.421, 99.48761
1325.350, 96.53407
1327.278, 102.9084
1329.207, 106.7311
1331.135, 105.9555
1333.064, 103.2394
1334.992, 100.0296
1336.921, 101.8353
1338.849, 100.7456
1340.777, 105.2093
1342.706, 102.4308
1344.634, 102.6749
1346.563, 103.3471
1348.491, 102.5642
1350.420, 100.9404
1352.348, 97.25597
1354.277, 95.69003
1356.205, 101.6624
1358.134, 105.3385
1360.062, 100.3817
1361.991, 98.35992
1363.919, 102.9942
1365.848, 104.0217
1367.776, 100.5916
1369.704, 99.46712
1371.633, 100.6474
1373.561, 101.7842
1375.490, 102.3542
1377.418, 99.95840
1379.347, 97.11079
1381.275, 99.24738
1383.204, 101.1751
1385.132, 97.36362
1387.061, 94.49110
1388.989, 97.00810
1390.918, 100.2820
1392.846, 102.4015
1394.775, 103.9209
1396.703, 104.7735
1398.631, 102.7467
1400.560, 98.75868
1402.488, 98.19441
1404.417, 99.83881
1406.345, 102.1731
1408.274, 104.3545
1410.202, 104.6890
1412.131, 103.9474
1414.059, 100.1761
1415.988, 96.95067
1417.916, 97.01266
1419.845, 100.0991
1421.773, 106.4108
1423.702, 108.6429
1425.630, 107.2170
1427.558, 106.8152
1429.487, 105.3007
1431.415, 103.2941
1433.344, 103.2696
1435.272, 106.7534
1437.201, 109.9735
1439.129, 108.2742
1441.058, 105.9378
1442.986, 105.4470
1444.915, 106.4644
1446.843, 106.7019
1448.771, 111.4734
1450.700, 110.6559
1452.628, 112.7620
1454.557, 116.8198
1456.485, 114.7063
1458.414, 108.9270
1460.342, 106.0851
1462.271, 105.3913
1464.199, 106.5017
1466.128, 107.4121
1468.056, 106.6112
1469.985, 107.0531
1471.913, 106.3309
1473.842, 104.2426
1475.770, 104.5241
1477.698, 100.0797
1479.627, 98.52477
1481.555, 97.98843
1483.484, 97.41526
1485.412, 96.64095
1487.341, 95.34533
1489.269, 97.58476
1491.198, 95.31177
1493.126, 97.26962
1495.055, 93.50141
1496.983, 92.91948
1498.912, 93.60116
1500.840, 96.38985
1502.769, 96.61777
1504.697, 96.93097
1506.625, 92.00004
1508.554, 95.00536
1510.482, 92.10880
1512.411, 87.84959
1514.339, 94.28901
1516.268, 99.15122
1518.196, 94.17107
1520.125, 91.01292
1522.053, 93.46281
1523.982, 95.22645
1525.910, 94.62002
1527.839, 92.23799
1529.767, 89.51984
1531.696, 90.70095
1533.624, 92.54271
1535.552, 89.23141
1537.481, 86.87401
1539.409, 89.49709
1541.338, 91.20559
1543.266, 91.47720
1545.195, 92.88713
1547.123, 95.14318
1549.052, 96.42203
1550.980, 96.81059
1552.909, 96.09208
1554.837, 95.73130
1556.766, 98.38367
1558.694, 99.74223
1560.623, 98.44199
1562.551, 98.24338
1564.479, 96.24092
1566.408, 92.49977
1568.336, 91.41808
1570.265, 97.21681
1572.193, 102.9917
1574.122, 98.45063
1576.050, 93.19154
1577.979, 94.37001
1579.907, 96.10612
1581.836, 98.40730
1583.764, 98.13029
1585.693, 98.46376
1587.621, 95.63498
1589.550, 96.88150
1591.478, 92.97313
1593.406, 91.43913
1595.335, 98.09909
1597.263, 102.1679
1599.192, 98.13276
1601.120, 95.32211
1603.049, 98.87367
1604.977, 100.8704
1606.906, 98.80027
1608.834, 95.40541
1610.763, 92.32216
1612.691, 91.21761
1614.620, 90.55595
1616.548, 89.39706
1618.477, 89.75082
1620.405, 91.81446
1622.333, 95.09054
1624.262, 99.13953
1626.190, 95.76080
1628.119, 88.87926
1630.047, 87.88763
1631.976, 86.74038
1633.904, 83.82231
1635.833, 84.08356
1637.761, 86.96915
1639.690, 87.99312
1641.618, 85.37698
1643.547, 82.46514
1645.475, 82.19095
1647.404, 86.13570
1649.332, 88.54451
1651.260, 85.89201
1653.189, 84.46997
1655.117, 84.28121
1657.046, 82.28747
1658.974, 80.08015
1660.903, 86.06898
1662.831, 82.35954
1664.760, 87.67594
1666.688, 80.71605
1668.617, 79.53865
1670.545, 79.19355
1672.474, 81.19840
1674.402, 82.00973
1676.331, 79.38354
1678.259, 78.35837
1680.188, 80.42934
1682.116, 82.12532
1684.044, 82.28195
1685.973, 82.65614
1687.901, 82.52923
1689.830, 81.19240
1691.758, 77.53340
1693.687, 75.21259
1695.615, 79.82756
1697.544, 83.78896
1699.472, 81.67730
1701.401, 79.92650
1703.329, 84.52062
1705.258, 87.50945
1707.186, 86.01009
1709.115, 84.25729
1711.043, 81.25861
1712.971, 78.73951
1714.900, 79.71200
1716.828, 78.69584
1718.757, 78.28302
1720.685, 81.45418
1722.614, 79.69646
1724.542, 84.10001
1726.471, 88.90418
1728.399, 89.89981
1730.328, 90.09758
1732.256, 89.66563
1734.185, 85.61047
1736.113, 86.18907
1738.042, 81.63969
1739.970, 81.58170
1741.898, 82.97365
1743.827, 85.29302
1745.755, 82.76907
1747.684, 85.99412
1749.612, 82.99298
1751.541, 87.86592
1753.469, 86.01261
1755.398, 82.69228
1757.326, 80.68404
1759.255, 80.89577
1761.183, 79.71596
1763.112, 80.04268
1765.040, 81.82611
1766.969, 81.48801
1768.897, 81.92214
1770.825, 84.75455
1772.754, 85.33083
1774.682, 82.08595
1776.611, 79.57312
1778.539, 77.61222
1780.468, 75.51890
1782.396, 75.09385
1784.325, 81.33631
1786.253, 86.42611
1788.182, 81.43197
1790.110, 76.40598
1792.039, 75.82222
1793.967, 76.08502
1795.896, 75.40861
1797.824, 74.27022
1799.752, 71.34553
1801.681, 66.22448
1803.609, 71.21272
1805.538, 69.48862
1807.466, 69.31451
1809.395, 72.63257
1811.323, 70.13027
1813.252, 70.73521
1815.180, 72.68594
1817.109, 74.57943
1819.037, 74.44048
1820.966, 75.27074
1822.894, 75.99064
1824.823, 74.91541
1826.751, 76.85167
1828.679, 76.40604
1830.608, 76.41623
1832.536, 76.35308
1834.465, 75.77318
1836.393, 71.83330
1838.322, 70.61768
1840.250, 73.48466
1842.179, 76.67043
1844.107, 77.51083
1846.036, 76.40874
1847.964, 77.08186
1849.893, 77.56919
1851.821, 74.12879
1853.750, 73.42671
1855.678, 75.53574
1857.606, 77.83495
1859.535, 80.17572
1861.463, 79.81578
1863.392, 77.88963
1865.320, 77.65600
1867.249, 79.30205
1869.177, 82.30144
1871.106, 80.30543
1873.034, 82.64030
1874.963, 78.57589
1876.891, 82.83626
1878.820, 84.12518
1880.748, 81.02483
1882.677, 79.35941
1884.605, 82.21725
1886.533, 83.04854
1888.462, 79.37746
1890.390, 81.27962
1892.319, 90.14348
1894.247, 93.54988
1896.176, 91.18238
1898.104, 90.62971
1900.033, 93.74979
1901.961, 95.20076
1903.890, 96.02439
1905.818, 99.25517
1907.747, 101.2951
1909.675, 102.8084
1911.604, 107.9372
1913.532, 109.4286
1915.460, 116.1337
1917.389, 115.1236
1919.317, 118.3396
1921.246, 122.0764
1923.174, 121.9688
1925.103, 127.7270
1927.031, 135.9520
1928.960, 133.5369
1930.888, 125.5498
1932.817, 125.7461
1934.745, 134.1542
1936.674, 139.2359
1938.602, 139.3305
1940.531, 143.5160
1942.459, 145.9828
1944.387, 145.2858
1946.316, 150.6879
1948.244, 150.9365
1950.173, 151.9494
1952.101, 150.2245
1954.030, 148.1998
1955.958, 150.8902
1957.887, 149.8581
1959.815, 156.1108
1961.744, 152.9518
1963.672, 156.5739
1965.601, 161.8261
1967.529, 161.9751
1969.458, 161.9325
1971.386, 161.4405
1973.314, 159.4154
1975.243, 161.2839
1977.171, 163.2710
1979.100, 166.9389
1981.028, 168.6497
1982.957, 171.7274
1984.885, 173.4019
1986.814, 176.8581
1988.742, 179.4942
1990.671, 180.8698
1992.599, 177.8315
1994.528, 172.9911
1996.456, 173.4149
1998.385, 176.4437
2000.313, 174.8492
2002.241, 163.8543
2004.170, 154.1178
2006.098, 151.4372
2008.027, 147.3733
2009.955, 139.0862
2011.884, 138.0322
2013.812, 136.4879
2015.741, 131.2655
2017.669, 128.1235
2019.598, 123.6250
2021.526, 121.7719
2023.455, 121.7747
2025.383, 121.3338
2027.312, 117.1700
2029.240, 114.8009
2031.168, 117.8191
2033.097, 116.3831
2035.025, 111.5326
2036.954, 111.2032
2038.882, 108.3746
2040.811, 106.5767
2042.739, 109.3962
2044.668, 110.9001
2046.596, 109.3808
2048.525, 105.4000
2050.453, 102.7335
2052.382, 101.7279
2054.310, 104.4592
2056.239, 102.5953
2058.167, 98.66927
2060.095, 96.60523
2062.024, 92.49193
2063.952, 90.75961
2065.881, 89.20619
2067.809, 88.58501
2069.738, 86.88863
2071.666, 88.98441
2073.595, 87.54381
2075.523, 83.89389
2077.452, 79.33691
2079.380, 81.13322
2081.309, 85.20726
2083.237, 85.10761
2085.166, 82.84892
2087.094, 80.01059
2089.022, 77.08537
2090.951, 74.29755
2092.879, 76.78630
2094.808, 78.17663
2096.736, 73.41033
2098.665, 70.42626
2100.593, 71.06509
2102.522, 67.73882
2104.450, 65.25142
2106.379, 68.56310
2108.307, 68.54498
2110.236, 66.85626
2112.164, 70.29957
2114.093, 69.69643
2116.021, 65.44724
2117.949, 65.56895
2119.878, 68.39911
2121.806, 69.72103
2123.735, 68.14111
2125.663, 68.22174
2127.592, 68.39423
2129.520, 63.56314
2131.449, 61.53474
2133.377, 67.23057
2135.306, 69.99438
2137.234, 67.33398
2139.163, 65.79118
2141.091, 66.17735
2143.020, 64.04900
2144.948, 66.15008
2146.876, 66.29105
2148.805, 70.30116
2150.733, 70.02303
2152.662, 72.09595
2154.590, 69.01935
2156.519, 65.63969
2158.447, 69.57719
2160.376, 73.34418
2162.304, 72.48214
2164.233, 71.73396
2166.161, 73.59431
2168.090, 77.04382
2170.018, 78.04488
2171.947, 79.33447
2173.875, 82.33063
2175.803, 79.96278
2177.732, 84.92709
2179.660, 84.21120
2181.589, 79.91950
2183.517, 78.06666
2185.446, 78.41836
2187.374, 79.34383
2189.303, 83.58443
2191.231, 87.61852
2193.160, 81.89120
2195.088, 85.76895
2197.017, 76.89211
2198.945, 84.92972
2200.874, 88.72075
2202.802, 86.05118
2204.730, 85.93996
2206.659, 91.80376
2208.587, 89.94447
2210.516, 87.37344
2212.444, 90.61535
2214.373, 91.31009
2216.301, 90.28666
2218.230, 94.51578
2220.158, 97.16729
2222.087, 97.62706
2224.015, 99.23281
2225.944, 98.76520
2227.872, 99.54581
2229.801, 97.59672
2231.729, 97.66289
2233.657, 99.07192
2235.586, 98.48625
2237.514, 100.9033
2239.443, 100.0724
2241.371, 102.4706
2243.300, 104.6766
2245.228, 106.7075
2247.157, 104.0023
2249.085, 107.3613
2251.014, 100.8144
2252.942, 110.4051
2254.871, 117.2689
2256.799, 118.3931
2258.728, 115.9824
2260.656, 118.1781
2262.584, 122.6796
2264.513, 120.0357
2266.441, 119.2246
2268.370, 124.2833
2270.298, 127.9810
2272.227, 130.3281
2274.155, 133.1225
2276.084, 133.5348
2278.012, 135.1576
2279.941, 133.9350
2281.869, 131.6671
2283.798, 133.0448
2285.726, 135.1211
2287.655, 142.3465
2289.583, 146.3575
2291.511, 145.8516
2293.440, 142.9320
2295.368, 141.2160
2297.297, 142.2386
2299.225, 139.1237
2301.154, 144.1407
2303.082, 137.1018
2305.011, 136.7450
2306.939, 139.5730
2308.868, 139.5211
2310.796, 143.3124
2312.725, 147.0410
2314.653, 139.9530
2316.582, 137.2097
2318.510, 140.0818
2320.438, 143.4536
2322.367, 144.5561
2324.295, 140.3993
2326.224, 134.1894
2328.152, 130.7377
2330.081, 130.9601
2332.009, 129.0604
2333.938, 124.0802
2335.866, 114.9282
2337.795, 109.3999
2339.723, 108.4218
2341.652, 102.1883
2343.580, 99.36661
2345.509, 95.03285
2347.437, 97.22872
2349.365, 87.95628
2351.294, 85.04517
2353.222, 86.12019
2355.151, 89.98454
2357.079, 85.93692
2359.008, 83.43063
2360.936, 87.63365
2362.865, 86.09418
2364.793, 83.90372
2366.722, 79.82873
2368.650, 79.92570
2370.579, 78.86575
2372.507, 80.16740
2374.436, 79.76568
2376.364, 81.53024
2378.292, 83.01968
2380.221, 80.04713
2382.149, 81.02108
2384.078, 80.66979
2386.006, 79.08648
2387.935, 80.15266
2389.863, 78.77522
2391.792, 77.49570
2393.720, 78.59679
2395.649, 81.30806
2397.577, 81.84377
2399.506, 83.35258
2401.434, 85.27881
2403.363, 84.84911
2405.291, 85.79133
2407.219, 85.07114
2409.148, 79.58233
2411.076, 84.91736
2413.005, 90.37935
2414.933, 83.50095
2416.862, 82.24294
2418.790, 83.59972
2420.719, 81.78741
2422.647, 80.95323
2424.576, 83.68107
2426.504, 85.75435
2428.433, 85.48061
2430.361, 84.90128
2432.290, 82.84950
2434.218, 80.45110
2436.146, 79.95687
2438.075, 83.76209
2440.003, 89.79823
2441.932, 94.78547
2443.860, 91.67445
2445.789, 87.28290
2447.717, 90.40784
2449.646, 88.95708
2451.574, 83.69270
2453.503, 84.87016
2455.431, 85.71094
2457.360, 87.34352
2459.288, 90.30022
2461.217, 86.93333
2463.145, 81.01788
2465.073, 80.13161
2467.002, 82.72243
2468.930, 88.78499
2470.859, 85.21873
2472.787, 83.01753
2474.716, 89.19614
2476.644, 85.71071
2478.573, 81.91076
2480.501, 90.04940
2482.430, 91.72237
2484.358, 88.48549
2486.287, 86.63515
2488.215, 86.30745
2490.144, 86.96336
2492.072, 87.11408
2494.000, 88.07945
2495.929, 89.01624
2497.857, 82.74619
2499.786, 80.22658
2501.714, 85.63720
2503.643, 87.78890
2505.571, 88.48511
2507.500, 91.22708
2509.428, 88.40739
2511.357, 91.77910
2513.285, 89.90045
2515.214, 85.99518
2517.142, 83.71289
2519.071, 88.19139
2520.999, 88.84003
2522.927, 88.36909
2524.856, 92.10120
2526.784, 89.11703
2528.713, 83.47269
2530.641, 89.02875
2532.570, 88.66461
2534.498, 83.50110
2536.427, 93.71176
2538.355, 93.42989
2540.284, 83.02437
2542.212, 85.76668
2544.141, 87.43214
2546.069, 86.31383
2547.998, 85.54640
2549.926, 87.26973
2551.854, 90.13646
2553.783, 88.09948
2555.711, 88.62653
2557.640, 92.85663
2559.568, 91.02930
2561.497, 85.64600
2563.425, 80.19077
2565.354, 88.32869
2567.282, 93.14884
2569.211, 89.36939
2571.139, 92.98919
2573.068, 97.30833
2574.996, 100.1520
2576.925, 95.24719
2578.853, 90.62939
2580.781, 92.13242
2582.710, 93.97784
2584.638, 93.84608
2586.567, 96.36018
2588.495, 94.69019
2590.424, 99.54963
2592.352, 100.5335
2594.281, 100.3887
2596.209, 100.4024
2598.138, 96.33763
2600.066, 96.58237
2601.995, 94.41044
2603.923, 92.07880
2605.852, 91.67078
2607.780, 91.86182
2609.708, 89.98270
2611.637, 94.25864
2613.565, 98.92326
2615.494, 100.1010
2617.422, 101.5817
2619.351, 98.93706
2621.279, 91.56763
2623.208, 94.35221
2625.136, 95.77996
2627.065, 89.33367
2628.993, 95.87389
2630.922, 101.1561
2632.850, 95.03738
2634.779, 98.93327
2636.707, 100.7602
2638.635, 94.05299
2640.564, 103.0151
2642.492, 109.6095
2644.421, 102.8169
2646.349, 94.07098
2648.278, 90.51120
2650.206, 95.30584
2652.135, 99.13943
2654.063, 98.37785
2655.992, 93.77493
2657.920, 106.9173
2659.849, 112.5118
2661.777, 104.0330
2663.706, 106.7093
2665.634, 109.2479
2667.563, 108.7574
2669.491, 108.1697
2671.419, 106.7974
2673.348, 108.1425
2675.276, 108.5383
2677.205, 110.7481
2679.133, 110.4078
2681.062, 111.7278
2682.990, 109.9908
2684.919, 108.2688
2686.847, 111.0912
2688.776, 114.0135
2690.704, 116.2470
2692.633, 111.2734
2694.561, 115.3890
2696.490, 121.4438
2698.418, 116.0343
2700.346, 118.1753
2702.275, 124.0353
2704.203, 129.3164
2706.132, 134.2926
2708.060, 134.8239
2709.989, 128.8825
2711.917, 135.1676
2713.846, 139.5701
2715.774, 135.5470
2717.703, 139.9923
2719.631, 140.2750
2721.560, 135.9867
2723.488, 141.4064
2725.417, 141.0822
2727.345, 136.5999
2729.273, 138.9397
2731.202, 143.8145
2733.130, 150.7521
2735.059, 154.7451
2736.987, 160.3799
2738.916, 162.6750
2740.844, 164.4867
2742.773, 166.6638
2744.701, 163.8606
2746.630, 167.7363
2748.558, 163.6176
2750.487, 162.3028
2752.415, 168.8376
2754.344, 171.9642
2756.272, 175.0354
2758.200, 181.0191
2760.129, 176.1244
2762.057, 177.1695
2763.986, 185.4456
2765.914, 182.0653
2767.843, 181.8963
2769.771, 187.6462
2771.700, 193.3119
2773.628, 189.4879
2775.557, 185.7548
2777.485, 196.5323
2779.414, 205.3750
2781.342, 209.6769
2783.271, 209.6064
2785.199, 207.0876
2787.127, 207.9364
2789.056, 215.3662
2790.984, 218.0687
2792.913, 224.0257
2794.841, 231.9865
2796.770, 235.0130
2798.698, 236.8670
2800.627, 242.2275
2802.555, 237.2782
2804.484, 236.3431
2806.412, 237.6859
2808.341, 240.7353
2810.269, 247.1499
2812.198, 250.4528
2814.126, 251.6013
2816.054, 255.2449
2817.983, 257.6828
2819.911, 259.1413
2821.840, 263.2145
2823.768, 265.7605
2825.697, 268.3309
2827.625, 272.8359
2829.554, 271.3698
2831.482, 266.4349
2833.411, 261.7161
2835.339, 276.5644
2837.268, 285.8032
2839.196, 287.1763
2841.125, 281.9409
2843.053, 280.9990
2844.981, 285.8092
2846.910, 281.6099
2848.838, 288.8293
2850.767, 282.3232
2852.695, 283.1221
2854.624, 289.6673
2856.552, 289.5421
2858.481, 284.4764
2860.409, 298.1461
2862.338, 303.8347
2864.266, 299.9555
2866.195, 291.3565
2868.123, 295.3500
2870.052, 304.2735
2871.980, 310.3170
2873.908, 309.3526
2875.837, 307.2796
2877.765, 303.7291
2879.694, 308.6112
2881.622, 314.8453
2883.551, 314.7404
2885.479, 309.3256
2887.408, 302.1248
2889.336, 300.8521
2891.265, 304.2691
2893.193, 308.5984
2895.122, 306.9272
2897.050, 301.5378
2898.979, 308.4215
2900.907, 306.6429
2902.835, 303.7012
2904.764, 308.7549
2906.692, 306.3874
2908.621, 300.8805
2910.549, 296.7886
2912.478, 299.2975
2914.406, 302.4204
2916.335, 300.8580
2918.263, 293.9883
2920.191, 294.3511
2922.120, 290.9900
2924.048, 280.8047
2925.977, 288.2022
2927.905, 291.4769
2929.834, 290.1966
2931.762, 279.5882
2933.691, 275.9875
2935.619, 277.0365
2937.548, 274.2275
2939.476, 272.8423
2941.405, 267.4379
2943.333, 263.2014
2945.261, 259.0457
2947.190, 258.7017
2949.118, 249.8661
2951.047, 249.5030
2952.975, 246.6465
2954.904, 241.5589
2956.832, 236.3775
2958.761, 236.6227
2960.689, 225.4600
2962.618, 218.2427
2964.546, 219.2651
2966.475, 212.9538
2968.403, 211.4492
2970.332, 207.6535
2972.260, 202.1546
2974.188, 193.0712
2976.117, 191.6954
2978.045, 184.1668
2979.974, 178.8317
2981.902, 174.2898
2983.831, 173.1110
2985.759, 172.3582
2987.688, 171.4428
2989.616, 167.6887
2991.545, 164.2122
2993.473, 159.0532
2995.402, 156.2280
2997.330, 152.3956
2999.259, 148.4983
3001.187, 147.1254
3003.115, 145.3216
3005.044, 145.9294
3006.972, 149.6925
3008.901, 151.7812
3010.829, 143.4414
3012.758, 143.5645
3014.686, 131.3227
3016.615, 133.1085
3018.543, 132.9458
3020.472, 125.1531
3022.400, 128.3883
3024.329, 135.4221
3026.257, 138.9138
3028.186, 130.9007
3030.114, 126.6329
3032.042, 123.0839
3033.971, 118.9043
3035.899, 118.2159
3037.828, 114.2249
3039.756, 119.0461
3041.685, 117.9526
3043.613, 121.4508
3045.542, 119.4730
3047.470, 107.8366
3049.399, 101.1041
3051.327, 100.0302
3053.256, 98.87775
3055.184, 103.7104
3057.113, 95.78185
3059.041, 98.46447
3060.969, 104.0455
3062.898, 101.9183
3064.826, 96.20029
3066.755, 89.79900
3068.683, 88.88474
3070.612, 95.81508
3072.540, 95.74373
3074.469, 91.13694
3076.397, 80.08363
3078.326, 85.92152
3080.254, 84.83182
3082.183, 81.98997
3084.111, 80.53779
3086.040, 76.63043
3087.968, 78.55061
3089.896, 82.08975
3091.825, 85.20577
3093.753, 80.23093
3095.682, 79.21696
3097.610, 80.30687
3099.539, 79.57262
3101.467, 78.60577
3103.396, 73.22617
3105.324, 66.66715
3107.253, 78.63986
3109.181, 69.17635
3111.110, 59.09856
3113.038, 66.31529
3114.967, 58.50306
3116.895, 55.61546
3118.823, 57.69337
3120.752, 66.36372
3122.680, 61.60431
3124.609, 62.36489
3126.537, 66.61099
3128.466, 65.88095
3130.394, 61.59217
3132.323, 54.23666
3134.251, 48.88691
3136.180, 44.80495
3138.108, 51.20150
3140.037, 57.23973
3141.965, 58.18593
3143.894, 43.61261
3145.822, 42.10935
3147.750, 45.63620
3149.679, 45.00451
3151.607, 43.43644
3153.536, 51.79979
3155.464, 57.65629
3157.393, 51.98513
3159.321, 41.66345
3161.250, 47.77673
3163.178, 51.44552
3165.107, 52.90737
3167.035, 54.44038
3168.964, 41.33941
3170.892, 37.65950
3172.821, 52.71198
3174.749, 40.66278
3176.677, 45.20464
3178.606, 46.56596
3180.534, 31.36332
3182.463, 36.45179
3184.391, 41.68169
3186.320, 42.49117
3188.248, 41.13610
3190.177, 42.30392
3192.105, 35.13132
3194.034, 30.84542
3195.962, 34.01024
3197.891, 32.97457
3199.819, 31.37280
3201.748, 33.75538
3203.676, 31.65296
3205.604, 32.83564
3207.533, 31.39943
3209.461, 33.91082
3211.390, 37.29642
3213.318, 30.56414
3215.247, 27.88284
3217.175, 29.48375
3219.104, 30.04934
3221.032, 29.19104
3222.961, 28.11111
3224.889, 27.40077
3226.818, 28.55741
3228.746, 24.40739
3230.675, 24.91802
3232.603, 22.50576
3234.531, 23.34630
3236.460, 21.01183
3238.388, 21.07800
3240.317, 21.56164
3242.245, 39.24240
3244.174, 25.55876
3246.102, 35.12554
3248.031, 36.72652
3249.959, 31.18836
3251.888, 23.38784
3253.816, 19.66303
3255.745, 17.23901
3257.673, 16.38136
3259.602, 30.95896
3261.530, 23.06535
3263.458, 30.04162
3265.387, 32.37718
3267.315, 17.10340
3269.244, 21.69523
3271.172, 22.05142
3273.101, 17.54720
3275.029, 14.66855
3276.958, 14.58391
3278.886, 16.16364
3280.815, 20.28723
3282.743, 24.52624
3284.672, 26.49187
3286.600, 16.01419
3288.529, 21.56632
3290.457, 16.64675
3292.385, 26.12402
3294.314, 13.43954
3296.242, 15.24148
3298.171, 17.54307
3300.099, 11.26755
3302.028, 14.83458
3303.956, 18.89545
3305.885, 14.25740
3307.813, 7.050337
3309.742, 16.04132
3311.670, 9.881994
3313.599, 14.52102
3315.527, 23.62854
3317.456, 23.19135
3319.384, 17.59608
3321.313, 22.28356
3323.241, 20.21381
3325.169, 20.44650
3327.098, 21.63971
3329.026, 15.81467
3330.955, 17.07071
3332.883, 18.28410
3334.812, 2.991825
3336.740, 11.75947
3338.669, 5.215646
3340.597, -1.697159
3342.526, 11.55909
3344.454, -0.4799221
3346.383, 2.701230
3348.311, 9.188509
3350.240, 10.88016
3352.168, 10.84012
3354.096, 22.33995
3356.025, 13.87069
3357.953, 1.262294
3359.882, 7.626951
3361.810, 10.22271
3363.739, 7.874058
3365.667, 8.797369
3367.596, 14.41216
3369.524, 20.05003
3371.453, 18.26777
3373.381, 20.04934
3375.310, 19.99508
3377.238, 15.51170
3379.167, 18.00069
3381.095, 12.53404
3383.023, 11.12881
3384.952, 15.09988
3386.880, 19.17647
3388.809, 9.713923
3390.737, 6.158762
3392.666, 8.652562
3394.594, 10.14583
3396.523, 2.003491
3398.451, -1.172664
3400.380, 4.250201
3402.308, 12.65680
3404.237, 13.48495
3406.165, 7.665290
3408.094, 8.933561
3410.022, 10.92634
3411.950, 11.31188
3413.879, 13.99468
3415.807, 4.226384
3417.736, 1.042673
3419.664, -8.9285247E-02
3421.593, -2.858393
3423.521, -3.783694
3425.450, 12.07238
3427.378, 14.37335
3429.307, 8.588090
3431.235, 13.20736
3433.164, 8.855452
3435.092, 8.968074
3437.021, 10.58530
3438.949, 10.84915
3440.877, 9.787535
3442.806, 2.479860
3444.734, 4.659485
3446.663, 6.187228
3448.591, 5.807530
3450.520, 15.43413
3452.448, 6.441395
3454.377, -0.9451520
3456.305, 0.2129579
3458.234, 7.586583
3460.162, 11.66086
3462.091, 6.115050
3464.019, 3.200974
3465.948, -4.042241
3467.876, -2.222965
3469.804, -8.034957
3471.733, 1.011684
3473.661, 6.584278
3475.590, 8.202116
3477.518, 7.119876
3479.447, 3.770257
3481.375, 2.459128
3483.304, 12.69716
3485.232, -0.3114563
3487.161, -3.638972
3489.089, 2.209117
3491.018, 11.35215
3492.946, 12.47572
3494.875, 8.457896
3496.803, 5.023824
3498.731, 2.517279
3500.660, 6.527843
3502.588, 11.63006
3504.517, 10.12361
3506.445, 0.8755458
3508.374, -2.888893
3510.302, -0.1535891
3512.231, 4.764746
3514.159, 4.875897
3516.088, -2.006616
3518.016, -9.636026
3519.945, 0.1456592
3521.873, -9.604782
3523.802, -1.078910
3525.730, 25.65245
3527.658, -0.2527400
3529.587, 10.38108
3531.515, -2.277831
3533.444, -11.54774
3535.372, -3.373271
3537.301, 4.092314
3539.229, -3.140552
3541.158, 2.731933
3543.086, 9.257555
3545.015, 9.924989
3546.943, 7.257098
3548.872, -2.441037
3550.800, 0.4447284
3552.729, 7.812486
3554.657, 2.592676
3556.585, 6.462554
3558.514, 2.481456
3560.442, 5.780791
3562.371, 6.029880
3564.299, 3.100967
3566.228, -2.728458
3568.156, -3.841708
3570.085, -9.702500
3572.013, 4.065345
3573.942, 6.484291
3575.870, 4.741148
3577.799, 23.38512
3579.727, 9.116871
3581.656, 10.14879
3583.584, -2.430501
3585.512, -12.18241
3587.441, -3.300538
3589.369, 1.275754
3591.298, 1.313634
3593.226, 6.580427
3595.155, -2.208904
3597.083, -16.42679
3599.012, -10.44673
3600.940, -11.24404
3602.869, 1.675845
3604.797, 3.589516
3606.726, -2.153860
3608.654, -1.710786
3610.583, -1.657363
3612.511, -1.773419
3614.439, 0.2457653
3616.368, -0.2263910
3618.296, 2.471967
3620.225, -0.7741070
3622.153, 11.68792
3624.082, 13.75329
3626.010, 5.876283
3627.939, 11.59372
3629.867, 6.798776
3631.796, 7.507951
3633.724, 2.434824
3635.653, 1.342487
3637.581, -4.948419
3639.510, -2.053907
3641.438, -0.9864306
3643.366, -2.769254
3645.295, 0.2358740
3647.223, 3.150974
3649.152, 5.184536
3651.080, 3.118801
3653.009, 9.086728
3654.937, 2.105790
3656.866, -8.228041
3658.794, 4.902271
3660.723, 7.333290
3662.651, 3.627780
3664.580, 12.13614
3666.508, 0.1877748
3668.437, -6.214938
3670.365, 3.958030
3672.293, 7.094453
3674.222, 3.813428
3676.150, 6.650005
3678.079, 2.317153
3680.007, 1.420588
3681.936, 0.2320521
3683.864, -4.321822
3685.793, -7.493762
3687.721, -3.872302
3689.650, -10.03434
3691.578, -11.25445
3693.507, -14.71450
3695.435, -10.22882
3697.364, -6.639332
3699.292, -4.997638
3701.220, 3.279512
3703.149, 1.251456
3705.077, 3.421237
3707.006, 8.382560
3708.934, 5.222548
3710.863, -5.965108
3712.791, -4.634357
3714.720, -0.8812029
3716.648, 6.362790
3718.577, 5.586410
3720.505, 2.379502
3722.434, 4.512209
3724.362, 10.29402
3726.291, 4.3831570E-03
3728.219, 5.587575
3730.147, 4.324515
3732.076, 3.253647
3734.004, 0.4803891
3735.933, 7.010396
3737.861, -4.321597
3739.790, 0.9573184
3741.718, 7.450510
3743.647, 4.855771
3745.575, -10.51291
3747.504, -23.69973
3749.432, -9.049131
3751.361, -6.723834
3753.289, -10.43572
3755.218, -15.71395
3757.146, -8.860075
3759.074, 0.3656105
3761.003, -0.4783231
3762.931, 13.04283
3764.860, 5.340546
3766.788, -6.177434
3768.717, 4.111295
3770.645, 14.57431
3772.574, 11.45726
3774.502, 7.302123
3776.431, 2.347043
3778.359, 2.212642
3780.288, -3.862572
3782.216, -4.240163
3784.145, 0.6550817
3786.073, 4.298619
3788.001, 4.299904
3789.930, -7.184074
3791.858, -2.285945
3793.787, -9.234198
3795.715, -9.157610
3797.644, -9.014643
3799.572, -14.73324
3801.501, -4.956276
3803.429, 11.87343
3805.358, 0.3160205
3807.286, 11.33466
3809.215, -2.602424
3811.143, -5.936801
3813.072, 17.16940
3815.000, -5.570141
3816.928, -7.377692
3818.857, 7.478857
3820.785, 2.432138
3822.714, -4.533070
3824.642, -5.658584
3826.571, -5.925999
3828.499, -5.814521
3830.428, -5.575230
3832.356, 2.358020
3834.285, -1.423293
3836.213, -4.450847
3838.142, 3.073870
3840.070, -2.836159
3841.999, 7.792804
3843.927, -4.326463
3845.855, -0.3754372
3847.784, 5.274376
3849.712, 5.370549
3851.641, 6.740997
3853.569, 10.70909
3855.498, 9.133974
3857.426, -6.374761
3859.355, 1.633054
3861.283, -6.416163
3863.212, 1.426033
3865.140, -4.969016
3867.069, -12.62103
3868.997, -9.249102
3870.926, -6.611629
3872.854, -11.93276
3874.782, -6.806346
3876.711, -6.042940
3878.639, -3.703966
3880.568, 6.752825
3882.496, 5.997009
3884.425, -3.149835
3886.353, -11.62584
3888.282, -19.61974
3890.210, -18.09893
3892.139, -19.61754
3894.067, -10.35463
3895.996, -13.20611
3897.924, -6.914149
3899.853, -2.473515
3901.781, -1.664878
3903.709, -7.351424
3905.638, 0.1985583
3907.566, -3.840644
3909.495, 0.5719855
3911.423, 5.323962
3913.352, 3.301147
3915.280, -7.357507
3917.209, -16.82689
3919.137, 0.9870925
3921.066, 4.726583
3922.994, 12.30580
3924.923, 11.04101
3926.851, 6.888781
3928.780, 3.774564
3930.708, 1.076030
3932.636, 4.0278379E-02
3934.565, 1.448676
3936.493, -15.01298
3938.422, 3.699536
3940.350, -4.384480
3942.279, -5.158677
3944.207, 3.534751
3946.136, 7.591807
3948.064, 6.506181
3949.993, 8.800662
3951.921, 12.87057
3953.850, 10.88255
3955.778, 20.97562
3957.707, 7.407413
3959.635, -0.6461712
3961.563, -7.245407
3963.492, 1.026837
3965.420, 1.223250
3967.349, -20.40290
3969.277, -5.497056
3971.206, 1.459733
3973.134, 16.99724
3975.063, 1.550274
3976.991, -8.495339
3978.920, 3.201003
3980.848, 2.670594
3982.777, 2.796098
3984.705, 3.570979
3986.634, -0.1268387
3988.562, -0.4933165
3990.490, -1.854004
3992.419, -7.1054883E-02
3994.347, 11.77513
3996.276, 7.828405
3998.204, 7.378249
4000.133, 6.952006
4002.061, 0.9042761
4003.990, -2.356925
4005.918, 1.363377
4007.847, 7.130869
4009.775, 7.291395
4011.704, 12.71192
4013.632, 3.510280
4015.561, 3.752977
4017.489, 3.962667
4019.417, 0.9089066
4021.346, -0.8089464
4023.274, 2.139343
4025.203, -7.881849
4027.131, -4.014123
4029.060, -8.480392
4030.988, -5.616596
4032.917, -8.644468
4034.845, 6.667410
4036.774, 13.39281
4038.702, 6.450792
4040.631, -0.3762216
4042.559, -6.712829
4044.488, -10.35213
4046.416, -1.857041
4048.344, 14.84250
4050.273, 2.593539
4052.201, -5.483907
4054.130, 5.357250
4056.058, -5.043717
4057.987, -16.48003
4059.915, -10.91919
4061.844, -3.793416
4063.772, -4.327984
4065.701, 0.5291611
4067.629, 11.92283
4069.558, -5.343896
4071.486, 6.675967
4073.415, 14.70519
4075.343, -2.336030
4077.271, 9.612233
4079.200, 7.784772
4081.128, 0.6793562
4083.057, -1.258940
4084.985, -5.729327
4086.914, -8.448297
4088.842, 2.091057
4090.771, 14.83485
4092.699, 4.4443078E-02
4094.628, 12.23848
4096.556, -4.223226
4098.484, -22.54402
4100.413, 0.7801678
4102.341, 4.989332
4104.270, -4.204453
4106.198, -12.61894
4108.127, -17.51796
4110.055, 9.483806
4111.984, 6.456066
4113.912, -0.6083847
4115.841, 4.8349671E-02
4117.769, -8.483027
4119.698, -12.55056
4121.626, -5.343926
4123.555, -2.222401
4125.483, 1.245640
4127.412, 3.921060
4129.340, -2.979904
4131.269, -10.82784
4133.197, -3.111003
4135.125, -2.965214
4137.054, -13.19474
4138.982, 2.667044
4140.911, 0.9014729
4142.839, 12.18679
4144.768, 2.684043
4146.696, -4.862836
4148.625, -5.771930
4150.553, 5.492690
4152.481, 11.61363
4154.410, -2.929760
4156.338, -15.91291
4158.267, -13.24258
4160.195, -19.43766
4162.124, -16.51959
4164.052, 13.10087
4165.981, 2.099838
4167.909, 7.294049
4169.838, -7.264523
4171.766, 5.8011379E-02
4173.695, 1.237759
4175.623, -1.984725
4177.552, 1.639209
4179.480, 4.084199
4181.409, 5.742231
4183.337, 6.307864
4185.266, -8.742963
4187.194, 1.506163
4189.123, -4.701322
4191.051, 3.242627
4192.979, 1.169465
4194.908, 3.236552
4196.836, -1.089384
4198.765, 10.81841
4200.693, -8.990560
4202.622, -10.08504
4204.550, -3.019126
4206.479, -9.390856
4208.407, -11.03854
4210.335, 4.636750
4212.264, 0.3857564
4214.192, -6.180860
4216.121, 0.7817720
4218.049, -15.68567
4219.978, -3.735075
4221.906, -14.89543
4223.835, -5.872813
4225.763, -0.2864391
4227.692, 15.10538
4229.620, 10.64504
4231.549, 2.519248
4233.477, 2.588899
4235.406, 1.376230
4237.334, -8.485568
4239.263, -12.75619
4241.191, -3.793568
4243.120, 0.2066862
4245.048, 4.409355
4246.977, -1.976923
4248.905, -9.014270
4250.833, 6.579916
4252.762, -16.53902
4254.690, -4.362975
4256.619, 3.838895
4258.547, 4.892962
4260.476, -0.2451836
4262.404, -8.180653
4264.333, -9.886324
4266.261, -10.47181
4268.189, -3.178819
4270.118, 0.6895353
4272.046, -3.885619
4273.975, -7.702260
4275.903, -6.809006
4277.832, -5.902405
4279.760, -5.265177
4281.689, -12.85372
4283.617, -0.6424688
4285.546, -0.2318139
4287.474, 2.493973
4289.403, -8.726275
4291.331, -16.43653
4293.260, -9.452977
4295.188, -5.265292
4297.117, -10.08176
4299.045, -6.477867
4300.974, -17.45611
4302.902, -8.049078
4304.831, -12.75015
4306.759, -14.09184
4308.688, -4.892451
4310.616, 1.869347
4312.544, -2.140824
4314.473, -1.936947
4316.401, -1.098157
4318.330, -2.085331
4320.258, 6.936407
4322.187, -2.347482
4324.115, -0.7629844
4326.043, -6.504909
4327.972, 3.710477
4329.900, -7.282045
4331.829, -14.78324
4333.757, 0.7252585
4335.686, 5.205522
4337.614, -13.32518
4339.543, -10.05994
4341.471, 14.90251
4343.400, -7.189040
4345.328, 4.871598
4347.257, 4.106472
4349.185, -12.98664
4351.114, -16.64598
4353.042, -4.592234
4354.971, -1.022866
4356.899, -18.38193
4358.828, 2.316403
4360.756, 8.033278
4362.685, -17.78898
4364.613, -12.77615
4366.542, 1.971828
4368.470, 3.826713
4370.398, 6.632631
4372.327, 5.016389
4374.255, -0.3458542
4376.184, -11.24144
4378.112, -16.91597
##END=



