##NAMES=Dickinsonite-(KMnNa)
##RRUFFID=R160070
##IDEAL CHEMISTRY=K(NaMn)CaNa_3_AlMn_13_(PO_4_)_12_(OH)_2_
##LOCALITY=Smith mine, Newport, New Hampshire, USA
##OWNER=UAMM
##SOURCE=Rock Currier
##DESCRIPTION=Pale yellowish green granular crystals, associated with muscovite and albite.
##STATUS=The identification of this mineral has been confirmed only by single crystal X-ray diffraction
##URL=https://www.rruff.net/odr/rruff_sample/R160070
##DIFFRACTION SAMPLE DESCRIPTION=Single crystal, powder profile is calculated
##CELL PARAMETERS=a: 16.4999 b: 10.037 c: 25.6618 alpha: 90 beta: 112.3923 gamma: 90 volume: 3929.39 crystal system: monoclinic
##FILETYPE=Raman Processed
##RAMAN WAVELENGTH=532

95.17188, 1154.760
97.10034, 1186.720
99.02881, 1225.855
100.9573, 1300.534
102.8857, 1377.629
104.8142, 1448.794
106.7427, 1517.268
108.6711, 1581.969
110.5996, 1644.025
112.5281, 1707.185
114.4565, 1761.785
116.3850, 1807.811
118.3135, 1849.616
120.2419, 1888.248
122.1704, 1923.003
124.0989, 1960.007
126.0273, 1999.285
127.9558, 2040.051
129.8843, 2082.833
131.8127, 2124.363
133.7412, 2167.122
135.6697, 2212.337
137.5981, 2260.008
139.5266, 2308.129
141.4551, 2355.833
143.3835, 2402.763
145.3120, 2449.367
147.2405, 2495.439
149.1689, 2541.498
151.0974, 2588.605
153.0259, 2639.036
154.9543, 2689.107
156.8828, 2736.712
158.8113, 2781.443
160.7397, 2826.449
162.6682, 2873.106
164.5967, 2919.888
166.5251, 2962.821
168.4536, 2999.756
170.3821, 3033.361
172.3105, 3065.501
174.2390, 3097.146
176.1675, 3124.448
178.0959, 3147.235
180.0244, 3165.193
181.9529, 3180.055
183.8813, 3190.777
185.8098, 3199.739
187.7383, 3208.645
189.6667, 3219.177
191.5952, 3228.999
193.5237, 3239.575
195.4521, 3250.487
197.3806, 3257.952
199.3091, 3258.661
201.2375, 3257.518
203.1660, 3258.424
205.0945, 3262.465
207.0229, 3266.642
208.9514, 3270.228
210.8799, 3273.155
212.8083, 3275.251
214.7368, 3275.585
216.6653, 3275.348
218.5938, 3275.992
220.5222, 3277.949
222.4507, 3280.086
224.3792, 3282.231
226.3076, 3284.599
228.2361, 3286.929
230.1646, 3288.603
232.0930, 3290.701
234.0215, 3294.241
235.9500, 3299.798
237.8784, 3305.911
239.8069, 3311.802
241.7354, 3317.049
243.6638, 3323.645
245.5923, 3333.934
247.5208, 3344.582
249.4492, 3352.102
251.3777, 3352.550
253.3062, 3353.629
255.2346, 3357.447
257.1631, 3364.273
259.0916, 3371.813
261.0200, 3381.609
262.9485, 3391.648
264.8770, 3399.371
266.8054, 3402.406
268.7339, 3405.446
270.6624, 3409.160
272.5908, 3413.409
274.5193, 3418.835
276.4478, 3426.383
278.3762, 3434.580
280.3047, 3441.737
282.2332, 3447.792
284.1616, 3452.824
286.0901, 3456.940
288.0186, 3460.302
289.9470, 3462.306
291.8755, 3461.429
293.8040, 3460.133
295.7324, 3461.350
297.6609, 3465.464
299.5894, 3471.051
301.5178, 3478.042
303.4463, 3486.501
305.3748, 3494.689
307.3032, 3502.594
309.2317, 3510.098
311.1602, 3516.738
313.0886, 3521.759
315.0171, 3527.790
316.9456, 3536.043
318.8740, 3546.412
320.8025, 3555.559
322.7310, 3561.707
324.6594, 3567.761
326.5879, 3575.968
328.5164, 3587.417
330.4448, 3596.683
332.3733, 3601.383
334.3018, 3602.463
336.2302, 3605.606
338.1587, 3611.910
340.0872, 3619.688
342.0156, 3628.986
343.9441, 3641.560
345.8726, 3651.887
347.8010, 3656.457
349.7295, 3659.248
351.6580, 3668.823
353.5864, 3688.973
355.5149, 3709.624
357.4434, 3726.157
359.3718, 3736.251
361.3003, 3747.417
363.2288, 3758.738
365.1572, 3770.929
367.0857, 3785.010
369.0142, 3801.729
370.9426, 3818.990
372.8711, 3836.764
374.7996, 3855.316
376.7280, 3872.917
378.6565, 3889.466
380.5850, 3905.613
382.5134, 3921.241
384.4419, 3935.116
386.3704, 3952.680
388.2988, 3974.421
390.2273, 4000.577
392.1558, 4031.457
394.0842, 4070.795
396.0127, 4110.571
397.9412, 4147.140
399.8696, 4179.612
401.7981, 4210.992
403.7266, 4243.446
405.6550, 4273.744
407.5835, 4297.198
409.5120, 4313.580
411.4404, 4323.846
413.3689, 4327.455
415.2974, 4324.293
417.2258, 4321.432
419.1543, 4321.300
421.0828, 4320.845
423.0112, 4317.245
424.9397, 4309.917
426.8682, 4304.499
428.7966, 4302.631
430.7251, 4303.825
432.6536, 4307.194
434.5820, 4312.524
436.5105, 4319.848
438.4390, 4329.509
440.3674, 4341.102
442.2959, 4354.085
444.2244, 4370.885
446.1528, 4387.067
448.0813, 4397.651
450.0098, 4396.994
451.9382, 4398.169
453.8667, 4406.281
455.7952, 4418.264
457.7236, 4425.892
459.6521, 4425.255
461.5806, 4423.940
463.5090, 4425.175
465.4375, 4430.287
467.3660, 4437.205
469.2944, 4448.707
471.2229, 4461.224
473.1514, 4470.369
475.0798, 4470.383
477.0083, 4472.270
478.9368, 4480.284
480.8652, 4491.355
482.7937, 4492.858
484.7222, 4479.431
486.6506, 4460.968
488.5791, 4442.768
490.5076, 4425.139
492.4360, 4410.490
494.3645, 4400.461
496.2930, 4394.461
498.2214, 4391.353
500.1499, 4391.263
502.0784, 4393.368
504.0068, 4396.239
505.9353, 4399.491
507.8638, 4404.997
509.7922, 4412.511
511.7207, 4420.800
513.6492, 4430.713
515.5776, 4442.472
517.5061, 4450.956
519.4346, 4450.632
521.3630, 4449.972
523.2915, 4456.907
525.2200, 4478.193
527.1484, 4498.912
529.0769, 4515.075
531.0054, 4529.694
532.9338, 4548.896
534.8623, 4573.823
536.7908, 4602.040
538.7192, 4633.401
540.6477, 4668.342
542.5762, 4701.841
544.5046, 4734.007
546.4331, 4764.598
548.3616, 4794.769
550.2900, 4826.149
552.2185, 4852.408
554.1470, 4873.229
556.0754, 4889.346
558.0039, 4901.076
559.9324, 4906.614
561.8608, 4911.288
563.7893, 4913.756
565.7178, 4914.969
567.6462, 4921.745
569.5747, 4937.984
571.5032, 4955.815
573.4316, 4973.069
575.3601, 4989.959
577.2886, 5004.318
579.2170, 5016.254
581.1455, 5026.456
583.0740, 5035.283
585.0024, 5041.224
586.9309, 5051.250
588.8594, 5068.750
590.7878, 5090.554
592.7163, 5110.202
594.6448, 5126.949
596.5732, 5141.495
598.5017, 5152.953
600.4302, 5161.056
602.3586, 5167.516
604.2871, 5176.015
606.2156, 5178.873
608.1440, 5171.213
610.0725, 5153.478
612.0010, 5134.371
613.9294, 5114.096
615.8579, 5094.922
617.7864, 5077.795
619.7148, 5059.643
621.6433, 5051.664
623.5718, 5056.675
625.5002, 5070.899
627.4287, 5089.177
629.3572, 5112.064
631.2856, 5134.539
633.2141, 5155.368
635.1426, 5174.003
637.0710, 5188.896
638.9995, 5202.743
640.9280, 5210.321
642.8564, 5209.701
644.7849, 5201.442
646.7134, 5187.772
648.6418, 5164.143
650.5703, 5140.837
652.4988, 5123.042
654.4272, 5112.660
656.3557, 5102.034
658.2842, 5085.966
660.2126, 5073.136
662.1411, 5073.708
664.0696, 5089.971
665.9980, 5100.781
667.9265, 5092.154
669.8550, 5079.914
671.7834, 5080.850
673.7119, 5116.038
675.6404, 5139.448
677.5688, 5138.777
679.4973, 5125.531
681.4258, 5122.067
683.3542, 5131.861
685.2827, 5143.389
687.2112, 5153.628
689.1396, 5162.476
691.0681, 5169.448
692.9966, 5172.955
694.9250, 5177.187
696.8535, 5184.330
698.7820, 5194.298
700.7104, 5204.948
702.6389, 5216.483
704.5674, 5228.547
706.4958, 5240.648
708.4243, 5252.264
710.3528, 5264.190
712.2813, 5276.896
714.2097, 5288.686
716.1382, 5298.258
718.0667, 5305.744
719.9951, 5312.240
721.9236, 5316.865
723.8521, 5321.979
725.7805, 5329.426
727.7090, 5341.294
729.6375, 5353.311
731.5659, 5365.070
733.4944, 5377.553
735.4229, 5392.116
737.3513, 5409.290
739.2798, 5425.991
741.2083, 5441.389
743.1367, 5455.433
745.0652, 5468.011
746.9937, 5473.431
748.9221, 5483.232
750.8506, 5503.337
752.7791, 5527.083
754.7075, 5541.870
756.6360, 5544.081
758.5645, 5546.379
760.4929, 5552.264
762.4214, 5562.092
764.3499, 5576.546
766.2783, 5600.271
768.2068, 5623.475
770.1353, 5643.904
772.0637, 5661.136
773.9922, 5675.575
775.9207, 5683.642
777.8491, 5692.787
779.7776, 5707.101
781.7061, 5725.859
783.6345, 5741.042
785.5630, 5754.201
787.4915, 5764.039
789.4199, 5768.540
791.3484, 5769.127
793.2769, 5772.717
795.2053, 5780.397
797.1338, 5789.931
799.0623, 5800.860
800.9907, 5813.059
802.9192, 5823.146
804.8477, 5826.750
806.7761, 5832.844
808.7046, 5846.780
810.6331, 5868.526
812.5615, 5888.588
814.4900, 5905.708
816.4185, 5922.832
818.3469, 5940.733
820.2754, 5959.215
822.2039, 5979.065
824.1323, 6000.062
826.0608, 6021.294
827.9893, 6042.350
829.9177, 6062.799
831.8462, 6081.727
833.7747, 6100.138
835.7031, 6115.876
837.6316, 6127.401
839.5601, 6135.239
841.4885, 6144.055
843.4170, 6157.669
845.3455, 6169.482
847.2739, 6175.016
849.2024, 6173.675
851.1309, 6177.217
853.0593, 6190.739
854.9878, 6203.074
856.9163, 6208.120
858.8447, 6207.207
860.7732, 6206.670
862.7017, 6206.800
864.6301, 6208.959
866.5586, 6214.257
868.4871, 6223.024
870.4155, 6233.250
872.3440, 6244.007
874.2725, 6257.072
876.2009, 6273.773
878.1294, 6293.079
880.0579, 6311.888
881.9863, 6326.287
883.9148, 6344.601
885.8433, 6368.975
887.7717, 6399.151
889.7002, 6434.521
891.6287, 6481.136
893.5571, 6525.864
895.4856, 6563.905
897.4141, 6597.985
899.3425, 6635.081
901.2710, 6676.876
903.1995, 6720.327
905.1279, 6763.433
907.0564, 6807.322
908.9849, 6855.466
910.9133, 6907.752
912.8418, 6963.377
914.7703, 7022.604
916.6987, 7084.146
918.6272, 7146.445
920.5557, 7210.132
922.4841, 7272.442
924.4126, 7327.525
926.3411, 7383.938
928.2695, 7452.720
930.1980, 7538.025
932.1265, 7629.983
934.0549, 7728.025
935.9834, 7831.675
937.9119, 7940.352
939.8403, 8053.464
941.7688, 8171.187
943.6973, 8295.654
945.6257, 8421.863
947.5542, 8546.306
949.4827, 8668.575
951.4111, 8790.479
953.3396, 8915.774
955.2681, 9038.707
957.1965, 9157.513
959.1250, 9273.643
961.0535, 9377.770
962.9819, 9463.274
964.9104, 9544.351
966.8389, 9621.360
968.7673, 9697.569
970.6958, 9790.737
972.6243, 9916.853
974.5527, 10036.43
976.4812, 10140.91
978.4097, 10228.65
980.3381, 10292.41
982.2666, 10326.15
984.1951, 10342.87
986.1235, 10347.56
988.0520, 10335.66
989.9805, 10297.21
991.9089, 10229.08
993.8374, 10147.60
995.7659, 10060.90
997.6943, 9958.385
999.6228, 9826.754
1001.551, 9658.934
1003.480, 9486.787
1005.408, 9309.493
1007.337, 9134.275
1009.265, 8964.889
1011.194, 8800.718
1013.122, 8652.883
1015.051, 8526.098
1016.979, 8412.959
1018.907, 8313.951
1020.836, 8226.981
1022.764, 8142.759
1024.693, 8055.297
1026.621, 7979.176
1028.550, 7920.542
1030.478, 7875.494
1032.407, 7831.533
1034.335, 7781.792
1036.264, 7739.693
1038.192, 7710.595
1040.121, 7687.355
1042.049, 7659.154
1043.978, 7624.382
1045.906, 7593.818
1047.834, 7571.756
1049.763, 7553.967
1051.691, 7538.294
1053.620, 7525.592
1055.548, 7512.782
1057.477, 7498.337
1059.405, 7486.900
1061.334, 7481.140
1063.262, 7481.295
1065.191, 7484.540
1067.119, 7491.664
1069.048, 7500.107
1070.976, 7506.159
1072.905, 7512.594
1074.833, 7524.621
1076.761, 7542.982
1078.690, 7559.998
1080.618, 7573.596
1082.547, 7584.331
1084.475, 7593.022
1086.404, 7600.717
1088.332, 7605.778
1090.261, 7607.217
1092.189, 7609.389
1094.118, 7614.711
1096.046, 7623.164
1097.975, 7632.188
1099.903, 7640.307
1101.832, 7650.376
1103.760, 7666.856
1105.688, 7684.533
1107.617, 7693.732
1109.545, 7689.928
1111.474, 7691.235
1113.402, 7706.677
1115.331, 7724.470
1117.259, 7735.145
1119.188, 7737.033
1121.116, 7735.925
1123.045, 7727.266
1124.973, 7719.647
1126.902, 7718.001
1128.830, 7721.270
1130.759, 7724.453
1132.687, 7728.274
1134.615, 7732.610
1136.544, 7737.715
1138.472, 7743.998
1140.401, 7752.195
1142.329, 7763.039
1144.258, 7771.459
1146.186, 7775.427
1148.115, 7776.247
1150.043, 7773.847
1151.972, 7767.916
1153.900, 7760.753
1155.829, 7751.930
1157.757, 7742.935
1159.686, 7736.723
1161.614, 7730.146
1163.542, 7716.531
1165.471, 7693.644
1167.399, 7677.297
1169.328, 7674.563
1171.256, 7677.370
1173.185, 7681.086
1175.113, 7686.001
1177.042, 7691.769
1178.970, 7696.860
1180.899, 7704.732
1182.827, 7717.564
1184.756, 7732.669
1186.684, 7743.673
1188.613, 7746.419
1190.541, 7751.552
1192.469, 7765.201
1194.398, 7777.021
1196.326, 7777.046
1198.255, 7767.797
1200.183, 7763.795
1202.112, 7770.679
1204.040, 7779.746
1205.969, 7788.450
1207.897, 7797.492
1209.826, 7807.152
1211.754, 7815.422
1213.683, 7826.935
1215.611, 7842.717
1217.540, 7858.761
1219.468, 7872.114
1221.396, 7882.275
1223.325, 7891.083
1225.253, 7897.186
1227.182, 7904.563
1229.110, 7916.498
1231.039, 7930.579
1232.967, 7943.763
1234.896, 7956.775
1236.824, 7967.141
1238.753, 7971.290
1240.681, 7976.825
1242.610, 7987.275
1244.538, 8002.461
1246.467, 8021.429
1248.395, 8046.892
1250.323, 8070.053
1252.252, 8087.179
1254.180, 8100.974
1256.109, 8114.495
1258.037, 8127.536
1259.966, 8138.352
1261.894, 8146.453
1263.823, 8153.087
1265.751, 8159.081
1267.680, 8164.611
1269.608, 8169.998
1271.537, 8176.200
1273.465, 8181.512
1275.394, 8183.447
1277.322, 8187.792
1279.250, 8199.923
1281.179, 8218.855
1283.107, 8234.238
1285.036, 8241.418
1286.964, 8250.315
1288.893, 8263.997
1290.821, 8278.553
1292.750, 8288.833
1294.678, 8291.573
1296.607, 8300.089
1298.535, 8321.794
1300.464, 8341.705
1302.392, 8354.031
1304.321, 8361.077
1306.249, 8366.567
1308.177, 8368.330
1310.106, 8375.499
1312.034, 8395.715
1313.963, 8414.968
1315.891, 8423.140
1317.820, 8423.387
1319.748, 8425.339
1321.677, 8430.444
1323.605, 8439.012
1325.534, 8454.034
1327.462, 8472.168
1329.391, 8490.334
1331.319, 8507.842
1333.248, 8526.862
1335.176, 8545.764
1337.104, 8564.112
1339.033, 8581.810
1340.961, 8596.353
1342.890, 8604.403
1344.818, 8603.858
1346.747, 8604.064
1348.675, 8607.990
1350.604, 8612.444
1352.532, 8619.196
1354.461, 8627.278
1356.389, 8633.799
1358.318, 8639.621
1360.246, 8643.721
1362.175, 8638.917
1364.103, 8639.918
1366.031, 8659.487
1367.960, 8689.050
1369.888, 8708.587
1371.817, 8713.646
1373.745, 8720.993
1375.674, 8735.489
1377.602, 8752.480
1379.531, 8770.514
1381.459, 8789.353
1383.388, 8806.629
1385.316, 8823.747
1387.245, 8836.345
1389.173, 8837.880
1391.102, 8839.534
1393.030, 8852.223
1394.958, 8875.183
1396.887, 8890.054
1398.815, 8889.884
1400.744, 8894.010
1402.672, 8908.775
1404.601, 8926.105
1406.529, 8938.243
1408.458, 8945.288
1410.386, 8952.606
1412.315, 8958.718
1414.243, 8966.471
1416.172, 8981.235
1418.100, 8994.722
1420.029, 8998.783
1421.957, 8995.887
1423.885, 8997.587
1425.814, 9006.043
1427.742, 9019.604
1429.671, 9042.618
1431.599, 9067.144
1433.528, 9085.606
1435.456, 9097.536
1437.385, 9109.661
1439.313, 9119.249
1441.242, 9132.046
1443.170, 9150.494
1445.099, 9170.660
1447.027, 9189.124
1448.956, 9205.854
1450.884, 9222.658
1452.813, 9240.662
1454.741, 9257.498
1456.669, 9272.334
1458.598, 9286.296
1460.526, 9301.757
1462.455, 9318.138
1464.383, 9326.601
1466.312, 9320.856
1468.240, 9317.449
1470.169, 9322.580
1472.097, 9329.126
1474.026, 9333.167
1475.954, 9335.491
1477.883, 9334.469
1479.811, 9326.706
1481.740, 9330.487
1483.668, 9358.306
1485.596, 9391.834
1487.525, 9417.072
1489.453, 9435.767
1491.382, 9455.173
1493.310, 9474.229
1495.239, 9491.923
1497.167, 9509.871
1499.096, 9523.666
1501.024, 9531.881
1502.953, 9536.034
1504.881, 9538.580
1506.810, 9540.691
1508.738, 9543.198
1510.667, 9543.013
1512.595, 9548.156
1514.523, 9564.969
1516.452, 9586.777
1518.380, 9601.279
1520.309, 9605.321
1522.237, 9612.181
1524.166, 9628.114
1526.094, 9639.220
1528.023, 9637.428
1529.951, 9632.787
1531.880, 9638.124
1533.808, 9655.121
1535.737, 9670.557
1537.665, 9683.721
1539.594, 9696.857
1541.522, 9707.897
1543.450, 9720.303
1545.379, 9738.473
1547.307, 9760.585
1549.236, 9775.793
1551.164, 9779.871
1553.093, 9785.479
1555.021, 9798.840
1556.950, 9809.855
1558.878, 9809.229
1560.807, 9803.762
1562.735, 9810.661
1564.664, 9832.316
1566.592, 9850.846
1568.521, 9861.394
1570.449, 9870.601
1572.377, 9879.404
1574.306, 9887.434
1576.234, 9894.511
1578.163, 9900.603
1580.091, 9906.636
1582.020, 9914.842
1583.948, 9920.713
1585.877, 9924.080
1587.805, 9926.162
1589.734, 9924.504
1591.662, 9922.919
1593.591, 9932.713
1595.519, 9955.752
1597.448, 9975.793
1599.376, 9985.688
1601.304, 9995.366
1603.233, 10010.14
1605.161, 10026.91
1607.090, 10043.79
1609.018, 10060.93
1610.947, 10071.25
1612.875, 10071.54
1614.804, 10073.16
1616.732, 10077.90
1618.661, 10087.13
1620.589, 10104.21
1622.518, 10125.82
1624.446, 10140.55
1626.375, 10146.05
1628.303, 10153.76
1630.231, 10170.66
1632.160, 10183.79
1634.088, 10182.59
1636.017, 10178.93
1637.945, 10189.24
1639.874, 10212.94
1641.802, 10232.55
1643.731, 10244.09
1645.659, 10255.65
1647.588, 10269.83
1649.516, 10282.79
1651.445, 10295.19
1653.373, 10305.13
1655.302, 10304.85
1657.230, 10292.28
1659.158, 10288.59
1661.087, 10299.88
1663.015, 10314.20
1664.944, 10329.15
1666.872, 10343.45
1668.801, 10354.72
1670.729, 10363.58
1672.658, 10377.14
1674.586, 10399.62
1676.515, 10416.60
1678.443, 10421.31
1680.372, 10428.87
1682.300, 10445.64
1684.229, 10467.75
1686.157, 10490.37
1688.085, 10512.52
1690.014, 10533.65
1691.942, 10550.49
1693.871, 10568.48
1695.799, 10591.12
1697.728, 10610.16
1699.656, 10620.90
1701.585, 10626.42
1703.513, 10632.13
1705.442, 10639.24
1707.370, 10644.77
1709.299, 10650.65
1711.227, 10654.34
1713.156, 10650.96
1715.084, 10650.83
1717.012, 10660.78
1718.941, 10677.32
1720.869, 10694.79
1722.798, 10713.70
1724.726, 10724.40
1726.655, 10721.05
1728.583, 10718.75
1730.512, 10720.69
1732.440, 10725.52
1734.369, 10735.32
1736.297, 10746.91
1738.226, 10751.11
1740.154, 10746.20
1742.083, 10746.87
1744.011, 10755.43
1745.939, 10765.28
1747.868, 10778.74
1749.796, 10788.80
1751.725, 10789.68
1753.653, 10785.99
1755.582, 10787.99
1757.510, 10796.87
1759.439, 10802.46
1761.367, 10800.44
1763.296, 10802.02
1765.224, 10810.29
1767.153, 10820.01
1769.081, 10827.63
1771.010, 10833.64
1772.938, 10840.42
1774.866, 10848.36
1776.795, 10855.73
1778.723, 10864.88
1780.652, 10870.63
1782.580, 10869.08
1784.509, 10869.01
1786.437, 10876.73
1788.366, 10887.35
1790.294, 10892.24
1792.223, 10892.16
1794.151, 10897.78
1796.080, 10910.25
1798.008, 10924.21
1799.937, 10939.58
1801.865, 10954.05
1803.793, 10965.03
1805.722, 10975.46
1807.650, 10991.22
1809.579, 11009.13
1811.507, 11015.62
1813.436, 11008.59
1815.364, 11005.96
1817.293, 11013.24
1819.221, 11022.20
1821.150, 11028.96
1823.078, 11038.08
1825.007, 11053.84
1826.935, 11074.31
1828.864, 11094.35
1830.792, 11113.14
1832.720, 11133.71
1834.649, 11158.42
1836.577, 11176.32
1838.506, 11176.76
1840.434, 11177.64
1842.363, 11193.53
1844.291, 11212.98
1846.220, 11218.54
1848.148, 11211.73
1850.077, 11210.02
1852.005, 11218.50
1853.934, 11220.93
1855.862, 11212.37
1857.791, 11205.36
1859.719, 11201.87
1861.647, 11205.34
1863.576, 11222.36
1865.504, 11248.09
1867.433, 11268.12
1869.361, 11280.00
1871.290, 11294.31
1873.218, 11311.77
1875.147, 11325.12
1877.075, 11329.97
1879.004, 11332.60
1880.932, 11334.19
1882.861, 11337.62
1884.789, 11348.54
1886.718, 11366.07
1888.646, 11380.04
1890.574, 11390.73
1892.503, 11399.56
1894.431, 11404.43
1896.360, 11410.34
1898.288, 11417.58
1900.217, 11425.45
1902.145, 11434.25
1904.074, 11442.94
1906.002, 11452.59
1907.931, 11461.99
1909.859, 11461.56
1911.788, 11449.36
1913.716, 11447.13
1915.645, 11462.79
1917.573, 11478.66
1919.501, 11488.03
1921.430, 11494.91
1923.358, 11501.71
1925.287, 11507.08
1927.215, 11508.01
1929.144, 11505.26
1931.072, 11506.67
1933.001, 11514.78
1934.929, 11520.35
1936.858, 11519.46
1938.786, 11521.87
1940.715, 11531.22
1942.643, 11542.96
1944.572, 11553.52
1946.500, 11564.68
1948.428, 11581.38
1950.357, 11602.22
1952.285, 11612.38
1954.214, 11604.77
1956.142, 11607.50
1958.071, 11628.94
1959.999, 11646.15
1961.928, 11652.34
1963.856, 11654.42
1965.785, 11657.83
1967.713, 11658.90
1969.642, 11652.09
1971.570, 11640.80
1973.499, 11632.40
1975.427, 11627.68
1977.355, 11635.71
1979.284, 11661.29
1981.212, 11685.22
1983.141, 11699.65
1985.069, 11711.92
1986.998, 11724.01
1988.926, 11734.05
1990.855, 11739.23
1992.783, 11740.94
1994.712, 11745.13
1996.640, 11752.74
1998.569, 11751.51
2000.497, 11737.12
2002.426, 11728.89
2004.354, 11733.79
2006.282, 11738.63
2008.211, 11740.44
2010.139, 11740.71
2012.068, 11732.94
2013.996, 11728.21
2015.925, 11748.80
2017.853, 11787.50
2019.782, 11801.45
2021.710, 11788.48
2023.639, 11786.90
2025.567, 11803.54
2027.496, 11818.03
2029.424, 11821.33
2031.353, 11827.91
2033.281, 11846.92
2035.209, 11867.40
2037.138, 11883.62
2039.066, 11894.67
2040.995, 11896.74
2042.923, 11891.83
2044.852, 11892.64
2046.780, 11900.75
2048.709, 11907.76
2050.637, 11912.80
2052.566, 11917.05
2054.494, 11923.92
2056.423, 11925.55
2058.351, 11913.97
2060.280, 11902.74
2062.208, 11903.70
2064.136, 11912.69
2066.065, 11923.41
2067.993, 11935.22
2069.922, 11942.00
2071.850, 11942.22
2073.779, 11947.26
2075.707, 11959.73
2077.636, 11965.99
2079.564, 11958.76
2081.493, 11951.38
2083.421, 11954.06
2085.350, 11955.96
2087.278, 11948.50
2089.207, 11937.75
2091.135, 11929.66
2093.063, 11925.63
2094.992, 11932.34
2096.920, 11952.56
2098.849, 11960.07
2100.777, 11943.96
2102.706, 11935.19
2104.634, 11941.75
2106.563, 11946.16
2108.491, 11941.80
2110.420, 11939.06
2112.348, 11943.50
2114.277, 11952.44
2116.205, 11964.52
2118.134, 11978.11
2120.062, 11990.02
2121.990, 12000.00
2123.919, 12008.85
2125.847, 12016.11
2127.776, 12022.96
2129.704, 12028.65
2131.633, 12034.42
2133.561, 12041.20
2135.490, 12045.09
2137.418, 12043.98
2139.347, 12039.75
2141.275, 12034.98
2143.204, 12028.42
2145.132, 12017.48
2147.061, 12006.03
2148.989, 12003.08
2150.917, 12008.51
2152.846, 12011.78
2154.774, 12011.12
2156.703, 12014.61
2158.631, 12021.04
2160.560, 12029.95
2162.488, 12047.04
2164.417, 12053.70
2166.345, 12035.42
2168.274, 12016.02
2170.202, 12016.05
2172.131, 12021.18
2174.059, 12014.67
2175.988, 12003.50
2177.916, 12000.75
2179.844, 12005.73
2181.773, 12010.26
2183.701, 12012.75
2185.630, 12023.47
2187.558, 12044.32
2189.487, 12059.71
2191.415, 12066.02
2193.344, 12066.71
2195.272, 12057.82
2197.201, 12051.23
2199.129, 12058.08
2201.058, 12064.65
2202.986, 12057.67
2204.915, 12047.25
2206.843, 12046.98
2208.771, 12054.97
2210.700, 12065.10
2212.628, 12077.27
2214.557, 12085.46
2216.485, 12087.88
2218.414, 12099.58
2220.342, 12123.85
2222.271, 12140.98
2224.199, 12144.75
2226.128, 12143.85
2228.056, 12140.75
2229.985, 12136.23
2231.913, 12131.04
2233.842, 12127.36
2235.770, 12127.42
2237.698, 12130.64
2239.627, 12135.69
2241.555, 12142.15
2243.484, 12150.21
2245.412, 12158.34
2247.341, 12160.95
2249.269, 12157.76
2251.198, 12157.99
2253.126, 12163.84
2255.055, 12167.10
2256.983, 12165.66
2258.912, 12165.53
2260.840, 12168.71
2262.769, 12172.47
2264.697, 12173.92
2266.625, 12177.52
2268.554, 12189.04
2270.482, 12200.16
2272.411, 12201.18
2274.339, 12199.24
2276.268, 12205.61
2278.196, 12216.38
2280.125, 12222.62
2282.053, 12224.74
2283.982, 12224.34
2285.910, 12221.64
2287.839, 12222.30
2289.767, 12227.56
2291.696, 12234.20
2293.624, 12241.12
2295.552, 12249.58
2297.481, 12258.66
2299.409, 12269.17
2301.338, 12284.87
2303.266, 12295.75
2305.195, 12293.73
2307.123, 12290.04
2309.052, 12294.20
2310.980, 12299.51
2312.909, 12297.15
2314.837, 12291.71
2316.766, 12290.64
2318.694, 12293.78
2320.623, 12302.76
2322.551, 12317.60
2324.479, 12322.75
2326.408, 12318.01
2328.336, 12316.13
2330.265, 12318.50
2332.193, 12315.65
2334.122, 12301.81
2336.050, 12295.58
2337.979, 12305.61
2339.907, 12314.24
2341.836, 12316.54
2343.764, 12317.88
2345.693, 12320.50
2347.621, 12323.65
2349.550, 12322.91
2351.478, 12326.71
2353.406, 12347.14
2355.335, 12370.72
2357.263, 12380.95
2359.192, 12382.57
2361.120, 12383.01
2363.049, 12382.42
2364.977, 12382.70
2366.906, 12383.61
2368.834, 12380.91
2370.763, 12375.30
2372.691, 12363.86
2374.620, 12345.55
2376.548, 12334.42
2378.477, 12333.48
2380.405, 12335.19
2382.333, 12338.37
2384.262, 12344.79
2386.190, 12355.07
2388.119, 12367.23
2390.047, 12381.59
2391.976, 12394.33
2393.904, 12401.96
2395.833, 12408.87
2397.761, 12417.50
2399.690, 12426.50
2401.618, 12433.58
2403.547, 12440.89
2405.475, 12453.82
2407.404, 12465.88
2409.332, 12464.08
2411.260, 12454.70
2413.189, 12454.74
2415.117, 12463.33
2417.046, 12470.97
2418.974, 12478.90
2420.903, 12493.97
2422.831, 12516.33
2424.760, 12528.01
2426.688, 12524.82
2428.617, 12533.95
2430.545, 12562.71
2432.474, 12581.50
2434.402, 12581.50
2436.331, 12579.70
2438.259, 12579.34
2440.188, 12578.92
2442.116, 12581.74
2444.044, 12582.95
2445.973, 12578.29
2447.901, 12576.76
2449.830, 12580.36
2451.758, 12587.90
2453.687, 12601.35
2455.615, 12611.37
2457.544, 12610.73
2459.472, 12602.39
2461.401, 12587.77
2463.329, 12571.41
2465.258, 12560.47
2467.186, 12553.29
2469.115, 12544.91
2471.043, 12538.79
2472.971, 12542.69
2474.900, 12553.36
2476.828, 12557.88
2478.757, 12556.36
2480.685, 12563.81
2482.614, 12579.07
2484.542, 12581.60
2486.471, 12571.65
2488.399, 12566.62
2490.328, 12568.45
2492.256, 12575.60
2494.185, 12592.58
2496.113, 12600.14
2498.042, 12589.15
2499.970, 12583.54
2501.898, 12584.66
2503.827, 12587.44
2505.755, 12594.70
2507.684, 12592.26
2509.612, 12570.37
2511.541, 12555.02
2513.469, 12561.82
2515.398, 12569.38
2517.326, 12567.22
2519.255, 12569.15
2521.183, 12580.68
2523.112, 12594.70
2525.040, 12609.89
2526.969, 12620.56
2528.897, 12622.72
2530.825, 12620.05
2532.754, 12615.01
2534.682, 12610.06
2536.611, 12605.21
2538.539, 12604.65
2540.468, 12613.78
2542.396, 12627.25
2544.325, 12638.73
2546.253, 12648.20
2548.182, 12657.01
2550.110, 12663.70
2552.039, 12663.85
2553.967, 12662.08
2555.896, 12671.97
2557.824, 12688.80
2559.752, 12691.76
2561.681, 12685.62
2563.609, 12691.01
2565.538, 12705.02
2567.466, 12715.02
2569.395, 12720.54
2571.323, 12711.85
2573.252, 12688.85
2575.180, 12686.08
2577.109, 12704.14
2579.037, 12711.29
2580.966, 12706.30
2582.894, 12712.24
2584.823, 12732.10
2586.751, 12744.42
2588.679, 12746.54
2590.608, 12746.94
2592.536, 12746.73
2594.465, 12740.10
2596.393, 12724.21
2598.322, 12721.57
2600.250, 12737.75
2602.179, 12753.11
2604.107, 12765.12
2606.036, 12773.08
2607.964, 12775.14
2609.893, 12777.18
2611.821, 12781.25
2613.750, 12780.36
2615.678, 12769.56
2617.606, 12766.61
2619.535, 12779.41
2621.463, 12793.28
2623.392, 12810.68
2625.320, 12816.71
2627.249, 12800.13
2629.177, 12788.14
2631.106, 12787.59
2633.034, 12792.22
2634.963, 12807.24
2636.891, 12815.89
2638.820, 12808.46
2640.748, 12801.58
2642.677, 12799.04
2644.605, 12799.42
2646.533, 12802.51
2648.462, 12804.91
2650.390, 12808.07
2652.319, 12804.25
2654.247, 12782.43
2656.176, 12766.29
2658.104, 12776.31
2660.033, 12782.97
2661.961, 12771.47
2663.890, 12760.36
2665.818, 12755.92
2667.747, 12755.90
2669.675, 12757.88
2671.604, 12762.75
2673.532, 12773.59
2675.460, 12782.41
2677.389, 12784.08
2679.317, 12785.18
2681.246, 12792.51
2683.174, 12796.16
2685.103, 12786.38
2687.031, 12777.86
2688.960, 12781.89
2690.888, 12787.27
2692.817, 12784.81
2694.745, 12787.56
2696.674, 12805.27
2698.602, 12825.30
2700.531, 12838.97
2702.459, 12850.46
2704.387, 12861.74
2706.316, 12868.31
2708.244, 12865.14
2710.173, 12859.82
2712.101, 12858.57
2714.030, 12856.73
2715.958, 12852.70
2717.887, 12849.54
2719.815, 12846.99
2721.744, 12848.90
2723.672, 12861.92
2725.601, 12869.93
2727.529, 12856.69
2729.458, 12846.50
2731.386, 12857.77
2733.314, 12867.31
2735.243, 12859.69
2737.171, 12854.32
2739.100, 12861.82
2741.028, 12869.64
2742.957, 12874.12
2744.885, 12875.31
2746.814, 12871.17
2748.742, 12869.01
2750.671, 12870.43
2752.599, 12878.64
2754.528, 12897.13
2756.456, 12916.40
2758.385, 12930.55
2760.313, 12943.91
2762.241, 12956.06
2764.170, 12965.98
2766.098, 12974.52
2768.027, 12976.15
2769.955, 12967.75
2771.884, 12958.37
2773.812, 12954.95
2775.741, 12947.44
2777.669, 12931.87
2779.598, 12919.68
2781.526, 12914.83
2783.455, 12909.67
2785.383, 12900.94
2787.312, 12898.26
2789.240, 12904.85
2791.168, 12912.69
2793.097, 12921.34
2795.025, 12924.30
2796.954, 12919.33
2798.882, 12915.40
2800.811, 12915.11
2802.739, 12914.22
2804.668, 12916.56
2806.596, 12909.38
2808.525, 12890.83
2810.453, 12877.28
2812.382, 12869.13
2814.310, 12873.74
2816.239, 12894.58
2818.167, 12900.40
2820.095, 12889.14
2822.024, 12887.72
2823.952, 12895.08
2825.881, 12894.99
2827.809, 12887.24
2829.738, 12882.12
2831.666, 12878.70
2833.595, 12878.00
2835.523, 12877.95
2837.452, 12862.88
2839.380, 12841.51
2841.309, 12840.54
2843.237, 12852.02
2845.166, 12851.00
2847.094, 12845.43
2849.022, 12852.95
2850.951, 12865.31
2852.879, 12865.92
2854.808, 12863.60
2856.736, 12874.02
2858.665, 12885.08
2860.593, 12881.38
2862.522, 12873.29
2864.450, 12871.68
2866.379, 12870.30
2868.307, 12860.72
2870.236, 12854.30
2872.164, 12864.82
2874.093, 12873.48
2876.021, 12869.07
2877.949, 12863.65
2879.878, 12862.22
2881.806, 12863.28
2883.735, 12861.57
2885.663, 12869.75
2887.592, 12897.58
2889.520, 12913.03
2891.449, 12903.09
2893.377, 12896.21
2895.306, 12900.65
2897.234, 12908.69
2899.163, 12924.67
2901.091, 12928.53
2903.020, 12917.28
2904.948, 12913.17
2906.876, 12918.52
2908.805, 12925.00
2910.733, 12932.86
2912.662, 12923.99
2914.590, 12901.67
2916.519, 12894.14
2918.447, 12899.70
2920.376, 12898.70
2922.304, 12895.68
2924.233, 12907.91
2926.161, 12926.56
2928.090, 12927.72
2930.018, 12921.90
2931.947, 12924.35
2933.875, 12929.61
2935.803, 12933.40
2937.732, 12933.97
2939.660, 12928.52
2941.589, 12922.96
2943.517, 12925.45
2945.446, 12924.72
2947.374, 12908.01
2949.303, 12896.78
2951.231, 12902.21
2953.160, 12905.85
2955.088, 12900.68
2957.017, 12894.63
2958.945, 12888.33
2960.874, 12886.70
2962.802, 12890.71
2964.730, 12896.74
2966.659, 12903.71
2968.587, 12908.52
2970.516, 12909.57
2972.444, 12909.48
2974.373, 12907.91
2976.301, 12906.64
2978.230, 12904.40
2980.158, 12890.57
2982.087, 12870.21
2984.015, 12855.58
2985.944, 12846.86
2987.872, 12848.22
2989.801, 12851.71
2991.729, 12844.44
2993.657, 12838.43
2995.586, 12851.84
2997.514, 12863.61
2999.443, 12859.22
3001.371, 12850.35
3003.300, 12837.61
3005.228, 12828.88
3007.157, 12830.09
3009.085, 12825.47
3011.014, 12809.70
3012.942, 12798.15
3014.871, 12794.49
3016.799, 12800.53
3018.728, 12818.95
3020.656, 12825.77
3022.584, 12819.86
3024.513, 12803.37
3026.441, 12780.78
3028.370, 12791.24
3030.298, 12821.56
3032.227, 12829.83
3034.155, 12825.33
3036.084, 12824.14
3038.012, 12820.01
3039.941, 12799.92
3041.869, 12779.34
3043.798, 12768.79
3045.726, 12763.83
3047.655, 12765.26
3049.583, 12766.50
3051.511, 12765.36
3053.440, 12765.16
3055.368, 12768.50
3057.297, 12767.99
3059.225, 12761.40
3061.154, 12753.76
3063.082, 12744.83
3065.011, 12737.54
3066.939, 12732.64
3068.868, 12740.58
3070.796, 12756.36
3072.725, 12764.68
3074.653, 12764.06
3076.582, 12745.74
3078.510, 12724.01
3080.438, 12717.83
3082.367, 12715.50
3084.295, 12705.55
3086.224, 12699.23
3088.152, 12703.96
3090.081, 12708.87
3092.009, 12712.39
3093.938, 12706.44
3095.866, 12684.62
3097.795, 12678.58
3099.723, 12695.87
3101.652, 12695.40
3103.580, 12675.32
3105.509, 12661.94
3107.437, 12655.37
3109.365, 12655.93
3111.294, 12662.15
3113.222, 12677.28
3115.151, 12690.01
3117.079, 12678.53
3119.008, 12665.41
3120.936, 12668.47
3122.865, 12675.89
3124.793, 12681.24
3126.722, 12688.95
3128.650, 12701.76
3130.579, 12708.32
3132.507, 12704.01
3134.436, 12699.94
3136.364, 12697.24
3138.292, 12696.11
3140.221, 12697.70
3142.149, 12708.36
3144.078, 12722.36
3146.006, 12722.17
3147.935, 12713.16
3149.863, 12700.79
3151.792, 12688.92
3153.720, 12681.27
3155.649, 12677.06
3157.577, 12681.13
3159.506, 12680.07
3161.434, 12667.74
3163.363, 12655.92
3165.291, 12641.28
3167.219, 12646.68
3169.148, 12672.30
3171.076, 12684.35
3173.005, 12683.41
3174.933, 12678.66
3176.862, 12672.22
3178.790, 12665.87
3180.719, 12662.65
3182.647, 12667.52
3184.576, 12672.90
3186.504, 12672.24
3188.433, 12672.21
3190.361, 12678.92
3192.290, 12682.08
3194.218, 12678.89
3196.146, 12675.07
3198.075, 12670.69
3200.003, 12662.84
3201.932, 12652.16
3203.860, 12654.67
3205.789, 12663.93
3207.717, 12662.36
3209.646, 12656.21
3211.574, 12652.28
3213.503, 12648.79
3215.431, 12637.96
3217.360, 12635.69
3219.288, 12650.61
3221.217, 12661.01
3223.145, 12656.43
3225.073, 12660.00
3227.002, 12673.85
3228.930, 12646.29
3230.859, 12587.81
3232.787, 12567.28
3234.716, 12570.50
3236.644, 12568.65
3238.573, 12564.43
3240.501, 12559.13
3242.430, 12552.51
3244.358, 12539.95
3246.287, 12532.39
3248.215, 12535.02
3250.144, 12532.60
3252.072, 12519.43
3254.000, 12515.98
3255.929, 12520.59
3257.857, 12505.86
3259.786, 12481.89
3261.714, 12480.25
3263.643, 12483.87
3265.571, 12467.49
3267.500, 12448.62
3269.428, 12434.94
3271.357, 12429.27
3273.285, 12434.48
3275.214, 12437.76
3277.142, 12434.93
3279.071, 12441.32
3280.999, 12456.71
3282.927, 12450.86
3284.856, 12432.24
3286.784, 12425.95
3288.713, 12422.19
3290.641, 12407.69
3292.570, 12391.31
3294.498, 12376.80
3296.427, 12367.31
3298.355, 12363.76
3300.284, 12367.18
3302.212, 12377.77
3304.141, 12375.53
3306.069, 12359.96
3307.998, 12352.30
3309.926, 12349.89
3311.854, 12354.53
3313.783, 12354.18
3315.711, 12333.46
3317.640, 12310.83
3319.568, 12294.94
3321.497, 12284.23
3323.425, 12279.33
3325.354, 12275.03
3327.282, 12269.76
3329.211, 12281.95
3331.139, 12302.17
3333.068, 12293.17
3334.996, 12273.29
3336.925, 12271.15
3338.853, 12273.16
3340.781, 12268.23
3342.710, 12269.27
3344.638, 12284.17
3346.567, 12289.92
3348.495, 12282.62
3350.424, 12273.95
3352.352, 12264.22
3354.281, 12250.52
3356.209, 12237.36
3358.138, 12234.90
3360.066, 12233.11
3361.995, 12222.68
3363.923, 12212.77
3365.852, 12208.22
3367.780, 12201.82
3369.708, 12191.53
3371.637, 12190.63
3373.565, 12198.74
3375.494, 12210.24
3377.422, 12222.57
3379.351, 12229.60
3381.279, 12235.47
3383.208, 12241.90
3385.136, 12248.68
3387.065, 12258.66
3388.993, 12259.89
3390.922, 12251.33
3392.850, 12234.58
3394.779, 12212.47
3396.707, 12200.20
3398.635, 12189.69
3400.564, 12165.01
3402.492, 12142.01
3404.421, 12136.82
3406.349, 12132.83
3408.278, 12126.05
3410.206, 12120.79
3412.135, 12116.61
3414.063, 12119.40
3415.992, 12126.19
3417.920, 12127.27
3419.849, 12128.34
3421.777, 12142.95
3423.706, 12152.83
3425.634, 12145.73
3427.563, 12138.74
3429.491, 12134.91
3431.419, 12138.64
3433.348, 12148.34
3435.276, 12144.29
3437.205, 12133.89
3439.133, 12138.68
3441.062, 12142.55
3442.990, 12127.39
3444.919, 12117.12
3446.847, 12122.66
3448.776, 12123.85
3450.704, 12117.43
3452.633, 12117.76
3454.561, 12121.38
3456.490, 12114.86
3458.418, 12098.45
3460.346, 12062.31
3462.275, 12034.49
3464.203, 12031.52
3466.132, 12029.57
3468.060, 12022.38
3469.989, 12018.75
3471.917, 12017.92
3473.846, 12018.82
3475.774, 12019.16
3477.703, 12015.43
3479.631, 12010.22
3481.560, 12005.98
3483.488, 12001.87
3485.417, 11999.09
3487.345, 11996.31
3489.273, 11994.24
3491.202, 11998.44
3493.130, 12003.08
3495.059, 11994.24
3496.987, 11983.50
3498.916, 11979.64
3500.844, 11976.81
3502.773, 11974.72
3504.701, 11971.79
3506.630, 11969.35
3508.558, 11987.86
3510.487, 12012.61
3512.415, 12007.71
3514.344, 11999.55
3516.272, 12010.76
3518.200, 12019.94
3520.129, 12022.87
3522.057, 12024.42
3523.986, 12025.31
3525.914, 12031.20
3527.843, 12040.16
3529.771, 12054.00
3531.700, 12060.69
3533.628, 12047.52
3535.557, 12035.28
3537.485, 12032.06
3539.414, 12019.50
3541.342, 12000.21
3543.271, 12002.57
3545.199, 12014.79
3547.127, 12019.68
3549.056, 12021.26
3550.984, 12019.99
3552.913, 12015.92
3554.841, 12005.68
3556.770, 12002.96
3558.698, 12001.88
3560.627, 11977.97
3562.555, 11944.50
3564.484, 11915.70
3566.412, 11892.65
3568.341, 11883.05
3570.269, 11863.08
3572.198, 11830.80
3574.126, 11820.48
3576.054, 11823.38
3577.983, 11812.27
3579.911, 11799.71
3581.840, 11797.99
3583.768, 11791.72
3585.697, 11770.79
3587.625, 11763.15
3589.554, 11766.38
3591.482, 11748.22
3593.411, 11720.91
3595.339, 11704.52
3597.268, 11692.62
3599.196, 11681.71
3601.125, 11674.98
3603.053, 11672.30
3604.981, 11674.92
3606.910, 11676.63
3608.838, 11650.63
3610.767, 11622.27
3612.695, 11619.35
3614.624, 11615.75
3616.552, 11602.14
3618.481, 11597.85
3620.409, 11603.74
3622.338, 11615.71
3624.266, 11626.08
3626.195, 11621.03
3628.123, 11613.60
3630.052, 11608.25
3631.980, 11611.30
3633.908, 11623.11
3635.837, 11618.24
3637.765, 11600.95
3639.694, 11582.17
3641.622, 11563.84
3643.551, 11550.74
3645.479, 11534.99
3647.408, 11515.30
3649.336, 11521.01
3651.265, 11545.42
3653.193, 11551.71
3655.122, 11547.69
3657.050, 11527.78
3658.979, 11526.23
3660.907, 11556.74
3662.835, 11562.84
3664.764, 11542.82
3666.692, 11536.94
3668.621, 11534.25
3670.549, 11519.29
3672.478, 11504.42
3674.406, 11495.10
3676.335, 11488.54
3678.263, 11484.86
3680.192, 11482.59
3682.120, 11482.24
3684.049, 11485.69
3685.977, 11487.96
3687.906, 11484.75
3689.834, 11480.54
3691.762, 11475.13
3693.691, 11478.87
3695.619, 11486.90
3697.548, 11496.02
3699.476, 11493.52
3701.405, 11461.03
3703.333, 11441.02
3705.262, 11440.04
3707.190, 11428.75
3709.119, 11412.10
3711.047, 11401.29
3712.976, 11394.17
3714.904, 11386.33
3716.833, 11390.47
3718.761, 11407.92
3720.689, 11409.51
3722.618, 11401.58
3724.546, 11405.75
3726.475, 11407.20
3728.403, 11392.32
3730.332, 11382.31
3732.260, 11380.22
3734.189, 11383.62
3736.117, 11392.72
3738.046, 11419.71
3739.974, 11434.79
3741.903, 11405.30
3743.831, 11389.55
3745.760, 11393.89
3747.688, 11389.89
3749.616, 11380.63
3751.545, 11372.46
3753.473, 11364.86
3755.402, 11354.02
3757.330, 11355.60
3759.259, 11368.59
3761.187, 11355.50
3763.116, 11337.02
3765.044, 11358.76
3766.973, 11372.94
3768.901, 11346.62
3770.830, 11328.54
3772.758, 11321.58
3774.687, 11331.78
3776.615, 11341.67
3778.543, 11322.01
3780.472, 11307.95
3782.400, 11320.00
3784.329, 11311.10
3786.257, 11286.25
3788.186, 11275.96
3790.114, 11271.06
3792.043, 11264.58
3793.971, 11255.52
3795.900, 11240.69
3797.828, 11238.95
3799.757, 11244.53
3801.685, 11245.26
3803.614, 11239.22
3805.542, 11224.65
3807.470, 11208.20
3809.399, 11191.80
3811.327, 11175.32
3813.256, 11161.73
3815.184, 11160.31
3817.113, 11154.59
3819.041, 11135.83
3820.970, 11120.12
3822.898, 11108.85
3824.827, 11113.59
3826.755, 11117.80
3828.684, 11096.33
3830.612, 11085.05
3832.541, 11095.95
3834.469, 11092.08
3836.397, 11078.38
3838.326, 11067.92
3840.254, 11063.98
3842.183, 11073.71
3844.111, 11072.82
3846.040, 11057.86
3847.968, 11052.56
3849.897, 11051.08
3851.825, 11041.53
3853.754, 11042.23
3855.682, 11061.88
3857.611, 11058.73
3859.539, 11038.93
3861.468, 11039.10
3863.396, 11038.65
3865.324, 11015.24
3867.253, 11005.09
3869.181, 11011.00
3871.110, 11002.23
3873.038, 10988.11
3874.967, 10985.49
3876.895, 10982.47
3878.824, 10973.59
3880.752, 10967.30
3882.681, 10960.61
3884.609, 10936.26
3886.538, 10918.67
3888.466, 10928.12
3890.395, 10937.39
3892.323, 10941.98
3894.251, 10924.53
3896.180, 10906.29
3898.108, 10926.59
3900.037, 10936.83
3901.965, 10919.30
3903.894, 10911.33
3905.822, 10909.50
3907.751, 10897.49
3909.679, 10882.81
3911.608, 10865.46
3913.536, 10867.93
3915.465, 10888.67
3917.393, 10885.00
3919.322, 10871.96
3921.250, 10864.89
3923.178, 10855.97
3925.107, 10844.39
3927.035, 10841.99
3928.964, 10843.74
3930.892, 10836.97
3932.821, 10833.94
3934.749, 10842.07
3936.678, 10842.51
3938.606, 10835.73
3940.535, 10826.97
3942.463, 10817.04
3944.392, 10807.30
3946.320, 10795.59
3948.249, 10783.76
3950.177, 10788.84
3952.105, 10800.12
3954.034, 10809.87
3955.962, 10811.86
3957.891, 10803.11
3959.819, 10795.27
3961.748, 10785.83
3963.676, 10771.78
3965.605, 10756.15
3967.533, 10740.18
3969.462, 10736.12
3971.390, 10740.08
3973.319, 10742.47
3975.247, 10742.98
3977.176, 10738.20
3979.104, 10742.04
3981.032, 10748.91
3982.961, 10732.47
3984.889, 10713.18
3986.818, 10707.22
3988.746, 10697.63
3990.675, 10684.94
3992.603, 10679.48
3994.532, 10676.43
3996.460, 10670.54
3998.389, 10666.56
4000.317, 10664.59
4002.246, 10654.29
4004.174, 10638.99
4006.103, 10620.71
4008.031, 10608.61
4009.959, 10605.61
4011.888, 10590.65
4013.816, 10577.35
4015.745, 10592.36
4017.673, 10598.33
4019.602, 10583.50
4021.530, 10573.72
4023.459, 10567.28
4025.387, 10561.03
4027.316, 10554.44
4029.244, 10550.55
4031.173, 10539.28
4033.101, 10523.55
4035.030, 10504.05
4036.958, 10491.95
4038.886, 10492.07
4040.815, 10485.53
4042.743, 10472.48
4044.672, 10462.25
4046.600, 10442.87
4048.529, 10405.53
4050.457, 10403.85
4052.386, 10424.94
4054.314, 10406.12
4056.243, 10383.37
4058.171, 10376.42
4060.100, 10364.23
4062.028, 10349.08
4063.957, 10346.68
4065.885, 10345.49
4067.813, 10341.00
4069.742, 10328.51
4071.670, 10310.86
4073.599, 10295.13
4075.527, 10285.63
4077.456, 10285.63
4079.384, 10289.03
4081.313, 10291.30
4083.241, 10262.08
4085.170, 10247.41
4087.098, 10285.20
4089.027, 10293.73
4090.955, 10277.87
4092.884, 10278.15
4094.812, 10280.71
4096.740, 10277.79
4098.669, 10274.04
4100.598, 10266.71
4102.526, 10244.47
4104.454, 10225.28
4106.383, 10219.76
4108.312, 10213.62
4110.240, 10202.08
4112.168, 10162.07
4114.097, 10139.05
4116.025, 10154.43
4117.954, 10160.33
4119.882, 10159.25
4121.811, 10166.57
4123.739, 10169.46
4125.667, 10158.58
4127.596, 10166.70
4129.524, 10179.09
4131.453, 10160.02
4133.381, 10146.77
4135.310, 10155.24
4137.238, 10144.08
4139.167, 10126.50
4141.095, 10121.93
4143.023, 10124.26
4144.952, 10131.63
4146.881, 10112.62
4148.809, 10094.27
4150.737, 10115.03
4152.666, 10128.04
4154.595, 10125.87
4156.523, 10114.12
4158.451, 10108.82
4160.380, 10130.62
4162.309, 10130.58
4164.237, 10108.27
4166.165, 10110.07
4168.094, 10112.83
4170.022, 10100.08
4171.951, 10091.67
4173.879, 10087.79
4175.808, 10085.35
4177.736, 10077.21
4179.665, 10054.41
4181.593, 10048.87
4183.521, 10054.59
4185.450, 10061.90
4187.378, 10056.97
4189.307, 10029.82
4191.235, 10022.07
4193.164, 10020.76
4195.092, 10010.99
4197.021, 9995.122
4198.949, 9975.548
4200.878, 9959.353
4202.806, 9949.558
4204.734, 9954.134
4206.663, 9939.104
4208.592, 9910.716
4210.520, 9918.256
4212.448, 9928.304
4214.377, 9923.063
4216.306, 9913.521
4218.234, 9902.520
4220.162, 9894.131
4222.091, 9884.483
4224.020, 9872.202
4225.948, 9857.593
4227.876, 9841.077
4229.805, 9820.088
4231.733, 9809.412
4233.662, 9810.381
4235.590, 9803.970
4237.519, 9791.187
##END=



