##NAMES=Dolomite
##RRUFFID=R050272
##IDEAL CHEMISTRY=CaMg(CO_3_)_2_
##LOCALITY=Eagle mine, Gillman, Colorado, USA
##OWNER=RRUFF
##SOURCE=University of Arizona Mineral Museum
##DESCRIPTION=Gray-white rhombohedral crystals
##STATUS=The identification of this mineral has been confirmed by X-ray diffraction and chemical analysis
##URL=https://www.rruff.net/odr/rruff_sample/R050272
##MEASURED CHEMISTRY=(Ca_0.96_Fe^2+^_0.04_)(Mg_0.63_Mn^2+^_0.21_Fe^2+^_0.16_)(CO_3_)_2_ ; CO_3_ estimated by difference and stoichiometry
##DIFFRACTION SAMPLE DESCRIPTION=Powder
##CELL PARAMETERS=a: 4.8212 b: 4.8212 c: 16.091 alpha: 90 beta: 90 gamma: 120 volume: 323.91 crystal system: hexagonal
##FILETYPE=Raman RAW
##RAMAN WAVELENGTH=532

80.63403, 0.0000000E+00
82.56250, 0.0000000E+00
84.49097, 0.0000000E+00
86.41943, 83.52274
88.34790, 71.65009
90.27637, 69.15117
92.20483, 83.50693
94.13330, 99.98666
96.06177, 111.7897
97.99023, 116.7146
99.91870, 126.0443
101.8472, 141.9017
103.7756, 164.1577
105.7041, 188.2794
107.6326, 214.7971
109.5610, 242.8902
111.4895, 271.6543
113.4180, 283.5541
115.3464, 315.3512
117.2749, 382.0858
119.2034, 480.3487
121.1318, 577.0883
123.0603, 669.6714
124.9888, 757.8551
126.9172, 839.0998
128.8457, 874.4910
130.7742, 894.4617
132.7026, 917.8138
134.6311, 946.3522
136.5596, 969.5514
138.4880, 984.6755
140.4165, 995.4754
142.3450, 1008.934
144.2734, 1017.477
146.2019, 1036.676
148.1304, 1071.204
150.0588, 1121.317
151.9873, 1186.748
153.9158, 1271.476
155.8442, 1371.943
157.7727, 1477.753
159.7012, 1569.656
161.6296, 1678.691
163.5581, 1827.579
165.4866, 2013.063
167.4150, 2236.363
169.3435, 2529.308
171.2720, 2887.271
173.2004, 3188.088
175.1289, 3511.372
177.0574, 3743.229
178.9858, 3753.826
180.9143, 3496.118
182.8428, 3146.172
184.7712, 2741.244
186.6997, 2249.986
188.6282, 1842.788
190.5566, 1534.744
192.4851, 1307.076
194.4136, 1123.107
196.3420, 1002.052
198.2705, 908.2596
200.1990, 833.6275
202.1274, 781.0839
204.0559, 739.3362
205.9844, 714.1364
207.9129, 698.7343
209.8413, 683.7513
211.7698, 664.8382
213.6983, 650.0953
215.6267, 642.8521
217.5552, 642.6104
219.4837, 647.6733
221.4121, 659.4357
223.3406, 676.0103
225.2691, 694.8531
227.1975, 713.1248
229.1260, 735.7413
231.0545, 762.9518
232.9829, 792.8299
234.9114, 835.4554
236.8399, 892.0652
238.7683, 961.6315
240.6968, 1041.488
242.6253, 1132.151
244.5537, 1232.202
246.4822, 1341.036
248.4107, 1462.086
250.3391, 1584.235
252.2676, 1712.774
254.1961, 1840.597
256.1245, 1954.933
258.0530, 2043.467
259.9814, 2132.379
261.9099, 2229.324
263.8384, 2327.895
265.7668, 2452.623
267.6953, 2602.782
269.6238, 2781.980
271.5522, 2989.697
273.4807, 3234.579
275.4092, 3505.485
277.3376, 3796.498
279.2661, 4107.528
281.1946, 4453.700
283.1230, 4848.871
285.0515, 5280.482
286.9800, 5730.811
288.9084, 6245.333
290.8369, 6736.229
292.7654, 7223.745
294.6938, 7709.552
296.6223, 8015.498
298.5508, 8108.311
300.4792, 7998.464
302.4077, 7644.656
304.3362, 6866.626
306.2646, 6044.929
308.1931, 5214.458
310.1216, 4380.904
312.0500, 3649.881
313.9785, 3040.562
315.9070, 2530.523
317.8354, 2122.327
319.7639, 1830.509
321.6924, 1591.695
323.6208, 1400.941
325.5493, 1251.799
327.4778, 1133.445
329.4063, 1056.291
331.3347, 999.6163
333.2632, 953.5817
335.1917, 918.8588
337.1201, 887.9015
339.0486, 860.8565
340.9771, 836.7307
342.9055, 810.1387
344.8340, 779.6503
346.7625, 748.2365
348.6909, 716.8573
350.6194, 685.3399
352.5479, 654.8090
354.4763, 623.2065
356.4048, 592.5952
358.3333, 568.3203
360.2617, 553.1038
362.1902, 540.2327
364.1187, 528.2861
366.0471, 517.3213
367.9756, 505.6478
369.9041, 490.1008
371.8326, 474.9926
373.7610, 466.3504
375.6895, 466.8873
377.6180, 466.7762
379.5464, 462.0763
381.4749, 453.2449
383.4034, 446.5328
385.3318, 446.0842
387.2603, 444.8204
389.1888, 435.7357
391.1172, 416.8273
393.0457, 403.0395
394.9742, 401.7727
396.9026, 408.2700
398.8311, 411.0008
400.7596, 406.2558
402.6880, 401.6369
404.6165, 401.2764
406.5450, 404.8365
408.4734, 405.1085
410.4019, 396.4752
412.3304, 385.9528
414.2588, 380.9501
416.1873, 384.9001
418.1158, 388.7578
420.0442, 392.2487
421.9727, 394.6748
423.9012, 392.5318
425.8296, 378.2419
427.7581, 364.6742
429.6866, 358.2709
431.6150, 359.9378
433.5435, 364.3038
435.4720, 374.1845
437.4004, 385.5492
439.3289, 392.6422
441.2574, 392.8669
443.1858, 391.0523
445.1143, 386.3075
447.0428, 379.2710
448.9712, 375.1984
450.8997, 377.3763
452.8282, 380.4663
454.7566, 380.9812
456.6851, 374.2477
458.6136, 371.7815
460.5420, 377.9200
462.4705, 387.7128
464.3990, 392.4390
466.3274, 389.2504
468.2559, 384.8510
470.1844, 380.5490
472.1128, 376.0168
474.0413, 375.6115
475.9698, 383.5291
477.8982, 392.4290
479.8267, 397.2404
481.7552, 397.0429
483.6836, 396.1685
485.6121, 394.5082
487.5406, 392.8535
489.4690, 393.3710
491.3975, 398.3136
493.3260, 402.1193
495.2544, 402.1752
497.1829, 398.8596
499.1114, 396.1356
501.0398, 393.6331
502.9683, 392.2453
504.8968, 393.0946
506.8252, 396.6850
508.7537, 399.9352
510.6822, 400.9666
512.6106, 401.5911
514.5391, 404.5411
516.4675, 414.9728
518.3960, 422.4092
520.3245, 422.9998
522.2529, 417.9317
524.1814, 415.2622
526.1099, 414.5014
528.0383, 417.4797
529.9668, 426.6873
531.8953, 450.6248
533.8237, 460.7262
535.7522, 446.1678
537.6807, 423.3656
539.6091, 410.8466
541.5376, 410.7829
543.4661, 413.9616
545.3945, 419.7499
547.3230, 427.0613
549.2515, 430.9488
551.1799, 426.8634
553.1084, 424.1259
555.0369, 427.2669
556.9653, 435.3021
558.8938, 442.5085
560.8223, 448.2332
562.7507, 452.5046
564.6792, 455.2418
566.6077, 456.4200
568.5361, 455.8656
570.4646, 451.4499
572.3931, 446.1506
574.3215, 443.8300
576.2501, 447.2985
578.1785, 448.7200
580.1070, 445.1508
582.0355, 437.5632
583.9639, 431.4957
585.8924, 425.4475
587.8209, 422.3366
589.7493, 425.0681
591.6778, 433.3376
593.6063, 438.9120
595.5347, 439.0133
597.4632, 437.6103
599.3917, 437.3088
601.3201, 438.6727
603.2486, 438.9399
605.1771, 437.4357
607.1055, 434.7107
609.0340, 431.2872
610.9625, 426.4026
612.8909, 422.0443
614.8194, 417.6749
616.7479, 414.0694
618.6763, 413.5357
620.6048, 418.1418
622.5333, 422.3279
624.4617, 423.3780
626.3902, 421.5432
628.3187, 421.1019
630.2471, 421.8832
632.1756, 424.2248
634.1041, 429.6945
636.0325, 438.4624
637.9610, 444.2325
639.8895, 445.8002
641.8179, 444.0584
643.7464, 438.6691
645.6749, 424.1053
647.6033, 417.8971
649.5318, 426.9369
651.4603, 442.2943
653.3887, 452.0319
655.3172, 455.5791
657.2457, 456.4203
659.1741, 450.3762
661.1026, 442.4483
663.0311, 445.3578
664.9595, 469.3641
666.8880, 493.3293
668.8165, 510.7409
670.7449, 524.1095
672.6734, 543.3598
674.6019, 568.9404
676.5303, 600.8450
678.4588, 641.0775
680.3873, 691.7711
682.3157, 734.2842
684.2442, 767.4501
686.1727, 794.9399
688.1011, 816.3552
690.0296, 831.9390
691.9581, 849.7354
693.8865, 867.1270
695.8150, 890.5984
697.7435, 924.4257
699.6719, 969.5624
701.6004, 1025.102
703.5289, 1088.020
705.4573, 1162.457
707.3858, 1253.242
709.3143, 1360.784
711.2427, 1478.855
713.1712, 1607.236
715.0997, 1745.026
717.0281, 1892.496
718.9566, 2066.784
720.8851, 2231.415
722.8135, 2426.794
724.7420, 2600.170
726.6705, 2657.389
728.5989, 2576.739
730.5274, 2414.932
732.4559, 2158.958
734.3843, 1831.977
736.3128, 1544.992
738.2413, 1297.496
740.1697, 1088.441
742.0982, 926.5568
744.0267, 808.1533
745.9551, 711.9324
747.8836, 642.6006
749.8121, 590.3890
751.7405, 551.1111
753.6690, 525.1218
755.5975, 507.9124
757.5259, 505.6666
759.4544, 505.1133
761.3829, 500.2747
763.3113, 491.5623
765.2398, 482.4832
767.1683, 469.5132
769.0967, 460.6013
771.0252, 461.0840
772.9537, 474.4886
774.8821, 482.9429
776.8106, 484.7337
778.7391, 483.7368
780.6675, 482.6656
782.5960, 481.6367
784.5245, 476.9788
786.4529, 461.8199
788.3814, 448.4208
790.3099, 445.2430
792.2383, 456.9164
794.1668, 465.3550
796.0953, 469.3777
798.0237, 470.9025
799.9522, 470.1959
801.8807, 466.9766
803.8091, 466.2984
805.7376, 472.2236
807.6661, 478.6734
809.5945, 480.4140
811.5230, 474.0550
813.4515, 472.8988
815.3799, 483.7167
817.3084, 495.4958
819.2369, 496.0861
821.1653, 483.3972
823.0938, 477.6493
825.0223, 490.3587
826.9507, 505.3156
828.8792, 509.0768
830.8077, 496.7924
832.7361, 489.1536
834.6646, 490.1636
836.5931, 494.4240
838.5215, 497.4455
840.4500, 498.9180
842.3785, 501.1886
844.3069, 503.4697
846.2354, 507.6118
848.1639, 516.0268
850.0923, 530.6694
852.0208, 540.3264
853.9493, 538.1473
855.8777, 534.8528
857.8062, 540.0286
859.7347, 557.0408
861.6631, 567.3015
863.5916, 563.3497
865.5201, 556.8472
867.4485, 554.9888
869.3770, 557.8997
871.3055, 562.9374
873.2339, 569.2910
875.1624, 578.0948
877.0909, 592.6119
879.0193, 616.3604
880.9478, 628.5359
882.8763, 621.6255
884.8047, 609.6918
886.7332, 600.5714
888.6617, 593.8746
890.5901, 585.0688
892.5186, 569.2322
894.4471, 555.5354
896.3755, 549.5475
898.3040, 552.3040
900.2325, 550.9462
902.1609, 539.9239
904.0894, 530.8059
906.0179, 528.8283
907.9464, 533.0216
909.8748, 540.0804
911.8033, 553.2103
913.7318, 563.6356
915.6602, 567.0000
917.5887, 564.1954
919.5172, 562.4069
921.4456, 563.0545
923.3741, 563.0627
925.3026, 559.5424
927.2310, 555.0694
929.1595, 556.8015
931.0880, 567.6150
933.0164, 578.1515
934.9449, 585.6944
936.8734, 590.8603
938.8018, 594.4868
940.7303, 597.3372
942.6588, 597.0125
944.5872, 589.1055
946.5157, 579.5714
948.4442, 577.7250
950.3726, 585.4327
952.3011, 592.8317
954.2296, 598.2342
956.1580, 602.5394
958.0865, 606.5494
960.0150, 610.2823
961.9434, 613.5419
963.8719, 615.6991
965.8004, 617.8137
967.7288, 620.8447
969.6573, 625.2227
971.5858, 627.8559
973.5142, 625.4540
975.4427, 624.3170
977.3712, 629.3862
979.2996, 638.9727
981.2281, 645.9165
983.1566, 648.9100
985.0850, 650.0013
987.0135, 647.6025
988.9420, 643.4106
990.8704, 645.6227
992.7989, 660.2588
994.7274, 673.8705
996.6558, 683.4936
998.5843, 690.9912
1000.513, 699.8702
1002.441, 710.6249
1004.370, 721.1284
1006.298, 728.8053
1008.227, 737.2596
1010.155, 750.6740
1012.084, 771.2339
1014.012, 789.1096
1015.940, 798.1489
1017.869, 808.4391
1019.797, 827.5533
1021.726, 856.9352
1023.654, 884.8341
1025.583, 910.0934
1027.511, 935.1010
1029.440, 957.5016
1031.368, 980.1701
1033.297, 1012.599
1035.225, 1049.296
1037.154, 1108.011
1039.082, 1184.071
1041.010, 1285.228
1042.939, 1428.641
1044.867, 1598.296
1046.796, 1834.190
1048.724, 2153.433
1050.653, 2531.651
1052.581, 2972.427
1054.510, 3485.337
1056.438, 3920.550
1058.367, 4247.605
1060.295, 4490.458
1062.224, 4634.225
1064.152, 4671.501
1066.081, 4788.982
1068.009, 4922.636
1069.938, 5216.765
1071.866, 5689.941
1073.795, 6359.670
1075.723, 7274.528
1077.651, 8403.401
1079.580, 9797.673
1081.508, 11462.93
1083.437, 13426.44
1085.365, 15660.45
1087.294, 18152.91
1089.222, 20978.42
1091.151, 24596.74
1093.079, 28176.00
1095.008, 31750.47
1096.936, 35545.99
1098.865, 36734.01
1100.793, 34643.76
1102.722, 31055.38
1104.650, 25541.79
1106.578, 18978.66
1108.507, 13692.41
1110.435, 9790.942
1112.364, 6772.249
1114.292, 4779.706
1116.221, 3456.002
1118.149, 2525.949
1120.078, 2041.647
1122.006, 1676.585
1123.935, 1438.368
1125.863, 1266.703
1127.792, 1147.358
1129.720, 1078.699
1131.649, 1020.234
1133.577, 970.4565
1135.505, 931.0307
1137.434, 906.9656
1139.362, 892.1021
1141.291, 876.4913
1143.219, 859.5531
1145.148, 844.8156
1147.076, 832.8866
1149.005, 823.8551
1150.933, 818.8251
1152.862, 818.3550
1154.790, 815.6567
1156.719, 807.9902
1158.647, 801.1891
1160.576, 796.5295
1162.504, 793.9150
1164.432, 793.4177
1166.361, 795.8713
1168.289, 797.8220
1170.218, 798.4833
1172.146, 798.4160
1174.075, 798.0720
1176.003, 797.4332
1177.932, 796.1364
1179.860, 792.0600
1181.789, 790.6227
1183.717, 796.1840
1185.646, 805.9694
1187.574, 811.4684
1189.503, 808.4367
1191.431, 808.0189
1193.359, 811.9639
1195.288, 818.0807
1197.216, 827.0475
1199.145, 839.5072
1201.073, 840.2927
1203.002, 816.4263
1204.930, 796.7845
1206.859, 796.7220
1208.787, 808.6731
1210.716, 819.9498
1212.644, 831.2755
1214.573, 838.1591
1216.501, 835.2288
1218.430, 830.9289
1220.358, 830.9952
1222.286, 835.9536
1224.215, 840.7299
1226.143, 846.2319
1228.072, 850.5439
1230.000, 852.5781
1231.929, 853.2562
1233.857, 854.3497
1235.786, 856.0006
1237.714, 857.2186
1239.643, 854.5162
1241.571, 854.1797
1243.500, 863.0210
1245.428, 878.0013
1247.357, 886.5996
1249.285, 884.6244
1251.214, 883.7386
1253.142, 890.9570
1255.070, 899.3404
1256.999, 900.8142
1258.927, 893.3104
1260.856, 886.4937
1262.784, 874.6333
1264.713, 869.8699
1266.641, 881.9871
1268.570, 904.9323
1270.498, 919.7991
1272.427, 925.2011
1274.355, 927.1113
1276.284, 922.6068
1278.212, 918.1235
1280.141, 919.3610
1282.069, 925.2274
1283.997, 930.3009
1285.926, 933.8074
1287.854, 937.5078
1289.783, 941.8266
1291.711, 946.8412
1293.640, 953.5981
1295.568, 963.2340
1297.497, 968.1980
1299.425, 960.8798
1301.354, 956.4934
1303.282, 963.2708
1305.211, 976.6680
1307.139, 984.3439
1309.068, 981.2419
1310.996, 981.7916
1312.924, 990.2421
1314.853, 999.1599
1316.781, 1002.961
1318.710, 1002.912
1320.638, 1004.993
1322.567, 1009.491
1324.495, 1015.721
1326.424, 1027.813
1328.352, 1038.083
1330.281, 1037.702
1332.209, 1027.643
1334.138, 1025.024
1336.066, 1036.584
1337.995, 1047.017
1339.923, 1051.650
1341.851, 1052.799
1343.780, 1052.836
1345.708, 1050.457
1347.637, 1051.166
1349.565, 1055.758
1351.494, 1062.078
1353.422, 1069.849
1355.351, 1078.628
1357.279, 1087.971
1359.208, 1098.854
1361.136, 1107.053
1363.065, 1106.929
1364.993, 1109.626
1366.922, 1126.051
1368.850, 1148.778
1370.778, 1158.648
1372.707, 1152.383
1374.635, 1147.419
1376.564, 1146.364
1378.492, 1149.351
1380.421, 1156.926
1382.349, 1168.410
1384.278, 1181.182
1386.206, 1194.736
1388.135, 1210.903
1390.063, 1234.551
1391.992, 1256.941
1393.920, 1268.351
1395.849, 1270.587
1397.777, 1286.886
1399.705, 1330.145
1401.634, 1369.330
1403.562, 1400.697
1405.491, 1427.648
1407.419, 1451.478
1409.348, 1472.446
1411.276, 1495.458
1413.205, 1520.270
1415.133, 1547.369
1417.062, 1578.922
1418.990, 1611.272
1420.919, 1638.265
1422.847, 1662.177
1424.776, 1698.059
1426.704, 1750.743
1428.632, 1805.062
1430.561, 1861.499
1432.489, 1913.185
1434.418, 1953.196
1436.346, 1983.160
1438.275, 2018.087
1440.203, 2071.119
1442.132, 2099.051
1444.060, 2078.445
1445.989, 2035.622
1447.917, 1985.394
1449.846, 1928.118
1451.774, 1873.637
1453.703, 1823.451
1455.631, 1774.602
1457.559, 1722.548
1459.488, 1675.884
1461.416, 1642.016
1463.345, 1620.480
1465.273, 1603.125
1467.202, 1594.670
1469.130, 1583.133
1471.059, 1559.200
1472.987, 1538.933
1474.916, 1538.217
1476.844, 1552.454
1478.773, 1555.095
1480.701, 1538.788
1482.630, 1530.885
1484.558, 1541.214
1486.486, 1556.279
1488.415, 1572.296
1490.343, 1586.317
1492.272, 1588.817
1494.200, 1576.414
1496.129, 1569.525
1498.057, 1574.610
1499.986, 1582.577
1501.914, 1587.659
1503.843, 1592.343
1505.771, 1601.989
1507.700, 1617.461
1509.628, 1631.152
1511.557, 1643.311
1513.485, 1651.663
1515.413, 1650.476
1517.342, 1647.807
1519.270, 1656.590
1521.199, 1677.971
1523.127, 1693.813
1525.056, 1697.713
1526.984, 1703.679
1528.913, 1717.176
1530.841, 1733.027
1532.770, 1747.631
1534.698, 1761.083
1536.627, 1768.013
1538.555, 1765.674
1540.484, 1761.161
1542.412, 1748.990
1544.340, 1741.129
1546.269, 1747.092
1548.197, 1764.662
1550.126, 1783.709
1552.054, 1806.666
1553.983, 1826.517
1555.911, 1847.781
1557.840, 1860.557
1559.768, 1851.819
1561.697, 1834.364
1563.625, 1835.552
1565.554, 1862.914
1567.482, 1875.187
1569.411, 1850.853
1571.339, 1839.670
1573.267, 1868.410
1575.196, 1907.581
1577.124, 1924.405
1579.053, 1920.764
1580.981, 1922.600
1582.910, 1930.604
1584.838, 1942.434
1586.767, 1961.930
1588.695, 1980.370
1590.624, 1990.199
1592.552, 1995.069
1594.481, 2003.303
1596.409, 2014.864
1598.338, 2031.607
1600.266, 2062.829
1602.194, 2085.239
1604.123, 2081.053
1606.051, 2067.995
1607.980, 2063.369
1609.908, 2067.147
1611.837, 2081.088
1613.765, 2110.038
1615.694, 2134.169
1617.622, 2143.779
1619.551, 2150.705
1621.479, 2163.635
1623.408, 2179.215
1625.336, 2189.656
1627.265, 2194.094
1629.193, 2200.648
1631.121, 2212.256
1633.050, 2223.163
1634.978, 2224.213
1636.907, 2228.752
1638.835, 2258.542
1640.764, 2307.040
1642.692, 2325.938
1644.621, 2301.689
1646.549, 2287.916
1648.478, 2303.607
1650.406, 2324.541
1652.335, 2341.666
1654.263, 2354.193
1656.192, 2356.516
1658.120, 2347.503
1660.048, 2356.520
1661.977, 2400.669
1663.905, 2432.185
1665.834, 2422.226
1667.762, 2408.700
1669.691, 2417.966
1671.619, 2444.410
1673.548, 2469.546
1675.476, 2495.079
1677.405, 2509.837
1679.333, 2501.183
1681.262, 2499.046
1683.190, 2517.431
1685.119, 2543.011
1687.047, 2564.368
1688.975, 2581.698
1690.904, 2596.953
1692.832, 2609.241
1694.761, 2622.913
1696.689, 2640.215
1698.618, 2657.560
1700.546, 2667.464
1702.475, 2680.702
1704.403, 2717.619
1706.332, 2776.583
1708.260, 2806.667
1710.189, 2791.090
1712.117, 2789.381
1714.046, 2822.102
1715.974, 2860.083
1717.902, 2888.534
1719.831, 2916.058
1721.759, 2957.863
1723.688, 3013.927
1725.616, 3063.373
1727.545, 3101.750
1729.473, 3142.711
1731.402, 3181.787
1733.330, 3232.728
1735.259, 3302.635
1737.187, 3387.911
1739.116, 3487.567
1741.044, 3601.528
1742.973, 3704.052
1744.901, 3790.531
1746.829, 3875.051
1748.758, 3976.726
1750.686, 4057.501
1752.615, 4098.222
1754.543, 4107.396
1756.472, 4097.720
1758.400, 4068.884
1760.329, 4014.371
1762.257, 3927.315
1764.186, 3835.393
1766.114, 3735.408
1768.043, 3645.410
1769.971, 3574.432
1771.900, 3518.240
1773.828, 3472.704
1775.756, 3437.557
1777.685, 3409.734
1779.613, 3388.736
1781.542, 3377.936
1783.470, 3380.473
1785.399, 3390.164
1787.327, 3409.412
1789.256, 3430.401
1791.184, 3445.667
1793.113, 3455.636
1795.041, 3460.537
1796.970, 3458.537
1798.898, 3462.904
1800.827, 3477.331
1802.755, 3495.171
1804.683, 3518.624
1806.612, 3540.364
1808.540, 3551.179
1810.469, 3556.759
1812.397, 3570.278
1814.326, 3592.318
1816.254, 3617.228
1818.183, 3646.444
1820.111, 3673.017
1822.040, 3693.278
1823.968, 3710.907
1825.897, 3728.122
1827.825, 3744.123
1829.754, 3756.279
1831.682, 3765.204
1833.610, 3779.671
1835.539, 3802.654
1837.467, 3824.560
1839.396, 3844.971
1841.324, 3862.610
1843.253, 3870.685
1845.181, 3880.497
1847.110, 3910.762
1849.038, 3954.484
1850.967, 3976.094
1852.895, 3962.099
1854.824, 3967.488
1856.752, 4013.050
1858.681, 4047.393
1860.609, 4051.715
1862.537, 4050.521
1864.466, 4059.781
1866.394, 4073.695
1868.323, 4078.130
1870.251, 4072.491
1872.180, 4090.899
1874.108, 4149.128
1876.037, 4198.000
1877.965, 4238.732
1879.894, 4263.846
1881.822, 4253.911
1883.751, 4243.083
1885.679, 4265.266
1887.608, 4307.976
1889.536, 4334.465
1891.464, 4343.336
1893.393, 4358.599
1895.321, 4383.903
1897.250, 4408.748
1899.178, 4430.123
1901.107, 4451.799
1903.035, 4478.438
1904.964, 4504.426
1906.892, 4521.475
1908.821, 4534.148
1910.749, 4554.797
1912.678, 4583.876
1914.606, 4620.710
1916.535, 4671.983
1918.463, 4711.199
1920.391, 4730.644
1922.320, 4736.099
1924.248, 4712.933
1926.177, 4690.605
1928.105, 4707.743
1930.034, 4755.395
1931.962, 4797.733
1933.891, 4834.779
1935.819, 4867.135
1937.748, 4885.767
1939.676, 4913.201
1941.605, 4968.894
1943.533, 5013.279
1945.462, 5011.639
1947.390, 5001.195
1949.318, 5031.347
1951.247, 5089.380
1953.175, 5121.218
1955.104, 5120.041
1957.032, 5125.533
1958.961, 5132.737
1960.889, 5158.381
1962.818, 5228.099
1964.746, 5285.214
1966.675, 5297.273
1968.603, 5296.899
1970.532, 5308.281
1972.460, 5330.737
1974.389, 5366.628
1976.317, 5414.750
1978.245, 5453.598
1980.174, 5479.962
1982.102, 5505.365
1984.031, 5535.904
1985.959, 5558.223
1987.888, 5552.617
1989.816, 5551.951
1991.745, 5596.298
1993.673, 5652.207
1995.602, 5655.312
1997.530, 5614.615
1999.459, 5612.570
2001.387, 5662.569
2003.316, 5711.865
2005.244, 5764.291
2007.172, 5808.955
2009.101, 5838.367
2011.029, 5865.432
2012.958, 5894.646
2014.886, 5924.491
2016.815, 5954.058
2018.743, 5982.918
2020.672, 6009.494
2022.600, 6034.050
2024.529, 6063.026
2026.457, 6100.084
2028.386, 6126.323
2030.314, 6128.740
2032.243, 6143.251
2034.171, 6192.260
2036.099, 6245.172
2038.028, 6289.529
2039.956, 6321.498
2041.885, 6323.000
2043.813, 6308.708
2045.742, 6337.033
2047.670, 6414.417
2049.599, 6460.587
2051.527, 6455.646
2053.456, 6459.354
2055.384, 6469.723
2057.313, 6499.107
2059.241, 6567.150
2061.170, 6636.091
2063.098, 6679.249
2065.027, 6710.192
2066.955, 6749.229
2068.884, 6790.708
2070.812, 6807.381
2072.740, 6799.233
2074.669, 6816.725
2076.597, 6870.652
2078.526, 6914.872
2080.454, 6937.418
2082.383, 6959.476
2084.311, 6990.987
2086.240, 7022.219
2088.168, 7041.866
2090.097, 7062.414
2092.025, 7102.397
2093.954, 7152.364
2095.882, 7183.627
2097.811, 7195.525
2099.739, 7233.007
2101.667, 7321.406
2103.596, 7376.665
2105.524, 7381.113
2107.453, 7383.378
2109.381, 7373.273
2111.310, 7386.920
2113.238, 7457.774
2115.167, 7536.221
2117.095, 7587.887
2119.024, 7621.393
2120.952, 7647.344
2122.881, 7666.731
2124.809, 7680.360
2126.738, 7688.510
2128.666, 7707.770
2130.594, 7740.039
2132.523, 7783.916
2134.451, 7856.606
2136.380, 7915.337
2138.308, 7934.782
2140.237, 7956.735
2142.165, 8005.986
2144.094, 8062.506
2146.022, 8112.166
2147.951, 8153.218
2149.879, 8179.770
2151.808, 8194.528
2153.736, 8211.064
2155.665, 8229.891
2157.593, 8261.613
2159.521, 8310.493
2161.450, 8359.133
2163.378, 8404.883
2165.307, 8450.481
2167.235, 8491.820
2169.164, 8539.750
2171.092, 8610.670
2173.021, 8677.936
2174.949, 8709.684
2176.878, 8726.655
2178.806, 8764.521
2180.735, 8817.580
2182.663, 8859.137
2184.592, 8889.280
2186.520, 8921.711
2188.448, 8956.654
2190.377, 8996.164
2192.305, 9043.286
2194.234, 9085.144
2196.162, 9119.747
2198.091, 9146.646
2200.019, 9160.222
2201.948, 9174.644
2203.876, 9196.737
2205.805, 9227.669
2207.733, 9271.326
2209.662, 9322.626
2211.590, 9376.200
2213.519, 9428.103
2215.447, 9442.692
2217.375, 9415.890
2219.304, 9450.074
2221.232, 9567.840
2223.161, 9636.297
2225.089, 9612.664
2227.018, 9610.175
2228.946, 9680.234
2230.875, 9748.155
2232.803, 9777.985
2234.732, 9802.831
2236.660, 9840.867
2238.589, 9885.177
2240.517, 9938.143
2242.446, 9987.546
2244.374, 9998.374
2246.302, 9985.178
2248.231, 10031.10
2250.159, 10131.60
2252.088, 10179.08
2254.016, 10160.92
2255.945, 10175.04
2257.873, 10237.28
2259.802, 10314.40
2261.730, 10431.96
2263.659, 10508.04
2265.587, 10486.84
2267.516, 10465.94
2269.444, 10496.38
2271.373, 10538.83
2273.301, 10558.19
2275.229, 10581.62
2277.158, 10651.96
2279.086, 10742.94
2281.015, 10795.51
2282.943, 10821.11
2284.872, 10867.30
2286.800, 10932.63
2288.729, 10981.07
2290.657, 11009.03
2292.586, 11032.65
2294.514, 11041.80
2296.443, 11070.62
2298.371, 11131.37
2300.300, 11196.41
2302.228, 11266.26
2304.156, 11328.67
2306.085, 11373.33
2308.013, 11412.68
2309.942, 11461.13
2311.870, 11499.95
2313.799, 11498.52
2315.727, 11490.19
2317.656, 11521.99
2319.584, 11585.42
2321.513, 11662.90
2323.441, 11751.63
2325.370, 11830.60
2327.298, 11899.36
2329.227, 11935.56
2331.155, 11931.16
2333.083, 11961.04
2335.012, 12045.17
2336.940, 12100.30
2338.869, 12096.46
2340.797, 12099.36
2342.726, 12123.36
2344.654, 12164.74
2346.583, 12247.02
2348.511, 12316.47
2350.440, 12328.75
2352.368, 12337.53
2354.297, 12380.30
2356.225, 12439.59
2358.154, 12494.94
2360.082, 12553.59
2362.010, 12632.72
2363.939, 12721.37
2365.867, 12797.84
2367.796, 12860.76
2369.724, 12892.83
2371.653, 12891.47
2373.581, 12924.45
2375.510, 13002.79
2377.438, 13066.72
2379.367, 13114.29
2381.295, 13145.77
2383.224, 13148.41
2385.152, 13179.25
2387.081, 13268.98
2389.009, 13350.08
2390.938, 13397.96
2392.866, 13436.46
2394.794, 13473.89
2396.723, 13505.86
2398.651, 13515.36
2400.580, 13538.22
2402.508, 13617.04
2404.437, 13708.96
2406.365, 13774.34
2408.294, 13823.51
2410.222, 13854.40
2412.151, 13885.50
2414.079, 13974.87
2416.008, 14100.17
2417.936, 14163.60
2419.865, 14169.20
2421.793, 14204.49
2423.721, 14269.95
2425.650, 14307.20
2427.578, 14311.49
2429.507, 14351.22
2431.435, 14443.96
2433.364, 14517.07
2435.292, 14548.52
2437.221, 14584.94
2439.149, 14618.62
2441.078, 14679.89
2443.006, 14811.71
2444.935, 14899.00
2446.863, 14877.47
2448.792, 14864.82
2450.720, 14923.13
2452.648, 14992.14
2454.577, 15044.73
2456.505, 15088.70
2458.434, 15112.20
2460.362, 15147.86
2462.291, 15247.69
2464.219, 15357.16
2466.148, 15402.28
2468.076, 15418.28
2470.005, 15454.52
2471.933, 15507.84
2473.862, 15587.58
2475.790, 15675.57
2477.719, 15694.07
2479.647, 15658.67
2481.575, 15682.92
2483.504, 15767.08
2485.432, 15872.70
2487.361, 15998.78
2489.289, 16080.86
2491.218, 16112.79
2493.146, 16135.92
2495.075, 16143.12
2497.003, 16186.30
2498.932, 16309.33
2500.860, 16392.96
2502.789, 16424.05
2504.717, 16444.62
2506.646, 16451.25
2508.574, 16477.96
2510.502, 16540.50
2512.431, 16608.07
2514.359, 16670.64
2516.288, 16734.60
2518.216, 16808.78
2520.145, 16873.09
2522.073, 16908.94
2524.002, 16946.23
2525.930, 17003.06
2527.859, 17062.38
2529.787, 17118.88
2531.716, 17169.24
2533.644, 17209.80
2535.573, 17243.74
2537.501, 17252.06
2539.429, 17275.47
2541.358, 17379.77
2543.286, 17508.98
2545.215, 17585.06
2547.143, 17640.08
2549.072, 17731.70
2551.000, 17832.45
2552.929, 17882.69
2554.857, 17905.32
2556.786, 17962.77
2558.714, 18042.27
2560.643, 18089.98
2562.571, 18116.30
2564.500, 18165.87
2566.428, 18238.42
2568.356, 18345.59
2570.285, 18481.15
2572.213, 18562.92
2574.142, 18588.15
2576.070, 18599.01
2577.999, 18592.24
2579.927, 18623.63
2581.856, 18695.98
2583.784, 18773.17
2585.713, 18856.79
2587.641, 18906.71
2589.570, 18893.37
2591.498, 18949.89
2593.427, 19114.85
2595.355, 19232.08
2597.283, 19287.63
2599.212, 19320.48
2601.140, 19326.27
2603.069, 19357.22
2604.997, 19432.88
2606.926, 19512.97
2608.854, 19600.75
2610.783, 19675.65
2612.711, 19720.05
2614.640, 19783.44
2616.568, 19877.17
2618.497, 19971.76
2620.425, 20066.37
2622.354, 20146.08
2624.282, 20224.02
2626.210, 20266.91
2628.139, 20232.14
2630.067, 20224.48
2631.996, 20267.97
2633.924, 20336.65
2635.853, 20434.35
2637.781, 20522.47
2639.710, 20568.93
2641.638, 20625.98
2643.567, 20757.48
2645.495, 20841.20
2647.424, 20790.71
2649.352, 20760.82
2651.281, 20827.33
2653.209, 20909.21
2655.137, 20967.37
2657.066, 21026.95
2658.994, 21107.17
2660.923, 21180.91
2662.851, 21213.08
2664.780, 21264.20
2666.708, 21391.89
2668.637, 21502.99
2670.565, 21520.09
2672.494, 21533.17
2674.422, 21584.09
2676.351, 21663.96
2678.279, 21805.18
2680.208, 21921.96
2682.136, 21943.64
2684.064, 21957.70
2685.993, 22031.29
2687.921, 22104.05
2689.850, 22132.05
2691.778, 22152.95
2693.707, 22183.10
2695.635, 22231.56
2697.564, 22314.47
2699.492, 22402.69
2701.421, 22470.85
2703.349, 22539.46
2705.278, 22624.64
2707.206, 22706.57
2709.135, 22753.86
2711.063, 22814.07
2712.991, 22940.38
2714.920, 23057.53
2716.848, 23125.90
2718.777, 23156.07
2720.705, 23097.42
2722.634, 23079.71
2724.562, 23237.69
2726.491, 23399.96
2728.419, 23465.47
2730.348, 23507.09
2732.276, 23563.85
2734.205, 23624.62
2736.133, 23684.57
2738.062, 23744.26
2739.990, 23779.82
2741.918, 23847.60
2743.847, 24016.49
2745.775, 24160.28
2747.704, 24182.19
2749.632, 24194.54
2751.561, 24242.01
2753.489, 24320.61
2755.418, 24463.56
2757.346, 24579.74
2759.275, 24600.60
2761.203, 24630.80
2763.132, 24733.47
2765.060, 24831.50
2766.989, 24882.47
2768.917, 24936.83
2770.845, 25017.92
2772.774, 25086.08
2774.702, 25112.98
2776.631, 25149.83
2778.559, 25246.85
2780.488, 25303.91
2782.416, 25257.30
2784.345, 25259.93
2786.273, 25356.04
2788.202, 25482.35
2790.130, 25655.93
2792.059, 25781.15
2793.987, 25805.49
2795.916, 25827.55
2797.844, 25845.13
2799.772, 25905.76
2801.701, 26038.04
2803.629, 26150.97
2805.558, 26235.46
2807.486, 26285.31
2809.415, 26284.03
2811.343, 26314.05
2813.272, 26383.29
2815.200, 26455.28
2817.129, 26523.94
2819.057, 26595.92
2820.986, 26679.31
2822.914, 26732.76
2824.843, 26753.98
2826.771, 26836.74
2828.699, 26984.91
2830.628, 27101.46
2832.556, 27179.63
2834.485, 27240.21
2836.413, 27281.94
2838.342, 27345.43
2840.270, 27423.86
2842.199, 27484.24
2844.127, 27526.64
2846.056, 27551.99
2847.984, 27564.86
2849.913, 27561.42
2851.841, 27565.95
2853.770, 27675.60
2855.698, 27829.90
2857.626, 27903.44
2859.555, 27940.15
2861.483, 28026.03
2863.412, 28117.96
2865.340, 28125.33
2867.269, 28128.07
2869.197, 28237.39
2871.126, 28359.94
2873.054, 28379.13
2874.983, 28396.52
2876.911, 28528.82
2878.840, 28657.90
2880.768, 28691.51
2882.697, 28723.83
2884.625, 28810.14
2886.553, 28908.74
2888.482, 29027.03
2890.410, 29100.81
2892.339, 29067.13
2894.267, 29080.87
2896.196, 29236.65
2898.124, 29379.05
2900.053, 29483.87
2901.981, 29559.09
2903.910, 29605.05
2905.838, 29629.71
2907.767, 29624.82
2909.695, 29647.17
2911.624, 29709.40
2913.552, 29768.53
2915.480, 29821.81
2917.409, 29900.45
2919.337, 30004.38
2921.266, 30095.20
2923.194, 30172.86
2925.123, 30249.93
2927.051, 30326.63
2928.980, 30400.18
2930.908, 30469.86
2932.837, 30532.16
2934.765, 30588.66
2936.694, 30634.83
2938.622, 30685.01
2940.551, 30781.02
2942.479, 30877.49
2944.407, 30924.51
2946.336, 30951.32
2948.264, 30975.61
2950.193, 31006.87
2952.121, 31040.00
2954.050, 31101.93
2955.978, 31261.58
2957.907, 31364.30
2959.835, 31259.38
2961.764, 31240.52
2963.692, 31408.68
2965.621, 31568.15
2967.549, 31680.88
2969.478, 31762.59
2971.406, 31802.20
2973.334, 31833.37
2975.263, 31849.95
2977.191, 31928.33
2979.120, 32072.99
2981.048, 32145.10
2982.977, 32148.27
2984.905, 32217.24
2986.834, 32333.72
2988.762, 32381.66
2990.691, 32401.03
2992.619, 32507.16
2994.548, 32638.05
2996.476, 32672.13
2998.405, 32673.62
3000.333, 32712.92
3002.261, 32771.90
3004.190, 32833.86
3006.118, 32912.99
3008.047, 33057.32
3009.975, 33156.47
3011.904, 33126.61
3013.832, 33135.23
3015.761, 33283.13
3017.689, 33403.83
3019.618, 33467.66
3021.546, 33503.69
3023.475, 33507.89
3025.403, 33544.45
3027.332, 33631.11
3029.260, 33686.98
3031.188, 33713.97
3033.117, 33778.30
3035.045, 33870.85
3036.974, 33949.24
3038.902, 34014.16
3040.831, 34051.96
3042.759, 34091.54
3044.688, 34213.30
3046.616, 34330.90
3048.545, 34332.71
3050.473, 34334.40
3052.402, 34448.36
3054.330, 34565.49
3056.259, 34634.09
3058.187, 34704.91
3060.115, 34781.63
3062.044, 34881.48
3063.972, 35019.02
3065.901, 35099.81
3067.829, 35104.51
3069.758, 35108.01
3071.686, 35117.63
3073.615, 35164.73
3075.543, 35248.01
3077.472, 35318.97
3079.400, 35371.98
3081.329, 35371.00
3083.257, 35353.41
3085.186, 35379.13
3087.114, 35434.10
3089.042, 35514.49
3090.971, 35598.10
3092.899, 35679.79
3094.828, 35741.96
3096.756, 35759.11
3098.685, 35792.92
3100.613, 35858.14
3102.542, 35950.09
3104.470, 36091.21
3106.399, 36200.27
3108.327, 36272.40
3110.256, 36342.64
3112.184, 36406.69
3114.113, 36416.09
3116.041, 36393.89
3117.969, 36456.71
3119.898, 36555.43
3121.826, 36601.24
3123.755, 36628.43
3125.683, 36673.13
3127.612, 36720.84
3129.540, 36747.47
3131.469, 36793.54
3133.397, 36901.33
3135.326, 36980.58
3137.254, 37002.33
3139.183, 36999.92
3141.111, 36969.76
3143.040, 37006.84
3144.968, 37130.82
3146.896, 37199.15
3148.825, 37223.41
3150.753, 37268.50
3152.682, 37327.34
3154.610, 37371.54
3156.539, 37427.86
3158.467, 37554.01
3160.396, 37680.67
3162.324, 37757.93
3164.253, 37823.09
3166.181, 37904.82
3168.110, 37964.53
3170.038, 37986.76
3171.967, 38029.26
3173.895, 38104.91
3175.823, 38178.55
3177.752, 38247.57
3179.680, 38278.39
3181.609, 38288.30
3183.537, 38344.71
3185.466, 38430.09
3187.394, 38511.84
3189.323, 38597.73
3191.251, 38719.07
3193.180, 38807.64
3195.108, 38767.65
3197.037, 38779.68
3198.965, 38930.39
3200.894, 39026.48
3202.822, 39011.14
3204.750, 39040.99
3206.679, 39132.83
3208.607, 39200.24
3210.536, 39243.20
3212.464, 39245.24
3214.393, 39248.13
3216.321, 39385.96
3218.250, 39526.58
3220.178, 39485.39
3222.107, 39450.68
3224.035, 39564.50
3225.964, 39669.37
3227.892, 39705.95
3229.821, 39765.40
3231.749, 39880.88
3233.677, 39908.93
3235.606, 39833.84
3237.534, 39847.67
3239.463, 39921.01
3241.391, 39927.60
3243.320, 39925.63
3245.248, 40065.80
3247.177, 40190.82
3249.105, 40114.57
3251.034, 40068.93
3252.962, 40200.48
3254.891, 40341.78
3256.819, 40467.42
3258.748, 40563.13
3260.676, 40625.05
3262.604, 40636.51
3264.533, 40607.82
3266.461, 40650.36
3268.390, 40744.91
3270.318, 40878.01
3272.247, 40999.32
3274.175, 41029.89
3276.104, 41057.45
3278.032, 41153.07
3279.961, 41214.05
3281.889, 41180.00
3283.818, 41201.83
3285.746, 41295.24
3287.675, 41313.64
3289.603, 41265.57
3291.531, 41350.13
3293.460, 41491.48
3295.388, 41520.54
3297.317, 41497.06
3299.245, 41439.57
3301.174, 41431.03
3303.102, 41537.80
3305.031, 41627.18
3306.959, 41618.01
3308.888, 41671.94
3310.816, 41794.53
3312.745, 41892.45
3314.673, 41966.73
3316.602, 42065.90
3318.530, 42163.34
3320.458, 42202.75
3322.387, 42218.28
3324.315, 42245.94
3326.244, 42241.07
3328.172, 42145.66
3330.101, 42119.20
3332.029, 42199.64
3333.958, 42279.17
3335.886, 42350.29
3337.815, 42471.41
3339.743, 42601.98
3341.672, 42623.25
3343.600, 42602.67
3345.529, 42600.39
3347.457, 42625.87
3349.385, 42687.36
3351.314, 42771.43
3353.242, 42911.77
3355.171, 42967.27
3357.099, 42934.34
3359.028, 42876.79
3360.956, 42821.36
3362.885, 42862.71
3364.813, 42967.08
3366.742, 43116.34
3368.670, 43249.29
3370.599, 43348.29
3372.527, 43349.46
3374.456, 43186.94
3376.384, 43165.08
3378.313, 43354.37
3380.241, 43510.64
3382.169, 43624.36
3384.098, 43639.55
3386.026, 43618.79
3387.955, 43657.29
3389.883, 43701.57
3391.812, 43704.89
3393.740, 43733.11
3395.669, 43837.07
3397.597, 43922.59
3399.526, 43989.03
3401.454, 43985.12
3403.383, 43942.30
3405.311, 43982.01
3407.240, 44053.02
3409.168, 44086.40
3411.096, 44113.73
3413.025, 44160.33
3414.953, 44184.40
3416.882, 44161.63
3418.810, 44226.20
3420.739, 44392.73
3422.667, 44581.84
3424.596, 44754.98
3426.524, 44823.50
3428.453, 44814.39
3430.381, 44703.38
3432.310, 44613.41
3434.238, 44587.62
3436.167, 44633.59
3438.095, 44784.15
3440.023, 44789.46
3441.952, 44686.50
3443.880, 44738.23
3445.809, 44868.71
3447.737, 44976.89
3449.666, 45032.49
3451.594, 44948.83
3453.523, 44941.68
3455.451, 45096.71
3457.380, 45169.83
3459.308, 45134.96
3461.237, 45131.64
3463.165, 45163.30
3465.094, 45282.01
3467.022, 45384.00
3468.950, 45321.96
3470.879, 45296.53
3472.807, 45400.78
3474.736, 45469.51
3476.664, 45461.17
3478.593, 45496.85
3480.521, 45556.29
3482.450, 45539.75
3484.378, 45500.67
3486.307, 45476.42
3488.235, 45519.16
3490.164, 45711.30
3492.092, 45795.46
3494.021, 45669.40
3495.949, 45666.98
3497.877, 45776.87
3499.806, 45931.95
3501.734, 46063.43
3503.663, 46012.37
3505.591, 45959.30
3507.520, 46012.92
3509.448, 46088.00
3511.377, 46178.35
3513.305, 46207.18
3515.234, 46184.77
3517.162, 46225.36
3519.091, 46289.43
3521.019, 46297.84
3522.948, 46313.93
3524.876, 46399.51
3526.804, 46452.81
3528.733, 46453.89
3530.661, 46441.60
3532.590, 46426.34
3534.518, 46470.54
3536.447, 46520.67
3538.375, 46439.98
3540.304, 46430.54
3542.232, 46677.83
3544.161, 46826.00
3546.089, 46771.27
3548.018, 46787.03
3549.946, 46863.86
3551.875, 46884.11
3553.803, 46882.45
3555.731, 46881.42
3557.660, 46913.70
3559.588, 47002.35
3561.517, 47091.88
3563.445, 47182.19
3565.374, 47200.95
3567.302, 47164.26
3569.231, 47074.50
3571.159, 47042.44
3573.088, 47264.19
3575.016, 47431.32
3576.945, 47366.34
3578.873, 47331.93
3580.802, 47341.19
3582.730, 47370.61
3584.658, 47417.52
3586.587, 47505.36
3588.515, 47569.72
3590.444, 47549.16
3592.372, 47526.93
3594.301, 47519.59
3596.229, 47516.05
3598.158, 47524.76
3600.086, 47601.67
3602.015, 47708.61
3603.943, 47799.27
3605.872, 47876.37
3607.800, 47978.11
3609.729, 47929.79
3611.657, 47718.95
3613.585, 47744.81
3615.514, 47903.73
3617.442, 47842.35
3619.371, 47768.96
3621.299, 47872.91
3623.228, 47965.24
3625.156, 47992.02
3627.085, 48066.32
3629.013, 48175.02
3630.942, 48185.25
3632.870, 48141.91
3634.799, 48075.77
3636.727, 48047.77
3638.656, 48102.42
3640.584, 48148.31
3642.512, 48175.33
3644.441, 48109.09
3646.369, 48026.14
3648.298, 48121.11
3650.226, 48233.51
3652.155, 48236.74
3654.083, 48239.73
3656.012, 48251.00
3657.940, 48299.28
3659.869, 48362.60
3661.797, 48351.48
3663.726, 48332.41
3665.654, 48388.52
3667.583, 48413.95
3669.511, 48373.33
3671.439, 48380.57
3673.368, 48434.88
3675.296, 48523.16
3677.225, 48587.54
3679.153, 48515.90
3681.082, 48498.93
3683.010, 48631.92
3684.939, 48647.14
3686.867, 48529.75
3688.796, 48545.42
3690.724, 48638.27
3692.653, 48771.87
3694.581, 48840.59
3696.510, 48777.02
3698.438, 48760.24
3700.366, 48820.21
3702.295, 48820.54
3704.223, 48814.61
3706.152, 48916.29
3708.080, 48999.45
3710.009, 48991.49
3711.937, 48953.77
3713.866, 48886.36
3715.794, 49019.06
3717.723, 49214.36
3719.651, 49208.86
3721.580, 49141.20
3723.508, 49082.82
3725.437, 49010.10
3727.365, 48912.96
3729.293, 48920.64
3731.222, 48991.47
3733.150, 49080.07
3735.079, 49109.05
3737.007, 48995.37
3738.936, 48949.76
3740.864, 49012.96
3742.793, 49040.42
3744.721, 49061.61
3746.650, 49149.00
3748.578, 49235.40
3750.507, 49289.66
3752.435, 49321.58
3754.364, 49332.73
3756.292, 49281.56
3758.220, 49203.80
3760.149, 49136.34
3762.077, 49128.11
3764.006, 49236.30
3765.934, 49265.17
3767.863, 49195.30
3769.791, 49138.30
3771.720, 49110.13
3773.648, 49154.14
3775.577, 49165.47
3777.505, 49077.61
3779.434, 49075.50
3781.362, 49166.42
3783.291, 49272.63
3785.219, 49352.84
3787.147, 49351.02
3789.076, 49325.48
3791.004, 49283.98
3792.933, 49326.35
3794.861, 49429.18
3796.790, 49456.48
3798.718, 49453.41
3800.647, 49452.20
3802.575, 49456.46
3804.504, 49465.16
3806.432, 49517.64
3808.361, 49578.83
3810.289, 49528.87
3812.218, 49470.43
3814.146, 49481.77
3816.074, 49496.53
3818.003, 49506.96
3819.931, 49436.73
3821.860, 49362.03
3823.788, 49431.82
3825.717, 49519.40
3827.645, 49581.10
3829.574, 49582.65
3831.502, 49530.13
3833.431, 49462.95
3835.359, 49424.84
3837.288, 49492.52
3839.216, 49522.55
3841.145, 49473.81
3843.073, 49374.84
3845.001, 49287.89
3846.930, 49427.36
3848.858, 49547.07
3850.787, 49465.70
3852.715, 49456.19
3854.644, 49543.94
3856.572, 49536.16
3858.501, 49495.79
3860.429, 49516.74
3862.358, 49579.39
3864.286, 49707.29
3866.215, 49741.25
3868.143, 49699.10
3870.072, 49632.83
3872.000, 49612.74
3873.928, 49735.17
3875.857, 49801.80
3877.785, 49772.35
3879.714, 49786.56
3881.642, 49815.80
3883.571, 49811.46
3885.499, 49787.78
3887.428, 49752.67
3889.356, 49773.47
3891.285, 49835.93
3893.213, 49834.17
3895.142, 49852.32
3897.070, 50029.34
3898.999, 50051.02
3900.927, 49895.95
3902.855, 49889.44
3904.784, 49944.86
3906.712, 49866.20
3908.641, 49861.86
3910.569, 50027.40
3912.498, 50115.17
3914.426, 50126.70
3916.355, 50097.00
3918.283, 50083.39
3920.212, 50080.63
3922.140, 50134.44
3924.069, 50233.96
3925.997, 50182.65
3927.926, 50099.57
3929.854, 50163.94
3931.782, 50185.39
3933.711, 50140.39
3935.639, 50145.59
3937.568, 50163.56
3939.496, 50215.01
3941.425, 50236.32
3943.353, 50207.11
3945.282, 50229.62
3947.210, 50309.67
3949.139, 50398.63
3951.067, 50423.59
3952.996, 50333.81
3954.924, 50293.36
3956.853, 50340.90
3958.781, 50381.63
3960.709, 50446.19
3962.638, 50518.79
3964.566, 50465.33
3966.495, 50365.19
3968.423, 50353.75
3970.352, 50358.18
3972.280, 50406.36
3974.209, 50436.64
3976.137, 50352.93
3978.066, 50277.11
3979.994, 50249.99
3981.923, 50341.40
3983.851, 50423.99
3985.780, 50374.43
3987.708, 50382.00
3989.636, 50504.86
3991.565, 50560.33
3993.493, 50489.07
3995.422, 50431.94
3997.350, 50445.45
3999.279, 50473.07
4001.207, 50558.82
4003.136, 50564.26
4005.064, 50530.54
4006.993, 50539.84
4008.921, 50457.97
4010.850, 50503.01
4012.778, 50616.05
4014.707, 50564.44
4016.635, 50542.57
4018.563, 50628.28
4020.492, 50638.17
4022.420, 50603.29
4024.349, 50631.50
4026.277, 50697.50
4028.206, 50706.02
4030.134, 50733.16
4032.063, 50772.20
4033.991, 50763.89
4035.920, 50726.93
4037.848, 50691.87
4039.777, 50715.74
4041.705, 50733.20
4043.634, 50752.94
4045.562, 50738.68
4047.490, 50677.83
4049.419, 50657.10
4051.347, 50629.74
4053.276, 50592.13
4055.204, 50628.31
4057.133, 50612.40
4059.061, 50655.29
4060.990, 50748.55
4062.918, 50762.38
4064.847, 50660.80
4066.775, 50528.93
4068.704, 50517.04
4070.632, 50611.75
4072.561, 50704.76
4074.489, 50643.98
4076.417, 50492.35
4078.346, 50501.81
4080.274, 50604.61
4082.203, 50592.94
4084.131, 50497.50
4086.060, 50402.09
4087.988, 50433.06
4089.917, 50504.82
4091.845, 50566.16
4093.774, 50537.59
4095.702, 50457.17
4097.631, 50493.93
4099.559, 50510.96
4101.488, 50440.13
4103.416, 50470.01
4105.345, 50534.28
4107.273, 50453.35
4109.202, 50408.18
4111.130, 50473.87
4113.059, 50478.47
4114.987, 50429.81
4116.916, 50446.07
4118.844, 50459.96
4120.772, 50300.66
4122.701, 50278.26
4124.629, 50391.82
4126.558, 50468.95
4128.486, 50484.91
4130.415, 50385.01
4132.343, 50282.79
4134.271, 50228.25
4136.200, 50209.50
4138.128, 50224.22
4140.057, 50291.51
4141.985, 50345.16
4143.914, 50366.83
4145.842, 50382.30
4147.771, 50365.57
4149.699, 50279.50
4151.628, 50220.32
4153.556, 50195.88
4155.485, 50187.02
4157.413, 50178.68
4159.342, 50144.85
4161.270, 50072.40
4163.199, 49987.14
4165.127, 49939.35
4167.056, 49992.03
4168.984, 50271.70
4170.913, 50319.73
4172.841, 50172.24
4174.770, 50125.96
4176.698, 50086.28
4178.626, 49941.57
4180.555, 50011.75
4182.483, 50201.12
4184.412, 50162.37
4186.340, 50033.35
4188.269, 49835.00
4190.197, 49793.66
4192.125, 49873.97
4194.054, 50009.55
4195.982, 50062.59
4197.911, 49966.14
4199.839, 49826.79
4201.768, 49704.36
4203.696, 49729.83
4205.625, 49745.74
4207.553, 49703.89
4209.482, 49714.77
4211.410, 49727.07
4213.339, 49630.30
4215.267, 49582.86
4217.196, 49614.41
4219.124, 49642.05
4221.053, 49663.20
4222.981, 49676.85
4224.910, 49671.73
4226.838, 49645.44
4228.767, 49619.34
4230.695, 49580.07
4232.624, 49514.37
4234.552, 49409.42
4236.480, 49288.56
4238.409, 49305.04
4240.337, 49354.66
4242.266, 49386.79
4244.194, 49269.02
4246.123, 49061.27
4248.051, 49097.84
4249.979, 49157.78
4251.908, 49126.49
4253.836, 49142.77
4255.765, 49176.25
4257.693, 49131.47
4259.622, 49046.34
4261.550, 48929.64
4263.479, 48866.60
4265.407, 48809.34
4267.336, 48648.14
4269.264, 48569.02
4271.193, 48612.83
4273.121, 48674.57
4275.050, 48717.83
4276.978, 48716.37
4278.907, 48623.74
4280.835, 48458.79
4282.764, 48431.05
4284.692, 48372.58
4286.621, 48144.98
4288.549, 48173.71
4290.478, 48359.78
4292.406, 48357.73
4294.334, 48293.30
4296.263, 48207.01
4298.191, 48076.45
4300.120, 47962.09
4302.048, 47969.50
4303.977, 47985.20
4305.905, 47985.50
4307.833, 47987.71
4309.762, 47952.59
4311.690, 47836.71
4313.619, 47722.88
4315.547, 47628.05
4317.476, 47558.29
4319.404, 47577.29
4321.333, 47726.25
4323.261, 47700.34
4325.190, 47587.69
4327.118, 47569.47
4329.047, 47540.74
4330.975, 47481.39
4332.904, 47436.48
4334.832, 47399.03
4336.761, 47367.24
4338.689, 47340.11
4340.618, 47300.30
4342.546, 47137.44
4344.475, 47040.00
4346.403, 47088.25
4348.332, 47152.84
4350.260, 47158.70
4352.188, 46976.43
4354.117, 46832.13
4356.045, 46775.12
4357.974, 46739.26
4359.902, 46734.61
4361.831, 46783.29
4363.759, 46791.51
4365.688, 46750.24
4367.616, 46657.40
4369.544, 46555.75
4371.473, 46459.15
4373.401, 46468.46
4375.330, 46510.31
4377.258, 46509.86
4379.187, 46448.49
4381.115, 46339.53
4383.044, 46279.96
4384.972, 46246.83
4386.901, 46232.73
4388.829, 46212.07
4390.758, 46156.58
4392.686, 46002.79
4394.615, 45860.04
4396.543, 45753.08
4398.472, 45702.53
4400.400, 45661.98
4402.329, 45601.86
4404.257, 45563.31
4406.186, 45550.29
4408.114, 45600.16
4410.042, 45555.36
4411.971, 45397.48
4413.899, 45334.30
4415.828, 45310.80
4417.756, 45291.59
4419.685, 45252.17
4421.613, 45193.98
4423.542, 45111.52
4425.470, 45040.23
4427.398, 44989.95
4429.327, 44959.24
4431.255, 44959.54
4433.184, 45044.41
4435.112, 44977.14
4437.041, 44822.31
4438.969, 44830.93
4440.898, 44787.91
4442.826, 44634.12
4444.755, 44518.32
4446.683, 44484.20
4448.612, 44596.38
4450.540, 44622.40
4452.469, 44551.68
4454.397, 44367.62
4456.326, 44225.75
4458.254, 44163.08
4460.183, 44129.05
4462.111, 44113.13
4464.040, 44148.99
4465.968, 44006.86
4467.896, 43800.29
4469.825, 43816.20
4471.753, 43848.34
4473.682, 43852.87
4475.610, 43904.73
4477.539, 43870.64
4479.467, 43635.68
4481.396, 43606.76
4483.324, 43668.82
4485.252, 43607.80
4487.181, 43530.48
4489.109, 43458.16
4491.038, 43392.81
4492.966, 43358.43
4494.895, 43378.22
4496.823, 43282.08
4498.752, 43125.37
4500.680, 42942.71
4502.609, 42869.86
4504.537, 42877.50
4506.466, 42788.52
4508.394, 42756.74
4510.323, 42825.27
4512.251, 42771.56
4514.180, 42710.82
4516.108, 42733.83
4518.037, 42731.17
4519.965, 42676.33
4521.894, 42522.21
4523.822, 42386.33
4525.750, 42304.67
4527.679, 42344.53
4529.607, 42344.20
4531.536, 42189.53
4533.464, 42106.35
4535.393, 42040.36
4537.321, 41916.75
4539.250, 41910.48
4541.178, 41968.12
4543.106, 41930.84
4545.035, 41809.89
4546.963, 41642.75
4548.892, 41685.48
4550.820, 41712.89
4552.749, 41561.20
4554.677, 41474.05
4556.606, 41439.64
4558.534, 41479.68
4560.463, 41407.09
4562.391, 41252.34
4564.320, 41121.59
4566.248, 41104.30
4568.177, 41194.70
4570.105, 41210.61
4572.034, 41112.85
4573.962, 40856.14
4575.891, 40745.44
4577.819, 40731.55
4579.748, 40770.93
4581.676, 40797.14
4583.604, 40783.14
4585.533, 40612.86
4587.461, 40587.05
4589.390, 40718.40
4591.318, 40596.90
4593.247, 40444.38
4595.175, 40365.13
4597.104, 40291.79
4599.032, 40214.48
4600.960, 40150.11
4602.889, 39965.68
4604.817, 39788.52
4606.746, 39901.12
4608.674, 39991.27
4610.603, 39998.50
4612.531, 39876.39
4614.460, 39807.22
4616.388, 39833.78
4618.317, 39697.32
4620.245, 39541.61
4622.174, 39481.66
4624.102, 39408.69
4626.031, 39313.65
4627.959, 39167.20
4629.888, 39111.71
4631.816, 39127.07
4633.745, 39171.21
4635.673, 39143.97
4637.602, 39060.58
4639.530, 39134.79
4641.458, 39129.25
4643.387, 38949.25
4645.315, 38828.74
4647.244, 38733.00
4649.172, 38640.44
4651.101, 38693.51
4653.029, 38733.75
4654.958, 38548.38
4656.886, 38468.48
4658.814, 38443.70
4660.743, 38298.12
4662.671, 38250.75
4664.600, 38289.49
4666.528, 38259.10
4668.457, 38204.93
4670.385, 38128.47
4672.314, 37889.97
4674.242, 37730.11
4676.171, 37785.51
4678.099, 37834.69
4680.028, 37862.19
4681.956, 37861.82
4683.885, 37734.46
4685.813, 37598.45
4687.742, 37627.93
4689.670, 37569.74
4691.599, 37447.65
4693.527, 37322.57
4695.456, 37274.33
4697.384, 37262.96
4699.313, 37095.31
4701.241, 36952.32
4703.169, 36879.42
4705.098, 36883.93
4707.026, 36896.27
4708.955, 36889.92
4710.883, 36775.45
4712.812, 36684.91
4714.740, 36688.70
4716.668, 36515.15
4718.597, 36355.30
4720.525, 36409.37
4722.454, 36386.72
4724.382, 36342.05
4726.311, 36376.00
4728.239, 36307.81
4730.168, 36178.54
4732.096, 36063.55
4734.025, 36038.00
4735.953, 36049.95
4737.882, 35949.39
4739.810, 35790.41
4741.739, 35611.62
4743.667, 35512.85
4745.596, 35508.52
4747.524, 35573.67
4749.453, 35557.06
4751.381, 35560.68
4753.310, 35629.78
4755.238, 35494.54
4757.167, 35284.15
4759.095, 35064.26
4761.023, 35020.25
4762.952, 35041.21
4764.880, 35064.30
4766.809, 34990.68
4768.737, 34899.80
4770.666, 34853.62
4772.594, 34929.49
4774.522, 34984.17
4776.451, 34824.68
4778.379, 34678.75
4780.308, 34564.14
4782.236, 34491.25
4784.165, 34408.73
4786.093, 34315.84
4788.022, 34191.24
4789.950, 34153.54
4791.879, 34176.55
4793.807, 34155.83
4795.736, 34171.06
4797.664, 34178.70
4799.593, 33920.65
4801.521, 33808.93
4803.450, 33861.50
4805.378, 33731.11
4807.307, 33652.03
4809.235, 33669.68
4811.164, 33686.88
4813.092, 33599.51
4815.021, 33416.10
4816.949, 33411.00
4818.877, 33419.74
4820.806, 33379.18
4822.734, 33314.63
4824.663, 33188.92
4826.591, 33009.12
4828.520, 33014.55
4830.448, 33055.36
4832.376, 33055.79
4834.305, 33011.00
4836.233, 32911.77
4838.162, 32759.79
4840.090, 32697.63
4842.019, 32696.84
4843.947, 32749.85
4845.876, 32661.85
4847.804, 32542.43
4849.733, 32456.81
4851.661, 32316.34
4853.590, 32205.17
4855.518, 32188.47
4857.447, 32223.55
4859.375, 32237.86
4861.304, 32184.79
4863.232, 32000.70
4865.161, 31854.46
4867.089, 31889.90
4869.018, 31861.77
4870.946, 31788.52
4872.875, 31692.00
4874.803, 31507.79
4876.731, 31369.47
4878.660, 31385.26
4880.588, 31481.96
4882.517, 31521.13
4884.445, 31393.36
4886.374, 31327.00
4888.302, 31318.87
4890.230, 31372.73
4892.159, 31222.86
4894.087, 31052.27
4896.016, 31001.91
4897.944, 30943.64
4899.873, 30900.88
4901.801, 30893.87
4903.730, 30773.50
4905.658, 30649.21
4907.587, 30611.75
4909.515, 30469.46
4911.444, 30379.18
4913.372, 30430.23
4915.301, 30386.15
4917.229, 30309.72
4919.158, 30246.53
4921.086, 30222.59
4923.015, 30128.38
4924.943, 29930.62
4926.872, 29991.38
4928.800, 30068.79
4930.729, 30036.29
4932.657, 29934.59
4934.585, 29782.71
4936.514, 29610.53
4938.442, 29597.63
4940.371, 29620.12
4942.299, 29629.13
4944.228, 29661.76
4946.156, 29573.93
4948.084, 29365.92
4950.013, 29350.32
4951.941, 29298.49
4953.870, 29179.39
4955.798, 29110.67
4957.727, 29056.99
4959.655, 29009.29
4961.584, 28989.31
4963.512, 28884.51
4965.441, 28747.82
4967.369, 28760.42
4969.298, 28787.02
4971.226, 28765.10
4973.155, 28587.02
4975.083, 28460.09
4977.012, 28397.14
4978.940, 28384.58
4980.869, 28378.01
4982.797, 28361.55
4984.726, 28322.37
4986.654, 28269.50
4988.583, 28192.53
4990.511, 28079.01
4992.439, 27970.66
4994.368, 27898.63
4996.296, 27900.16
4998.225, 27825.21
5000.153, 27729.96
5002.082, 27644.15
5004.010, 27536.98
5005.938, 27466.56
5007.867, 27447.18
5009.795, 27340.30
5011.724, 27308.97
5013.652, 27362.36
5015.581, 27287.05
5017.509, 27186.22
5019.438, 27101.90
5021.366, 27106.21
5023.295, 27039.27
5025.223, 26945.91
5027.152, 26979.72
5029.080, 26920.52
5031.009, 26826.17
5032.937, 26812.54
5034.866, 26785.60
5036.794, 26729.91
5038.723, 26640.22
5040.651, 26553.51
5042.580, 26433.34
5044.508, 26268.31
5046.437, 26289.50
5048.365, 26292.91
5050.293, 26191.84
5052.222, 26216.46
5054.150, 26169.42
5056.079, 26040.11
5058.007, 26078.35
5059.936, 25948.42
5061.864, 25725.88
5063.792, 25696.64
5065.721, 25852.89
5067.649, 25962.09
5069.578, 25670.96
5071.506, 25629.86
5073.435, 25676.10
5075.363, 25620.65
5077.292, 25410.18
5079.220, 25222.53
5081.149, 25161.02
5083.077, 25067.86
5085.006, 25097.04
5086.934, 25231.16
5088.863, 25135.31
5090.791, 25071.29
5092.720, 25058.80
5094.648, 24975.36
5096.577, 24926.61
5098.505, 24879.24
5100.434, 24761.44
5102.362, 24671.05
5104.291, 24609.52
5106.219, 24573.40
5108.147, 24507.81
5110.076, 24494.19
5112.004, 24555.98
5113.933, 24387.26
5115.861, 24234.09
5117.790, 24166.58
5119.718, 24188.03
5121.646, 24204.74
5123.575, 24172.19
5125.503, 23998.93
5127.432, 23979.30
5129.360, 24014.00
5131.289, 23982.87
5133.217, 23833.29
5135.146, 23799.39
5137.074, 24005.82
5139.003, 23858.49
5140.931, 23758.78
5142.860, 23761.06
5144.788, 23529.11
5146.717, 23466.06
5148.645, 23524.02
5150.574, 23534.87
5152.502, 23431.03
5154.431, 23330.43
5156.359, 23344.76
5158.288, 23179.80
5160.216, 23069.41
5162.145, 23092.85
5164.073, 23026.19
5166.001, 22979.64
5167.930, 22972.72
5169.858, 23004.21
5171.787, 22895.26
5173.715, 22758.07
5175.644, 22752.50
5177.572, 22710.64
5179.500, 22641.03
5181.429, 22562.60
5183.357, 22616.20
5185.286, 22615.43
5187.214, 22516.62
5189.143, 22336.66
5191.071, 22373.84
5193.000, 22476.35
5194.928, 22349.80
5196.857, 22338.36
5198.785, 22283.69
5200.714, 22051.87
5202.642, 21903.07
5204.571, 21921.60
5206.499, 22049.21
5208.428, 21965.13
5210.356, 21913.22
5212.285, 21871.95
5214.213, 21731.31
5216.142, 21685.49
5218.070, 21663.49
5219.999, 21614.25
5221.927, 21543.05
5223.855, 21590.24
5225.784, 21691.11
5227.712, 21503.75
5229.641, 21325.85
5231.569, 21224.49
5233.498, 21258.40
5235.426, 21205.88
5237.354, 21133.94
5239.283, 21078.35
5241.211, 21000.51
5243.140, 20959.76
5245.068, 20943.83
5246.997, 20897.22
5248.925, 20786.92
5250.854, 20725.22
5252.782, 20822.59
5254.711, 20761.38
5256.639, 20659.54
5258.568, 20580.30
5260.496, 20567.09
5262.425, 20569.59
5264.353, 20549.76
5266.282, 20468.41
5268.210, 20326.41
5270.139, 20227.30
5272.067, 20213.56
5273.996, 20089.04
5275.924, 20018.85
5277.853, 20009.62
5279.781, 19990.52
5281.709, 19971.51
5283.638, 19952.16
5285.566, 19933.79
5287.495, 19897.62
5289.423, 19826.71
5291.352, 19738.64
5293.280, 19725.00
5295.208, 19571.25
5297.137, 19449.91
5299.065, 19607.11
5300.994, 19487.60
5302.922, 19362.67
5304.851, 19328.08
5306.779, 19240.30
5308.708, 19231.34
5310.636, 19244.54
5312.565, 19180.05
5314.493, 19130.37
5316.422, 19080.95
5318.350, 19024.83
5320.279, 18992.17
5322.207, 18923.29
5324.136, 18838.73
5326.064, 18780.45
5327.993, 18785.62
5329.921, 18748.03
5331.850, 18645.88
5333.778, 18720.53
5335.707, 18630.61
5337.635, 18458.70
5339.563, 18437.17
5341.492, 18405.07
5343.420, 18365.29
5345.349, 18330.24
5347.277, 18361.84
5349.206, 18299.49
5351.134, 18192.40
5353.063, 18152.02
5354.991, 18059.96
5356.919, 17994.39
5358.848, 17977.54
5360.776, 17884.21
5362.705, 17906.11
5364.633, 17924.24
5366.562, 17759.13
5368.490, 17711.44
5370.419, 17688.92
5372.347, 17649.34
5374.276, 17636.73
5376.204, 17560.84
5378.133, 17495.84
5380.061, 17527.25
5381.990, 17530.00
5383.918, 17442.43
5385.847, 17299.29
5387.775, 17227.70
5389.704, 17196.00
5391.632, 17177.39
5393.561, 17154.58
5395.489, 17090.30
5397.417, 17005.26
5399.346, 16939.63
5401.274, 16962.75
5403.203, 16911.46
5405.131, 16773.19
5407.060, 16594.27
5408.988, 16589.48
5410.917, 16630.63
5412.845, 16652.76
5414.773, 16596.87
5416.702, 16572.07
5418.630, 16535.28
5420.559, 16472.81
5422.487, 16398.36
5424.416, 16241.94
5426.344, 16145.46
5428.273, 16199.67
5430.201, 16211.16
5432.130, 16233.80
5434.058, 16216.95
5435.987, 16012.68
5437.915, 15952.71
5439.844, 15952.16
5441.772, 15945.03
5443.701, 15838.68
5445.629, 15812.94
5447.558, 15780.26
5449.486, 15660.91
5451.415, 15726.08
5453.343, 15674.93
5455.271, 15558.90
5457.200, 15655.90
5459.128, 15610.90
5461.057, 15502.68
5462.985, 15383.34
5464.914, 15252.09
5466.842, 15284.33
5468.771, 15337.71
5470.699, 15285.89
5472.627, 15266.91
5474.556, 15147.94
5476.484, 14994.86
5478.413, 14967.61
5480.341, 14932.48
5482.270, 14996.43
5484.198, 15117.71
5486.127, 15042.03
5488.055, 14978.49
5489.984, 14915.21
5491.912, 14829.76
5493.841, 14728.43
5495.769, 14658.88
5497.698, 14634.11
5499.626, 14664.36
5501.555, 14577.50
5503.483, 14475.42
5505.412, 14424.41
5507.340, 14498.23
5509.269, 14447.11
5511.197, 14387.79
5513.125, 14343.64
5515.054, 14164.00
5516.982, 14083.42
5518.911, 14118.89
5520.839, 14226.45
5522.768, 14083.59
5524.696, 14028.46
5526.625, 14024.74
5528.553, 13968.68
5530.481, 13912.25
5532.410, 13893.98
5534.338, 13869.30
5536.267, 13761.08
5538.195, 13795.42
5540.124, 13761.04
5542.052, 13632.12
5543.981, 13536.54
5545.909, 13497.82
5547.838, 13485.41
5549.766, 13474.01
5551.695, 13422.83
5553.623, 13422.74
5555.552, 13410.57
5557.480, 13341.32
5559.409, 13243.64
5561.337, 13167.84
5563.266, 13168.84
5565.194, 13262.17
5567.123, 13208.65
5569.051, 13133.24
5570.979, 13081.65
5572.908, 13072.73
5574.836, 13042.08
5576.765, 12929.85
5578.693, 12826.47
5580.622, 12894.41
5582.550, 12899.83
5584.479, 12836.04
5586.407, 12750.37
5588.335, 12721.87
5590.264, 12653.63
5592.192, 12634.62
5594.121, 12658.87
5596.049, 12603.62
5597.978, 12563.46
5599.906, 12524.93
5601.835, 12469.62
5603.763, 12346.14
5605.692, 12339.94
5607.620, 12354.62
5609.549, 12331.55
5611.477, 12295.40
5613.406, 12183.38
5615.334, 12097.39
5617.263, 12086.82
5619.191, 12073.68
5621.120, 12074.46
5623.048, 12078.09
5624.977, 12063.86
5626.905, 11931.08
5628.833, 11864.45
5630.762, 11854.90
5632.690, 11866.97
5634.619, 11851.73
5636.547, 11772.93
5638.476, 11703.20
5640.404, 11688.98
5642.333, 11655.71
5644.261, 11641.91
5646.189, 11590.80
5648.118, 11483.74
5650.046, 11519.81
5651.975, 11427.52
5653.903, 11352.87
5655.832, 11413.12
5657.760, 11375.39
5659.689, 11287.51
5661.617, 11218.31
5663.546, 11202.05
5665.474, 11154.79
5667.403, 11168.09
5669.331, 11164.34
5671.260, 11097.50
5673.188, 11077.40
5675.117, 11038.86
5677.045, 11013.75
5678.974, 11007.81
5680.902, 10901.45
5682.831, 10880.39
5684.759, 10886.14
5686.688, 10857.14
5688.616, 10704.59
5690.544, 10726.88
5692.473, 10726.33
5694.401, 10627.01
5696.330, 10590.99
5698.258, 10561.85
5700.187, 10542.09
5702.115, 10518.64
5704.043, 10445.87
5705.972, 10487.78
5707.900, 10453.72
5709.829, 10338.33
5711.757, 10296.27
5713.686, 10363.57
5715.614, 10327.88
5717.543, 10228.40
5719.471, 10272.71
5721.400, 10185.83
5723.328, 10129.52
5725.257, 10101.02
5727.185, 10030.53
5729.114, 9961.958
5731.042, 9959.738
5732.971, 9983.313
5734.899, 9973.554
5736.828, 9884.241
5738.756, 9833.100
5740.685, 9796.649
5742.613, 9752.643
5744.542, 9773.186
5746.470, 9730.601
5748.398, 9663.891
5750.327, 9610.368
5752.255, 9587.954
5754.184, 9551.797
5756.112, 9561.990
5758.041, 9590.095
5759.969, 9507.929
5761.897, 9425.468
5763.826, 9399.569
5765.754, 9395.508
5767.683, 9345.008
5769.611, 9283.250
5771.540, 9318.153
5773.468, 9316.711
5775.397, 9180.013
5777.325, 9203.808
5779.254, 9255.887
5781.182, 9213.899
5783.111, 9084.583
5785.039, 9104.520
5786.968, 9073.418
5788.896, 9002.107
5790.825, 8940.878
5792.753, 8972.844
5794.682, 8864.892
5796.610, 8853.981
5798.539, 8905.228
5800.467, 8890.940
5802.396, 8776.250
5804.324, 8752.696
5806.252, 8744.400
5808.181, 8679.579
5810.109, 8610.086
5812.038, 8641.305
5813.966, 8651.086
5815.895, 8600.374
5817.823, 8537.006
5819.751, 8502.886
5821.680, 8493.848
5823.608, 8482.870
5825.537, 8448.435
5827.465, 8438.812
5829.394, 8397.844
5831.322, 8365.854
5833.251, 8363.650
5835.179, 8341.105
5837.108, 8338.413
5839.036, 8269.319
5840.965, 8189.359
5842.893, 8277.569
5844.822, 8164.738
5846.750, 8125.201
5848.679, 8116.398
5850.607, 8054.906
5852.536, 8044.099
5854.464, 8112.907
5856.393, 8071.647
5858.321, 7937.079
5860.250, 7929.057
5862.178, 7905.849
5864.106, 7918.640
5866.035, 7921.902
5867.963, 7866.570
5869.892, 7836.393
5871.820, 7814.759
5873.749, 7781.431
5875.677, 7739.561
5877.605, 7717.362
5879.534, 7663.407
5881.462, 7618.674
5883.391, 7595.838
5885.319, 7589.516
5887.248, 7574.210
5889.176, 7536.249
5891.105, 7496.835
5893.033, 7474.526
5894.962, 7490.796
5896.890, 7483.647
5898.819, 7444.682
5900.747, 7387.212
5902.676, 7331.064
5904.604, 7330.970
5906.533, 7295.809
5908.461, 7231.062
5910.390, 7179.664
5912.318, 7202.159
5914.247, 7215.434
5916.175, 7181.225
5918.104, 7155.248
5920.032, 7162.967
5921.960, 7108.358
5923.889, 7104.908
5925.817, 7054.907
5927.746, 7002.728
5929.674, 7033.328
5931.603, 6955.537
5933.531, 6963.873
5935.459, 6945.194
5937.388, 6869.029
5939.316, 6850.347
5941.245, 6854.035
5943.173, 6834.962
5945.102, 6780.383
5947.030, 6709.322
5948.959, 6705.386
5950.887, 6776.073
5952.816, 6779.659
5954.744, 6709.445
5956.673, 6630.813
5958.601, 6532.105
5960.530, 6505.135
5962.458, 6546.979
5964.387, 6605.498
5966.315, 6596.317
5968.244, 6472.124
5970.172, 6432.919
5972.101, 6427.847
5974.029, 6394.167
5975.958, 6348.602
5977.886, 6390.253
5979.814, 6427.541
5981.743, 6413.535
5983.671, 6345.279
5985.600, 6283.313
5987.528, 6249.910
5989.457, 6222.378
5991.385, 6192.837
5993.313, 6166.835
5995.242, 6197.144
5997.170, 6174.853
5999.099, 6108.554
6001.027, 6058.811
6002.956, 6090.238
6004.884, 6053.039
6006.813, 6018.156
6008.741, 6008.093
6010.670, 5999.822
6012.598, 5946.546
6014.527, 5952.227
6016.455, 5874.905
6018.384, 5839.044
6020.312, 5871.125
6022.241, 5801.920
6024.169, 5775.450
6026.098, 5726.347
6028.026, 5691.879
6029.955, 5689.917
6031.883, 5661.145
6033.812, 5679.619
6035.740, 5674.625
6037.668, 5661.465
6039.597, 5657.901
6041.525, 5638.852
6043.454, 5579.716
6045.382, 5513.791
6047.311, 5479.202
6049.239, 5480.509
6051.167, 5465.897
6053.096, 5429.739
6055.024, 5426.628
6056.953, 5413.995
6058.881, 5362.782
6060.810, 5321.841
6062.738, 5322.537
6064.667, 5339.555
6066.595, 5324.778
6068.524, 5290.854
6070.452, 5374.538
6072.381, 5337.351
6074.309, 5256.907
6076.238, 5208.244
6078.166, 5201.767
6080.095, 5170.678
6082.023, 5151.771
6083.952, 5144.760
6085.880, 5119.780
6087.809, 5074.672
6089.737, 5047.188
6091.666, 5051.534
6093.594, 5073.122
6095.522, 5060.299
6097.451, 5007.837
6099.379, 4959.273
6101.308, 4919.827
6103.236, 4909.309
6105.165, 4914.144
6107.093, 4917.621
6109.021, 4907.134
6110.950, 4855.601
6112.878, 4835.248
6114.807, 4810.717
6116.735, 4786.736
6118.664, 4785.163
6120.592, 4782.505
6122.521, 4773.067
6124.449, 4771.040
6126.378, 4740.470
6128.306, 4666.120
6130.235, 4615.168
6132.163, 4618.917
6134.092, 4563.881
6136.020, 4566.216
6137.949, 4642.533
6139.877, 4612.956
6141.806, 4588.528
6143.734, 4537.275
6145.663, 4519.605
6147.591, 4520.739
6149.520, 4482.391
6151.448, 4513.871
6153.376, 4439.662
6155.305, 4437.279
6157.233, 4450.159
6159.162, 4388.261
6161.090, 4378.606
6163.019, 4403.945
6164.947, 4369.510
6166.875, 4327.921
6168.804, 4316.424
6170.732, 4307.745
6172.661, 4260.263
6174.589, 4248.938
6176.518, 4221.827
6178.446, 4203.442
6180.375, 4225.692
6182.303, 4138.091
6184.232, 4134.473
6186.160, 4152.400
6188.089, 4121.423
6190.017, 4088.903
6191.946, 4204.017
6193.874, 4121.605
6195.803, 4098.688
6197.731, 4050.723
6199.660, 3970.520
6201.588, 3928.829
6203.517, 3964.871
6205.445, 3986.692
6207.374, 3971.930
6209.302, 3896.875
6211.230, 3827.644
6213.159, 3886.740
6215.087, 3858.765
6217.016, 3910.012
6218.944, 3917.741
6220.873, 3869.928
6222.801, 3812.132
6224.729, 3742.264
6226.658, 3758.291
6228.586, 3740.352
6230.515, 3727.541
6232.443, 3721.667
6234.372, 3685.213
6236.300, 3686.665
6238.229, 3699.834
6240.157, 3692.727
6242.086, 3663.259
6244.014, 3629.697
6245.943, 3618.336
6247.871, 3638.387
6249.800, 3602.582
6251.728, 3571.420
6253.657, 3557.896
6255.585, 3538.206
6257.514, 3483.900
6259.442, 3533.226
6261.371, 3477.047
6263.299, 3426.788
6265.228, 3467.942
6267.156, 3558.844
6269.084, 3433.290
6271.013, 3387.530
6272.941, 3415.979
6274.870, 3425.916
6276.798, 3395.298
6278.727, 3361.951
6280.655, 3380.184
6282.583, 3370.415
6284.512, 3387.696
6286.440, 3383.923
6288.369, 3333.898
6290.297, 3270.762
6292.226, 3308.888
6294.154, 3356.912
6296.083, 3293.782
6298.011, 3263.730
6299.940, 3273.320
6301.868, 3220.110
6303.797, 3258.606
6305.725, 3252.263
6307.654, 3181.944
6309.582, 3140.186
6311.511, 3143.218
6313.439, 3137.256
6315.368, 3126.371
6317.296, 3112.694
6319.225, 3106.996
6321.153, 3080.889
6323.082, 3046.712
6325.010, 3033.890
6326.938, 3004.810
6328.867, 3014.233
6330.795, 3030.046
6332.724, 3004.825
6334.652, 2972.662
6336.581, 2986.342
6338.509, 3020.627
6340.438, 3029.259
6342.366, 2991.647
6344.294, 2952.060
6346.223, 2928.388
6348.151, 2916.255
6350.080, 2915.699
6352.008, 2889.795
6353.937, 2842.298
6355.865, 2855.173
6357.794, 2878.572
6359.722, 2863.934
6361.651, 2835.760
6363.579, 2791.096
6365.508, 2781.638
6367.436, 2761.749
6369.365, 2789.033
6371.293, 2807.646
6373.222, 2732.997
6375.150, 2732.749
6377.079, 2734.674
6379.007, 2719.453
6380.936, 2741.255
6382.864, 2736.426
6384.792, 2673.581
6386.721, 2678.742
6388.649, 2658.440
6390.578, 2691.579
6392.506, 2622.259
6394.435, 2587.283
6396.363, 2613.501
6398.292, 2571.859
6400.220, 2561.009
6402.148, 2555.263
6404.077, 2550.839
6406.005, 2552.068
6407.934, 2527.156
6409.862, 2483.502
6411.791, 2499.021
6413.719, 2503.031
6415.648, 2507.352
6417.576, 2519.190
6419.505, 2491.462
6421.433, 2453.160
6423.362, 2460.399
6425.290, 2461.069
6427.219, 2424.109
6429.147, 2432.284
6431.076, 2425.546
6433.004, 2422.334
6434.933, 2420.326
6436.861, 2376.433
6438.790, 2393.615
6440.718, 2382.752
6442.646, 2361.764
6444.575, 2340.841
6446.503, 2338.319
6448.432, 2347.521
6450.360, 2331.141
6452.289, 2274.557
6454.217, 2241.940
6456.146, 2242.431
6458.074, 2265.057
6460.002, 2302.944
6461.931, 2328.491
6463.859, 2298.525
6465.788, 2251.070
6467.716, 2223.990
6469.645, 2221.082
6471.573, 2214.159
6473.502, 2213.115
6475.430, 2217.211
6477.359, 2180.372
6479.287, 2185.521
6481.216, 2215.261
6483.144, 2209.748
6485.073, 2149.951
6487.001, 2109.093
6488.930, 2117.526
6490.858, 2111.791
6492.787, 2120.838
6494.715, 2108.661
6496.644, 2093.853
6498.572, 2046.308
6500.500, 2034.839
6502.429, 2058.573
6504.357, 2033.101
6506.286, 2061.132
6508.214, 1978.895
6510.143, 1985.737
6512.071, 2021.291
6514.000, 2038.149
6515.928, 2012.891
6517.856, 1960.113
6519.785, 2009.376
6521.713, 1986.001
6523.642, 1939.556
6525.570, 1927.652
6527.499, 1927.649
6529.427, 1931.633
6531.356, 1938.923
6533.284, 1933.285
6535.213, 1948.954
6537.141, 1932.443
6539.070, 1902.966
6540.998, 1923.441
6542.927, 1933.982
6544.855, 1893.577
6546.784, 1845.253
6548.712, 1888.615
6550.641, 1899.439
6552.569, 1864.713
6554.498, 1833.413
6556.426, 1818.446
6558.354, 1820.976
6560.283, 1819.234
6562.211, 1795.670
6564.140, 1831.537
6566.068, 1805.319
6567.997, 1758.344
6569.925, 1784.284
6571.854, 1793.407
6573.782, 1771.883
6575.710, 1756.448
6577.639, 1713.516
6579.567, 1716.040
6581.496, 1801.685
6583.424, 1759.915
6585.353, 1718.816
6587.281, 1729.463
6589.210, 1737.956
6591.138, 1709.051
6593.067, 1688.690
6594.995, 1678.874
6596.924, 1687.506
6598.852, 1669.219
6600.781, 1658.629
6602.709, 1660.320
6604.638, 1645.846
6606.566, 1619.826
6608.495, 1635.104
6610.423, 1642.987
6612.352, 1638.235
6614.280, 1622.047
6616.208, 1629.456
6618.137, 1625.936
6620.065, 1590.173
6621.994, 1546.532
6623.922, 1540.145
6625.851, 1593.101
6627.779, 1620.000
##END=



