##NAMES=Dolomite
##RRUFFID=R040030
##IDEAL CHEMISTRY=CaMg(CO_3_)_2_
##LOCALITY=Austria
##OWNER=RRUFF
##SOURCE=University of Arizona Mineral Museum
##DESCRIPTION=Group of colorless tabular crystals
##STATUS=The identification of this mineral has been confirmed by X-ray diffraction and chemical analysis
##URL=https://www.rruff.net/odr/rruff_sample/R040030
##MEASURED CHEMISTRY=(Ca_0.99_Mg_0.01_)Mg_1.00_(CO_3_)_2_ ; Trace Mn,  CO_2_ estimated by difference
##DIFFRACTION SAMPLE DESCRIPTION=Powder
##CELL PARAMETERS=a: 4.8079 b: 4.8079 c: 16.0091 alpha: 90 beta: 90 gamma: 120 volume: 320.48 crystal system: hexagonal
##FILETYPE=Raman RAW
##RAMAN WAVELENGTH=780

117.9902, 108.3176
119.9187, 105.5797
121.8472, 105.1304
123.7756, 107.4181
125.7041, 110.1790
127.6326, 118.4247
129.5611, 133.3663
131.4895, 155.5958
133.4180, 187.2020
135.3465, 228.6550
137.2749, 266.5783
139.2034, 302.5403
141.1319, 330.1669
143.0603, 345.0064
144.9888, 351.3647
146.9173, 353.2383
148.8457, 350.6214
150.7742, 352.0586
152.7027, 355.3447
154.6311, 367.0293
156.5596, 388.6262
158.4881, 419.7453
160.4165, 460.6715
162.3450, 510.7031
164.2735, 563.1414
166.2019, 615.8494
168.1304, 673.8040
170.0589, 739.8490
171.9873, 809.4669
173.9158, 891.3934
175.8443, 976.9421
177.7727, 1023.015
179.7012, 1029.380
181.6297, 988.7321
183.5581, 876.3793
185.4866, 744.5739
187.4151, 607.6749
189.3435, 475.1813
191.2720, 366.8548
193.2005, 286.6566
195.1289, 223.0333
197.0574, 178.5076
198.9859, 145.3498
200.9143, 124.9266
202.8428, 111.7641
204.7713, 101.8277
206.6997, 95.22807
208.6282, 90.50075
210.5567, 87.96586
212.4851, 85.99718
214.4136, 83.94728
216.3421, 82.64552
218.2705, 82.84998
220.1990, 84.17612
222.1275, 85.32936
224.0559, 86.27444
225.9844, 87.45647
227.9129, 89.31908
229.8413, 90.73830
231.7698, 90.70455
233.6983, 90.33571
235.6267, 91.06856
237.5552, 92.90134
239.4837, 95.04657
241.4121, 97.12235
243.3406, 100.7903
245.2691, 105.2733
247.1975, 112.8563
249.1260, 124.1534
251.0545, 139.9420
252.9829, 161.7137
254.9114, 189.1169
256.8399, 224.4821
258.7683, 272.2498
260.6968, 321.8626
262.6253, 375.0794
264.5537, 424.5515
266.4822, 462.3529
268.4107, 489.4118
270.3391, 508.0798
272.2676, 516.1866
274.1961, 525.4165
276.1245, 532.1005
278.0530, 547.6995
279.9815, 576.4713
281.9099, 617.9688
283.8384, 672.4912
285.7669, 738.7036
287.6953, 809.5109
289.6238, 885.3068
291.5523, 964.1016
293.4807, 1046.913
295.4092, 1130.725
297.3377, 1228.566
299.2661, 1318.794
301.1946, 1375.268
303.1231, 1398.634
305.0515, 1369.345
306.9800, 1263.312
308.9085, 1134.661
310.8369, 969.8182
312.7654, 804.3317
314.6939, 656.0563
316.6223, 526.6154
318.5508, 422.0971
320.4793, 344.5886
322.4077, 284.3695
324.3362, 244.8467
326.2647, 215.1217
328.1931, 196.2300
330.1216, 183.5142
332.0501, 175.0075
333.9785, 169.7853
335.9070, 166.3033
337.8355, 164.9951
339.7639, 163.2990
341.6924, 162.6947
343.6209, 158.4801
345.5493, 148.0228
347.4778, 135.2888
349.4063, 121.4040
351.3347, 107.6522
353.2632, 96.52687
355.1917, 88.21091
357.1201, 81.86995
359.0486, 77.91737
360.9771, 74.20923
362.9055, 69.91858
364.8340, 66.32474
366.7625, 64.09182
368.6909, 62.68638
370.6194, 61.61338
372.5479, 60.90700
374.4763, 60.10603
376.4048, 59.14379
378.3333, 58.35280
380.2617, 57.87680
382.1902, 57.50102
384.1187, 57.31321
386.0471, 56.99027
387.9756, 56.14384
389.9041, 54.88519
391.8326, 53.65151
393.7610, 52.45257
395.6895, 51.70435
397.6180, 51.67171
399.5464, 51.61049
401.4749, 51.26763
403.4034, 50.88097
405.3318, 50.60163
407.2603, 50.44818
409.1888, 50.38701
411.1172, 50.33677
413.0457, 50.04286
414.9742, 49.39038
416.9026, 48.93110
418.8311, 48.86638
420.7596, 48.85897
422.6880, 48.92564
424.6165, 48.91609
426.5450, 48.57250
428.4734, 47.99048
430.4019, 47.43220
432.3304, 46.90378
434.2588, 46.46659
436.1873, 45.97292
438.1158, 45.87325
440.0442, 46.65833
441.9727, 47.26120
443.9012, 47.09615
445.8296, 46.57732
447.7581, 45.96033
449.6866, 45.32029
451.6150, 45.05157
453.5435, 45.32010
455.4720, 45.41368
457.4004, 45.12389
459.3289, 44.93564
461.2574, 45.12844
463.1858, 45.20545
465.1143, 44.70922
467.0428, 44.11098
468.9712, 43.94979
470.8997, 44.15607
472.8282, 44.26371
474.7566, 44.19238
476.6851, 44.27090
478.6136, 44.77524
480.5420, 44.86472
482.4705, 43.94907
484.3990, 43.06517
486.3274, 42.94437
488.2559, 43.09919
490.1844, 43.11201
492.1128, 42.97778
494.0413, 42.67313
495.9698, 42.17423
497.8982, 41.73428
499.8267, 41.31878
501.7552, 41.04587
503.6836, 40.95388
505.6121, 41.03965
507.5406, 41.49326
509.4690, 41.85626
511.3975, 41.73979
513.3260, 41.41045
515.2545, 41.26583
517.1829, 41.24823
519.1114, 41.20676
521.0399, 41.14488
522.9683, 41.21796
524.8968, 41.57915
526.8253, 41.72505
528.7537, 41.10583
530.6822, 40.73422
532.6107, 41.47963
534.5391, 42.47945
536.4676, 42.49405
538.3961, 41.95319
540.3245, 42.21111
542.2530, 43.16732
544.1815, 43.63541
546.1099, 43.36696
548.0384, 43.17938
549.9669, 43.49133
551.8953, 43.56300
553.8238, 43.08067
555.7523, 42.43125
557.6807, 41.77456
559.6092, 41.19644
561.5377, 40.75563
563.4661, 40.41151
565.3946, 40.27647
567.3231, 40.38028
569.2515, 40.15955
571.1800, 39.27380
573.1085, 38.72370
575.0369, 38.71873
576.9654, 38.94648
578.8939, 39.56041
580.8223, 40.04797
582.7508, 40.10291
584.6793, 39.88809
586.6077, 39.48083
588.5362, 39.01199
590.4647, 38.75273
592.3931, 38.70000
594.3216, 38.64191
596.2501, 38.70031
598.1785, 38.46311
600.1070, 37.62405
602.0355, 37.07778
603.9639, 37.17578
605.8924, 37.31272
607.8209, 37.14486
609.7493, 36.93011
611.6778, 36.97516
613.6063, 37.09551
615.5347, 36.84023
617.4632, 36.30564
619.3917, 36.30408
621.3201, 36.99503
623.2486, 37.12080
625.1771, 36.49007
627.1055, 36.09039
629.0340, 36.09699
630.9625, 36.18115
632.8909, 36.20959
634.8194, 36.34660
636.7479, 36.79145
638.6763, 37.28173
640.6048, 37.66655
642.5333, 37.85649
644.4617, 37.62760
646.3902, 37.11774
648.3187, 37.05228
650.2471, 37.44452
652.1756, 37.57258
654.1041, 37.36753
656.0325, 37.62387
657.9610, 38.54989
659.8895, 39.48227
661.8179, 40.34417
663.7464, 41.12729
665.6749, 41.59127
667.6033, 42.11699
669.5318, 42.97421
671.4603, 44.08602
673.3887, 45.21449
675.3172, 46.60489
677.2457, 48.59119
679.1741, 51.27443
681.1026, 55.10628
683.0311, 60.06583
684.9595, 66.09023
686.8880, 73.30507
688.8165, 81.26490
690.7449, 90.97982
692.6734, 98.92815
694.6019, 103.9974
696.5303, 108.1582
698.4588, 111.5509
700.3873, 114.7927
702.3157, 117.8038
704.2442, 121.2870
706.1727, 125.4506
708.1011, 130.8463
710.0296, 138.9564
711.9581, 148.8267
713.8865, 157.8255
715.8150, 165.9702
717.7435, 174.1857
719.6719, 182.7647
721.6004, 189.8232
723.5289, 196.1538
725.4573, 199.4439
727.3858, 200.9159
729.3143, 196.4084
731.2427, 183.7846
733.1712, 167.7048
735.0997, 147.8166
737.0281, 127.7705
738.9566, 109.0789
740.8851, 92.46769
742.8135, 78.22617
744.7420, 66.57127
746.6705, 57.96334
748.5989, 51.86841
750.5274, 47.55347
752.4559, 44.90293
754.3843, 42.79530
756.3128, 41.11206
758.2413, 39.84107
760.1697, 39.10680
762.0982, 38.41331
764.0267, 37.71854
765.9551, 37.08442
767.8836, 36.51913
769.8121, 36.03823
771.7405, 35.60929
773.6690, 35.33249
775.5975, 35.43984
777.5259, 35.42352
779.4544, 34.65474
781.3829, 34.19124
783.3113, 35.16015
785.2398, 36.22237
787.1683, 36.00086
789.0967, 35.31048
791.0252, 35.12996
792.9537, 35.35477
794.8821, 35.54424
796.8106, 35.84378
798.7391, 37.36241
800.6675, 39.43677
802.5960, 38.69061
804.5245, 35.39338
806.4529, 34.21128
808.3814, 35.65308
810.3099, 36.47588
812.2383, 36.17831
814.1668, 35.89391
816.0953, 35.70595
818.0237, 35.63825
819.9522, 35.88465
821.8807, 36.01355
823.8091, 35.91529
825.7376, 35.75527
827.6661, 35.32325
829.5945, 35.03551
831.5230, 35.36123
833.4515, 35.77665
835.3799, 35.82111
837.3084, 35.81502
839.2369, 35.95457
841.1653, 36.16696
843.0938, 36.58148
845.0223, 37.14793
846.9507, 37.70724
848.8792, 38.19666
850.8077, 38.51634
852.7361, 38.70654
854.6646, 38.84282
856.5931, 38.90893
858.5215, 38.85747
860.4500, 38.66642
862.3785, 38.58181
864.3069, 38.55402
866.2354, 38.90274
868.1639, 39.75071
870.0923, 40.48187
872.0208, 41.04182
873.9493, 41.69505
875.8777, 42.51822
877.8062, 43.25198
879.7347, 43.95448
881.6631, 44.25030
883.5916, 43.91744
885.5201, 43.44717
887.4485, 43.24488
889.3770, 42.43480
891.3055, 40.15414
893.2339, 37.94569
895.1624, 36.58274
897.0909, 35.52809
899.0193, 34.59238
900.9478, 33.81652
902.8763, 33.21197
904.8047, 32.75223
906.7332, 32.39756
908.6617, 32.05740
910.5901, 31.78649
912.5186, 31.68213
914.4471, 31.74002
916.3755, 31.73987
918.3040, 31.43811
920.2325, 31.07627
922.1609, 30.94352
924.0894, 30.91415
926.0179, 30.94889
927.9464, 31.12068
929.8748, 31.38806
931.8033, 31.57231
933.7318, 31.35738
935.6602, 30.96169
937.5887, 30.80222
939.5172, 30.81191
941.4456, 31.08252
943.3741, 31.57851
945.3026, 31.67172
947.2310, 31.35162
949.1595, 31.35952
951.0880, 31.77289
953.0164, 31.60124
954.9449, 30.63880
956.8734, 30.39695
958.8018, 31.15808
960.7303, 31.66416
962.6588, 31.77720
964.5872, 31.84279
966.5157, 31.85927
968.4442, 32.02791
970.3726, 32.55494
972.3011, 32.49591
974.2296, 31.51835
976.1580, 30.94194
978.0865, 30.88545
980.0150, 31.12057
981.9434, 31.69950
983.8719, 32.14442
985.8004, 32.39133
987.7288, 32.71453
989.6573, 33.24529
991.5858, 33.45104
993.5142, 33.03997
995.4427, 33.11554
997.3712, 33.99835
999.2996, 34.83238
1001.228, 35.46334
1003.157, 36.07231
1005.085, 36.75490
1007.013, 37.06231
1008.942, 36.70391
1010.870, 36.86254
1012.799, 37.81632
1014.727, 38.91199
1016.656, 40.28147
1018.584, 41.31596
1020.513, 41.55186
1022.441, 42.12046
1024.370, 43.23229
1026.298, 44.87384
1028.227, 47.27734
1030.155, 49.61259
1032.084, 51.53269
1034.012, 53.88963
1035.941, 56.54919
1037.869, 60.10234
1039.797, 64.89910
1041.726, 70.37283
1043.654, 76.17508
1045.583, 83.06531
1047.511, 90.71311
1049.440, 100.3003
1051.368, 111.0804
1053.297, 125.6199
1055.225, 140.8344
1057.154, 166.2289
1059.082, 196.6836
1061.011, 250.3725
1062.939, 338.7018
1064.868, 437.3449
1066.796, 556.8323
1068.724, 658.0412
1070.653, 734.8956
1072.581, 790.5280
1074.510, 811.2381
1076.438, 840.0472
1078.367, 868.8104
1080.295, 932.3682
1082.224, 1037.667
1084.152, 1176.189
1086.081, 1363.032
1088.009, 1542.945
1089.938, 1722.953
1091.866, 1860.564
1093.795, 1945.093
1095.723, 2006.781
1097.651, 2058.269
1099.580, 2062.055
1101.508, 2020.295
1103.437, 1885.982
1105.365, 1639.195
1107.294, 1376.885
1109.222, 1096.287
1111.151, 855.4788
1113.079, 658.4282
1115.008, 492.8344
1116.936, 359.8171
1118.865, 257.0555
1120.793, 185.0491
1122.722, 133.5806
1124.650, 102.3799
1126.578, 79.59185
1128.507, 65.01454
1130.435, 55.18095
1132.364, 49.42222
1134.292, 44.78848
1136.221, 41.18198
1138.149, 38.32579
1140.078, 36.22645
1142.006, 34.51215
1143.935, 33.08866
1145.863, 32.03022
1147.792, 31.18462
1149.720, 30.32987
1151.649, 29.46898
1153.577, 28.65599
1155.505, 28.05119
1157.434, 27.64183
1159.362, 27.34815
1161.291, 27.22848
1163.219, 27.05088
1165.148, 26.50625
1167.076, 25.94844
1169.005, 25.81518
1170.933, 25.86631
1172.862, 25.82191
1174.790, 25.66677
1176.719, 25.51752
1178.647, 25.33194
1180.576, 24.87667
1182.504, 24.71452
1184.432, 25.39760
1186.361, 25.71276
1188.289, 25.04086
1190.218, 24.47435
1192.146, 24.19747
1194.075, 24.24448
1196.003, 24.81638
1197.932, 25.14498
1199.860, 25.06970
1201.789, 24.84476
1203.717, 24.63537
1205.646, 24.47048
1207.574, 24.22429
1209.503, 24.27664
1211.431, 24.59052
1213.359, 24.75700
1215.288, 24.82811
1217.216, 24.74669
1219.145, 24.48400
1221.073, 24.36856
1223.002, 24.42299
1224.930, 24.22516
1226.859, 23.97076
1228.787, 24.11129
1230.716, 24.34209
1232.644, 24.36544
1234.573, 24.25337
1236.501, 24.14766
1238.430, 24.13417
1240.358, 24.05084
1242.286, 24.00803
1244.215, 24.20136
1246.143, 24.09215
1248.072, 23.48007
1250.000, 23.14117
1251.929, 23.22201
1253.857, 23.32107
1255.786, 23.42244
1257.714, 23.77541
1259.643, 24.24557
1261.571, 23.98739
1263.500, 23.22730
1265.428, 22.94703
1267.357, 22.99081
1269.285, 23.11555
1271.214, 23.33224
1273.142, 23.41562
1275.070, 23.18421
1276.999, 22.49550
1278.927, 22.09546
1280.856, 22.57304
1282.784, 23.02312
1284.713, 22.95586
1286.641, 22.94412
1288.570, 23.27629
1290.498, 23.47912
1292.427, 23.32949
1294.355, 23.30904
1296.284, 23.52148
1298.212, 23.68794
1300.141, 23.86867
1302.069, 23.83805
1303.997, 23.57383
1305.926, 23.37412
1307.854, 23.23387
1309.783, 23.39944
1311.711, 23.70135
1313.640, 23.53478
1315.568, 23.23701
1317.497, 23.08371
1319.425, 23.10415
1321.354, 23.68724
1323.282, 24.10181
1325.211, 23.86063
1327.139, 23.69516
1329.068, 23.88774
1330.996, 24.01619
1332.924, 23.89082
1334.853, 23.80520
1336.781, 23.95032
1338.710, 24.06762
1340.638, 24.06745
1342.567, 24.08813
1344.495, 24.06053
1346.424, 23.77566
1348.352, 23.37584
1350.281, 23.32479
1352.209, 23.44066
1354.138, 23.19932
1356.066, 22.95034
1357.995, 23.12738
1359.923, 23.46628
1361.851, 24.00132
1363.780, 24.22243
1365.708, 23.86528
1367.637, 23.58201
1369.565, 23.45225
1371.494, 23.58435
1373.422, 23.84772
1375.351, 23.64920
1377.279, 23.33432
1379.208, 23.64115
1381.136, 24.03018
1383.065, 23.94081
1384.993, 23.77702
1386.922, 23.51001
1388.850, 23.45317
1390.778, 24.20779
1392.707, 24.73428
1394.635, 24.46701
1396.564, 24.38640
1398.492, 24.62071
1400.421, 24.80971
1402.349, 25.08492
1404.278, 25.75496
1406.206, 26.71761
1408.135, 27.83730
1410.063, 29.16241
1411.992, 30.96028
1413.920, 32.84040
1415.849, 34.23645
1417.777, 35.46149
1419.705, 36.74267
1421.634, 37.80270
1423.562, 38.71690
1425.491, 39.92832
1427.419, 41.29175
1429.348, 43.11379
1431.276, 45.61742
1433.205, 48.76180
1435.133, 52.40886
1437.062, 55.47047
1438.990, 57.69781
1440.919, 58.43956
1442.847, 58.55143
1444.776, 59.31746
1446.704, 59.41613
1448.632, 57.87378
1450.561, 54.56660
1452.489, 49.57028
1454.418, 44.77010
1456.346, 40.61012
1458.275, 37.04011
1460.203, 33.91705
1462.132, 31.52278
1464.060, 29.76805
1465.989, 27.78820
1467.917, 25.92139
1469.846, 24.92388
1471.774, 24.15530
1473.703, 22.90237
1475.631, 22.02891
1477.559, 22.04978
1479.488, 22.07311
1481.416, 22.01950
1483.345, 21.69984
1485.273, 21.18695
1487.202, 21.04793
1489.130, 21.06141
1491.059, 20.76319
1492.987, 20.48716
1494.916, 20.70198
1496.844, 20.88140
1498.773, 20.71646
1500.701, 20.44406
1502.630, 20.06293
1504.558, 19.93587
1506.486, 19.99773
1508.415, 20.23914
1510.343, 20.53206
1512.272, 20.81457
1514.200, 20.95323
1516.129, 20.28256
1518.057, 19.75066
1519.986, 20.01527
1521.914, 20.27257
1523.843, 20.14446
1525.771, 19.94490
1527.700, 19.93889
1529.628, 20.08741
1531.557, 20.25056
1533.485, 20.22569
1535.413, 20.19816
1537.342, 20.37848
1539.270, 20.53232
1541.199, 20.62393
1543.127, 20.44321
1545.056, 20.03963
1546.984, 20.02118
1548.913, 20.19371
1550.841, 20.15681
1552.770, 20.13791
1554.698, 20.06531
1556.627, 20.00793
1558.555, 20.21349
1560.484, 20.58857
1562.412, 20.74759
1564.340, 20.57155
1566.269, 20.48512
1568.197, 20.42260
1570.126, 20.29814
1572.054, 20.37905
1573.983, 20.51563
1575.911, 20.28243
1577.840, 20.14326
1579.768, 20.35250
1581.697, 20.17038
1583.625, 19.82549
1585.554, 19.93443
1587.482, 20.11794
1589.411, 20.26003
1591.339, 20.66104
1593.267, 21.04880
1595.196, 21.06001
1597.124, 20.82243
1599.053, 20.54281
1600.981, 20.28440
1602.910, 20.28487
1604.838, 20.46616
1606.767, 20.44760
1608.695, 20.29476
1610.624, 20.11057
1612.552, 20.06569
1614.481, 20.08982
1616.409, 19.97587
1618.338, 19.99436
1620.266, 19.97144
1622.194, 19.64805
1624.123, 19.38953
1626.051, 19.23790
1627.980, 19.47329
1629.908, 19.83242
1631.837, 19.81639
1633.765, 19.61152
1635.694, 19.49131
1637.622, 19.53010
1639.551, 19.56132
1641.479, 19.44236
1643.408, 19.33566
1645.336, 19.23027
1647.265, 18.97430
1649.193, 19.10172
1651.121, 19.29658
1653.050, 19.29874
1654.978, 19.14129
1656.907, 18.83216
1658.835, 18.83788
1660.764, 18.98281
1662.692, 19.13990
1664.621, 19.02266
1666.549, 18.56633
1668.478, 18.35052
1670.406, 18.79383
1672.335, 19.12130
1674.263, 18.88027
1676.192, 18.83193
1678.120, 19.44903
1680.048, 22.95524
1681.977, 26.26782
1683.905, 26.37900
1685.834, 26.32591
1687.762, 26.69508
1689.691, 27.49871
1691.619, 29.02100
1693.548, 26.95138
1695.476, 23.04350
1697.405, 20.45765
1699.333, 19.01145
1701.262, 18.90594
1703.190, 18.87842
1705.119, 18.51628
1707.047, 18.72237
1708.975, 19.40434
1710.904, 19.40400
1712.832, 18.96881
1714.761, 18.71820
1716.689, 18.68851
1718.618, 18.71439
1720.546, 18.88851
1722.475, 19.36895
1724.403, 20.48143
1726.332, 21.93180
1728.260, 23.31083
1730.189, 25.03575
1732.117, 27.48521
1734.046, 29.58147
1735.974, 31.33185
1737.902, 33.25750
1739.831, 34.65809
1741.759, 35.75942
1743.688, 38.35831
1745.616, 42.70858
1747.545, 47.69495
1749.473, 53.35734
1751.402, 58.06497
1753.330, 61.97435
1755.259, 64.52349
1757.187, 65.42393
1759.116, 65.11750
1761.044, 63.43609
1762.973, 60.19047
1764.901, 55.83351
1766.829, 50.97752
1768.758, 45.68728
1770.686, 40.36740
1772.615, 35.87900
1774.543, 32.35786
1776.472, 29.24865
1778.400, 26.52139
1780.329, 24.21702
1782.257, 22.30929
1784.186, 20.83699
1786.114, 20.09255
1788.043, 19.64082
1789.971, 19.29961
1791.900, 18.73487
1793.828, 17.93921
1795.756, 17.55956
1797.685, 17.37770
1799.613, 17.14642
1801.542, 17.17674
1803.470, 17.25724
1805.399, 17.20660
1807.327, 17.25733
1809.256, 17.03474
1811.184, 16.84218
1813.113, 16.94581
1815.041, 16.92734
1816.970, 16.79557
1818.898, 16.91019
1820.827, 17.13584
1822.755, 16.67685
1824.683, 16.06734
1826.612, 16.25995
1828.540, 16.52336
1830.469, 16.36144
1832.397, 16.14980
1834.326, 15.95218
1836.254, 15.83826
1838.183, 15.74940
1840.111, 15.57769
1842.040, 15.59516
1843.968, 15.81379
1845.897, 15.76864
1847.825, 15.42238
1849.754, 15.10545
1851.682, 15.02558
1853.610, 15.16107
1855.539, 15.18610
1857.467, 15.15993
1859.396, 15.02726
1861.324, 14.86629
1863.253, 14.81224
1865.181, 14.49920
1867.110, 14.12231
1869.038, 14.20776
1870.967, 14.38522
1872.895, 14.31452
1874.824, 14.36012
1876.752, 14.48401
1878.681, 14.36773
1880.609, 14.17227
1882.537, 14.31248
1884.466, 14.35624
1886.394, 14.03311
1888.323, 13.82044
1890.251, 13.73811
1892.180, 13.75629
1894.108, 13.64769
1896.037, 13.64670
1897.965, 13.77281
1899.894, 13.71277
1901.822, 13.72380
1903.751, 13.66531
1905.679, 13.51575
1907.608, 13.59097
1909.536, 13.84978
1911.464, 13.70517
1913.393, 13.43951
1915.321, 13.49859
1917.250, 13.47615
1919.178, 13.56454
1921.107, 13.67678
1923.035, 13.32440
1924.964, 13.16592
1926.892, 13.27263
1928.821, 13.41961
1930.749, 13.59002
1932.678, 13.47254
1934.606, 13.21517
1936.535, 12.92181
1938.463, 13.01276
1940.391, 13.28769
1942.320, 13.16283
1944.248, 12.96672
1946.177, 12.97848
1948.105, 13.02988
1950.034, 13.13658
1951.962, 12.81897
1953.891, 12.35005
1955.819, 12.64166
1957.748, 12.94903
1959.676, 12.78000
1961.605, 12.33934
1963.533, 12.07285
1965.462, 12.62425
1967.390, 12.84297
1969.318, 12.57754
1971.247, 12.54643
1973.175, 12.49048
1975.104, 12.31283
1977.032, 12.27880
1978.961, 12.56377
1980.889, 12.61100
1982.818, 12.34908
1984.746, 12.39222
1986.675, 12.35906
1988.603, 12.13692
1990.532, 12.11130
1992.460, 12.10253
1994.389, 12.21127
1996.317, 12.24860
1998.245, 12.02322
2000.174, 11.66801
2002.102, 11.43112
2004.031, 11.34679
2005.959, 11.31779
2007.888, 11.64677
2009.816, 11.83000
2011.745, 11.82425
2013.673, 11.76303
2015.602, 11.39040
2017.530, 11.13741
2019.459, 11.25449
2021.387, 11.40318
2023.316, 11.17910
2025.244, 11.11978
2027.172, 11.22539
2029.101, 11.25119
2031.029, 11.16557
2032.958, 10.99384
2034.886, 10.79402
2036.815, 10.64570
2038.743, 10.59221
2040.672, 10.64261
2042.600, 10.86733
2044.529, 11.13504
2046.457, 10.81429
2048.386, 10.56178
2050.314, 10.88101
2052.243, 11.14973
2054.171, 11.16983
2056.100, 10.98225
2058.028, 10.69652
2059.957, 10.32882
2061.885, 10.46025
2063.813, 10.78528
2065.742, 10.74766
2067.670, 10.70011
2069.599, 10.53094
2071.527, 10.32214
2073.456, 10.17348
2075.384, 10.10894
2077.313, 10.19028
2079.241, 10.28125
2081.170, 10.39979
2083.098, 10.37749
2085.027, 10.21542
2086.955, 10.08599
2088.884, 9.872598
2090.812, 9.792520
2092.740, 9.888312
2094.669, 10.28051
2096.597, 10.31860
2098.526, 9.716920
2100.454, 9.691729
2102.383, 10.03165
2104.311, 10.08475
2106.240, 9.956129
2108.168, 9.758383
2110.097, 9.815592
2112.025, 9.896261
2113.954, 9.976087
2115.882, 10.24272
2117.811, 10.61799
2119.739, 10.51312
2121.667, 10.31044
2123.596, 10.21947
2125.524, 10.04652
2127.453, 9.968611
2129.381, 10.02392
2131.310, 10.09813
2133.238, 10.28145
2135.167, 10.30783
2137.095, 10.22965
2139.024, 10.30675
2140.952, 10.46434
2142.881, 10.69629
2144.809, 11.00813
2146.738, 11.15355
2148.666, 11.17696
2150.594, 11.17389
2152.523, 10.96297
2154.451, 10.82574
2156.380, 10.80512
2158.308, 11.02785
2160.237, 11.09609
2162.165, 10.93915
2164.094, 11.11432
2166.022, 11.32342
2167.951, 11.14595
2169.879, 11.13309
2171.808, 11.11202
2173.736, 10.93586
2175.665, 10.97544
2177.593, 11.28211
2179.521, 11.30681
2181.450, 11.30300
2183.378, 11.24645
2185.307, 11.06792
2187.235, 10.85315
2189.164, 10.60136
2191.092, 10.53747
2193.021, 10.45643
2194.949, 10.54179
2196.878, 10.79755
2198.806, 10.72879
2200.735, 10.46684
2202.663, 10.17455
2204.592, 10.10902
2206.520, 10.11603
2208.448, 9.970311
2210.377, 9.799611
2212.305, 9.749346
2214.234, 9.417803
2216.162, 9.047902
2218.091, 9.140430
2220.019, 9.107587
2221.948, 8.805108
2223.876, 8.917274
2225.805, 9.086088
2227.733, 9.033595
2229.662, 8.869493
2231.590, 8.715879
2233.519, 8.814732
2235.447, 8.807527
2237.375, 8.788514
2239.304, 8.614886
2241.232, 8.396456
2243.161, 8.494026
2245.089, 8.589500
2247.018, 8.580808
2248.946, 8.671526
2250.875, 8.696204
2252.803, 8.423407
2254.732, 8.338761
2256.660, 8.345967
2258.589, 8.380478
2260.517, 8.125194
2262.446, 7.817498
2264.374, 8.049973
2266.302, 8.110546
2268.231, 8.077827
2270.159, 8.203821
2272.088, 8.150733
2274.016, 7.972674
2275.945, 7.980478
2277.873, 8.002982
2279.802, 7.821008
2281.730, 7.625812
2283.659, 7.475562
2285.587, 7.610618
2287.516, 7.885148
2289.444, 7.777081
2291.373, 7.604509
2293.301, 7.468246
2295.229, 7.781641
2297.158, 7.975375
2299.086, 7.619986
2301.015, 7.505265
2302.943, 7.508700
2304.872, 6.929380
2306.800, 7.228409
2308.729, 7.964808
2310.657, 7.466725
2312.586, 6.947353
2314.514, 6.992995
2316.443, 7.172495
2318.371, 7.351405
2320.300, 6.966288
2322.228, 7.119688
2324.156, 7.660140
2326.085, 7.688030
2328.013, 7.568325
2329.942, 7.230372
2331.870, 7.189135
2333.799, 7.311447
2335.727, 7.261544
2337.656, 7.264999
2339.584, 7.194547
2341.513, 6.763374
2343.441, 6.495766
2345.370, 6.432004
2347.298, 6.845516
2349.227, 7.256637
2351.155, 7.235011
2353.083, 7.101767
2355.012, 6.995223
2356.940, 6.808098
2358.869, 6.752894
2360.797, 6.732965
2362.726, 6.617585
2364.654, 6.527741
2366.583, 6.507785
2368.511, 6.559680
2370.440, 6.546464
2372.368, 6.555986
2374.297, 6.777807
2376.225, 6.807630
2378.154, 6.204041
2380.082, 6.117023
2382.010, 6.359429
2383.939, 6.327944
2385.867, 6.570058
2387.796, 6.793143
2389.724, 6.672615
2391.653, 6.541078
2393.581, 6.385195
2395.510, 6.159532
2397.438, 6.012449
2399.367, 6.052636
2401.295, 6.040123
2403.224, 6.013553
2405.152, 6.102972
2407.081, 6.129539
2409.009, 6.118512
2410.938, 6.140738
2412.866, 6.133742
2414.794, 6.011507
2416.723, 6.080656
2418.651, 6.334392
2420.580, 6.263453
2422.508, 6.249211
2424.437, 6.266953
2426.365, 6.168344
2428.294, 5.910370
2430.222, 5.670875
2432.151, 5.768165
2434.079, 5.741916
2436.008, 5.622201
2437.936, 5.956810
2439.865, 6.084420
2441.793, 5.692422
2443.721, 5.642861
2445.650, 5.693202
2447.578, 5.641624
2449.507, 5.690627
2451.435, 5.563174
2453.364, 5.330283
2455.292, 5.414699
2457.221, 5.606157
2459.149, 5.502021
2461.078, 5.588378
2463.006, 5.738866
2464.935, 5.557679
2466.863, 5.503053
2468.792, 5.530270
2470.720, 5.379003
2472.648, 5.244655
2474.577, 5.253341
2476.505, 5.133080
2478.434, 5.114706
2480.362, 5.410811
2482.291, 5.334270
2484.219, 5.241680
2486.148, 5.504785
2488.076, 5.446404
2490.005, 5.248612
2491.933, 4.897718
2493.862, 4.755807
2495.790, 4.856149
2497.719, 5.071476
2499.647, 5.120429
2501.575, 4.963579
2503.504, 4.679106
2505.432, 4.830851
2507.361, 5.165786
2509.289, 4.897206
2511.218, 4.785758
2513.146, 4.966338
2515.075, 5.108335
2517.003, 5.007314
2518.932, 4.532852
2520.860, 4.853495
2522.789, 5.191978
2524.717, 5.065020
2526.646, 5.043498
2528.574, 4.940878
2530.502, 4.654650
2532.431, 4.588277
2534.359, 4.641876
2536.288, 4.912002
2538.216, 4.904221
2540.145, 4.781788
2542.073, 4.657963
2544.002, 4.588177
2545.930, 4.496774
2547.859, 4.590950
2549.787, 4.809928
2551.716, 4.846477
2553.644, 4.334146
2555.573, 4.411708
2557.501, 4.926852
2559.429, 4.677171
2561.358, 4.697504
2563.286, 4.920614
2565.215, 4.605747
2567.143, 4.232393
2569.072, 4.229274
2571.000, 4.514123
2572.929, 4.614180
2574.857, 4.697968
2576.786, 4.722585
2578.714, 4.673351
2580.643, 4.576423
2582.571, 4.168310
2584.500, 4.052437
2586.428, 4.343600
2588.356, 4.223274
2590.285, 4.179295
2592.213, 4.263795
2594.142, 4.276704
2596.070, 4.271043
2597.999, 4.551192
2599.927, 4.119746
2601.856, 3.679271
2603.784, 5.404326
2605.713, 6.544665
2607.641, 4.582974
2609.570, 4.175459
2611.498, 4.005391
2613.427, 3.908416
2615.355, 4.203499
2617.283, 4.047297
2619.212, 4.122945
2621.140, 4.244525
2623.069, 4.057198
2624.997, 4.112465
2626.926, 4.139039
2628.854, 4.312888
2630.783, 4.341343
2632.711, 3.900780
2634.640, 3.454956
2636.568, 3.585222
2638.497, 4.041945
2640.425, 4.150941
2642.354, 3.954127
2644.282, 3.572875
2646.210, 3.949821
2648.139, 4.291179
2650.067, 4.190319
2651.996, 3.755966
2653.924, 3.525602
2655.853, 3.644481
2657.781, 3.864660
2659.710, 3.749747
2661.638, 3.401140
2663.567, 3.651997
2665.495, 3.632610
2667.424, 3.442170
2669.352, 3.563332
2671.281, 3.489241
2673.209, 3.491410
2675.137, 3.348705
2677.066, 3.308956
2678.994, 3.549336
2680.923, 3.379757
2682.851, 3.022147
2684.780, 2.890983
2686.708, 3.549011
2688.637, 3.682369
2690.565, 3.521437
2692.494, 3.424437
2694.422, 3.642113
2696.351, 3.955791
2698.279, 3.877678
2700.208, 3.419820
2702.136, 3.263396
2704.064, 3.702594
2705.993, 3.303031
2707.921, 2.772475
2709.850, 2.935490
2711.778, 3.023248
2713.707, 3.217522
2715.635, 3.663680
2717.564, 3.215892
2719.492, 2.862427
2721.421, 2.881910
2723.349, 2.850162
2725.278, 3.076294
2727.206, 3.314791
2729.135, 3.246908
2731.063, 3.284074
2732.991, 3.215392
2734.920, 3.177255
2736.848, 3.096841
2738.777, 2.999049
2740.705, 2.739296
2742.634, 2.845990
2744.562, 2.955197
2746.491, 2.694337
2748.419, 2.662884
2750.348, 2.921609
2752.276, 3.497315
2754.205, 3.372979
2756.133, 2.977212
2758.062, 2.667566
2759.990, 2.554218
2761.918, 2.527271
2763.847, 2.786031
2765.775, 2.984416
2767.704, 2.628400
2769.632, 2.360246
2771.561, 2.480873
2773.489, 2.747593
2775.418, 2.897346
2777.346, 2.604597
2779.275, 2.851979
2781.203, 2.875093
2783.132, 2.738070
2785.060, 2.873516
2786.989, 3.038418
2788.917, 2.819612
2790.845, 2.454720
2792.774, 2.394624
2794.702, 2.422502
2796.631, 2.605276
2798.559, 2.865226
2800.488, 2.904877
2802.416, 2.541927
2804.345, 2.433860
2806.273, 2.466778
2808.202, 2.533390
2810.130, 2.489463
2812.059, 2.507068
2813.987, 2.809110
2815.916, 2.555421
2817.844, 2.423725
2819.772, 2.538580
2821.701, 2.384509
2823.629, 2.561755
2825.558, 2.632599
2827.486, 2.095834
2829.415, 2.270861
2831.343, 2.419946
2833.272, 2.491249
2835.200, 2.670061
2837.129, 2.630315
2839.057, 2.518566
2840.986, 2.134840
2842.914, 2.161843
2844.843, 2.481118
2846.771, 2.315232
2848.699, 2.405757
2850.628, 2.352236
2852.556, 1.989908
2854.485, 2.235207
2856.413, 2.000691
2858.342, 1.592288
2860.270, 2.319457
2862.199, 2.442633
2864.127, 2.236257
2866.056, 2.374018
2867.984, 2.041015
2869.913, 1.782883
2871.841, 1.926463
2873.770, 1.898581
2875.698, 1.955055
2877.626, 2.033840
2879.555, 2.005457
2881.483, 1.969290
2883.412, 1.864571
2885.340, 1.971545
2887.269, 2.169873
2889.197, 2.115550
2891.126, 2.144263
2893.054, 1.822188
2894.983, 1.859204
2896.911, 2.101517
2898.840, 1.898422
2900.768, 1.917553
2902.697, 2.052015
2904.625, 1.968009
2906.553, 2.000323
2908.482, 2.000687
2910.410, 1.919405
2912.339, 1.699566
2914.267, 1.784154
2916.196, 1.991001
2918.124, 1.965321
2920.053, 1.944992
2921.981, 1.876451
2923.910, 1.847674
2925.838, 1.961967
2927.767, 1.825542
2929.695, 1.570784
2931.624, 1.622949
2933.552, 1.620404
2935.480, 1.578749
2937.409, 1.592949
2939.337, 1.507872
2941.266, 1.735879
2943.194, 1.990185
2945.123, 1.693932
2947.051, 2.046770
2948.980, 2.289579
2950.908, 1.602947
2952.837, 1.611459
2954.765, 1.558563
2956.694, 1.522993
2958.622, 1.598355
2960.551, 1.687969
2962.479, 1.793393
2964.407, 1.503441
2966.336, 1.570786
2968.264, 1.658187
2970.193, 1.701134
2972.121, 1.521059
2974.050, 1.670473
2975.978, 1.876059
2977.907, 2.139346
2979.835, 1.605585
2981.764, 1.263767
2983.692, 1.314530
2985.621, 1.716675
2987.549, 1.752369
2989.478, 1.614194
2991.406, 1.641817
2993.334, 1.308017
2995.263, 1.472021
2997.191, 1.813617
2999.120, 1.616747
3001.048, 1.462645
3002.977, 1.446754
3004.905, 1.550179
3006.834, 1.631898
3008.762, 1.266000
3010.691, 0.9046674
3012.619, 1.493467
3014.548, 1.152017
3016.476, 1.126259
3018.405, 1.500486
3020.333, 1.586290
3022.261, 1.740775
3024.190, 1.711607
3026.118, 1.483680
3028.047, 1.075689
3029.975, 1.125383
3031.904, 1.571348
3033.832, 1.234563
3035.761, 1.401137
3037.689, 1.724009
3039.618, 1.616550
3041.546, 1.162354
3043.475, 1.121961
3045.403, 1.401585
3047.332, 1.478503
3049.260, 1.228292
3051.188, 1.184422
3053.117, 1.165624
3055.045, 0.7544390
3056.974, 1.274966
3058.902, 1.660277
3060.831, 1.318555
3062.759, 1.268671
3064.688, 1.068316
3066.616, 1.016914
3068.545, 1.113051
3070.473, 1.266462
3072.402, 1.361569
3074.330, 1.207552
3076.259, 1.067921
3078.187, 1.128531
3080.115, 1.421180
3082.044, 1.736083
3083.972, 1.421254
3085.901, 1.389925
3087.829, 1.312777
3089.758, 1.229661
3091.686, 1.327887
3093.615, 1.273760
3095.543, 1.159669
3097.472, 1.011125
3099.400, 1.077967
3101.329, 1.406425
3103.257, 1.704983
3105.186, 1.050691
3107.114, 1.146991
3109.042, 1.323752
3110.971, 1.299032
3112.899, 1.837020
3114.828, 1.556378
3116.756, 1.181149
3118.685, 1.103507
3120.613, 1.517883
3122.542, 1.137697
3124.470, 0.7199810
3126.399, 1.000565
3128.327, 1.367260
3130.256, 1.203618
3132.184, 0.9380909
3134.113, 1.255432
3136.041, 1.193675
3137.969, 0.9138206
3139.898, 0.8241988
3141.826, 0.9372775
3143.755, 1.167286
3145.683, 1.236780
3147.612, 1.233573
3149.540, 0.8824403
3151.469, 0.8364813
3153.397, 1.137507
3155.326, 1.312529
3157.254, 1.477412
3159.183, 1.451995
3161.111, 1.087154
3163.040, 0.6633466
3164.968, 0.7130958
3166.896, 1.058722
3168.825, 1.225943
3170.753, 1.300773
3172.682, 0.7415354
3174.610, 0.9140797
3176.539, 1.098775
3178.467, 0.9042389
3180.396, 1.356502
3182.324, 0.9071757
3184.253, 0.7302282
3186.181, 1.185967
3188.110, 0.5685387
3190.038, 0.9804343
3191.967, 1.279510
3193.895, 0.8579092
3195.823, 0.7230332
3197.752, 0.8950288
3199.680, 0.7890884
3201.609, 0.4296807
3203.537, 0.8182033
3205.466, 0.7090615
3207.394, 0.3199884
3209.323, 0.1480768
3211.251, 0.8585479
3213.180, 0.5882365
3215.108, 0.6060050
3217.037, 1.138627
3218.965, 0.8420079
3220.894, 0.5446175
3222.822, 0.2591329
3224.750, 0.1968362
3226.679, 1.024131
3228.607, 1.235837
3230.536, 0.8765200
3232.464, 0.5287551
3234.393, 0.7389368
3236.321, 0.6815163
3238.250, 0.6858940
3240.178, 0.8293673
3242.107, 0.5117449
3244.035, 0.5141819
3245.964, 0.8386822
3247.892, 1.099310
3249.821, 0.8691031
3251.749, 1.115869
3253.677, 0.8797819
3255.606, 0.5678095
3257.534, 0.8694713
3259.463, 1.299724
3261.391, 1.037740
3263.320, 0.5497426
3265.248, 0.3325005
3267.177, 0.6932846
3269.105, 0.9388922
3271.034, 0.9557648
3272.962, 0.7105199
3274.891, 0.5371416
3276.819, 1.062764
3278.748, 1.223096
3280.676, 0.9054458
3282.604, 1.286868
3284.533, 1.325430
3286.461, 0.9821828
3288.390, 0.7029875
3290.318, 0.6819171
3292.247, 0.6774808
3294.175, 0.8230917
3296.104, 0.9124658
3298.032, 0.6456672
3299.961, 0.6774946
3301.889, 1.023892
3303.818, 0.8925004
3305.746, 0.1874320
3307.675, 0.6429085
3309.603, 0.5839057
3311.531, 0.4302226
3313.460, 0.5525807
3315.388, 0.9670492
3317.317, 1.247014
3319.245, 1.186749
3321.174, 0.9357216
3323.102, 0.6153799
3325.031, 1.332933
3326.959, 1.344233
3328.888, 0.8953242
3330.816, 0.5089556
3332.745, 1.130735
3334.673, 0.9415010
3336.602, 1.068330
3338.530, 1.410096
3340.458, 1.203885
3342.387, 0.8909394
3344.315, 1.154558
3346.244, 1.122657
3348.172, 0.4172891
3350.101, 1.121017
3352.029, 1.080964
3353.958, 0.8627824
3355.886, 0.9046811
3357.815, 1.113669
3359.743, 0.7519142
3361.672, 0.7711558
3363.600, 0.7083797
3365.529, 0.2257770
3367.457, 0.9173004
3369.385, 0.8789949
3371.314, 0.7033018
3373.242, 0.7918589
3375.171, 1.237046
3377.099, 0.8080864
3379.028, 0.8014545
3380.956, 1.000066
3382.885, 0.9709080
3384.813, 0.7314696
3386.742, 0.8490725
3388.670, 0.8240793
3390.599, 0.6261998
3392.527, 0.7788083
3394.456, 1.265093
3396.384, 0.6013964
3398.313, 0.4024816
3400.241, 1.378117
3402.169, 0.8618480
3404.098, 0.4542025
3406.026, 0.2065824
3407.955, 0.3945185
3409.883, 1.308112
3411.812, 0.8076070
3413.740, 0.6526623
3415.669, 0.9305911
3417.597, 1.248017
3419.526, 1.018820
3421.454, 0.7183023
3423.383, 0.9747971
3425.311, 0.9273084
3427.240, 0.2715690
3429.168, 0.7240411
3431.096, 0.9164895
3433.025, 0.8253670
3434.953, 0.8192363
3436.882, 1.137798
3438.810, 0.8087797
3440.739, 0.6700634
3442.667, 0.6175522
3444.596, 0.5947719
3446.524, 0.7015046
3448.453, 0.6212639
3450.381, 0.6413769
3452.310, 0.5774267
3454.238, 0.4737524
3456.167, 0.7851058
3458.095, 0.9026103
3460.023, -9.6946463E-02
3461.952, -0.2749254
3463.880, 0.9804975
3465.809, 0.8170695
3467.737, 0.3427026
3469.666, -0.2840268
3471.594, -0.2647024
3473.523, 0.5634391
3475.451, 0.4548462
3477.380, 0.3540967
3479.308, 0.1314836
3481.237, 0.1353087
3483.165, 0.5756361
3485.094, 0.6947287
3487.022, 0.8687419
3488.950, 0.5709859
3490.879, 0.2557324
3492.807, 0.4765769
3494.736, 0.8312778
3496.664, 0.5212471
3498.593, 0.1622526
3500.521, 0.2028142
3502.450, 0.6440856
3504.378, 0.6871809
3506.307, 0.6620570
3508.235, 0.5281222
3510.164, 0.6601988
3512.092, 1.098571
3514.021, 0.1983014
3515.949, 3.7649781E-02
3517.877, 0.2054958
3519.806, 0.4561590
3521.734, 0.6867896
3523.663, 0.6825212
3525.591, 0.3756735
3527.520, 0.7132529
3529.448, 0.8454545
3531.377, 0.2625254
3533.305, 0.2729445
3535.234, 0.8800675
3537.162, 0.5381182
3539.091, 0.2930001
3541.019, 0.7317262
3542.948, 0.9321430
3544.876, 1.204348
3546.804, 0.6110617
3548.733, 0.4367590
3550.661, 0.6163822
3552.590, -0.1093882
3554.518, 0.7964479
3556.447, 1.394421
3558.375, 0.9048799
3560.304, 0.3396450
3562.232, 0.9158088
3564.161, 1.109642
3566.089, 0.8671256
3568.018, 0.5845253
3569.946, 0.6294571
3571.875, 0.9365931
3573.803, 0.6440532
3575.731, 0.6773129
3577.660, 0.4873966
3579.588, 0.1950968
3581.517, 0.2877972
3583.445, 1.276790
3585.374, 1.272506
3587.302, 0.8132603
3589.231, 0.4286107
3591.159, 0.5029221
3593.088, 1.097944
3595.016, 1.444730
3596.945, 0.6063845
3598.873, 0.5626599
3600.802, 0.6336166
3602.730, 0.4746413
3604.658, 1.242950
3606.587, 0.8947133
3608.515, 0.7788421
3610.444, 0.9123667
3612.372, 0.8091625
3614.301, 0.3235787
3616.229, 0.8393949
3618.158, 0.4077891
3620.086, 1.086074
3622.015, 1.526477
3623.943, 1.108086
3625.872, 0.9904225
3627.800, 1.260030
3629.729, 0.9613415
3631.657, 1.030879
3633.585, 1.167948
3635.514, 0.8496728
3637.442, 0.4736395
3639.371, 0.8057672
3641.299, 0.4942588
3643.228, 0.2535226
3645.156, 0.3793887
3647.085, 0.5249457
3649.013, 0.2333345
3650.942, 0.6307015
3652.870, 0.5807649
3654.799, 0.8043723
3656.727, 1.247880
3658.656, 0.8360655
3660.584, 0.9401237
3662.512, 0.5959889
3664.441, 0.6421331
3666.369, 0.9223466
3668.298, 1.125319
3670.226, 1.240215
3672.155, 0.9956046
3674.083, 0.9083076
3676.012, 0.7327569
3677.940, 0.6310842
3679.869, 0.6381446
3681.797, 0.4792441
3683.726, 0.7036330
3685.654, 0.3870376
3687.583, 0.5317639
3689.511, 0.8470820
3691.439, 0.7870392
3693.368, 0.4446485
3695.296, 0.4420975
3697.225, 0.1703710
3699.153, 4.9105130E-02
3701.082, 0.3767816
3703.010, 0.6896167
3704.939, 0.1389773
3706.867, 0.7275935
3708.796, 0.1373508
3710.724, 0.1086875
3712.653, 0.2079084
3714.581, 6.1423428E-02
3716.510, 0.2589770
3718.438, 1.020740
3720.366, 0.4588470
3722.295, 0.5247057
3724.223, 0.2874728
3726.152, -0.2180611
3728.080, 4.6204060E-02
3730.009, 0.4294515
3731.937, 0.4754219
3733.866, 0.2640449
3735.794, -4.3954171E-02
3737.723, 0.2903705
3739.651, 1.033661
3741.580, 0.2030456
3743.508, 0.2636960
3745.437, 0.9803709
3747.365, 1.108003
3749.293, 0.7410177
3751.222, 0.5051635
3753.150, 0.6351646
3755.079, 0.2663617
3757.007, 0.4920615
3758.936, 0.1139091
3760.864, 1.0670450E-03
3762.793, 0.2494929
3764.721, 0.3841695
3766.650, 0.4214224
3768.578, 0.7839940
3770.507, 0.3715281
3772.435, 0.2725183
3774.364, 0.2805139
3776.292, 0.2903368
3778.220, 0.6425682
3780.149, 0.4877589
3782.077, 0.7587126
3784.006, 0.6857893
3785.934, 0.1584241
3787.863, 0.4132907
3789.791, 0.9925715
3791.720, -0.4094560
3793.648, 1.7700430E-02
3795.577, 0.1860012
3797.505, 0.1667755
3799.434, 9.0623423E-02
3801.362, 8.3188146E-02
3803.291, 0.1790098
3805.219, 0.3291419
3807.147, 1.218696
3809.076, 0.7179388
3811.004, 5.7262499E-02
3812.933, -0.2991926
3814.861, 0.1416559
3816.790, 0.8171920
3818.718, 8.5410364E-03
3820.647, -3.7235081E-02
3822.575, 0.2626838
3824.504, -0.1296888
3826.432, 0.1934284
3828.361, 0.7145332
3830.289, 0.4318038
3832.218, -0.3048575
3834.146, 0.4393148
3836.074, -0.2127635
3838.003, 0.6312096
3839.931, 0.5726214
3841.860, 0.4327751
3843.788, 0.9153466
3845.717, 0.4230742
3847.645, 5.1185891E-02
3849.574, 0.6279257
3851.502, 0.2231672
3853.431, 0.3998798
3855.359, 0.6202638
3857.288, 0.3640436
3859.216, 0.2540208
3861.145, 0.8290461
3863.073, 0.2153175
3865.001, 0.4841805
3866.930, 0.7778562
3868.858, 0.9558480
3870.787, 0.8848040
3872.715, 0.3758718
3874.644, -0.3191760
3876.572, -0.1021750
3878.501, -9.6220613E-02
3880.429, 0.1879736
3882.358, -0.2210958
3884.286, -0.2314930
3886.215, 7.1218953E-02
3888.143, 9.1610573E-02
3890.072, 0.7161406
3892.000, 1.134637
3893.928, 0.1240458
3895.857, 0.1075941
3897.785, 0.5216600
3899.714, 0.5386764
3901.642, 0.4078959
3903.571, 0.5242146
3905.499, 0.3186078
3907.428, 0.1265703
3909.356, 0.2621386
3911.285, 0.6488400
3913.213, 0.5136509
3915.142, 0.3640476
3917.070, 0.2708446
3918.999, 0.1389387
3920.927, 0.7320455
3922.855, 0.6915454
3924.784, 0.2573467
3926.712, 0.4014577
3928.641, 0.4869253
3930.569, 0.6509780
3932.498, 0.5065976
3934.426, 0.1493001
3936.355, 0.5214059
3938.283, -1.7795321E-02
3940.212, 0.1336609
3942.140, 0.2592701
3944.069, 0.4756582
3945.997, 0.6471198
3947.926, 0.5724298
3949.854, 0.3611137
3951.782, 0.3421068
3953.711, 0.6844765
3955.639, 0.2150563
3957.568, 0.6268538
3959.496, 0.1667073
3961.425, 0.8267671
3963.353, 0.8523543
3965.282, 0.3334503
3967.210, 0.3741291
3969.139, 0.6373912
3971.067, 0.6213007
3972.996, 0.4337952
3974.924, 0.8635453
3976.853, 0.8121935
3978.781, 0.6160706
3980.709, 0.5113317
3982.638, 0.4893284
3984.566, 0.5886174
3986.495, 0.2790329
3988.423, 0.4677666
3990.352, 0.1884142
3992.280, 0.2350274
3994.209, -0.2806856
3996.137, 0.7409362
3998.066, -1.6504001E-02
3999.994, -8.9682728E-02
4001.923, 0.5318463
4003.851, 0.6943979
4005.780, 0.5981250
4007.708, 0.6438454
4009.636, 0.1534848
4011.565, 0.4956515
4013.493, 0.2865480
4015.422, -0.2274892
4017.350, 0.2837841
4019.279, 0.3974787
4021.207, 0.1810866
4023.136, 5.5345140E-02
4025.064, -1.2227460E-02
4026.993, -0.1573839
4028.921, -0.3142430
4030.850, 0.3195038
4032.778, 0.2821285
4034.707, -0.1879286
4036.635, -0.3520709
4038.563, 9.5197991E-02
4040.492, 0.1103601
4042.420, -2.6562359E-02
4044.349, 0.1264513
4046.277, 7.5670153E-02
4048.206, 0.7010450
4050.134, -3.3877209E-02
4052.063, -8.3104439E-02
4053.991, 0.5710170
4055.920, -0.3977889
4057.848, 0.1033208
4059.777, 0.5264259
4061.705, 0.2446705
4063.634, 0.2753088
4065.562, 0.4910545
4067.490, 0.8430747
4069.419, 0.5709879
4071.347, 0.3398235
4073.276, -0.1061243
4075.204, 0.3009063
4077.133, 0.5370849
4079.061, 0.7395373
4080.990, 0.5769757
4082.918, 0.2822356
4084.847, 0.4378361
4086.775, 0.5866581
4088.704, 8.7150097E-02
4090.632, 0.3694693
4092.561, 0.2432728
4094.489, 5.6351639E-02
4096.417, 0.3550037
4098.346, 0.3373400
4100.274, 0.3673272
4102.203, -1.3950850E-02
4104.131, -8.0860361E-02
4106.060, 0.4892488
4107.988, 0.3331507
4109.917, 0.4587413
4111.845, 0.7669003
4113.774, 0.7895841
4115.702, 0.2347105
4117.631, -0.1867418
4119.559, 0.1205120
4121.488, 0.4101184
4123.416, 0.4468783
4125.345, 0.3734708
4127.273, 0.1983052
4129.202, 1.1992200E-02
4131.130, 6.9315732E-03
4133.059, -0.2054886
4134.987, -0.9629847
4136.916, 0.6383512
4138.844, -0.1822275
4140.772, -0.2801187
4142.701, 0.3540356
4144.629, 0.1508284
4146.558, 0.5737527
4148.486, 0.7931669
4150.415, 0.5815228
4152.343, 0.7669581
4154.271, 0.8622967
4156.200, 0.7351533
4158.128, 0.3807710
4160.057, -0.4449768
4161.985, 0.3948245
4163.914, 0.3801802
4165.842, 0.8273508
4167.771, 0.4112588
4169.699, -0.3260972
4171.628, -0.3659505
4173.556, -0.2557274
4175.485, 2.3154860E-02
4177.413, 0.2434763
4179.342, -0.1848653
4181.270, -0.4596978
4183.199, -0.4139853
4185.127, -0.6581097
4187.056, -0.3766631
4188.984, -0.3024862
4190.913, -1.7644711E-02
4192.841, -0.2477723
4194.770, -0.8414954
4196.698, 6.5317743E-02
4198.626, 0.4636249
4200.555, 0.3892773
4202.483, 0.1490664
4204.412, -9.0785913E-02
4206.340, -3.7475880E-02
4208.269, -1.1318400E-02
4210.197, 0.3327565
4212.125, 0.3428042
4214.054, 0.1147229
4215.982, -0.5311211
4217.911, 0.2281007
4219.839, 6.5665902E-03
4221.768, 0.5921642
4223.696, -0.3060963
4225.625, -0.2074053
4227.553, 0.2248105
4229.482, 2.3045169E-02
4231.410, 0.3288973
4233.339, 0.1744333
4235.267, -0.1387289
4237.196, 0.1711625
4239.124, -0.2119432
4241.053, 0.2387345
4242.981, 0.5485174
4244.910, -0.2502638
4246.838, 0.2905021
4248.767, 0.3001034
4250.695, 4.2775940E-02
4252.624, -6.8167611E-03
4254.552, 2.8820621E-02
4256.480, 0.2109941
4258.409, 0.2642019
4260.337, 0.2157805
4262.266, 0.9900109
4264.194, 0.1662004
4266.123, -0.1851156
4268.051, 5.2139629E-02
4269.979, -2.5177490E-02
4271.908, 0.4125367
4273.836, -2.6136801E-02
4275.765, -0.2674361
4277.693, 0.3252574
4279.622, 0.2600789
4281.550, 2.2177070E-02
4283.479, 0.4895853
4285.407, -0.3330695
4287.336, -9.8366991E-02
4289.264, -0.3108833
4291.193, -0.2488629
4293.121, 0.3524892
4295.050, 0.2664233
4296.978, 0.4605437
4298.907, -0.2759090
4300.835, -0.3102354
4302.764, -1.2124770E-02
4304.692, -0.4255438
4306.621, 2.3352630E-02
4308.549, 0.4245730
4310.478, 5.7867959E-02
4312.406, 0.2399502
4314.334, 0.2581229
4316.263, -1.5270810E-02
4318.191, -0.3047468
4320.120, 0.1567232
4322.048, 0.5518583
4323.977, 0.2295343
4325.905, -0.1083654
4327.833, -0.3573064
4329.762, 9.9078372E-02
4331.690, 0.8244444
4333.619, 0.8052489
4335.547, 2.9167719E-03
4337.476, -1.3377930E-02
4339.404, 0.2974201
4341.333, 0.6866404
##END=



