##NAMES=Dussertite
##RRUFFID=R070486
##IDEAL CHEMISTRY=BaFe^3+^_3_(AsO_4_)(AsO_3_OH)(OH)_6_
##LOCALITY=Clara mine, Rankach Valley, Oberwolfach, Wolfach, Black Forest, Baden-Württemberg, Germany
##OWNER=RRUFF
##SOURCE=Bob Jenkins
##DESCRIPTION=Light green hexagonal plates lining vug associated with quartz and pharmacosiderite
##STATUS=The identification of this mineral has been confirmed by single-crystal X-ray diffraction
##URL=https://www.rruff.net/odr/rruff_sample/R070486
##DIFFRACTION SAMPLE DESCRIPTION=Single crystal, powder profile is calculated
##CELL PARAMETERS=a: 7.405 b: 7.405 c: 17.459 alpha: 90 beta: 90 gamma: 120 volume: 829.2 crystal system: hexagonal
##FILETYPE=Raman RAW
##RAMAN WAVELENGTH=785

112.4785, 1624.710
114.4070, 2048.950
116.3354, 2657.111
118.2639, 3600.669
120.1924, 4885.259
122.1208, 6419.446
124.0493, 8409.831
125.9778, 10361.18
127.9063, 12407.90
129.8347, 14179.56
131.7632, 15334.53
133.6917, 15903.36
135.6201, 15997.77
137.5486, 15304.74
139.4771, 14645.10
141.4055, 14070.56
143.3340, 13601.02
145.2625, 13286.12
147.1909, 13096.76
149.1194, 12974.62
151.0479, 12889.99
152.9763, 13033.27
154.9048, 13277.68
156.8333, 13815.75
158.7617, 14204.12
160.6902, 14822.57
162.6187, 15825.52
164.5471, 17187.69
166.4756, 18933.33
168.4041, 21047.24
170.3325, 23428.53
172.2610, 26078.85
174.1895, 28956.47
176.1179, 32097.87
178.0464, 35358.76
179.9749, 38733.90
181.9033, 42192.29
183.8318, 45512.06
185.7603, 48797.41
187.6887, 51487.73
189.6172, 53593.59
191.5457, 54779.37
193.4741, 54745.04
195.4026, 53849.67
197.3311, 52389.32
199.2595, 50466.54
201.1880, 48445.86
203.1165, 46509.57
205.0449, 44203.84
206.9734, 41378.42
208.9019, 38484.18
210.8303, 35525.82
212.7588, 32679.05
214.6873, 30131.59
216.6157, 27829.52
218.5442, 25787.93
220.4727, 23997.92
222.4011, 22423.05
224.3296, 20996.04
226.2581, 19782.39
228.1865, 18825.82
230.1150, 18105.08
232.0435, 17578.10
233.9719, 17235.99
235.9004, 17042.76
237.8289, 17042.60
239.7573, 17091.99
241.6858, 17205.26
243.6143, 17359.63
245.5427, 17557.19
247.4712, 17769.19
249.3997, 17993.45
251.3281, 18215.46
253.2566, 18382.91
255.1851, 18487.40
257.1135, 18567.92
259.0420, 18599.77
260.9705, 18638.67
262.8989, 18726.65
264.8274, 18823.53
266.7559, 18886.72
268.6843, 18949.72
270.6128, 19052.25
272.5413, 19187.58
274.4697, 19389.84
276.3982, 19678.60
278.3267, 19983.77
280.2551, 20292.51
282.1836, 20600.31
284.1121, 20900.41
286.0405, 21195.79
287.9690, 21534.52
289.8975, 21883.80
291.8259, 22119.01
293.7544, 22226.03
295.6829, 22250.70
297.6113, 22196.82
299.5398, 22032.73
301.4683, 21753.52
303.3967, 21381.15
305.3252, 20915.47
307.2537, 20353.79
309.1821, 19687.22
311.1106, 18927.62
313.0391, 18158.24
314.9675, 17385.84
316.8960, 16611.96
318.8245, 15818.18
320.7529, 15046.39
322.6814, 14297.71
324.6099, 13602.26
326.5383, 12978.54
328.4668, 12416.07
330.3953, 11905.47
332.3237, 11450.01
334.2522, 11066.86
336.1807, 10755.67
338.1091, 10490.90
340.0376, 10270.60
341.9661, 10094.90
343.8945, 9963.649
345.8230, 9873.238
347.7515, 9820.922
349.6799, 9801.621
351.6084, 9803.190
353.5369, 9832.980
355.4653, 9890.126
357.3938, 9981.065
359.3223, 10067.29
361.2507, 10125.26
363.1792, 10195.00
365.1077, 10306.96
367.0361, 10430.27
368.9646, 10524.36
370.8931, 10594.97
372.8215, 10679.94
374.7500, 10778.21
376.6785, 10901.44
378.6069, 11035.15
380.5354, 11236.77
382.4639, 11494.89
384.3923, 11850.07
386.3208, 12342.56
388.2493, 12919.77
390.1777, 13531.89
392.1062, 14178.85
394.0347, 14879.46
395.9631, 15634.57
397.8916, 16347.24
399.8201, 17048.09
401.7485, 17615.33
403.6770, 18051.93
405.6055, 18343.88
407.5339, 18482.54
409.4624, 18473.98
411.3909, 18289.18
413.3193, 17971.75
415.2478, 17574.13
417.1763, 17093.98
419.1047, 16533.77
421.0332, 15858.89
422.9617, 15176.17
424.8901, 14451.00
426.8186, 13799.39
428.7471, 13273.89
430.6755, 12801.42
432.6040, 12317.23
434.5325, 11880.39
436.4609, 11543.62
438.3894, 11307.09
440.3179, 11134.61
442.2463, 11028.27
444.1748, 11015.32
446.1033, 11076.82
448.0317, 11268.56
449.9602, 11627.14
451.8887, 12057.50
453.8171, 12494.09
455.7456, 13028.72
457.6741, 13760.48
459.6025, 14564.14
461.5310, 15327.84
463.4595, 16069.96
465.3879, 16835.31
467.3164, 17607.74
469.2449, 18219.44
471.1733, 18690.97
473.1018, 18941.30
475.0303, 18935.49
476.9587, 18714.29
478.8872, 18242.39
480.8157, 17591.41
482.7441, 16781.68
484.6726, 15868.99
486.6011, 14962.05
488.5295, 14015.42
490.4580, 13055.95
492.3865, 12106.46
494.3149, 11235.11
496.2434, 10452.56
498.1719, 9727.378
500.1003, 9038.932
502.0288, 8448.050
503.9573, 7957.957
505.8857, 7522.990
507.8142, 7138.555
509.7427, 6822.480
511.6711, 6576.325
513.5996, 6379.811
515.5281, 6219.569
517.4565, 6098.069
519.3850, 6015.118
521.3135, 5970.186
523.2419, 5964.398
525.1704, 6003.478
527.0989, 6057.632
529.0273, 6119.869
530.9558, 6226.770
532.8843, 6390.726
534.8127, 6580.051
536.7412, 6784.082
538.6697, 7005.627
540.5981, 7245.183
542.5266, 7493.827
544.4551, 7756.427
546.3835, 8035.823
548.3120, 8326.817
550.2405, 8626.097
552.1689, 8910.056
554.0974, 9170.436
556.0259, 9387.713
557.9543, 9567.298
559.8828, 9692.600
561.8113, 9747.337
563.7397, 9727.991
565.6682, 9625.646
567.5967, 9495.532
569.5251, 9342.128
571.4536, 9114.564
573.3821, 8825.516
575.3105, 8493.539
577.2390, 8113.220
579.1675, 7718.610
581.0959, 7355.451
583.0244, 7009.953
584.9529, 6664.567
586.8813, 6327.304
588.8098, 6006.721
590.7383, 5700.248
592.6667, 5413.032
594.5952, 5135.926
596.5237, 4901.983
598.4521, 4717.541
600.3806, 4540.642
602.3091, 4361.117
604.2375, 4211.428
606.1660, 4094.450
608.0945, 3985.926
610.0229, 3880.457
611.9514, 3789.437
613.8799, 3716.214
615.8083, 3658.120
617.7368, 3617.374
619.6653, 3586.884
621.5938, 3549.857
623.5222, 3514.459
625.4507, 3495.794
627.3792, 3483.875
629.3076, 3465.229
631.2361, 3442.868
633.1646, 3436.186
635.0930, 3459.765
637.0215, 3501.387
638.9500, 3542.911
640.8784, 3566.930
642.8069, 3578.464
644.7354, 3607.105
646.6638, 3651.802
648.5923, 3698.047
650.5208, 3752.272
652.4492, 3816.008
654.3777, 3876.722
656.3062, 3934.277
658.2346, 4001.073
660.1631, 4072.089
662.0916, 4143.222
664.0200, 4241.938
665.9485, 4373.099
667.8770, 4512.995
669.8054, 4681.446
671.7339, 4885.751
673.6624, 5086.249
675.5908, 5264.583
677.5193, 5502.026
679.4478, 5817.511
681.3762, 6175.439
683.3047, 6547.341
685.2332, 6958.228
687.1616, 7437.403
689.0901, 7975.772
691.0186, 8565.001
692.9470, 9215.500
694.8755, 9949.678
696.8040, 10721.40
698.7324, 11498.36
700.6609, 12258.93
702.5894, 13022.83
704.5178, 13765.85
706.4463, 14434.12
708.3748, 14928.36
710.3032, 15283.08
712.2317, 15505.94
714.1602, 15586.34
716.0886, 15514.77
718.0171, 15272.63
719.9456, 14930.51
721.8740, 14497.66
723.8025, 13984.08
725.7310, 13401.93
727.6594, 12780.15
729.5879, 12105.22
731.5164, 11359.69
733.4448, 10655.92
735.3733, 10015.45
737.3018, 9378.117
739.2302, 8742.719
741.1587, 8142.053
743.0872, 7560.464
745.0156, 7029.391
746.9441, 6576.334
748.8726, 6171.813
750.8010, 5796.311
752.7295, 5471.696
754.6580, 5203.141
756.5864, 4980.436
758.5149, 4814.321
760.4434, 4698.397
762.3718, 4623.503
764.3003, 4581.496
766.2288, 4570.300
768.1572, 4610.303
770.0857, 4708.210
772.0142, 4827.413
773.9426, 4960.084
775.8711, 5138.823
777.7996, 5370.758
779.7280, 5630.705
781.6565, 5903.773
783.5850, 6196.633
785.5134, 6536.956
787.4419, 6919.260
789.3704, 7301.885
791.2988, 7694.476
793.2273, 8123.313
795.1558, 8563.974
797.0842, 8987.350
799.0127, 9407.679
800.9412, 9833.709
802.8696, 10262.97
804.7981, 10698.17
806.7266, 11133.83
808.6550, 11541.05
810.5835, 11927.15
812.5120, 12309.60
814.4404, 12685.05
816.3689, 13051.17
818.2974, 13397.15
820.2258, 13761.49
822.1543, 14176.03
824.0828, 14588.02
826.0112, 14962.14
827.9397, 15314.49
829.8682, 15651.91
831.7966, 16013.13
833.7251, 16420.83
835.6536, 16817.56
837.5820, 17172.31
839.5105, 17517.98
841.4390, 17879.52
843.3674, 18234.42
845.2959, 18551.61
847.2244, 18876.04
849.1528, 19266.39
851.0813, 19617.85
853.0098, 19872.01
854.9382, 20071.93
856.8667, 20260.34
858.7952, 20370.99
860.7236, 20356.89
862.6521, 20242.03
864.5806, 20057.81
866.5090, 19761.32
868.4375, 19310.85
870.3660, 18728.06
872.2944, 18016.07
874.2229, 17212.52
876.1514, 16349.10
878.0798, 15439.96
880.0083, 14486.27
881.9368, 13519.46
883.8652, 12570.16
885.7937, 11658.00
887.7222, 10820.42
889.6506, 10043.50
891.5791, 9291.470
893.5076, 8583.610
895.4360, 7965.997
897.3645, 7425.691
899.2930, 6934.012
901.2214, 6484.653
903.1499, 6062.199
905.0784, 5667.344
907.0068, 5301.777
908.9353, 4964.421
910.8638, 4655.010
912.7922, 4374.566
914.7207, 4128.428
916.6492, 3911.832
918.5776, 3715.975
920.5061, 3545.547
922.4346, 3381.389
924.3630, 3219.909
926.2915, 3084.103
928.2200, 2977.136
930.1484, 2886.509
932.0769, 2805.301
934.0054, 2730.638
935.9338, 2673.241
937.8623, 2613.295
939.7908, 2541.537
941.7192, 2486.606
943.6477, 2451.196
945.5762, 2409.278
947.5046, 2360.859
949.4331, 2317.318
951.3616, 2282.100
953.2900, 2252.523
955.2185, 2220.457
957.1470, 2196.307
959.0754, 2187.533
961.0039, 2183.271
962.9324, 2178.999
964.8608, 2165.847
966.7893, 2149.247
968.7178, 2127.264
970.6462, 2098.541
972.5747, 2089.398
974.5032, 2092.754
976.4316, 2093.289
978.3601, 2097.958
980.2886, 2103.071
982.2170, 2108.253
984.1455, 2108.300
986.0740, 2096.672
988.0024, 2092.192
989.9309, 2102.744
991.8594, 2112.870
993.7878, 2123.160
995.7163, 2122.179
997.6448, 2102.773
999.5732, 2090.783
1001.502, 2087.877
1003.430, 2083.106
1005.359, 2081.516
1007.287, 2079.673
1009.216, 2072.410
1011.144, 2068.143
1013.073, 2064.410
1015.001, 2048.369
1016.929, 2029.694
1018.858, 2022.896
1020.786, 2020.009
1022.715, 2008.158
1024.643, 1991.158
1026.572, 1977.909
1028.500, 1967.460
1030.429, 1951.617
1032.357, 1931.475
1034.286, 1922.508
1036.214, 1929.319
1038.143, 1935.131
1040.071, 1930.740
1042.000, 1931.826
1043.928, 1934.497
1045.856, 1919.172
1047.785, 1907.974
1049.713, 1927.606
1051.642, 1952.511
1053.570, 1961.580
1055.499, 1973.013
1057.427, 1979.930
1059.356, 1982.872
1061.284, 2012.344
1063.213, 2050.977
1065.141, 2069.805
1067.070, 2081.521
1068.998, 2099.480
1070.927, 2116.867
1072.855, 2129.460
1074.783, 2141.239
1076.712, 2155.785
1078.640, 2169.732
1080.569, 2181.132
1082.497, 2186.090
1084.426, 2178.038
1086.354, 2160.198
1088.283, 2141.503
1090.211, 2136.791
1092.140, 2144.572
1094.068, 2141.182
1095.997, 2122.578
1097.925, 2104.259
1099.854, 2085.277
1101.782, 2067.481
1103.710, 2062.942
1105.639, 2054.463
1107.567, 2024.059
1109.496, 1996.709
1111.424, 1981.631
1113.353, 1971.351
1115.281, 1972.770
1117.210, 1951.453
1119.138, 1897.703
1121.067, 1870.395
1122.995, 1870.732
1124.924, 1846.345
1126.852, 1809.447
1128.781, 1788.014
1130.709, 1765.177
1132.637, 1736.015
1134.566, 1713.567
1136.494, 1721.027
1138.423, 1746.224
1140.351, 1743.654
1142.280, 1721.860
1144.208, 1716.718
1146.137, 1716.754
1148.065, 1690.141
1149.994, 1661.444
1151.922, 1664.510
1153.851, 1670.330
1155.779, 1655.623
1157.708, 1643.576
1159.636, 1649.643
1161.564, 1648.650
1163.493, 1623.793
1165.421, 1608.185
1167.350, 1620.570
1169.278, 1627.197
1171.207, 1616.686
1173.135, 1613.466
1175.064, 1617.499
1176.992, 1607.992
1178.921, 1587.411
1180.849, 1578.387
1182.778, 1580.728
1184.706, 1588.396
1186.635, 1601.097
1188.563, 1604.522
1190.491, 1598.592
1192.420, 1586.859
1194.348, 1572.931
1196.277, 1563.518
1198.205, 1560.089
1200.134, 1564.015
1202.062, 1568.998
1203.991, 1569.455
1205.919, 1570.598
1207.848, 1590.293
1209.776, 1605.777
1211.705, 1579.257
1213.633, 1561.104
1215.562, 1584.667
1217.490, 1605.226
1219.418, 1608.555
1221.347, 1603.181
1223.275, 1591.312
1225.204, 1589.374
1227.132, 1596.643
1229.061, 1597.842
1230.989, 1594.436
1232.918, 1591.741
1234.846, 1587.614
1236.775, 1579.076
1238.703, 1567.906
1240.632, 1553.459
1242.560, 1537.724
1244.489, 1521.796
1246.417, 1509.472
1248.345, 1507.776
1250.274, 1513.414
1252.202, 1531.845
1254.131, 1538.955
1256.059, 1512.180
1257.988, 1490.245
1259.916, 1487.076
1261.845, 1486.400
1263.773, 1488.532
1265.702, 1481.528
1267.630, 1463.858
1269.559, 1457.538
1271.487, 1461.620
1273.416, 1462.361
1275.344, 1460.549
1277.272, 1459.884
1279.201, 1458.824
1281.129, 1450.831
1283.058, 1442.580
1284.986, 1444.750
1286.915, 1446.162
1288.843, 1436.187
1290.772, 1427.822
1292.700, 1427.507
1294.629, 1429.816
1296.557, 1436.280
1298.486, 1437.576
1300.414, 1430.340
1302.343, 1429.126
1304.271, 1434.721
1306.199, 1422.354
1308.128, 1398.219
1310.056, 1400.808
1311.985, 1415.452
1313.913, 1410.266
1315.842, 1398.647
1317.770, 1391.190
1319.699, 1390.022
1321.627, 1402.608
1323.556, 1408.552
1325.484, 1395.170
1327.413, 1386.433
1329.341, 1388.864
1331.270, 1393.481
1333.198, 1401.309
1335.126, 1395.300
1337.055, 1377.329
1338.983, 1368.144
1340.912, 1367.730
1342.840, 1386.586
1344.769, 1402.962
1346.697, 1377.805
1348.626, 1349.924
1350.554, 1348.478
1352.483, 1346.286
1354.411, 1329.789
1356.340, 1321.879
1358.268, 1329.104
1360.197, 1338.632
1362.125, 1348.929
1364.053, 1346.294
1365.982, 1334.582
1367.910, 1339.250
1369.839, 1350.744
1371.767, 1349.459
1373.696, 1342.120
1375.624, 1333.501
1377.553, 1325.844
1379.481, 1321.714
1381.410, 1315.548
1383.338, 1304.746
1385.267, 1298.171
1387.195, 1297.178
1389.124, 1294.324
1391.052, 1290.575
1392.980, 1300.708
1394.909, 1314.021
1396.837, 1300.955
1398.766, 1282.418
1400.694, 1281.793
1402.623, 1287.287
1404.551, 1296.417
1406.480, 1300.521
1408.408, 1293.981
1410.337, 1298.495
1412.265, 1316.820
1414.194, 1314.246
1416.122, 1295.167
1418.051, 1293.045
1419.979, 1298.286
1421.907, 1288.994
1423.836, 1280.673
1425.764, 1290.136
1427.693, 1302.760
1429.621, 1319.441
1431.550, 1320.451
1433.478, 1298.148
1435.407, 1278.001
1437.335, 1261.407
1439.264, 1255.403
1441.192, 1257.383
1443.121, 1260.477
1445.049, 1264.896
1446.978, 1276.001
1448.906, 1280.522
1450.834, 1262.406
1452.763, 1250.352
1454.691, 1256.240
1456.620, 1261.014
1458.548, 1264.453
1460.477, 1262.117
1462.405, 1254.559
1464.334, 1240.435
1466.262, 1226.641
1468.191, 1224.224
1470.119, 1222.968
1472.048, 1216.517
1473.976, 1209.446
1475.905, 1200.654
1477.833, 1201.488
1479.761, 1214.151
1481.690, 1212.803
1483.618, 1202.541
1485.547, 1199.180
1487.475, 1203.986
1489.404, 1229.204
1491.332, 1245.138
1493.261, 1233.002
1495.189, 1222.073
1497.118, 1220.548
1499.046, 1216.757
1500.975, 1209.825
1502.903, 1197.375
1504.832, 1186.655
1506.760, 1205.009
1508.688, 1222.521
1510.617, 1208.009
1512.545, 1184.520
1514.474, 1152.028
1516.402, 1151.364
1518.331, 1190.601
1520.259, 1197.758
1522.188, 1177.633
1524.116, 1157.616
1526.045, 1145.217
1527.973, 1158.171
1529.902, 1172.002
1531.830, 1169.766
1533.759, 1176.168
1535.687, 1197.874
1537.615, 1199.131
1539.544, 1180.573
1541.472, 1165.556
1543.401, 1156.185
1545.329, 1159.091
1547.258, 1163.673
1549.186, 1160.305
1551.115, 1160.939
1553.043, 1170.965
1554.972, 1166.552
1556.900, 1148.155
1558.829, 1135.182
1560.757, 1128.820
1562.686, 1133.899
1564.614, 1139.461
1566.542, 1138.120
1568.471, 1130.418
1570.399, 1108.339
1572.328, 1119.834
1574.256, 1161.681
1576.185, 1158.487
1578.113, 1134.029
1580.042, 1138.989
1581.970, 1146.559
1583.899, 1134.604
1585.827, 1122.214
1587.756, 1112.496
1589.684, 1112.301
1591.613, 1120.460
1593.541, 1120.650
1595.469, 1114.777
1597.398, 1102.679
1599.326, 1092.630
1601.255, 1086.321
1603.183, 1091.602
1605.112, 1117.333
1607.040, 1128.954
1608.969, 1127.389
1610.897, 1112.158
1612.826, 1094.967
1614.754, 1091.189
1616.683, 1087.838
1618.611, 1077.749
1620.540, 1071.829
1622.468, 1072.571
1624.396, 1061.425
1626.325, 1046.124
1628.253, 1052.263
1630.182, 1060.939
1632.110, 1056.226
1634.039, 1055.896
1635.967, 1068.059
1637.896, 1061.969
1639.824, 1039.870
1641.753, 1032.699
1643.681, 1036.095
1645.610, 1051.057
1647.538, 1060.419
1649.467, 1056.303
1651.395, 1047.995
1653.323, 1037.517
1655.252, 1045.344
1657.180, 1059.217
1659.109, 1044.231
1661.037, 1027.903
1662.966, 1033.426
1664.894, 1033.625
1666.823, 1022.732
1668.751, 1013.393
1670.680, 1006.803
1672.608, 1003.877
1674.537, 1003.214
1676.465, 1007.010
1678.394, 1004.700
1680.322, 992.2998
1682.250, 985.0717
1684.179, 982.8583
1686.107, 976.0959
1688.036, 968.7889
1689.964, 965.1807
1691.893, 965.4064
1693.821, 969.9141
1695.750, 980.4890
1697.678, 993.8621
1699.607, 972.3488
1701.535, 943.6489
1703.464, 954.0756
1705.392, 966.2911
1707.321, 961.0058
1709.249, 949.1039
1711.177, 932.6964
1713.106, 942.9524
1715.034, 958.5665
1716.963, 943.6455
1718.891, 922.6522
1720.820, 902.7472
1722.748, 896.3861
1724.677, 904.1016
1726.605, 917.7946
1728.534, 927.0820
1730.462, 909.4387
1732.391, 893.0544
1734.319, 893.8176
1736.248, 896.4740
1738.176, 899.5239
1740.104, 885.3610
1742.033, 870.9066
1743.961, 887.1673
1745.890, 901.2421
1747.818, 897.2326
1749.747, 892.0856
1751.675, 887.6087
1753.604, 890.7922
1755.532, 893.2970
1757.461, 881.6122
1759.389, 873.8201
1761.318, 878.8775
1763.246, 870.2749
1765.175, 851.9707
1767.103, 857.1828
1769.031, 864.9897
1770.960, 853.2335
1772.888, 842.1646
1774.817, 836.4357
1776.745, 841.9478
1778.674, 852.9133
1780.602, 853.9791
1782.531, 848.2530
1784.459, 834.9254
1786.388, 827.6832
1788.316, 828.8116
1790.245, 837.0253
1792.173, 842.4600
1794.102, 818.9963
1796.030, 802.3096
1797.958, 809.1915
1799.887, 805.6507
1801.815, 792.4922
1803.744, 799.7598
1805.672, 809.9241
1807.601, 801.9312
1809.529, 792.3712
1811.458, 784.8435
1813.386, 774.8675
1815.315, 766.0012
1817.243, 768.5342
1819.172, 774.6171
1821.100, 782.3359
1823.029, 780.7323
1824.957, 771.2382
1826.885, 775.6122
1828.814, 783.0827
1830.742, 777.9590
1832.671, 776.9830
1834.599, 788.7144
1836.528, 772.4496
1838.456, 742.4061
1840.385, 741.4083
1842.313, 747.2654
1844.242, 746.3773
1846.170, 744.8661
1848.099, 743.5781
1850.027, 738.8409
1851.956, 739.8126
1853.884, 770.4756
1855.813, 780.4533
1857.741, 746.9318
1859.669, 728.9893
1861.598, 721.8316
1863.526, 713.3424
1865.455, 709.6654
1867.383, 715.5322
1869.312, 720.5529
1871.240, 723.5410
1873.169, 725.9747
1875.097, 724.3283
1877.026, 713.9044
1878.954, 705.2467
1880.883, 700.7130
1882.811, 712.4036
1884.740, 727.6450
1886.668, 726.3375
1888.596, 721.8821
1890.525, 718.4467
1892.453, 720.4297
1894.382, 724.5247
1896.310, 724.5120
1898.239, 717.7969
1900.167, 700.8792
1902.096, 696.5909
1904.024, 701.4975
1905.953, 687.1484
1907.881, 674.6213
1909.810, 676.7217
1911.738, 682.5526
1913.667, 689.7717
1915.595, 685.9235
1917.523, 680.9461
1919.452, 686.7258
1921.380, 684.6041
1923.309, 673.8522
1925.237, 674.5966
1927.166, 678.2155
1929.094, 676.0941
1931.023, 671.2366
1932.951, 664.3730
1934.880, 659.0540
1936.808, 656.8599
1938.737, 666.6308
1940.665, 668.4783
1942.594, 656.2997
1944.522, 650.4008
1946.450, 647.4937
1948.379, 642.2028
1950.307, 639.2576
1952.236, 636.9681
1954.164, 638.0357
1956.093, 640.8100
1958.021, 634.2158
1959.950, 626.5726
1961.878, 618.2925
1963.807, 624.8524
1965.735, 639.1278
1967.664, 631.7688
1969.592, 622.1328
1971.521, 628.8961
1973.449, 627.5376
1975.377, 615.7911
1977.306, 610.3387
1979.234, 607.4573
1981.163, 598.8999
1983.091, 608.2659
1985.020, 627.6999
1986.948, 619.1003
1988.877, 610.1974
1990.805, 615.2513
1992.734, 613.9299
1994.662, 606.6874
1996.591, 604.1338
1998.519, 605.7125
2000.448, 604.9684
2002.376, 604.2575
2004.304, 606.0890
2006.233, 600.1887
2008.161, 597.2789
2010.090, 598.7127
2012.018, 601.7933
2013.947, 603.3268
2015.875, 580.6141
2017.804, 571.1686
2019.732, 588.6569
2021.661, 587.3448
2023.589, 573.6020
2025.518, 567.7915
2027.446, 571.3749
2029.375, 579.0806
2031.303, 575.2432
2033.231, 566.0767
2035.160, 559.5933
2037.088, 558.2555
2039.017, 558.2017
2040.945, 559.4813
2042.874, 560.8583
2044.802, 556.5815
2046.731, 550.0234
2048.659, 548.7446
2050.588, 550.8605
2052.516, 551.3580
2054.445, 564.0417
2056.373, 552.8605
2058.302, 525.9993
2060.230, 543.6854
2062.158, 558.9236
2064.087, 531.2606
2066.015, 533.3784
2067.944, 549.0807
2069.872, 524.0300
2071.801, 510.6925
2073.729, 537.9562
2075.658, 545.1115
2077.586, 540.1946
2079.515, 531.0373
2081.443, 528.6857
2083.372, 534.4894
2085.300, 518.2449
2087.229, 501.6894
2089.157, 508.1005
2091.085, 511.1339
2093.014, 507.1409
2094.942, 506.7026
2096.871, 505.1870
2098.799, 503.1549
2100.728, 504.8639
2102.656, 506.2604
2104.585, 511.6274
2106.513, 509.1668
2108.442, 493.4960
2110.370, 498.6610
2112.299, 502.1928
2114.227, 478.9364
2116.156, 477.1879
2118.084, 491.7493
2120.012, 490.3493
2121.941, 483.3566
2123.869, 471.9259
2125.798, 473.4714
2127.726, 479.3704
2129.655, 474.2291
2131.583, 471.7222
2133.512, 472.4457
2135.440, 460.6317
2137.369, 450.3348
2139.297, 461.6024
2141.226, 470.6836
2143.154, 471.6498
2145.083, 467.1035
2147.011, 459.9216
2148.939, 449.3307
2150.868, 440.7610
2152.796, 437.3673
2154.725, 445.7621
2156.653, 452.1633
2158.582, 454.5090
2160.510, 442.9580
2162.439, 432.8545
2164.367, 434.4234
2166.296, 428.4059
2168.224, 422.0714
2170.153, 431.3751
2172.081, 431.7809
2174.010, 418.7366
2175.938, 406.5238
2177.866, 401.6169
2179.795, 414.5521
2181.723, 421.6361
2183.652, 421.0257
2185.580, 415.0456
2187.509, 407.1758
2189.437, 397.7065
2191.366, 405.8580
2193.294, 414.6962
2195.223, 407.2027
2197.151, 405.0473
2199.080, 406.5972
2201.008, 392.6459
2202.937, 387.5857
2204.865, 399.2256
2206.793, 402.3778
2208.722, 398.4197
2210.650, 387.3428
2212.579, 383.7321
2214.507, 385.2282
2216.436, 380.9266
2218.364, 381.9439
2220.293, 389.6519
2222.221, 382.7997
2224.150, 374.7103
2226.078, 375.3763
2228.007, 374.4605
2229.935, 373.5745
2231.864, 374.9693
2233.792, 375.9401
2235.720, 377.2335
2237.649, 365.1311
2239.577, 354.6585
2241.506, 356.8797
2243.434, 361.7671
2245.363, 365.9796
2247.291, 366.1965
2249.220, 362.6102
2251.148, 357.2703
2253.077, 349.9627
2255.005, 343.5999
2256.934, 341.3636
2258.862, 336.9668
2260.791, 335.3218
2262.719, 338.6348
2264.647, 342.8996
2266.576, 344.3470
2268.504, 338.1885
2270.433, 338.6099
2272.361, 346.7750
2274.290, 341.2291
2276.218, 332.5784
2278.147, 331.9703
2280.075, 331.5046
2282.004, 332.2010
2283.932, 329.9319
2285.861, 324.2174
2287.789, 321.2402
2289.718, 327.6413
2291.646, 327.9667
2293.574, 321.0695
2295.503, 321.6601
2297.431, 320.9886
2299.360, 310.4680
2301.288, 309.1598
2303.217, 313.2004
2305.145, 305.4812
2307.074, 302.0570
2309.002, 305.4216
2310.931, 311.2014
2312.859, 309.6591
2314.788, 303.8810
2316.716, 311.7745
2318.645, 315.5516
2320.573, 316.6601
2322.501, 308.2156
2324.430, 297.4490
2326.358, 302.2303
2328.287, 306.7300
2330.215, 303.4732
2332.144, 305.5146
2334.072, 302.4763
2336.001, 288.4156
2337.929, 294.7826
2339.858, 297.5754
2341.786, 285.9196
2343.715, 276.9630
2345.643, 277.4818
2347.572, 288.4027
2349.500, 294.4830
2351.428, 294.3515
2353.357, 298.3893
2355.285, 291.9875
2357.214, 280.3569
2359.142, 275.9534
2361.071, 272.5487
2362.999, 267.1436
2364.928, 265.5611
2366.856, 274.1691
2368.785, 274.6597
2370.713, 269.2375
2372.642, 268.6945
2374.570, 273.9453
2376.499, 276.9404
2378.427, 270.8698
2380.355, 270.3379
2382.284, 263.3967
2384.212, 255.3381
2386.141, 263.7079
2388.069, 264.9962
2389.998, 263.3068
2391.926, 260.4847
2393.855, 254.1862
2395.783, 258.1388
2397.712, 259.9268
2399.640, 252.4214
2401.569, 249.4060
2403.497, 256.8995
2405.426, 263.9496
2407.354, 254.2498
2409.282, 244.5279
2411.211, 249.0460
2413.139, 259.7522
2415.068, 254.5967
2416.996, 242.1049
2418.925, 236.5974
2420.853, 241.5305
2422.782, 240.3457
2424.710, 238.2928
2426.639, 239.0734
2428.567, 236.8656
2430.496, 233.5365
2432.424, 234.5201
2434.353, 228.1112
2436.281, 230.7796
2438.209, 231.1302
2440.138, 218.7566
2442.066, 228.3915
2443.995, 237.9514
2445.923, 224.7475
2447.852, 216.6586
2449.780, 222.3246
2451.709, 216.8042
2453.637, 213.8498
2455.566, 212.9365
2457.494, 203.0538
2459.423, 209.1405
2461.351, 221.1623
2463.280, 220.1785
2465.208, 206.9035
2467.136, 208.5169
2469.065, 216.8445
2470.993, 209.8387
2472.922, 202.2038
2474.850, 202.6934
2476.779, 204.2910
2478.707, 202.4302
2480.636, 197.3731
2482.564, 195.7457
2484.493, 202.9515
2486.421, 210.4362
2488.350, 201.0678
2490.278, 200.4546
2492.207, 200.4588
2494.135, 188.5817
2496.063, 189.7707
2497.992, 195.2193
2499.920, 181.5101
2501.849, 177.3291
2503.777, 190.8020
2505.706, 184.5239
2507.634, 181.8505
2509.563, 189.1380
2511.491, 189.4975
2513.420, 182.5685
2515.348, 176.5136
2517.277, 176.1827
2519.205, 177.9149
2521.134, 180.2771
2523.062, 182.1651
2524.990, 179.2349
2526.919, 169.6631
2528.847, 171.0057
2530.776, 173.9481
2532.704, 173.4938
2534.633, 179.9762
2536.561, 181.3431
2538.490, 166.8737
2540.418, 170.4596
2542.347, 175.2768
2544.275, 168.9167
2546.204, 166.3847
2548.132, 164.1480
2550.061, 161.6934
2551.989, 168.4950
2553.917, 172.5944
2555.846, 166.3749
2557.774, 164.0594
2559.703, 164.4681
2561.631, 164.6852
2563.560, 160.6609
2565.488, 155.8804
2567.417, 153.6057
2569.345, 162.6337
2571.274, 164.6189
2573.202, 154.4767
2575.131, 152.2203
2577.059, 151.3369
2578.988, 151.6985
2580.916, 150.0072
2582.844, 156.5669
2584.773, 173.1720
2586.701, 163.1628
2588.630, 150.5742
2590.558, 145.5564
2592.487, 151.0472
2594.415, 150.5809
2596.344, 143.4686
2598.272, 145.8243
2600.201, 143.1711
2602.129, 136.1373
2604.058, 138.0306
2605.986, 143.7371
2607.915, 149.4842
2609.843, 148.5433
2611.771, 141.3093
2613.700, 132.9157
2615.628, 133.4426
2617.557, 140.1882
2619.485, 146.5919
2621.414, 142.8091
2623.342, 135.3232
2625.271, 131.4084
2627.199, 138.9178
2629.128, 136.9304
2631.056, 133.3767
2632.985, 139.9600
2634.913, 135.5308
2636.842, 128.2858
2638.770, 127.3372
2640.698, 129.6502
2642.627, 133.3945
2644.555, 138.9896
2646.484, 137.9977
2648.412, 134.2262
2650.341, 129.1638
2652.269, 141.0579
2654.198, 143.7759
2656.126, 132.0092
2658.055, 136.6593
2659.983, 135.3253
2661.912, 129.5420
2663.840, 120.8339
2665.769, 118.7702
2667.697, 124.1701
2669.625, 122.8834
2671.554, 121.1260
2673.482, 117.7768
2675.411, 120.4167
2677.339, 129.8226
2679.268, 130.3665
2681.196, 121.8830
2683.125, 121.2676
2685.053, 121.3238
2686.982, 116.7907
2688.910, 108.5122
2690.839, 107.6676
2692.767, 117.1482
2694.696, 116.1019
2696.624, 116.8557
2698.552, 121.5583
2700.481, 128.8020
2702.409, 123.6817
2704.338, 116.9579
2706.266, 118.1906
2708.195, 122.2880
2710.123, 122.2943
2712.052, 112.2235
2713.980, 109.1067
2715.909, 106.9575
2717.837, 109.5939
2719.766, 119.2959
2721.694, 113.4863
2723.623, 107.2465
2725.551, 119.7900
2727.479, 118.7712
2729.408, 114.0655
2731.336, 112.6170
2733.265, 106.4838
2735.193, 105.2364
2737.122, 109.1282
2739.050, 108.3148
2740.979, 106.5442
2742.907, 110.8123
2744.836, 112.8349
2746.764, 113.4623
2748.693, 111.1675
2750.621, 116.0607
2752.550, 112.1955
2754.478, 107.6670
2756.406, 111.1628
2758.335, 108.9459
2760.263, 107.7895
2762.192, 109.5190
2764.120, 111.0688
2766.049, 106.5770
2767.977, 105.4223
2769.906, 99.63017
2771.834, 104.1769
2773.763, 112.3868
2775.691, 100.3948
2777.620, 98.90533
2779.548, 98.57293
2781.477, 96.16968
2783.405, 101.4124
2785.333, 110.7577
2787.262, 114.3018
2789.190, 106.5450
2791.119, 99.77853
2793.047, 101.4206
2794.976, 102.9378
2796.904, 107.4533
2798.833, 112.9525
2800.761, 102.1833
2802.690, 101.4126
2804.618, 102.7201
2806.547, 97.22154
2808.475, 104.0912
2810.404, 104.2328
2812.332, 96.15557
2814.260, 93.22858
2816.189, 96.24435
2818.117, 109.4585
2820.046, 112.5332
2821.974, 99.71189
2823.903, 92.45219
2825.831, 96.10804
2827.760, 99.46194
2829.688, 100.9922
2831.617, 102.8279
2833.545, 92.92689
2835.474, 92.91618
2837.402, 104.2583
2839.331, 94.34074
2841.259, 91.00849
2843.188, 95.45406
2845.116, 89.54456
2847.044, 90.79789
2848.973, 94.60677
2850.901, 94.07608
2852.830, 89.34036
2854.758, 80.71475
2856.687, 81.32870
2858.615, 91.81853
2860.544, 96.76950
2862.472, 88.66314
2864.401, 87.87675
2866.329, 91.64214
2868.258, 97.65990
2870.186, 100.5896
2872.115, 86.41963
2874.043, 89.65225
2875.971, 99.79892
2877.900, 95.08113
2879.828, 87.08736
2881.757, 85.33263
2883.685, 94.21908
2885.614, 94.72752
2887.542, 96.20589
2889.471, 90.80849
2891.399, 78.49778
2893.328, 75.58816
2895.256, 80.88260
2897.185, 89.79697
2899.113, 85.23580
2901.042, 91.44096
2902.970, 91.55459
2904.898, 89.13566
2906.827, 88.73376
2908.755, 86.96000
2910.684, 86.58977
2912.612, 86.51178
2914.541, 81.55428
2916.469, 82.35802
2918.398, 84.45030
2920.326, 83.73055
2922.255, 81.92863
2924.183, 82.67455
2926.112, 78.26679
2928.040, 82.66390
2929.969, 82.07265
2931.897, 80.11534
2933.825, 78.68033
2935.754, 78.99532
2937.682, 83.49854
2939.611, 87.46863
2941.539, 87.89310
2943.468, 82.65733
2945.396, 83.97453
2947.325, 82.31013
2949.253, 89.48660
2951.182, 95.52317
2953.110, 83.92971
2955.039, 83.50606
2956.967, 82.15863
2958.896, 80.08833
2960.824, 74.48824
2962.752, 78.69028
2964.681, 83.51009
2966.609, 80.04077
2968.538, 87.19766
2970.466, 85.12492
2972.395, 72.20406
2974.323, 74.47525
2976.252, 84.84112
2978.180, 87.46501
2980.109, 84.23272
2982.037, 86.71260
2983.966, 84.43708
2985.894, 80.53432
2987.823, 79.58298
2989.751, 74.34364
2991.679, 73.89837
2993.608, 78.45681
2995.536, 76.36526
2997.465, 71.97997
2999.393, 75.42078
3001.322, 85.19029
3003.250, 78.54283
3005.179, 78.86347
3007.107, 80.33045
3009.036, 76.13194
3010.964, 84.45264
3012.893, 84.85334
3014.821, 78.14484
3016.750, 73.85690
3018.678, 74.81902
3020.606, 72.99647
3022.535, 69.41534
3024.463, 74.92557
3026.392, 77.60368
3028.320, 78.52943
3030.249, 78.07379
3032.177, 68.18147
3034.106, 71.73645
3036.034, 76.35233
3037.963, 70.27537
3039.891, 75.90493
3041.820, 68.31594
3043.748, 59.91074
3045.677, 72.39048
3047.605, 61.90581
3049.533, 69.37714
3051.462, 85.08873
3053.390, 68.19824
3055.319, 68.63342
3057.247, 67.62232
3059.176, 61.42839
3061.104, 70.13184
3063.033, 69.01569
3064.961, 66.58919
3066.890, 68.77393
3068.818, 77.51130
3070.747, 72.87583
3072.675, 62.53122
3074.604, 54.88212
3076.532, 59.82452
3078.460, 68.28790
3080.389, 73.52011
3082.317, 75.20904
3084.246, 65.34548
3086.174, 62.15421
3088.103, 65.40852
3090.031, 70.43944
3091.960, 66.32001
3093.888, 62.13983
3095.817, 61.94596
3097.745, 66.83105
3099.674, 48.92548
3101.602, 46.73100
3103.531, 58.48550
3105.459, 58.03942
3107.387, 57.15364
3109.316, 52.57804
3111.244, 48.61757
3113.173, 52.21215
3115.101, 61.18837
3117.030, 60.78680
3118.958, 51.90295
3120.887, 65.56743
3122.815, 56.35084
3124.744, 52.26057
3126.672, 53.19505
3128.601, 50.82343
3130.529, 52.44294
3132.458, 58.85258
3134.386, 64.19983
3136.314, 57.31859
3138.243, 57.89284
3140.171, 49.72673
3142.100, 45.00061
3144.028, 60.12526
3145.957, 60.93927
3147.885, 55.50387
3149.814, 49.50322
3151.742, 46.11448
3153.671, 40.10358
3155.599, 38.98148
3157.528, 41.17287
3159.456, 39.23164
3161.385, 44.87682
3163.313, 53.20585
3165.241, 54.28808
3167.170, 55.39697
3169.098, 48.13977
3171.027, 47.42378
3172.955, 49.58400
3174.884, 48.38465
3176.812, 36.67065
3178.741, 34.08303
3180.669, 42.13124
3182.598, 54.20876
3184.526, 48.36774
3186.455, 51.52566
3188.383, 52.20332
3190.312, 45.60147
3192.240, 40.39452
3194.168, 39.34969
3196.097, 43.64200
3198.025, 41.17773
3199.954, 38.55601
3201.882, 40.18295
3203.811, 36.93425
3205.739, 29.36312
3207.668, 31.48119
3209.596, 40.12706
3211.525, 31.63630
3213.453, 22.43338
3215.382, 41.36529
3217.310, 39.90581
3219.239, 34.00254
3221.167, 31.89845
3223.095, 36.73039
3225.024, 42.45305
3226.952, 51.15728
3228.881, 46.90045
3230.809, 32.59067
3232.738, 38.66328
3234.666, 38.17268
3236.595, 36.10142
3238.523, 38.95937
3240.452, 33.48761
3242.380, 30.70628
3244.309, 35.68637
3246.237, 42.45829
3248.166, 39.78081
3250.094, 36.03654
3252.022, 30.80046
3253.951, 31.20016
3255.879, 39.49463
3257.808, 28.54338
3259.736, 23.91863
3261.665, 22.14366
3263.593, 24.19857
3265.522, 32.26477
3267.450, 38.48561
3269.379, 37.82190
3271.307, 30.64032
3273.236, 25.73868
3275.164, 34.68102
3277.093, 32.42451
3279.021, 32.36491
3280.949, 39.38845
3282.878, 35.61699
3284.806, 34.25613
3286.735, 29.23461
3288.663, 23.31503
3290.592, 19.80658
3292.520, 15.13389
3294.449, 24.03687
3296.377, 36.56182
3298.306, 36.35151
3300.234, 18.84045
3302.163, 29.15975
3304.091, 32.64371
3306.020, 26.88625
3307.948, 24.20502
3309.876, 30.53877
3311.805, 28.65362
3313.733, 26.43023
3315.662, 27.06695
3317.590, 22.88643
3319.519, 20.98945
3321.447, 20.67816
3323.376, 28.86908
3325.304, 43.69701
3327.233, 19.15825
3329.161, 28.17980
3331.090, 36.70668
3333.018, 26.70160
3334.947, 14.01074
3336.875, 20.73352
3338.803, 18.27760
3340.732, 13.50788
3342.660, 15.70359
3344.589, 15.43507
3346.517, 16.21766
3348.446, 12.26740
3350.374, 10.98901
3352.303, 21.41535
3354.231, 23.75367
3356.160, 23.03151
3358.088, 18.97311
3360.017, 16.35493
3361.945, 19.38400
3363.874, 19.63029
3365.802, 11.72432
3367.730, 7.309240
3369.659, 10.89204
3371.587, 14.99102
3373.516, 18.13290
3375.444, 13.42166
3377.373, 7.845525
3379.301, 8.562415
3381.230, 19.25494
3383.158, 15.40143
3385.087, 16.36627
3387.015, 14.37666
3388.944, -3.736942
3390.872, 4.162453
3392.801, 17.28014
3394.729, 20.23548
3396.657, 15.27244
3398.586, 13.61969
3400.514, 23.38444
3402.443, 23.37816
3404.371, 22.38548
3406.300, 20.45650
3408.228, 6.279129
3410.157, 17.87987
3412.085, 19.45638
3414.014, 10.81511
3415.942, 2.792919
3417.871, 7.150434
3419.799, 8.5910037E-02
3421.728, 10.17957
3423.656, 15.36404
3425.584, 9.680376
3427.513, 12.59089
3429.441, 7.080535
3431.370, 14.39421
3433.298, 23.37209
3435.227, 22.35475
3437.155, 8.911177
3439.084, 8.138937
3441.012, 27.82136
3442.941, 32.55735
3444.869, 21.06701
3446.798, 22.82588
3448.726, 6.772048
3450.655, 5.107158
3452.583, 1.076810
3454.511, -4.639957
3456.440, 5.006501
3458.368, 20.43924
3460.297, 21.73671
3462.225, 14.15853
3464.154, 14.47540
3466.082, 31.19947
3468.011, 11.08384
3469.939, 6.694562
3471.868, 6.875406
3473.796, 8.539266
3475.725, 12.83172
3477.653, 6.869124
3479.582, 6.181928
3481.510, 2.521226
3483.438, 1.215662
3485.367, 5.423870
3487.295, 5.253790
3489.224, -8.456900
3491.152, -2.954807
3493.081, 6.281430
3495.009, 7.130192
3496.938, 3.844550
3498.866, 6.418710
3500.795, 9.712584
3502.723, -1.470370
3504.652, -10.96677
3506.580, 2.416096
3508.509, 1.507943
3510.437, 7.505140
3512.365, 5.727922
3514.294, 2.587423
3516.222, 3.278015
3518.151, -1.696986
3520.079, 4.674994
3522.008, -0.2819911
3523.936, -2.117000
3525.865, 5.633897
3527.793, 13.67029
3529.722, -6.704927
3531.650, -7.822279
3533.579, -4.360965
3535.507, -4.637013
3537.436, -7.417331
3539.364, -6.459299
3541.292, -0.6172275
3543.221, 4.221125
3545.149, 4.695123
3547.078, 5.585519
3549.006, 8.542705
3550.935, -18.71462
3552.863, -11.59020
3554.792, -4.950547
3556.720, -2.993869
3558.649, -2.158731
3560.577, -5.698124
3562.506, -0.1271674
3564.434, -10.89106
3566.363, 4.847619
3568.291, 11.71757
3570.219, -16.35405
3572.148, -8.715481
3574.076, 8.337385
3576.005, 14.89050
3577.933, 1.537703
3579.862, -9.287955
3581.790, 2.912990
3583.719, 3.933407
3585.647, 2.436342
3587.576, 2.720117
3589.504, -1.052033
3591.433, -4.771998
3593.361, -0.3644564
3595.290, -5.060623
3597.218, -2.416632
3599.146, 2.618681
3601.075, 7.162837
3603.003, 5.834267
3604.932, -4.781672
3606.860, -4.262726
3608.789, -2.501059
3610.717, -1.450924
3612.646, -3.854135
3614.574, -5.101673
3616.503, 2.665715
3618.431, 17.58607
3620.360, -1.439621
3622.288, -8.899422
3624.217, -2.248059
3626.145, 2.451002
3628.073, -2.173705
3630.002, 9.555071
3631.930, 12.69156
3633.859, 8.459143
3635.787, 1.341136
3637.716, -3.638533
3639.644, -5.503733
3641.573, -16.99162
3643.501, -11.13184
3645.430, 7.179097
3647.358, 2.666706
3649.287, -13.45904
3651.215, -13.51629
3653.144, 6.211911
3655.072, -0.7555499
3657.000, -7.269254
3658.929, -4.438977
3660.857, 0.9003479
3662.786, 1.649526
3664.714, -3.210058
3666.643, -8.621396
3668.571, -11.81586
3670.500, 3.001022
3672.428, -5.620282
3674.357, -18.22004
3676.285, 6.119442
3678.214, -1.634331
3680.142, -13.06924
3682.071, -4.480558
3683.999, 3.441698
3685.927, 2.278879
3687.856, -1.014254
3689.784, 0.7343283
3691.713, -14.76013
3693.641, -11.60853
3695.570, -10.54517
3697.498, -12.53423
3699.427, -9.003418
3701.355, -0.4868570
3703.284, -5.892750
3705.212, 2.688470
3707.141, -1.906061
3709.069, 1.637133
3710.998, -7.408641
3712.926, -19.58542
3714.854, -4.716104
3716.783, 2.425713
3718.711, -11.51551
3720.640, -4.165796
3722.568, -5.264150
3724.497, -3.252438
3726.425, 5.551881
3728.354, -1.580357
3730.282, -11.24590
3732.211, -8.305491
3734.139, -13.85535
3736.068, -12.63391
3737.996, -11.15268
3739.925, -17.96727
3741.853, -23.40315
3743.781, 2.041074
3745.710, 5.886274
3747.638, 9.374704
3749.567, 2.395107
3751.495, -16.19566
3753.424, -22.61449
3755.352, -1.161092
3757.281, 1.938859
3759.209, 1.096208
3761.138, -4.475324
3763.066, -2.799839
3764.995, -7.511698
3766.923, -7.144559
3768.852, 7.242993
3770.780, -8.180731
3772.708, -17.48233
3774.637, -16.86872
3776.565, -8.033446
3778.494, -7.089313
3780.422, -4.295469
3782.351, 3.338513
3784.279, -5.527210
3786.208, -8.053732
3788.136, -5.131333
3790.065, -15.97678
3791.993, -17.39751
3793.922, -22.97403
3795.850, -20.81921
3797.779, 2.674436
3799.707, -5.499847
3801.635, 1.934115
3803.564, -10.03085
3805.492, -3.237005
3807.421, -1.239463
3809.349, 2.633566
3811.278, 8.527748
3813.206, -1.773912
3815.135, -6.164365
3817.063, -1.174508
3818.992, -0.4884633
3820.920, 3.994303
3822.849, -3.959203
3824.777, -0.9656318
3826.706, 13.64783
3828.634, 6.461592
3830.563, 0.1248273
3832.491, 6.605419
3834.419, 10.03188
3836.348, 10.71855
3838.276, 0.8325973
3840.205, 2.608103
3842.133, 8.505960
3844.062, -4.198619
3845.990, 21.16395
3847.919, 11.48479
3849.847, 0.8761569
3851.776, -3.120337
3853.704, -6.345144
3855.633, -4.034099
3857.561, 10.04886
3859.490, 17.54498
3861.418, -18.42311
3863.346, -2.884334
3865.275, 2.879364
3867.203, 8.616077
3869.132, 2.455222
3871.060, -9.773091
3872.989, -12.29710
3874.917, -6.498664
3876.846, -3.302466
3878.774, 6.355000
3880.703, -5.440781
3882.631, -14.46459
3884.560, -20.15810
3886.488, -6.431405
3888.417, -8.817261
3890.345, -10.39322
3892.273, -0.3726189
3894.202, -10.05604
3896.130, -4.683146
3898.059, -4.705439
3899.987, 2.126238
3901.916, -8.877707
3903.844, -6.157953
3905.773, 2.831425
3907.701, 4.354630
3909.630, 7.463495
3911.558, 18.17350
3913.487, -4.544079
3915.415, 0.9143275
3917.344, -16.87492
3919.272, -16.54260
3921.200, -12.11749
3923.129, -9.338943
3925.057, -1.128400
3926.986, 6.436650
3928.914, -4.427924
3930.843, -28.03300
3932.771, -1.579117
3934.700, 16.08910
3936.628, -1.200150
3938.557, -17.67449
3940.485, -4.516988
3942.414, -7.055990
3944.342, -22.63134
3946.271, -17.44498
3948.199, 1.013687
3950.127, -0.1045411
3952.056, 10.05036
3953.984, -2.963724
3955.913, -13.87129
3957.841, 9.261315
3959.770, 5.753909
3961.698, -2.328569
3963.627, 8.0151998E-02
3965.555, -4.515704
3967.484, -13.14823
3969.412, -0.9334953
3971.341, -14.43717
3973.269, 3.272109
3975.198, -7.164311
3977.126, -29.84697
3979.054, -20.71458
3980.983, -8.819269
3982.911, -8.428440
3984.840, -3.748671
3986.768, 2.817892
3988.697, -2.389205
3990.625, -1.335185
3992.554, 10.20966
3994.482, -3.446231
3996.411, -13.14007
3998.339, 1.753994
4000.268, 3.499500
4002.196, -4.752574
4004.125, -14.10050
4006.053, -19.18702
4007.981, -17.38961
4009.910, -11.91461
4011.838, -8.418656
4013.767, -8.681909
4015.695, 2.318695
4017.624, -17.32423
4019.552, -4.414405
4021.481, -17.54927
4023.409, -3.284340
4025.338, 14.11797
4027.266, 13.53065
4029.195, 17.49480
4031.123, 14.57082
4033.052, -11.29404
4034.980, -10.32957
4036.908, -4.865113
4038.837, -16.76623
4040.765, -16.50635
4042.694, -10.76168
4044.622, -5.403332
4046.551, -5.334078
4048.479, -7.880116
4050.408, -19.42622
4052.336, -12.04855
4054.265, -2.293249
4056.193, -1.145885
4058.122, 14.60811
4060.050, 2.201252
4061.979, -12.90787
4063.907, -11.61045
4065.835, -12.76662
4067.764, 1.737998
4069.692, 0.7265589
4071.621, 5.746687
4073.549, -10.17336
4075.478, -11.06142
4077.406, -12.90852
4079.335, -6.914440
4081.263, 5.176047
4083.192, -4.626505
4085.120, -13.13876
4087.049, -4.223546
4088.977, 6.283634
4090.906, -4.145335
4092.834, 4.011728
4094.762, -4.149184
4096.691, 6.624414
4098.619, 6.593987
4100.548, -11.65799
4102.477, -3.605828
4104.405, -0.5463398
4106.333, 6.241694
4108.262, 6.913615
4110.190, -6.725514
4112.119, -10.90989
4114.047, -14.01805
4115.976, 2.109234
4117.904, 6.847487
4119.833, -11.81660
4121.761, -10.08448
4123.689, -0.2565832
4125.618, -10.08910
4127.546, -16.94166
4129.475, -16.29041
4131.403, -20.27167
4133.332, 10.91937
4135.260, 7.112537
4137.188, -14.31571
4139.117, -9.194019
4141.046, -7.641551
4142.974, -14.19145
4144.902, -6.127425
4146.831, -9.038689
4148.760, -0.8385338
4150.688, -14.42233
4152.616, -21.86677
4154.545, -8.595915
4156.474, 0.1161157
4158.402, -11.10509
4160.330, -8.342769
4162.259, -20.17990
4164.188, -10.31951
4166.116, -3.012532
4168.044, -2.983745
4169.973, 0.7307811
4171.901, 8.803061
4173.830, -0.7301330
4175.758, -12.19391
4177.687, -6.083796
4179.615, -4.601004
4181.543, -13.35727
4183.472, -12.87659
4185.400, -8.291330
4187.329, -2.545453
4189.257, -4.171283
4191.186, -3.906187
4193.114, -11.68930
4195.043, -20.52864
4196.971, 3.874319
4198.899, -10.28922
4200.828, -4.056943
4202.757, -7.189590
4204.685, -9.564133
4206.613, 9.106293
4208.542, -0.4414674
4210.471, -16.35847
4212.399, -16.17602
4214.327, -18.98926
4216.256, -36.36909
4218.185, -21.29391
4220.113, 0.2380255
4222.041, -10.00795
4223.970, -9.238178
4225.898, 9.1951221E-02
4227.827, -2.793578
4229.755, -22.87938
4231.684, -5.645711
4233.612, -13.25620
4235.541, -14.61185
4237.469, 6.658886
4239.397, -22.80301
4241.326, -1.594192
4243.254, -12.56776
4245.183, 0.3301345
4247.111, -0.8533204
4249.040, -5.031289
4250.968, -29.19226
4252.896, -18.88118
4254.825, -5.829769
4256.754, 3.620557
4258.682, -2.966834
4260.610, -8.530567
4262.539, 5.375777
4264.468, 5.191518
4266.396, -2.074698
4268.324, -13.93486
4270.253, -17.11276
4272.182, -7.389292
4274.110, -11.05023
4276.038, -12.43405
4277.967, -8.614555
4279.896, -7.405671
4281.824, -7.928269
4283.752, -19.03027
4285.681, -19.41915
4287.609, -13.57836
4289.538, -6.878401
4291.466, 5.641296
4293.395, -4.599873
4295.323, -15.58075
4297.251, -2.260823
4299.180, -6.927784
4301.108, -14.37764
4303.037, -2.653851
4304.965, -1.692237
4306.894, 3.577318
4308.822, -9.773372
4310.751, -4.718693
4312.679, -8.352998
4314.607, -6.417238
4316.536, -10.43822
4318.465, -11.04269
4320.393, -6.789147
4322.321, -10.12627
4324.250, 16.32334
4326.179, -11.55327
4328.107, -6.251501
4330.035, 8.4789172E-02
4331.964, -8.290156
4333.893, -0.2656739
4335.821, 10.89923
4337.749, -21.20325
4339.678, -15.14168
4341.606, 17.55053
4343.535, 5.155827
4345.463, -2.043137
4347.392, -12.58353
##END=



