##NAMES=Dussertite
##RRUFFID=R060398
##IDEAL CHEMISTRY=BaFe^3+^_3_(AsO_4_)(AsO_3_OH)(OH)_6_
##LOCALITY=Constantine, Algeria
##OWNER=RRUFF
##SOURCE=American Museum of Natural History
##DESCRIPTION=Green granular aggregate
##STATUS=The identification of this mineral is confirmed by single-crystal X-ray diffraction and chemical analysis
##URL=https://www.rruff.net/odr/rruff_sample/R060398
##MEASURED CHEMISTRY=(Ba_0.99_Ca_0.01_)(Fe^3+^_2.85_Al_0.15_)(As_1.00_O_4_)(As_1.00_O_3_OH)((OH)_5.93_F_0.07_) ; (OH) estimated by difference and charge balance
##DIFFRACTION SAMPLE DESCRIPTION=Single crystal, powder profile is calculated
##CELL PARAMETERS=a: 7.412 b: 7.412 c: 17.458 alpha: 90 beta: 90 gamma: 120 volume: 830.6 crystal system: hexagonal
##FILETYPE=Raman RAW
##RAMAN WAVELENGTH=780

110.9036, 3895.115
112.8320, 3891.406
114.7605, 3945.987
116.6890, 4038.847
118.6174, 4166.085
120.5459, 4329.272
122.4744, 4532.304
124.4028, 4765.942
126.3313, 5065.666
128.2598, 5384.632
130.1882, 5641.710
132.1167, 5852.156
134.0452, 5890.651
135.9736, 5653.853
137.9021, 5324.125
139.8306, 4903.315
141.7590, 4459.091
143.6875, 4095.968
145.6160, 3811.629
147.5444, 3625.744
149.4729, 3576.360
151.4014, 3585.282
153.3298, 3666.343
155.2583, 3774.559
157.1868, 3855.285
159.1152, 3909.030
161.0437, 3941.470
162.9722, 3927.294
164.9006, 3925.739
166.8291, 3939.357
168.7576, 3979.023
170.6860, 4053.591
172.6145, 4161.156
174.5430, 4295.366
176.4714, 4463.609
178.3999, 4651.305
180.3284, 4864.466
182.2568, 5091.078
184.1853, 5353.110
186.1138, 5621.339
188.0422, 5806.458
189.9707, 5929.845
191.8992, 5905.958
193.8276, 5682.211
195.7561, 5373.718
197.6846, 4980.317
199.6130, 4556.741
201.5415, 4177.726
203.4700, 3842.557
205.3984, 3566.331
207.3269, 3351.931
209.2554, 3183.030
211.1838, 3069.192
213.1123, 2988.927
215.0408, 2927.492
216.9692, 2884.368
218.8977, 2849.109
220.8262, 2822.152
222.7546, 2800.592
224.6831, 2784.438
226.6116, 2773.700
228.5400, 2765.981
230.4685, 2763.756
232.3970, 2772.791
234.3254, 2794.605
236.2539, 2822.719
238.1824, 2858.065
240.1108, 2897.493
242.0393, 2939.819
243.9678, 2985.434
245.8962, 3036.850
247.8247, 3092.927
249.7532, 3145.356
251.6816, 3194.564
253.6101, 3239.066
255.5386, 3280.425
257.4670, 3313.474
259.3955, 3334.280
261.3240, 3346.479
263.2524, 3354.958
265.1809, 3359.831
267.1094, 3362.606
269.0378, 3363.321
270.9663, 3362.281
272.8948, 3361.165
274.8232, 3356.990
276.7517, 3346.566
278.6802, 3331.844
280.6086, 3317.238
282.5371, 3302.720
284.4656, 3289.784
286.3940, 3279.702
288.3225, 3269.292
290.2510, 3261.214
292.1794, 3249.352
294.1079, 3230.289
296.0364, 3202.513
297.9648, 3164.282
299.8933, 3116.375
301.8218, 3051.557
303.7502, 2965.844
305.6787, 2865.824
307.6072, 2747.941
309.5356, 2620.156
311.4641, 2484.120
313.3926, 2345.244
315.3210, 2219.086
317.2495, 2107.002
319.1780, 2007.688
321.1064, 1919.884
323.0349, 1844.777
324.9634, 1784.370
326.8918, 1736.211
328.8203, 1697.697
330.7488, 1668.677
332.6772, 1650.313
334.6057, 1646.428
336.5342, 1644.241
338.4626, 1643.303
340.3911, 1643.586
342.3196, 1643.963
344.2480, 1646.637
346.1765, 1652.507
348.1050, 1661.827
350.0334, 1675.887
351.9619, 1694.256
353.8904, 1719.170
355.8188, 1752.055
357.7473, 1788.819
359.6758, 1828.065
361.6042, 1871.393
363.5327, 1920.600
365.4612, 1974.354
367.3896, 2029.805
369.3181, 2089.370
371.2466, 2139.115
373.1750, 2179.853
375.1035, 2208.919
377.0320, 2220.543
378.9604, 2225.734
380.8889, 2226.181
382.8174, 2227.481
384.7458, 2239.196
386.6743, 2261.826
388.6028, 2292.897
390.5313, 2331.887
392.4597, 2380.970
394.3882, 2445.382
396.3167, 2512.549
398.2451, 2580.755
400.1736, 2645.064
402.1021, 2704.921
404.0305, 2756.970
405.9590, 2786.136
407.8875, 2793.917
409.8159, 2773.903
411.7444, 2719.637
413.6729, 2650.805
415.6013, 2565.751
417.5298, 2477.845
419.4583, 2387.351
421.3867, 2302.689
423.3152, 2237.771
425.2437, 2192.575
427.1721, 2167.970
429.1006, 2163.333
431.0291, 2183.588
432.9575, 2240.269
434.8860, 2308.592
436.8145, 2390.739
438.7429, 2472.208
440.6714, 2544.199
442.5999, 2604.739
444.5283, 2649.210
446.4568, 2678.697
448.3853, 2703.684
450.3137, 2719.932
452.2422, 2746.963
454.1707, 2786.411
456.0991, 2838.412
458.0276, 2906.263
459.9561, 2983.884
461.8845, 3070.270
463.8130, 3160.515
465.7415, 3250.618
467.6699, 3340.705
469.5984, 3401.902
471.5269, 3445.628
473.4553, 3429.494
475.3838, 3343.542
477.3123, 3207.776
479.2407, 3008.508
481.1692, 2780.984
483.0977, 2541.740
485.0261, 2303.546
486.9546, 2090.119
488.8831, 1902.123
490.8115, 1741.425
492.7400, 1612.490
494.6685, 1506.061
496.5969, 1426.144
498.5254, 1362.788
500.4539, 1316.834
502.3823, 1282.061
504.3108, 1254.637
506.2393, 1234.593
508.1677, 1222.635
510.0962, 1218.664
512.0247, 1220.932
513.9531, 1230.998
515.8816, 1243.158
517.8101, 1257.108
519.7385, 1273.798
521.6670, 1293.794
523.5955, 1316.241
525.5239, 1343.487
527.4524, 1370.450
529.3809, 1390.843
531.3093, 1414.490
533.2378, 1435.453
535.1663, 1453.553
537.0947, 1474.275
539.0232, 1488.794
540.9517, 1505.004
542.8801, 1524.926
544.8086, 1545.053
546.7371, 1566.014
548.6655, 1584.387
550.5940, 1599.799
552.5225, 1610.527
554.4509, 1614.588
556.3794, 1612.063
558.3079, 1603.906
560.2363, 1590.126
562.1648, 1564.972
564.0933, 1527.007
566.0217, 1483.385
567.9502, 1433.617
569.8787, 1382.132
571.8071, 1329.000
573.7356, 1276.443
575.6641, 1224.079
577.5925, 1174.321
579.5210, 1129.851
581.4495, 1090.325
583.3779, 1054.350
585.3064, 1021.972
587.2349, 994.6089
589.1633, 972.9230
591.0918, 952.5074
593.0203, 931.9371
594.9487, 914.1510
596.8772, 900.5891
598.8057, 888.6740
600.7341, 877.7940
602.6626, 867.6202
604.5911, 858.1828
606.5195, 847.6265
608.4480, 842.0340
610.3765, 834.7041
612.3049, 829.1969
614.2334, 825.9621
616.1619, 820.7709
618.0903, 820.2712
620.0188, 819.1324
621.9473, 816.1241
623.8757, 813.8171
625.8042, 812.7928
627.7327, 812.5988
629.6611, 813.4795
631.5896, 814.6182
633.5181, 814.9921
635.4465, 815.3486
637.3750, 817.0399
639.3035, 819.8805
641.2319, 822.6638
643.1604, 825.3930
645.0889, 828.1098
647.0173, 830.4109
648.9458, 833.8209
650.8743, 838.8443
652.8027, 843.9777
654.7312, 848.4727
656.6597, 853.5795
658.5881, 860.1630
660.5166, 867.2225
662.4451, 873.3438
664.3735, 880.0950
666.3020, 889.3019
668.2305, 900.7647
670.1589, 913.7007
672.0874, 928.2296
674.0159, 945.3475
675.9443, 964.6438
677.8728, 990.9321
679.8013, 1024.967
681.7297, 1063.265
683.6582, 1105.069
685.5867, 1151.479
687.5151, 1205.304
689.4436, 1259.601
691.3721, 1314.439
693.3005, 1365.047
695.2290, 1407.776
697.1575, 1445.047
699.0859, 1477.614
701.0144, 1507.987
702.9429, 1541.811
704.8713, 1578.387
706.7998, 1613.414
708.7283, 1647.141
710.6567, 1684.241
712.5852, 1725.734
714.5137, 1761.644
716.4421, 1792.365
718.3706, 1811.336
720.2991, 1819.414
722.2275, 1811.269
724.1560, 1784.513
726.0845, 1743.212
728.0129, 1686.162
729.9414, 1618.734
731.8699, 1540.032
733.7983, 1457.055
735.7268, 1373.448
737.6553, 1294.022
739.5837, 1226.488
741.5122, 1169.462
743.4407, 1118.722
745.3691, 1074.481
747.2976, 1039.373
749.2261, 1013.788
751.1545, 995.3253
753.0830, 984.3357
755.0115, 979.3380
756.9399, 980.4014
758.8684, 986.8079
760.7969, 999.8896
762.7253, 1016.132
764.6538, 1034.663
766.5823, 1056.054
768.5107, 1080.531
770.4392, 1108.009
772.3677, 1138.910
774.2961, 1172.396
776.2246, 1207.235
778.1531, 1244.346
780.0815, 1285.843
782.0100, 1330.391
783.9385, 1374.163
785.8669, 1417.576
787.7954, 1463.630
789.7239, 1512.424
791.6523, 1562.295
793.5808, 1613.677
795.5093, 1664.125
797.4377, 1713.788
799.3662, 1761.107
801.2947, 1804.224
803.2231, 1851.171
805.1516, 1904.146
807.0801, 1958.988
809.0085, 2014.063
810.9370, 2071.756
812.8655, 2133.546
814.7939, 2197.780
816.7224, 2262.386
818.6509, 2330.822
820.5793, 2408.428
822.5078, 2487.401
824.4363, 2562.129
826.3647, 2632.535
828.2932, 2698.385
830.2217, 2760.061
832.1501, 2819.530
834.0786, 2875.070
836.0071, 2921.330
837.9355, 2962.771
839.8640, 2993.891
841.7925, 3024.592
843.7209, 3046.430
845.6494, 3059.096
847.5779, 3060.667
849.5063, 3050.771
851.4348, 3034.672
853.3633, 3013.589
855.2917, 2982.191
857.2202, 2941.091
859.1487, 2884.961
861.0771, 2810.755
863.0056, 2725.494
864.9341, 2630.886
866.8625, 2524.676
868.7910, 2400.010
870.7195, 2273.507
872.6479, 2148.851
874.5764, 2026.547
876.5049, 1905.975
878.4333, 1789.062
880.3618, 1673.445
882.2903, 1565.834
884.2188, 1472.673
886.1472, 1388.000
888.0757, 1306.225
890.0042, 1230.281
891.9326, 1164.104
893.8611, 1104.596
895.7896, 1049.252
897.7180, 997.1086
899.6465, 946.0020
901.5750, 900.1811
903.5034, 854.1544
905.4319, 815.9718
907.3604, 778.9025
909.2888, 743.6204
911.2173, 713.8778
913.1458, 689.4426
915.0742, 667.6318
917.0027, 648.4493
918.9312, 631.1071
920.8596, 615.6420
922.7881, 601.4973
924.7166, 588.6517
926.6450, 577.8972
928.5735, 569.6434
930.5020, 560.5919
932.4304, 550.2827
934.3589, 541.7138
936.2874, 535.3898
938.2158, 529.1140
940.1443, 522.5447
942.0728, 516.3549
944.0012, 510.5580
945.9297, 505.6312
947.8582, 501.6815
949.7866, 498.7459
951.7151, 497.2961
953.6436, 495.3488
955.5720, 492.6394
957.5005, 488.5218
959.4290, 481.3181
961.3574, 476.1401
963.2859, 475.1045
965.2144, 475.0265
967.1428, 476.1611
969.0713, 476.1836
970.9998, 473.3790
972.9282, 471.0400
974.8567, 470.3329
976.7852, 470.1601
978.7136, 470.3077
980.6421, 470.5749
982.5706, 471.1050
984.4990, 471.3650
986.4275, 471.0900
988.3560, 470.5063
990.2844, 469.5876
992.2129, 468.6440
994.1414, 467.8912
996.0698, 467.1322
997.9983, 466.3147
999.9268, 465.3354
1001.855, 464.2096
1003.784, 462.7197
1005.712, 460.1115
1007.641, 457.8310
1009.569, 457.8794
1011.498, 457.3402
1013.426, 453.1908
1015.354, 448.9441
1017.283, 447.1210
1019.211, 446.2871
1021.140, 445.8106
1023.068, 445.4066
1024.997, 444.9436
1026.925, 444.3566
1028.854, 443.7294
1030.782, 442.7452
1032.711, 440.2614
1034.639, 438.4985
1036.568, 439.9955
1038.496, 441.7310
1040.425, 441.0685
1042.353, 440.3272
1044.281, 441.5862
1046.210, 442.8847
1048.138, 442.4436
1050.067, 442.0675
1051.995, 443.3796
1053.924, 444.6681
1055.852, 444.8464
1057.781, 444.4817
1059.709, 443.1201
1061.638, 442.4549
1063.566, 444.7346
1065.495, 446.5548
1067.423, 444.8149
1069.352, 443.4227
1071.280, 445.6406
1073.208, 447.5334
1075.137, 446.2373
1077.065, 444.9078
1078.994, 445.8893
1080.922, 446.2079
1082.851, 444.2549
1084.779, 441.5052
1086.708, 437.7963
1088.636, 434.7437
1090.565, 433.4914
1092.493, 432.3258
1094.422, 430.7690
1096.350, 428.8990
1098.279, 426.8335
1100.207, 424.2528
1102.135, 420.9549
1104.064, 417.2731
1105.992, 412.7673
1107.921, 408.7999
1109.849, 406.4522
1111.778, 403.2988
1113.706, 398.0142
1115.635, 393.5590
1117.563, 390.4570
1119.492, 387.9606
1121.420, 386.5712
1123.349, 384.5489
1125.277, 381.0023
1127.206, 378.7099
1129.134, 378.4666
1131.063, 377.7815
1132.991, 376.5284
1134.919, 374.8592
1136.848, 372.4708
1138.776, 370.7116
1140.705, 369.6192
1142.633, 368.9608
1144.562, 368.7846
1146.490, 368.8430
1148.419, 369.1809
1150.347, 368.1453
1152.276, 367.3915
1154.204, 364.8409
1156.133, 364.6797
1158.061, 363.5622
1159.990, 362.0128
1161.918, 362.8025
1163.846, 360.9561
1165.775, 362.7528
1167.703, 359.5822
1169.632, 359.9230
1171.560, 361.3986
1173.489, 359.8578
1175.417, 357.6376
1177.346, 357.6217
1179.274, 358.4985
1181.203, 359.7380
1183.131, 360.2626
1185.060, 358.6198
1186.988, 356.7277
1188.917, 355.5053
1190.845, 354.7541
1192.773, 354.7804
1194.702, 354.5985
1196.630, 353.7809
1198.559, 352.9085
1200.487, 352.0198
1202.416, 351.4219
1204.344, 351.1689
1206.273, 351.2899
1208.201, 351.8546
1210.130, 352.6439
1212.058, 352.0886
1213.987, 353.4030
1215.915, 351.2929
1217.844, 350.0923
1219.772, 349.9245
1221.700, 349.8487
1223.629, 349.8521
1225.557, 350.3757
1227.486, 351.1875
1229.414, 351.7306
1231.343, 351.7973
1233.271, 351.0984
1235.200, 349.5205
1237.128, 345.8255
1239.057, 342.3445
1240.985, 342.6644
1242.914, 343.4464
1244.842, 341.3979
1246.771, 339.0327
1248.699, 338.1364
1250.627, 337.2584
1252.556, 335.6012
1254.484, 333.9613
1256.413, 332.4547
1258.341, 331.3864
1260.270, 330.9991
1262.198, 330.7205
1264.127, 330.8535
1266.055, 329.7625
1267.984, 328.9865
1269.912, 328.1852
1271.841, 326.6137
1273.769, 326.4793
1275.698, 325.4694
1277.626, 325.4889
1279.554, 326.1113
1281.483, 325.9169
1283.411, 325.3247
1285.340, 325.2061
1287.268, 325.1108
1289.197, 323.9332
1291.125, 323.2650
1293.054, 325.3272
1294.982, 326.9443
1296.911, 326.1700
1298.839, 325.3917
1300.768, 325.6044
1302.696, 325.1578
1304.625, 323.2756
1306.553, 322.9355
1308.481, 321.9344
1310.410, 321.3153
1312.338, 321.1686
1314.267, 320.4145
1316.195, 320.0533
1318.124, 319.7000
1320.052, 319.4584
1321.981, 319.1083
1323.909, 319.4961
1325.838, 319.5356
1327.766, 319.4771
1329.695, 319.7011
1331.623, 319.8141
1333.552, 319.5807
1335.480, 319.0634
1337.408, 318.0385
1339.337, 317.2265
1341.265, 316.5157
1343.194, 316.8476
1345.122, 318.8885
1347.051, 319.4684
1348.979, 318.3657
1350.908, 316.8805
1352.836, 315.2253
1354.765, 314.7047
1356.693, 315.0200
1358.622, 315.8979
1360.550, 316.4751
1362.479, 314.9411
1364.407, 313.3934
1366.335, 313.8645
1368.264, 314.4628
1370.192, 314.6165
1372.121, 313.6101
1374.049, 310.4150
1375.978, 308.2566
1377.906, 307.8978
1379.835, 307.8994
1381.763, 308.2664
1383.692, 308.1452
1385.620, 307.6082
1387.549, 306.9521
1389.477, 306.3593
1391.406, 306.1888
1393.334, 306.4215
1395.262, 307.5351
1397.191, 308.2957
1399.119, 307.7080
1401.048, 306.9009
1402.976, 306.2720
1404.905, 305.3697
1406.833, 305.3763
1408.762, 303.9057
1410.690, 305.6367
1412.619, 306.9129
1414.547, 307.5103
1416.476, 306.4922
1418.404, 304.6968
1420.333, 303.8018
1422.261, 303.5736
1424.189, 304.5719
1426.118, 304.8122
1428.046, 301.8017
1429.975, 299.6403
1431.903, 299.6592
1433.832, 300.8702
1435.760, 303.6861
1437.689, 302.4761
1439.617, 297.4601
1441.546, 296.9475
1443.474, 299.5112
1445.403, 300.0641
1447.331, 298.9085
1449.260, 294.9978
1451.188, 291.7501
1453.116, 292.6676
1455.045, 294.0215
1456.973, 294.6198
1458.902, 294.2734
1460.830, 294.2594
1462.759, 293.6775
1464.687, 292.5528
1466.616, 292.1087
1468.544, 290.5894
1470.473, 289.8265
1472.401, 289.1433
1474.330, 287.0117
1476.258, 285.1265
1478.187, 284.6300
1480.115, 284.9664
1482.043, 286.7205
1483.972, 286.6178
1485.900, 283.3255
1487.829, 281.3799
1489.757, 280.8718
1491.686, 279.9872
1493.614, 279.0056
1495.543, 278.8867
1497.471, 278.9864
1499.400, 278.8426
1501.328, 278.0042
1503.257, 275.7129
1505.185, 274.2002
1507.114, 274.1366
1509.042, 274.5606
1510.970, 275.3372
1512.899, 275.4756
1514.827, 274.9799
1516.756, 273.5544
1518.684, 271.9555
1520.613, 271.5141
1522.541, 271.1657
1524.470, 269.9953
1526.398, 268.9294
1528.327, 268.1396
1530.255, 267.7685
1532.184, 267.8292
1534.112, 268.1770
1536.041, 268.5034
1537.969, 267.3901
1539.897, 265.8312
1541.826, 264.8230
1543.754, 264.7627
1545.683, 266.6279
1547.611, 268.2268
1549.540, 269.3539
1551.468, 268.4833
1553.397, 265.4729
1555.325, 263.7973
1557.254, 263.2154
1559.182, 262.6839
1561.111, 262.2420
1563.039, 261.8617
1564.968, 261.7820
1566.896, 262.4538
1568.824, 262.8559
1570.753, 262.9833
1572.681, 261.9619
1574.610, 259.7963
1576.538, 257.7378
1578.467, 256.2844
1580.395, 257.2825
1582.324, 258.6758
1584.252, 259.0411
1586.181, 258.7850
1588.109, 257.7974
1590.038, 257.3658
1591.966, 257.9030
1593.895, 256.3736
1595.823, 256.7036
1597.751, 254.4779
1599.680, 256.0901
1601.608, 255.2319
1603.537, 254.1409
1605.465, 253.8667
1607.394, 253.1022
1609.322, 251.4681
1611.251, 251.2676
1613.179, 252.2067
1615.108, 251.7989
1617.036, 250.6819
1618.965, 249.7024
1620.893, 248.7200
1622.822, 248.2165
1624.750, 247.7629
1626.678, 247.3774
1628.607, 247.4326
1630.535, 246.9606
1632.464, 246.9664
1634.392, 246.8322
1636.321, 245.0903
1638.249, 243.5082
1640.178, 243.7774
1642.106, 243.4185
1644.035, 241.8553
1645.963, 241.1869
1647.892, 241.3606
1649.820, 241.6607
1651.749, 241.6409
1653.677, 240.0809
1655.605, 238.9490
1657.534, 240.3515
1659.462, 240.3388
1661.391, 237.8648
1663.319, 237.0478
1665.248, 237.4732
1667.176, 236.4031
1669.105, 235.1969
1671.033, 236.0648
1672.962, 236.1457
1674.890, 233.0261
1676.819, 231.7915
1678.747, 233.2824
1680.676, 233.8291
1682.604, 233.4749
1684.532, 231.6772
1686.461, 230.1523
1688.389, 230.6534
1690.318, 230.7301
1692.246, 229.4079
1694.175, 228.7168
1696.103, 228.7254
1698.032, 228.1306
1699.960, 227.4868
1701.889, 228.2424
1703.817, 228.4305
1705.746, 226.8025
1707.674, 225.6592
1709.603, 225.4402
1711.531, 225.0694
1713.459, 224.4536
1715.388, 223.2065
1717.316, 222.0334
1719.245, 221.5563
1721.173, 221.7034
1723.102, 220.3926
1725.030, 221.6396
1726.959, 218.9268
1728.887, 218.1250
1730.816, 218.3486
1732.744, 218.8294
1734.673, 218.9451
1736.601, 218.1593
1738.530, 218.1950
1740.458, 218.9879
1742.386, 216.9294
1744.315, 213.9285
1746.243, 213.4946
1748.172, 213.9112
1750.100, 214.4945
1752.029, 214.7095
1753.957, 214.4990
1755.886, 213.5880
1757.814, 212.3546
1759.743, 211.8098
1761.671, 211.3516
1763.600, 210.7977
1765.528, 209.5624
1767.457, 209.1720
1769.385, 206.6790
1771.313, 207.6470
1773.242, 206.4186
1775.170, 205.1413
1777.099, 205.7658
1779.027, 205.9630
1780.956, 204.9211
1782.884, 204.1179
1784.813, 203.6581
1786.741, 204.5972
1788.670, 204.8693
1790.598, 202.5354
1792.527, 200.0777
1794.455, 198.0703
1796.384, 197.3060
1798.312, 197.4438
1800.240, 197.4887
1802.169, 197.4154
1804.097, 197.3159
1806.026, 196.6566
1807.954, 195.2773
1809.883, 194.3887
1811.811, 194.2014
1813.740, 195.6522
1815.668, 197.1760
1817.597, 198.0842
1819.525, 196.9296
1821.454, 193.5316
1823.382, 191.7309
1825.311, 191.3368
1827.239, 191.9881
1829.167, 192.5309
1831.096, 192.2397
1833.024, 191.3033
1834.953, 189.8172
1836.881, 189.2887
1838.810, 188.9795
1840.738, 187.1533
1842.667, 185.8667
1844.595, 186.7079
1846.524, 187.0740
1848.452, 186.8341
1850.381, 185.2664
1852.309, 184.0449
1854.238, 185.9243
1856.166, 186.9836
1858.094, 185.0506
1860.023, 184.9387
1861.951, 186.0365
1863.880, 185.9224
1865.808, 185.2746
1867.737, 184.3690
1869.665, 183.7386
1871.594, 182.6013
1873.522, 182.2330
1875.451, 180.3424
1877.379, 178.9367
1879.308, 177.8765
1881.236, 177.0249
1883.165, 177.2818
1885.093, 178.4386
1887.021, 179.1986
1888.950, 178.7491
1890.878, 175.4675
1892.807, 173.1379
1894.735, 172.6402
1896.664, 173.4782
1898.592, 174.8055
1900.521, 175.0079
1902.449, 174.7340
1904.378, 174.3297
1906.306, 173.4269
1908.235, 172.1754
1910.163, 171.5786
1912.092, 171.3479
1914.020, 170.4252
1915.948, 170.9837
1917.877, 169.5114
1919.805, 169.0387
1921.734, 169.2503
1923.662, 169.5745
1925.591, 169.7730
1927.519, 169.7019
1929.448, 169.9480
1931.376, 170.0394
1933.305, 167.0097
1935.233, 164.2885
1937.162, 165.1111
1939.090, 166.4133
1941.019, 167.7140
1942.947, 165.7923
1944.875, 163.2253
1946.804, 163.7464
1948.732, 164.0505
1950.661, 162.8180
1952.589, 162.1502
1954.518, 161.9554
1956.446, 162.7592
1958.375, 162.1987
1960.303, 162.2620
1962.232, 161.3105
1964.160, 161.2239
1966.089, 159.6647
1968.017, 159.5383
1969.946, 158.5084
1971.874, 158.5587
1973.802, 157.3384
1975.731, 156.3421
1977.659, 156.1297
1979.588, 157.9399
1981.516, 158.6082
1983.445, 157.4360
1985.373, 155.8986
1987.302, 154.3946
1989.230, 153.0340
1991.159, 153.0987
1993.087, 154.9745
1995.016, 156.0043
1996.944, 155.9377
1998.873, 153.7714
2000.801, 152.2365
2002.729, 152.4488
2004.658, 151.6630
2006.586, 150.3610
2008.515, 150.6458
2010.443, 150.8607
2012.372, 150.0286
2014.300, 149.0953
2016.229, 148.4225
2018.157, 149.5788
2020.086, 150.1964
2022.014, 148.2337
2023.943, 146.0633
2025.871, 144.1416
2027.800, 144.0899
2029.728, 144.7426
2031.656, 145.6498
2033.585, 146.0413
2035.513, 145.8836
2037.442, 145.1754
2039.370, 144.2723
2041.299, 143.2236
2043.227, 142.7888
2045.156, 142.9289
2047.084, 142.7249
2049.013, 142.8269
2050.941, 144.2988
2052.870, 143.3924
2054.798, 140.2421
2056.727, 140.2114
2058.655, 140.7312
2060.583, 139.8672
2062.512, 139.3879
2064.440, 139.2558
2066.369, 136.7625
2068.297, 134.4334
2070.226, 133.9933
2072.154, 134.6999
2074.083, 136.0926
2076.011, 136.6080
2077.940, 136.0855
2079.868, 134.0855
2081.797, 133.0040
2083.725, 132.9610
2085.654, 131.9194
2087.582, 131.8781
2089.510, 131.7816
2091.439, 131.7263
2093.367, 132.8690
2095.296, 132.8456
2097.224, 132.1007
2099.153, 130.7052
2101.081, 129.6284
2103.010, 128.7669
2104.938, 127.2653
2106.867, 126.9014
2108.795, 128.8831
2110.724, 128.3509
2112.652, 126.4107
2114.581, 124.9521
2116.509, 124.0545
2118.438, 123.6292
2120.366, 125.7979
2122.294, 127.9691
2124.223, 126.4892
2126.151, 125.2803
2128.080, 125.1381
2130.008, 123.1683
2131.937, 121.4187
2133.865, 121.8989
2135.794, 122.1281
2137.722, 121.7840
2139.651, 120.7808
2141.579, 120.3842
2143.508, 119.7744
2145.436, 119.6118
2147.365, 119.0699
2149.293, 119.5475
2151.221, 120.1513
2153.150, 120.0746
2155.078, 119.6637
2157.007, 118.9369
2158.935, 118.5275
2160.864, 116.7589
2162.792, 117.2330
2164.721, 116.2150
2166.649, 115.4933
2168.578, 115.5184
2170.506, 115.3029
2172.435, 115.1676
2174.363, 115.1814
2176.292, 115.2629
2178.220, 113.9712
2180.148, 113.3969
2182.077, 113.5259
2184.005, 112.2479
2185.934, 111.8914
2187.862, 110.9067
2189.791, 110.2316
2191.719, 110.4208
2193.648, 109.1276
2195.576, 108.8897
2197.505, 109.6431
2199.433, 109.7099
2201.362, 109.3939
2203.290, 108.3098
2205.219, 109.6104
2207.147, 111.0945
2209.075, 107.4465
2211.004, 106.1091
2212.932, 109.0723
2214.861, 107.9909
2216.789, 106.0751
2218.718, 106.0607
2220.646, 105.3251
2222.575, 104.0226
2224.503, 103.4677
2226.432, 103.6011
2228.360, 104.4567
2230.289, 104.9279
2232.217, 104.6008
2234.146, 102.5278
2236.074, 101.8703
2238.002, 102.6995
2239.931, 102.4246
2241.859, 102.1311
2243.788, 102.3636
2245.716, 101.5824
2247.645, 100.5197
2249.573, 100.4016
2251.502, 100.8765
2253.430, 101.5820
2255.359, 100.5457
2257.287, 99.71597
2259.216, 100.4285
2261.144, 100.1267
2263.073, 99.24175
2265.001, 98.56774
2266.929, 98.52983
2268.858, 98.96046
2270.786, 98.01524
2272.715, 97.02596
2274.643, 97.10084
2276.572, 96.31980
2278.500, 95.28207
2280.429, 94.91783
2282.357, 95.21972
2284.286, 95.97142
2286.214, 94.43076
2288.143, 93.71171
2290.071, 96.42764
2292.000, 96.43605
2293.928, 95.02840
2295.856, 94.31705
2297.785, 92.59199
2299.713, 90.30582
2301.642, 92.87739
2303.570, 94.68923
2305.499, 93.14304
2307.427, 93.00263
2309.356, 92.62791
2311.284, 89.58073
2313.213, 88.59238
2315.141, 89.51595
2317.070, 90.24240
2318.998, 90.15652
2320.927, 90.22245
2322.855, 89.93418
2324.783, 89.20789
2326.712, 88.77483
2328.640, 87.73521
2330.569, 86.89293
2332.497, 88.25350
2334.426, 89.00439
2336.354, 88.65291
2338.283, 86.98018
2340.211, 86.02518
2342.140, 86.73956
2344.068, 86.43827
2345.997, 85.79124
2347.925, 85.79693
2349.854, 85.04857
2351.782, 83.88424
2353.710, 82.92620
2355.639, 83.43836
2357.567, 83.20892
2359.496, 84.64796
2361.424, 83.99052
2363.353, 85.19128
2365.281, 85.28001
2367.210, 85.11843
2369.138, 85.79787
2371.067, 85.80684
2372.995, 85.32160
2374.924, 85.02850
2376.852, 85.27135
2378.781, 85.79509
2380.709, 85.23538
2382.637, 84.86209
2384.566, 84.07812
2386.494, 83.76588
2388.423, 82.33643
2390.351, 82.78824
2392.280, 82.49746
2394.208, 81.52369
2396.137, 79.69736
2398.065, 80.27966
2399.994, 82.67878
2401.922, 81.83212
2403.851, 80.40163
2405.779, 79.36159
2407.708, 79.31876
2409.636, 79.36936
2411.564, 78.90979
2413.493, 78.92805
2415.421, 80.41513
2417.350, 78.84718
2419.278, 78.68848
2421.207, 79.08787
2423.135, 77.11050
2425.064, 76.77837
2426.992, 78.12057
2428.921, 78.86943
2430.849, 78.45833
2432.778, 76.80769
2434.706, 75.53661
2436.635, 74.71719
2438.563, 74.50173
2440.491, 74.39928
2442.420, 74.47932
2444.348, 74.84458
2446.277, 75.40105
2448.205, 75.48393
2450.134, 74.12728
2452.062, 71.90566
2453.991, 69.87405
2455.919, 71.15379
2457.848, 71.50578
2459.776, 70.54581
2461.705, 72.33450
2463.633, 72.69408
2465.562, 70.40804
2467.490, 69.82627
2469.418, 69.72944
2471.347, 69.48853
2473.275, 69.05669
2475.204, 68.64539
2477.132, 68.45686
2479.061, 67.38605
2480.989, 67.30917
2482.918, 66.38482
2484.846, 66.27052
2486.775, 66.50385
2488.703, 65.60802
2490.632, 66.36022
2492.560, 68.07584
2494.489, 68.63323
2496.417, 67.28908
2498.345, 65.10785
2500.274, 66.85638
2502.202, 66.88089
2504.131, 64.41695
2506.059, 64.59001
2507.988, 64.49580
2509.916, 63.06796
2511.845, 63.08936
2513.773, 62.85797
2515.702, 61.29200
2517.630, 61.68334
2519.559, 61.61670
2521.487, 59.04650
2523.416, 59.16431
2525.344, 60.43230
2527.272, 61.61052
2529.201, 61.95649
2531.129, 61.88661
2533.058, 61.87632
2534.986, 61.23976
2536.915, 60.59037
2538.843, 60.70725
2540.772, 61.66625
2542.700, 62.07458
2544.629, 61.84210
2546.557, 59.38902
2548.486, 61.45129
2550.414, 58.92303
2552.343, 59.01510
2554.271, 60.64686
2556.199, 58.64998
2558.128, 57.60180
2560.056, 57.91538
2561.985, 56.43943
2563.913, 58.23824
2565.842, 55.71597
2567.770, 57.05514
2569.699, 58.35755
2571.627, 58.75634
2573.556, 58.17217
2575.484, 57.58883
2577.413, 57.04847
2579.341, 55.10876
2581.270, 55.26728
2583.198, 54.75309
2585.126, 54.34265
2587.055, 55.35614
2588.983, 54.40688
2590.912, 56.02338
2592.840, 56.46899
2594.769, 55.26536
2596.697, 56.16561
2598.626, 56.72817
2600.554, 56.43635
2602.483, 56.28316
2604.411, 55.81755
2606.340, 55.01898
2608.268, 54.61566
2610.197, 53.69710
2612.125, 52.38628
2614.053, 53.42562
2615.982, 51.88020
2617.910, 52.42473
2619.839, 50.50301
2621.767, 52.53760
2623.696, 52.65944
2625.624, 51.61916
2627.553, 50.71365
2629.481, 50.16407
2631.410, 49.13293
2633.338, 49.88646
2635.267, 51.99476
2637.195, 53.33137
2639.124, 52.89133
2641.052, 51.20085
2642.980, 49.54658
2644.909, 49.38780
2646.837, 49.91819
2648.766, 48.71371
2650.694, 48.11306
2652.623, 48.38188
2654.551, 50.14134
2656.480, 48.39679
2658.408, 49.25114
2660.337, 48.73872
2662.265, 49.15724
2664.194, 48.26505
2666.122, 48.20353
2668.051, 48.42144
2669.979, 48.09876
2671.907, 48.37806
2673.836, 47.42395
2675.764, 48.42769
2677.693, 46.93834
2679.621, 46.15681
2681.550, 46.64338
2683.478, 45.71133
2685.407, 47.25727
2687.335, 45.78489
2689.264, 45.31982
2691.192, 46.54871
2693.121, 47.32338
2695.049, 46.93941
2696.978, 46.06435
2698.906, 45.08812
2700.834, 44.30916
2702.763, 44.36004
2704.691, 44.75687
2706.620, 45.36341
2708.548, 45.15376
2710.477, 45.14398
2712.405, 44.95807
2714.334, 44.41697
2716.262, 44.26272
2718.191, 43.72650
2720.119, 41.31873
2722.048, 40.73862
2723.976, 41.42527
2725.905, 43.08815
2727.833, 42.96835
2729.761, 42.27439
2731.690, 41.75646
2733.618, 42.49067
2735.547, 43.33874
2737.475, 43.69741
2739.404, 43.85318
2741.332, 41.77678
2743.261, 43.69588
2745.189, 41.90260
2747.118, 41.66326
2749.046, 42.48545
2750.975, 41.75966
2752.903, 40.63445
2754.832, 40.45395
2756.760, 42.64344
2758.688, 42.75437
2760.617, 41.74675
2762.545, 40.48855
2764.474, 40.33515
2766.402, 39.56358
2768.331, 39.68607
2770.259, 39.36966
2772.188, 39.85948
2774.116, 41.06840
2776.045, 40.61848
2777.973, 40.21165
2779.902, 39.70064
2781.830, 39.36020
2783.759, 39.07801
2785.687, 38.92305
2787.615, 38.77185
2789.544, 38.90581
2791.472, 39.09026
2793.401, 39.29192
2795.329, 41.24883
2797.258, 40.47128
2799.186, 37.51995
2801.115, 38.98737
2803.043, 38.05690
2804.972, 37.48325
2806.900, 36.81201
2808.829, 36.17478
2810.757, 34.60362
2812.686, 35.60989
2814.614, 35.56369
2816.542, 36.52383
2818.471, 38.74274
2820.399, 36.67339
2822.328, 36.66304
2824.256, 38.02358
2826.185, 34.84369
2828.113, 35.16573
2830.042, 36.45156
2831.970, 35.26503
2833.899, 35.98872
2835.827, 36.00620
2837.756, 34.54082
2839.684, 36.00732
2841.613, 37.42259
2843.541, 37.40887
2845.469, 34.00745
2847.398, 32.64415
2849.326, 33.04360
2851.255, 34.39832
2853.183, 35.78173
2855.112, 36.18049
2857.040, 35.19475
2858.969, 34.30870
2860.897, 34.78273
2862.826, 36.14857
2864.754, 37.09193
2866.683, 36.78388
2868.611, 32.54684
2870.540, 35.81486
2872.468, 34.40207
2874.396, 33.37826
2876.325, 34.63376
2878.253, 34.79323
2880.182, 34.28217
2882.110, 34.10246
2884.039, 35.89529
2885.967, 34.74154
2887.896, 34.41162
2889.824, 36.85533
2891.753, 36.13847
2893.681, 33.80420
2895.610, 31.93823
2897.538, 35.34125
2899.467, 35.43176
2901.395, 34.25434
2903.323, 34.73441
2905.252, 35.27822
2907.180, 34.80558
2909.109, 33.48881
2911.037, 33.34922
2912.966, 33.38268
2914.894, 33.27715
2916.823, 32.88199
2918.751, 31.85229
2920.680, 32.18066
2922.608, 34.35182
2924.537, 33.50724
2926.465, 35.93435
2928.394, 38.20815
2930.322, 33.20490
2932.250, 32.58976
2934.179, 33.48750
2936.107, 33.64579
2938.036, 33.01131
2939.964, 33.09575
2941.893, 33.63937
2943.821, 33.68371
2945.750, 34.46215
2947.678, 34.34776
2949.607, 32.92643
2951.535, 33.87822
2953.464, 32.89777
2955.392, 30.57538
2957.321, 29.15640
2959.249, 32.02352
2961.177, 33.13840
2963.106, 30.64386
2965.034, 31.25846
2966.963, 31.79833
2968.891, 32.11935
2970.820, 33.11236
2972.748, 34.39564
2974.677, 33.53637
2976.605, 30.74607
2978.534, 32.37755
2980.462, 32.68422
2982.391, 32.21126
2984.319, 32.79250
2986.248, 31.63847
2988.176, 31.20469
2990.104, 31.63358
2992.033, 30.40734
2993.961, 30.93849
2995.890, 32.18375
2997.818, 32.86821
2999.747, 32.69847
3001.675, 33.08001
3003.604, 32.15507
3005.532, 32.47967
3007.461, 32.46188
3009.389, 31.57257
3011.318, 30.08376
3013.246, 31.19349
3015.175, 31.29352
3017.103, 31.14695
3019.031, 32.06449
3020.960, 31.40358
3022.888, 31.31448
3024.817, 31.53864
3026.745, 29.27144
3028.674, 29.16966
3030.602, 29.84776
3032.531, 30.32497
3034.459, 31.19150
3036.388, 31.35387
3038.316, 32.83979
3040.245, 31.48176
3042.173, 31.88183
3044.102, 31.38154
3046.030, 29.54542
3047.958, 26.86687
3049.887, 27.88146
3051.815, 29.08639
3053.744, 28.80492
3055.672, 30.58406
3057.601, 28.88263
3059.529, 27.50167
3061.458, 29.93514
3063.386, 28.97831
3065.315, 28.56288
3067.243, 28.41615
3069.172, 26.44225
3071.100, 29.40234
3073.029, 31.30600
3074.957, 30.40029
3076.885, 29.01433
3078.814, 27.95194
3080.742, 28.49472
3082.671, 30.67187
3084.599, 32.22526
3086.528, 31.10012
3088.456, 28.56844
3090.385, 26.30676
3092.313, 28.83717
3094.242, 29.75365
3096.170, 28.76150
3098.099, 27.08183
3100.027, 29.47833
3101.956, 30.16131
3103.884, 29.02152
3105.813, 29.57159
3107.741, 28.89950
3109.669, 27.55415
3111.598, 26.39533
3113.526, 26.98350
3115.455, 26.34731
3117.383, 26.74865
3119.312, 28.40882
3121.240, 24.53324
3123.169, 24.67722
3125.097, 27.03563
3127.026, 29.08679
3128.954, 28.60312
3130.883, 28.75411
3132.811, 28.07023
3134.740, 27.96731
3136.668, 27.06278
3138.596, 27.31775
3140.525, 26.32804
3142.453, 25.54389
3144.382, 25.82562
3146.310, 25.27471
3148.239, 24.85692
3150.167, 26.37580
3152.096, 28.61101
3154.024, 27.61004
3155.953, 25.34182
3157.881, 26.58352
3159.810, 24.87830
3161.738, 24.96637
3163.667, 26.64153
3165.595, 27.49492
3167.523, 26.70700
3169.452, 24.82007
3171.380, 23.57590
3173.309, 25.35475
3175.237, 26.00745
3177.166, 25.44097
3179.094, 24.13343
3181.023, 22.73657
3182.951, 22.06624
3184.880, 21.58665
3186.808, 21.91616
3188.737, 21.28763
3190.665, 22.71517
3192.594, 21.24726
3194.522, 21.24643
3196.450, 22.38168
3198.379, 22.77841
3200.307, 23.06991
3202.236, 23.13232
3204.164, 22.33616
3206.093, 25.77713
3208.021, 26.44155
3209.950, 24.50012
3211.878, 22.85024
3213.807, 19.87590
3215.735, 21.13402
3217.664, 22.98095
3219.592, 19.81183
3221.521, 19.36341
3223.449, 20.64304
3225.377, 20.88096
3227.306, 18.29163
3229.234, 22.73891
3231.163, 21.02279
3233.091, 18.30634
3235.020, 19.66625
3236.948, 22.03041
3238.877, 20.79043
3240.805, 18.90138
3242.734, 18.34576
3244.662, 18.39373
3246.591, 18.60976
3248.519, 19.08812
3250.448, 19.50692
3252.376, 18.71613
3254.304, 20.84055
3256.233, 19.85149
3258.161, 16.73784
3260.090, 16.97611
3262.018, 17.56172
3263.947, 18.43606
3265.875, 18.06745
3267.804, 14.85564
3269.732, 16.02683
3271.661, 15.25222
3273.589, 15.39978
3275.518, 18.91962
3277.446, 18.83460
3279.375, 17.69821
3281.303, 16.92846
3283.231, 16.79527
3285.160, 16.33866
3287.088, 17.40903
3289.017, 19.05082
3290.945, 19.42293
3292.874, 16.69216
3294.802, 15.58548
3296.731, 17.26835
3298.659, 18.64248
3300.588, 17.14476
3302.516, 16.64920
3304.445, 15.41719
3306.373, 14.82412
3308.302, 15.23716
3310.230, 14.42252
3312.158, 14.79294
3314.087, 14.61925
3316.015, 15.38280
3317.944, 14.81900
3319.872, 15.25475
3321.801, 16.09532
3323.729, 15.97764
3325.658, 14.29255
3327.586, 13.54887
3329.515, 13.59900
3331.443, 14.91963
3333.372, 16.38721
3335.300, 15.19289
3337.229, 14.10681
3339.157, 13.57837
3341.085, 12.77002
3343.014, 12.58790
3344.942, 13.01243
3346.871, 12.76691
3348.799, 14.41829
3350.728, 15.27491
3352.656, 15.92057
3354.585, 10.32970
3356.513, 10.36931
3358.442, 12.54737
3360.370, 10.70686
3362.299, 14.86453
3364.227, 13.92844
3366.156, 14.36543
3368.084, 16.34729
3370.012, 11.23758
3371.941, 4.119438
3373.869, 4.511824
3375.798, 8.732713
3377.726, 10.98877
3379.655, 10.57824
3381.583, 12.19315
3383.512, 13.58791
3385.440, 13.51921
3387.369, 12.07593
3389.297, 11.48644
3391.226, 10.45942
3393.154, 10.51869
3395.083, 9.865928
3397.011, 11.45846
3398.939, 9.780716
3400.868, 9.190231
3402.796, 10.44054
3404.725, 9.498539
3406.653, 11.77476
3408.582, 10.25865
3410.510, 11.56928
3412.439, 13.43817
3414.367, 10.73194
3416.296, 13.27230
3418.224, 10.45809
3420.153, 10.32423
3422.081, 15.08120
3424.010, 13.24528
3425.938, 12.23132
3427.866, 12.45834
3429.795, 13.09200
3431.723, 13.50634
3433.652, 14.45445
3435.580, 14.10309
3437.509, 12.49912
3439.437, 11.48219
3441.366, 12.48298
3443.294, 12.58773
3445.223, 12.49758
3447.151, 12.70478
3449.080, 13.06324
3451.008, 13.05662
3452.937, 11.62274
3454.865, 10.55139
3456.793, 10.47856
3458.722, 10.86797
##END=



