##NAMES=Edingtonite
##RRUFFID=R040110
##IDEAL CHEMISTRY=Ba(Si_3_Al_2_)O_10_·4H_2_O
##LOCALITY=2350 level, Brunswick 12 mine, Bathhurst, New Brunswick, Canada
##OWNER=RRUFF
##SOURCE=National Museums of Canada
##DESCRIPTION=Colorless rectangular prism
##STATUS=The identification of this mineral has been confirmed by X-ray diffraction and chemical analysis
##URL=https://www.rruff.net/odr/rruff_sample/R040110
##MEASURED CHEMISTRY=Ba_1.00_(Si_3.00_Al_2.00_)O_10_·4H_2_O
##DIFFRACTION SAMPLE DESCRIPTION=Powder
##CELL PARAMETERS=a: 9.529 b: 9.6449 c: 6.5103 alpha: 90 beta: 90 gamma: 90 volume: 598.34 crystal system: orthorhombic
##FILETYPE=Raman RAW
##RAMAN WAVELENGTH=785

136.8899, 2044.061
138.8184, 2370.542
140.7468, 2731.374
142.6753, 3146.676
144.6038, 3566.023
146.5322, 3942.673
148.4607, 4274.066
150.3892, 4530.956
152.3176, 4714.771
154.2461, 4798.209
156.1746, 4744.569
158.1030, 4637.313
160.0315, 4504.621
161.9600, 4356.022
163.8884, 4206.086
165.8169, 4057.174
167.7454, 3914.481
169.6738, 3770.815
171.6023, 3642.256
173.5308, 3536.598
175.4592, 3443.466
177.3877, 3356.413
179.3162, 3274.788
181.2446, 3196.532
183.1731, 3115.334
185.1016, 3055.976
187.0300, 3031.090
188.9585, 3005.486
190.8870, 2963.671
192.8154, 2920.789
194.7439, 2888.212
196.6724, 2863.804
198.6008, 2840.446
200.5293, 2819.518
202.4578, 2795.766
204.3862, 2762.584
206.3147, 2736.717
208.2432, 2731.188
210.1716, 2734.779
212.1001, 2734.678
214.0286, 2730.824
215.9570, 2735.980
217.8855, 2753.824
219.8140, 2775.604
221.7424, 2789.881
223.6709, 2818.176
225.5994, 2881.335
227.5278, 2953.246
229.4563, 3014.473
231.3848, 3061.276
233.3132, 3085.539
235.2417, 3082.968
237.1702, 3054.926
239.0986, 2983.360
241.0271, 2908.402
242.9556, 2839.789
244.8840, 2780.548
246.8125, 2735.919
248.7410, 2701.475
250.6694, 2662.249
252.5979, 2615.531
254.5264, 2581.329
256.4548, 2559.161
258.3833, 2546.359
260.3118, 2551.365
262.2402, 2562.198
264.1687, 2564.270
266.0972, 2563.023
268.0256, 2578.657
269.9541, 2620.415
271.8826, 2641.010
273.8110, 2613.992
275.7395, 2594.764
277.6680, 2596.296
279.5964, 2606.915
281.5249, 2627.065
283.4534, 2640.781
285.3818, 2629.776
287.3103, 2599.914
289.2388, 2578.925
291.1672, 2561.406
293.0957, 2550.137
295.0242, 2552.324
296.9526, 2556.028
298.8811, 2551.514
300.8096, 2547.858
302.7380, 2553.729
304.6665, 2564.874
306.5950, 2573.438
308.5234, 2580.403
310.4519, 2587.379
312.3804, 2598.924
314.3088, 2598.226
316.2373, 2558.782
318.1658, 2526.302
320.0942, 2528.113
322.0227, 2546.970
323.9512, 2560.168
325.8796, 2568.175
327.8081, 2574.187
329.7366, 2576.903
331.6650, 2579.585
333.5935, 2580.296
335.5220, 2587.839
337.4504, 2605.344
339.3789, 2624.472
341.3074, 2643.942
343.2358, 2665.123
345.1643, 2684.318
347.0928, 2699.098
349.0212, 2709.704
350.9497, 2711.878
352.8782, 2716.885
354.8066, 2733.172
356.7351, 2743.512
358.6636, 2737.199
360.5920, 2732.906
362.5205, 2747.677
364.4490, 2764.525
366.3774, 2766.651
368.3059, 2761.648
370.2344, 2760.444
372.1628, 2757.715
374.0913, 2763.469
376.0198, 2783.923
377.9482, 2797.385
379.8767, 2792.065
381.8052, 2787.989
383.7336, 2796.470
385.6621, 2810.335
387.5906, 2824.698
389.5190, 2837.725
391.4475, 2844.792
393.3760, 2847.171
395.3044, 2855.637
397.2329, 2870.638
399.1614, 2890.660
401.0898, 2924.101
403.0183, 2949.084
404.9468, 2950.393
406.8752, 2944.558
408.8037, 2945.145
410.7322, 2956.162
412.6606, 2981.388
414.5891, 3015.947
416.5176, 3038.791
418.4460, 3046.179
420.3745, 3062.362
422.3030, 3099.904
424.2314, 3132.326
426.1599, 3150.075
428.0884, 3167.365
430.0168, 3205.283
431.9453, 3233.552
433.8738, 3206.540
435.8022, 3149.123
437.7307, 3116.068
439.6592, 3109.376
441.5876, 3088.428
443.5161, 3043.371
445.4446, 2998.544
447.3730, 2949.635
449.3015, 2909.729
451.2300, 2886.514
453.1584, 2868.899
455.0869, 2853.598
457.0154, 2836.901
458.9438, 2808.011
460.8723, 2774.199
462.8008, 2766.717
464.7292, 2789.945
466.6577, 2815.765
468.5862, 2845.923
470.5146, 2866.489
472.4431, 2868.356
474.3716, 2881.476
476.3000, 2919.291
478.2285, 2965.806
480.1570, 3011.472
482.0854, 3062.792
484.0139, 3132.624
485.9424, 3213.008
487.8708, 3275.480
489.7993, 3318.770
491.7278, 3378.108
493.6563, 3458.737
495.5847, 3539.072
497.5132, 3609.294
499.4417, 3687.440
501.3701, 3762.022
503.2986, 3878.678
505.2271, 4045.930
507.1555, 4261.408
509.0840, 4515.299
511.0125, 4829.449
512.9409, 5243.040
514.8694, 5746.909
516.7979, 6343.596
518.7263, 7034.637
520.6548, 7757.985
522.5833, 8549.026
524.5117, 9180.101
526.4402, 9678.438
528.3687, 9926.978
530.2971, 9811.061
532.2256, 9491.558
534.1541, 8959.655
536.0825, 8302.059
538.0110, 7619.608
539.9395, 6909.379
541.8679, 6256.292
543.7964, 5661.325
545.7249, 5112.452
547.6533, 4620.147
549.5818, 4205.438
551.5103, 3868.568
553.4387, 3588.045
555.3672, 3369.205
557.2957, 3180.371
559.2241, 3012.451
561.1526, 2872.945
563.0811, 2768.639
565.0095, 2693.698
566.9380, 2646.299
568.8665, 2604.253
570.7949, 2550.402
572.7234, 2498.668
574.6519, 2472.495
576.5803, 2462.506
578.5088, 2446.978
580.4373, 2433.430
582.3657, 2423.502
584.2942, 2410.390
586.2227, 2396.348
588.1511, 2384.550
590.0796, 2377.151
592.0081, 2379.741
593.9365, 2381.699
595.8650, 2377.645
597.7935, 2375.380
599.7219, 2366.890
601.6504, 2351.783
603.5789, 2341.778
605.5073, 2331.504
607.4358, 2315.173
609.3643, 2294.033
611.2927, 2270.178
613.2212, 2249.013
615.1497, 2234.443
617.0781, 2219.373
619.0066, 2203.439
620.9351, 2199.116
622.8635, 2202.378
624.7920, 2195.751
626.7205, 2177.933
628.6489, 2160.848
630.5774, 2153.489
632.5059, 2153.408
634.4343, 2151.754
636.3628, 2140.997
638.2913, 2126.353
640.2197, 2121.974
642.1482, 2125.373
644.0767, 2136.872
646.0051, 2157.276
647.9336, 2171.425
649.8621, 2171.547
651.7905, 2159.308
653.7190, 2141.261
655.6475, 2136.156
657.5759, 2145.877
659.5044, 2150.426
661.4329, 2148.412
663.3613, 2149.364
665.2898, 2146.971
667.2183, 2133.332
669.1467, 2123.868
671.0752, 2128.536
673.0037, 2128.703
674.9321, 2123.880
676.8606, 2132.241
678.7891, 2142.578
680.7175, 2145.802
682.6460, 2144.097
684.5745, 2137.817
686.5029, 2140.353
688.4314, 2155.965
690.3599, 2179.255
692.2883, 2215.544
694.2168, 2260.557
696.1453, 2300.218
698.0737, 2328.602
700.0022, 2345.450
701.9307, 2356.240
703.8591, 2365.266
705.7876, 2373.086
707.7161, 2387.058
709.6445, 2399.018
711.5730, 2388.393
713.5015, 2355.818
715.4299, 2323.337
717.3584, 2300.295
719.2869, 2285.157
721.2153, 2270.814
723.1438, 2240.355
725.0723, 2197.107
727.0007, 2160.426
728.9292, 2128.664
730.8577, 2097.473
732.7861, 2077.260
734.7146, 2067.577
736.6431, 2058.284
738.5715, 2048.271
740.5000, 2043.328
742.4285, 2044.718
744.3569, 2043.026
746.2854, 2023.911
748.2139, 1994.146
750.1423, 1981.991
752.0708, 1986.607
753.9993, 1984.388
755.9277, 1981.259
757.8562, 1988.167
759.7847, 1990.497
761.7131, 1982.358
763.6416, 1973.641
765.5701, 1967.943
767.4985, 1961.807
769.4270, 1959.774
771.3555, 1969.973
773.2839, 1981.397
775.2124, 1974.068
777.1409, 1958.700
779.0693, 1954.283
780.9978, 1950.837
782.9263, 1950.881
784.8547, 1958.287
786.7832, 1959.729
788.7117, 1958.593
790.6401, 1957.530
792.5686, 1948.934
794.4971, 1932.194
796.4255, 1916.289
798.3540, 1915.841
800.2825, 1928.096
802.2109, 1929.049
804.1394, 1915.421
806.0679, 1905.271
807.9963, 1901.072
809.9248, 1899.567
811.8533, 1903.693
813.7817, 1911.342
815.7102, 1918.206
817.6387, 1919.163
819.5671, 1916.769
821.4956, 1911.159
823.4241, 1898.466
825.3525, 1890.318
827.2810, 1890.682
829.2095, 1890.883
831.1379, 1896.197
833.0664, 1909.380
834.9949, 1917.184
836.9233, 1912.517
838.8518, 1904.815
840.7803, 1901.750
842.7087, 1901.188
844.6372, 1903.955
846.5657, 1912.488
848.4941, 1917.657
850.4226, 1908.143
852.3511, 1893.257
854.2795, 1885.381
856.2080, 1883.342
858.1365, 1886.604
860.0649, 1891.802
861.9934, 1891.265
863.9219, 1883.789
865.8503, 1872.794
867.7788, 1862.827
869.7073, 1864.760
871.6357, 1876.848
873.5642, 1878.933
875.4927, 1872.974
877.4211, 1872.523
879.3496, 1873.540
881.2781, 1874.555
883.2065, 1878.219
885.1350, 1880.043
887.0635, 1877.195
888.9919, 1867.864
890.9204, 1856.679
892.8489, 1861.078
894.7773, 1876.437
896.7058, 1872.247
898.6343, 1851.689
900.5627, 1843.510
902.4912, 1846.687
904.4197, 1845.046
906.3481, 1840.141
908.2766, 1840.439
910.2051, 1844.878
912.1335, 1854.523
914.0620, 1868.826
915.9905, 1873.385
917.9189, 1867.822
919.8474, 1865.349
921.7759, 1866.597
923.7043, 1878.364
925.6328, 1902.759
927.5613, 1913.302
929.4897, 1906.438
931.4182, 1902.235
933.3467, 1900.531
935.2751, 1906.227
937.2036, 1920.658
939.1321, 1943.159
941.0605, 1976.222
942.9890, 2001.324
944.9175, 2013.079
946.8459, 2039.113
948.7744, 2087.029
950.7029, 2121.622
952.6313, 2140.756
954.5598, 2153.532
956.4883, 2157.602
958.4167, 2164.957
960.3452, 2177.263
962.2737, 2185.587
964.2021, 2189.452
966.1306, 2192.740
968.0591, 2193.455
969.9875, 2200.323
971.9160, 2213.071
973.8445, 2232.574
975.7729, 2260.754
977.7014, 2298.541
979.6299, 2345.434
981.5583, 2378.132
983.4868, 2395.696
985.4153, 2426.598
987.3438, 2472.475
989.2722, 2511.572
991.2007, 2542.748
993.1292, 2538.712
995.0576, 2499.001
996.9861, 2468.521
998.9146, 2449.322
1000.843, 2402.215
1002.771, 2325.699
1004.700, 2266.952
1006.628, 2228.861
1008.557, 2180.029
1010.485, 2119.872
1012.414, 2077.763
1014.342, 2052.270
1016.271, 2030.623
1018.199, 2015.691
1020.128, 2009.222
1022.056, 2009.329
1023.985, 2018.113
1025.913, 2034.875
1027.842, 2045.336
1029.770, 2053.021
1031.698, 2081.645
1033.627, 2126.141
1035.555, 2161.473
1037.484, 2193.547
1039.412, 2234.425
1041.341, 2283.312
1043.269, 2358.757
1045.198, 2446.233
1047.126, 2506.188
1049.055, 2541.103
1050.983, 2574.055
1052.912, 2604.458
1054.840, 2627.030
1056.769, 2633.194
1058.697, 2597.116
1060.625, 2536.932
1062.554, 2482.110
1064.482, 2428.851
1066.411, 2370.047
1068.339, 2310.522
1070.268, 2246.863
1072.196, 2189.999
1074.125, 2154.834
1076.053, 2128.477
1077.982, 2097.138
1079.910, 2072.009
1081.839, 2064.475
1083.767, 2064.340
1085.696, 2062.086
1087.624, 2056.401
1089.552, 2053.461
1091.481, 2059.758
1093.409, 2068.477
1095.338, 2080.199
1097.266, 2110.966
1099.195, 2125.408
1101.123, 2100.394
1103.052, 2078.692
1104.980, 2078.337
1106.909, 2060.298
1108.837, 2013.262
1110.766, 1988.624
1112.694, 1991.183
1114.623, 1983.683
1116.551, 1965.618
1118.479, 1947.889
1120.408, 1926.329
1122.336, 1924.453
1124.265, 1948.579
1126.193, 1946.087
1128.122, 1921.986
1130.050, 1907.947
1131.979, 1892.278
1133.907, 1892.443
1135.836, 1914.556
1137.764, 1928.263
1139.693, 1929.999
1141.621, 1922.379
1143.550, 1911.024
1145.478, 1915.765
1147.406, 1928.161
1149.335, 1929.571
1151.263, 1924.011
1153.192, 1918.083
1155.120, 1909.415
1157.049, 1893.454
1158.977, 1876.617
1160.906, 1865.026
1162.834, 1856.221
1164.763, 1847.295
1166.691, 1848.007
1168.620, 1857.549
1170.548, 1857.025
1172.477, 1845.296
1174.405, 1841.125
1176.333, 1849.250
1178.262, 1854.575
1180.190, 1856.140
1182.119, 1866.380
1184.047, 1883.503
1185.976, 1868.154
1187.904, 1823.845
1189.833, 1819.588
1191.761, 1844.208
1193.690, 1845.974
1195.618, 1837.373
1197.547, 1835.635
1199.475, 1835.565
1201.404, 1840.417
1203.332, 1850.823
1205.260, 1860.986
1207.189, 1860.448
1209.117, 1850.748
1211.046, 1850.235
1212.974, 1856.080
1214.903, 1858.309
1216.831, 1863.141
1218.760, 1870.953
1220.688, 1876.413
1222.617, 1876.989
1224.545, 1877.217
1226.474, 1870.951
1228.402, 1853.704
1230.331, 1840.736
1232.259, 1837.366
1234.188, 1835.714
1236.116, 1834.364
1238.044, 1844.065
1239.973, 1860.418
1241.901, 1873.869
1243.830, 1880.489
1245.758, 1879.725
1247.687, 1877.188
1249.615, 1865.939
1251.544, 1851.495
1253.472, 1843.911
1255.401, 1839.721
1257.329, 1834.768
1259.258, 1830.617
1261.186, 1827.002
1263.115, 1832.962
1265.043, 1853.051
1266.971, 1861.159
1268.900, 1853.537
1270.828, 1853.586
1272.757, 1861.899
1274.685, 1865.061
1276.614, 1866.990
1278.542, 1880.332
1280.471, 1893.835
1282.399, 1895.810
1284.328, 1895.326
1286.256, 1893.187
1288.185, 1895.381
1290.113, 1909.522
1292.042, 1920.786
1293.970, 1923.479
1295.898, 1923.087
1297.827, 1918.832
1299.755, 1916.670
1301.684, 1916.997
1303.612, 1922.813
1305.541, 1934.464
1307.469, 1932.883
1309.398, 1923.075
1311.326, 1934.892
1313.255, 1955.885
1315.183, 1959.826
1317.112, 1955.516
1319.040, 1949.534
1320.969, 1950.152
1322.897, 1965.205
1324.825, 1979.202
1326.754, 1987.341
1328.682, 1987.822
1330.611, 1980.171
1332.539, 1967.706
1334.468, 1949.030
1336.396, 1937.376
1338.325, 1931.257
1340.253, 1921.967
1342.182, 1913.213
1344.110, 1914.194
1346.039, 1917.102
1347.967, 1910.709
1349.896, 1904.664
1351.824, 1905.524
1353.752, 1910.037
1355.681, 1919.395
1357.609, 1919.697
1359.538, 1906.918
1361.466, 1893.447
1363.395, 1881.036
1365.323, 1859.486
1367.252, 1834.780
1369.180, 1854.109
1371.109, 1887.773
1373.037, 1865.860
1374.966, 1831.726
1376.894, 1832.177
1378.823, 1838.842
1380.751, 1841.893
1382.679, 1833.693
1384.608, 1805.945
1386.536, 1801.478
1388.465, 1826.948
1390.393, 1837.654
1392.322, 1833.083
1394.250, 1831.814
1396.179, 1832.471
1398.107, 1832.475
1400.036, 1830.588
1401.964, 1827.398
1403.893, 1818.545
1405.821, 1788.178
1407.750, 1778.638
1409.678, 1811.268
1411.606, 1818.017
1413.535, 1790.863
1415.463, 1785.447
1417.392, 1797.387
1419.320, 1782.656
1421.249, 1760.717
1423.177, 1773.250
1425.106, 1792.990
1427.034, 1795.521
1428.963, 1792.959
1430.891, 1791.503
1432.820, 1785.203
1434.748, 1771.050
1436.677, 1760.001
1438.605, 1752.681
1440.533, 1752.870
1442.462, 1758.430
1444.390, 1767.168
1446.319, 1771.801
1448.247, 1756.218
1450.176, 1745.152
1452.104, 1761.068
1454.033, 1772.347
1455.961, 1765.685
1457.890, 1762.837
1459.818, 1764.862
1461.747, 1771.013
1463.675, 1778.613
1465.604, 1774.392
1467.532, 1764.210
1469.460, 1751.823
1471.389, 1744.555
1473.317, 1749.658
1475.246, 1755.203
1477.174, 1759.813
1479.103, 1755.356
1481.031, 1740.017
1482.960, 1731.694
1484.888, 1729.078
1486.817, 1725.504
1488.745, 1725.768
1490.674, 1744.016
1492.602, 1755.450
1494.531, 1744.565
1496.459, 1731.383
1498.387, 1717.131
1500.316, 1732.256
1502.244, 1777.058
1504.173, 1783.751
1506.101, 1767.966
1508.030, 1767.321
1509.958, 1770.941
1511.887, 1769.998
1513.815, 1765.854
1515.744, 1758.192
1517.672, 1750.471
1519.601, 1743.266
1521.529, 1736.035
1523.458, 1729.759
1525.386, 1729.104
1527.314, 1732.523
1529.243, 1742.700
1531.171, 1747.619
1533.100, 1736.232
1535.028, 1730.794
1536.957, 1737.615
1538.885, 1724.490
1540.814, 1693.467
1542.742, 1679.993
1544.671, 1680.143
1546.599, 1689.631
1548.528, 1702.727
1550.456, 1722.353
1552.385, 1728.312
1554.313, 1712.985
1556.241, 1700.201
1558.170, 1692.788
1560.098, 1698.769
1562.027, 1709.726
1563.955, 1707.877
1565.884, 1702.131
1567.812, 1698.528
1569.741, 1696.497
1571.669, 1696.130
1573.598, 1696.262
1575.526, 1696.792
1577.455, 1697.777
1579.383, 1698.731
1581.312, 1701.562
1583.240, 1699.599
1585.168, 1678.494
1587.097, 1668.967
1589.025, 1690.120
1590.954, 1690.563
1592.882, 1671.131
1594.811, 1667.558
1596.739, 1671.623
1598.668, 1664.198
1600.596, 1662.519
1602.525, 1690.899
1604.453, 1701.831
1606.382, 1674.307
1608.310, 1656.722
1610.239, 1649.327
1612.167, 1659.866
1614.095, 1675.084
1616.024, 1678.260
1617.952, 1678.687
1619.881, 1685.833
1621.809, 1673.296
1623.738, 1631.375
1625.666, 1621.037
1627.595, 1634.538
1629.523, 1658.362
1631.452, 1674.540
1633.380, 1666.145
1635.309, 1654.213
1637.237, 1645.919
1639.166, 1630.396
1641.094, 1608.898
1643.022, 1601.986
1644.951, 1605.906
1646.879, 1621.148
1648.808, 1633.909
1650.736, 1641.120
1652.665, 1625.631
1654.593, 1583.576
1656.522, 1586.605
1658.450, 1615.974
1660.379, 1617.926
1662.307, 1616.047
1664.236, 1636.844
1666.164, 1634.902
1668.093, 1596.804
1670.021, 1590.370
1671.949, 1610.730
1673.878, 1613.590
1675.806, 1606.622
1677.735, 1594.240
1679.663, 1583.425
1681.592, 1575.080
1683.520, 1580.162
1685.449, 1595.182
1687.377, 1586.473
1689.306, 1570.508
1691.234, 1574.287
1693.163, 1575.887
1695.091, 1562.356
1697.020, 1558.162
1698.948, 1564.182
1700.876, 1566.141
1702.805, 1560.896
1704.733, 1533.284
1706.662, 1515.563
1708.590, 1536.915
1710.519, 1547.413
1712.447, 1543.625
1714.376, 1544.734
1716.304, 1548.179
1718.233, 1551.971
1720.161, 1548.376
1722.090, 1521.456
1724.018, 1516.092
1725.947, 1536.517
1727.875, 1529.479
1729.803, 1510.625
1731.732, 1508.961
1733.660, 1513.515
1735.589, 1521.026
1737.517, 1526.602
1739.446, 1530.229
1741.374, 1515.266
1743.303, 1496.109
1745.231, 1500.279
1747.160, 1506.917
1749.088, 1506.118
1751.017, 1502.038
1752.945, 1495.523
1754.874, 1504.428
1756.802, 1514.419
1758.730, 1501.069
1760.659, 1487.797
1762.587, 1483.383
1764.516, 1486.965
1766.444, 1496.044
1768.373, 1491.733
1770.301, 1483.915
1772.230, 1483.699
1774.158, 1484.289
1776.087, 1484.112
1778.015, 1479.068
1779.944, 1470.993
1781.872, 1466.951
1783.801, 1465.012
1785.729, 1464.506
1787.657, 1463.150
1789.586, 1460.445
1791.514, 1444.904
1793.443, 1428.473
1795.371, 1448.585
1797.300, 1459.698
1799.228, 1435.188
1801.157, 1425.736
1803.085, 1436.190
1805.014, 1447.041
1806.942, 1451.818
1808.871, 1438.993
1810.799, 1421.639
1812.728, 1402.382
1814.656, 1398.167
1816.584, 1406.918
1818.513, 1424.787
1820.441, 1435.098
1822.370, 1413.775
1824.298, 1408.737
1826.227, 1424.493
1828.155, 1444.833
1830.084, 1459.143
1832.012, 1453.115
1833.941, 1437.340
1835.869, 1410.888
1837.798, 1409.433
1839.726, 1422.880
1841.655, 1404.090
1843.583, 1381.588
1845.511, 1379.154
1847.440, 1384.261
1849.368, 1394.006
1851.297, 1383.055
1853.225, 1370.646
1855.154, 1392.478
1857.082, 1402.065
1859.011, 1374.938
1860.939, 1370.513
1862.868, 1381.620
1864.796, 1393.583
1866.725, 1396.785
1868.653, 1378.587
1870.582, 1371.397
1872.510, 1375.810
1874.438, 1375.921
1876.367, 1372.688
1878.295, 1362.660
1880.224, 1360.559
1882.152, 1372.778
1884.081, 1370.056
1886.009, 1360.770
1887.938, 1357.137
1889.866, 1355.600
1891.795, 1357.143
1893.723, 1345.208
1895.652, 1327.641
1897.580, 1341.681
1899.509, 1354.089
1901.437, 1344.419
1903.365, 1330.559
1905.294, 1318.537
1907.222, 1321.685
1909.151, 1325.515
1911.079, 1318.617
1913.008, 1319.480
1914.936, 1329.071
1916.865, 1313.805
1918.793, 1295.357
1920.722, 1309.893
1922.650, 1312.667
1924.579, 1296.780
1926.507, 1305.490
1928.436, 1318.027
1930.364, 1294.946
1932.292, 1286.691
1934.221, 1306.960
1936.149, 1306.107
1938.078, 1294.824
1940.006, 1298.978
1941.935, 1297.434
1943.863, 1288.196
1945.792, 1268.677
1947.720, 1244.489
1949.649, 1244.779
1951.577, 1253.744
1953.506, 1264.338
1955.434, 1256.540
1957.363, 1240.639
1959.291, 1253.573
1961.219, 1262.970
1963.148, 1247.830
1965.076, 1232.593
1967.005, 1220.151
1968.933, 1237.157
1970.862, 1258.619
1972.790, 1270.039
1974.719, 1267.290
1976.647, 1252.330
1978.576, 1225.247
1980.504, 1209.145
1982.433, 1223.226
1984.361, 1216.756
1986.290, 1197.163
1988.218, 1202.072
1990.146, 1214.637
1992.075, 1228.194
1994.003, 1219.292
1995.932, 1198.244
1997.860, 1196.900
1999.789, 1195.036
2001.717, 1182.780
2003.646, 1188.444
2005.574, 1202.634
2007.503, 1176.321
2009.431, 1158.958
2011.360, 1178.884
2013.288, 1185.991
2015.217, 1180.632
2017.145, 1178.782
2019.073, 1166.098
2021.002, 1131.037
2022.930, 1133.445
2024.859, 1157.066
2026.787, 1158.285
2028.716, 1152.863
2030.644, 1149.584
2032.573, 1151.807
2034.501, 1149.498
2036.430, 1132.806
2038.358, 1130.674
2040.287, 1147.133
2042.215, 1132.100
2044.144, 1110.438
2046.072, 1128.513
2048.000, 1127.184
2049.929, 1099.821
2051.857, 1112.341
2053.786, 1132.425
2055.714, 1120.606
2057.643, 1110.704
2059.571, 1105.646
2061.500, 1088.095
2063.428, 1075.872
2065.357, 1090.953
2067.285, 1101.521
2069.214, 1103.720
2071.142, 1085.193
2073.071, 1074.965
2074.999, 1098.544
2076.927, 1103.498
2078.856, 1091.839
2080.784, 1069.807
2082.713, 1063.565
2084.641, 1083.072
2086.570, 1082.799
2088.498, 1072.906
2090.427, 1064.767
2092.355, 1057.739
2094.284, 1052.224
2096.212, 1030.893
2098.141, 1019.508
2100.069, 1050.946
2101.998, 1055.155
2103.926, 1036.360
2105.854, 1029.531
2107.783, 1030.281
2109.711, 1039.976
2111.640, 1039.715
2113.568, 1032.499
2115.497, 1021.627
2117.425, 1015.268
2119.354, 1015.877
2121.282, 995.0772
2123.211, 984.1186
2125.139, 1016.903
2127.068, 1015.730
2128.996, 985.9520
2130.925, 1001.527
2132.853, 1011.156
2134.781, 991.8828
2136.710, 979.2919
2138.638, 976.2391
2140.567, 994.5323
2142.495, 995.9127
2144.424, 976.1157
2146.352, 971.2720
2148.281, 968.9379
2150.209, 956.7379
2152.138, 965.0947
2154.066, 983.5033
2155.995, 976.7406
2157.923, 964.6230
2159.852, 952.9337
2161.780, 954.7834
2163.708, 960.9824
2165.637, 958.9837
2167.565, 958.2055
2169.494, 956.6801
2171.422, 943.0197
2173.351, 928.6560
2175.279, 920.8535
2177.208, 916.8167
2179.136, 913.4993
2181.065, 910.4244
2182.993, 910.2479
2184.922, 914.0237
2186.850, 920.6799
2188.779, 919.4371
2190.707, 905.0565
2192.635, 906.4280
2194.564, 910.5280
2196.492, 897.9809
2198.421, 894.6610
2200.349, 903.2076
2202.278, 899.5070
2204.206, 889.3530
2206.135, 882.0239
2208.063, 878.7993
2209.992, 878.6164
2211.920, 874.5521
2213.849, 873.1089
2215.777, 880.8621
2217.706, 879.1041
2219.634, 872.0699
2221.563, 871.2406
2223.491, 867.4512
2225.419, 859.0749
2227.348, 850.2928
2229.276, 847.7597
2231.205, 852.6281
2233.133, 854.4642
2235.062, 846.5988
2236.990, 828.5679
2238.919, 832.4077
2240.847, 844.8065
2242.776, 860.7119
2244.704, 863.7116
2246.633, 855.3553
2248.561, 830.4594
2250.490, 817.3328
2252.418, 835.4603
2254.346, 835.7930
2256.275, 823.6292
2258.203, 815.3074
2260.132, 819.3401
2262.060, 829.3613
2263.989, 835.0610
2265.917, 836.1888
2267.846, 831.8228
2269.774, 819.5675
2271.703, 819.7432
2273.631, 816.2453
2275.560, 805.0778
2277.488, 807.0068
2279.417, 802.1601
2281.345, 800.9615
2283.273, 801.4490
2285.202, 790.8513
2287.130, 786.9680
2289.059, 782.7894
2290.987, 775.0450
2292.916, 765.8943
2294.844, 751.6942
2296.773, 767.1753
2298.701, 786.7134
2300.630, 789.7841
2302.558, 778.5884
2304.487, 757.1271
2306.415, 759.6420
2308.344, 759.4351
2310.272, 741.7607
2312.200, 743.1475
2314.129, 747.3541
2316.057, 740.9403
2317.986, 737.3821
2319.914, 738.9541
2321.843, 750.2899
2323.771, 743.3978
2325.700, 736.6779
2327.628, 750.3055
2329.557, 738.4041
2331.485, 717.5485
2333.414, 734.3264
2335.342, 735.3466
2337.271, 714.9690
2339.199, 703.0497
2341.127, 698.4141
2343.056, 704.3604
2344.984, 717.2244
2346.913, 716.4545
2348.841, 700.5088
2350.770, 689.2805
2352.698, 681.5463
2354.627, 678.9097
2356.555, 677.7079
2358.484, 693.1685
2360.412, 698.8559
2362.341, 691.1582
2364.269, 682.5146
2366.198, 682.3167
2368.126, 680.1705
2370.054, 690.4493
2371.983, 702.8919
2373.911, 700.9050
2375.840, 690.8492
2377.768, 672.6402
2379.697, 662.7621
2381.625, 659.0911
2383.554, 651.2891
2385.482, 649.7134
2387.411, 659.1042
2389.339, 669.3077
2391.268, 668.7207
2393.196, 657.4695
2395.125, 655.0160
2397.053, 651.6958
2398.981, 638.3068
2400.910, 625.6944
2402.838, 618.9068
2404.767, 628.4454
2406.695, 636.4998
2408.624, 624.5565
2410.552, 621.0912
2412.481, 623.3693
2414.409, 624.9609
2416.338, 616.6520
2418.266, 608.1473
2420.195, 612.8226
2422.123, 614.3877
2424.052, 617.4694
2425.980, 610.6414
2427.908, 598.4770
2429.837, 594.0056
2431.765, 595.9570
2433.694, 594.9668
2435.622, 592.1608
2437.551, 600.5306
2439.479, 605.4688
2441.408, 589.7528
2443.336, 583.8294
2445.265, 583.6601
2447.193, 580.8899
2449.122, 603.4064
2451.050, 600.7272
2452.979, 575.1855
2454.907, 581.8890
2456.835, 585.6902
2458.764, 580.9831
2460.692, 577.1326
2462.621, 565.4249
2464.549, 566.7411
2466.478, 570.5488
2468.406, 558.8622
2470.335, 546.2457
2472.263, 550.1111
2474.192, 558.2841
2476.120, 559.0338
2478.049, 550.1880
2479.977, 542.1498
2481.906, 542.8987
2483.834, 539.7905
2485.762, 541.2629
2487.691, 543.3839
2489.619, 531.2583
2491.548, 523.5179
2493.476, 523.4862
2495.405, 523.3215
2497.333, 518.6887
2499.262, 500.6526
2501.190, 512.9467
2503.119, 526.5279
2505.047, 513.8922
2506.976, 502.7568
2508.904, 501.9281
2510.833, 512.5443
2512.761, 517.7823
2514.689, 522.7455
2516.618, 513.5251
2518.546, 499.2198
2520.475, 490.9946
2522.403, 500.9192
2524.332, 508.7874
2526.260, 503.6130
2528.189, 490.4519
2530.117, 492.0133
2532.046, 501.9648
2533.974, 502.4538
2535.903, 492.3776
2537.831, 478.8121
2539.760, 489.6741
2541.688, 496.0298
2543.616, 487.0637
2545.545, 467.7427
2547.473, 458.5090
2549.402, 461.0883
2551.330, 467.3019
2553.259, 468.4646
2555.187, 468.8919
2557.116, 469.6523
2559.044, 467.6567
2560.973, 466.4364
2562.901, 471.9044
2564.830, 464.8153
2566.758, 451.3809
2568.687, 446.6194
2570.615, 450.3138
2572.543, 452.7777
2574.472, 441.6696
2576.400, 442.4523
2578.329, 448.1724
2580.257, 445.5118
2582.186, 437.1118
2584.114, 432.1749
2586.043, 440.4281
2587.971, 435.6214
2589.900, 432.4100
2591.828, 445.3900
2593.757, 445.4629
2595.685, 439.7639
2597.614, 434.9650
2599.542, 433.6013
2601.470, 429.9601
2603.399, 420.9246
2605.327, 420.2764
2607.256, 424.0030
2609.184, 428.3487
2611.113, 415.3895
2613.041, 407.0349
2614.970, 411.0578
2616.898, 410.2982
2618.827, 407.2011
2620.755, 402.1605
2622.684, 396.6316
2624.612, 400.1936
2626.541, 410.3549
2628.469, 401.4039
2630.397, 395.7802
2632.326, 396.7048
2634.254, 397.2039
2636.183, 395.4136
2638.111, 388.2869
2640.040, 381.0336
2641.968, 380.7704
2643.897, 382.2335
2645.825, 382.1461
2647.754, 383.5976
2649.682, 383.3478
2651.611, 379.0063
2653.539, 377.3756
2655.468, 375.5513
2657.396, 369.4658
2659.324, 376.1253
2661.253, 382.9425
2663.181, 381.4338
2665.110, 373.4689
2667.038, 372.7006
2668.967, 379.6379
2670.895, 380.0152
2672.824, 376.0629
2674.752, 370.8989
2676.681, 370.7971
2678.609, 364.8274
2680.538, 351.5046
2682.466, 356.2476
2684.395, 350.0378
2686.323, 342.5589
2688.251, 343.5763
2690.180, 349.9301
2692.108, 352.1627
2694.037, 345.8118
2695.965, 339.2874
2697.894, 337.5016
2699.822, 344.2673
2701.751, 342.0483
2703.679, 335.7434
2705.608, 324.7999
2707.536, 324.4108
2709.465, 329.6737
2711.393, 329.6267
2713.322, 319.7940
2715.250, 317.7982
2717.178, 321.4255
2719.107, 323.3705
2721.035, 317.1587
2722.964, 310.0321
2724.892, 303.9988
2726.821, 311.8739
2728.749, 312.7632
2730.678, 305.1146
2732.606, 314.1381
2734.535, 312.9374
2736.463, 310.7556
2738.392, 332.5381
2740.320, 326.7194
2742.249, 297.3121
2744.177, 291.3092
2746.105, 299.2191
2748.034, 301.9135
2749.962, 303.3162
2751.891, 295.0186
2753.819, 293.2618
2755.748, 301.4628
2757.676, 303.3244
2759.605, 293.5086
2761.533, 280.3836
2763.462, 285.4310
2765.390, 288.2975
2767.319, 286.8698
2769.247, 285.6547
2771.176, 289.5520
2773.104, 297.9395
2775.032, 295.3656
2776.961, 276.8448
2778.889, 267.7798
2780.818, 278.6926
2782.746, 275.8705
2784.675, 256.3640
2786.603, 256.8359
2788.532, 268.4855
2790.460, 252.5933
2792.389, 251.5422
2794.317, 265.0727
2796.246, 264.1878
2798.174, 251.5864
2800.103, 248.6049
2802.031, 249.2892
2803.959, 246.6494
2805.888, 242.5989
2807.816, 246.6950
2809.745, 249.9408
2811.673, 250.3617
2813.602, 236.9930
2815.530, 237.5278
2817.459, 241.5945
2819.387, 241.1777
2821.316, 240.3884
2823.244, 230.2045
2825.173, 223.0146
2827.101, 220.4008
2829.030, 233.2532
2830.958, 249.5287
2832.886, 240.8522
2834.815, 228.2850
2836.743, 230.3676
2838.672, 228.2351
2840.600, 230.7137
2842.529, 233.0006
2844.457, 225.4531
2846.386, 230.0395
2848.314, 229.9417
2850.243, 227.9428
2852.171, 236.1740
2854.100, 236.0213
2856.028, 233.8080
2857.957, 217.8637
2859.885, 211.4068
2861.813, 216.6293
2863.742, 219.5515
2865.670, 218.4161
2867.599, 210.3784
2869.527, 209.6093
2871.456, 205.2726
2873.384, 205.4186
2875.313, 204.1313
2877.241, 197.0039
2879.170, 210.3347
2881.098, 203.4521
2883.027, 192.2776
2884.955, 202.7680
2886.884, 211.3475
2888.812, 214.8262
2890.740, 215.6705
2892.669, 202.4171
2894.597, 191.0882
2896.526, 188.0124
2898.454, 199.1105
2900.383, 197.4615
2902.311, 189.2550
2904.240, 183.2021
2906.168, 190.9494
2908.097, 188.0727
2910.025, 190.4025
2911.954, 196.5351
2913.882, 185.7503
2915.811, 180.0836
2917.739, 169.8363
2919.667, 170.6530
2921.596, 180.0874
2923.524, 180.1198
2925.453, 175.3542
2927.381, 177.6726
2929.310, 175.7715
2931.238, 171.5696
2933.167, 164.8878
2935.095, 159.8900
2937.024, 162.3741
2938.952, 169.4473
2940.881, 167.0973
2942.809, 161.1399
2944.738, 155.3742
2946.666, 163.5424
2948.594, 160.5096
2950.523, 161.3260
2952.451, 168.8450
2954.380, 163.3797
2956.308, 154.2221
2958.237, 154.4768
2960.165, 162.3248
2962.094, 156.9128
2964.022, 155.1808
2965.951, 156.4522
2967.879, 152.8036
2969.808, 147.1717
2971.736, 139.4184
2973.665, 132.0079
2975.593, 149.8887
2977.521, 148.7651
2979.450, 137.7925
2981.378, 140.1243
2983.307, 139.4309
2985.235, 139.3200
2987.164, 146.2420
2989.092, 150.0632
2991.021, 141.1996
2992.949, 135.7379
2994.878, 138.6072
2996.806, 136.0172
2998.735, 132.4002
3000.663, 132.4862
3002.592, 135.8755
3004.520, 136.6668
3006.448, 140.1904
3008.377, 142.0277
3010.305, 132.2560
3012.234, 123.3067
3014.162, 119.6109
3016.091, 120.5247
3018.019, 129.3951
3019.948, 131.6493
3021.876, 130.8342
3023.805, 130.7265
3025.733, 125.5510
3027.662, 123.9228
3029.590, 121.7073
3031.519, 115.6216
3033.447, 116.1253
3035.375, 127.3289
3037.304, 134.2684
3039.232, 115.0282
3041.161, 119.9040
3043.089, 120.0930
3045.018, 110.6803
3046.946, 117.4893
3048.875, 109.8669
3050.803, 99.27922
3052.732, 95.81738
3054.660, 112.6406
3056.589, 109.4209
3058.517, 100.8051
3060.446, 102.5356
3062.374, 110.1208
3064.302, 101.5745
3066.231, 91.60478
3068.159, 100.0416
3070.088, 92.31232
3072.016, 100.3107
3073.945, 110.8977
3075.873, 90.82184
3077.802, 84.58663
3079.730, 95.72790
3081.659, 108.5791
3083.587, 90.62865
3085.516, 89.75161
3087.444, 88.52440
3089.373, 84.38563
3091.301, 90.32040
3093.229, 91.73985
3095.158, 86.03560
3097.086, 80.70899
3099.015, 100.4093
3100.943, 100.0959
3102.872, 84.65475
3104.800, 69.62568
3106.729, 86.98561
3108.657, 86.14921
3110.586, 81.04942
3112.514, 80.91332
3114.443, 85.53306
3116.371, 88.74950
3118.300, 87.39841
3120.228, 82.40977
3122.156, 75.98487
3124.085, 86.89577
3126.013, 89.43920
3127.942, 73.57646
3129.870, 82.58779
3131.799, 83.14748
3133.727, 79.00637
3135.656, 74.73624
3137.584, 64.63484
3139.513, 67.61668
3141.441, 70.18177
3143.370, 66.95389
3145.298, 73.62723
3147.227, 74.98624
3149.155, 74.46120
3151.083, 75.51531
3153.012, 60.20488
3154.940, 56.22435
3156.869, 59.13698
3158.797, 62.49237
3160.726, 64.16457
3162.654, 59.42976
3164.583, 60.48827
3166.511, 67.07796
3168.440, 57.75425
3170.368, 63.97173
3172.297, 67.39454
3174.225, 60.52040
3176.154, 49.53148
3178.082, 57.57063
3180.010, 62.71120
3181.939, 66.59371
3183.867, 69.96061
3185.796, 62.63259
3187.724, 67.58275
3189.653, 75.03468
3191.581, 67.39702
3193.510, 53.39770
3195.438, 53.26583
3197.367, 60.09765
3199.295, 63.45632
3201.224, 55.61843
3203.152, 58.03968
3205.081, 65.86904
3207.009, 72.29977
3208.938, 71.02534
3210.866, 54.45268
3212.794, 50.67301
3214.723, 63.36924
3216.651, 67.09602
3218.580, 60.55157
3220.508, 69.32611
3222.437, 79.80251
3224.365, 56.18055
3226.294, 59.10621
3228.222, 61.65926
3230.151, 59.98377
3232.079, 57.56710
3234.008, 51.99081
3235.936, 48.28402
3237.865, 49.92509
3239.793, 53.37201
3241.721, 53.17304
3243.650, 52.60235
3245.578, 58.64554
3247.507, 63.34679
3249.435, 47.65629
3251.364, 57.16438
3253.292, 60.24177
3255.221, 54.30985
3257.149, 52.34843
3259.078, 54.66315
3261.006, 54.39059
3262.935, 45.17093
3264.863, 39.17558
3266.792, 43.10680
3268.720, 51.53670
3270.648, 54.88223
3272.577, 54.41224
3274.505, 54.93284
3276.434, 55.15600
3278.362, 47.87771
3280.291, 39.43046
3282.219, 40.47185
3284.148, 51.59795
3286.076, 64.02686
3288.005, 59.17947
3289.933, 43.52700
3291.862, 51.47371
3293.790, 47.18094
3295.719, 52.49462
3297.647, 57.48524
3299.575, 49.08105
3301.504, 49.37430
3303.432, 47.28466
3305.361, 46.02440
3307.289, 46.02405
3309.218, 46.72317
3311.146, 53.23187
3313.075, 41.95139
3315.003, 31.39945
3316.932, 43.75719
3318.860, 49.64146
3320.789, 42.94026
3322.717, 40.22692
3324.646, 41.05459
3326.574, 44.97492
3328.502, 41.34628
3330.431, 41.58598
3332.359, 39.74004
3334.288, 31.90912
3336.216, 51.87559
3338.145, 49.29325
3340.073, 45.57642
3342.002, 44.08846
3343.930, 33.92765
3345.859, 33.17249
3347.787, 38.86702
3349.716, 44.47847
3351.644, 49.01000
3353.573, 54.58157
3355.501, 36.07154
3357.429, 38.25761
3359.358, 44.77740
3361.286, 40.21033
3363.215, 47.97016
3365.143, 51.46667
3367.072, 45.60160
3369.000, 38.84180
3370.929, 42.62650
3372.857, 49.88800
3374.786, 37.46635
3376.714, 33.54860
3378.643, 43.32524
3380.571, 51.49447
3382.500, 57.02901
3384.428, 46.00718
3386.356, 41.00378
3388.285, 46.27009
3390.213, 36.30479
3392.142, 46.56057
3394.070, 49.38176
3395.999, 47.72451
3397.927, 44.44703
3399.856, 28.76056
3401.784, 29.91153
3403.713, 44.31012
3405.641, 51.13419
3407.570, 42.03197
3409.498, 44.89604
3411.427, 42.12042
3413.355, 41.47042
3415.283, 42.73988
3417.212, 43.51030
3419.140, 46.88031
3421.069, 37.55357
3422.997, 31.78556
3424.926, 34.31607
3426.854, 41.46190
3428.783, 33.04679
3430.711, 36.18358
3432.640, 36.35352
3434.568, 33.90584
3436.497, 37.51003
3438.425, 61.36506
3440.354, 49.54510
3442.282, 44.08683
3444.210, 43.80967
3446.139, 38.65277
3448.067, 46.12006
3449.996, 44.08062
3451.924, 39.45138
3453.853, 41.02827
3455.781, 49.54941
3457.710, 53.22597
3459.638, 53.59527
3461.567, 51.05610
3463.495, 49.46372
3465.424, 49.80716
3467.352, 48.97972
3469.281, 64.49074
3471.209, 51.56816
3473.137, 36.77276
3475.066, 35.89066
3476.994, 38.04602
3478.923, 37.95834
3480.851, 45.49963
3482.780, 48.57267
3484.708, 43.89500
3486.637, 37.83868
3488.565, 44.23392
3490.494, 31.86458
3492.422, 42.22192
3494.351, 53.32693
3496.279, 37.76204
3498.208, 32.34597
3500.136, 42.11599
3502.064, 51.93254
3503.993, 51.76173
3505.921, 44.42624
3507.850, 45.07378
3509.778, 33.99615
3511.707, 40.27267
3513.635, 44.68802
3515.564, 42.97211
3517.492, 44.82113
3519.421, 30.73559
3521.349, 44.27774
3523.278, 36.81142
3525.206, 25.53474
3527.135, 32.20138
3529.063, 35.73137
3530.991, 26.72651
3532.920, 26.11032
3534.848, 28.96912
3536.777, 33.29736
3538.705, 42.65366
3540.634, 46.06512
3542.562, 41.42577
3544.491, 24.51956
3546.419, 18.19504
3548.348, 29.01112
3550.276, 28.04546
3552.205, 28.79528
3554.133, 26.81915
3556.062, 32.18213
3557.990, 31.38446
3559.918, 12.50707
3561.847, 18.37142
3563.775, 18.54376
3565.704, 11.68712
3567.632, 13.08775
3569.561, 19.94374
3571.489, 15.04588
3573.418, 4.653317
3575.346, 16.96034
3577.275, 20.70824
3579.203, 22.91451
3581.132, 28.21378
3583.060, 16.64467
3584.989, 13.65793
3586.917, 12.66488
3588.845, 9.655612
3590.774, 16.84659
3592.702, 32.77905
3594.631, 16.31501
3596.559, 4.364341
3598.488, 14.39620
3600.416, 17.26542
3602.345, 16.29341
3604.273, 22.40805
3606.202, 7.296541
3608.130, 22.03865
3610.059, 12.23713
3611.987, 1.217541
3613.916, 3.566912
3615.844, 13.62429
3617.772, 20.33211
3619.701, 25.48326
3621.629, 24.69747
3623.558, 24.84131
3625.486, 22.65458
3627.415, 16.79154
3629.343, 23.07332
3631.272, 19.89929
3633.200, 19.60931
3635.129, 25.24390
3637.057, 18.31947
3638.986, -1.513884
3640.914, 4.286350
3642.843, 11.96967
3644.771, 11.47238
3646.699, 6.612558
3648.628, 6.531998
3650.556, 10.77117
3652.485, 9.927940
3654.413, 20.61410
3656.342, 15.43233
3658.270, 12.41691
3660.199, 14.22536
3662.127, 17.60120
3664.056, 20.79008
3665.984, 21.53531
3667.913, 16.71196
3669.841, 11.68920
3671.770, 9.448735
3673.698, 8.017991
3675.626, 5.758707
3677.555, 6.211587
3679.483, -1.120800
3681.412, 3.423801
3683.340, 6.992622
3685.269, 9.561950
3687.197, 15.70904
3689.126, 23.48204
3691.054, 7.704938
3692.983, 20.53789
3694.911, 24.43357
3696.840, 8.324077
3698.768, -3.205393
3700.697, 3.643456
3702.625, 7.777485
3704.553, 18.26091
3706.482, 11.37722
3708.410, 7.035177
3710.339, 8.273953
3712.267, 18.06992
3714.196, 27.29111
3716.124, -4.432757
3718.053, 13.72468
3719.981, 12.26813
3721.910, 12.49183
3723.838, 10.47068
3725.767, 6.901217
3727.695, 12.31253
3729.624, 13.62074
3731.552, 12.05463
3733.480, 5.894252
3735.409, 4.782147
3737.337, 10.41426
3739.266, 16.80566
3741.194, 17.58300
3743.123, 11.78926
3745.051, 7.276945
3746.980, 9.985104
3748.908, 5.463566
3750.837, 13.82162
3752.765, 23.25408
3754.694, 6.380517
3756.622, 9.403596
3758.551, -4.738425
3760.479, 1.273486
3762.407, 6.595408
3764.336, 12.77072
3766.264, 12.00080
3768.193, 1.258507
3770.121, 13.79173
3772.050, 6.149952
3773.978, 0.3169286
3775.907, 8.192513
3777.835, 13.47499
3779.764, 13.51731
3781.692, 17.71718
3783.621, 24.97001
3785.549, -2.028056
3787.478, 9.476176
3789.406, 7.382092
3791.334, 1.432990
3793.263, 6.699685
3795.191, 13.23289
3797.120, 10.62125
3799.048, 18.49165
3800.977, 9.048718
3802.905, 13.57183
3804.834, 15.62639
3806.762, 12.07983
3808.691, 14.14947
3810.619, 18.30843
3812.548, 11.01191
3814.476, 12.78277
3816.405, 10.34395
3818.333, 10.99507
3820.261, 7.917868
3822.190, 9.718308
3824.118, 11.82862
3826.047, 10.22016
3827.975, 12.77213
3829.904, 11.51455
3831.832, 7.527750
3833.761, -3.333320
3835.689, -18.84820
3837.618, -6.044042
3839.546, 14.63226
3841.475, 15.37601
3843.403, 8.554837
3845.332, 18.25127
3847.260, 27.71019
3849.188, 8.797319
3851.117, 9.667559
3853.045, 0.6246845
3854.974, 1.023179
3856.902, 14.24769
3858.831, 11.01692
3860.759, 9.198302
3862.688, 6.950740
3864.616, 9.438264
3866.545, 15.23159
3868.473, 9.886302
3870.402, 12.34312
3872.330, 14.11831
3874.259, 9.132044
3876.187, 20.82097
3878.115, 12.40673
3880.044, 6.380926
3881.972, 1.511314
3883.901, 10.78087
3885.829, 8.961571
3887.758, 0.4716557
3889.686, 3.634540
3891.615, 14.91019
3893.543, 7.549102
3895.472, -11.38276
3897.400, -6.454043
3899.329, 0.6518542
3901.257, 5.200747
3903.186, 2.755934
3905.114, 10.26153
3907.042, 15.83825
3908.971, 4.893872
3910.899, 2.207827
3912.828, -18.92769
3914.756, 5.737515
3916.685, 1.208706
3918.613, 6.724117
3920.542, 18.16636
3922.470, 14.08637
3924.399, 6.489048
3926.327, 1.276101
3928.256, -12.77823
3930.184, 0.2201609
3932.113, -4.043964
3934.041, 1.051593
3935.969, 20.09010
3937.898, 15.23709
3939.826, 9.455476
3941.755, 6.590535
3943.683, 10.01549
3945.612, 20.97969
3947.540, 17.40050
3949.469, 12.85370
3951.397, 8.105838
3953.326, 4.863683
3955.254, 1.088746
3957.183, 15.93034
3959.111, 15.34513
3961.040, 15.59241
3962.968, 16.69360
3964.896, 3.315583
3966.825, -0.5691326
3968.753, 2.759604
3970.682, -0.2318070
3972.610, 7.910789
3974.539, -5.604948
3976.467, 14.03510
3978.396, 13.47958
3980.324, -0.5743563
3982.253, 2.405902
3984.181, 10.96132
3986.110, 3.328633
3988.038, -1.707748
3989.967, 5.846739
3991.895, -0.2194840
3993.823, 0.3029600
3995.752, 8.596092
3997.680, 16.16228
3999.609, 20.99350
4001.537, 9.525444
4003.466, -4.588036
4005.394, -3.937927
4007.323, 4.946047
4009.251, 16.24586
4011.180, 24.52742
4013.108, 14.16303
4015.037, 11.35425
4016.965, -3.256951
4018.894, 1.300100
4020.822, 0.5691144
4022.750, 0.6641735
4024.679, 9.175160
4026.607, 3.878733
4028.536, -9.220061
4030.464, 5.367041
4032.393, 13.41310
4034.321, -1.320623
4036.250, 4.894594
4038.178, 9.627377
4040.107, 2.482490
4042.035, -1.174345
4043.964, 0.1800538
4045.892, 8.397476
4047.821, 15.99332
4049.749, 4.732902
4051.677, -10.22420
4053.606, -0.6025144
4055.534, 13.65674
4057.463, 24.53057
4059.391, 24.63456
4061.320, -0.1270233
4063.248, -7.398761
4065.177, 5.301044
4067.105, 8.947182
4069.034, 8.483315
4070.962, -1.359157
4072.891, 3.440194
4074.819, 3.544225
4076.748, -4.667524
4078.676, 0.6044418
4080.604, -1.744619
4082.533, 11.94933
4084.461, 13.70226
4086.390, 10.25149
4088.318, 5.225158
4090.247, 2.548000
4092.175, 4.046232
4094.104, -10.23155
4096.032, -10.94502
4097.961, 6.033198
4099.889, 23.43428
4101.817, 11.49678
4103.746, -3.654973
4105.675, 4.318794
4107.603, 5.260430
4109.531, 14.99132
4111.460, 22.06455
4113.389, 16.50319
4115.317, -10.51933
4117.245, 13.84545
4119.174, 5.658177
4121.103, -2.497332
4123.031, 8.537639
4124.959, 4.669004
4126.888, 2.698607
4128.816, 5.460805
4130.745, 2.240185
4132.673, 0.2325812
4134.602, 1.018603
4136.530, 1.679505
4138.458, 6.754739
4140.387, 3.532725
4142.315, 4.203150
4144.244, 0.3935467
4146.172, -6.421740
4148.101, 4.576589
4150.029, -15.65493
4151.958, -15.39545
4153.886, -6.420996
4155.814, 13.01307
4157.743, 19.86308
4159.672, 6.832249
4161.600, 2.086616
4163.528, -2.237988
4165.457, -5.020142
4167.386, -1.839732
4169.314, 4.520012
4171.242, 5.653287
4173.171, -4.228342
4175.100, 8.352836
4177.028, 0.7746648
4178.956, -11.41631
4180.885, -11.09554
4182.813, 10.82806
4184.742, -7.217854
4186.670, 5.212886
4188.599, 3.671680
4190.527, 6.847826
4192.456, 5.316113
4194.384, 1.819429
4196.313, 13.84982
4198.241, 13.37621
4200.169, 4.182075
4202.098, 6.101662
4204.026, 9.310413
4205.955, 3.711128
4207.883, 9.370035
4209.812, 16.90545
4211.740, 9.740947
4213.669, 8.395582
4215.597, 4.776263
4217.525, 19.52947
4219.454, 3.602096
4221.383, 8.339384
4223.311, -4.673211
4225.239, -0.6649051
4227.168, 6.923223
4229.097, 5.257927
4231.025, 10.74993
4232.953, 4.742658
4234.882, -8.771726
4236.811, 9.618185
4238.739, 15.17728
4240.667, 8.939197
4242.596, 9.817199
4244.524, 21.33315
4246.453, 21.39748
4248.381, 18.85184
4250.310, 9.818855
4252.238, 1.184816
4254.167, 2.190607
4256.095, 2.812756
4258.023, 5.265123
4259.952, 6.995617
4261.880, 0.1624082
4263.809, -2.992992
4265.737, 4.171946
4267.666, 12.12807
4269.594, 4.266873
4271.522, -2.380736
4273.451, 2.794298
4275.380, 17.54584
4277.308, -0.8949233
4279.236, -15.13912
4281.165, 10.71156
4283.094, -16.85915
4285.022, 2.904421
4286.950, 1.426669
4288.879, 0.1785318
4290.808, -1.650535
4292.736, 6.887746
4294.664, 16.69310
4296.593, 2.454736
4298.521, 3.450817
4300.450, -4.869754
4302.378, 10.19829
4304.307, 13.54254
4306.235, 28.30529
4308.164, 22.90653
4310.092, 13.76499
4312.021, 6.314056
4313.949, 17.88432
4315.877, 14.37923
4317.806, -0.1451344
4319.734, 2.266942
4321.663, 5.931986
4323.591, 1.485079
4325.520, 14.68708
##END=



