##NAMES=Edingtonite
##RRUFFID=R040110
##IDEAL CHEMISTRY=Ba(Si_3_Al_2_)O_10_·4H_2_O
##LOCALITY=2350 level, Brunswick 12 mine, Bathhurst, New Brunswick, Canada
##OWNER=RRUFF
##SOURCE=National Museums of Canada
##DESCRIPTION=Colorless rectangular prism
##STATUS=The identification of this mineral has been confirmed by X-ray diffraction and chemical analysis
##URL=https://www.rruff.net/odr/rruff_sample/R040110
##MEASURED CHEMISTRY=Ba_1.00_(Si_3.00_Al_2.00_)O_10_·4H_2_O
##DIFFRACTION SAMPLE DESCRIPTION=Powder
##CELL PARAMETERS=a: 9.529 b: 9.6449 c: 6.5103 alpha: 90 beta: 90 gamma: 90 volume: 598.34 crystal system: orthorhombic
##FILETYPE=Raman RAW
##RAMAN WAVELENGTH=532

107.5071, 397.6469
109.4355, 479.2460
111.3640, 569.9212
113.2925, 683.6134
115.2209, 831.7360
117.1494, 1008.657
119.0779, 1224.187
121.0063, 1474.551
122.9348, 1761.161
124.8633, 2087.473
126.7917, 2453.431
128.7202, 2859.556
130.6487, 3299.373
132.5771, 3792.574
134.5056, 4292.925
136.4341, 4808.161
138.3625, 5335.471
140.2910, 5814.920
142.2195, 6205.602
144.1479, 6554.934
146.0764, 6915.033
148.0049, 7310.709
149.9333, 7699.548
151.8618, 8100.129
153.7903, 8515.935
155.7188, 8820.880
157.6472, 8994.091
159.5757, 9049.170
161.5042, 8995.879
163.4326, 8822.510
165.3611, 8579.809
167.2896, 8283.578
169.2180, 7919.484
171.1465, 7562.684
173.0750, 7213.043
175.0034, 6878.738
176.9319, 6560.654
178.8604, 6262.672
180.7888, 5977.855
182.7173, 5701.735
184.6458, 5425.830
186.5742, 5177.053
188.5027, 4965.515
190.4312, 4781.802
192.3596, 4614.850
194.2881, 4466.051
196.2166, 4331.998
198.1450, 4217.248
200.0735, 4122.685
202.0020, 4032.158
203.9304, 3933.858
205.8589, 3838.303
207.7874, 3769.713
209.7158, 3739.239
211.6443, 3720.214
213.5728, 3704.382
215.5012, 3691.664
217.4297, 3684.885
219.3582, 3678.284
221.2866, 3678.319
223.2151, 3696.187
225.1436, 3727.703
227.0720, 3781.785
229.0005, 3863.981
230.9290, 3987.388
232.8574, 4098.588
234.7859, 4219.514
236.7144, 4315.659
238.6428, 4353.559
240.5713, 4309.005
242.4997, 4233.120
244.4282, 4142.665
246.3567, 4040.447
248.2851, 3928.041
250.2136, 3794.685
252.1421, 3658.155
254.0705, 3530.933
255.9990, 3407.263
257.9275, 3301.163
259.8560, 3220.677
261.7844, 3163.783
263.7129, 3114.617
265.6414, 3070.422
267.5698, 3035.326
269.4983, 3013.365
271.4268, 3011.227
273.3552, 3014.771
275.2837, 3028.033
277.2122, 3047.507
279.1406, 3060.560
281.0691, 3065.556
282.9976, 3063.311
284.9260, 3052.713
286.8545, 3032.886
288.7830, 3010.308
290.7114, 2980.553
292.6399, 2947.085
294.5684, 2925.486
296.4968, 2923.008
298.4253, 2926.140
300.3538, 2929.572
302.2822, 2933.175
304.2107, 2937.802
306.1392, 2941.289
308.0676, 2946.013
309.9961, 2957.699
311.9246, 2985.182
313.8530, 3010.257
315.7815, 3027.086
317.7100, 3036.213
319.6384, 3041.491
321.5669, 3039.447
323.4954, 3035.865
325.4238, 3037.136
327.3523, 3042.420
329.2808, 3052.271
331.2092, 3071.379
333.1377, 3099.046
335.0662, 3115.266
336.9946, 3098.508
338.9231, 3087.076
340.8516, 3111.022
342.7800, 3175.036
344.7085, 3236.284
346.6370, 3283.613
348.5654, 3320.452
350.4939, 3355.531
352.4224, 3391.814
354.3508, 3424.036
356.2793, 3448.923
358.2078, 3467.248
360.1362, 3483.760
362.0647, 3497.221
363.9931, 3508.920
365.9216, 3523.697
367.8501, 3544.246
369.7785, 3560.908
371.7070, 3569.618
373.6355, 3571.028
375.5639, 3572.221
377.4924, 3568.968
379.4209, 3569.789
381.3493, 3579.744
383.2778, 3597.073
385.2063, 3617.964
387.1347, 3646.705
389.0632, 3681.279
390.9917, 3708.304
392.9201, 3717.297
394.8486, 3725.551
396.7771, 3741.957
398.7055, 3767.560
400.6340, 3805.037
402.5625, 3871.396
404.4909, 3936.389
406.4194, 3979.307
408.3479, 3995.695
410.2763, 4017.147
412.2048, 4048.810
414.1333, 4085.453
416.0617, 4124.200
417.9902, 4162.627
419.9187, 4206.730
421.8471, 4260.019
423.7756, 4322.256
425.7041, 4389.331
427.6325, 4473.578
429.5610, 4554.472
431.4895, 4614.500
433.4179, 4642.978
435.3464, 4661.176
437.2749, 4669.698
439.2033, 4673.249
441.1318, 4665.102
443.0603, 4642.615
444.9887, 4596.644
446.9172, 4531.417
448.8457, 4442.831
450.7741, 4353.261
452.7026, 4270.824
454.6311, 4197.736
456.5595, 4118.386
458.4880, 4019.549
460.4165, 3936.887
462.3449, 3888.163
464.2734, 3868.871
466.2019, 3861.944
468.1303, 3863.190
470.0588, 3874.416
471.9873, 3894.498
473.9157, 3925.151
475.8442, 3982.230
477.7727, 4071.082
479.7011, 4173.494
481.6296, 4277.953
483.5581, 4382.731
485.4865, 4502.667
487.4150, 4642.172
489.3435, 4802.155
491.2719, 4986.958
493.2004, 5201.691
495.1289, 5433.510
497.0573, 5673.114
498.9858, 5926.364
500.9143, 6207.276
502.8427, 6516.888
504.7712, 6859.192
506.6997, 7235.055
508.6281, 7655.298
510.5566, 8161.090
512.4851, 8724.088
514.4136, 9421.451
516.3420, 10295.15
518.2705, 11384.28
520.1990, 12599.66
522.1274, 14007.33
524.0559, 15561.21
525.9844, 17196.73
527.9128, 18971.00
529.8413, 20510.88
531.7698, 21563.10
533.6982, 22106.00
535.6267, 22135.24
537.5552, 21446.02
539.4836, 20335.12
541.4121, 18963.10
543.3406, 17439.08
545.2690, 15794.83
547.1975, 14193.88
549.1260, 12711.80
551.0544, 11361.90
552.9829, 10126.99
554.9114, 9071.562
556.8398, 8133.080
558.7683, 7316.759
560.6968, 6621.965
562.6252, 6038.704
564.5537, 5541.929
566.4822, 5120.755
568.4106, 4759.397
570.3391, 4435.217
572.2676, 4148.880
574.1960, 3908.133
576.1245, 3711.214
578.0530, 3548.416
579.9814, 3413.528
581.9099, 3322.666
583.8384, 3253.074
585.7668, 3197.531
587.6953, 3149.898
589.6238, 3112.855
591.5522, 3098.451
593.4807, 3093.743
595.4092, 3090.859
597.3376, 3089.967
599.2661, 3082.482
601.1946, 3064.179
603.1230, 3040.959
605.0515, 3020.963
606.9800, 3002.150
608.9084, 2974.547
610.8369, 2939.546
612.7653, 2902.138
614.6938, 2864.230
616.6223, 2811.882
618.5507, 2758.570
620.4792, 2707.861
622.4077, 2668.140
624.3361, 2638.307
626.2646, 2611.564
628.1931, 2585.268
630.1215, 2559.907
632.0500, 2542.346
633.9785, 2531.603
635.9069, 2520.041
637.8354, 2511.582
639.7639, 2511.466
641.6923, 2517.386
643.6208, 2519.185
645.5493, 2516.294
647.4777, 2520.353
649.4062, 2539.434
651.3347, 2568.216
653.2631, 2591.743
655.1916, 2610.468
657.1201, 2624.585
659.0485, 2634.831
660.9770, 2632.817
662.9055, 2627.213
664.8339, 2622.759
666.7624, 2616.643
668.6909, 2597.750
670.6193, 2564.182
672.5478, 2542.235
674.4763, 2549.416
676.4047, 2567.015
678.3332, 2571.520
680.2617, 2557.232
682.1901, 2554.759
684.1186, 2566.491
686.0471, 2586.657
687.9755, 2616.921
689.9040, 2659.761
691.8325, 2707.798
693.7609, 2756.671
695.6894, 2809.603
697.6179, 2869.338
699.5463, 2936.100
701.4748, 3011.513
703.4033, 3108.506
705.3317, 3210.234
707.2602, 3290.537
709.1887, 3341.670
711.1171, 3375.351
713.0456, 3404.305
714.9741, 3427.964
716.9025, 3418.452
718.8310, 3362.266
720.7595, 3292.754
722.6879, 3216.545
724.6164, 3139.903
726.5449, 3061.751
728.4733, 2978.527
730.4018, 2896.611
732.3303, 2818.340
734.2587, 2747.213
736.1872, 2678.586
738.1157, 2606.901
740.0441, 2542.876
741.9726, 2495.143
743.9011, 2458.567
745.8295, 2424.194
747.7580, 2390.746
749.6865, 2362.393
751.6149, 2336.898
753.5434, 2312.921
755.4719, 2297.711
757.4003, 2297.026
759.3288, 2297.944
761.2573, 2294.774
763.1857, 2288.229
765.1142, 2280.868
767.0427, 2271.217
768.9711, 2262.090
770.8996, 2254.281
772.8281, 2247.673
774.7565, 2243.966
776.6850, 2248.250
778.6135, 2250.843
780.5419, 2245.717
782.4704, 2233.368
784.3989, 2221.553
786.3273, 2210.441
788.2558, 2200.369
790.1843, 2192.652
792.1127, 2186.679
794.0412, 2180.267
795.9697, 2171.598
797.8981, 2165.762
799.8266, 2163.763
801.7551, 2164.359
803.6835, 2166.226
805.6120, 2172.883
807.5405, 2179.163
809.4689, 2180.422
811.3974, 2175.363
813.3259, 2172.581
815.2543, 2173.829
817.1828, 2174.788
819.1113, 2173.129
821.0397, 2169.673
822.9682, 2169.943
824.8967, 2181.440
826.8251, 2190.221
828.7536, 2188.014
830.6821, 2175.389
832.6105, 2169.156
834.5390, 2171.934
836.4675, 2177.987
838.3959, 2186.887
840.3244, 2195.168
842.2529, 2198.327
844.1813, 2191.529
846.1098, 2188.507
848.0383, 2192.521
849.9667, 2199.147
851.8952, 2201.105
853.8237, 2196.243
855.7521, 2192.732
857.6806, 2191.642
859.6091, 2195.983
861.5375, 2202.968
863.4660, 2214.051
865.3945, 2218.982
867.3229, 2216.613
869.2514, 2212.030
871.1799, 2212.035
873.1083, 2217.180
875.0368, 2225.052
876.9653, 2239.743
878.8937, 2250.179
880.8222, 2251.596
882.7507, 2241.888
884.6791, 2242.046
886.6076, 2257.972
888.5361, 2272.604
890.4645, 2275.462
892.3930, 2263.612
894.3215, 2257.685
896.2499, 2259.893
898.1784, 2258.022
900.1069, 2262.342
902.0353, 2277.802
903.9638, 2292.888
905.8923, 2291.972
907.8207, 2289.158
909.7492, 2292.402
911.6777, 2297.460
913.6061, 2302.982
915.5346, 2319.689
917.4631, 2347.581
919.3915, 2361.929
921.3200, 2359.840
923.2485, 2361.575
925.1769, 2379.316
927.1054, 2405.197
929.0339, 2429.920
930.9623, 2452.106
932.8908, 2479.596
934.8193, 2515.703
936.7477, 2561.712
938.6762, 2615.892
940.6047, 2676.752
942.5331, 2735.427
944.4616, 2785.605
946.3901, 2837.677
948.3185, 2926.236
950.2470, 3044.328
952.1755, 3164.327
954.1039, 3280.348
956.0324, 3381.882
957.9609, 3462.211
959.8893, 3534.213
961.8178, 3592.275
963.7463, 3631.580
965.6747, 3657.217
967.6032, 3679.965
969.5317, 3693.945
971.4601, 3717.377
973.3886, 3754.951
975.3171, 3808.331
977.2455, 3875.796
979.1740, 3962.273
981.1025, 4063.452
983.0309, 4178.302
984.9594, 4309.841
986.8879, 4462.658
988.8163, 4614.915
990.7448, 4743.848
992.6733, 4858.553
994.6017, 4955.220
996.5302, 5020.692
998.4587, 5034.795
1000.387, 4993.050
1002.316, 4905.510
1004.244, 4779.529
1006.173, 4619.500
1008.101, 4437.125
1010.029, 4249.842
1011.958, 4042.313
1013.886, 3841.691
1015.815, 3675.334
1017.743, 3554.617
1019.672, 3461.953
1021.600, 3389.593
1023.529, 3340.452
1025.457, 3320.189
1027.386, 3329.853
1029.314, 3356.782
1031.243, 3399.369
1033.171, 3469.738
1035.100, 3570.990
1037.028, 3693.354
1038.957, 3819.320
1040.885, 3949.661
1042.813, 4109.889
1044.742, 4305.873
1046.670, 4535.700
1048.599, 4778.139
1050.527, 5018.416
1052.456, 5253.077
1054.384, 5479.988
1056.313, 5674.723
1058.241, 5811.460
1060.170, 5890.423
1062.098, 5876.099
1064.027, 5748.432
1065.955, 5550.884
1067.884, 5326.362
1069.812, 5087.451
1071.740, 4858.427
1073.669, 4631.795
1075.597, 4413.198
1077.526, 4211.276
1079.454, 4024.757
1081.383, 3861.322
1083.311, 3726.562
1085.240, 3623.201
1087.168, 3553.682
1089.097, 3502.190
1091.025, 3458.667
1092.954, 3427.186
1094.882, 3416.731
1096.811, 3419.025
1098.739, 3426.286
1100.667, 3431.953
1102.596, 3435.782
1104.524, 3436.544
1106.453, 3443.830
1108.381, 3438.677
1110.310, 3405.308
1112.238, 3341.271
1114.167, 3274.098
1116.095, 3200.927
1118.024, 3134.941
1119.952, 3082.867
1121.880, 3039.814
1123.809, 2989.040
1125.737, 2922.522
1127.666, 2865.853
1129.594, 2835.583
1131.523, 2818.891
1133.451, 2798.182
1135.380, 2773.354
1137.308, 2758.211
1139.237, 2762.875
1141.165, 2769.438
1143.094, 2767.382
1145.022, 2754.872
1146.951, 2741.254
1148.879, 2723.306
1150.807, 2713.719
1152.736, 2716.647
1154.664, 2722.123
1156.593, 2717.443
1158.521, 2699.493
1160.450, 2689.169
1162.378, 2696.740
1164.307, 2706.959
1166.235, 2708.325
1168.164, 2700.179
1170.092, 2691.607
1172.021, 2682.131
1173.949, 2677.415
1175.878, 2677.564
1177.806, 2680.565
1179.734, 2688.049
1181.663, 2709.492
1183.591, 2723.111
1185.520, 2718.326
1187.448, 2706.488
1189.377, 2701.650
1191.305, 2704.081
1193.234, 2709.616
1195.162, 2724.295
1197.091, 2737.181
1199.019, 2734.155
1200.948, 2718.919
1202.876, 2718.786
1204.805, 2744.532
1206.733, 2766.334
1208.661, 2769.658
1210.590, 2764.896
1212.518, 2762.178
1214.447, 2761.668
1216.375, 2760.873
1218.304, 2754.622
1220.232, 2754.421
1222.161, 2769.491
1224.089, 2795.274
1226.018, 2808.700
1227.946, 2801.522
1229.875, 2796.664
1231.803, 2797.957
1233.732, 2802.885
1235.660, 2810.081
1237.589, 2819.344
1239.517, 2826.811
1241.445, 2829.381
1243.374, 2834.215
1245.302, 2845.786
1247.231, 2862.412
1249.159, 2878.208
1251.088, 2893.938
1253.016, 2902.671
1254.945, 2895.619
1256.873, 2891.847
1258.802, 2904.198
1260.730, 2934.186
1262.659, 2955.285
1264.587, 2958.172
1266.516, 2963.519
1268.444, 2981.032
1270.372, 3005.108
1272.301, 3022.768
1274.229, 3036.337
1276.158, 3047.968
1278.086, 3046.283
1280.015, 3047.606
1281.943, 3071.414
1283.872, 3114.135
1285.800, 3146.554
1287.729, 3161.642
1289.657, 3176.612
1291.586, 3194.938
1293.514, 3218.306
1295.443, 3250.342
1297.371, 3290.001
1299.299, 3322.527
1301.228, 3343.180
1303.156, 3362.156
1305.085, 3381.278
1307.013, 3404.948
1308.942, 3429.669
1310.870, 3440.247
1312.799, 3458.870
1314.727, 3496.258
1316.656, 3535.027
1318.584, 3560.697
1320.513, 3572.767
1322.441, 3586.252
1324.370, 3606.778
1326.298, 3623.575
1328.226, 3634.126
1330.155, 3635.872
1332.083, 3626.989
1334.012, 3612.667
1335.940, 3596.475
1337.869, 3570.077
1339.797, 3541.510
1341.726, 3512.108
1343.654, 3491.863
1345.583, 3488.181
1347.511, 3510.062
1349.440, 3527.566
1351.368, 3526.133
1353.297, 3520.645
1355.225, 3522.519
1357.153, 3533.083
1359.082, 3539.965
1361.010, 3537.833
1362.939, 3536.501
1364.867, 3536.209
1366.796, 3537.746
1368.724, 3541.186
1370.653, 3547.131
1372.581, 3557.814
1374.510, 3580.921
1376.438, 3592.963
1378.367, 3577.434
1380.295, 3558.583
1382.224, 3566.315
1384.152, 3590.405
1386.080, 3598.136
1388.009, 3584.393
1389.937, 3573.043
1391.866, 3570.459
1393.794, 3569.865
1395.723, 3569.190
1397.651, 3575.032
1399.580, 3580.537
1401.508, 3584.213
1403.437, 3592.240
1405.365, 3602.880
1407.294, 3609.079
1409.222, 3609.385
1411.151, 3611.355
1413.079, 3618.713
1415.007, 3633.452
1416.936, 3644.718
1418.864, 3641.786
1420.793, 3628.469
1422.721, 3622.022
1424.650, 3635.878
1426.578, 3652.903
1428.507, 3674.770
1430.435, 3692.455
1432.364, 3700.029
1434.292, 3701.799
1436.221, 3708.088
1438.149, 3710.501
1440.078, 3713.178
1442.006, 3728.804
1443.934, 3753.448
1445.863, 3784.326
1447.791, 3811.616
1449.720, 3819.387
1451.648, 3806.517
1453.577, 3794.964
1455.505, 3792.620
1457.434, 3789.361
1459.362, 3772.148
1461.291, 3749.737
1463.219, 3748.887
1465.148, 3775.607
1467.076, 3797.513
1469.005, 3809.060
1470.933, 3813.619
1472.861, 3812.002
1474.790, 3805.299
1476.718, 3795.417
1478.647, 3778.185
1480.575, 3765.955
1482.504, 3762.099
1484.432, 3767.729
1486.361, 3788.443
1488.289, 3817.825
1490.218, 3832.477
1492.146, 3824.009
1494.075, 3819.013
1496.003, 3822.461
1497.932, 3828.253
1499.860, 3833.501
1501.788, 3839.971
1503.717, 3850.711
1505.645, 3867.845
1507.574, 3882.687
1509.502, 3895.342
1511.431, 3907.770
1513.359, 3919.933
1515.288, 3931.493
1517.216, 3941.641
1519.145, 3948.682
1521.073, 3958.204
1523.002, 3978.492
1524.930, 3996.336
1526.859, 3996.258
1528.787, 3989.297
1530.715, 3999.692
1532.644, 4029.919
1534.572, 4046.665
1536.501, 4033.125
1538.429, 4031.346
1540.358, 4065.817
1542.286, 4105.938
1544.215, 4117.746
1546.143, 4106.268
1548.072, 4106.848
1550.000, 4124.943
1551.929, 4144.399
1553.857, 4165.061
1555.786, 4185.625
1557.714, 4199.483
1559.642, 4206.703
1561.571, 4210.986
1563.499, 4211.179
1565.428, 4217.650
1567.356, 4238.494
1569.285, 4259.063
1571.213, 4270.127
1573.142, 4274.473
1575.070, 4273.398
1576.999, 4265.064
1578.927, 4275.176
1580.856, 4326.386
1582.784, 4366.121
1584.713, 4355.216
1586.641, 4329.277
1588.569, 4330.933
1590.498, 4359.441
1592.426, 4389.506
1594.355, 4422.125
1596.283, 4448.767
1598.212, 4464.570
1600.140, 4475.478
1602.069, 4479.881
1603.997, 4481.046
1605.926, 4501.367
1607.854, 4552.007
1609.783, 4582.988
1611.711, 4570.101
1613.640, 4553.011
1615.568, 4543.272
1617.496, 4543.901
1619.425, 4565.003
1621.353, 4610.029
1623.282, 4641.272
1625.210, 4644.275
1627.139, 4653.035
1629.067, 4686.749
1630.996, 4722.140
1632.924, 4738.730
1634.853, 4737.958
1636.781, 4734.022
1638.710, 4723.885
1640.638, 4718.936
1642.567, 4725.096
1644.495, 4732.493
1646.423, 4739.268
1648.352, 4743.947
1650.280, 4742.770
1652.209, 4733.736
1654.137, 4734.313
1656.066, 4754.663
1657.994, 4769.056
1659.923, 4765.436
1661.851, 4759.358
1663.780, 4764.418
1665.708, 4777.929
1667.637, 4784.177
1669.565, 4778.025
1671.494, 4780.776
1673.422, 4807.528
1675.350, 4827.928
1677.279, 4824.106
1679.207, 4812.861
1681.136, 4816.107
1683.064, 4834.489
1684.993, 4850.769
1686.921, 4867.911
1688.850, 4876.120
1690.778, 4858.249
1692.707, 4847.765
1694.635, 4871.220
1696.564, 4911.492
1698.492, 4932.438
1700.421, 4931.958
1702.349, 4927.382
1704.277, 4914.973
1706.206, 4906.964
1708.134, 4900.899
1710.063, 4905.438
1711.991, 4935.857
1713.920, 4982.067
1715.848, 5004.027
1717.777, 4994.714
1719.705, 4999.062
1721.634, 5035.329
1723.562, 5064.068
1725.491, 5064.842
1727.419, 5059.154
1729.348, 5066.740
1731.276, 5084.571
1733.204, 5096.171
1735.133, 5099.874
1737.061, 5104.601
1738.990, 5115.012
1740.918, 5121.372
1742.847, 5107.805
1744.775, 5097.670
1746.704, 5120.958
1748.632, 5169.843
1750.561, 5202.192
1752.489, 5213.753
1754.418, 5222.684
1756.346, 5235.349
1758.275, 5241.227
1760.203, 5223.974
1762.131, 5206.132
1764.060, 5213.755
1765.988, 5241.681
1767.917, 5267.896
1769.845, 5293.472
1771.774, 5304.148
1773.702, 5282.625
1775.631, 5269.397
1777.559, 5295.569
1779.488, 5330.385
1781.416, 5338.438
1783.345, 5327.781
1785.273, 5331.543
1787.202, 5353.868
1789.130, 5372.927
1791.058, 5379.111
1792.987, 5390.773
1794.915, 5424.754
1796.844, 5460.214
1798.772, 5474.721
1800.701, 5473.105
1802.629, 5473.615
1804.558, 5474.985
1806.486, 5485.682
1808.415, 5519.652
1810.343, 5543.971
1812.272, 5538.475
1814.200, 5529.549
1816.129, 5540.292
1818.057, 5564.481
1819.985, 5584.246
1821.914, 5598.309
1823.842, 5613.593
1825.771, 5635.675
1827.699, 5650.672
1829.628, 5650.959
1831.556, 5649.226
1833.485, 5649.323
1835.413, 5654.420
1837.342, 5673.822
1839.270, 5709.518
1841.199, 5732.365
1843.127, 5735.455
1845.056, 5738.299
1846.984, 5742.252
1848.912, 5746.798
1850.841, 5746.015
1852.769, 5750.007
1854.698, 5776.748
1856.626, 5821.215
1858.555, 5842.201
1860.483, 5832.941
1862.412, 5835.718
1864.340, 5862.433
1866.269, 5888.170
1868.197, 5906.573
1870.126, 5918.924
1872.054, 5921.866
1873.983, 5921.177
1875.911, 5933.144
1877.839, 5955.921
1879.768, 5951.223
1881.696, 5899.839
1883.625, 5884.106
1885.553, 5954.050
1887.482, 6019.586
1889.410, 6033.895
1891.339, 6023.720
1893.267, 6010.477
1895.196, 5996.400
1897.124, 5986.529
1899.053, 5977.541
1900.981, 5995.137
1902.910, 6067.589
1904.838, 6124.264
1906.766, 6148.517
1908.695, 6156.011
1910.623, 6146.024
1912.552, 6130.844
1914.480, 6126.445
1916.409, 6132.966
1918.337, 6153.583
1920.266, 6198.825
1922.194, 6233.108
1924.123, 6252.119
1926.051, 6264.483
1927.980, 6265.032
1929.908, 6266.955
1931.837, 6281.507
1933.765, 6301.825
1935.693, 6316.239
1937.622, 6325.094
1939.550, 6333.745
1941.479, 6344.176
1943.407, 6342.602
1945.336, 6313.173
1947.264, 6299.272
1949.193, 6336.064
1951.121, 6375.158
1953.050, 6374.624
1954.978, 6356.394
1956.907, 6354.271
1958.835, 6367.855
1960.764, 6399.115
1962.692, 6460.307
1964.620, 6494.424
1966.549, 6472.418
1968.477, 6454.387
1970.406, 6449.696
1972.334, 6461.152
1974.263, 6503.261
1976.191, 6555.846
1978.120, 6585.713
1980.048, 6593.897
1981.977, 6596.085
1983.905, 6587.745
1985.834, 6589.380
1987.762, 6606.725
1989.691, 6625.855
1991.619, 6646.408
1993.547, 6664.001
1995.476, 6680.911
1997.404, 6690.207
1999.333, 6674.075
2001.261, 6644.597
2003.190, 6642.336
2005.118, 6668.894
2007.047, 6695.663
2008.975, 6714.835
2010.904, 6748.868
2012.832, 6823.301
2014.761, 6887.471
2016.689, 6928.244
2018.618, 6942.522
2020.546, 6912.802
2022.474, 6859.590
2024.403, 6825.934
2026.331, 6812.105
2028.260, 6810.102
2030.188, 6822.090
2032.117, 6840.554
2034.045, 6869.414
2035.974, 6897.468
2037.902, 6928.190
2039.831, 6950.147
2041.759, 6949.470
2043.688, 6943.268
2045.616, 6954.337
2047.545, 6974.426
2049.473, 6980.601
2051.402, 6972.749
2053.330, 6958.666
2055.259, 6933.188
2057.187, 6923.179
2059.115, 6938.833
2061.044, 6963.258
2062.972, 7002.105
2064.901, 7036.181
2066.829, 7050.741
2068.758, 7054.474
2070.686, 7055.057
2072.615, 7054.967
2074.543, 7069.086
2076.472, 7101.194
2078.400, 7117.460
2080.329, 7111.184
2082.257, 7108.189
2084.186, 7114.002
2086.114, 7121.130
2088.042, 7123.356
2089.971, 7130.254
2091.899, 7156.517
2093.828, 7184.681
2095.756, 7188.522
2097.685, 7177.215
2099.613, 7182.797
2101.542, 7207.634
2103.470, 7219.745
2105.398, 7200.945
2107.327, 7205.290
2109.255, 7256.473
2111.184, 7297.294
2113.112, 7309.184
2115.041, 7315.975
2116.969, 7335.356
2118.898, 7350.072
2120.826, 7335.205
2122.755, 7306.544
2124.683, 7300.315
2126.612, 7312.553
2128.540, 7315.999
2130.469, 7307.710
2132.397, 7310.702
2134.325, 7332.998
2136.254, 7353.592
2138.182, 7370.764
2140.111, 7381.890
2142.039, 7382.951
2143.968, 7381.018
2145.896, 7372.766
2147.825, 7370.494
2149.753, 7397.100
2151.682, 7442.544
2153.610, 7474.896
2155.539, 7494.009
2157.467, 7496.027
2159.396, 7477.716
2161.324, 7468.169
2163.252, 7474.970
2165.181, 7480.849
2167.109, 7472.869
2169.038, 7474.447
2170.966, 7496.502
2172.895, 7529.793
2174.823, 7578.746
2176.752, 7626.416
2178.680, 7653.938
2180.609, 7660.667
2182.537, 7631.779
2184.466, 7568.065
2186.394, 7565.441
2188.323, 7637.019
2190.251, 7667.066
2192.179, 7626.903
2194.108, 7600.228
2196.036, 7614.606
2197.965, 7632.846
2199.893, 7638.813
2201.822, 7646.089
2203.750, 7669.870
2205.679, 7692.757
2207.607, 7689.299
2209.536, 7674.975
2211.464, 7689.186
2213.393, 7725.310
2215.321, 7720.158
2217.250, 7671.229
2219.178, 7664.696
2221.106, 7716.554
2223.035, 7744.069
2224.963, 7725.441
2226.892, 7703.771
2228.820, 7682.266
2230.749, 7673.501
2232.677, 7692.294
2234.606, 7714.120
2236.534, 7719.965
2238.463, 7721.658
2240.391, 7733.950
2242.320, 7751.850
2244.248, 7763.918
2246.177, 7771.355
2248.105, 7780.800
2250.033, 7792.382
2251.962, 7808.281
2253.890, 7829.977
2255.819, 7847.800
2257.747, 7864.247
2259.676, 7867.811
2261.604, 7844.475
2263.533, 7824.900
2265.461, 7820.214
2267.390, 7820.530
2269.318, 7820.008
2271.247, 7822.381
2273.175, 7829.093
2275.104, 7842.138
2277.032, 7872.094
2278.960, 7908.631
2280.889, 7921.676
2282.817, 7914.128
2284.746, 7915.455
2286.674, 7928.842
2288.603, 7936.190
2290.531, 7931.169
2292.460, 7930.947
2294.388, 7927.487
2296.317, 7944.904
2298.245, 8009.190
2300.174, 8056.796
2302.102, 8058.915
2304.031, 8047.688
2305.959, 8033.447
2307.887, 8022.358
2309.816, 8018.633
2311.744, 8021.894
2313.673, 8037.962
2315.601, 8058.315
2317.530, 8054.964
2319.458, 8033.362
2321.387, 8044.515
2323.315, 8089.250
2325.244, 8102.143
2327.172, 8075.274
2329.101, 8082.824
2331.029, 8151.022
2332.958, 8181.052
2334.886, 8125.538
2336.814, 8080.751
2338.743, 8059.166
2340.671, 8067.302
2342.600, 8147.958
2344.528, 8208.058
2346.457, 8181.745
2348.385, 8128.057
2350.314, 8064.710
2352.242, 8026.258
2354.171, 8082.016
2356.099, 8175.692
2358.028, 8195.114
2359.956, 8160.947
2361.885, 8158.771
2363.813, 8187.803
2365.741, 8191.854
2367.670, 8163.109
2369.598, 8166.150
2371.527, 8213.084
2373.455, 8222.001
2375.384, 8165.459
2377.312, 8143.910
2379.241, 8201.682
2381.169, 8247.700
2383.098, 8251.743
2385.026, 8245.196
2386.955, 8230.154
2388.883, 8219.430
2390.812, 8206.937
2392.740, 8215.895
2394.668, 8297.862
2396.597, 8376.850
2398.525, 8368.496
2400.454, 8317.092
2402.382, 8272.198
2404.311, 8239.577
2406.239, 8237.250
2408.168, 8260.243
2410.096, 8285.613
2412.025, 8313.360
2413.953, 8319.573
2415.882, 8302.917
2417.810, 8325.007
2419.739, 8396.976
2421.667, 8426.303
2423.595, 8384.727
2425.524, 8358.832
2427.452, 8369.755
2429.381, 8384.475
2431.309, 8399.686
2433.238, 8417.236
2435.166, 8456.803
2437.095, 8465.880
2439.023, 8388.096
2440.952, 8331.415
2442.880, 8380.415
2444.809, 8443.372
2446.737, 8451.938
2448.666, 8446.552
2450.594, 8466.535
2452.522, 8495.340
2454.451, 8517.237
2456.379, 8529.432
2458.308, 8520.097
2460.236, 8499.954
2462.165, 8492.188
2464.093, 8496.361
2466.022, 8512.571
2467.950, 8539.516
2469.879, 8557.691
2471.807, 8566.460
2473.736, 8572.203
2475.664, 8574.198
2477.593, 8581.403
2479.521, 8594.802
2481.449, 8611.874
2483.378, 8638.881
2485.306, 8643.164
2487.235, 8592.370
2489.163, 8565.930
2491.092, 8594.370
2493.020, 8611.074
2494.949, 8595.203
2496.877, 8587.366
2498.806, 8606.936
2500.734, 8623.682
2502.663, 8618.004
2504.591, 8614.091
2506.520, 8625.952
2508.448, 8641.586
2510.376, 8655.775
2512.305, 8667.723
2514.233, 8678.059
2516.162, 8684.618
2518.090, 8684.328
2520.019, 8680.350
2521.947, 8673.979
2523.876, 8667.945
2525.804, 8668.626
2527.733, 8671.437
2529.661, 8655.940
2531.590, 8638.724
2533.518, 8686.567
2535.447, 8769.365
2537.375, 8778.107
2539.303, 8730.067
2541.232, 8724.782
2543.160, 8759.722
2545.089, 8782.568
2547.017, 8792.225
2548.946, 8810.885
2550.874, 8839.302
2552.803, 8851.688
2554.731, 8846.259
2556.660, 8835.729
2558.588, 8817.701
2560.517, 8814.048
2562.445, 8832.771
2564.374, 8855.385
2566.302, 8893.126
2568.230, 8893.603
2570.159, 8831.585
2572.087, 8812.771
2574.016, 8881.222
2575.944, 8928.041
2577.873, 8908.529
2579.801, 8895.464
2581.730, 8903.278
2583.658, 8918.440
2585.587, 8942.335
2587.515, 8964.763
2589.444, 8983.258
2591.372, 8997.940
2593.301, 9015.475
2595.229, 9019.487
2597.157, 8982.245
2599.086, 8958.848
2601.014, 8978.485
2602.943, 9016.511
2604.871, 9088.061
2606.800, 9134.815
2608.728, 9089.409
2610.657, 9045.496
2612.585, 9075.045
2614.514, 9124.773
2616.442, 9165.403
2618.371, 9193.401
2620.299, 9199.884
2622.228, 9198.586
2624.156, 9195.626
2626.084, 9196.826
2628.013, 9214.742
2629.941, 9233.594
2631.870, 9232.043
2633.798, 9223.368
2635.727, 9222.049
2637.655, 9226.199
2639.584, 9233.211
2641.512, 9244.070
2643.441, 9261.471
2645.369, 9282.723
2647.298, 9314.996
2649.226, 9340.052
2651.155, 9305.411
2653.083, 9250.625
2655.011, 9257.406
2656.940, 9297.204
2658.868, 9327.760
2660.797, 9343.357
2662.725, 9315.052
2664.654, 9268.074
2666.582, 9278.019
2668.511, 9319.221
2670.439, 9316.777
2672.368, 9293.536
2674.296, 9319.883
2676.225, 9372.742
2678.153, 9372.639
2680.082, 9338.401
2682.010, 9332.214
2683.938, 9352.000
2685.867, 9406.508
2687.795, 9477.271
2689.724, 9501.238
2691.652, 9488.632
2693.581, 9472.305
2695.509, 9456.780
2697.438, 9472.307
2699.366, 9505.966
2701.295, 9505.777
2703.223, 9481.340
2705.152, 9470.053
2707.080, 9471.371
2709.009, 9490.979
2710.937, 9520.871
2712.865, 9514.155
2714.794, 9482.295
2716.722, 9459.317
2718.651, 9450.968
2720.579, 9486.890
2722.508, 9553.407
2724.436, 9591.655
2726.365, 9604.143
2728.293, 9591.784
2730.222, 9566.528
2732.150, 9586.374
2734.079, 9624.787
2736.007, 9564.925
2737.936, 9446.878
2739.864, 9431.363
2741.792, 9490.222
2743.721, 9527.161
2745.649, 9548.229
2747.578, 9570.029
2749.506, 9591.322
2751.435, 9609.460
2753.363, 9623.120
2755.292, 9631.692
2757.220, 9630.969
2759.149, 9592.452
2761.077, 9546.540
2763.006, 9569.367
2764.934, 9627.242
2766.863, 9655.062
2768.791, 9656.467
2770.719, 9621.058
2772.648, 9578.064
2774.576, 9574.109
2776.505, 9598.857
2778.433, 9662.974
2780.362, 9722.350
2782.290, 9679.906
2784.219, 9609.321
2786.147, 9621.010
2788.076, 9664.112
2790.004, 9679.444
2791.933, 9691.792
2793.861, 9749.515
2795.790, 9801.377
2797.718, 9764.349
2799.646, 9722.684
2801.575, 9775.402
2803.503, 9830.938
2805.432, 9789.742
2807.360, 9737.875
2809.289, 9738.251
2811.217, 9768.289
2813.146, 9833.822
2815.074, 9890.691
2817.003, 9910.010
2818.931, 9911.361
2820.860, 9889.619
2822.788, 9877.987
2824.717, 9897.339
2826.645, 9921.194
2828.573, 9937.255
2830.502, 9956.140
2832.430, 9982.248
2834.359, 10012.09
2836.287, 10046.25
2838.216, 10080.07
2840.144, 10108.18
2842.073, 10147.00
2844.001, 10217.35
2845.930, 10268.96
2847.858, 10273.84
2849.787, 10308.48
2851.715, 10395.64
2853.644, 10443.89
2855.572, 10417.55
2857.500, 10433.53
2859.429, 10541.13
2861.357, 10592.04
2863.286, 10576.05
2865.214, 10586.13
2867.143, 10630.73
2869.071, 10652.20
2871.000, 10644.19
2872.928, 10647.68
2874.857, 10662.65
2876.785, 10687.67
2878.714, 10720.92
2880.642, 10757.83
2882.571, 10792.13
2884.499, 10783.78
2886.427, 10748.80
2888.356, 10748.24
2890.284, 10770.69
2892.213, 10789.68
2894.141, 10810.88
2896.070, 10849.91
2897.998, 10893.59
2899.927, 10924.48
2901.855, 10944.72
2903.784, 10952.52
2905.712, 10956.99
2907.641, 10959.29
2909.569, 10971.41
2911.498, 11016.61
2913.426, 11055.98
2915.354, 11068.96
2917.283, 11068.42
2919.211, 11039.98
2921.140, 11033.38
2923.068, 11098.44
2924.997, 11134.02
2926.925, 11102.95
2928.854, 11081.73
2930.782, 11096.52
2932.711, 11111.88
2934.639, 11131.63
2936.568, 11125.23
2938.496, 11087.96
2940.425, 11044.63
2942.353, 10995.75
2944.281, 10961.16
2946.210, 10941.35
2948.138, 10945.00
2950.067, 10965.69
2951.995, 10934.08
2953.924, 10864.62
2955.852, 10831.83
2957.781, 10829.19
2959.709, 10848.88
2961.638, 10873.51
2963.566, 10864.63
2965.495, 10839.18
2967.423, 10814.93
2969.352, 10791.39
2971.280, 10762.67
2973.208, 10741.63
2975.137, 10732.30
2977.065, 10740.99
2978.994, 10799.77
2980.922, 10833.01
2982.851, 10777.50
2984.779, 10746.14
2986.708, 10785.85
2988.636, 10805.43
2990.565, 10761.46
2992.493, 10728.29
2994.422, 10707.23
2996.350, 10724.44
2998.279, 10787.62
3000.207, 10789.67
3002.135, 10716.07
3004.064, 10696.55
3005.992, 10726.27
3007.921, 10748.14
3009.849, 10761.31
3011.778, 10760.53
3013.706, 10754.56
3015.635, 10762.96
3017.563, 10780.24
3019.492, 10807.13
3021.420, 10827.47
3023.349, 10818.88
3025.277, 10805.63
3027.206, 10803.98
3029.134, 10807.97
3031.063, 10820.24
3032.991, 10825.89
3034.919, 10816.30
3036.848, 10802.56
3038.776, 10778.26
3040.705, 10776.61
3042.633, 10802.59
3044.562, 10848.51
3046.490, 10921.32
3048.419, 10970.22
3050.347, 10995.21
3052.276, 10987.89
3054.204, 10956.33
3056.133, 10927.06
3058.061, 10909.32
3059.990, 10944.10
3061.918, 10989.68
3063.846, 10961.66
3065.775, 10935.34
3067.703, 10994.26
3069.632, 11070.22
3071.560, 11137.78
3073.489, 11170.32
3075.417, 11136.44
3077.346, 11110.34
3079.274, 11125.20
3081.203, 11131.40
3083.131, 11119.03
3085.060, 11127.15
3086.988, 11161.36
3088.917, 11207.20
3090.845, 11263.79
3092.773, 11312.69
3094.702, 11349.42
3096.630, 11342.32
3098.559, 11317.74
3100.487, 11325.97
3102.416, 11354.53
3104.344, 11391.69
3106.273, 11434.54
3108.201, 11485.86
3110.130, 11534.42
3112.058, 11593.18
3113.987, 11607.39
3115.915, 11536.64
3117.844, 11506.21
3119.772, 11577.57
3121.700, 11604.41
3123.629, 11570.59
3125.557, 11608.32
3127.486, 11710.84
3129.414, 11738.35
3131.343, 11709.48
3133.271, 11691.60
3135.200, 11696.51
3137.128, 11770.38
3139.057, 11851.71
3140.985, 11862.36
3142.914, 11868.05
3144.842, 11913.26
3146.771, 11969.49
3148.699, 12039.59
3150.627, 12088.65
3152.556, 12093.15
3154.484, 12117.54
3156.413, 12167.72
3158.341, 12224.56
3160.270, 12286.24
3162.198, 12325.03
3164.127, 12347.09
3166.055, 12370.28
3167.984, 12410.97
3169.912, 12527.12
3171.841, 12642.32
3173.769, 12629.03
3175.698, 12639.76
3177.626, 12800.46
3179.554, 12949.04
3181.483, 13010.79
3183.411, 13067.06
3185.340, 13121.43
3187.268, 13220.85
3189.197, 13381.57
3191.125, 13495.39
3193.054, 13567.09
3194.982, 13667.98
3196.911, 13785.75
3198.839, 13902.16
3200.768, 14004.24
3202.696, 14040.85
3204.625, 14101.86
3206.553, 14280.61
3208.481, 14450.52
3210.410, 14546.37
3212.338, 14635.28
3214.267, 14723.62
3216.195, 14833.88
3218.124, 14978.78
3220.052, 15060.80
3221.981, 15086.24
3223.909, 15139.71
3225.838, 15198.82
3227.766, 15195.38
3229.695, 15185.85
3231.623, 15255.83
3233.552, 15334.95
3235.480, 15379.39
3237.408, 15417.08
3239.337, 15464.14
3241.265, 15494.34
3243.194, 15504.46
3245.122, 15488.89
3247.051, 15443.25
3248.979, 15498.67
3250.908, 15624.26
3252.836, 15671.75
3254.765, 15686.47
3256.693, 15756.69
3258.622, 15811.72
3260.550, 15740.42
3262.479, 15714.52
3264.407, 15851.54
3266.335, 15982.97
3268.264, 16075.37
3270.192, 16158.00
3272.121, 16233.09
3274.049, 16323.39
3275.978, 16424.09
3277.906, 16480.55
3279.835, 16542.27
3281.763, 16738.76
3283.692, 16933.85
3285.620, 16951.52
3287.549, 16989.23
3289.477, 17151.95
3291.406, 17302.06
3293.334, 17373.95
3295.262, 17494.83
3297.191, 17667.33
3299.119, 17762.77
3301.048, 17795.16
3302.976, 17842.33
3304.905, 17909.03
3306.833, 18003.80
3308.762, 18123.91
3310.690, 18310.82
3312.619, 18444.04
3314.547, 18447.80
3316.476, 18495.26
3318.404, 18637.34
3320.333, 18744.62
3322.261, 18812.41
3324.189, 19018.65
3326.118, 19277.98
3328.046, 19322.46
3329.975, 19310.35
3331.903, 19460.99
3333.832, 19629.17
3335.760, 19718.98
3337.689, 19833.00
3339.617, 20014.44
3341.546, 20152.27
3343.474, 20234.48
3345.403, 20389.47
3347.331, 20607.25
3349.260, 20844.81
3351.188, 21066.99
3353.116, 21190.67
3355.045, 21323.99
3356.973, 21576.12
3358.902, 21824.81
3360.830, 22022.68
3362.759, 22255.08
3364.687, 22550.65
3366.616, 22777.64
3368.544, 22956.40
3370.473, 23205.36
3372.401, 23489.89
3374.330, 23750.64
3376.258, 24004.10
3378.187, 24257.38
3380.115, 24520.65
3382.043, 24798.90
3383.972, 25081.86
3385.900, 25366.02
3387.829, 25737.45
3389.757, 26169.30
3391.686, 26415.59
3393.614, 26602.88
3395.543, 26944.30
3397.471, 27318.57
3399.400, 27630.65
3401.328, 27933.79
3403.257, 28227.51
3405.185, 28578.54
3407.114, 28996.95
3409.042, 29453.71
3410.970, 29935.40
3412.899, 30374.08
3414.827, 30814.17
3416.756, 31347.51
3418.684, 31867.80
3420.613, 32271.92
3422.541, 32731.35
3424.470, 33298.54
3426.398, 33843.11
3428.327, 34360.92
3430.255, 34997.31
3432.184, 35685.62
3434.112, 36204.45
3436.041, 36705.40
3437.969, 37356.70
3439.897, 38003.32
3441.826, 38564.68
3443.754, 39182.59
3445.683, 39898.70
3447.611, 40550.45
3449.540, 41159.13
3451.468, 41909.39
3453.397, 42704.42
3455.325, 43410.93
3457.254, 44097.72
3459.182, 44789.22
3461.111, 45520.00
3463.039, 46350.91
3464.968, 47072.95
3466.896, 47707.82
3468.824, 48504.50
3470.753, 49374.86
3472.681, 50160.83
3474.610, 50869.25
3476.538, 51482.00
3478.467, 52088.02
3480.395, 52770.04
3482.324, 53254.07
3484.252, 53526.63
3486.181, 53869.54
3488.109, 54238.79
3490.038, 54504.24
3491.966, 54658.44
3493.895, 54631.78
3495.823, 54614.43
3497.751, 54719.49
3499.680, 54651.00
3501.608, 54347.73
3503.537, 53929.20
3505.465, 53402.43
3507.394, 52751.42
3509.322, 52060.96
3511.251, 51411.97
3513.179, 50759.96
3515.108, 50105.69
3517.036, 49369.17
3518.965, 48526.12
3520.893, 47711.98
3522.822, 46926.44
3524.750, 46163.38
3526.678, 45416.71
3528.607, 44657.66
3530.535, 43951.22
3532.464, 43321.14
3534.392, 42772.18
3536.321, 42300.37
3538.249, 41719.28
3540.178, 41097.79
3542.106, 40654.46
3544.035, 40247.82
3545.963, 39738.87
3547.892, 39265.14
3549.820, 38910.38
3551.749, 38483.30
3553.677, 37983.15
3555.605, 37554.24
3557.534, 37164.48
3559.462, 36733.48
3561.391, 36307.84
3563.319, 35948.53
3565.248, 35537.84
3567.176, 35047.31
3569.105, 34575.05
3571.033, 34131.47
3572.962, 33746.41
3574.890, 33357.93
3576.819, 32839.02
3578.747, 32357.38
3580.676, 32073.02
3582.604, 31633.80
3584.532, 30969.93
3586.461, 30415.04
3588.389, 29946.13
3590.318, 29474.93
3592.246, 28991.34
3594.175, 28451.25
3596.103, 27979.61
3598.032, 27637.47
3599.960, 27208.69
3601.889, 26679.81
3603.817, 26185.35
3605.746, 25699.15
3607.674, 25150.94
3609.603, 24641.88
3611.531, 24247.23
3613.459, 23838.55
3615.388, 23385.31
3617.316, 22932.41
3619.245, 22480.25
3621.173, 22017.17
3623.102, 21574.20
3625.030, 21199.13
3626.959, 20827.12
3628.887, 20439.39
3630.816, 20047.17
3632.744, 19657.12
3634.673, 19339.33
3636.601, 19039.21
3638.530, 18655.93
3640.458, 18307.52
3642.386, 18068.74
3644.315, 17786.66
3646.243, 17441.75
3648.172, 17194.78
3650.100, 16999.76
3652.029, 16737.29
3653.957, 16503.31
3655.886, 16377.30
3657.814, 16215.65
3659.743, 15971.24
3661.671, 15788.16
3663.600, 15653.39
3665.528, 15523.95
3667.457, 15395.99
3669.385, 15264.02
3671.313, 15138.51
3673.242, 15021.40
3675.170, 14924.18
3677.099, 14839.21
3679.027, 14732.70
3680.956, 14618.37
3682.884, 14504.32
3684.813, 14405.01
3686.741, 14346.08
3688.670, 14235.12
3690.598, 14089.80
3692.527, 14036.02
3694.455, 14013.29
3696.384, 13939.41
3698.312, 13865.85
3700.240, 13814.27
3702.169, 13761.85
3704.097, 13709.44
3706.026, 13678.96
3707.954, 13650.56
3709.883, 13584.03
3711.811, 13528.54
3713.740, 13516.91
3715.668, 13488.42
3717.597, 13439.94
3719.525, 13361.04
3721.454, 13281.20
3723.382, 13244.95
3725.311, 13223.77
3727.239, 13209.81
3729.167, 13198.24
3731.096, 13188.45
3733.024, 13190.97
3734.953, 13179.95
3736.881, 13089.74
3738.810, 13021.82
3740.738, 13026.95
3742.667, 13034.90
3744.595, 13037.02
3746.524, 12991.56
3748.452, 12937.52
3750.381, 12928.33
3752.309, 12923.78
3754.238, 12911.14
3756.166, 12899.20
3758.094, 12885.90
3760.023, 12866.63
3761.951, 12826.06
3763.880, 12701.15
3765.808, 12643.79
3767.737, 12724.43
3769.665, 12765.39
3771.594, 12765.85
3773.522, 12732.00
3775.451, 12693.76
3777.379, 12670.03
3779.308, 12670.69
3781.236, 12709.49
3783.165, 12697.28
3785.093, 12654.90
3787.021, 12632.76
3788.950, 12616.91
3790.878, 12589.70
3792.807, 12604.62
3794.735, 12674.36
3796.664, 12681.46
3798.592, 12648.62
3800.521, 12601.16
3802.449, 12567.63
3804.378, 12567.39
3806.306, 12530.11
3808.235, 12458.13
3810.163, 12436.87
3812.092, 12450.48
3814.020, 12495.50
3815.948, 12539.38
3817.877, 12578.36
3819.805, 12541.22
3821.734, 12463.46
3823.662, 12482.35
3825.591, 12513.24
3827.519, 12478.08
3829.448, 12486.96
3831.376, 12549.15
3833.305, 12546.16
3835.233, 12517.03
3837.162, 12537.66
3839.090, 12560.78
3841.019, 12562.89
3842.947, 12573.73
3844.875, 12589.51
3846.804, 12585.94
3848.732, 12567.40
3850.661, 12536.22
3852.589, 12490.95
3854.518, 12435.81
3856.446, 12424.82
3858.375, 12434.55
3860.303, 12401.81
3862.232, 12390.15
3864.160, 12443.45
3866.089, 12471.07
3868.017, 12468.62
3869.946, 12442.95
3871.874, 12413.18
3873.802, 12394.71
3875.731, 12389.13
3877.659, 12395.80
3879.588, 12430.04
3881.516, 12468.12
3883.445, 12474.31
3885.373, 12437.36
3887.302, 12332.86
3889.230, 12326.81
3891.159, 12411.64
3893.087, 12460.26
3895.016, 12462.56
3896.944, 12361.86
3898.873, 12332.80
3900.801, 12400.10
3902.729, 12387.70
3904.658, 12339.62
3906.586, 12344.02
3908.515, 12349.25
3910.443, 12327.19
3912.372, 12299.41
3914.300, 12276.16
3916.229, 12291.18
3918.157, 12306.10
3920.086, 12276.67
3922.014, 12251.52
3923.943, 12245.38
3925.871, 12254.88
3927.800, 12262.81
3929.728, 12257.25
3931.656, 12270.50
3933.585, 12322.96
3935.513, 12317.44
3937.442, 12283.42
3939.370, 12271.18
3941.299, 12258.10
3943.227, 12254.14
3945.156, 12210.58
3947.084, 12149.95
3949.013, 12205.29
3950.941, 12259.54
3952.870, 12226.69
3954.798, 12204.89
3956.727, 12215.09
3958.655, 12196.91
3960.583, 12150.08
3962.512, 12110.79
3964.440, 12092.54
3966.369, 12096.60
3968.297, 12138.25
3970.226, 12177.41
3972.154, 12177.94
3974.083, 12146.34
3976.011, 12079.54
3977.940, 12055.10
3979.868, 12069.33
3981.797, 12104.79
3983.725, 12117.54
3985.654, 12106.98
3987.582, 12087.10
3989.510, 12032.63
3991.439, 12001.35
3993.367, 12030.20
3995.296, 12078.37
3997.224, 12115.52
3999.153, 12107.96
4001.081, 12027.25
4003.010, 11983.41
4004.938, 12027.05
4006.867, 12046.29
4008.795, 12003.78
4010.724, 11963.43
4012.652, 11973.62
4014.581, 12030.40
4016.509, 12042.92
4018.438, 12035.09
4020.366, 11997.64
4022.294, 11953.06
4024.223, 11977.96
4026.151, 12007.07
4028.080, 12004.93
4030.008, 11990.33
4031.937, 11999.47
4033.865, 12045.66
4035.794, 12016.93
4037.722, 11940.84
4039.651, 11925.74
4041.579, 11932.22
4043.508, 11933.89
4045.436, 11937.89
4047.365, 11944.35
4049.293, 11930.54
4051.221, 11921.40
4053.150, 11858.78
4055.078, 11832.84
4057.007, 11877.60
4058.935, 11892.01
4060.864, 11877.26
4062.792, 11877.91
4064.721, 11889.06
4066.649, 11891.46
4068.578, 11896.40
4070.506, 11867.22
4072.435, 11817.71
4074.363, 11828.75
4076.292, 11863.19
4078.220, 11833.75
4080.148, 11787.32
4082.077, 11764.23
4084.005, 11769.00
4085.934, 11788.48
4087.862, 11816.49
4089.791, 11808.44
4091.719, 11749.66
4093.648, 11744.93
4095.576, 11780.77
4097.504, 11781.66
4099.433, 11759.21
4101.361, 11753.24
4103.290, 11752.04
4105.218, 11740.95
4107.147, 11726.28
4109.075, 11719.55
4111.004, 11740.93
4112.932, 11728.27
4114.861, 11678.78
4116.789, 11686.45
4118.718, 11703.49
4120.646, 11687.37
4122.575, 11657.10
4124.503, 11621.69
4126.432, 11620.16
4128.360, 11634.53
4130.289, 11650.24
4132.217, 11669.00
4134.146, 11688.38
4136.074, 11687.28
4138.002, 11683.80
4139.931, 11705.99
4141.859, 11709.05
4143.788, 11681.60
4145.716, 11669.23
4147.645, 11656.01
4149.573, 11597.46
4151.501, 11598.69
4153.430, 11672.31
4155.358, 11674.33
4157.287, 11644.77
4159.215, 11666.32
4161.144, 11646.04
4163.072, 11569.75
4165.001, 11610.92
4166.929, 11676.65
4168.858, 11582.80
4170.786, 11545.61
4172.715, 11618.48
4174.643, 11608.06
4176.572, 11559.99
4178.500, 11572.24
4180.429, 11593.04
4182.357, 11598.91
4184.286, 11588.97
4186.214, 11567.35
4188.143, 11502.95
4190.071, 11505.22
4192.000, 11608.03
4193.928, 11604.27
4195.856, 11561.97
4197.785, 11574.16
4199.713, 11583.95
4201.642, 11573.74
4203.570, 11579.17
4205.499, 11575.88
4207.427, 11516.19
4209.355, 11499.71
4211.284, 11555.17
4213.212, 11563.70
4215.141, 11550.91
4217.069, 11559.19
4218.998, 11565.31
4220.926, 11566.94
4222.855, 11558.82
4224.783, 11542.98
4226.712, 11514.96
4228.640, 11512.03
4230.569, 11526.96
4232.497, 11451.29
4234.426, 11407.06
4236.354, 11541.54
4238.283, 11549.30
4240.211, 11462.70
4242.140, 11537.79
4244.068, 11603.68
4245.997, 11516.09
4247.925, 11521.56
4249.854, 11584.86
4251.782, 11600.93
4253.710, 11579.84
4255.639, 11500.71
4257.567, 11492.62
4259.496, 11514.59
4261.424, 11459.93
4263.353, 11452.32
4265.281, 11549.22
4267.209, 11571.74
4269.138, 11560.31
4271.066, 11568.10
4272.995, 11574.08
4274.923, 11574.75
4276.852, 11619.81
4278.780, 11654.88
4280.709, 11605.12
4282.637, 11579.23
4284.566, 11588.67
4286.494, 11647.27
4288.423, 11674.90
4290.351, 11576.53
4292.280, 11533.22
4294.208, 11558.25
4296.137, 11724.31
4298.065, 11829.09
4299.994, 11759.05
4301.922, 11691.00
4303.851, 11639.64
4305.779, 11635.62
4307.708, 11638.29
4309.636, 11637.25
4311.564, 11676.17
4313.493, 11712.72
4315.421, 11695.22
4317.350, 11688.48
4319.278, 11695.76
4321.207, 11646.36
4323.135, 11645.81
4325.063, 11780.54
4326.992, 11830.55
4328.920, 11816.65
4330.849, 11839.43
4332.777, 11813.20
4334.706, 11707.04
4336.634, 11705.47
4338.563, 11752.61
4340.491, 11791.60
4342.420, 11784.90
4344.348, 11736.46
4346.277, 11682.18
4348.205, 11680.40
4350.134, 11781.69
4352.062, 11859.09
4353.991, 11895.44
4355.919, 11868.50
4357.848, 11827.10
4359.776, 11787.57
4361.705, 11825.54
4363.633, 11882.16
4365.562, 11888.67
4367.490, 11855.25
4369.418, 11796.99
4371.347, 11799.11
4373.275, 11831.44
4375.204, 11893.43
4377.132, 11906.14
4379.061, 11886.14
4380.989, 11866.86
4382.917, 11865.71
4384.846, 11889.27
4386.774, 11938.30
4388.703, 11968.07
4390.631, 11912.39
4392.560, 11905.10
4394.488, 11948.99
4396.417, 12011.90
4398.345, 12027.21
4400.274, 11961.49
4402.202, 11967.32
4404.131, 12003.94
4406.059, 12013.99
4407.988, 11991.14
4409.916, 11947.05
4411.845, 11946.25
4413.773, 11967.46
4415.702, 12001.75
4417.630, 12021.32
4419.559, 12027.42
4421.487, 12014.97
4423.416, 12028.89
4425.344, 12077.07
4427.272, 12049.16
4429.201, 12017.09
4431.129, 12045.08
4433.058, 12051.56
4434.986, 12058.29
4436.915, 12166.96
4438.843, 12212.60
4440.771, 12153.39
4442.700, 12100.95
4444.628, 12089.05
4446.557, 12156.88
4448.485, 12190.69
4450.414, 12186.32
4452.342, 12149.95
4454.271, 12131.19
4456.199, 12144.16
4458.128, 12160.96
4460.056, 12178.94
4461.985, 12199.13
4463.913, 12210.13
4465.842, 12213.90
4467.770, 12214.30
4469.699, 12223.32
4471.627, 12245.85
4473.556, 12228.68
4475.484, 12197.92
4477.413, 12165.12
4479.341, 12188.07
4481.270, 12240.47
4483.198, 12252.89
4485.126, 12267.90
4487.055, 12290.53
4488.983, 12223.27
4490.912, 12187.42
4492.840, 12328.39
4494.769, 12331.57
4496.697, 12268.19
4498.625, 12309.16
4500.554, 12331.83
4502.482, 12316.86
4504.411, 12305.71
4506.339, 12340.77
4508.268, 12452.77
4510.196, 12435.97
4512.125, 12363.76
4514.053, 12342.89
4515.982, 12344.62
4517.910, 12352.69
4519.839, 12311.92
4521.767, 12282.70
4523.696, 12288.48
4525.624, 12366.11
4527.553, 12432.04
4529.481, 12388.46
4531.410, 12418.44
4533.338, 12500.04
4535.267, 12564.25
4537.195, 12566.50
4539.124, 12510.91
4541.052, 12475.71
4542.980, 12478.58
4544.909, 12556.63
4546.837, 12528.83
4548.766, 12463.82
4550.694, 12454.03
4552.623, 12491.94
4554.551, 12551.67
4556.479, 12512.19
4558.408, 12528.86
4560.336, 12634.64
4562.265, 12603.75
4564.193, 12542.40
4566.122, 12544.98
4568.050, 12482.64
4569.979, 12433.54
4571.907, 12596.83
4573.836, 12659.24
4575.764, 12608.11
4577.693, 12603.31
4579.621, 12641.33
4581.550, 12713.47
4583.478, 12663.97
4585.407, 12593.43
4587.335, 12572.38
4589.264, 12640.10
4591.192, 12729.24
4593.121, 12720.00
4595.049, 12681.55
4596.978, 12639.83
4598.906, 12687.73
4600.834, 12697.43
4602.763, 12637.08
4604.691, 12622.43
4606.620, 12623.31
4608.548, 12603.37
4610.477, 12668.87
4612.405, 12744.78
4614.333, 12708.58
4616.262, 12677.54
4618.190, 12673.19
4620.119, 12744.60
4622.047, 12760.65
4623.976, 12706.62
4625.904, 12695.50
4627.833, 12706.72
4629.761, 12729.07
4631.690, 12771.74
4633.618, 12806.82
4635.547, 12802.34
4637.475, 12832.86
4639.404, 12856.33
4641.332, 12754.15
4643.261, 12724.81
4645.189, 12769.02
4647.118, 12774.83
4649.046, 12741.16
4650.975, 12669.55
4652.903, 12760.42
4654.832, 12870.02
4656.760, 12926.35
4658.688, 12889.35
4660.617, 12850.13
4662.545, 12930.95
4664.474, 12903.73
4666.402, 12831.29
4668.331, 12852.25
4670.259, 12884.84
4672.188, 12907.77
4674.116, 12888.80
4676.044, 12860.50
4677.973, 12836.99
4679.901, 12852.33
4681.830, 12884.47
4683.758, 12925.94
4685.687, 12935.05
4687.615, 12947.86
4689.544, 12992.76
4691.472, 13009.72
4693.401, 13008.25
4695.329, 13010.13
4697.258, 12969.12
4699.186, 12929.40
4701.115, 13021.71
4703.043, 13033.87
4704.972, 12968.49
4706.900, 12963.94
4708.829, 12979.73
4710.757, 12998.70
4712.686, 12950.92
4714.614, 12957.35
4716.542, 13071.98
4718.471, 13076.53
4720.399, 13059.77
4722.328, 13083.28
4724.256, 13050.07
4726.185, 13011.01
4728.113, 13028.48
4730.042, 13048.21
4731.970, 13064.38
4733.898, 13062.90
4735.827, 13140.28
4737.755, 13218.61
4739.684, 13061.38
4741.612, 12986.21
4743.541, 13022.00
4745.469, 13053.06
4747.398, 13075.35
4749.326, 13092.79
4751.255, 13148.45
4753.183, 13165.04
4755.112, 13110.92
4757.040, 13128.92
4758.969, 13110.31
4760.897, 13003.36
4762.826, 13070.54
4764.754, 13153.06
4766.683, 13111.59
4768.611, 13076.41
4770.540, 13060.38
4772.468, 13075.71
4774.396, 13090.37
4776.325, 13110.92
4778.253, 13163.23
4780.182, 13173.79
4782.110, 13149.72
4784.039, 13088.77
4785.967, 13142.41
4787.896, 13253.35
4789.824, 13227.30
4791.752, 13239.28
4793.681, 13283.96
4795.609, 13198.31
4797.538, 13169.68
4799.466, 13217.98
4801.395, 13251.93
4803.323, 13249.36
4805.252, 13211.90
4807.180, 13200.70
4809.109, 13210.31
4811.037, 13233.11
4812.966, 13201.40
4814.894, 13158.89
4816.823, 13126.37
4818.751, 13192.02
4820.680, 13257.25
4822.608, 13271.05
4824.537, 13252.99
4826.465, 13215.92
4828.394, 13156.00
4830.322, 13232.15
4832.250, 13295.31
4834.179, 13232.54
4836.107, 13228.87
4838.036, 13237.55
4839.964, 13213.42
4841.893, 13146.04
4843.821, 13089.37
4845.750, 13094.57
4847.678, 13125.37
4849.606, 13163.64
4851.535, 13201.17
4853.463, 13203.38
4855.392, 13198.57
4857.320, 13224.10
4859.249, 13223.45
4861.177, 13224.80
4863.106, 13295.30
4865.034, 13271.74
4866.963, 13220.22
4868.891, 13253.00
4870.820, 13261.11
4872.748, 13248.30
4874.677, 13229.83
4876.605, 13256.62
4878.534, 13277.54
4880.462, 13190.88
4882.391, 13147.50
4884.319, 13155.00
4886.248, 13210.72
4888.176, 13253.81
4890.104, 13270.13
4892.033, 13233.30
4893.961, 13210.36
4895.890, 13216.63
4897.818, 13296.44
4899.747, 13222.05
4901.675, 13104.11
4903.604, 13174.85
4905.532, 13234.60
4907.460, 13235.10
4909.389, 13096.68
4911.317, 13165.86
4913.246, 13311.01
4915.174, 13276.23
4917.103, 13216.23
4919.031, 13167.95
4920.960, 13161.36
4922.888, 13188.12
4924.817, 13215.30
4926.745, 13187.50
4928.674, 13195.05
4930.602, 13220.72
4932.531, 13248.65
4934.459, 13187.06
4936.388, 13093.21
4938.316, 13016.26
4940.245, 13187.66
4942.173, 13358.23
4944.102, 13224.55
4946.030, 13178.22
4947.958, 13167.59
4949.887, 13128.58
4951.815, 13191.56
4953.744, 13260.58
4955.672, 13241.50
4957.601, 13231.80
4959.529, 13221.32
4961.458, 13202.53
4963.386, 13155.67
4965.314, 13125.58
4967.243, 13139.29
4969.171, 13183.53
4971.100, 13223.81
4973.028, 13242.58
4974.957, 13183.21
4976.885, 13147.76
4978.814, 13168.42
4980.742, 13166.82
4982.671, 13175.73
4984.599, 13199.72
4986.528, 13163.64
4988.456, 13142.25
4990.385, 13154.76
4992.313, 13216.73
4994.242, 13198.89
4996.170, 13121.70
4998.099, 13140.07
5000.027, 13170.11
5001.956, 13190.85
5003.884, 13197.26
5005.813, 13158.30
5007.741, 13106.27
5009.669, 13100.96
5011.598, 13096.28
5013.526, 13098.67
5015.455, 13127.71
5017.383, 13106.56
5019.312, 13091.75
5021.240, 13143.09
5023.168, 13150.68
5025.097, 13112.86
5027.025, 13013.71
5028.954, 13057.35
5030.882, 13108.88
5032.811, 13108.74
5034.739, 13141.52
5036.668, 13117.71
5038.596, 13024.16
5040.525, 12998.97
5042.453, 13026.51
5044.382, 13088.28
5046.310, 13161.02
5048.239, 13141.48
5050.167, 13056.61
5052.096, 12980.85
5054.024, 12985.48
5055.953, 13026.31
5057.881, 13034.57
5059.810, 12996.39
5061.738, 12985.91
5063.667, 13078.52
5065.595, 13054.84
5067.523, 12999.59
5069.452, 12979.34
5071.380, 12971.21
5073.309, 13001.04
5075.237, 13071.77
5077.166, 13111.91
5079.094, 13066.91
5081.022, 12965.73
5082.951, 12963.29
5084.879, 12964.34
5086.808, 12975.89
5088.736, 13096.25
5090.665, 13063.79
5092.593, 12986.83
5094.522, 13055.65
5096.450, 12943.15
5098.379, 12832.99
5100.307, 12916.67
5102.236, 12895.21
5104.164, 12908.47
5106.093, 13008.67
5108.021, 12968.61
5109.950, 12885.34
5111.878, 12823.42
5113.807, 12940.08
5115.735, 12948.45
5117.664, 12868.25
5119.592, 12862.67
5121.521, 12814.42
5123.449, 12771.61
5125.377, 12804.21
5127.306, 12815.68
5129.234, 12824.95
5131.163, 12852.41
5133.091, 12763.67
5135.020, 12752.83
5136.948, 12850.79
5138.876, 12725.21
5140.805, 12702.57
5142.733, 12768.51
5144.662, 12706.52
5146.590, 12702.29
5148.519, 12745.86
5150.447, 12818.45
5152.376, 12778.25
5154.304, 12767.23
5156.233, 12868.72
5158.161, 12812.27
5160.090, 12743.76
5162.018, 12725.10
5163.947, 12764.60
5165.875, 12778.09
5167.804, 12755.71
5169.732, 12705.50
5171.661, 12705.26
5173.589, 12734.83
5175.518, 12766.68
5177.446, 12727.00
5179.375, 12698.18
5181.303, 12725.64
5183.231, 12723.71
5185.160, 12689.86
5187.088, 12631.27
5189.017, 12549.68
5190.945, 12587.66
5192.874, 12651.43
5194.802, 12566.93
5196.730, 12582.56
5198.659, 12627.72
5200.587, 12645.69
5202.516, 12687.11
5204.444, 12673.83
5206.373, 12615.66
5208.301, 12641.99
5210.230, 12730.32
5212.158, 12795.74
5214.087, 12696.19
5216.015, 12624.75
5217.944, 12565.54
5219.872, 12500.39
5221.801, 12521.45
5223.729, 12582.41
5225.658, 12642.66
5227.586, 12607.60
5229.515, 12614.46
5231.443, 12639.45
5233.372, 12589.88
5235.300, 12692.00
5237.229, 12704.64
5239.157, 12491.66
5241.085, 12476.59
5243.014, 12498.37
5244.942, 12508.26
5246.871, 12541.02
5248.799, 12512.78
5250.728, 12481.25
5252.656, 12552.79
5254.584, 12484.42
5256.513, 12403.61
5258.441, 12384.99
5260.370, 12495.31
5262.298, 12462.55
5264.227, 12345.32
5266.155, 12418.67
5268.084, 12408.53
5270.012, 12361.97
5271.941, 12335.37
5273.869, 12337.01
5275.798, 12331.06
5277.726, 12321.29
5279.655, 12385.58
5281.583, 12393.86
5283.512, 12366.03
5285.440, 12346.22
5287.369, 12334.01
5289.297, 12338.93
5291.226, 12355.77
5293.154, 12289.19
5295.083, 12221.55
5297.011, 12195.27
5298.939, 12261.30
5300.868, 12250.38
5302.796, 12224.54
5304.725, 12235.65
5306.653, 12232.96
5308.582, 12225.87
5310.510, 12234.98
5312.438, 12327.72
5314.367, 12230.28
5316.295, 12104.60
5318.224, 12106.55
5320.152, 12196.67
5322.081, 12179.24
5324.009, 12071.50
5325.938, 12167.27
5327.866, 12143.16
5329.795, 12063.69
5331.723, 12028.18
5333.652, 12084.37
5335.580, 12078.59
5337.509, 12009.62
5339.437, 12064.13
5341.366, 12123.59
5343.294, 12126.84
5345.223, 12009.25
5347.151, 11983.20
5349.080, 12011.81
5351.008, 12058.79
5352.937, 12062.61
5354.865, 11987.81
5356.793, 11925.82
5358.722, 11966.08
5360.650, 11975.22
5362.579, 11950.76
5364.507, 11908.03
5366.436, 11891.88
5368.364, 11868.91
5370.292, 11840.41
5372.221, 11811.69
5374.149, 11769.25
5376.078, 11797.55
5378.006, 11867.47
5379.935, 11841.70
5381.863, 11770.48
5383.792, 11730.65
5385.720, 11776.70
5387.649, 11742.45
5389.577, 11708.58
5391.506, 11700.52
5393.434, 11723.53
5395.363, 11746.57
5397.291, 11727.68
5399.220, 11661.94
5401.148, 11664.53
5403.077, 11695.11
5405.005, 11709.27
5406.934, 11642.24
5408.862, 11626.53
5410.791, 11629.11
5412.719, 11620.34
5414.647, 11523.71
5416.576, 11533.27
5418.504, 11576.65
5420.433, 11555.38
5422.361, 11511.15
5424.290, 11463.01
5426.218, 11420.23
5428.146, 11385.44
5430.075, 11394.27
5432.003, 11395.07
5433.932, 11365.23
5435.860, 11471.24
5437.789, 11523.49
5439.717, 11492.91
5441.646, 11397.15
5443.574, 11437.91
5445.503, 11395.10
5447.431, 11252.77
5449.360, 11277.94
5451.288, 11292.42
5453.217, 11325.43
5455.145, 11410.66
5457.074, 11311.52
5459.002, 11247.60
5460.931, 11250.02
5462.859, 11284.15
5464.788, 11216.41
5466.716, 11188.27
5468.645, 11229.14
5470.573, 11210.45
5472.501, 11238.64
5474.430, 11253.47
5476.358, 11202.87
5478.287, 11192.81
5480.215, 11137.84
5482.144, 11062.06
5484.072, 11025.43
5486.000, 11058.62
5487.929, 11020.66
5489.857, 10945.62
5491.786, 11081.80
5493.714, 11122.61
5495.643, 11116.98
5497.571, 11113.51
5499.500, 11065.27
5501.428, 10985.51
5503.357, 10965.25
5505.285, 11115.66
5507.214, 11024.28
5509.142, 10988.22
5511.071, 11020.59
5512.999, 10986.62
5514.928, 10943.96
5516.856, 10898.97
5518.785, 10864.04
5520.713, 10890.48
5522.642, 10863.66
5524.570, 10835.13
5526.499, 10841.63
5528.427, 10795.88
5530.355, 10811.92
5532.284, 10831.40
5534.212, 10773.63
5536.141, 10778.56
5538.069, 10797.51
5539.998, 10806.10
5541.926, 10790.88
5543.854, 10721.10
5545.783, 10665.53
5547.711, 10660.76
5549.640, 10772.05
5551.568, 10660.67
5553.497, 10544.50
5555.425, 10538.30
5557.354, 10590.37
5559.282, 10611.23
5561.211, 10607.28
5563.139, 10594.86
5565.068, 10597.72
5566.996, 10578.60
5568.925, 10540.86
5570.853, 10495.95
5572.782, 10453.26
5574.710, 10426.44
5576.639, 10437.12
5578.567, 10512.33
5580.496, 10501.37
5582.424, 10486.77
5584.353, 10467.00
5586.281, 10372.97
5588.209, 10399.78
5590.138, 10430.79
5592.066, 10413.92
5593.995, 10335.68
5595.923, 10308.43
5597.852, 10339.89
5599.780, 10389.02
5601.708, 10346.74
5603.637, 10356.56
5605.565, 10302.17
5607.494, 10180.49
5609.422, 10306.64
5611.351, 10281.24
5613.279, 10208.29
5615.208, 10179.11
5617.136, 10192.40
5619.065, 10234.67
5620.993, 10232.62
5622.922, 10152.90
5624.850, 10090.94
5626.779, 10070.39
5628.707, 10094.33
5630.636, 10140.33
5632.564, 10043.99
5634.493, 10106.94
5636.421, 10179.55
5638.350, 10111.57
5640.278, 10014.57
5642.207, 9973.214
5644.135, 9986.471
5646.063, 10031.78
5647.992, 9914.478
5649.920, 9974.120
5651.849, 10033.07
5653.777, 9894.783
5655.706, 9924.915
5657.634, 9911.021
5659.563, 9862.432
5661.491, 9834.988
5663.419, 9897.541
5665.348, 9887.882
5667.276, 9852.942
5669.205, 9856.717
5671.133, 9852.137
5673.062, 9858.619
5674.990, 9840.345
5676.919, 9771.780
5678.847, 9782.570
5680.776, 9775.221
5682.704, 9774.855
5684.633, 9805.272
5686.561, 9749.283
5688.490, 9689.635
5690.418, 9676.906
5692.347, 9720.166
5694.275, 9734.606
5696.204, 9653.124
5698.132, 9607.702
5700.061, 9650.796
5701.989, 9581.915
5703.917, 9586.581
5705.846, 9583.612
5707.774, 9534.772
5709.703, 9546.115
5711.631, 9472.051
5713.560, 9463.977
5715.488, 9546.102
5717.417, 9546.727
5719.345, 9463.165
5721.273, 9432.105
5723.202, 9460.979
5725.130, 9438.849
5727.059, 9450.913
5728.987, 9437.325
5730.916, 9396.156
5732.844, 9360.969
5734.773, 9294.333
5736.701, 9309.049
5738.630, 9357.571
5740.558, 9346.283
5742.487, 9270.139
5744.415, 9254.685
5746.344, 9275.634
5748.272, 9283.866
5750.201, 9282.367
5752.129, 9297.521
5754.058, 9293.090
5755.986, 9248.120
5757.915, 9202.079
5759.843, 9153.301
5761.771, 9157.294
5763.700, 9194.943
5765.628, 9112.234
5767.557, 9151.961
5769.485, 9160.503
5771.414, 9125.488
5773.342, 9147.935
5775.271, 9097.929
5777.199, 9055.257
5779.127, 9039.576
5781.056, 9043.138
5782.984, 9089.837
5784.913, 9068.528
5786.841, 9038.187
5788.770, 9047.406
5790.698, 8999.813
5792.627, 8961.312
5794.555, 8950.278
5796.484, 8947.207
5798.412, 8855.514
5800.341, 8876.075
5802.269, 8937.553
5804.198, 8957.733
5806.126, 8837.391
5808.055, 8806.983
5809.983, 8854.693
5811.912, 8876.349
5813.840, 8794.873
5815.769, 8838.559
5817.697, 8849.605
5819.625, 8825.733
5821.554, 8786.258
5823.482, 8740.733
5825.411, 8722.370
5827.339, 8653.688
5829.268, 8613.559
5831.196, 8746.688
5833.125, 8773.281
5835.053, 8640.757
5836.981, 8568.948
5838.910, 8681.733
5840.838, 8566.493
5842.767, 8535.813
5844.695, 8532.308
5846.624, 8529.327
5848.552, 8609.776
5850.481, 8600.338
5852.409, 8562.957
5854.338, 8534.703
5856.266, 8529.442
5858.195, 8514.944
5860.123, 8467.368
5862.052, 8448.171
5863.980, 8467.227
5865.909, 8413.572
5867.837, 8360.651
5869.766, 8378.182
5871.694, 8425.865
5873.623, 8416.495
5875.551, 8361.338
5877.479, 8350.835
5879.408, 8317.174
5881.336, 8247.944
5883.265, 8317.342
5885.193, 8354.779
5887.122, 8340.773
5889.050, 8291.583
5890.979, 8236.001
5892.907, 8319.553
5894.835, 8279.668
5896.764, 8194.762
5898.692, 8151.892
5900.621, 8126.286
5902.549, 8155.771
5904.478, 8139.644
5906.406, 8110.127
5908.335, 8142.424
5910.263, 8117.671
5912.192, 8098.177
5914.120, 8075.561
5916.049, 8045.465
5917.977, 8024.016
5919.906, 8074.380
5921.834, 8092.850
5923.763, 8037.914
5925.691, 7923.186
5927.620, 7915.522
5929.548, 7979.900
5931.477, 7986.644
5933.405, 7939.881
5935.333, 7970.680
5937.262, 7944.528
5939.190, 7888.773
5941.119, 7867.881
5943.047, 7892.337
5944.976, 7841.800
5946.904, 7840.964
5948.833, 7848.875
5950.761, 7835.224
5952.689, 7791.311
5954.618, 7800.971
5956.546, 7822.153
5958.475, 7778.321
5960.403, 7716.833
5962.332, 7773.135
5964.260, 7686.618
5966.189, 7655.698
5968.117, 7711.088
5970.046, 7781.461
5971.974, 7702.681
5973.903, 7729.048
5975.831, 7744.059
5977.760, 7674.996
5979.688, 7547.689
5981.617, 7618.855
5983.545, 7545.991
5985.474, 7568.113
5987.402, 7644.242
5989.331, 7603.604
5991.259, 7551.792
5993.188, 7520.787
5995.116, 7524.977
5997.044, 7550.320
5998.973, 7560.055
6000.901, 7414.323
6002.830, 7403.756
6004.758, 7457.537
6006.687, 7475.173
6008.615, 7423.171
6010.543, 7371.990
6012.472, 7379.467
6014.400, 7373.051
6016.329, 7325.521
6018.257, 7328.101
6020.186, 7295.032
6022.114, 7342.673
6024.043, 7352.690
6025.971, 7254.411
6027.900, 7220.044
6029.828, 7284.057
6031.757, 7292.561
6033.685, 7261.683
6035.614, 7249.130
6037.542, 7244.610
6039.471, 7268.218
6041.399, 7240.893
6043.328, 7177.754
6045.256, 7125.903
6047.185, 7109.948
6049.113, 7123.641
6051.042, 7130.125
6052.970, 7134.556
6054.898, 7135.068
6056.827, 6988.387
6058.755, 7018.860
6060.684, 7055.838
6062.612, 7035.196
6064.541, 6982.610
6066.469, 6963.249
6068.397, 6975.099
6070.326, 6987.682
6072.254, 6973.558
6074.183, 6937.307
6076.111, 6987.879
6078.040, 6968.481
6079.968, 6882.138
6081.897, 6830.134
6083.825, 6861.095
6085.754, 6825.748
6087.682, 6838.494
6089.611, 6790.004
6091.539, 6765.130
6093.468, 6818.419
6095.396, 6816.443
6097.325, 6733.609
6099.253, 6735.610
6101.182, 6750.625
6103.110, 6729.241
6105.039, 6754.284
6106.967, 6815.998
6108.896, 6730.503
6110.824, 6672.141
6112.752, 6670.540
6114.681, 6551.284
6116.609, 6615.642
6118.538, 6669.033
6120.466, 6677.831
6122.395, 6643.672
6124.323, 6582.353
6126.251, 6620.470
6128.180, 6605.093
6130.108, 6511.791
6132.037, 6481.267
6133.965, 6579.206
6135.894, 6401.287
6137.822, 6449.315
6139.751, 6490.586
6141.679, 6467.103
6143.608, 6421.851
6145.536, 6405.008
6147.465, 6462.917
6149.393, 6414.468
6151.322, 6393.262
6153.250, 6397.368
6155.179, 6278.715
6157.107, 6267.543
6159.036, 6302.413
6160.964, 6295.622
6162.893, 6286.975
6164.821, 6325.750
6166.750, 6278.916
6168.678, 6243.888
6170.606, 6261.358
6172.535, 6279.909
6174.463, 6274.569
6176.392, 6288.557
6178.320, 6232.627
6180.249, 6202.374
6182.177, 6177.500
6184.105, 6161.457
6186.034, 6177.358
6187.962, 6184.711
6189.891, 6055.069
6191.819, 6013.898
6193.748, 6068.747
6195.676, 6115.394
6197.605, 6048.615
6199.533, 6035.016
6201.462, 5990.688
6203.390, 6028.677
6205.319, 6068.590
6207.247, 5959.197
6209.176, 6020.011
6211.104, 6009.333
6213.033, 6000.076
6214.961, 5958.478
6216.890, 5894.404
6218.818, 5940.372
6220.747, 5878.129
6222.675, 5869.710
6224.604, 5850.522
6226.532, 5813.039
6228.460, 5797.514
6230.389, 5826.922
6232.317, 5839.905
6234.246, 5742.882
6236.174, 5734.061
6238.103, 5797.730
6240.031, 5723.864
6241.959, 5751.447
6243.888, 5733.836
6245.816, 5746.730
6247.745, 5732.538
6249.673, 5675.157
6251.602, 5682.782
6253.530, 5685.178
6255.459, 5678.451
6257.387, 5639.867
6259.316, 5631.051
6261.244, 5655.900
6263.173, 5551.540
6265.101, 5617.817
6267.030, 5582.920
6268.958, 5591.436
6270.887, 5599.540
6272.815, 5505.014
6274.744, 5497.823
6276.672, 5565.743
6278.601, 5547.465
6280.529, 5503.966
6282.458, 5495.862
6284.386, 5515.597
6286.314, 5476.953
6288.243, 5472.999
6290.171, 5416.002
6292.100, 5365.102
6294.028, 5366.812
6295.957, 5410.475
6297.885, 5418.077
6299.813, 5360.122
6301.742, 5327.556
6303.670, 5306.474
6305.599, 5301.177
6307.527, 5345.263
6309.456, 5429.773
6311.384, 5304.321
6313.313, 5244.266
6315.241, 5218.250
6317.170, 5202.758
6319.098, 5234.073
6321.027, 5258.401
6322.955, 5183.731
6324.884, 5200.088
6326.812, 5201.159
6328.741, 5147.615
6330.669, 5107.777
6332.598, 5131.367
6334.526, 5067.169
6336.455, 5121.502
6338.383, 5125.057
6340.312, 5088.860
6342.240, 5102.249
6344.168, 5072.468
6346.097, 5023.898
6348.025, 5089.855
6349.954, 5082.826
6351.882, 5061.398
6353.811, 5097.759
6355.739, 5060.830
6357.667, 5025.368
6359.596, 4967.278
6361.524, 4942.503
6363.453, 4950.159
6365.381, 4955.279
6367.310, 4931.946
6369.238, 4932.166
6371.167, 4933.597
6373.095, 4912.995
6375.024, 4897.130
6376.952, 4892.379
6378.881, 4885.438
6380.809, 4874.425
6382.738, 4835.309
6384.666, 4821.287
6386.595, 4867.703
6388.523, 4887.422
6390.452, 4826.223
6392.380, 4757.210
6394.309, 4891.593
6396.237, 4820.266
6398.166, 4800.990
6400.094, 4818.564
6402.022, 4788.010
6403.951, 4709.422
6405.879, 4736.029
6407.808, 4722.698
6409.736, 4758.793
6411.665, 4742.846
6413.593, 4732.138
6415.521, 4740.308
6417.450, 4670.350
6419.378, 4599.469
6421.307, 4630.123
6423.235, 4672.392
6425.164, 4634.674
6427.092, 4584.404
6429.021, 4572.415
6430.949, 4502.894
6432.878, 4638.423
6434.806, 4545.542
6436.735, 4579.711
6438.663, 4575.763
6440.592, 4510.273
6442.520, 4532.877
6444.449, 4565.033
6446.377, 4542.500
6448.306, 4500.864
6450.234, 4492.429
6452.163, 4483.997
6454.091, 4476.530
6456.020, 4480.183
6457.948, 4381.899
6459.876, 4443.413
6461.805, 4468.048
6463.733, 4434.824
6465.662, 4407.729
6467.590, 4392.332
6469.519, 4357.917
6471.447, 4396.315
6473.375, 4394.195
6475.304, 4342.945
6477.232, 4379.806
6479.161, 4379.264
6481.089, 4313.941
6483.018, 4303.695
6484.946, 4300.479
6486.875, 4316.472
6488.803, 4350.777
6490.732, 4313.083
6492.660, 4246.945
6494.589, 4246.799
6496.517, 4310.389
6498.446, 4262.908
6500.374, 4254.115
6502.303, 4236.068
6504.231, 4241.154
6506.160, 4163.112
6508.088, 4135.970
6510.017, 4248.088
6511.945, 4170.188
6513.874, 4176.834
6515.802, 4121.784
6517.730, 4146.898
6519.659, 4149.693
6521.587, 4131.249
6523.516, 4137.784
6525.444, 4146.973
6527.373, 4141.708
6529.301, 4106.682
6531.229, 4099.109
6533.158, 4085.726
6535.086, 4055.539
6537.015, 4037.817
6538.943, 4055.825
6540.872, 4087.437
6542.800, 4027.090
6544.729, 4105.044
6546.657, 4053.593
6548.586, 3997.111
6550.514, 3974.492
6552.443, 3971.739
6554.371, 4008.547
6556.300, 3976.608
##END=



