##NAMES=Ehrleite
##RRUFFID=R180029
##IDEAL CHEMISTRY=Ca_2_ZnBe(PO_4_)_2_(PO_3_OH)·4H_2_O
##LOCALITY=Tip Top mine, Custer District, Custer Co., South Dakota, USA
##OWNER=RRUFF
##SOURCE=Tom Loomis
##DESCRIPTION=Colorless thick tabular crystals, twinned by a 2-fold parallel to (001)
##STATUS=The identification of this mineral has been confirmed only by single crystal X-ray diffraction
##URL=https://www.rruff.net/odr/rruff_sample/R180029
##DIFFRACTION SAMPLE DESCRIPTION=Single crystal, powder profile is calculated
##CELL PARAMETERS=a: 7.154 b: 7.485 c: 12.529 alpha: 94.39 beta: 101.92 gamma: 82.76 volume: 650.4 crystal system: triclinic
##FILETYPE=Raman RAW
##RAMAN WAVELENGTH=780

7.084375e+001, 3.575630e+002
7.277222e+001, 3.440573e+002
7.470068e+001, 3.432552e+002
7.662915e+001, 3.591149e+002
7.855762e+001, 3.769080e+002
8.048608e+001, 3.935225e+002
8.241455e+001, 4.112227e+002
8.434302e+001, 4.317743e+002
8.627148e+001, 4.551390e+002
8.819995e+001, 4.787115e+002
9.012842e+001, 5.010834e+002
9.205688e+001, 5.269040e+002
9.398535e+001, 5.509672e+002
9.591382e+001, 5.526159e+002
9.784229e+001, 5.377463e+002
9.977075e+001, 5.431307e+002
1.016992e+002, 5.682169e+002
1.036277e+002, 6.113867e+002
1.055562e+002, 6.621602e+002
1.074846e+002, 7.571423e+002
1.094131e+002, 8.239530e+002
1.113416e+002, 8.097553e+002
1.132700e+002, 7.248304e+002
1.151985e+002, 6.330236e+002
1.171270e+002, 5.249031e+002
1.190554e+002, 4.364463e+002
1.209839e+002, 3.781494e+002
1.229124e+002, 3.409124e+002
1.248408e+002, 3.206557e+002
1.267693e+002, 3.186555e+002
1.286978e+002, 3.360586e+002
1.306262e+002, 3.738198e+002
1.325547e+002, 4.244354e+002
1.344832e+002, 5.122096e+002
1.364116e+002, 5.858816e+002
1.383401e+002, 6.181708e+002
1.402686e+002, 6.108415e+002
1.421970e+002, 5.701098e+002
1.441255e+002, 4.883437e+002
1.460540e+002, 4.235426e+002
1.479824e+002, 3.911180e+002
1.499109e+002, 3.772036e+002
1.518394e+002, 3.842254e+002
1.537678e+002, 4.043261e+002
1.556963e+002, 4.236834e+002
1.576248e+002, 4.432449e+002
1.595532e+002, 4.503268e+002
1.614817e+002, 4.416940e+002
1.634102e+002, 4.204709e+002
1.653386e+002, 3.754765e+002
1.672671e+002, 3.244634e+002
1.691956e+002, 2.909113e+002
1.711240e+002, 2.739614e+002
1.730525e+002, 2.657888e+002
1.749810e+002, 2.718430e+002
1.769094e+002, 2.787089e+002
1.788379e+002, 2.881419e+002
1.807664e+002, 2.942128e+002
1.826948e+002, 2.906615e+002
1.846233e+002, 2.789774e+002
1.865518e+002, 2.638079e+002
1.884802e+002, 2.393488e+002
1.904087e+002, 2.224747e+002
1.923372e+002, 2.192206e+002
1.942656e+002, 2.195913e+002
1.961941e+002, 2.193663e+002
1.981226e+002, 2.176745e+002
2.000510e+002, 2.119162e+002
2.019795e+002, 1.997215e+002
2.039080e+002, 1.897612e+002
2.058364e+002, 1.816621e+002
2.077649e+002, 1.764258e+002
2.096934e+002, 1.729663e+002
2.116218e+002, 1.737939e+002
2.135503e+002, 1.823949e+002
2.154788e+002, 1.996668e+002
2.174072e+002, 2.174026e+002
2.193357e+002, 2.388148e+002
2.212642e+002, 2.553746e+002
2.231926e+002, 2.643302e+002
2.251211e+002, 2.688044e+002
2.270496e+002, 2.723231e+002
2.289780e+002, 2.736684e+002
2.309065e+002, 2.672698e+002
2.328350e+002, 2.493608e+002
2.347634e+002, 2.326756e+002
2.366919e+002, 2.160028e+002
2.386204e+002, 2.031095e+002
2.405488e+002, 1.970066e+002
2.424773e+002, 1.948243e+002
2.444058e+002, 1.938145e+002
2.463342e+002, 1.940220e+002
2.482627e+002, 1.953598e+002
2.501912e+002, 1.985590e+002
2.521196e+002, 2.005936e+002
2.540481e+002, 2.009918e+002
2.559766e+002, 1.994451e+002
2.579050e+002, 1.948020e+002
2.598335e+002, 1.883683e+002
2.617620e+002, 1.831609e+002
2.636904e+002, 1.790968e+002
2.656189e+002, 1.774405e+002
2.675474e+002, 1.794795e+002
2.694758e+002, 1.812812e+002
2.714043e+002, 1.801191e+002
2.733328e+002, 1.791600e+002
2.752612e+002, 1.801390e+002
2.771897e+002, 1.835427e+002
2.791182e+002, 1.911888e+002
2.810466e+002, 2.030194e+002
2.829751e+002, 2.184342e+002
2.849036e+002, 2.414986e+002
2.868320e+002, 2.615565e+002
2.887605e+002, 2.766851e+002
2.906890e+002, 2.855155e+002
2.926174e+002, 2.842086e+002
2.945459e+002, 2.744078e+002
2.964744e+002, 2.646125e+002
2.984028e+002, 2.546108e+002
3.003313e+002, 2.469339e+002
3.022598e+002, 2.408370e+002
3.041882e+002, 2.389597e+002
3.061167e+002, 2.438760e+002
3.080452e+002, 2.528372e+002
3.099736e+002, 2.637905e+002
3.119021e+002, 2.757403e+002
3.138306e+002, 2.840198e+002
3.157590e+002, 2.884554e+002
3.176875e+002, 2.881997e+002
3.196160e+002, 2.805568e+002
3.215445e+002, 2.718090e+002
3.234729e+002, 2.635169e+002
3.254014e+002, 2.566145e+002
3.273299e+002, 2.525001e+002
3.292583e+002, 2.508473e+002
3.311868e+002, 2.499265e+002
3.331153e+002, 2.491173e+002
3.350437e+002, 2.502666e+002
3.369722e+002, 2.540081e+002
3.389007e+002, 2.590358e+002
3.408291e+002, 2.623937e+002
3.427576e+002, 2.685881e+002
3.446861e+002, 2.817348e+002
3.466145e+002, 3.017080e+002
3.485430e+002, 3.275360e+002
3.504715e+002, 3.582901e+002
3.523999e+002, 3.976021e+002
3.543284e+002, 4.560329e+002
3.562569e+002, 5.093958e+002
3.581853e+002, 5.553024e+002
3.601138e+002, 5.852108e+002
3.620423e+002, 5.906936e+002
3.639707e+002, 5.740836e+002
3.658992e+002, 5.500809e+002
3.678277e+002, 5.154952e+002
3.697561e+002, 4.804144e+002
3.716846e+002, 4.437712e+002
3.736131e+002, 4.083608e+002
3.755415e+002, 3.736068e+002
3.774700e+002, 3.421957e+002
3.793985e+002, 3.155626e+002
3.813269e+002, 2.935009e+002
3.832554e+002, 2.759300e+002
3.851839e+002, 2.635310e+002
3.871123e+002, 2.525667e+002
3.890408e+002, 2.424214e+002
3.909693e+002, 2.350875e+002
3.928977e+002, 2.315000e+002
3.948262e+002, 2.303966e+002
3.967547e+002, 2.308554e+002
3.986831e+002, 2.332182e+002
4.006116e+002, 2.385758e+002
4.025401e+002, 2.467960e+002
4.044685e+002, 2.547346e+002
4.063970e+002, 2.627771e+002
4.083255e+002, 2.687927e+002
4.102539e+002, 2.731998e+002
4.121824e+002, 2.738951e+002
4.141109e+002, 2.701510e+002
4.160393e+002, 2.623220e+002
4.179678e+002, 2.492239e+002
4.198963e+002, 2.324253e+002
4.218247e+002, 2.151367e+002
4.237532e+002, 1.974359e+002
4.256817e+002, 1.833282e+002
4.276101e+002, 1.733540e+002
4.295386e+002, 1.658919e+002
4.314671e+002, 1.606273e+002
4.333955e+002, 1.577664e+002
4.353240e+002, 1.574186e+002
4.372525e+002, 1.594692e+002
4.391809e+002, 1.637848e+002
4.411094e+002, 1.705168e+002
4.430379e+002, 1.801113e+002
4.449663e+002, 1.925577e+002
4.468948e+002, 2.057196e+002
4.488233e+002, 2.205826e+002
4.507517e+002, 2.329421e+002
4.526802e+002, 2.437098e+002
4.546087e+002, 2.496286e+002
4.565371e+002, 2.478650e+002
4.584656e+002, 2.411850e+002
4.603941e+002, 2.318916e+002
4.623225e+002, 2.206418e+002
4.642510e+002, 2.089066e+002
4.661795e+002, 1.966319e+002
4.681079e+002, 1.853611e+002
4.700364e+002, 1.745320e+002
4.719649e+002, 1.662525e+002
4.738933e+002, 1.607231e+002
4.758218e+002, 1.578965e+002
4.777503e+002, 1.573056e+002
4.796787e+002, 1.598269e+002
4.816072e+002, 1.679590e+002
4.835357e+002, 1.795702e+002
4.854641e+002, 1.909448e+002
4.873926e+002, 2.028610e+002
4.893211e+002, 2.056164e+002
4.912495e+002, 1.922817e+002
4.931780e+002, 1.790519e+002
4.951065e+002, 1.655179e+002
4.970349e+002, 1.542095e+002
4.989634e+002, 1.456486e+002
5.008919e+002, 1.403298e+002
5.028203e+002, 1.399635e+002
5.047488e+002, 1.424762e+002
5.066773e+002, 1.435185e+002
5.086057e+002, 1.429247e+002
5.105342e+002, 1.430101e+002
5.124626e+002, 1.436639e+002
5.143911e+002, 1.453315e+002
5.163196e+002, 1.485503e+002
5.182480e+002, 1.518649e+002
5.201765e+002, 1.547535e+002
5.221050e+002, 1.576842e+002
5.240334e+002, 1.600796e+002
5.259619e+002, 1.633186e+002
5.278904e+002, 1.696109e+002
5.298188e+002, 1.784033e+002
5.317473e+002, 1.867256e+002
5.336758e+002, 1.944184e+002
5.356042e+002, 2.023746e+002
5.375327e+002, 2.102196e+002
5.394612e+002, 2.196221e+002
5.413896e+002, 2.311716e+002
5.433181e+002, 2.438563e+002
5.452466e+002, 2.571167e+002
5.471750e+002, 2.715209e+002
5.491035e+002, 2.864181e+002
5.510320e+002, 3.032936e+002
5.529604e+002, 3.231402e+002
5.548889e+002, 3.467239e+002
5.568174e+002, 3.801175e+002
5.587458e+002, 4.230686e+002
5.606743e+002, 4.766237e+002
5.626028e+002, 5.491416e+002
5.645313e+002, 5.979368e+002
5.664598e+002, 6.174640e+002
5.683882e+002, 5.997863e+002
5.703167e+002, 5.209728e+002
5.722452e+002, 4.311783e+002
5.741736e+002, 3.565807e+002
5.761021e+002, 2.978383e+002
5.780306e+002, 2.582499e+002
5.799590e+002, 2.359601e+002
5.818875e+002, 2.230742e+002
5.838160e+002, 2.192735e+002
5.857444e+002, 2.206707e+002
5.876729e+002, 2.273957e+002
5.896014e+002, 2.370553e+002
5.915298e+002, 2.521736e+002
5.934583e+002, 2.649925e+002
5.953868e+002, 2.738992e+002
5.973152e+002, 2.796935e+002
5.992437e+002, 2.835466e+002
6.011722e+002, 2.838165e+002
6.031006e+002, 2.783804e+002
6.050291e+002, 2.680722e+002
6.069576e+002, 2.539138e+002
6.088860e+002, 2.366680e+002
6.108145e+002, 2.200085e+002
6.127430e+002, 2.040354e+002
6.146714e+002, 1.893886e+002
6.165999e+002, 1.747901e+002
6.185284e+002, 1.645899e+002
6.204568e+002, 1.597844e+002
6.223853e+002, 1.584470e+002
6.243138e+002, 1.624351e+002
6.262422e+002, 1.668626e+002
6.281707e+002, 1.704063e+002
6.300992e+002, 1.713024e+002
6.320276e+002, 1.677916e+002
6.339561e+002, 1.603949e+002
6.358846e+002, 1.483439e+002
6.378130e+002, 1.324037e+002
6.397415e+002, 1.210557e+002
6.416700e+002, 1.156913e+002
6.435984e+002, 1.100859e+002
6.455269e+002, 1.030959e+002
6.474554e+002, 9.795313e+001
6.493839e+002, 9.587498e+001
6.513123e+002, 9.383633e+001
6.532408e+002, 9.072132e+001
6.551693e+002, 8.785557e+001
6.570977e+002, 8.611699e+001
6.590262e+002, 8.477505e+001
6.609547e+002, 8.324825e+001
6.628831e+002, 8.173740e+001
6.648116e+002, 8.037696e+001
6.667401e+002, 7.929541e+001
6.686685e+002, 7.922679e+001
6.705970e+002, 8.023112e+001
6.725255e+002, 8.041111e+001
6.744539e+002, 7.954533e+001
6.763824e+002, 7.913033e+001
6.783109e+002, 7.936574e+001
6.802393e+002, 7.965617e+001
6.821678e+002, 8.006742e+001
6.840963e+002, 8.005714e+001
6.860247e+002, 7.907063e+001
6.879532e+002, 7.813526e+001
6.898817e+002, 7.786031e+001
6.918101e+002, 7.772326e+001
6.937386e+002, 7.756691e+001
6.956671e+002, 7.710557e+001
6.975955e+002, 7.561795e+001
6.995240e+002, 7.357469e+001
7.014525e+002, 7.225314e+001
7.033809e+002, 7.164675e+001
7.053094e+002, 7.160896e+001
7.072379e+002, 7.212992e+001
7.091663e+002, 7.269662e+001
7.110948e+002, 7.337823e+001
7.130233e+002, 7.303324e+001
7.149517e+002, 7.079704e+001
7.168802e+002, 6.944995e+001
7.188087e+002, 7.036861e+001
7.207371e+002, 7.131631e+001
7.226656e+002, 7.162376e+001
7.245941e+002, 7.181233e+001
7.265225e+002, 7.222398e+001
7.284510e+002, 7.256563e+001
7.303795e+002, 7.220061e+001
7.323079e+002, 7.190681e+001
7.342364e+002, 7.294165e+001
7.361649e+002, 7.475497e+001
7.380933e+002, 7.637764e+001
7.400218e+002, 7.773851e+001
7.419503e+002, 7.848170e+001
7.438787e+002, 7.864268e+001
7.458072e+002, 7.893957e+001
7.477357e+002, 7.943578e+001
7.496641e+002, 8.002010e+001
7.515926e+002, 8.099561e+001
7.535211e+002, 8.130669e+001
7.554495e+002, 8.004288e+001
7.573780e+002, 7.948997e+001
7.593065e+002, 8.106343e+001
7.612349e+002, 8.183109e+001
7.631634e+002, 7.993036e+001
7.650919e+002, 7.807558e+001
7.670203e+002, 7.805952e+001
7.689488e+002, 7.833296e+001
7.708773e+002, 7.746257e+001
7.728057e+002, 7.644554e+001
7.747342e+002, 7.655869e+001
7.766627e+002, 7.705798e+001
7.785911e+002, 7.641533e+001
7.805196e+002, 7.515463e+001
7.824481e+002, 7.506693e+001
7.843765e+002, 7.606721e+001
7.863050e+002, 7.701215e+001
7.882335e+002, 7.785814e+001
7.901619e+002, 7.910962e+001
7.920904e+002, 8.097518e+001
7.940189e+002, 8.251302e+001
7.959473e+002, 8.375807e+001
7.978758e+002, 8.450607e+001
7.998043e+002, 8.457113e+001
8.017327e+002, 8.467076e+001
8.036612e+002, 8.512527e+001
8.055897e+002, 8.520087e+001
8.075181e+002, 8.443071e+001
8.094466e+002, 8.368279e+001
8.113751e+002, 8.368545e+001
8.133035e+002, 8.332018e+001
8.152320e+002, 8.163877e+001
8.171605e+002, 7.979973e+001
8.190889e+002, 7.859633e+001
8.210174e+002, 7.766074e+001
8.229459e+002, 7.650201e+001
8.248743e+002, 7.547142e+001
8.268028e+002, 7.511394e+001
8.287313e+002, 7.525746e+001
8.306597e+002, 7.559032e+001
8.325882e+002, 7.609808e+001
8.345167e+002, 7.675421e+001
8.364451e+002, 7.753947e+001
8.383736e+002, 7.818537e+001
8.403021e+002, 7.878293e+001
8.422305e+002, 8.042573e+001
8.441590e+002, 8.310476e+001
8.460875e+002, 8.487388e+001
8.480159e+002, 8.545216e+001
8.499444e+002, 8.694359e+001
8.518729e+002, 8.934189e+001
8.538013e+002, 9.418655e+001
8.557298e+002, 1.017637e+002
8.576583e+002, 1.116152e+002
8.595867e+002, 1.220048e+002
8.615152e+002, 1.379912e+002
8.634437e+002, 1.613065e+002
8.653721e+002, 1.889018e+002
8.673006e+002, 2.250045e+002
8.692291e+002, 2.577745e+002
8.711575e+002, 2.895769e+002
8.730860e+002, 3.074605e+002
8.750145e+002, 3.035191e+002
8.769429e+002, 2.852891e+002
8.788714e+002, 2.492209e+002
8.807999e+002, 2.105627e+002
8.827283e+002, 1.787303e+002
8.846568e+002, 1.529933e+002
8.865853e+002, 1.338535e+002
8.885137e+002, 1.193045e+002
8.904422e+002, 1.076400e+002
8.923707e+002, 9.860336e+001
8.942991e+002, 9.257197e+001
8.962276e+002, 8.853492e+001
8.981561e+002, 8.467722e+001
9.000845e+002, 8.131813e+001
9.020130e+002, 7.969060e+001
9.039415e+002, 7.926424e+001
9.058699e+002, 7.761443e+001
9.077984e+002, 7.509090e+001
9.097269e+002, 7.438814e+001
9.116553e+002, 7.539801e+001
9.135838e+002, 7.559868e+001
9.155123e+002, 7.493952e+001
9.174407e+002, 7.486997e+001
9.193692e+002, 7.543571e+001
9.212977e+002, 7.621732e+001
9.232261e+002, 7.730609e+001
9.251546e+002, 7.799959e+001
9.270831e+002, 7.814722e+001
9.290115e+002, 7.872523e+001
9.309400e+002, 7.980744e+001
9.328685e+002, 8.114107e+001
9.347969e+002, 8.271024e+001
9.367254e+002, 8.455975e+001
9.386539e+002, 8.677190e+001
9.405823e+002, 8.862563e+001
9.425108e+002, 8.940336e+001
9.444393e+002, 9.287098e+001
9.463677e+002, 1.005479e+002
9.482962e+002, 1.078371e+002
9.502247e+002, 1.130441e+002
9.521531e+002, 1.196900e+002
9.540816e+002, 1.280301e+002
9.560101e+002, 1.397486e+002
9.579385e+002, 1.548817e+002
9.598670e+002, 1.743445e+002
9.617955e+002, 1.956573e+002
9.637239e+002, 2.265935e+002
9.656524e+002, 2.701542e+002
9.675809e+002, 3.229680e+002
9.695093e+002, 3.808192e+002
9.714378e+002, 4.525854e+002
9.733663e+002, 5.316017e+002
9.752947e+002, 6.400723e+002
9.772232e+002, 7.865688e+002
9.791517e+002, 9.649852e+002
9.810801e+002, 1.229830e+003
9.830086e+002, 1.442689e+003
9.849371e+002, 1.570655e+003
9.868655e+002, 1.577761e+003
9.887940e+002, 1.388801e+003
9.907225e+002, 1.150906e+003
9.926509e+002, 9.094681e+002
9.945794e+002, 7.007177e+002
9.965079e+002, 5.489822e+002
9.984363e+002, 4.344932e+002
1.000365e+003, 3.541826e+002
1.002293e+003, 2.932064e+002
1.004222e+003, 2.461396e+002
1.006150e+003, 2.088993e+002
1.008079e+003, 1.795042e+002
1.010007e+003, 1.579421e+002
1.011936e+003, 1.466057e+002
1.013864e+003, 1.402104e+002
1.015793e+003, 1.356379e+002
1.017721e+003, 1.335394e+002
1.019649e+003, 1.337801e+002
1.021578e+003, 1.374657e+002
1.023506e+003, 1.429205e+002
1.025435e+003, 1.554171e+002
1.027363e+003, 1.808839e+002
1.029292e+003, 2.126452e+002
1.031220e+003, 2.549676e+002
1.033149e+003, 2.895139e+002
1.035077e+003, 3.068907e+002
1.037006e+003, 3.052358e+002
1.038934e+003, 2.736592e+002
1.040863e+003, 2.347445e+002
1.042791e+003, 1.988679e+002
1.044719e+003, 1.691586e+002
1.046648e+003, 1.484837e+002
1.048576e+003, 1.338247e+002
1.050505e+003, 1.236373e+002
1.052433e+003, 1.180044e+002
1.054362e+003, 1.172374e+002
1.056290e+003, 1.207026e+002
1.058219e+003, 1.273525e+002
1.060147e+003, 1.389489e+002
1.062076e+003, 1.575018e+002
1.064004e+003, 1.801776e+002
1.065933e+003, 2.107725e+002
1.067861e+003, 2.373529e+002
1.069790e+003, 2.585324e+002
1.071718e+003, 2.657454e+002
1.073647e+003, 2.500745e+002
1.075575e+003, 2.251003e+002
1.077504e+003, 1.903548e+002
1.079432e+003, 1.590740e+002
1.081360e+003, 1.364498e+002
1.083289e+003, 1.205065e+002
1.085217e+003, 1.120456e+002
1.087146e+003, 1.074953e+002
1.089074e+003, 1.062805e+002
1.091003e+003, 1.073308e+002
1.092931e+003, 1.126219e+002
1.094860e+003, 1.162847e+002
1.096788e+003, 1.173068e+002
1.098717e+003, 1.148942e+002
1.100645e+003, 1.066007e+002
1.102574e+003, 9.860438e+001
1.104502e+003, 9.114807e+001
1.106431e+003, 8.636006e+001
1.108359e+003, 8.530984e+001
1.110287e+003, 8.585327e+001
1.112216e+003, 8.770253e+001
1.114144e+003, 9.102259e+001
1.116073e+003, 9.493391e+001
1.118001e+003, 1.020751e+002
1.119930e+003, 1.132095e+002
1.121858e+003, 1.264855e+002
1.123787e+003, 1.431550e+002
1.125715e+003, 1.589249e+002
1.127644e+003, 1.766874e+002
1.129572e+003, 1.849036e+002
1.131501e+003, 1.804799e+002
1.133429e+003, 1.750152e+002
1.135358e+003, 1.670968e+002
1.137286e+003, 1.641312e+002
1.139214e+003, 1.659414e+002
1.141143e+003, 1.746352e+002
1.143071e+003, 1.907163e+002
1.145000e+003, 2.085525e+002
1.146928e+003, 2.279324e+002
1.148857e+003, 2.340280e+002
1.150785e+003, 2.273527e+002
1.152714e+003, 2.111968e+002
1.154642e+003, 1.873998e+002
1.156571e+003, 1.641097e+002
1.158499e+003, 1.420755e+002
1.160428e+003, 1.235551e+002
1.162356e+003, 1.086006e+002
1.164285e+003, 9.797622e+001
1.166213e+003, 9.053979e+001
1.168141e+003, 8.469545e+001
1.170070e+003, 8.014478e+001
1.171998e+003, 7.692448e+001
1.173927e+003, 7.423405e+001
1.175855e+003, 7.095450e+001
1.177784e+003, 6.796081e+001
1.179712e+003, 6.617415e+001
1.181641e+003, 6.488570e+001
1.183569e+003, 6.359719e+001
1.185498e+003, 6.260350e+001
1.187426e+003, 6.230889e+001
1.189355e+003, 6.199902e+001
1.191283e+003, 6.120360e+001
1.193212e+003, 6.059654e+001
1.195140e+003, 6.064848e+001
1.197068e+003, 6.031608e+001
1.198997e+003, 5.898144e+001
1.200925e+003, 5.824328e+001
1.202854e+003, 5.854584e+001
1.204782e+003, 5.906269e+001
1.206711e+003, 5.978919e+001
1.208639e+003, 5.996140e+001
1.210568e+003, 5.939455e+001
1.212496e+003, 5.961115e+001
1.214425e+003, 6.072229e+001
1.216353e+003, 6.097984e+001
1.218282e+003, 6.044830e+001
1.220210e+003, 6.111241e+001
1.222139e+003, 6.271500e+001
1.224067e+003, 6.366037e+001
1.225995e+003, 6.408064e+001
1.227924e+003, 6.421657e+001
1.229852e+003, 6.445299e+001
1.231781e+003, 6.606681e+001
1.233709e+003, 6.781121e+001
1.235638e+003, 6.801446e+001
1.237566e+003, 6.727962e+001
1.239495e+003, 6.561709e+001
1.241423e+003, 6.412856e+001
1.243352e+003, 6.394038e+001
1.245280e+003, 6.388585e+001
1.247209e+003, 6.321640e+001
1.249137e+003, 6.256717e+001
1.251066e+003, 6.197305e+001
1.252994e+003, 6.200152e+001
1.254922e+003, 6.365515e+001
1.256851e+003, 6.375495e+001
1.258779e+003, 6.070223e+001
1.260708e+003, 5.913716e+001
1.262636e+003, 6.011409e+001
1.264565e+003, 6.040074e+001
1.266493e+003, 5.966443e+001
1.268422e+003, 5.991210e+001
1.270350e+003, 6.109451e+001
1.272279e+003, 6.060413e+001
1.274207e+003, 5.897599e+001
1.276136e+003, 5.945892e+001
1.278064e+003, 6.098585e+001
1.279993e+003, 6.050735e+001
1.281921e+003, 5.935873e+001
1.283849e+003, 5.978248e+001
1.285778e+003, 6.066520e+001
1.287706e+003, 6.090493e+001
1.289635e+003, 6.098651e+001
1.291563e+003, 6.117329e+001
1.293492e+003, 6.144672e+001
1.295420e+003, 6.189092e+001
1.297349e+003, 6.221630e+001
1.299277e+003, 6.231847e+001
1.301206e+003, 6.232534e+001
1.303134e+003, 6.223600e+001
1.305063e+003, 6.206247e+001
1.306991e+003, 6.177547e+001
1.308920e+003, 6.262175e+001
1.310848e+003, 6.450459e+001
1.312776e+003, 6.485596e+001
1.314705e+003, 6.405632e+001
1.316633e+003, 6.459646e+001
1.318562e+003, 6.564967e+001
1.320490e+003, 6.468382e+001
1.322419e+003, 6.335223e+001
1.324347e+003, 6.440361e+001
1.326276e+003, 6.593232e+001
1.328204e+003, 6.612428e+001
1.330133e+003, 6.603609e+001
1.332061e+003, 6.614339e+001
1.333990e+003, 6.648477e+001
1.335918e+003, 6.746859e+001
1.337847e+003, 6.794569e+001
1.339775e+003, 6.721071e+001
1.341703e+003, 6.705792e+001
1.343632e+003, 6.790514e+001
1.345560e+003, 6.743340e+001
1.347489e+003, 6.552536e+001
1.349417e+003, 6.645819e+001
1.351346e+003, 6.946754e+001
1.353274e+003, 6.995940e+001
1.355203e+003, 6.912120e+001
1.357131e+003, 6.940880e+001
1.359060e+003, 7.014529e+001
1.360988e+003, 7.061697e+001
1.362917e+003, 7.107999e+001
1.364845e+003, 7.172470e+001
1.366774e+003, 7.235703e+001
1.368702e+003, 7.281872e+001
1.370630e+003, 7.342576e+001
1.372559e+003, 7.425573e+001
1.374487e+003, 7.531367e+001
1.376416e+003, 7.666433e+001
1.378344e+003, 7.782445e+001
1.380273e+003, 7.878288e+001
1.382201e+003, 7.989220e+001
1.384130e+003, 8.108441e+001
1.386058e+003, 8.194678e+001
1.387987e+003, 8.279037e+001
1.389915e+003, 8.442676e+001
1.391844e+003, 8.606447e+001
1.393772e+003, 8.682042e+001
1.395701e+003, 8.737856e+001
1.397629e+003, 8.798806e+001
1.399557e+003, 8.873014e+001
1.401486e+003, 8.958894e+001
1.403414e+003, 9.085725e+001
1.405343e+003, 9.265450e+001
1.407271e+003, 9.393826e+001
1.409200e+003, 9.466303e+001
1.411128e+003, 9.542945e+001
1.413057e+003, 9.630460e+001
1.414985e+003, 9.760780e+001
1.416914e+003, 9.891451e+001
1.418842e+003, 9.940955e+001
1.420771e+003, 9.961164e+001
1.422699e+003, 9.980972e+001
1.424628e+003, 1.002576e+002
1.426556e+003, 1.010665e+002
1.428484e+003, 1.022472e+002
1.430413e+003, 1.040677e+002
1.432341e+003, 1.054635e+002
1.434270e+003, 1.063270e+002
1.436198e+003, 1.068740e+002
1.438127e+003, 1.071965e+002
1.440055e+003, 1.083234e+002
1.441984e+003, 1.093923e+002
1.443912e+003, 1.073563e+002
1.445841e+003, 1.050638e+002
1.447769e+003, 1.061709e+002
1.449698e+003, 1.076570e+002
1.451626e+003, 1.075323e+002
1.453555e+003, 1.072512e+002
1.455483e+003, 1.073797e+002
1.457411e+003, 1.072096e+002
1.459340e+003, 1.063748e+002
1.461268e+003, 1.065310e+002
1.463197e+003, 1.076200e+002
1.465125e+003, 1.076047e+002
1.467054e+003, 1.069364e+002
1.468982e+003, 1.069521e+002
1.470911e+003, 1.069928e+002
1.472839e+003, 1.059483e+002
1.474768e+003, 1.051566e+002
1.476696e+003, 1.055363e+002
1.478625e+003, 1.058305e+002
1.480553e+003, 1.057500e+002
1.482482e+003, 1.048720e+002
1.484410e+003, 1.030085e+002
1.486339e+003, 1.021642e+002
1.488267e+003, 1.021627e+002
1.490195e+003, 1.015156e+002
1.492124e+003, 1.006448e+002
1.494052e+003, 1.004984e+002
1.495981e+003, 1.004142e+002
1.497909e+003, 9.984720e+001
1.499838e+003, 9.897299e+001
1.501766e+003, 9.760488e+001
1.503695e+003, 9.690260e+001
1.505623e+003, 9.716997e+001
1.507552e+003, 9.679326e+001
1.509480e+003, 9.573893e+001
1.511409e+003, 9.514383e+001
1.513337e+003, 9.488196e+001
1.515266e+003, 9.473311e+001
1.517194e+003, 9.453559e+001
1.519122e+003, 9.409000e+001
1.521051e+003, 9.355768e+001
1.522979e+003, 9.278528e+001
1.524908e+003, 9.251927e+001
1.526836e+003, 9.305104e+001
1.528765e+003, 9.308641e+001
1.530693e+003, 9.258749e+001
1.532622e+003, 9.232465e+001
1.534550e+003, 9.204852e+001
1.536479e+003, 9.107067e+001
1.538407e+003, 8.969245e+001
1.540336e+003, 8.773909e+001
1.542264e+003, 8.632470e+001
1.544193e+003, 8.639082e+001
1.546121e+003, 8.639471e+001
1.548049e+003, 8.594647e+001
1.549978e+003, 8.572774e+001
1.551906e+003, 8.574728e+001
1.553835e+003, 8.624048e+001
1.555763e+003, 8.672942e+001
1.557692e+003, 8.581483e+001
1.559620e+003, 8.465018e+001
1.561549e+003, 8.391135e+001
1.563477e+003, 8.387543e+001
1.565406e+003, 8.513721e+001
1.567334e+003, 8.563313e+001
1.569263e+003, 8.487075e+001
1.571191e+003, 8.389587e+001
1.573120e+003, 8.280204e+001
1.575048e+003, 8.203042e+001
1.576976e+003, 8.172710e+001
1.578905e+003, 8.268676e+001
1.580833e+003, 8.329523e+001
1.582762e+003, 8.236108e+001
1.584690e+003, 8.188371e+001
1.586619e+003, 8.252388e+001
1.588547e+003, 8.268211e+001
1.590476e+003, 8.216599e+001
1.592404e+003, 8.046542e+001
1.594333e+003, 7.867630e+001
1.596261e+003, 8.004402e+001
1.598190e+003, 8.170208e+001
1.600118e+003, 8.079182e+001
1.602047e+003, 7.977577e+001
1.603975e+003, 7.914577e+001
1.605903e+003, 7.994308e+001
1.607832e+003, 8.214148e+001
1.609760e+003, 8.245029e+001
1.611689e+003, 8.141664e+001
1.613617e+003, 8.081094e+001
1.615546e+003, 8.030224e+001
1.617474e+003, 7.920882e+001
1.619403e+003, 7.868524e+001
1.621331e+003, 7.952556e+001
1.623260e+003, 8.009835e+001
1.625188e+003, 8.023918e+001
1.627117e+003, 7.977142e+001
1.629045e+003, 7.891747e+001
1.630974e+003, 7.784483e+001
1.632902e+003, 7.749458e+001
1.634830e+003, 7.996835e+001
1.636759e+003, 8.158119e+001
1.638687e+003, 7.981587e+001
1.640616e+003, 7.879874e+001
1.642544e+003, 7.893077e+001
1.644473e+003, 7.882024e+001
1.646401e+003, 7.862338e+001
1.648330e+003, 7.901701e+001
1.650258e+003, 7.958538e+001
1.652187e+003, 8.000491e+001
1.654115e+003, 8.035844e+001
1.656044e+003, 8.097292e+001
1.657972e+003, 8.054848e+001
1.659901e+003, 7.893465e+001
1.661829e+003, 7.812740e+001
1.663757e+003, 7.798988e+001
1.665686e+003, 7.862618e+001
1.667614e+003, 7.903365e+001
1.669543e+003, 7.832641e+001
1.671471e+003, 7.761691e+001
1.673400e+003, 7.725642e+001
1.675328e+003, 7.699170e+001
1.677257e+003, 7.671108e+001
1.679185e+003, 7.490892e+001
1.681114e+003, 7.294300e+001
1.683042e+003, 7.399033e+001
1.684971e+003, 7.440477e+001
1.686899e+003, 7.187402e+001
1.688828e+003, 7.013710e+001
1.690756e+003, 6.993246e+001
1.692684e+003, 7.008595e+001
1.694613e+003, 7.039723e+001
1.696541e+003, 7.079208e+001
1.698470e+003, 7.069238e+001
1.700398e+003, 6.866393e+001
1.702327e+003, 6.764400e+001
1.704255e+003, 6.882927e+001
1.706184e+003, 6.866764e+001
1.708112e+003, 6.711330e+001
1.710041e+003, 6.687120e+001
1.711969e+003, 6.745683e+001
1.713898e+003, 6.865462e+001
1.715826e+003, 6.918114e+001
1.717755e+003, 6.780061e+001
1.719683e+003, 6.645384e+001
1.721611e+003, 6.535649e+001
1.723540e+003, 6.444173e+001
1.725468e+003, 6.399128e+001
1.727397e+003, 6.511335e+001
1.729325e+003, 6.637624e+001
1.731254e+003, 6.702016e+001
1.733182e+003, 6.641205e+001
1.735111e+003, 6.379763e+001
1.737039e+003, 6.243590e+001
1.738968e+003, 6.216093e+001
1.740896e+003, 6.177485e+001
1.742825e+003, 6.142847e+001
1.744753e+003, 6.121542e+001
1.746682e+003, 6.126234e+001
1.748610e+003, 6.177531e+001
1.750538e+003, 6.214115e+001
1.752467e+003, 6.229961e+001
1.754395e+003, 6.154508e+001
1.756324e+003, 6.060479e+001
1.758252e+003, 6.058292e+001
1.760181e+003, 6.069292e+001
1.762109e+003, 6.066557e+001
1.764038e+003, 6.039743e+001
1.765966e+003, 5.988804e+001
1.767895e+003, 5.937001e+001
1.769823e+003, 5.900762e+001
1.771752e+003, 5.937915e+001
1.773680e+003, 5.951804e+001
1.775609e+003, 5.899148e+001
1.777537e+003, 5.805000e+001
1.779465e+003, 5.683884e+001
1.781394e+003, 5.751683e+001
1.783322e+003, 5.886355e+001
1.785251e+003, 5.850832e+001
1.787179e+003, 5.790616e+001
1.789108e+003, 5.767002e+001
1.791036e+003, 5.787849e+001
1.792965e+003, 5.838705e+001
1.794893e+003, 5.698155e+001
1.796822e+003, 5.508700e+001
1.798750e+003, 5.527213e+001
1.800679e+003, 5.593547e+001
1.802607e+003, 5.656224e+001
1.804536e+003, 5.639202e+001
1.806464e+003, 5.547590e+001
1.808392e+003, 5.470989e+001
1.810321e+003, 5.443140e+001
1.812249e+003, 5.567260e+001
1.814178e+003, 5.645961e+001
1.816106e+003, 5.528803e+001
1.818035e+003, 5.545864e+001
1.819963e+003, 5.676974e+001
1.821892e+003, 5.610856e+001
1.823820e+003, 5.470305e+001
1.825749e+003, 5.383492e+001
1.827677e+003, 5.329964e+001
1.829606e+003, 5.295185e+001
1.831534e+003, 5.331628e+001
1.833463e+003, 5.418616e+001
1.835391e+003, 5.452367e+001
1.837319e+003, 5.425885e+001
1.839248e+003, 5.296660e+001
1.841176e+003, 5.205490e+001
1.843105e+003, 5.207113e+001
1.845033e+003, 5.175851e+001
1.846962e+003, 5.140911e+001
1.848890e+003, 5.245607e+001
1.850819e+003, 5.291807e+001
1.852747e+003, 5.116592e+001
1.854676e+003, 5.040546e+001
1.856604e+003, 5.126313e+001
1.858533e+003, 5.114886e+001
1.860461e+003, 5.061133e+001
1.862390e+003, 5.062946e+001
1.864318e+003, 5.058485e+001
1.866246e+003, 5.021641e+001
1.868175e+003, 5.002154e+001
1.870103e+003, 5.002055e+001
1.872032e+003, 5.000874e+001
1.873960e+003, 5.001800e+001
1.875889e+003, 5.004889e+001
1.877817e+003, 5.022579e+001
1.879746e+003, 5.057615e+001
1.881674e+003, 5.086889e+001
1.883603e+003, 5.099733e+001
1.885531e+003, 5.061034e+001
1.887460e+003, 5.024947e+001
1.889388e+003, 5.033291e+001
1.891317e+003, 4.981558e+001
1.893245e+003, 4.885087e+001
1.895173e+003, 4.935112e+001
1.897102e+003, 5.012806e+001
1.899030e+003, 4.963112e+001
1.900959e+003, 4.948327e+001
1.902887e+003, 5.013245e+001
1.904816e+003, 4.978602e+001
1.906744e+003, 4.911511e+001
1.908673e+003, 5.009389e+001
1.910601e+003, 5.084825e+001
1.912530e+003, 4.997749e+001
1.914458e+003, 4.915298e+001
1.916387e+003, 4.860633e+001
1.918315e+003, 5.006907e+001
1.920244e+003, 5.154439e+001
1.922172e+003, 5.100876e+001
1.924100e+003, 5.014156e+001
1.926029e+003, 4.923356e+001
1.927957e+003, 4.909307e+001
1.929886e+003, 4.929243e+001
1.931814e+003, 4.915254e+001
1.933743e+003, 4.865681e+001
1.935671e+003, 4.753678e+001
1.937600e+003, 4.779541e+001
1.939528e+003, 4.890539e+001
1.941457e+003, 4.815304e+001
1.943385e+003, 4.732158e+001
1.945314e+003, 4.750077e+001
1.947242e+003, 4.802962e+001
1.949171e+003, 4.875732e+001
1.951099e+003, 4.940415e+001
1.953027e+003, 4.962683e+001
1.954956e+003, 4.874482e+001
1.956884e+003, 4.806126e+001
1.958813e+003, 4.784266e+001
1.960741e+003, 4.742567e+001
1.962670e+003, 4.725181e+001
1.964598e+003, 4.870098e+001
1.966527e+003, 4.956021e+001
1.968455e+003, 4.908965e+001
1.970384e+003, 4.877131e+001
1.972312e+003, 4.848003e+001
1.974241e+003, 4.726436e+001
1.976169e+003, 4.640311e+001
1.978098e+003, 4.690557e+001
1.980026e+003, 4.629000e+001
1.981954e+003, 4.484435e+001
1.983883e+003, 4.440292e+001
1.985811e+003, 4.450578e+001
1.987740e+003, 4.515178e+001
1.989668e+003, 4.518793e+001
1.991597e+003, 4.462891e+001
1.993525e+003, 4.444174e+001
1.995454e+003, 4.444477e+001
1.997382e+003, 4.464984e+001
1.999311e+003, 4.450130e+001
2.001239e+003, 4.394013e+001
2.003168e+003, 4.332038e+001
2.005096e+003, 4.260586e+001
2.007025e+003, 4.134660e+001
2.008953e+003, 4.112589e+001
2.010881e+003, 4.254578e+001
2.012810e+003, 4.239636e+001
2.014738e+003, 4.147909e+001
2.016667e+003, 4.081192e+001
2.018595e+003, 4.033049e+001
2.020524e+003, 4.005114e+001
2.022452e+003, 3.971462e+001
2.024381e+003, 3.937676e+001
2.026309e+003, 3.924448e+001
2.028238e+003, 3.889476e+001
2.030166e+003, 3.817815e+001
2.032095e+003, 3.726073e+001
2.034023e+003, 3.643982e+001
2.035952e+003, 3.633934e+001
2.037880e+003, 3.659829e+001
2.039808e+003, 3.715745e+001
2.041737e+003, 3.662814e+001
2.043665e+003, 3.555974e+001
2.045594e+003, 3.508351e+001
2.047522e+003, 3.472026e+001
2.049451e+003, 3.430177e+001
2.051379e+003, 3.428011e+001
2.053308e+003, 3.449841e+001
2.055236e+003, 3.481057e+001
2.057165e+003, 3.472442e+001
2.059093e+003, 3.409953e+001
2.061022e+003, 3.302979e+001
2.062950e+003, 3.209711e+001
2.064879e+003, 3.253679e+001
2.066807e+003, 3.311623e+001
2.068736e+003, 3.350397e+001
2.070664e+003, 3.269635e+001
2.072593e+003, 3.139401e+001
2.074521e+003, 3.079440e+001
2.076449e+003, 3.027134e+001
2.078378e+003, 2.956165e+001
2.080306e+003, 3.012924e+001
2.082235e+003, 3.099966e+001
2.084163e+003, 3.057681e+001
2.086092e+003, 3.033921e+001
2.088020e+003, 3.075705e+001
2.089949e+003, 3.008158e+001
2.091877e+003, 2.932686e+001
2.093806e+003, 2.984031e+001
2.095734e+003, 3.012250e+001
2.097663e+003, 2.984629e+001
2.099591e+003, 2.887181e+001
2.101520e+003, 2.828492e+001
2.103448e+003, 2.941408e+001
2.105376e+003, 2.946466e+001
2.107305e+003, 2.819442e+001
2.109233e+003, 2.804428e+001
2.111162e+003, 2.824284e+001
2.113090e+003, 2.828786e+001
2.115019e+003, 2.822981e+001
2.116947e+003, 2.802737e+001
2.118876e+003, 2.726422e+001
2.120804e+003, 2.665269e+001
2.122733e+003, 2.654275e+001
2.124661e+003, 2.670988e+001
2.126590e+003, 2.690341e+001
2.128518e+003, 2.635723e+001
2.130447e+003, 2.609492e+001
2.132375e+003, 2.646984e+001
2.134303e+003, 2.689348e+001
2.136232e+003, 2.703091e+001
2.138160e+003, 2.626037e+001
2.140089e+003, 2.525593e+001
2.142017e+003, 2.421838e+001
2.143946e+003, 2.388464e+001
2.145874e+003, 2.395930e+001
2.147803e+003, 2.433447e+001
2.149731e+003, 2.443837e+001
2.151660e+003, 2.431585e+001
2.153588e+003, 2.480622e+001
2.155517e+003, 2.510527e+001
2.157445e+003, 2.437403e+001
2.159374e+003, 2.408279e+001
2.161302e+003, 2.410670e+001
2.163230e+003, 2.387612e+001
2.165159e+003, 2.379092e+001
2.167087e+003, 2.423346e+001
2.169016e+003, 2.329450e+001
2.170944e+003, 2.241055e+001
2.172873e+003, 2.404637e+001
2.174801e+003, 2.462793e+001
2.176730e+003, 2.349851e+001
2.178658e+003, 2.365929e+001
2.180587e+003, 2.388805e+001
2.182515e+003, 2.319300e+001
2.184444e+003, 2.273821e+001
2.186372e+003, 2.259948e+001
2.188301e+003, 2.269441e+001
2.190229e+003, 2.284886e+001
2.192157e+003, 2.300863e+001
2.194086e+003, 2.294294e+001
2.196014e+003, 2.268158e+001
2.197943e+003, 2.209424e+001
2.199871e+003, 2.197008e+001
2.201800e+003, 2.233181e+001
2.203728e+003, 2.172972e+001
2.205657e+003, 2.139162e+001
2.207585e+003, 2.228938e+001
2.209514e+003, 2.243031e+001
2.211442e+003, 2.209720e+001
2.213371e+003, 2.268245e+001
2.215299e+003, 2.285137e+001
2.217228e+003, 2.225858e+001
2.219156e+003, 2.154802e+001
2.221084e+003, 2.099318e+001
2.223013e+003, 2.086222e+001
2.224941e+003, 2.104819e+001
2.226870e+003, 2.147735e+001
2.228798e+003, 2.210822e+001
2.230727e+003, 2.237685e+001
2.232655e+003, 2.190336e+001
2.234584e+003, 2.198437e+001
2.236512e+003, 2.228662e+001
2.238441e+003, 2.234208e+001
2.240369e+003, 2.226359e+001
2.242298e+003, 2.208212e+001
2.244226e+003, 2.182566e+001
2.246155e+003, 2.148201e+001
2.248083e+003, 2.090127e+001
2.250011e+003, 2.092710e+001
2.251940e+003, 2.133966e+001
2.253868e+003, 2.181973e+001
2.255797e+003, 2.228217e+001
2.257725e+003, 2.263272e+001
2.259654e+003, 2.171223e+001
2.261582e+003, 2.102131e+001
2.263511e+003, 2.157726e+001
2.265439e+003, 2.075119e+001
2.267368e+003, 1.958892e+001
2.269296e+003, 2.061631e+001
2.271225e+003, 2.089592e+001
2.273153e+003, 2.006003e+001
2.275082e+003, 2.089017e+001
2.277010e+003, 2.138434e+001
2.278938e+003, 2.042302e+001
2.280867e+003, 2.014020e+001
2.282795e+003, 2.039025e+001
2.284724e+003, 2.085923e+001
2.286652e+003, 2.141548e+001
2.288581e+003, 2.178611e+001
2.290509e+003, 2.025484e+001
2.292438e+003, 1.937614e+001
2.294366e+003, 2.040450e+001
2.296295e+003, 2.158978e+001
2.298223e+003, 2.227398e+001
2.300152e+003, 2.126572e+001
2.302080e+003, 2.096092e+001
2.304009e+003, 2.132327e+001
2.305937e+003, 2.128327e+001
2.307865e+003, 2.085254e+001
2.309794e+003, 2.001558e+001
2.311722e+003, 1.978901e+001
2.313651e+003, 1.988289e+001
2.315579e+003, 2.000954e+001
2.317508e+003, 2.038961e+001
2.319436e+003, 2.090321e+001
2.321365e+003, 2.136333e+001
2.323293e+003, 2.142296e+001
2.325222e+003, 2.103168e+001
2.327150e+003, 2.090879e+001
2.329079e+003, 2.068304e+001
2.331007e+003, 2.004700e+001
2.332936e+003, 1.985392e+001
2.334864e+003, 2.015587e+001
2.336792e+003, 2.122408e+001
2.338721e+003, 2.137960e+001
2.340649e+003, 2.065711e+001
2.342578e+003, 1.990416e+001
2.344506e+003, 1.944111e+001
2.346435e+003, 1.939998e+001
2.348363e+003, 2.038284e+001
2.350292e+003, 2.088734e+001
2.352220e+003, 1.986380e+001
2.354149e+003, 1.857258e+001
2.356077e+003, 1.787977e+001
2.358006e+003, 1.998750e+001
2.359934e+003, 2.013298e+001
2.361863e+003, 1.852619e+001
2.363791e+003, 1.901056e+001
2.365719e+003, 1.928790e+001
2.367648e+003, 1.869006e+001
2.369576e+003, 1.854855e+001
2.371505e+003, 1.867090e+001
2.373433e+003, 1.891088e+001
2.375362e+003, 1.938538e+001
2.377290e+003, 1.972901e+001
2.379219e+003, 1.904069e+001
2.381147e+003, 1.961733e+001
2.383076e+003, 2.071194e+001
2.385004e+003, 1.870650e+001
2.386933e+003, 1.758094e+001
2.388861e+003, 1.830245e+001
2.390790e+003, 1.810459e+001
2.392718e+003, 1.798777e+001
2.394646e+003, 1.880951e+001
2.396575e+003, 1.858591e+001
2.398503e+003, 1.807723e+001
2.400432e+003, 1.798365e+001
2.402360e+003, 1.839308e+001
2.404289e+003, 1.889585e+001
2.406217e+003, 1.860005e+001
2.408146e+003, 1.864361e+001
2.410074e+003, 1.906633e+001
2.412003e+003, 1.905427e+001
2.413931e+003, 1.869501e+001
2.415860e+003, 1.803511e+001
2.417788e+003, 1.784875e+001
2.419717e+003, 1.759748e+001
2.421645e+003, 1.697163e+001
2.423573e+003, 1.701435e+001
2.425502e+003, 1.718001e+001
2.427430e+003, 1.674571e+001
2.429359e+003, 1.759797e+001
2.431287e+003, 1.875338e+001
2.433216e+003, 1.783660e+001
2.435144e+003, 1.715603e+001
2.437073e+003, 1.682889e+001
2.439001e+003, 1.581250e+001
2.440930e+003, 1.569620e+001
2.442858e+003, 1.657367e+001
2.444787e+003, 1.686114e+001
2.446715e+003, 1.667705e+001
2.448644e+003, 1.611427e+001
2.450572e+003, 1.542784e+001
2.452500e+003, 1.532942e+001
2.454429e+003, 1.674823e+001
2.456357e+003, 1.634729e+001
2.458286e+003, 1.545916e+001
2.460214e+003, 1.553664e+001
2.462143e+003, 1.664542e+001
2.464071e+003, 1.761219e+001
2.466000e+003, 1.626455e+001
2.467928e+003, 1.572700e+001
2.469857e+003, 1.590132e+001
2.471785e+003, 1.519302e+001
2.473714e+003, 1.527592e+001
2.475642e+003, 1.621386e+001
2.477571e+003, 1.662621e+001
2.479499e+003, 1.618938e+001
2.481427e+003, 1.493858e+001
2.483356e+003, 1.559525e+001
2.485284e+003, 1.562464e+001
2.487213e+003, 1.397967e+001
2.489141e+003, 1.513236e+001
2.491070e+003, 1.594502e+001
2.492998e+003, 1.456046e+001
2.494927e+003, 1.493998e+001
2.496855e+003, 1.542105e+001
2.498784e+003, 1.438384e+001
2.500712e+003, 1.391268e+001
2.502641e+003, 1.409085e+001
2.504569e+003, 1.512643e+001
2.506498e+003, 1.516501e+001
2.508426e+003, 1.461428e+001
2.510354e+003, 1.424078e+001
2.512283e+003, 1.449684e+001
2.514211e+003, 1.489516e+001
2.516140e+003, 1.404550e+001
2.518068e+003, 1.389679e+001
2.519997e+003, 1.431593e+001
2.521925e+003, 1.399542e+001
2.523854e+003, 1.397497e+001
2.525782e+003, 1.420153e+001
2.527711e+003, 1.343465e+001
2.529639e+003, 1.311965e+001
2.531568e+003, 1.344475e+001
2.533496e+003, 1.303027e+001
2.535425e+003, 1.284209e+001
2.537353e+003, 1.317356e+001
2.539281e+003, 1.396910e+001
2.541210e+003, 1.400306e+001
2.543138e+003, 1.280484e+001
2.545067e+003, 1.281995e+001
2.546995e+003, 1.335179e+001
2.548924e+003, 1.408877e+001
2.550852e+003, 1.408879e+001
2.552781e+003, 1.388312e+001
2.554709e+003, 1.376451e+001
2.556638e+003, 1.377365e+001
2.558566e+003, 1.391668e+001
2.560495e+003, 1.418568e+001
2.562423e+003, 1.454021e+001
2.564352e+003, 1.465293e+001
2.566280e+003, 1.434413e+001
2.568208e+003, 1.399568e+001
2.570137e+003, 1.381163e+001
2.572065e+003, 1.392398e+001
2.573994e+003, 1.349674e+001
2.575922e+003, 1.321074e+001
2.577851e+003, 1.366418e+001
2.579779e+003, 1.376144e+001
2.581708e+003, 1.363583e+001
2.583636e+003, 1.344420e+001
2.585565e+003, 1.303856e+001
2.587493e+003, 1.257067e+001
2.589422e+003, 1.203145e+001
2.591350e+003, 1.270855e+001
2.593279e+003, 1.353646e+001
2.595207e+003, 1.351923e+001
2.597135e+003, 1.221271e+001
2.599064e+003, 1.130189e+001
2.600992e+003, 1.308613e+001
2.602921e+003, 1.287047e+001
2.604849e+003, 1.226828e+001
2.606778e+003, 1.300372e+001
2.608706e+003, 1.295195e+001
2.610635e+003, 1.261489e+001
2.612563e+003, 1.250243e+001
2.614492e+003, 1.223583e+001
2.616420e+003, 1.182670e+001
2.618349e+003, 1.125916e+001
2.620277e+003, 1.175357e+001
2.622206e+003, 1.256970e+001
2.624134e+003, 1.314850e+001
2.626063e+003, 1.284012e+001
2.627991e+003, 1.247219e+001
2.629919e+003, 1.257489e+001
2.631848e+003, 1.261702e+001
2.633776e+003, 1.275376e+001
2.635705e+003, 1.304510e+001
2.637633e+003, 1.215688e+001
2.639562e+003, 1.146918e+001
2.641490e+003, 1.164754e+001
2.643419e+003, 1.169403e+001
2.645347e+003, 1.172789e+001
2.647276e+003, 1.186321e+001
2.649204e+003, 1.297488e+001
2.651133e+003, 1.286336e+001
2.653061e+003, 1.112439e+001
2.654990e+003, 1.127981e+001
2.656918e+003, 1.154766e+001
2.658846e+003, 1.138016e+001
2.660775e+003, 1.133975e+001
2.662703e+003, 1.157797e+001
2.664632e+003, 1.196488e+001
2.666560e+003, 1.166967e+001
2.668489e+003, 1.139474e+001
2.670417e+003, 1.137414e+001
2.672346e+003, 1.203905e+001
2.674274e+003, 1.191205e+001
2.676203e+003, 1.157611e+001
2.678131e+003, 1.348354e+001
2.680060e+003, 1.299213e+001
2.681988e+003, 1.140611e+001
2.683917e+003, 1.206824e+001
2.685845e+003, 1.207529e+001
2.687773e+003, 1.169433e+001
2.689702e+003, 1.167345e+001
2.691630e+003, 1.184844e+001
2.693559e+003, 1.203353e+001
2.695487e+003, 1.208719e+001
2.697416e+003, 1.200744e+001
2.699344e+003, 1.201592e+001
2.701273e+003, 1.223152e+001
2.703201e+003, 1.188872e+001
2.705130e+003, 1.173073e+001
2.707058e+003, 1.204229e+001
2.708987e+003, 1.192078e+001
2.710915e+003, 1.204550e+001
2.712844e+003, 1.245298e+001
2.714772e+003, 1.187171e+001
2.716700e+003, 1.193221e+001
2.718629e+003, 1.252508e+001
2.720557e+003, 1.178277e+001
2.722486e+003, 1.177542e+001
2.724414e+003, 1.232956e+001
2.726343e+003, 1.246211e+001
2.728271e+003, 1.187596e+001
2.730200e+003, 1.133708e+001
2.732128e+003, 1.200091e+001
2.734057e+003, 1.259641e+001
2.735985e+003, 1.288764e+001
2.737914e+003, 1.267543e+001
2.739842e+003, 1.263837e+001
2.741771e+003, 1.251283e+001
2.743699e+003, 1.213630e+001
2.745627e+003, 1.175751e+001
2.747556e+003, 1.186692e+001
2.749484e+003, 1.245774e+001
2.751413e+003, 1.222997e+001
2.753341e+003, 1.218289e+001
2.755270e+003, 1.235258e+001
2.757198e+003, 1.225102e+001
2.759127e+003, 1.169742e+001
2.761055e+003, 1.121109e+001
2.762984e+003, 1.155155e+001
2.764912e+003, 1.259498e+001
2.766841e+003, 1.313661e+001
2.768769e+003, 1.226807e+001
2.770698e+003, 1.173270e+001
2.772626e+003, 1.190590e+001
2.774554e+003, 1.268462e+001
2.776483e+003, 1.256544e+001
2.778411e+003, 1.239360e+001
2.780340e+003, 1.232463e+001
2.782268e+003, 1.181734e+001
2.784197e+003, 1.175252e+001
2.786125e+003, 1.198009e+001
2.788054e+003, 1.196280e+001
2.789982e+003, 1.180256e+001
2.791911e+003, 1.201989e+001
2.793839e+003, 1.349527e+001
2.795768e+003, 1.361908e+001
2.797696e+003, 1.325092e+001
2.799625e+003, 1.285462e+001
2.801553e+003, 1.176661e+001
2.803481e+003, 1.204870e+001
2.805410e+003, 1.332127e+001
2.807338e+003, 1.229939e+001
2.809267e+003, 1.170115e+001
2.811195e+003, 1.157862e+001
2.813124e+003, 1.136019e+001
2.815052e+003, 1.219369e+001
2.816981e+003, 1.286733e+001
2.818909e+003, 1.257990e+001
2.820838e+003, 1.277266e+001
2.822766e+003, 1.242044e+001
2.824695e+003, 1.142307e+001
2.826623e+003, 1.123344e+001
2.828552e+003, 1.160091e+001
2.830480e+003, 1.236802e+001
2.832408e+003, 1.371969e+001
2.834337e+003, 1.295482e+001
2.836265e+003, 1.181676e+001
2.838194e+003, 1.188373e+001
2.840122e+003, 1.250837e+001
2.842051e+003, 1.238193e+001
2.843979e+003, 1.156536e+001
2.845908e+003, 1.277221e+001
2.847836e+003, 1.354531e+001
2.849765e+003, 1.360634e+001
2.851693e+003, 1.346497e+001
2.853622e+003, 1.280220e+001
2.855550e+003, 1.218803e+001
2.857479e+003, 1.209400e+001
2.859407e+003, 1.303577e+001
2.861335e+003, 1.322198e+001
2.863264e+003, 1.250452e+001
2.865192e+003, 1.365617e+001
2.867121e+003, 1.343650e+001
2.869049e+003, 1.254122e+001
2.870978e+003, 1.265824e+001
2.872906e+003, 1.243192e+001
2.874835e+003, 1.265577e+001
2.876763e+003, 1.368902e+001
2.878692e+003, 1.261213e+001
2.880620e+003, 1.212304e+001
2.882549e+003, 1.262569e+001
2.884477e+003, 1.322158e+001
2.886406e+003, 1.299476e+001
2.888334e+003, 1.233689e+001
2.890262e+003, 1.172287e+001
2.892191e+003, 1.237777e+001
2.894119e+003, 1.235914e+001
2.896048e+003, 1.144400e+001
2.897976e+003, 1.183416e+001
2.899905e+003, 1.205755e+001
2.901833e+003, 1.200223e+001
2.903762e+003, 1.187742e+001
2.905690e+003, 1.172476e+001
2.907619e+003, 1.176463e+001
2.909547e+003, 1.207092e+001
2.911476e+003, 1.254040e+001
2.913404e+003, 1.217263e+001
2.915333e+003, 1.158685e+001
2.917261e+003, 1.240961e+001
2.919189e+003, 1.201197e+001
2.921118e+003, 1.154587e+001
2.923046e+003, 1.187800e+001
2.924975e+003, 1.277973e+001
2.926903e+003, 1.267029e+001
2.928832e+003, 1.190777e+001
2.930760e+003, 1.194175e+001
2.932689e+003, 1.250793e+001
2.934617e+003, 1.274121e+001
2.936546e+003, 1.218265e+001
2.938474e+003, 1.213582e+001
2.940403e+003, 1.141977e+001
2.942331e+003, 1.076172e+001
2.944260e+003, 1.272345e+001
2.946188e+003, 1.187687e+001
2.948116e+003, 1.062924e+001
2.950045e+003, 1.072297e+001
2.951973e+003, 1.087930e+001
2.953902e+003, 1.088149e+001
2.955830e+003, 1.057648e+001
2.957759e+003, 9.351629e+000
2.959687e+003, 1.014476e+001
2.961616e+003, 1.119750e+001
2.963544e+003, 1.138734e+001
2.965473e+003, 1.136377e+001
2.967401e+003, 1.109114e+001
2.969330e+003, 1.069983e+001
2.971258e+003, 1.042441e+001
2.973187e+003, 9.977194e+000
2.975115e+003, 9.607405e+000
2.977043e+003, 9.523396e+000
2.978972e+003, 1.029672e+001
2.980900e+003, 1.103913e+001
2.982829e+003, 1.106303e+001
2.984757e+003, 9.718420e+000
2.986686e+003, 1.014559e+001
2.988614e+003, 1.044038e+001
2.990543e+003, 1.006884e+001
2.992471e+003, 1.004173e+001
2.994400e+003, 9.930838e+000
2.996328e+003, 9.759991e+000
2.998257e+003, 9.574790e+000
3.000185e+003, 8.999337e+000
3.002114e+003, 8.688829e+000
3.004042e+003, 8.674772e+000
3.005970e+003, 8.651732e+000
3.007899e+003, 9.121447e+000
3.009827e+003, 9.301582e+000
3.011756e+003, 9.019984e+000
3.013684e+003, 9.269602e+000
3.015613e+003, 9.676743e+000
3.017541e+003, 9.801870e+000
3.019470e+003, 9.280363e+000
3.021398e+003, 9.040949e+000
3.023327e+003, 8.848181e+000
3.025255e+003, 8.788710e+000
3.027184e+003, 9.525099e+000
3.029112e+003, 8.571980e+000
3.031041e+003, 7.977218e+000
3.032969e+003, 8.729033e+000
3.034897e+003, 8.224124e+000
3.036826e+003, 8.490867e+000
3.038754e+003, 9.127248e+000
3.040683e+003, 9.371309e+000
3.042611e+003, 9.274621e+000
3.044540e+003, 8.848331e+000
3.046468e+003, 8.438681e+000
3.048397e+003, 8.712639e+000
3.050325e+003, 7.877772e+000
3.052254e+003, 7.622810e+000
3.054182e+003, 8.343136e+000
3.056111e+003, 7.522694e+000
3.058039e+003, 7.322068e+000
3.059968e+003, 7.607179e+000
3.061896e+003, 7.956517e+000
3.063824e+003, 7.708215e+000
3.065753e+003, 7.147414e+000
3.067681e+003, 6.979418e+000
3.069610e+003, 7.979877e+000
3.071538e+003, 6.707833e+000
3.073467e+003, 6.337329e+000
3.075395e+003, 7.112260e+000
3.077324e+003, 6.861871e+000
3.079252e+003, 7.942539e+000
3.081181e+003, 8.241438e+000
3.083109e+003, 7.379704e+000
3.085038e+003, 8.385289e+000
3.086966e+003, 8.711488e+000
3.088895e+003, 8.677378e+000
3.090823e+003, 8.767704e+000
3.092751e+003, 8.635416e+000
3.094680e+003, 8.988629e+000
3.096608e+003, 9.217250e+000
3.098537e+003, 8.591329e+000
3.100465e+003, 8.385455e+000
3.102394e+003, 9.083142e+000
3.104322e+003, 9.578776e+000
3.106251e+003, 8.258922e+000
3.108179e+003, 7.595323e+000
3.110108e+003, 7.947981e+000
3.112036e+003, 8.462322e+000
3.113965e+003, 7.330911e+000
3.115893e+003, 7.738302e+000
3.117822e+003, 7.979231e+000
3.119750e+003, 7.797663e+000
3.121678e+003, 9.325167e+000
3.123607e+003, 8.676243e+000
3.125535e+003, 8.171774e+000
3.127464e+003, 8.651783e+000
3.129392e+003, 8.254971e+000
3.131321e+003, 7.778797e+000
3.133249e+003, 7.822593e+000
3.135178e+003, 8.509817e+000
3.137106e+003, 9.026771e+000
3.139035e+003, 9.153397e+000
3.140963e+003, 9.261540e+000
3.142892e+003, 9.609346e+000
3.144820e+003, 9.618330e+000
3.146749e+003, 1.002521e+001
3.148677e+003, 1.030375e+001
3.150605e+003, 9.933565e+000
3.152534e+003, 9.727128e+000
3.154462e+003, 9.800170e+000
3.156391e+003, 9.484342e+000
3.158319e+003, 8.350693e+000
3.160248e+003, 9.999754e+000
3.162176e+003, 1.036260e+001
3.164105e+003, 9.535874e+000
3.166033e+003, 8.635589e+000
3.167962e+003, 9.526893e+000
3.169890e+003, 9.938836e+000
3.171819e+003, 9.562402e+000
3.173747e+003, 8.812978e+000
3.175676e+003, 9.331144e+000
3.177604e+003, 9.212362e+000
3.179532e+003, 8.566004e+000
3.181461e+003, 8.048403e+000
3.183389e+003, 8.169502e+000
3.185318e+003, 8.984816e+000
3.187246e+003, 9.367880e+000
3.189175e+003, 8.384727e+000
3.191103e+003, 8.215142e+000
3.193032e+003, 8.280881e+000
3.194960e+003, 8.320933e+000
3.196889e+003, 8.251896e+000
3.198817e+003, 8.799519e+000
3.200746e+003, 8.751699e+000
3.202674e+003, 8.402979e+000
3.204603e+003, 8.144807e+000
3.206531e+003, 6.935792e+000
3.208459e+003, 8.280858e+000
3.210388e+003, 9.638767e+000
3.212316e+003, 8.961527e+000
3.214245e+003, 8.053388e+000
3.216173e+003, 8.564817e+000
3.218102e+003, 9.221251e+000
3.220030e+003, 9.143664e+000
3.221959e+003, 8.705992e+000
3.223887e+003, 8.037167e+000
3.225816e+003, 8.130462e+000
3.227744e+003, 9.030198e+000
3.229673e+003, 9.372654e+000
3.231601e+003, 9.321319e+000
3.233530e+003, 9.362063e+000
3.235458e+003, 9.474065e+000
3.237386e+003, 9.106634e+000
3.239315e+003, 9.191748e+000
3.241243e+003, 9.015346e+000
3.243172e+003, 8.741062e+000
3.245100e+003, 9.002584e+000
3.247029e+003, 9.949887e+000
3.248957e+003, 1.037310e+001
3.250886e+003, 1.003205e+001
3.252814e+003, 8.995842e+000
3.254743e+003, 8.865289e+000
3.256671e+003, 9.356481e+000
3.258600e+003, 9.994641e+000
3.260528e+003, 1.045572e+001
3.262457e+003, 1.085364e+001
3.264385e+003, 1.036595e+001
3.266313e+003, 1.074446e+001
3.268242e+003, 1.207971e+001
3.270170e+003, 1.107036e+001
3.272099e+003, 1.157819e+001
3.274027e+003, 1.184503e+001
3.275956e+003, 1.165116e+001
3.277884e+003, 1.231825e+001
3.279813e+003, 1.265033e+001
3.281741e+003, 1.205329e+001
3.283670e+003, 1.130915e+001
3.285598e+003, 1.138733e+001
3.287527e+003, 1.157384e+001
3.289455e+003, 1.125334e+001
3.291384e+003, 1.115286e+001
3.293312e+003, 1.167372e+001
3.295240e+003, 1.217170e+001
3.297169e+003, 1.081757e+001
3.299097e+003, 1.080310e+001
3.301026e+003, 1.214704e+001
3.302954e+003, 1.115489e+001
3.304883e+003, 1.179995e+001
3.306811e+003, 1.204246e+001
3.308740e+003, 1.218013e+001
3.310668e+003, 1.319312e+001
3.312597e+003, 1.227830e+001
3.314525e+003, 1.310950e+001
3.316454e+003, 1.344747e+001
3.318382e+003, 1.227042e+001
3.320311e+003, 1.269341e+001
3.322239e+003, 1.233514e+001
3.324167e+003, 1.225109e+001
3.326096e+003, 1.237216e+001
3.328024e+003, 1.204406e+001
3.329953e+003, 1.594124e+001
3.331881e+003, 1.465888e+001
3.333810e+003, 1.229470e+001
3.335738e+003, 1.300320e+001
3.337667e+003, 1.266821e+001
3.339595e+003, 1.259864e+001
3.341524e+003, 1.265749e+001
3.343452e+003, 1.256787e+001
3.345381e+003, 1.210422e+001
3.347309e+003, 1.094736e+001
3.349238e+003, 1.157062e+001
3.351166e+003, 1.186545e+001
3.353094e+003, 1.008605e+001
3.355023e+003, 9.444856e+000
3.356951e+003, 1.108745e+001
3.358880e+003, 1.148033e+001
3.360808e+003, 1.050778e+001
3.362737e+003, 1.080965e+001
3.364665e+003, 9.103692e+000
3.366594e+003, 9.272717e+000
3.368522e+003, 9.939147e+000
3.370451e+003, 9.576871e+000
3.372379e+003, 8.754446e+000
3.374308e+003, 9.154379e+000
3.376236e+003, 9.776592e+000
3.378165e+003, 9.663550e+000
3.380093e+003, 8.492311e+000
3.382021e+003, 8.481387e+000
3.383950e+003, 9.147348e+000
3.385878e+003, 9.171064e+000
3.387807e+003, 8.578181e+000
3.389735e+003, 9.162231e+000
3.391664e+003, 8.281855e+000
3.393592e+003, 7.945598e+000
3.395521e+003, 8.008013e+000
3.397449e+003, 7.860361e+000
3.399378e+003, 8.074133e+000
3.401306e+003, 7.843572e+000
3.403235e+003, 7.708191e+000
3.405163e+003, 7.737348e+000
3.407092e+003, 7.666122e+000
3.409020e+003, 7.781975e+000
3.410948e+003, 8.078391e+000
3.412877e+003, 8.358709e+000
3.414805e+003, 8.281084e+000
3.416734e+003, 7.414788e+000
3.418662e+003, 7.329296e+000
3.420591e+003, 7.078689e+000
3.422519e+003, 6.929397e+000
3.424448e+003, 7.047494e+000
3.426376e+003, 6.723049e+000
3.428305e+003, 6.464799e+000
3.430233e+003, 6.753630e+000
3.432162e+003, 6.485779e+000
3.434090e+003, 5.271730e+000
3.436019e+003, 7.138795e+000
3.437947e+003, 6.172863e+000
3.439875e+003, 6.633880e+000
3.441804e+003, 7.603054e+000
3.443732e+003, 6.254460e+000
3.445661e+003, 5.938792e+000
3.447589e+003, 6.262620e+000
3.449518e+003, 6.093088e+000
3.451446e+003, 5.638978e+000
##END=



