##NAMES=Eirikite
##RRUFFID=R120006
##IDEAL CHEMISTRY=KNa_6_Be_2_(Si_15_Al_3_)O_39_F_2_
##LOCALITY=Poudrette quarry, Mont Saint-Hilaire, Rouville RCM, Montérégie, Québec, Canada
##OWNER=RRUFF
##SOURCE=Donald Doell
##DESCRIPTION=Aggregate of parallel colorless acicular crystals
##STATUS=The identification of this mineral has been confirmed by single-crystal X-ray diffraction
##URL=https://www.rruff.net/odr/rruff_sample/R120006
##DIFFRACTION SAMPLE DESCRIPTION=Single crystal, powder profile is calculated
##CELL PARAMETERS=a: 14.41 b: 14.41 c: 7.8805 alpha: 90 beta: 90 gamma: 120 volume: 877.6 crystal system: hexagonal
##FILETYPE=Raman Processed
##RAMAN WAVELENGTH=532

101.9570, 3118.259
103.8855, 3068.302
105.8140, 3051.882
107.7424, 3111.049
109.6709, 3186.273
111.5994, 3215.374
113.5278, 3173.989
115.4563, 3134.799
117.3848, 3119.353
119.3132, 3129.580
121.2417, 3153.914
123.1702, 3211.497
125.0986, 3278.683
127.0271, 3311.968
128.9556, 3280.760
130.8840, 3246.386
132.8125, 3235.966
134.7410, 3256.058
136.6694, 3295.783
138.5979, 3340.439
140.5264, 3401.877
142.4548, 3523.746
144.3833, 3676.748
146.3118, 3909.149
148.2402, 4249.530
150.1687, 4573.488
152.0972, 5204.782
154.0257, 6191.002
155.9541, 7481.839
157.8826, 9311.351
159.8111, 11594.58
161.7395, 14408.21
163.6680, 17766.91
165.5965, 21768.92
167.5249, 26189.73
169.4534, 30913.63
171.3819, 36043.50
173.3103, 41321.90
175.2388, 46777.81
177.1673, 50437.63
179.0957, 53642.31
181.0242, 56920.89
182.9527, 60119.94
184.8811, 63218.95
186.8096, 66279.23
188.7381, 69165.28
190.6665, 71873.63
192.5950, 74442.23
194.5235, 76833.77
196.4519, 79088.48
198.3804, 81205.84
200.3089, 83177.66
202.2373, 85029.58
204.1658, 86757.18
206.0943, 88357.23
208.0227, 89831.18
209.9512, 91232.22
211.8797, 92572.70
213.8081, 93819.58
215.7366, 94975.14
217.6651, 96037.03
219.5935, 96976.59
221.5220, 97745.84
223.4505, 98325.91
225.3789, 98972.79
227.3074, 99764.01
229.2359, 100560.7
231.1643, 101253.0
233.0928, 101744.9
235.0213, 102198.8
236.9497, 102630.8
238.8782, 103033.3
240.8067, 103391.2
242.7351, 103690.9
244.6636, 103955.5
246.5921, 104202.0
248.5205, 104488.6
250.4490, 104734.4
252.3775, 104907.7
254.3059, 105033.4
256.2344, 105212.5
258.1629, 105483.9
260.0913, 105827.2
262.0198, 106235.5
263.9483, 106713.7
265.8767, 107242.0
267.8052, 107797.4
269.7337, 108360.3
271.6621, 108989.5
273.5906, 109679.6
275.5191, 110386.5
277.4475, 111066.1
279.3760, 111731.6
281.3045, 112280.3
283.2329, 112665.2
285.1614, 112862.3
287.0899, 113053.8
289.0183, 113289.3
290.9468, 113549.0
292.8753, 113835.7
294.8037, 114225.8
296.7322, 114554.2
298.6607, 114736.2
300.5891, 114734.6
302.5176, 114869.6
304.4461, 115178.1
306.3745, 115558.5
308.3030, 115922.4
310.2315, 116262.8
312.1599, 116553.4
314.0884, 116794.3
316.0169, 116990.3
317.9453, 117169.2
319.8738, 117331.0
321.8023, 117518.8
323.7307, 117752.2
325.6592, 118020.5
327.5877, 118377.8
329.5161, 118851.5
331.4446, 119417.1
333.3731, 119952.0
335.3015, 120418.5
337.2300, 120837.0
339.1585, 121220.9
341.0869, 121554.0
343.0154, 121863.5
344.9439, 122150.3
346.8723, 122434.5
348.8008, 122746.8
350.7293, 123123.8
352.6578, 123530.3
354.5862, 123961.0
356.5147, 124461.3
358.4432, 124894.6
360.3716, 125143.3
362.3001, 125340.5
364.2286, 125663.6
366.1570, 126198.6
368.0855, 126761.0
370.0140, 127273.2
371.9424, 127716.0
373.8709, 128270.4
375.7994, 129054.6
377.7278, 129910.6
379.6563, 130698.7
381.5848, 131467.9
383.5132, 132083.1
385.4417, 132471.4
387.3702, 132632.0
389.2986, 132770.2
391.2271, 132895.8
393.1556, 132985.0
395.0840, 133021.8
397.0125, 132929.0
398.9410, 132926.1
400.8694, 133084.3
402.7979, 133352.4
404.7264, 133579.8
406.6548, 133692.8
408.5833, 133848.0
410.5118, 134112.9
412.4402, 134538.5
414.3687, 134914.8
416.2972, 135215.9
418.2256, 135481.5
420.1541, 135770.4
422.0826, 136134.0
424.0110, 136457.3
425.9395, 136693.6
427.8680, 136854.7
429.7964, 137102.6
431.7249, 137431.7
433.6534, 137844.3
435.5818, 138344.3
437.5103, 138955.6
439.4388, 139498.8
441.3672, 139867.3
443.2957, 140131.8
445.2242, 140483.2
447.1526, 140978.3
449.0811, 141455.6
451.0096, 141814.7
452.9380, 142044.8
454.8665, 142458.8
456.7950, 143204.3
458.7234, 144078.4
460.6519, 144914.7
462.5804, 145724.6
464.5089, 146501.4
466.4373, 147271.9
468.3658, 148010.1
470.2943, 148607.7
472.2227, 148946.2
474.1512, 149220.5
476.0797, 149497.7
478.0081, 149780.2
479.9366, 150008.6
481.8651, 150094.8
483.7935, 150194.0
485.7220, 150441.7
487.6505, 150780.7
489.5789, 151386.5
491.5074, 152329.7
493.4359, 153573.3
495.3643, 154986.5
497.2928, 156727.1
499.2213, 158396.7
501.1497, 159915.1
503.0782, 161397.1
505.0067, 162184.5
506.9351, 162049.7
508.8636, 161355.1
510.7921, 160453.5
512.7205, 159270.0
514.6490, 158154.8
516.5775, 157120.9
518.5059, 156206.7
520.4344, 155564.8
522.3629, 155208.1
524.2913, 155032.0
526.2198, 155024.2
528.1483, 155169.7
530.0767, 155347.2
532.0052, 155571.3
533.9337, 155820.8
535.8621, 156084.5
537.7906, 156369.2
539.7191, 156681.9
541.6475, 157007.6
543.5760, 157352.2
545.5045, 157731.8
547.4329, 158179.1
549.3614, 158567.9
551.2899, 158842.4
553.2183, 158988.1
555.1468, 159115.6
557.0753, 159275.2
559.0037, 159402.7
560.9322, 159472.7
562.8607, 159476.5
564.7891, 159535.4
566.7176, 159649.6
568.6461, 159843.9
570.5745, 160167.1
572.5030, 160663.4
574.4315, 161149.6
576.3599, 161519.6
578.2884, 161807.7
580.2169, 162187.5
582.1453, 162725.5
584.0738, 163269.8
586.0023, 163763.4
587.9307, 164194.2
589.8592, 164593.5
591.7877, 164948.7
593.7161, 165260.2
595.6447, 165538.3
597.5731, 165800.1
599.5016, 166006.9
601.4301, 166135.2
603.3585, 166250.1
605.2870, 166450.7
607.2155, 166788.9
609.1439, 167116.4
611.0724, 167349.4
613.0009, 167512.7
614.9293, 167741.2
616.8578, 168011.8
618.7863, 168315.4
620.7147, 168669.8
622.6432, 169058.0
624.5717, 169387.3
626.5001, 169651.7
628.4286, 169883.0
630.3571, 170111.7
632.2855, 170380.3
634.2140, 170632.8
636.1425, 170787.2
638.0709, 170987.6
639.9994, 171399.2
641.9279, 172059.2
643.8563, 172688.3
645.7848, 173152.7
647.7133, 173496.1
649.6417, 173828.1
651.5702, 174123.6
653.4987, 174393.8
655.4271, 174654.3
657.3556, 174898.5
659.2841, 175100.7
661.2125, 175288.0
663.1410, 175453.4
665.0695, 175612.8
666.9979, 175786.5
668.9264, 175967.9
670.8549, 176128.2
672.7833, 176332.2
674.7118, 176619.5
676.6403, 176973.2
678.5687, 177367.3
680.4972, 177792.7
682.4257, 178233.0
684.3541, 178677.9
686.2826, 179109.2
688.2111, 179561.8
690.1395, 180028.5
692.0680, 180521.9
693.9965, 181068.7
695.9249, 181707.6
697.8534, 182290.4
699.7819, 182756.5
701.7103, 183133.0
703.6388, 183492.7
705.5673, 183850.2
707.4957, 184183.4
709.4242, 184443.0
711.3527, 184676.3
713.2811, 185035.9
715.2096, 185678.1
717.1381, 186225.6
719.0665, 186472.8
720.9950, 186377.2
722.9235, 186445.9
724.8519, 186783.1
726.7804, 187172.8
728.7089, 187531.3
730.6373, 187872.4
732.5658, 188202.0
734.4943, 188503.6
736.4227, 188826.8
738.3512, 189194.4
740.2797, 189609.5
742.2081, 190013.3
744.1366, 190367.1
746.0651, 190696.2
747.9935, 191041.8
749.9220, 191416.7
751.8505, 191713.0
753.7789, 191853.2
755.7074, 191952.2
757.6359, 192120.4
759.5643, 192463.6
761.4928, 192735.5
763.4213, 192853.5
765.3497, 192929.1
767.2782, 193120.5
769.2067, 193445.1
771.1351, 193824.2
773.0636, 194247.1
774.9921, 194708.8
776.9205, 195206.4
778.8490, 195776.3
780.7775, 196293.8
782.7059, 196679.5
784.6344, 196974.8
786.5629, 197306.3
788.4913, 197690.9
790.4198, 198056.5
792.3483, 198447.0
794.2767, 198831.9
796.2052, 199079.2
798.1337, 199056.8
800.0621, 199111.0
801.9906, 199313.8
803.9191, 199652.0
805.8475, 200059.2
807.7760, 200554.0
809.7045, 201022.5
811.6329, 201368.4
813.5614, 201619.6
815.4899, 201899.7
817.4183, 202287.9
819.3468, 202605.2
821.2753, 202817.1
823.2037, 202934.4
825.1322, 202990.0
827.0607, 202910.9
828.9891, 202918.5
830.9176, 203203.9
832.8461, 203688.0
834.7745, 204096.3
836.7030, 204329.2
838.6315, 204625.3
840.5599, 205062.8
842.4884, 205619.0
844.4169, 206174.8
846.3453, 206650.7
848.2738, 207129.7
850.2023, 207617.7
852.1307, 208083.3
854.0592, 208495.6
855.9877, 208846.1
857.9161, 209126.2
859.8446, 209334.7
861.7731, 209485.8
863.7015, 209630.9
865.6300, 209860.0
867.5585, 210013.8
869.4869, 210024.3
871.4154, 209937.0
873.3439, 209872.7
875.2723, 209854.5
877.2008, 209877.8
879.1293, 209959.6
881.0577, 210102.2
882.9862, 210281.5
884.9147, 210462.7
886.8431, 210732.8
888.7716, 211137.2
890.7001, 211634.7
892.6285, 212096.9
894.5570, 212449.0
896.4855, 212883.7
898.4139, 213517.6
900.3424, 214264.0
902.2709, 214950.7
904.1993, 215541.7
906.1278, 216101.3
908.0563, 216625.3
909.9847, 217104.2
911.9132, 217521.8
913.8417, 217863.5
915.7701, 218149.7
917.6986, 218361.9
919.6271, 218537.5
921.5555, 218742.9
923.4840, 219041.3
925.4125, 219309.5
927.3410, 219546.4
929.2695, 219807.1
931.1979, 220128.6
933.1264, 220470.5
935.0549, 220984.3
936.9833, 221752.5
938.9118, 222587.0
940.8403, 223310.8
942.7687, 223895.0
944.6972, 224394.8
946.6257, 224747.0
948.5541, 225056.1
950.4826, 225402.7
952.4111, 225833.6
954.3395, 226238.9
956.2680, 226573.6
958.1965, 226976.9
960.1249, 227583.3
962.0534, 228345.4
963.9819, 228928.4
965.9103, 229150.5
967.8388, 229327.7
969.7673, 229649.1
971.6957, 230062.8
973.6242, 230250.9
975.5527, 230055.3
977.4811, 229864.4
979.4096, 229854.2
981.3381, 229981.1
983.2665, 230013.2
985.1950, 229845.6
987.1235, 229862.5
989.0519, 230235.8
990.9804, 230805.0
992.9089, 231352.8
994.8373, 231833.4
996.7658, 232299.9
998.6943, 232719.2
1000.623, 233108.4
1002.551, 233498.6
1004.480, 233937.5
1006.408, 234301.9
1008.337, 234545.7
1010.265, 234802.2
1012.194, 235186.5
1014.122, 235698.3
1016.050, 236241.2
1017.979, 236832.1
1019.907, 237411.9
1021.836, 237913.3
1023.764, 238330.1
1025.693, 238801.8
1027.621, 239378.9
1029.550, 239921.3
1031.478, 240409.2
1033.407, 240839.1
1035.335, 241195.3
1037.264, 241447.8
1039.192, 241725.3
1041.120, 242119.7
1043.049, 242529.1
1044.977, 242834.1
1046.906, 243011.6
1048.834, 243182.3
1050.763, 243364.1
1052.691, 243554.4
1054.620, 243741.9
1056.548, 243918.2
1058.477, 244215.9
1060.405, 244766.5
1062.334, 245322.7
1064.262, 245701.0
1066.191, 245974.4
1068.119, 246472.6
1070.047, 247312.4
1071.976, 248113.8
1073.904, 248705.4
1075.833, 249147.0
1077.761, 249544.1
1079.690, 249897.4
1081.618, 250211.1
1083.547, 250390.9
1085.475, 250633.8
1087.404, 251156.7
1089.332, 252067.2
1091.261, 252891.1
1093.189, 253595.9
1095.118, 254215.6
1097.046, 254728.8
1098.975, 255144.1
1100.903, 255520.5
1102.832, 255833.3
1104.760, 256132.7
1106.688, 256456.6
1108.617, 256792.8
1110.545, 257112.2
1112.474, 257440.4
1114.402, 257771.0
1116.331, 257981.1
1118.259, 258305.0
1120.188, 259045.7
1122.116, 260256.0
1124.045, 261263.0
1125.973, 261879.9
1127.902, 262403.6
1129.830, 262985.9
1131.759, 263565.4
1133.687, 263986.9
1135.615, 264222.5
1137.544, 264315.6
1139.472, 264213.2
1141.401, 264043.2
1143.329, 263977.6
1145.258, 264066.4
1147.186, 264228.6
1149.115, 264519.0
1151.043, 264833.5
1152.972, 265071.7
1154.900, 265231.9
1156.829, 265458.8
1158.757, 265816.3
1160.686, 266123.0
1162.614, 266224.3
1164.542, 266271.2
1166.471, 266549.7
1168.399, 267196.6
1170.328, 267739.8
1172.256, 267986.8
1174.185, 268202.4
1176.113, 268572.6
1178.042, 269108.3
1179.970, 269611.2
1181.899, 269994.2
1183.827, 270390.3
1185.756, 270894.6
1187.684, 271427.2
1189.613, 271790.0
1191.541, 271936.4
1193.469, 272168.7
1195.398, 272678.2
1197.326, 273264.9
1199.255, 273736.4
1201.183, 274086.5
1203.112, 274569.5
1205.040, 275256.4
1206.969, 275957.7
1208.897, 276631.3
1210.826, 277234.9
1212.754, 277698.6
1214.683, 277944.0
1216.611, 278195.6
1218.540, 278532.8
1220.468, 278917.2
1222.396, 279316.1
1224.325, 279760.9
1226.253, 280334.8
1228.182, 281018.8
1230.110, 281826.2
1232.039, 282809.8
1233.967, 283816.3
1235.896, 284604.9
1237.824, 285067.1
1239.753, 285491.1
1241.681, 285946.7
1243.610, 286364.4
1245.538, 286789.0
1247.467, 287251.9
1249.395, 287472.9
1251.323, 287232.7
1253.252, 287156.0
1255.180, 287454.3
1257.109, 287966.2
1259.037, 288486.8
1260.966, 289016.0
1262.894, 289447.8
1264.823, 289605.7
1266.751, 289796.2
1268.680, 290217.0
1270.608, 290776.5
1272.537, 291273.0
1274.465, 291678.8
1276.394, 292109.5
1278.322, 292543.9
1280.250, 293095.1
1282.179, 293928.1
1284.107, 295113.4
1286.036, 296042.5
1287.964, 296396.1
1289.893, 296866.0
1291.821, 297637.8
1293.750, 298578.1
1295.678, 299490.8
1297.607, 300358.4
1299.535, 301153.6
1301.464, 301824.4
1303.392, 302449.0
1305.321, 303092.3
1307.249, 303715.4
1309.177, 304204.4
1311.106, 304519.7
1313.034, 304903.1
1314.963, 305535.5
1316.891, 306186.0
1318.820, 306649.3
1320.748, 306958.5
1322.677, 307416.4
1324.605, 308149.7
1326.534, 308836.4
1328.462, 309328.0
1330.391, 309733.7
1332.319, 310189.6
1334.248, 310726.4
1336.176, 311159.6
1338.104, 311421.3
1340.033, 311721.9
1341.961, 312161.1
1343.890, 312710.1
1345.818, 313316.0
1347.747, 314005.4
1349.675, 314633.1
1351.604, 315054.7
1353.532, 315463.9
1355.461, 315931.8
1357.389, 316417.7
1359.318, 316898.9
1361.246, 317420.5
1363.175, 317854.2
1365.103, 318202.7
1367.031, 318513.7
1368.960, 318758.5
1370.888, 318992.7
1372.817, 319488.8
1374.745, 320378.0
1376.674, 321162.1
1378.602, 321570.7
1380.531, 321886.1
1382.459, 322326.3
1384.388, 322892.1
1386.316, 323446.4
1388.245, 324080.2
1390.173, 324660.4
1392.102, 325206.9
1394.030, 325708.2
1395.958, 326110.8
1397.887, 326398.5
1399.815, 326773.3
1401.744, 327282.3
1403.672, 327744.3
1405.601, 328077.2
1407.529, 328362.1
1409.458, 328690.9
1411.386, 329083.3
1413.315, 329562.2
1415.243, 330179.8
1417.172, 330823.4
1419.100, 331420.1
1421.029, 332005.2
1422.957, 332606.1
1424.885, 333198.9
1426.814, 333770.8
1428.742, 334293.1
1430.671, 334817.6
1432.599, 335404.8
1434.528, 336009.7
1436.456, 336595.0
1438.385, 337196.0
1440.313, 337675.2
1442.242, 337942.7
1444.170, 338191.0
1446.099, 338341.4
1448.027, 338541.5
1449.956, 339044.6
1451.884, 339949.6
1453.813, 340643.4
1455.741, 340944.8
1457.669, 341311.5
1459.598, 341948.7
1461.526, 342682.9
1463.455, 343274.4
1465.383, 343712.7
1467.312, 344248.4
1469.240, 344919.2
1471.169, 345593.7
1473.097, 346312.3
1475.026, 346927.1
1476.954, 347205.8
1478.883, 347200.2
1480.811, 347351.7
1482.740, 347759.8
1484.668, 348291.4
1486.596, 349045.4
1488.525, 349881.6
1490.453, 350643.1
1492.382, 351357.8
1494.310, 352195.4
1496.239, 353096.3
1498.167, 354076.9
1500.096, 355127.3
1502.024, 356086.9
1503.953, 356882.3
1505.881, 357493.5
1507.810, 357857.4
1509.738, 358018.0
1511.667, 358078.2
1513.595, 358041.9
1515.523, 358118.4
1517.452, 358454.0
1519.380, 359011.7
1521.309, 359610.0
1523.237, 360125.3
1525.166, 360786.4
1527.094, 361708.7
1529.023, 362511.7
1530.951, 362961.1
1532.880, 363209.7
1534.808, 363552.5
1536.737, 364053.4
1538.665, 364570.5
1540.594, 365202.7
1542.522, 365791.3
1544.450, 366226.6
1546.379, 366640.2
1548.307, 367168.9
1550.236, 367799.7
1552.164, 368469.8
1554.093, 369169.6
1556.021, 369870.2
1557.950, 370605.6
1559.878, 371287.4
1561.807, 371837.2
1563.735, 372266.5
1565.664, 372644.1
1567.592, 372955.9
1569.521, 373307.5
1571.449, 373829.5
1573.377, 374287.8
1575.306, 374476.4
1577.234, 374559.4
1579.163, 374854.4
1581.091, 375385.8
1583.020, 375810.3
1584.948, 376009.3
1586.877, 376274.4
1588.805, 376783.5
1590.734, 377392.6
1592.662, 377942.3
1594.591, 378457.6
1596.519, 379077.3
1598.448, 379787.7
1600.376, 380564.9
1602.304, 381412.2
1604.233, 382220.6
1606.161, 382897.1
1608.090, 383452.2
1610.018, 383979.4
1611.947, 384499.7
1613.875, 384845.0
1615.804, 385032.5
1617.732, 385131.7
1619.661, 385133.5
1621.589, 385209.5
1623.518, 385550.7
1625.446, 386156.0
1627.375, 386775.7
1629.303, 387251.8
1631.231, 388009.2
1633.160, 389356.5
1635.088, 390612.4
1637.017, 391329.8
1638.945, 391681.5
1640.874, 392120.3
1642.802, 392706.0
1644.731, 393157.2
1646.659, 393518.2
1648.588, 393779.7
1650.516, 393798.2
1652.445, 393910.5
1654.373, 394412.4
1656.302, 395247.9
1658.230, 396132.9
1660.158, 397113.8
1662.087, 397881.4
1664.015, 398181.5
1665.944, 398482.7
1667.872, 399044.9
1669.801, 399663.5
1671.729, 400019.8
1673.658, 400092.1
1675.586, 400427.2
1677.515, 401220.3
1679.443, 401965.3
1681.372, 402519.1
1683.300, 403099.2
1685.229, 403800.7
1687.157, 404598.2
1689.085, 405474.5
1691.014, 406459.3
1692.942, 407143.5
1694.871, 407214.3
1696.799, 407370.4
1698.728, 407939.4
1700.656, 408483.4
1702.585, 408637.1
1704.513, 408572.6
1706.442, 408795.1
1708.370, 409416.3
1710.299, 410030.3
1712.227, 410552.0
1714.156, 411132.7
1716.084, 411867.8
1718.012, 412566.3
1719.941, 413010.7
1721.869, 413253.0
1723.798, 413614.9
1725.726, 414146.4
1727.655, 414668.0
1729.583, 415252.4
1731.512, 415741.9
1733.440, 416035.6
1735.369, 416290.0
1737.297, 416614.9
1739.226, 417033.6
1741.154, 417653.2
1743.083, 418563.3
1745.011, 419357.7
1746.939, 419832.7
1748.868, 420376.8
1750.797, 421100.4
1752.725, 421873.6
1754.653, 422606.8
1756.582, 423254.5
1758.510, 423710.4
1760.439, 423955.5
1762.367, 424097.7
1764.296, 424191.3
1766.224, 424207.8
1768.153, 424097.7
1770.081, 424047.0
1772.010, 424231.9
1773.938, 424630.2
1775.867, 425081.6
1777.795, 425573.8
1779.724, 426188.3
1781.652, 427000.1
1783.580, 427736.2
1785.509, 428115.9
1787.437, 428506.0
1789.366, 429193.2
1791.294, 430040.4
1793.223, 430783.2
1795.151, 431412.6
1797.080, 431893.3
1799.008, 432215.7
1800.937, 432453.6
1802.865, 432551.2
1804.794, 432738.5
1806.722, 433258.8
1808.651, 433941.7
1810.579, 434510.8
1812.507, 434971.8
1814.436, 435443.3
1816.364, 435890.2
1818.293, 436381.3
1820.221, 436994.3
1822.150, 437502.7
1824.078, 437757.6
1826.007, 437899.0
1827.935, 438035.2
1829.864, 438237.5
1831.792, 438766.0
1833.721, 439748.9
1835.649, 440491.5
1837.578, 440681.1
1839.506, 440959.4
1841.434, 441479.4
1843.363, 442145.1
1845.291, 442952.1
1847.220, 443794.3
1849.148, 444464.1
1851.077, 444943.9
1853.005, 445333.8
1854.934, 445544.2
1856.862, 445857.7
1858.791, 446488.2
1860.719, 447044.4
1862.648, 447319.0
1864.576, 447453.8
1866.505, 447559.7
1868.433, 447664.3
1870.361, 447957.8
1872.290, 448603.3
1874.218, 449051.5
1876.147, 449084.4
1878.075, 449272.6
1880.004, 449872.2
1881.932, 450542.3
1883.861, 451034.5
1885.789, 451453.3
1887.718, 451957.6
1889.646, 452509.7
1891.575, 453086.1
1893.503, 453662.7
1895.432, 454136.2
1897.360, 454550.7
1899.288, 454784.4
1901.217, 454782.3
1903.145, 454750.0
1905.074, 454916.4
1907.002, 455229.6
1908.931, 455435.9
1910.859, 455556.5
1912.788, 455964.5
1914.716, 456670.3
1916.645, 457381.8
1918.573, 457878.7
1920.502, 458435.3
1922.430, 459408.9
1924.359, 460274.8
1926.287, 460508.0
1928.215, 460354.9
1930.144, 460351.2
1932.072, 460534.0
1934.001, 460863.8
1935.929, 461521.1
1937.858, 461963.1
1939.786, 461836.1
1941.715, 461838.7
1943.643, 462285.6
1945.572, 462895.9
1947.500, 463396.4
1949.429, 463852.2
1951.357, 464529.6
1953.286, 465477.3
1955.214, 465908.3
1957.142, 465528.6
1959.071, 465307.7
1960.999, 465493.1
1962.928, 465691.9
1964.856, 465864.3
1966.785, 466014.7
1968.713, 466109.9
1970.642, 466240.9
1972.570, 466547.2
1974.499, 467016.7
1976.427, 467575.1
1978.356, 468208.5
1980.284, 468880.3
1982.213, 469576.8
1984.141, 470238.5
1986.069, 470690.6
1987.998, 471217.9
1989.926, 472065.8
1991.855, 473012.8
1993.783, 473878.6
1995.712, 474613.8
1997.640, 474951.1
1999.569, 474812.5
2001.497, 474819.7
2003.426, 475084.7
2005.354, 475361.6
2007.283, 475619.6
2009.211, 475869.0
2011.140, 476159.1
2013.068, 476379.1
2014.996, 476384.0
2016.925, 476291.8
2018.853, 476324.1
2020.782, 476504.6
2022.710, 476902.7
2024.639, 477592.3
2026.567, 478178.5
2028.496, 478531.5
2030.424, 478942.1
2032.353, 479577.7
2034.281, 480112.9
2036.210, 480185.9
2038.138, 480203.3
2040.067, 480595.0
2041.995, 481241.8
2043.923, 481959.7
2045.852, 482746.2
2047.780, 483048.0
2049.709, 482538.7
2051.637, 482396.7
2053.566, 483023.9
2055.494, 483527.5
2057.423, 483844.4
2059.351, 483886.5
2061.280, 483344.5
2063.208, 482820.4
2065.136, 483048.2
2067.065, 483835.5
2068.993, 484587.3
2070.922, 485301.4
2072.850, 486048.9
2074.779, 486769.3
2076.708, 487426.4
2078.636, 487861.8
2080.564, 488327.1
2082.493, 489044.6
2084.421, 489552.8
2086.350, 489583.2
2088.278, 489432.7
2090.207, 489429.3
2092.135, 489536.0
2094.064, 489586.7
2095.992, 489613.8
2097.921, 489722.5
2099.849, 489848.4
2101.778, 490069.2
2103.706, 490364.5
2105.635, 490614.9
2107.563, 490840.9
2109.491, 490959.2
2111.420, 490946.4
2113.348, 490929.7
2115.277, 491012.8
2117.205, 491213.5
2119.134, 491558.7
2121.062, 492016.3
2122.991, 492386.8
2124.919, 492652.4
2126.848, 493290.9
2128.776, 494409.3
2130.705, 495301.5
2132.633, 495807.3
2134.562, 496127.8
2136.490, 496175.1
2138.418, 496242.9
2140.347, 496586.2
2142.275, 496933.0
2144.204, 497035.9
2146.132, 497062.0
2148.061, 497292.8
2149.989, 497687.4
2151.918, 497914.6
2153.846, 497989.8
2155.775, 498391.7
2157.703, 499166.5
2159.632, 499967.0
2161.560, 500759.2
2163.489, 501334.0
2165.417, 501474.3
2167.345, 501517.4
2169.274, 501580.3
2171.202, 501651.2
2173.131, 501810.9
2175.059, 501981.0
2176.988, 502059.4
2178.916, 502091.8
2180.845, 502106.8
2182.773, 502123.7
2184.702, 502277.3
2186.630, 502542.5
2188.559, 502991.9
2190.487, 503648.4
2192.416, 504248.0
2194.344, 504704.9
2196.272, 505070.5
2198.201, 505360.6
2200.129, 505589.1
2202.058, 505795.6
2203.986, 505959.9
2205.915, 506041.6
2207.843, 506082.9
2209.772, 506155.8
2211.700, 506251.0
2213.629, 506298.5
2215.557, 506312.3
2217.486, 506448.5
2219.414, 506755.1
2221.343, 507027.6
2223.271, 507173.2
2225.199, 507542.6
2227.128, 508373.2
2229.056, 509072.0
2230.985, 509085.1
2232.913, 509266.0
2234.842, 510401.6
2236.770, 511604.8
2238.699, 511953.4
2240.627, 511967.3
2242.556, 512487.2
2244.484, 513352.6
2246.413, 513936.6
2248.341, 514260.7
2250.270, 514648.7
2252.198, 515084.3
2254.126, 515830.6
2256.055, 517019.6
2257.983, 517927.4
2259.912, 518374.5
2261.840, 518551.8
2263.769, 518250.2
2265.697, 518009.4
2267.626, 518112.1
2269.554, 518261.0
2271.483, 518418.3
2273.411, 518486.2
2275.340, 518368.1
2277.268, 518188.8
2279.197, 518051.3
2281.125, 518022.2
2283.053, 518228.3
2284.982, 518636.2
2286.910, 519095.7
2288.839, 519520.9
2290.767, 520104.6
2292.696, 520983.2
2294.624, 521610.1
2296.553, 521907.9
2298.481, 522059.2
2300.410, 521986.6
2302.338, 522019.9
2304.267, 522471.3
2306.195, 522831.8
2308.124, 522697.6
2310.052, 522587.3
2311.980, 522895.5
2313.909, 523442.1
2315.837, 524120.5
2317.766, 524791.1
2319.694, 525093.8
2321.623, 525113.1
2323.551, 525317.0
2325.480, 525679.3
2327.408, 526315.0
2329.337, 527267.9
2331.265, 527541.1
2333.194, 526911.9
2335.122, 526680.0
2337.051, 527285.6
2338.979, 527690.1
2340.907, 527556.1
2342.836, 527502.2
2344.764, 527799.4
2346.693, 528149.9
2348.621, 528243.5
2350.550, 528507.7
2352.478, 529222.8
2354.407, 530009.0
2356.335, 530537.4
2358.264, 530825.9
2360.192, 531036.4
2362.121, 531065.8
2364.049, 530644.9
2365.978, 529984.0
2367.906, 529653.3
2369.834, 529712.5
2371.763, 529773.4
2373.691, 529784.1
2375.620, 530052.0
2377.548, 530510.1
2379.477, 531071.4
2381.405, 531735.3
2383.334, 532052.3
2385.262, 531761.5
2387.191, 531619.8
2389.119, 532040.0
2391.048, 532476.6
2392.976, 532865.0
2394.905, 533227.8
2396.833, 533485.3
2398.761, 533806.1
2400.690, 534269.9
2402.618, 534747.8
2404.547, 535094.6
2406.475, 535386.4
2408.404, 535762.9
2410.332, 536126.1
2412.261, 536389.8
2414.189, 536537.8
2416.118, 536364.9
2418.046, 536008.8
2419.975, 536152.4
2421.903, 536766.9
2423.832, 537208.8
2425.760, 537459.5
2427.688, 537932.3
2429.617, 538675.8
2431.545, 539086.3
2433.474, 538934.1
2435.402, 538931.7
2437.331, 539370.2
2439.259, 539632.4
2441.188, 539607.3
2443.116, 539633.6
2445.045, 539732.3
2446.973, 540039.9
2448.902, 540716.9
2450.830, 541358.5
2452.759, 541555.4
2454.687, 541851.2
2456.615, 542686.6
2458.544, 543540.4
2460.472, 544157.2
2462.401, 544548.4
2464.329, 544593.3
2466.258, 544612.9
2468.186, 544982.4
2470.115, 545559.8
2472.043, 546123.8
2473.972, 546649.4
2475.900, 547066.3
2477.829, 547385.4
2479.757, 547898.4
2481.686, 548506.3
2483.614, 548533.8
2485.542, 548084.1
2487.471, 547873.8
2489.399, 547963.8
2491.328, 548000.6
2493.256, 547963.8
2495.185, 548304.6
2497.113, 549166.3
2499.042, 549902.6
2500.970, 550421.3
2502.899, 550759.2
2504.827, 550779.9
2506.756, 550883.9
2508.684, 551184.1
2510.613, 551422.9
2512.541, 551635.9
2514.469, 551713.9
2516.398, 551564.4
2518.326, 551502.4
2520.255, 551636.5
2522.183, 551872.1
2524.112, 552124.3
2526.040, 552474.2
2527.969, 553016.0
2529.897, 553517.8
2531.826, 553865.7
2533.754, 554142.1
2535.683, 554291.9
2537.611, 554567.4
2539.540, 555308.3
2541.468, 556122.0
2543.396, 556503.0
2545.325, 556815.8
2547.253, 557526.9
2549.182, 558234.1
2551.110, 558391.8
2553.039, 558300.7
2554.967, 558492.6
2556.896, 558814.2
2558.824, 559017.9
2560.753, 559141.9
2562.681, 559005.5
2564.610, 558883.1
2566.538, 559560.3
2568.467, 560744.4
2570.395, 561406.9
2572.323, 561594.4
2574.252, 561894.1
2576.180, 562246.5
2578.109, 562432.3
2580.037, 562489.3
2581.966, 562690.8
2583.894, 563081.1
2585.823, 563221.7
2587.751, 563105.6
2589.680, 563689.8
2591.608, 565170.6
2593.537, 566075.4
2595.465, 566242.9
2597.394, 566532.3
2599.322, 566911.9
2601.250, 567580.1
2603.179, 568618.1
2605.107, 569317.6
2607.036, 569529.1
2608.964, 569660.9
2610.893, 569742.4
2612.821, 569891.5
2614.750, 570172.7
2616.678, 570439.1
2618.607, 570666.6
2620.535, 570833.1
2622.464, 570855.4
2624.392, 570906.3
2626.321, 571017.7
2628.249, 571121.1
2630.177, 571323.3
2632.106, 571247.6
2634.034, 570649.2
2635.963, 570499.3
2637.891, 571355.8
2639.820, 572077.9
2641.748, 572152.1
2643.677, 572469.8
2645.605, 573398.9
2647.534, 574092.4
2649.462, 574125.8
2651.391, 574423.2
2653.319, 575503.9
2655.248, 576323.8
2657.176, 576373.9
2659.104, 576343.9
2661.033, 576551.7
2662.961, 576547.0
2664.890, 576164.5
2666.818, 575850.1
2668.747, 575853.6
2670.675, 575917.7
2672.604, 575799.7
2674.532, 575983.3
2676.461, 576792.8
2678.389, 577582.3
2680.318, 578059.9
2682.246, 578490.0
2684.175, 578917.7
2686.103, 579310.9
2688.031, 579898.7
2689.960, 580121.1
2691.888, 579497.8
2693.817, 579069.0
2695.745, 579305.1
2697.674, 579695.6
2699.602, 580107.3
2701.531, 580540.4
2703.459, 580889.6
2705.388, 581341.8
2707.316, 581972.4
2709.245, 582605.6
2711.173, 583187.9
2713.102, 583655.4
2715.030, 583910.6
2716.958, 584138.1
2718.887, 584433.7
2720.815, 584675.8
2722.744, 584796.5
2724.672, 584978.4
2726.601, 585285.9
2728.529, 585770.3
2730.458, 586628.8
2732.386, 587321.6
2734.315, 587499.2
2736.243, 587658.7
2738.172, 587849.7
2740.100, 588088.2
2742.029, 588436.9
2743.957, 588695.8
2745.885, 588780.6
2747.814, 589007.1
2749.742, 589688.0
2751.671, 590281.6
2753.599, 590560.6
2755.528, 591070.3
2757.456, 591951.7
2759.385, 592700.4
2761.313, 592959.0
2763.242, 593384.9
2765.170, 594171.8
2767.099, 594879.6
2769.027, 595583.8
2770.956, 595771.2
2772.884, 595296.6
2774.813, 594862.5
2776.741, 594677.1
2778.669, 594616.4
2780.598, 594925.4
2782.526, 594819.2
2784.455, 594131.6
2786.383, 594071.3
2788.312, 594815.8
2790.240, 595389.5
2792.169, 595531.1
2794.097, 595722.1
2796.026, 595931.2
2797.954, 596127.5
2799.883, 596324.5
2801.811, 596319.7
2803.740, 596138.1
2805.668, 596107.4
2807.596, 596269.2
2809.525, 596593.8
2811.453, 597051.8
2813.382, 597014.9
2815.310, 596613.6
2817.239, 596915.7
2819.167, 597740.6
2821.096, 597927.9
2823.024, 597672.8
2824.953, 597832.9
2826.881, 598302.7
2828.810, 598922.3
2830.738, 599518.4
2832.667, 599733.9
2834.595, 599669.3
2836.523, 599449.9
2838.452, 599242.3
2840.380, 599371.4
2842.309, 599688.8
2844.237, 600065.4
2846.166, 600408.8
2848.094, 600470.1
2850.023, 600536.0
2851.951, 600959.8
2853.880, 601395.8
2855.808, 601616.8
2857.737, 601716.9
2859.665, 601677.6
2861.594, 601742.8
2863.522, 602104.3
2865.450, 602593.8
2867.379, 603221.7
2869.307, 603757.4
2871.236, 603883.6
2873.164, 604181.4
2875.093, 605015.8
2877.021, 605646.3
2878.950, 605845.4
2880.878, 606144.1
2882.807, 606784.4
2884.735, 607207.3
2886.664, 607127.4
2888.592, 607228.8
2890.521, 607556.7
2892.449, 607915.0
2894.377, 608277.6
2896.306, 608568.4
2898.234, 608739.8
2900.163, 609209.3
2902.091, 610004.2
2904.020, 610451.3
2905.948, 610640.0
2907.877, 611015.3
2909.805, 611533.5
2911.734, 611911.9
2913.662, 612156.6
2915.591, 612139.9
2917.519, 612095.4
2919.448, 612668.1
2921.376, 613384.3
2923.304, 613647.3
2925.233, 613649.1
2927.161, 613602.0
2929.090, 613483.4
2931.018, 613172.5
2932.947, 612970.1
2934.875, 613246.4
2936.804, 613463.2
2938.732, 613180.1
2940.661, 612970.5
2942.589, 613050.8
2944.518, 613157.8
2946.446, 613242.3
2948.375, 613331.4
2950.303, 613339.2
2952.231, 613677.9
2954.160, 614464.5
2956.088, 615021.5
2958.017, 615184.5
2959.945, 615409.4
2961.874, 615708.3
2963.802, 615868.8
2965.731, 615911.1
2967.659, 615853.6
2969.588, 615753.8
2971.516, 615680.7
2973.445, 615673.1
2975.373, 615674.9
2977.302, 615802.9
2979.230, 616323.2
2981.158, 616995.8
2983.087, 617847.1
2985.015, 618365.9
2986.944, 617826.6
2988.872, 617170.7
2990.801, 616862.9
2992.729, 616973.5
2994.658, 617886.7
2996.586, 618634.5
2998.515, 618695.8
3000.443, 618805.8
3002.372, 619177.5
3004.300, 619114.8
3006.229, 618268.3
3008.157, 617721.3
3010.085, 617612.9
3012.014, 617449.8
3013.942, 617255.5
3015.871, 617336.5
3017.799, 617677.3
3019.728, 618171.9
3021.656, 618779.3
3023.585, 619484.6
3025.513, 620119.1
3027.442, 620205.4
3029.370, 620231.9
3031.299, 620863.9
3033.227, 621618.9
3035.156, 622250.4
3037.084, 622554.9
3039.012, 622058.9
3040.941, 621809.0
3042.869, 622679.8
3044.798, 623155.2
3046.726, 622877.1
3048.655, 622608.4
3050.583, 622453.8
3052.512, 622477.4
3054.440, 622709.5
3056.369, 622952.3
3058.297, 623221.5
3060.226, 623709.8
3062.154, 624291.1
3064.083, 624199.1
3066.011, 623799.9
3067.939, 624072.8
3069.868, 624508.3
3071.796, 624502.1
3073.725, 624310.6
3075.653, 624263.6
3077.582, 624105.7
3079.510, 623587.8
3081.439, 623372.7
3083.367, 623875.3
3085.296, 624591.1
3087.224, 625541.3
3089.153, 626151.7
3091.081, 626263.1
3093.010, 626588.3
3094.938, 627198.5
3096.866, 627248.4
3098.795, 626836.9
3100.723, 626933.1
3102.652, 627341.0
3104.580, 627620.2
3106.509, 627761.7
3108.437, 627610.6
3110.366, 627455.9
3112.294, 627686.6
3114.223, 627808.4
3116.151, 627476.8
3118.080, 627143.9
3120.008, 626967.6
3121.937, 626980.5
3123.865, 627231.0
3125.793, 627585.1
3127.722, 628044.8
3129.650, 628201.0
3131.579, 628058.5
3133.507, 628251.6
3135.436, 628674.3
3137.364, 628990.3
3139.293, 629271.5
3141.221, 629797.9
3143.150, 630220.9
3145.078, 629915.5
3147.007, 629762.3
3148.935, 630627.8
3150.864, 631152.3
3152.792, 630704.8
3154.720, 630347.3
3156.649, 630398.1
3158.577, 630458.8
3160.506, 630572.4
3162.434, 630591.3
3164.363, 630542.9
3166.291, 630289.4
3168.220, 629957.4
3170.148, 629744.2
3172.077, 629827.1
3174.005, 630802.5
3175.934, 631763.5
3177.862, 631920.9
3179.791, 631916.5
3181.719, 632002.1
3183.647, 632271.1
3185.576, 632741.4
3187.504, 633308.9
3189.433, 633785.0
3191.361, 634490.2
3193.290, 635268.5
3195.218, 635451.6
3197.147, 635111.6
3199.075, 634555.5
3201.004, 633905.1
3202.932, 633384.8
3204.861, 633004.5
3206.789, 632729.1
3208.718, 632696.6
3210.646, 632869.3
3212.574, 633227.8
3214.503, 633633.8
3216.431, 634083.8
3218.360, 634512.8
3220.288, 634832.4
3222.217, 635015.4
3224.145, 634638.8
3226.074, 634063.4
3228.002, 634356.8
3229.931, 634851.4
3231.859, 634451.4
3233.788, 633999.0
3235.716, 633972.1
3237.645, 634188.9
3239.573, 634568.6
3241.501, 635117.8
3243.430, 635884.4
3245.358, 636388.5
3247.287, 636578.6
3249.215, 636527.4
3251.144, 636325.4
3253.072, 636340.6
3255.001, 636503.8
3256.929, 636853.3
3258.858, 637126.9
3260.786, 636996.0
3262.715, 636942.8
3264.643, 637366.4
3266.572, 637462.9
3268.500, 636941.1
3270.428, 637127.4
3272.357, 638202.3
3274.285, 638279.5
3276.214, 637668.1
3278.142, 638155.5
3280.071, 639045.8
3281.999, 639156.9
3283.928, 639160.4
3285.856, 639935.9
3287.785, 640335.6
3289.713, 639762.4
3291.642, 639454.0
3293.570, 640025.9
3295.499, 639938.3
3297.427, 639221.3
3299.355, 638924.6
3301.284, 638990.9
3303.212, 639530.1
3305.141, 640047.6
3307.069, 639914.8
3308.998, 639506.8
3310.926, 638939.2
3312.855, 638613.5
3314.783, 638824.1
3316.712, 638696.4
3318.640, 637964.0
3320.569, 637956.8
3322.497, 638585.8
3324.426, 639298.9
3326.354, 639808.6
3328.282, 639409.0
3330.211, 638839.5
3332.139, 638919.5
3334.068, 638958.4
3335.996, 638698.1
3337.925, 638492.9
3339.853, 638489.2
3341.782, 638296.1
3343.710, 637964.4
3345.639, 638116.8
3347.567, 638624.4
3349.496, 639479.4
3351.424, 640058.9
3353.353, 639588.9
3355.281, 638870.1
3357.209, 638279.2
3359.138, 637767.9
3361.066, 637426.4
3362.995, 636993.2
3364.923, 636520.8
3366.852, 636488.6
3368.780, 636754.3
3370.709, 636923.5
3372.637, 637006.5
3374.566, 636856.9
3376.494, 636789.9
3378.423, 636771.8
3380.351, 637272.4
3382.280, 638810.2
3384.208, 639358.4
3386.136, 638993.3
3388.065, 638928.3
3389.993, 639064.3
3391.922, 639087.8
3393.851, 639183.8
3395.779, 639796.0
3397.708, 640104.1
3399.636, 639615.9
3401.564, 639094.5
3403.493, 638634.1
3405.421, 638487.3
3407.350, 638645.8
3409.278, 639117.6
3411.207, 639652.9
3413.135, 639735.3
3415.064, 639815.8
3416.992, 640405.4
3418.921, 640806.7
3420.849, 640755.5
3422.778, 640899.6
3424.706, 641343.9
3426.635, 641474.4
3428.563, 641363.3
3430.491, 641157.6
3432.420, 641036.6
3434.348, 641272.9
3436.277, 641669.7
3438.205, 642478.1
3440.134, 642599.0
3442.062, 641706.3
3443.991, 640988.6
3445.919, 640558.3
3447.848, 640953.7
3449.776, 641580.1
3451.705, 641289.3
3453.633, 640856.4
3455.562, 640915.2
3457.490, 640753.1
3459.418, 640171.8
3461.347, 639838.6
3463.275, 639838.8
3465.204, 639974.7
3467.132, 639993.2
3469.061, 638876.2
3470.989, 637787.4
3472.918, 637606.5
3474.846, 637925.7
3476.775, 638640.7
3478.703, 639248.1
3480.632, 639595.1
3482.560, 639577.7
3484.489, 639390.3
3486.417, 639942.9
3488.345, 640473.4
3490.274, 640044.8
3492.202, 639885.6
3494.131, 640531.4
3496.059, 640958.3
3497.988, 640873.9
3499.916, 640961.3
3501.845, 641139.8
3503.773, 641459.9
3505.702, 641708.1
3507.630, 641885.0
3509.559, 641627.1
3511.487, 640558.3
3513.416, 640013.5
3515.344, 640135.1
3517.272, 640200.6
3519.201, 640235.3
3521.129, 640346.0
3523.058, 640546.2
3524.986, 641019.3
3526.915, 641180.7
3528.843, 640366.9
3530.772, 640231.3
3532.700, 640770.1
3534.629, 640972.4
3536.557, 640936.4
3538.486, 641107.2
3540.414, 641087.9
3542.343, 640418.9
3544.271, 639968.3
3546.199, 640076.6
3548.128, 640034.9
3550.056, 639821.2
3551.985, 639761.3
3553.913, 639799.1
3555.842, 640001.5
3557.770, 640047.0
3559.699, 639597.4
3561.627, 639316.1
3563.556, 639310.6
3565.484, 639416.8
3567.413, 639600.5
3569.341, 639993.6
3571.270, 640347.1
3573.198, 640482.9
3575.126, 640373.1
3577.055, 639997.1
3578.983, 639789.3
3580.912, 639880.5
3582.840, 639767.6
3584.769, 639675.6
3586.697, 640241.2
3588.626, 640860.1
3590.554, 640828.7
3592.483, 641059.9
3594.411, 641729.8
3596.340, 642227.8
3598.268, 642492.3
3600.197, 642665.6
3602.125, 642575.3
3604.053, 641901.8
3605.982, 641243.8
3607.910, 640855.0
3609.839, 640826.3
3611.767, 641222.8
3613.696, 641181.6
3615.624, 640947.2
3617.553, 641100.4
3619.481, 641246.6
3621.410, 641106.1
3623.338, 640888.9
3625.267, 640629.2
3627.195, 640523.5
3629.124, 640616.0
3631.052, 641124.1
3632.980, 641820.4
3634.909, 642729.6
3636.837, 643170.5
3638.766, 642938.7
3640.694, 642327.5
3642.623, 641492.3
3644.551, 641121.9
3646.480, 641113.0
3648.408, 641408.9
3650.337, 641730.8
3652.265, 641927.9
3654.194, 642060.0
3656.122, 642110.5
3658.051, 642003.1
3659.979, 641805.6
3661.907, 641626.4
3663.836, 641486.4
3665.764, 641364.7
3667.693, 641522.8
3669.621, 642101.8
3671.550, 641996.5
3673.478, 641572.9
3675.407, 641719.5
3677.335, 642018.3
3679.264, 642297.8
3681.192, 642087.9
3683.121, 641174.3
3685.049, 641013.5
3686.978, 641374.9
3688.906, 641515.3
3690.834, 641444.5
3692.763, 640929.5
3694.691, 640781.4
3696.620, 641186.8
3698.548, 641525.2
3700.477, 641840.9
3702.405, 642704.3
3704.334, 643438.6
3706.262, 643262.1
3708.191, 643048.4
3710.119, 642941.6
3712.048, 642728.8
3713.976, 642402.6
3715.905, 641937.5
3717.833, 641511.4
3719.761, 641388.7
3721.690, 641361.1
3723.618, 641434.5
3725.547, 641096.1
3727.475, 640575.4
3729.404, 640983.2
3731.332, 641398.8
3733.261, 640924.2
3735.189, 640617.9
3737.118, 640696.9
3739.046, 640408.5
3740.975, 639981.6
3742.903, 640304.3
3744.832, 640496.3
3746.760, 639674.0
3748.688, 639093.3
3750.617, 638915.5
3752.545, 638376.8
3754.474, 637828.7
3756.402, 638277.4
3758.331, 638933.5
3760.259, 639294.6
3762.188, 639833.3
3764.116, 640497.2
3766.045, 640771.3
3767.973, 640878.3
3769.902, 641614.8
3771.830, 641842.0
3773.759, 640655.7
3775.687, 640084.9
3777.615, 640193.8
3779.544, 640314.7
3781.472, 640354.4
3783.401, 640142.7
3785.329, 639779.8
3787.258, 639142.9
3789.186, 638495.9
3791.115, 637979.4
3793.043, 638354.0
3794.972, 638792.9
3796.900, 638484.4
3798.829, 638584.2
3800.757, 639606.6
3802.686, 639350.0
3804.614, 638569.6
3806.542, 638918.4
3808.471, 639345.6
3810.399, 639253.9
3812.328, 638870.7
3814.256, 638244.8
3816.185, 638591.7
3818.113, 639059.4
3820.042, 638451.1
3821.970, 637952.5
3823.899, 637982.3
3825.827, 638013.8
3827.756, 638029.6
3829.684, 638247.7
3831.613, 638360.6
3833.541, 637869.0
3835.469, 637725.4
3837.398, 638037.3
3839.326, 638091.0
3841.255, 637889.6
3843.183, 637246.4
3845.112, 636807.4
3847.040, 637039.9
3848.969, 637034.3
3850.897, 636759.8
3852.826, 636234.3
3854.754, 635821.7
3856.683, 635824.7
3858.611, 636119.1
3860.540, 636720.5
3862.468, 636658.2
3864.396, 636329.1
3866.325, 636588.1
3868.253, 636712.1
3870.182, 636239.4
3872.110, 636255.9
3874.039, 636737.5
3875.967, 637417.9
3877.896, 637845.9
3879.824, 637346.8
3881.753, 637182.9
3883.681, 637629.7
3885.610, 637656.9
3887.538, 637573.0
3889.467, 637964.6
3891.395, 638234.1
3893.323, 638160.3
3895.252, 638179.2
3897.180, 638199.6
3899.109, 637431.9
3901.037, 636830.2
3902.966, 637183.0
3904.894, 637751.1
3906.823, 638390.9
3908.751, 638473.4
3910.680, 638338.9
3912.608, 638353.0
3914.537, 638382.3
3916.465, 638289.5
3918.394, 638775.8
3920.322, 639394.4
3922.250, 639127.4
3924.179, 638846.0
3926.107, 639014.9
3928.036, 638717.9
3929.964, 638044.4
3931.893, 637574.8
3933.821, 637275.6
3935.750, 637261.1
3937.678, 637046.0
3939.607, 636640.1
3941.535, 637083.1
3943.464, 637571.6
3945.392, 637064.2
3947.321, 636471.6
3949.249, 635940.2
3951.177, 636135.6
3953.106, 636589.4
3955.034, 636543.9
3956.963, 636398.8
3958.891, 636360.1
3960.820, 636236.1
3962.748, 635987.5
3964.677, 635153.7
3966.605, 634873.3
3968.534, 635931.1
3970.462, 635922.8
3972.391, 634935.8
3974.319, 634300.7
3976.248, 633908.0
3978.176, 633812.8
3980.104, 633613.6
3982.033, 633345.4
3983.961, 633868.6
3985.890, 634512.9
3987.818, 634650.6
3989.747, 634441.1
3991.675, 633969.0
3993.604, 634458.6
3995.532, 635204.3
3997.461, 635219.3
3999.389, 635378.1
4001.318, 636022.7
4003.246, 635864.9
4005.175, 635133.4
4007.103, 633784.0
4009.031, 633018.3
4010.960, 633292.3
4012.888, 633629.3
4014.817, 633960.8
4016.745, 634296.3
4018.674, 634379.6
4020.602, 634079.0
4022.531, 633994.7
4024.459, 634074.7
4026.388, 634148.2
4028.316, 634172.6
4030.245, 634102.4
4032.173, 634003.7
4034.102, 633819.5
4036.030, 633378.1
4037.958, 632982.3
4039.887, 632871.8
4041.815, 632409.3
4043.744, 631880.6
4045.672, 632220.4
4047.601, 632944.3
4049.529, 633971.6
4051.458, 633477.6
4053.386, 631945.2
4055.315, 631786.1
4057.243, 632074.0
4059.172, 632612.3
4061.100, 632829.3
4063.029, 632829.1
4064.957, 632826.2
4066.885, 632879.3
4068.814, 632862.1
4070.742, 633193.6
4072.671, 633634.3
4074.599, 633661.8
4076.528, 633132.4
4078.456, 631883.2
4080.385, 631618.1
4082.313, 632136.6
4084.242, 632320.6
4086.170, 632207.4
4088.099, 631544.7
4090.027, 631622.6
4091.956, 632007.0
4093.884, 631024.0
4095.813, 630191.6
4097.741, 630544.8
4099.669, 630226.5
4101.598, 629529.5
4103.526, 629171.1
4105.455, 629128.0
4107.383, 629355.3
4109.312, 629950.4
4111.240, 630610.6
4113.169, 630828.8
4115.097, 630564.4
4117.026, 629754.2
4118.954, 629460.3
4120.883, 629673.5
4122.811, 630851.9
4124.740, 631172.3
4126.668, 629780.6
4128.597, 629637.6
4130.525, 630098.9
4132.454, 630509.9
4134.382, 630503.9
4136.311, 630004.8
4138.239, 629999.9
4140.167, 630006.6
4142.096, 629347.9
4144.024, 628954.6
4145.953, 628934.6
4147.881, 629266.3
4149.810, 629443.8
4151.738, 628981.8
4153.667, 628957.1
4155.595, 629230.6
4157.523, 628269.5
4159.452, 627357.3
4161.380, 627266.4
4163.309, 626994.1
4165.237, 626629.7
4167.166, 626727.9
4169.094, 626811.8
4171.023, 626622.8
4172.951, 626568.3
4174.880, 626532.6
4176.808, 626257.1
4178.737, 626134.1
4180.665, 626366.6
4182.594, 625590.6
4184.522, 624653.1
4186.451, 624597.9
4188.379, 624588.6
4190.308, 624494.9
4192.236, 624451.3
4194.165, 624449.9
4196.093, 624613.1
4198.021, 624367.1
4199.950, 623778.4
4201.878, 623080.6
4203.807, 622620.3
4205.735, 622635.6
4207.664, 621797.8
4209.592, 620833.7
4211.521, 621205.1
4213.449, 621744.9
4215.377, 622085.9
4217.306, 622559.5
4219.234, 622841.2
4221.163, 622794.0
4223.091, 621989.4
4225.020, 620702.6
4226.948, 620266.3
4228.877, 620214.1
4230.805, 620208.5
4232.734, 620559.3
4234.662, 621171.6
4236.591, 622139.6
4238.519, 622486.2
4240.448, 621791.7
4242.376, 621026.0
##END=



