##NAMES=Elbaite
##RRUFFID=R100137
##IDEAL CHEMISTRY=Na(Al_1.5_Li_1.5_)Al_6_(Si_6_O_18_)(BO_3_)_3_(OH)_3_(OH)
##LOCALITY=Nigeria
##OWNER=RRUFF
##SOURCE=William W. Pinch
##DESCRIPTION=Red cut gemstone
##STATUS=The identification of this mineral has been confirmed only by single crystal X-ray diffraction
##URL=https://www.rruff.net/odr/rruff_sample/R100137
##DIFFRACTION SAMPLE DESCRIPTION=Single crystal, powder profile is calculated
##CELL PARAMETERS=a: 15.863 b: 15.863 c: 7.099 alpha: 90 beta: 90 gamma: 120 volume: 1546.9 crystal system: hexagonal
##FILETYPE=Raman RAW
##RAMAN WAVELENGTH=780

114.7605, 87.54018
116.6890, 88.88283
118.6174, 89.20495
120.5459, 89.68091
122.4744, 90.67506
124.4028, 91.74250
126.3313, 92.61582
128.2598, 93.40578
130.1882, 94.55746
132.1167, 96.19381
134.0452, 97.05344
135.9736, 96.63425
137.9021, 95.62263
139.8306, 93.80571
141.7590, 91.72044
143.6875, 90.33492
145.6160, 89.68035
147.5444, 89.14675
149.4729, 88.99437
151.4014, 88.49300
153.3298, 87.01351
155.2583, 85.26567
157.1868, 84.18619
159.1152, 83.76028
161.0437, 83.41528
162.9722, 82.86602
164.9006, 82.69286
166.8291, 83.04185
168.7576, 83.82762
170.6860, 85.21951
172.6145, 87.07409
174.5430, 88.28907
176.4714, 88.35085
178.3999, 88.34057
180.3284, 88.26870
182.2568, 88.21787
184.1853, 88.00076
186.1138, 87.84389
188.0422, 88.52016
189.9707, 90.48381
191.8992, 92.51235
193.8276, 94.20365
195.7561, 96.36266
197.6846, 99.42064
199.6130, 103.1785
201.5415, 107.1767
203.4700, 110.9062
205.3984, 117.2365
207.3269, 126.0554
209.2554, 137.2664
211.1838, 151.1990
213.1123, 167.4140
215.0408, 187.4152
216.9692, 210.6322
218.8977, 227.8004
220.8262, 240.0815
222.7546, 244.0393
224.6831, 235.8067
226.6116, 223.0763
228.5400, 208.0440
230.4685, 192.6222
232.3970, 180.8869
234.3254, 173.2235
236.2539, 168.2735
238.1824, 166.8779
240.1108, 166.3336
242.0393, 166.1350
243.9678, 165.8071
245.8962, 165.2671
247.8247, 164.3343
249.7532, 161.5177
251.6816, 156.4712
253.6101, 151.8363
255.5386, 148.0061
257.4670, 145.0943
259.3955, 143.0896
261.3240, 142.0158
263.2524, 142.3784
265.1809, 144.0360
267.1094, 144.8504
269.0378, 144.6364
270.9663, 143.7005
272.8948, 142.3821
274.8232, 140.1722
276.7517, 136.2037
278.6802, 131.1844
280.6086, 126.9497
282.5371, 123.4905
284.4656, 119.8723
286.3940, 115.8333
288.3225, 111.7988
290.2510, 107.5809
292.1794, 103.6786
294.1079, 100.3326
296.0364, 97.72095
297.9648, 96.32818
299.8933, 96.29189
301.8218, 96.59444
303.7502, 97.01403
305.6787, 97.82199
307.6072, 99.32912
309.5356, 101.0863
311.4641, 102.5869
313.3926, 103.9568
315.3210, 105.5471
317.2495, 107.3561
319.1780, 109.4448
321.1064, 111.9679
323.0349, 114.5346
324.9634, 116.9546
326.8918, 119.4128
328.8203, 122.3492
330.7488, 125.4996
332.6772, 127.7503
334.6057, 128.6532
336.5342, 129.6802
338.4626, 130.9030
340.3911, 132.2584
342.3196, 133.6439
344.2480, 135.2301
346.1765, 136.9223
348.1050, 138.8716
350.0334, 141.8110
351.9619, 145.7197
353.8904, 150.7521
355.8188, 155.6297
357.7473, 163.5330
359.6758, 175.3134
361.6042, 190.9270
363.5327, 211.1519
365.4612, 234.7231
367.3896, 259.0977
369.3181, 286.6655
371.2466, 303.7054
373.1750, 310.1342
375.1035, 306.6421
377.0320, 289.3275
378.9604, 266.8232
380.8889, 241.6680
382.8174, 216.5777
384.7458, 196.3245
386.6743, 181.1150
388.6028, 169.4763
390.5313, 161.6718
392.4597, 156.0019
394.3882, 152.5370
396.3167, 150.4882
398.2451, 150.2064
400.1736, 150.4189
402.1021, 150.1718
404.0305, 149.3040
405.9590, 146.9585
407.8875, 143.1853
409.8159, 138.3024
411.7444, 132.1614
413.6729, 125.3736
415.6013, 117.6559
417.5298, 109.9033
419.4583, 101.9301
421.3867, 94.60191
423.3152, 89.78628
425.2437, 87.20357
427.1721, 85.10863
429.1006, 83.38677
431.0291, 82.33491
432.9575, 82.17269
434.8860, 82.53178
436.8145, 83.54866
438.7429, 84.80600
440.6714, 86.27921
442.5999, 87.60973
444.5283, 87.94328
446.4568, 87.35770
448.3853, 86.77221
450.3137, 86.39635
452.2422, 85.68122
454.1707, 84.49135
456.0991, 83.01635
458.0276, 80.95230
459.9561, 78.94825
461.8845, 77.76685
463.8130, 77.08069
465.7415, 76.18203
467.6699, 75.05143
469.5984, 74.36709
471.5269, 74.37708
473.4553, 74.49507
475.3838, 74.77282
477.3123, 74.99863
479.2407, 74.75697
481.1692, 74.72935
483.0977, 75.64790
485.0261, 77.15585
486.9546, 78.60576
488.8831, 79.97602
490.8115, 81.43370
492.7400, 82.77751
494.6685, 84.57800
496.5969, 87.04445
498.5254, 89.67793
500.4539, 92.42887
502.3823, 95.17679
504.3108, 97.95702
506.2393, 100.6094
508.1677, 102.8287
510.0962, 104.6338
512.0247, 106.5087
513.9531, 108.9681
515.8816, 109.8004
517.8101, 108.5735
519.7385, 106.6490
521.6670, 103.9904
523.5955, 101.3406
525.5239, 98.68816
527.4524, 96.62543
529.3809, 95.91910
531.3093, 96.25994
533.2378, 96.83424
535.1663, 97.67580
537.0947, 98.17471
539.0232, 98.44365
540.9517, 97.74012
542.8801, 95.62179
544.8086, 93.23589
546.7371, 91.03452
548.6655, 88.70287
550.5940, 85.71559
552.5225, 82.77038
554.4509, 80.92928
556.3794, 79.88366
558.3079, 78.38273
560.2363, 76.47369
562.1648, 74.98436
564.0933, 74.08321
566.0217, 72.87457
567.9502, 70.76819
569.8787, 69.11564
571.8071, 68.35001
573.7356, 68.09023
575.6641, 68.43368
577.5925, 68.92481
579.5210, 69.06821
581.4495, 68.90975
583.3779, 68.44567
585.3064, 67.76087
587.2349, 67.62070
589.1633, 68.23296
591.0918, 68.35567
593.0203, 67.43953
594.9487, 66.65798
596.8772, 66.32993
598.8057, 66.05104
600.7341, 65.53075
602.6626, 65.10070
604.5911, 65.15740
606.5195, 65.43034
608.4480, 65.44664
610.3765, 65.32326
612.3049, 65.46054
614.2334, 65.87292
616.1619, 66.55338
618.0903, 67.42204
620.0188, 68.75730
621.9473, 70.59407
623.8757, 72.84014
625.8042, 75.68692
627.7327, 78.66736
629.6611, 81.89149
631.5896, 84.79182
633.5181, 87.11649
635.4465, 88.67088
637.3750, 89.14217
639.3035, 88.53665
641.2319, 86.75729
643.1604, 83.60155
645.0889, 80.49229
647.0173, 77.42358
648.9458, 74.38754
650.8743, 71.19352
652.8027, 68.44438
654.7312, 66.30689
656.6597, 64.61366
658.5881, 63.50550
660.5166, 62.54614
662.4451, 61.36969
664.3735, 60.21962
666.3020, 59.39716
668.2305, 58.84283
670.1589, 58.31344
672.0874, 57.83831
674.0159, 58.09542
675.9443, 59.19116
677.8728, 59.68922
679.8013, 59.35123
681.7297, 59.23758
683.6582, 59.32387
685.5867, 60.25233
687.5151, 62.02602
689.4436, 65.06281
691.3721, 69.53716
693.3005, 75.21773
695.2290, 81.99194
697.1575, 89.85921
699.0859, 99.55892
701.0144, 110.0603
702.9429, 119.7490
704.8713, 128.1790
706.7998, 133.8110
708.7283, 136.5726
710.6567, 135.2867
712.5852, 129.7105
714.5137, 121.6532
716.4421, 110.4665
718.3706, 99.71103
720.2991, 89.44176
722.2275, 80.94688
724.1560, 74.42113
726.0845, 69.87438
728.0129, 67.67052
729.9414, 67.05586
731.8699, 67.64336
733.7983, 69.35905
735.7268, 72.12263
737.6553, 75.97982
739.5837, 81.23515
741.5122, 87.50842
743.4407, 94.42799
745.3691, 101.6255
747.2976, 105.6911
749.2261, 106.3605
751.1545, 104.5882
753.0830, 99.81784
755.0115, 94.08785
756.9399, 86.61427
758.8684, 79.77911
760.7969, 73.72497
762.7253, 68.57114
764.6538, 64.51021
766.5823, 61.15430
768.5107, 58.40517
770.4392, 56.21859
772.3677, 54.87796
774.2961, 53.77740
776.2246, 52.75635
778.1531, 51.32073
780.0815, 48.35757
782.0100, 44.54722
783.9385, 41.68061
785.8669, 39.64433
787.7954, 37.65414
789.7239, 35.69957
791.6523, 34.08554
793.5808, 32.78227
795.5093, 32.14899
797.4377, 32.48046
799.3662, 32.05246
801.2947, 30.36884
803.2231, 29.23656
805.1516, 29.25726
807.0801, 29.12544
809.0085, 28.25032
810.9370, 27.56735
812.8655, 27.53509
814.7939, 27.68975
816.7224, 27.87401
818.6509, 28.08105
820.5793, 28.34302
822.5078, 28.58557
824.4363, 28.71472
826.3647, 28.80526
828.2932, 28.93808
830.2217, 29.11131
832.1501, 29.34505
834.0786, 29.61040
836.0071, 29.84287
837.9355, 30.03349
839.8640, 30.13082
841.7925, 30.14843
843.7209, 30.09326
845.6494, 29.99436
847.5779, 30.38414
849.5063, 31.32869
851.4348, 31.97006
853.3633, 32.16520
855.2917, 32.34574
857.2202, 32.53028
859.1487, 32.84324
861.0771, 33.48318
863.0056, 33.89323
864.9341, 33.65639
866.8625, 33.72443
868.7910, 34.77834
870.7195, 35.43483
872.6479, 35.04758
874.5764, 34.42598
876.5049, 33.73878
878.4333, 33.19599
880.3618, 33.03758
882.2903, 32.92805
884.2188, 32.65772
886.1472, 32.28379
888.0757, 31.83611
890.0042, 31.33160
891.9326, 30.82147
893.8611, 30.23361
895.7896, 29.37760
897.7180, 28.44759
899.6465, 27.72179
901.5750, 27.20740
903.5034, 27.05065
905.4319, 27.09425
907.3604, 26.67402
909.2888, 26.59950
911.2173, 26.49497
913.1458, 26.27251
915.0742, 26.49640
917.0027, 26.50016
918.9312, 26.90274
920.8596, 27.26663
922.7881, 27.69855
924.7166, 28.42804
926.6450, 28.96219
928.5735, 29.96270
930.5020, 30.96427
932.4304, 31.99809
934.3589, 32.63614
936.2874, 32.75317
938.2158, 33.04723
940.1443, 33.58281
942.0728, 34.51110
944.0012, 35.02628
945.9297, 35.60238
947.8582, 36.64886
949.7866, 36.80074
951.7151, 37.87453
953.6436, 38.90507
955.5720, 39.65429
957.5005, 40.32354
959.4290, 40.93258
961.3574, 41.52942
963.2859, 41.93221
965.2144, 42.70259
967.1428, 44.40257
969.0713, 45.85218
970.9998, 46.60229
972.9282, 47.22358
974.8567, 47.88502
976.7852, 48.48185
978.7136, 48.85760
980.6421, 49.33215
982.5706, 50.36705
984.4990, 51.05294
986.4275, 50.86105
988.3560, 50.34386
990.2844, 49.49146
992.2129, 48.81839
994.1414, 48.69307
996.0698, 48.72699
997.9983, 48.84497
999.9268, 48.82992
1001.855, 48.41364
1003.784, 47.98310
1005.712, 47.73383
1007.641, 47.63854
1009.569, 47.64190
1011.498, 47.84060
1013.426, 48.40081
1015.354, 49.06325
1017.283, 49.64340
1019.211, 50.25366
1021.140, 50.99351
1023.068, 51.77678
1024.997, 52.55967
1026.925, 53.33400
1028.854, 54.01739
1030.782, 54.78316
1032.711, 55.53872
1034.639, 56.71808
1036.568, 58.55424
1038.496, 61.06258
1040.425, 64.40127
1042.353, 68.22819
1044.281, 72.31131
1046.210, 76.78268
1048.138, 82.00459
1050.067, 87.30965
1051.995, 92.82468
1053.924, 97.50435
1055.852, 100.6962
1057.781, 102.7348
1059.709, 104.1879
1061.638, 104.1115
1063.566, 101.2589
1065.495, 97.56762
1067.423, 94.00806
1069.352, 90.29494
1071.280, 86.10200
1073.208, 81.91102
1075.137, 77.94921
1077.065, 74.10170
1078.994, 70.12388
1080.922, 66.50568
1082.851, 63.66238
1084.779, 60.97153
1086.708, 58.30209
1088.636, 55.49234
1090.565, 52.40701
1092.493, 49.27813
1094.422, 45.90221
1096.350, 42.96338
1098.279, 40.96489
1100.207, 38.98139
1102.135, 36.50724
1104.064, 34.39977
1105.992, 33.00484
1107.921, 31.77958
1109.849, 30.76023
1111.778, 29.63519
1113.706, 28.09953
1115.635, 26.91626
1117.563, 26.48397
1119.492, 25.83615
1121.420, 24.60092
1123.349, 23.75060
1125.277, 23.60134
1127.206, 23.25783
1129.134, 22.55645
1131.063, 21.98170
1132.991, 21.63909
1134.919, 21.12067
1136.848, 20.30714
1138.776, 19.74840
1140.705, 19.49965
1142.633, 19.24135
1144.562, 18.98402
1146.490, 18.60434
1148.419, 18.10197
1150.347, 17.54385
1152.276, 16.96037
1154.204, 16.89363
1156.133, 16.60691
1158.061, 16.47514
1159.990, 16.51108
1161.918, 16.33028
1163.846, 16.35179
1165.775, 16.18560
1167.703, 15.96531
1169.632, 16.00549
1171.560, 16.14263
1173.489, 16.10670
1175.417, 16.02596
1177.346, 16.12002
1179.274, 16.18394
1181.203, 15.99563
1183.131, 15.70785
1185.060, 15.29307
1186.988, 15.02908
1188.917, 15.22120
1190.845, 15.41640
1192.773, 15.38658
1194.702, 15.32911
1196.630, 15.29982
1198.559, 15.27867
1200.487, 15.29585
1202.416, 15.21378
1204.344, 14.93025
1206.273, 14.80379
1208.201, 14.91676
1210.130, 15.08259
1212.058, 15.27681
1213.987, 15.58094
1215.915, 15.62623
1217.844, 16.05776
1219.772, 15.73530
1221.700, 15.52960
1223.629, 15.46588
1225.557, 15.56901
1227.486, 15.79462
1229.414, 16.09735
1231.343, 16.34047
1233.271, 16.05919
1235.200, 15.64066
1237.128, 15.76791
1239.057, 16.04786
1240.985, 16.10937
1242.914, 15.98278
1244.842, 15.49225
1246.771, 15.11264
1248.699, 15.17805
1250.627, 15.42744
1252.556, 15.98821
1254.484, 16.24641
1256.413, 15.73690
1258.341, 15.44606
1260.270, 15.73086
1262.198, 15.89126
1264.127, 15.71797
1266.055, 15.83477
1267.984, 16.42397
1269.912, 16.52867
1271.841, 16.12197
1273.769, 15.85513
1275.698, 15.73864
1277.626, 16.02289
1279.554, 16.46691
1281.483, 16.10034
1283.411, 15.45467
1285.340, 15.59468
1287.268, 16.00873
1289.197, 16.19777
1291.125, 16.19547
1293.054, 15.76765
1294.982, 15.56654
1296.911, 16.19619
1298.839, 16.52685
1300.768, 15.99288
1302.696, 15.66916
1304.625, 15.85280
1306.553, 16.09300
1308.481, 16.33325
1310.410, 16.35626
1312.338, 16.15567
1314.267, 16.11428
1316.195, 16.21754
1318.124, 16.23143
1320.052, 16.17743
1321.981, 16.13012
1323.909, 16.07961
1325.838, 15.92575
1327.766, 15.85547
1329.695, 16.22368
1331.623, 16.56632
1333.552, 16.44514
1335.480, 16.34452
1337.408, 16.59246
1339.337, 16.72192
1341.265, 16.47265
1343.194, 16.40748
1345.122, 16.64488
1347.051, 16.77987
1348.979, 16.79211
1350.908, 16.62011
1352.836, 16.74044
1354.765, 16.42449
1356.693, 16.73158
1358.622, 16.61519
1360.550, 16.47315
1362.479, 17.02843
1364.407, 17.60320
1366.335, 17.56058
1368.264, 17.46468
1370.192, 17.59760
1372.121, 17.80131
1374.049, 18.11445
1375.978, 18.22285
1377.906, 17.98089
1379.835, 17.86930
1381.763, 17.89721
1383.692, 18.32096
1385.620, 18.36184
1387.549, 18.60939
1389.477, 18.85113
1391.406, 18.98694
1393.334, 19.26226
1395.262, 19.34151
1397.191, 19.46758
1399.119, 19.96317
1401.048, 20.20362
1402.976, 19.85846
1404.905, 19.58226
1406.833, 19.54173
1408.762, 19.44976
1410.690, 19.27113
1412.619, 18.97832
1414.547, 18.60311
1416.476, 18.36186
1418.404, 18.19258
1420.333, 17.98324
1422.261, 17.71743
1424.189, 17.24098
1426.118, 16.89564
1428.046, 17.13121
1429.975, 17.16046
1431.903, 16.53036
1433.832, 16.26985
1435.760, 16.57728
1437.689, 16.83007
1439.617, 16.97258
1441.546, 16.91503
1443.474, 16.72502
1445.403, 16.57385
1447.331, 16.49886
1449.260, 16.55357
1451.188, 16.70698
1453.116, 16.85230
1455.045, 17.22434
1456.973, 18.30951
1458.902, 18.87009
1460.830, 18.54176
1462.759, 18.06506
1464.687, 17.44748
1466.616, 16.85109
1468.544, 16.30700
1470.473, 16.03345
1472.401, 15.81098
1474.330, 15.25451
1476.258, 14.64748
1478.187, 14.17602
1480.115, 13.73645
1482.043, 13.18734
1483.972, 12.98272
1485.900, 13.33642
1487.829, 13.44576
1489.757, 13.29274
1491.686, 13.03382
1493.614, 12.76772
1495.543, 12.74791
1497.471, 12.94042
1499.400, 13.52206
1501.328, 13.93907
1503.257, 13.82809
1505.185, 13.73162
1507.114, 13.78755
1509.042, 13.97383
1510.970, 14.28479
1512.899, 14.31097
1514.827, 14.07403
1516.756, 13.52232
1518.684, 12.96275
1520.613, 12.96394
1522.541, 13.03081
1524.470, 12.76569
1526.398, 12.54242
1528.327, 12.46178
1530.255, 12.40732
1532.184, 12.36382
1534.112, 12.31787
1536.041, 12.25308
1537.969, 12.05477
1539.897, 11.86288
1541.826, 11.91337
1543.754, 12.02221
1545.683, 12.09557
1547.611, 12.11916
1549.540, 12.14157
1551.468, 11.89247
1553.397, 11.34931
1555.325, 11.15814
1557.254, 11.24246
1559.182, 11.26237
1561.111, 11.35284
1563.039, 11.89083
1564.968, 12.21656
1566.896, 11.77502
1568.824, 11.36408
1570.753, 11.06213
1572.681, 11.21660
1574.610, 10.75282
1576.538, 11.33609
1578.467, 10.38324
1580.395, 10.26256
1582.324, 10.49477
1584.252, 10.85934
1586.181, 11.06137
1588.109, 10.91120
1590.038, 10.88560
1591.966, 11.10142
1593.895, 10.97587
1595.823, 10.60928
1597.751, 10.45507
1599.680, 10.28591
1601.608, 10.15170
1603.537, 10.37933
1605.465, 10.06596
1607.394, 10.73140
1609.322, 10.85116
1611.251, 10.54306
1613.179, 9.960591
1615.108, 9.902195
1617.036, 10.09928
1618.965, 10.23568
1620.893, 10.26118
1622.822, 10.10001
1624.750, 9.933341
1626.678, 9.788888
1628.607, 9.720628
1630.535, 9.727083
1632.464, 9.799169
1634.392, 9.881973
1636.321, 9.913158
1638.249, 9.879701
1640.178, 9.718850
1642.106, 9.623633
1644.035, 9.658917
1645.963, 9.403647
1647.892, 9.534694
1649.820, 9.200155
1651.749, 9.631601
1653.677, 9.492129
1655.605, 9.390667
1657.534, 9.901822
1659.462, 10.06738
1661.391, 9.643857
1663.319, 9.537430
1665.248, 9.668855
1667.176, 9.533584
1669.105, 9.333296
1671.033, 9.308909
1672.962, 9.294686
1674.890, 9.112416
1676.819, 9.229641
1678.747, 9.755602
1680.676, 9.947271
1682.604, 9.897927
1684.532, 9.871011
1686.461, 9.786489
1688.389, 9.802391
1690.318, 9.768531
1692.246, 9.722684
1694.175, 9.774028
1696.103, 9.535145
1698.032, 9.570935
1699.960, 9.647943
1701.889, 9.265696
1703.817, 8.907389
1705.746, 8.735022
1707.674, 9.008361
1709.603, 9.791034
1711.531, 9.946681
1713.459, 9.676553
1715.388, 9.681820
1717.316, 9.684566
1719.245, 9.333966
1721.173, 9.077931
1723.102, 9.030634
1725.030, 8.981968
1726.959, 8.937927
1728.887, 9.102205
1730.816, 9.280256
1732.744, 9.202421
1734.673, 9.031884
1736.601, 8.778258
1738.530, 8.658266
1740.458, 8.689035
1742.386, 8.912377
1744.315, 9.148246
1746.243, 9.028430
1748.172, 8.870270
1750.100, 8.869708
1752.029, 8.915939
1753.957, 9.004465
1755.886, 8.911924
1757.814, 8.696339
1759.743, 8.442228
1761.671, 8.276057
1763.600, 8.322618
1765.528, 8.430346
1767.457, 8.629973
1769.385, 8.540861
1771.313, 8.253429
1773.242, 8.006723
1775.170, 7.886473
1777.099, 7.797197
1779.027, 7.773882
1780.956, 7.849627
1782.884, 7.857364
1784.813, 8.035717
1786.741, 8.085370
1788.670, 8.013792
1790.598, 8.119777
1792.527, 8.069909
1794.455, 8.057851
1796.384, 8.041783
1798.312, 7.766123
1800.240, 7.763857
1802.169, 7.875978
1804.097, 8.029257
1806.026, 8.077388
1807.954, 7.985666
1809.883, 7.815687
1811.811, 7.628420
1813.740, 7.534497
1815.668, 7.579176
1817.597, 7.929540
1819.525, 8.098111
1821.454, 8.009934
1823.382, 7.626709
1825.311, 7.269133
1827.239, 7.858362
1829.167, 8.415263
1831.096, 8.189644
1833.024, 7.934888
1834.953, 7.729474
1836.881, 7.705574
1838.810, 7.540704
1840.738, 7.578770
1842.667, 7.455276
1844.595, 7.495997
1846.524, 7.606202
1848.452, 7.747679
1850.381, 7.582355
1852.309, 7.359481
1854.238, 7.368814
1856.166, 7.414965
1858.094, 7.458130
1860.023, 7.428558
1861.951, 7.342574
1863.880, 7.273957
1865.808, 7.172049
1867.737, 7.093288
1869.665, 7.026237
1871.594, 6.949717
1873.522, 6.969482
1875.451, 6.969995
1877.379, 7.104712
1879.308, 7.206279
1881.236, 7.163429
1883.165, 7.358548
1885.093, 7.756269
1887.021, 7.970671
1888.950, 7.940942
1890.878, 7.472915
1892.807, 7.147966
1894.735, 7.103443
1896.664, 7.202441
1898.592, 7.388386
1900.521, 7.737851
1902.449, 7.767564
1904.378, 7.163668
1906.306, 6.900438
1908.235, 7.030890
1910.163, 7.090244
1912.092, 7.162739
1914.020, 7.208210
1915.948, 7.194562
1917.877, 7.280214
1919.805, 7.221964
1921.734, 7.298584
1923.662, 7.509168
1925.591, 7.573000
1927.519, 7.312358
1929.448, 7.030456
1931.376, 6.798697
1933.305, 6.913881
1935.233, 7.023115
1937.162, 6.794151
1939.090, 6.544527
1941.019, 6.322336
1942.947, 6.453301
1944.875, 6.706161
1946.804, 6.803188
1948.732, 6.841852
1950.661, 6.840668
1952.589, 6.859218
1954.518, 6.859422
1956.446, 6.729764
1958.375, 6.561832
1960.303, 6.344637
1962.232, 6.363627
1964.160, 6.567873
1966.089, 6.710735
1968.017, 6.717545
1969.946, 6.482154
1971.874, 6.375695
1973.802, 6.448771
1975.731, 6.561912
1977.659, 6.612792
1979.588, 6.464391
1981.516, 6.293172
1983.445, 6.142076
1985.373, 6.179172
1987.302, 6.304419
1989.230, 6.400601
1991.159, 6.429986
1993.087, 6.385631
1995.016, 6.049109
1996.944, 5.695202
1998.873, 6.021804
2000.801, 6.337190
2002.729, 6.404979
2004.658, 6.186990
2006.586, 5.834423
2008.515, 5.740738
2010.443, 5.713367
2012.372, 5.614625
2014.300, 5.732371
2016.229, 6.041917
2018.157, 6.543560
2020.086, 6.828242
2022.014, 6.460367
2023.943, 6.143942
2025.871, 5.968349
2027.800, 6.328723
2029.728, 6.618043
2031.656, 6.252009
2033.585, 6.079490
2035.513, 6.125958
2037.442, 6.087243
2039.370, 5.967128
2041.299, 5.711099
2043.227, 5.549759
2045.156, 5.499068
2047.084, 5.396636
2049.013, 5.344959
2050.941, 5.420043
2052.870, 5.386578
2054.798, 5.543694
2056.727, 5.519798
2058.655, 5.499773
2060.583, 5.594136
2062.512, 5.470628
2064.440, 5.605639
2066.369, 5.740492
2068.297, 5.735985
2070.226, 5.697478
2072.154, 5.680830
2074.083, 5.446092
2076.011, 5.407464
2077.940, 5.229631
2079.868, 5.217991
2081.797, 4.837324
2083.725, 5.185878
2085.654, 5.353487
2087.582, 5.258195
2089.510, 4.724078
2091.439, 4.743875
2093.367, 5.191374
2095.296, 5.536133
2097.224, 5.474313
2099.153, 5.428605
2101.081, 4.600923
2103.010, 4.922924
2104.938, 4.654174
2106.867, 4.517856
2108.795, 4.891382
2110.724, 4.804307
2112.652, 4.505358
2114.581, 4.429945
2116.509, 4.525563
2118.438, 4.819377
2120.366, 4.731745
2122.294, 4.526418
2124.223, 4.552660
2126.151, 4.559080
2128.080, 4.494964
2130.008, 4.552739
2131.937, 4.557875
2133.865, 4.302919
2135.794, 4.212385
2137.722, 4.300136
2139.651, 4.267515
2141.579, 4.254462
2143.508, 4.348994
2145.436, 4.474083
2147.365, 4.559136
2149.293, 4.630379
2151.221, 4.217826
2153.150, 4.606500
2155.078, 4.475929
2157.007, 4.140692
2158.935, 4.235194
2160.864, 4.326687
2162.792, 4.321081
2164.721, 4.360306
2166.649, 4.324682
2168.578, 4.270929
2170.506, 4.249244
2172.435, 4.197494
2174.363, 4.188898
2176.292, 4.135731
2178.220, 4.179669
2180.148, 4.219691
2182.077, 4.230888
2184.005, 4.163243
2185.934, 4.034390
2187.862, 3.855385
2189.791, 3.836281
2191.719, 3.876182
2193.648, 3.914954
2195.576, 3.769006
2197.505, 3.849164
2199.433, 3.685437
2201.362, 3.850773
2203.290, 3.688653
2205.219, 3.606437
2207.147, 3.585222
2209.075, 3.522503
2211.004, 3.688191
2212.932, 3.624095
2214.861, 3.995724
2216.789, 3.690726
2218.718, 3.598866
2220.646, 3.739076
2222.575, 3.960161
2224.503, 3.748769
2226.432, 3.400296
2228.360, 3.002228
2230.289, 3.295277
2232.217, 3.743549
2234.146, 3.629905
2236.074, 3.701864
2238.002, 3.958213
2239.931, 3.653034
2241.859, 3.340967
2243.788, 3.279160
2245.716, 3.232795
2247.645, 3.162516
2249.573, 2.984844
2251.502, 2.883956
2253.430, 2.926181
2255.359, 3.404533
2257.287, 3.776786
2259.216, 3.692380
2261.144, 3.726517
2263.073, 3.769797
2265.001, 3.524066
2266.929, 3.263083
2268.858, 3.096526
2270.786, 3.664781
2272.715, 4.066434
2274.643, 3.517362
2276.572, 3.359638
2278.500, 3.394425
2280.429, 3.257369
2282.357, 3.001961
2284.286, 2.692430
2286.214, 3.004817
2288.143, 3.353724
2290.071, 3.426831
2292.000, 3.233877
2293.928, 2.939347
2295.856, 2.686803
2297.785, 2.812317
2299.713, 3.262509
2301.642, 3.565444
2303.570, 3.541433
2305.499, 3.076057
2307.427, 2.860686
2309.356, 2.848539
2311.284, 2.980078
2313.213, 3.164425
2315.141, 3.333391
2317.070, 3.310883
2318.998, 3.211651
2320.927, 3.073497
2322.855, 2.826791
2324.783, 2.807748
2326.712, 2.610726
2328.640, 2.668828
2330.569, 2.448508
2332.497, 2.775632
2334.426, 2.997814
2336.354, 2.958503
2338.283, 2.846693
2340.211, 2.839720
2342.140, 3.027925
2344.068, 2.747663
2345.997, 2.446062
2347.925, 2.752541
2349.854, 2.789554
2351.782, 2.654210
2353.710, 2.773030
2355.639, 2.810073
2357.567, 2.704070
2359.496, 2.543501
2361.424, 2.521026
2363.353, 2.840563
2365.281, 3.062153
2367.210, 2.984052
2369.138, 2.211882
2371.067, 2.087052
2372.995, 2.404553
2374.924, 2.327253
2376.852, 2.355045
2378.781, 2.570411
2380.709, 2.548449
2382.637, 2.434134
2384.566, 2.287399
2386.494, 2.653683
2388.423, 2.991845
2390.351, 2.791240
2392.280, 2.690763
2394.208, 2.634089
2396.137, 2.618612
2398.065, 2.650831
2399.994, 2.644746
2401.922, 2.889667
2403.851, 2.783422
2405.779, 3.085120
2407.708, 2.791970
2409.636, 3.139935
2411.564, 2.828358
2413.493, 2.390347
2415.421, 2.105909
2417.350, 2.382286
2419.278, 2.622132
2421.207, 2.707601
2423.135, 2.397572
2425.064, 2.308826
2426.992, 2.469675
2428.921, 2.580068
2430.849, 2.668872
2432.778, 2.743358
2434.706, 2.590445
2436.635, 2.418867
2438.563, 2.388860
2440.491, 2.335671
2442.420, 2.385029
2444.348, 2.320707
2446.277, 2.295606
2448.205, 2.416374
2450.134, 2.227290
2452.062, 2.151292
2453.991, 2.149636
2455.919, 1.963831
2457.848, 2.045620
2459.776, 2.400461
2461.705, 2.550204
2463.633, 2.382555
2465.562, 1.910027
2467.490, 1.969690
2469.418, 2.120446
2471.347, 2.137813
2473.275, 2.180828
2475.204, 2.197366
2477.132, 2.135925
2479.061, 2.155834
2480.989, 2.220996
2482.918, 2.325737
2484.846, 2.109783
2486.775, 1.871878
2488.703, 2.328175
2490.632, 2.514840
2492.560, 2.369128
2494.489, 1.967834
2496.417, 1.744408
2498.345, 1.751905
2500.274, 1.947948
2502.202, 2.019767
2504.131, 1.966300
2506.059, 2.090080
2507.988, 2.710396
2509.916, 2.167912
2511.845, 2.279782
2513.773, 2.308814
2515.702, 1.836440
2517.630, 2.006925
2519.559, 1.834807
2521.487, 1.886827
2523.416, 1.842106
2525.344, 1.629269
2527.272, 1.907287
2529.201, 1.834151
2531.129, 1.621624
2533.058, 1.494585
2534.986, 1.794634
2536.915, 2.071795
2538.843, 1.698728
2540.772, 1.555916
2542.700, 1.649199
2544.629, 1.885826
2546.557, 2.123513
2548.486, 2.236276
2550.414, 1.853356
2552.343, 1.799034
2554.271, 1.989349
2556.199, 2.025146
2558.128, 1.908918
2560.056, 1.703070
2561.985, 1.487190
2563.913, 1.529692
2565.842, 1.818693
2567.770, 2.300659
2569.699, 2.471795
2571.627, 2.291844
2573.556, 1.792338
2575.484, 1.615798
2577.413, 1.832512
2579.341, 1.573489
2581.270, 2.370993
2583.198, 1.530724
2585.126, 1.929803
2587.055, 1.921635
2588.983, 1.315282
2590.912, 1.646898
2592.840, 1.779511
2594.769, 1.501998
2596.697, 1.450719
2598.626, 1.449622
2600.554, 1.459058
2602.483, 1.559617
2604.411, 1.566842
2606.340, 1.508437
2608.268, 1.594421
2610.197, 1.589380
2612.125, 1.617687
2614.053, 1.568497
2615.982, 1.448691
2617.910, 1.238137
2619.839, 1.557539
2621.767, 1.610411
2623.696, 1.390344
2625.624, 1.908638
2627.553, 1.707831
2629.481, 0.9114362
2631.410, 1.114880
2633.338, 1.527185
2635.267, 1.769090
2637.195, 1.734002
2639.124, 1.076742
2641.052, 1.548891
2642.980, 1.373969
2644.909, 1.242122
2646.837, 1.278315
2648.766, 1.156472
2650.694, 1.196683
2652.623, 1.146878
2654.551, 1.257477
2656.480, 1.433768
2658.408, 1.442175
2660.337, 0.8927354
2662.265, 0.9202134
2664.194, 1.167019
2666.122, 1.015517
2668.051, 1.319373
2669.979, 1.591834
2671.907, 1.257560
2673.836, 1.456293
2675.764, 1.636456
2677.693, 1.311291
2679.621, 1.332092
2681.550, 1.298843
2683.478, 0.9751589
2685.407, 1.419545
2687.335, 1.833109
2689.264, 1.830463
2691.192, 1.646103
2693.121, 1.618915
2695.049, 1.533870
2696.978, 1.567998
2698.906, 1.400452
2700.834, 1.373157
2702.763, 1.345476
2704.691, 1.351264
2706.620, 1.331818
2708.548, 1.055953
2710.477, 0.9661817
2712.405, 1.069837
2714.334, 0.9149850
2716.262, 1.210350
2718.191, 0.9566061
2720.119, 1.058298
2722.048, 1.305557
2723.976, 1.514581
2725.905, 1.515536
2727.833, 1.476033
2729.761, 1.354191
2731.690, 1.114107
2733.618, 1.228508
2735.547, 1.123837
2737.475, 0.6838517
2739.404, 1.160256
2741.332, 1.327821
2743.261, 1.077413
2745.189, 1.187513
2747.118, 1.364441
2749.046, 1.553971
2750.975, 1.813918
2752.903, 1.576807
2754.832, 1.268402
2756.760, 1.423609
2758.688, 1.095538
2760.617, 0.6532437
2762.545, 0.4097431
2764.474, 1.087045
2766.402, 1.429487
2768.331, 1.110448
2770.259, 1.103453
2772.188, 1.327170
2774.116, 1.630331
2776.045, 1.733796
2777.973, 1.767134
2779.902, 1.606677
2781.830, 1.475767
2783.759, 1.388404
2785.687, 1.250535
2787.615, 1.167406
2789.544, 1.114556
2791.472, 1.101840
2793.401, 1.234148
2795.329, 1.384607
2797.258, 1.262356
2799.186, 0.9449441
2801.115, 1.020863
2803.043, 0.7383198
2804.972, 0.5160190
2806.900, 1.187269
2808.829, 1.220797
2810.757, 0.9719839
2812.686, 0.8317375
2814.614, 0.7054119
2816.542, 0.5439112
2818.471, 0.4665796
2820.399, 0.3953703
2822.328, 0.4780465
2824.256, 0.6291719
2826.185, 1.025394
2828.113, 0.6963742
2830.042, 0.2877196
2831.970, 0.5538501
2833.899, 0.7316533
2835.827, 0.9011881
2837.756, 1.045357
2839.684, 0.4402345
2841.613, 0.2801827
2843.541, 0.6674492
2845.469, 1.298851
2847.398, 1.079919
2849.326, 0.6176851
2851.255, 0.8381062
2853.183, 0.9694545
2855.112, 0.8446986
2857.040, 0.8511087
2858.969, 0.5898458
2860.897, 0.6165265
2862.826, 0.4789969
2864.754, 0.4323773
2866.683, 0.4980793
2868.611, 0.4332226
2870.540, 0.6572314
2872.468, 0.5151960
2874.396, 0.6164510
2876.325, 0.8209772
2878.253, 0.9836258
2880.182, 1.033600
2882.110, 1.059818
2884.039, 1.252377
2885.967, 0.9510533
2887.896, 0.7224440
2889.824, 0.8931378
2891.753, 0.9497350
2893.681, 0.7915198
2895.610, 0.5229171
2897.538, 0.4163202
2899.467, 0.6398947
2901.395, 0.8677124
2903.323, 0.7687808
2905.252, 0.7851087
2907.180, 0.5947405
2909.109, 0.2632054
2911.037, 0.5924435
2912.966, 0.7963620
2914.894, 0.7654492
2916.823, 0.4637858
2918.751, 0.3558552
2920.680, 0.5620869
2922.608, 0.4540550
2924.537, 0.6896206
2926.465, 0.5986837
2928.394, 0.7386285
2930.322, 0.8145800
2932.250, 0.8414031
2934.179, 0.7920069
2936.107, 0.6678647
2938.036, 0.6303216
2939.964, 0.6245750
2941.893, 0.6533213
2943.821, 0.7557985
2945.750, 0.4775696
2947.678, 0.3244693
2949.607, 0.5395736
2951.535, 0.8600213
2953.464, 0.9740878
2955.392, 0.8605520
2957.321, 0.5626739
2959.249, 0.4706993
2961.177, 0.5308148
2963.106, 0.6664242
2965.034, 0.8003061
2966.963, 0.4992602
2968.891, 0.1984875
2970.820, 0.7606621
2972.748, 0.8572614
2974.677, 0.5620275
2976.605, 0.1046004
2978.534, 0.3181611
2980.462, 0.2983474
2982.391, 0.1974804
2984.319, 0.4005267
2986.248, 0.4233479
2988.176, 0.5417163
2990.104, 0.6760904
2992.033, 0.7808272
2993.961, 0.9160703
2995.890, 0.9377829
2997.818, 0.9790578
2999.747, 0.8574105
3001.675, 0.8695714
3003.604, 0.6828212
3005.532, 0.6472523
3007.461, 0.5578958
3009.389, 0.4723269
3011.318, 0.4810686
3013.246, 0.3281445
3015.175, 0.5878404
3017.103, 0.7066193
3019.031, 0.7863759
3020.960, 0.7883335
3022.888, 0.3379093
3024.817, 0.4707433
3026.745, 0.2594398
3028.674, 0.4335812
3030.602, 0.4989513
3032.531, 0.5981861
3034.459, 0.5086158
3036.388, 0.2154162
3038.316, 0.1060126
3040.245, 0.1142890
3042.173, 0.2432229
3044.102, 0.1643730
3046.030, 0.3166722
3047.958, 0.5728101
3049.887, 0.5593494
3051.815, 0.6437318
3053.744, 0.7739735
3055.672, 0.5557252
3057.601, 0.2813192
3059.529, 0.3216251
3061.458, 0.8498939
3063.386, 0.3335614
3065.315, 0.3149686
3067.243, 0.6278611
3069.172, 0.3835870
3071.100, 0.3386089
3073.029, 0.4918712
3074.957, 0.6844587
3076.885, 0.4495845
3078.814, 0.8885792
3080.742, 1.127220
3082.671, 0.7277162
3084.599, 8.2298577E-02
3086.528, 0.1822140
3088.456, 0.5133652
3090.385, 0.4932970
3092.313, 0.4431593
3094.242, 0.3479648
3096.170, 0.2406312
3098.099, 0.1533169
3100.027, 0.1961108
3101.956, 0.4102629
3103.884, 0.6862537
3105.813, 0.8337797
3107.741, 0.5800115
3109.669, 0.2709077
3111.598, 8.7994002E-02
3113.526, 8.2458504E-02
3115.455, -0.1478707
3117.383, -0.2191808
3119.312, 4.0634520E-02
3121.240, 0.2694597
3123.169, 0.6625508
3125.097, 0.8647884
3127.026, 0.7160756
3128.954, 0.8191659
3130.883, 0.7804121
3132.811, 0.6371209
3134.740, 0.4669429
3136.668, 5.5275191E-02
3138.596, -8.1602767E-02
3140.525, -5.6710899E-02
3142.453, -0.1004820
3144.382, -3.3767659E-02
3146.310, 0.4120078
3148.239, 0.8512477
3150.167, 0.7336074
3152.096, 0.6143969
3154.024, 0.4080760
3155.953, 0.2237422
3157.881, 0.2752022
3159.810, 0.3076452
3161.738, 0.3928479
3163.667, 0.4137126
3165.595, 0.1141425
3167.523, 0.5373907
3169.452, 0.5014704
3171.380, 8.3316676E-02
3173.309, 5.4253150E-02
3175.237, 0.4801669
3177.166, 0.5293585
3179.094, 0.2453975
3181.023, 0.1741661
3182.951, -4.7892809E-02
3184.880, -3.9919499E-02
3186.808, 0.1938206
3188.737, 0.4118722
3190.665, 0.7476766
3192.594, 0.7409394
3194.522, 0.3922919
3196.450, -5.5455089E-02
3198.379, 0.1351476
3200.307, 0.1129990
3202.236, 3.4624670E-02
3204.164, 0.1605270
3206.093, 0.2797812
3208.021, 0.1830924
3209.950, 0.2589886
3211.878, 9.3899332E-02
3213.807, 5.9725575E-02
3215.735, 0.3360884
3217.664, -5.7970941E-02
3219.592, 0.1107348
3221.521, 0.1623829
3223.449, 1.2367250E-02
3225.377, -2.7179381E-02
3227.306, -6.4930432E-02
3229.234, 0.2117868
3231.163, -0.1061449
3233.091, -0.2923780
3235.020, -0.1991073
3236.948, -0.5849015
3238.877, -0.1103567
3240.805, 0.3084757
3242.734, 0.2092566
3244.662, 0.3745475
3246.591, 0.1602507
3248.519, 0.3654002
3250.448, 0.9086511
3252.376, 0.5337059
3254.304, 0.8817456
3256.233, 0.3572553
3258.161, 0.4359664
3260.090, 0.1940438
3262.018, 0.3522047
3263.947, 0.3271360
3265.875, 0.2664973
3267.804, 0.1842926
3269.732, 0.3268642
3271.661, 6.2673889E-02
3273.589, -1.3958600E-02
3275.518, 3.6784921E-02
3277.446, 0.2820316
3279.375, 0.1433332
3281.303, 0.2171641
3283.231, 0.3981685
3285.160, 0.3931105
3287.088, 0.2632077
3289.017, 0.1706586
3290.945, 0.1659359
3292.874, 0.2213381
3294.802, 0.1806320
3296.731, 0.3764148
3298.659, 0.4170447
3300.588, 3.2426730E-02
3302.516, 0.5768210
3304.445, 0.1706873
3306.373, -4.1387580E-02
3308.302, 0.4008301
3310.230, 0.2642120
3312.158, 0.3111740
3314.087, 0.1886882
3316.015, 1.8021680E-02
3317.944, 0.2050719
3319.872, -3.2101439E-03
3321.801, -0.1777330
3323.729, 0.2078125
3325.658, 3.5466406E-02
3327.586, 0.3398193
3329.515, 0.1273492
3331.443, 0.2762277
3333.372, 0.3287005
3335.300, -5.8179758E-02
3337.229, 2.3082079E-02
3339.157, 0.2010785
3341.085, 8.6290643E-02
3343.014, 0.2982533
3344.942, 0.3172854
3346.871, 0.6013538
3348.799, 0.7858043
3350.728, 0.9898616
3352.656, 0.7378134
3354.585, 7.2576433E-02
3356.513, -0.3100750
3358.442, -7.3783570E-03
3360.370, 0.8261229
3362.299, 9.3169183E-02
3364.227, 0.2418030
3366.156, 0.4133552
3368.084, 0.3267234
3370.012, 0.4018047
3371.941, 0.3695501
3373.869, 0.3149588
3375.798, 0.4875191
3377.726, 0.3819996
3379.655, 0.3697046
3381.583, 0.3843892
3383.512, 0.4106773
3385.440, 0.4327204
3387.369, 0.5694041
3389.297, 0.4959055
3391.226, 0.5935200
3393.154, 0.6102931
3395.083, 0.4574517
3397.011, 0.6274377
3398.939, 0.3472434
3400.868, 0.1189673
3402.796, 7.1977690E-02
3404.725, 0.1223263
3406.653, 0.2204187
3408.582, 0.4309347
3410.510, 0.8335778
3412.439, 1.082426
3414.367, 0.6479313
3416.296, 0.3126091
3418.224, 0.4712071
3420.153, 0.7363755
3422.081, 0.7734493
3424.010, 0.3993888
3425.938, 0.6735281
3427.866, 0.6782953
3429.795, 0.6572924
3431.723, 0.8694152
3433.652, 0.3620885
3435.580, 0.8524411
3437.509, 0.9053325
3439.437, 0.7574301
3441.366, 1.139968
3443.294, 1.158516
3445.223, 1.035902
3447.151, 1.003858
3449.080, 1.172700
3451.008, 1.506713
3452.937, 1.423128
3454.865, 1.146378
3456.793, 1.300334
3458.722, 1.603598
##END=



