##NAMES=Elyite
##RRUFFID=R090024
##IDEAL CHEMISTRY=CuPb_4_(SO_4_)O_2_(OH)_4_·H_2_O
##LOCALITY=Tsumeb, Namibia
##OWNER=RRUFF
##SOURCE=William W. Pinch
##DESCRIPTION=Lavender colored acicular crystals on matrix.
##STATUS=The identification of this mineral is not yet confirmed
##URL=https://www.rruff.net/odr/rruff_sample/R090024
##DIFFRACTION SAMPLE DESCRIPTION=Single crystal, powder profile is calculated
##CELL PARAMETERS=a: 14.267 b: 11.5316 c: 14.6234 alpha: 90 beta: 100.38 gamma: 90 volume: 2366 crystal system: monoclinic
##FILETYPE=Raman Processed
##RAMAN WAVELENGTH=532

202.9271, 476.2293
204.8555, 469.6061
206.7840, 464.1130
208.7125, 459.4623
210.6409, 455.3203
212.5694, 451.6616
214.4979, 448.3905
216.4263, 445.0130
218.3548, 441.2480
220.2833, 439.4305
222.2117, 441.1620
224.1402, 443.7224
226.0687, 444.6445
227.9971, 442.7419
229.9256, 441.3774
231.8541, 440.9954
233.7825, 441.7802
235.7110, 444.3527
237.6395, 449.7721
239.5679, 456.4106
241.4964, 463.0181
243.4249, 469.0054
245.3533, 475.8072
247.2818, 484.0778
249.2103, 493.4313
251.1387, 502.4520
253.0672, 509.6099
254.9957, 517.4448
256.9242, 527.4514
258.8526, 540.1490
260.7811, 554.0354
262.7096, 569.4758
264.6380, 586.0255
266.5665, 602.7125
268.4950, 620.4936
270.4234, 637.5421
272.3519, 652.9750
274.2804, 666.9075
276.2088, 679.5313
278.1373, 691.9200
280.0658, 703.0544
281.9942, 710.0129
283.9227, 710.6738
285.8512, 709.7177
287.7796, 707.8884
289.7081, 705.1144
291.6366, 703.5830
293.5650, 705.9613
295.4935, 708.8759
297.4220, 707.4045
299.3504, 700.6368
301.2789, 692.2205
303.2074, 683.0879
305.1358, 673.3201
307.0643, 663.5746
308.9928, 653.6522
310.9212, 643.9324
312.8497, 634.8483
314.7782, 626.6000
316.7066, 618.3117
318.6351, 609.7783
320.5636, 600.9854
322.4920, 591.5052
324.4205, 580.7436
326.3490, 569.7200
328.2774, 559.1810
330.2059, 549.3407
332.1344, 539.2839
334.0628, 528.8788
335.9913, 518.3636
337.9198, 507.8118
339.8482, 496.5026
341.7767, 486.3689
343.7052, 478.1612
345.6336, 472.0547
347.5621, 466.7629
349.4906, 463.4190
351.4190, 460.0004
353.3475, 454.2677
355.2760, 445.0978
357.2044, 437.0404
359.1329, 431.8708
361.0614, 428.8122
362.9898, 424.5032
364.9183, 418.1212
366.8468, 411.6944
368.7752, 405.8383
370.7037, 400.4505
372.6322, 395.4662
374.5606, 390.8795
376.4891, 387.0118
378.4176, 383.7406
380.3460, 380.9907
382.2745, 378.5373
384.2030, 376.6172
386.1314, 375.2903
388.0599, 374.0717
389.9884, 372.8613
391.9168, 371.7932
393.8453, 370.5620
395.7738, 368.9044
397.7022, 367.4923
399.6307, 366.6278
401.5592, 366.5401
403.4876, 366.9648
405.4161, 367.7476
407.3446, 368.6071
409.2730, 370.0873
411.2015, 372.2793
413.1300, 374.5211
415.0584, 376.5079
416.9869, 378.6945
418.9154, 381.0538
420.8438, 383.2222
422.7723, 385.6036
424.7008, 389.7818
426.6292, 395.4255
428.5577, 399.6585
430.4862, 401.1396
432.4146, 401.4113
434.3431, 401.2030
436.2716, 400.7262
438.2000, 400.4070
440.1285, 401.3979
442.0570, 401.5351
443.9854, 399.4637
445.9139, 394.2580
447.8424, 390.2473
449.7708, 389.0832
451.6993, 388.4615
453.6278, 386.2758
455.5562, 380.9769
457.4847, 376.4135
459.4132, 373.4616
461.3416, 371.9270
463.2701, 370.0434
465.1986, 366.9747
467.1270, 363.9939
469.0555, 362.3791
470.9840, 362.9663
472.9124, 363.4350
474.8409, 362.9202
476.7694, 362.0898
478.6978, 361.7198
480.6263, 361.9881
482.5548, 362.3026
484.4832, 362.5412
486.4117, 362.8654
488.3402, 363.8903
490.2686, 366.1554
492.1971, 368.4648
494.1256, 370.2001
496.0540, 371.3458
497.9825, 371.8199
499.9110, 370.6886
501.8394, 369.4942
503.7679, 369.6046
505.6964, 371.3960
507.6248, 372.1324
509.5533, 370.3558
511.4818, 367.3028
513.4103, 364.6277
515.3387, 363.4805
517.2672, 362.1352
519.1957, 360.3921
521.1241, 358.1951
523.0526, 355.2411
524.9811, 350.3430
526.9095, 344.9301
528.8380, 340.6341
530.7665, 338.0358
532.6949, 335.4596
534.6234, 332.4347
536.5519, 329.4671
538.4803, 326.6898
540.4088, 324.0064
542.3373, 320.4765
544.2657, 315.6933
546.1942, 310.7137
548.1227, 306.9769
550.0511, 304.9039
551.9796, 302.9290
553.9081, 300.3174
555.8365, 297.5060
557.7650, 295.5429
559.6935, 294.7502
561.6219, 293.6781
563.5504, 292.1574
565.4789, 290.2878
567.4073, 288.3981
569.3358, 287.1133
571.2643, 285.9735
573.1927, 284.5312
575.1212, 283.6470
577.0497, 281.4593
578.9781, 281.6422
580.9066, 281.5036
582.8351, 280.1938
584.7635, 278.1783
586.6920, 277.0980
588.6205, 277.1721
590.5490, 277.5636
592.4774, 277.3655
594.4059, 277.5411
596.3344, 278.1186
598.2628, 278.1110
600.1913, 278.5129
602.1198, 278.9842
604.0482, 278.9717
605.9767, 279.6286
607.9052, 279.5977
609.8336, 279.1637
611.7621, 278.3725
613.6906, 277.4085
615.6190, 276.8704
617.5475, 276.6082
619.4760, 276.1133
621.4044, 275.8852
623.3329, 277.2967
625.2614, 278.4807
627.1898, 278.0074
629.1183, 275.8629
631.0468, 274.0231
632.9752, 273.2172
634.9037, 273.1916
636.8322, 273.6244
638.7606, 273.8721
640.6891, 274.1040
642.6176, 273.8958
644.5460, 273.6009
646.4745, 273.0899
648.4030, 272.1848
650.3314, 271.4358
652.2599, 269.9446
654.1884, 268.4412
656.1168, 266.7115
658.0453, 264.5800
659.9738, 262.6998
661.9022, 260.2966
663.8307, 258.2827
665.7592, 256.0853
667.6876, 252.7446
669.6161, 249.8050
671.5446, 247.4955
673.4730, 245.3771
675.4015, 243.8398
677.3300, 243.4441
679.2584, 243.1010
681.1869, 242.4763
683.1154, 241.8765
685.0438, 241.0123
686.9723, 239.3786
688.9008, 238.1851
690.8292, 238.0003
692.7577, 238.6340
694.6862, 239.2208
696.6146, 239.7215
698.5431, 239.8240
700.4716, 239.1791
702.4000, 238.3780
704.3285, 238.1080
706.2570, 238.3871
708.1854, 238.5397
710.1139, 238.1671
712.0424, 237.8560
713.9708, 237.8191
715.8993, 237.5459
717.8278, 237.2590
719.7562, 237.3255
721.6847, 238.6040
723.6132, 239.7855
725.5416, 240.4239
727.4701, 240.3371
729.3986, 239.4366
731.3270, 238.4124
733.2555, 237.9102
735.1840, 238.4525
737.1124, 238.8376
739.0409, 238.1419
740.9694, 236.5404
742.8978, 236.0842
744.8263, 237.1639
746.7548, 238.2861
748.6832, 238.4470
750.6117, 238.3154
752.5402, 238.2223
754.4686, 237.8797
756.3971, 237.6412
758.3256, 238.0326
760.2540, 239.4835
762.1825, 240.9457
764.1110, 242.2105
766.0394, 243.1726
767.9679, 244.0493
769.8964, 245.2103
771.8248, 246.4361
773.7533, 247.6886
775.6818, 248.7387
777.6102, 249.7448
779.5387, 251.0899
781.4672, 252.3010
783.3956, 253.0622
785.3241, 254.0161
787.2526, 255.8135
789.1810, 258.4517
791.1095, 260.8745
793.0380, 262.7708
794.9664, 264.2936
796.8949, 265.7457
798.8234, 267.5955
800.7518, 269.2989
802.6803, 270.6513
804.6088, 271.6276
806.5372, 272.6674
808.4657, 274.2150
810.3942, 275.4171
812.3226, 275.8436
814.2511, 275.7182
816.1796, 275.5946
818.1080, 275.2524
820.0365, 274.5966
821.9650, 273.5480
823.8934, 272.6599
825.8219, 271.9332
827.7504, 271.2639
829.6788, 270.5869
831.6073, 269.5774
833.5358, 268.9637
835.4642, 269.0331
837.3927, 269.6716
839.3212, 271.0737
841.2496, 273.6386
843.1781, 276.5678
845.1066, 279.7783
847.0350, 282.8750
848.9635, 285.2661
850.8920, 285.6714
852.8204, 286.9900
854.7489, 290.1316
856.6774, 295.4115
858.6058, 300.6990
860.5343, 305.3882
862.4628, 310.7130
864.3912, 316.9062
866.3197, 324.0510
868.2482, 332.8336
870.1766, 343.0923
872.1051, 355.6368
874.0336, 371.9258
875.9620, 390.9976
877.8905, 408.1953
879.8190, 426.4208
881.7474, 439.5604
883.6759, 446.8345
885.6044, 447.6009
887.5328, 440.9073
889.4613, 424.1899
891.3898, 405.3908
893.3182, 385.5865
895.2467, 365.5977
897.1752, 347.1249
899.1036, 328.8341
901.0321, 314.4644
902.9606, 306.1660
904.8890, 301.0317
906.8175, 296.0980
908.7460, 291.5061
910.6744, 287.0091
912.6029, 281.8163
914.5314, 277.1520
916.4598, 273.7091
918.3883, 271.2573
920.3168, 270.7641
922.2452, 272.7487
924.1737, 276.3210
926.1022, 280.9766
928.0306, 287.1994
929.9591, 292.0523
931.8876, 293.1423
933.8160, 294.2731
935.7445, 298.0742
937.6730, 304.0599
939.6014, 311.4483
941.5299, 321.2298
943.4584, 331.5319
945.3868, 340.8927
947.3153, 351.0925
949.2438, 363.4287
951.1722, 376.5221
953.1007, 393.8563
955.0292, 419.3513
956.9576, 449.1595
958.8861, 479.1021
960.8146, 515.8301
962.7430, 541.3961
964.6715, 551.4326
966.6000, 548.9010
968.5284, 533.1689
970.4569, 497.0002
972.3854, 460.1713
974.3138, 424.9427
976.2423, 393.4478
978.1708, 366.3543
980.0992, 343.9823
982.0277, 326.7394
983.9562, 316.5889
985.8846, 309.5431
987.8131, 305.6152
989.7416, 304.0360
991.6700, 298.7234
993.5985, 288.0948
995.5270, 278.4487
997.4554, 271.4841
999.3839, 266.6431
1001.312, 263.1933
1003.241, 261.1553
1005.169, 259.7357
1007.098, 259.2952
1009.026, 259.5035
1010.955, 259.4993
1012.883, 259.2514
1014.812, 259.5417
1016.740, 260.7956
1018.669, 262.0680
1020.597, 262.6306
1022.526, 261.7271
1024.454, 261.6802
1026.382, 264.0428
1028.311, 267.0738
1030.239, 267.8485
1032.168, 266.0358
1034.096, 265.2571
1036.025, 267.2727
1037.953, 270.6198
1039.882, 273.6290
1041.810, 274.5497
1043.739, 276.7508
1045.667, 281.9762
1047.596, 286.9926
1049.524, 289.0675
1051.453, 288.8654
1053.381, 288.5874
1055.309, 287.7804
1057.238, 286.3824
1059.166, 284.2240
1061.095, 282.0386
1063.023, 280.2506
1064.952, 279.1505
1066.880, 278.3154
1068.809, 277.8174
1070.737, 277.8510
1072.666, 278.3979
1074.594, 278.0094
1076.523, 277.2086
1078.451, 276.0809
1080.380, 275.2564
1082.308, 274.8286
1084.236, 275.0647
1086.165, 275.2354
1088.093, 274.3786
1090.022, 272.9543
1091.950, 271.6053
1093.879, 271.3136
1095.807, 271.4885
1097.736, 270.6237
1099.664, 269.2078
1101.593, 267.6456
1103.521, 266.3769
1105.450, 265.0196
1107.378, 263.6470
1109.307, 262.0916
1111.235, 260.0206
1113.163, 257.7332
1115.092, 255.4643
1117.020, 253.4729
1118.949, 252.2214
1120.877, 252.4721
1122.806, 252.8914
1124.734, 252.5332
1126.663, 251.0206
1128.591, 249.5658
1130.520, 248.4957
1132.448, 247.4193
1134.377, 246.5509
1136.305, 246.0857
1138.234, 246.1492
1140.162, 245.7504
1142.090, 244.6300
1144.019, 243.2341
1145.947, 242.1187
1147.876, 241.3224
1149.804, 240.3906
1151.733, 239.1907
1153.661, 237.6658
1155.590, 236.5493
1157.518, 236.7165
1159.447, 238.0665
1161.375, 239.2482
1163.304, 237.9686
1165.232, 236.7837
1167.161, 236.9370
1169.089, 237.5018
1171.017, 236.9805
1172.946, 235.0019
1174.874, 233.6082
1176.803, 234.4505
1178.731, 236.0512
1180.660, 237.1569
1182.588, 237.7069
1184.517, 238.3051
1186.445, 238.5243
1188.374, 238.1662
1190.302, 238.3809
1192.231, 239.0331
1194.159, 239.3163
1196.088, 238.1886
1198.016, 237.0093
1199.944, 236.6990
1201.873, 236.7002
1203.801, 236.4030
1205.730, 235.7640
1207.658, 235.3656
1209.587, 235.2419
1211.515, 235.1165
1213.444, 235.5390
1215.372, 236.7375
1217.301, 238.2488
1219.229, 239.3037
1221.158, 238.7580
1223.086, 237.0327
1225.015, 236.4763
1226.943, 236.8996
1228.871, 237.4179
1230.800, 237.2241
1232.728, 237.4586
1234.657, 238.0263
1236.585, 237.2286
1238.514, 235.7559
1240.442, 235.1879
1242.371, 236.0299
1244.299, 236.6972
1246.228, 236.5373
1248.156, 237.0013
1250.085, 238.7982
1252.013, 240.8815
1253.942, 241.7436
1255.870, 241.2672
1257.798, 240.3375
1259.727, 239.4830
1261.655, 238.6907
1263.584, 237.3360
1265.512, 235.3789
1267.441, 235.1551
1269.369, 238.9163
1271.298, 241.6899
1273.226, 241.1908
1275.155, 239.0942
1277.083, 238.4888
1279.012, 240.2956
1280.940, 241.5005
1282.869, 241.2457
1284.797, 241.3008
1286.725, 241.9903
1288.654, 242.7546
1290.582, 243.4299
1292.511, 244.4627
1294.439, 245.3504
1296.368, 245.1081
1298.296, 244.6050
1300.225, 244.7580
1302.153, 245.5554
1304.082, 246.3416
1306.010, 247.3162
1307.939, 247.9041
1309.867, 247.0877
1311.796, 245.9891
1313.724, 246.7039
1315.652, 250.4921
1317.581, 252.7301
1319.509, 251.1857
1321.438, 249.3453
1323.366, 249.8675
1325.295, 252.1515
1327.223, 253.6136
1329.152, 253.9174
1331.080, 253.8154
1333.009, 253.0459
1334.937, 252.3927
1336.866, 252.4788
1338.794, 253.3881
1340.723, 254.8414
1342.651, 257.1930
1344.579, 258.3212
1346.508, 256.8029
1348.436, 254.4339
1350.365, 253.0518
1352.293, 252.8966
1354.222, 253.3135
1356.150, 254.5274
1358.079, 255.6186
1360.007, 256.3665
1361.936, 256.8680
1363.864, 257.1360
1365.793, 257.0170
1367.721, 257.5939
1369.650, 259.9976
1371.578, 261.5309
1373.506, 260.9275
1375.435, 259.2426
1377.363, 258.1689
1379.292, 257.8349
1381.220, 257.9059
1383.149, 258.4243
1385.077, 259.0101
1387.006, 259.9160
1388.934, 260.9360
1390.863, 261.4108
1392.791, 258.3497
1394.720, 262.0302
1396.648, 264.1767
1398.577, 264.8718
1400.505, 259.7681
1402.433, 262.1523
1404.362, 261.5358
1406.290, 260.7961
1408.219, 264.2343
1410.147, 259.9739
1412.076, 263.3459
1414.004, 263.6711
1415.933, 265.3908
1417.861, 264.0910
1419.790, 263.7239
1421.718, 266.3770
1423.647, 267.3579
1425.575, 265.7105
1427.504, 267.5189
1429.432, 263.1531
1431.360, 264.2050
1433.289, 267.5946
1435.217, 266.0991
1437.146, 267.9626
1439.074, 268.5468
1441.003, 263.3173
1442.931, 268.1984
1444.860, 268.7070
1446.788, 264.7259
1448.717, 269.2606
1450.645, 265.8985
1452.574, 265.3551
1454.502, 266.9328
1456.431, 266.2994
1458.359, 269.1522
1460.287, 268.6464
1462.216, 267.8405
1464.144, 268.3442
1466.073, 265.1369
1468.001, 268.8142
1469.930, 267.7888
1471.858, 269.1010
1473.787, 270.9430
1475.715, 268.7279
1477.644, 270.8081
1479.572, 266.2274
1481.501, 268.8695
1483.429, 267.3257
1485.358, 266.2979
1487.286, 265.6517
1489.214, 265.8005
1491.143, 267.6940
1493.071, 269.1901
1495.000, 269.3868
1496.928, 268.7719
1498.857, 268.0730
1500.785, 267.1901
1502.714, 266.7517
1504.642, 266.9141
1506.571, 267.3748
1508.499, 268.1149
1510.428, 269.0333
1512.356, 270.0992
1514.285, 271.2770
1516.213, 271.9572
1518.141, 271.5686
1520.070, 271.6727
1521.998, 273.8957
1523.927, 275.9850
1525.855, 275.2739
1527.784, 272.4392
1529.712, 270.8909
1531.641, 271.1882
1533.569, 271.8737
1535.498, 272.5725
1537.426, 273.3820
1539.355, 274.4909
1541.283, 275.7552
1543.212, 276.9362
1545.140, 278.1168
1547.068, 278.8516
1548.997, 278.6118
1550.925, 278.4661
1552.854, 279.0218
1554.782, 279.8891
1556.711, 280.6416
1558.639, 281.4048
1560.568, 281.5612
1562.496, 280.5852
1564.425, 279.6081
1566.353, 278.8800
1568.282, 278.5585
1570.210, 278.8604
1572.139, 279.8291
1574.067, 280.7216
1575.995, 281.4466
1577.924, 282.2683
1579.852, 282.9108
1581.781, 283.8972
1583.709, 286.2271
1585.638, 289.1436
1587.566, 289.9561
1589.495, 287.5014
1591.423, 285.7770
1593.352, 285.0054
1595.280, 284.8584
1597.209, 285.4952
1599.137, 286.5599
1601.066, 287.7133
1602.994, 289.1998
1604.922, 289.5432
1606.851, 286.8567
1608.779, 285.5340
1610.708, 287.9998
1612.636, 290.6695
1614.565, 290.2303
1616.493, 287.4168
1618.422, 285.9118
1620.350, 286.4877
1622.279, 286.8804
1624.207, 286.4117
1626.136, 286.3869
1628.064, 287.7782
1629.993, 289.6953
1631.921, 290.7460
1633.849, 290.8037
1635.778, 290.9834
1637.706, 291.7318
1639.635, 291.8961
1641.563, 290.5569
1643.492, 289.2892
1645.420, 289.3998
1647.349, 290.5291
1649.277, 291.6025
1651.206, 292.7893
1653.134, 293.1405
1655.063, 291.4931
1656.991, 290.3142
1658.920, 290.9468
1660.848, 292.1125
1662.776, 292.2489
1664.705, 291.5233
1666.633, 291.5039
1668.562, 292.4530
1670.490, 293.4145
1672.419, 293.8880
1674.347, 294.6343
1676.276, 296.6556
1678.204, 298.8566
1680.133, 299.1551
1682.061, 297.5648
1683.990, 296.4457
1685.918, 295.9492
1687.847, 295.9788
1689.775, 297.0571
1691.703, 298.1955
1693.632, 298.7188
1695.560, 298.8244
1697.489, 298.8289
1699.417, 298.6554
1701.346, 299.1335
1703.274, 301.0556
1705.203, 302.3694
1707.131, 301.9655
1709.060, 301.1222
1710.988, 300.6700
1712.917, 300.6552
1714.845, 301.3449
1716.774, 302.9233
1718.702, 303.9587
1720.630, 304.0742
1722.559, 303.8718
1724.487, 303.2408
1726.416, 302.6289
1728.344, 302.6396
1730.273, 303.0840
1732.201, 302.9366
1734.130, 301.9007
1736.058, 301.7269
1737.987, 303.6159
1739.915, 305.0909
1741.844, 304.9228
1743.772, 304.2525
1745.701, 304.3563
1747.629, 304.9921
1749.557, 304.6602
1751.486, 302.7001
1753.414, 302.2938
1755.343, 305.4086
1757.271, 307.9209
1759.200, 308.1637
1761.128, 307.4229
1763.057, 306.4850
1764.985, 305.5581
1766.914, 305.8325
1768.842, 307.8085
1770.771, 309.3842
1772.699, 310.4465
1774.628, 311.1890
1776.556, 311.1924
1778.484, 311.3087
1780.413, 312.6968
1782.341, 314.7683
1784.270, 315.4317
1786.198, 314.1102
1788.127, 313.0559
1790.055, 312.2930
1791.984, 311.8095
1793.912, 311.5695
1795.841, 311.7613
1797.769, 312.7144
1799.698, 314.1950
1801.626, 315.6626
1803.555, 317.1911
1805.483, 318.1721
1807.411, 318.2113
1809.340, 318.1161
1811.268, 317.7236
1813.197, 317.4034
1815.125, 317.0755
1817.054, 317.1086
1818.982, 318.3965
1820.911, 321.0240
1822.839, 322.6195
1824.768, 323.0211
1826.696, 322.8967
1828.625, 321.3647
1830.553, 320.5763
1832.482, 322.0575
1834.410, 323.9351
1836.339, 324.5122
1838.267, 323.8907
1840.195, 322.2543
1842.124, 319.2853
1844.052, 317.8632
1845.981, 318.8083
1847.909, 320.2916
1849.838, 322.6234
1851.766, 324.3251
1853.695, 324.0389
1855.623, 322.7504
1857.552, 321.7013
1859.480, 321.0068
1861.409, 322.2448
1863.337, 326.2013
1865.266, 329.0193
1867.194, 329.3389
1869.122, 329.1905
1871.051, 329.4761
1872.979, 329.7868
1874.908, 329.6542
1876.836, 329.2448
1878.765, 329.0722
1880.693, 329.1671
1882.622, 329.0077
1884.550, 328.2235
1886.479, 327.8723
1888.407, 328.4288
1890.336, 329.2358
1892.264, 330.2460
1894.193, 331.1213
1896.121, 331.0425
1898.049, 332.1235
1899.978, 333.2159
1901.906, 333.5817
1903.835, 335.4731
1905.763, 336.3875
1907.692, 336.5224
1909.620, 335.2247
1911.549, 333.8857
1913.477, 333.1663
1915.406, 333.0952
1917.334, 333.8761
1919.263, 335.4922
1921.191, 337.0390
1923.120, 338.6094
1925.048, 339.8135
1926.976, 340.5499
1928.905, 341.0060
1930.833, 341.1701
1932.762, 341.1178
1934.690, 340.7088
1936.619, 340.2020
1938.547, 339.8843
1940.476, 339.8192
1942.404, 340.5710
1944.333, 342.3502
1946.261, 343.7758
1948.190, 345.1017
1950.118, 345.0811
1952.047, 341.4301
1953.975, 338.3141
1955.904, 338.9252
1957.832, 341.3914
1959.760, 342.9787
1961.689, 343.8395
1963.617, 345.6427
1965.546, 349.2249
1967.474, 350.5297
1969.403, 346.7275
1971.331, 344.6302
1973.260, 346.7511
1975.188, 349.3661
1977.117, 350.9508
1979.045, 351.5989
1980.974, 350.6642
1982.902, 348.8099
1984.831, 349.6822
1986.759, 348.8874
1988.688, 347.8026
1990.616, 349.9814
1992.544, 347.2658
1994.473, 349.7432
1996.401, 353.0777
1998.330, 356.8282
2000.258, 359.2933
2002.187, 357.8562
2004.115, 354.7655
2006.044, 354.3536
2007.972, 356.2827
2009.901, 357.9619
2011.829, 359.4540
2013.758, 359.4410
2015.686, 356.4709
2017.615, 354.3747
2019.543, 354.4009
2021.471, 355.4875
2023.400, 357.6177
2025.328, 360.0518
2027.257, 361.8401
2029.185, 363.1412
2031.114, 364.8768
2033.042, 367.4155
2034.971, 367.4473
2036.899, 363.1896
2038.828, 360.6737
2040.756, 361.7961
2042.685, 362.8022
2044.613, 361.9613
2046.542, 361.4108
2048.470, 363.1296
2050.398, 365.4402
2052.327, 365.9430
2054.255, 365.2159
2056.184, 365.0957
2058.112, 365.6021
2060.041, 365.8978
2061.969, 365.7544
2063.898, 365.7646
2065.826, 365.5877
2067.755, 366.2059
2069.683, 369.5160
2071.612, 371.9694
2073.540, 369.8954
2075.469, 366.5164
2077.397, 366.4814
2079.325, 368.9367
2081.254, 370.2456
2083.182, 370.1681
2085.111, 371.0538
2087.039, 373.4069
2088.968, 375.0218
2090.896, 375.1181
2092.825, 375.4728
2094.753, 377.1938
2096.682, 378.5990
2098.610, 378.4120
2100.539, 377.6391
2102.467, 377.2151
2104.396, 377.0191
2106.324, 376.8475
2108.252, 376.7003
2110.181, 376.3317
2112.109, 375.6254
2114.038, 375.1537
2115.966, 374.4774
2117.895, 374.8268
2119.823, 377.7243
2121.752, 379.8329
2123.680, 378.9741
2125.609, 377.9183
2127.537, 378.9007
2129.466, 380.6705
2131.394, 381.2810
2133.323, 381.2038
2135.251, 382.1376
2137.179, 384.0267
2139.108, 385.6284
2141.036, 386.9658
2142.965, 387.4348
2144.893, 386.5423
2146.822, 385.6316
2148.750, 384.5361
2150.679, 384.2007
2152.607, 385.8565
2154.536, 387.5942
2156.464, 387.3823
2158.393, 389.0379
2160.321, 387.7472
2162.250, 390.1721
2164.178, 390.7951
2166.106, 389.6889
2168.035, 390.3332
2169.963, 393.2363
2171.892, 395.2617
2173.820, 395.7484
2175.749, 395.8806
2177.677, 395.9341
2179.606, 395.7726
2181.534, 395.0199
2183.463, 394.3916
2185.391, 394.3253
2187.320, 394.6887
2189.248, 395.3288
2191.177, 396.2611
2193.105, 397.6841
2195.033, 399.5577
2196.962, 400.9807
2198.890, 402.0093
2200.819, 402.0622
2202.747, 401.1052
2204.676, 399.1758
2206.604, 395.1917
2208.533, 392.9352
2210.461, 394.5392
2212.390, 397.0650
2214.318, 399.8843
2216.247, 402.1803
2218.175, 403.1839
2220.104, 403.2394
2222.032, 402.0519
2223.960, 400.4839
2225.889, 401.9361
2227.817, 401.9749
2229.746, 402.7790
2231.674, 405.3103
2233.603, 405.3621
2235.531, 408.7915
2237.460, 410.6363
2239.388, 408.9474
2241.317, 407.8022
2243.245, 409.4443
2245.174, 410.4353
2247.102, 408.3056
2249.031, 406.1681
2250.959, 406.2231
2252.887, 407.4729
2254.816, 409.4686
2256.744, 411.4876
2258.673, 411.6588
2260.601, 410.4339
2262.530, 409.7877
2264.458, 409.7370
2266.387, 410.4907
2268.315, 412.2516
2270.244, 413.1648
2272.172, 412.2402
2274.101, 412.4881
2276.029, 415.9622
2277.958, 418.3149
2279.886, 417.3676
2281.814, 416.5757
2283.743, 417.9228
2285.671, 419.3349
2287.600, 419.0473
2289.528, 419.9203
2291.457, 416.0174
2293.385, 419.9463
2295.314, 422.3415
2297.242, 423.2850
2299.171, 418.4300
2301.099, 421.0627
2303.028, 420.6948
2304.956, 420.2036
2306.885, 423.8904
2308.813, 419.8785
2310.741, 423.4988
2312.670, 424.0728
2314.598, 426.0408
2316.527, 424.9898
2318.455, 424.8711
2320.384, 427.7729
2322.312, 429.0021
2324.241, 427.6035
2326.169, 429.6602
2328.098, 425.5431
2330.026, 426.8436
2331.955, 430.4818
2333.883, 429.2348
2335.812, 431.3469
2337.740, 432.1795
2339.668, 427.1984
2341.597, 432.3282
2343.525, 433.0852
2345.454, 429.3528
2347.382, 434.1360
2349.311, 431.0225
2351.239, 430.7275
2353.168, 432.5539
2355.096, 432.1689
2357.025, 435.2704
2358.953, 435.0130
2360.882, 434.4558
2362.810, 435.2079
2364.739, 432.2493
2366.667, 436.1750
2368.595, 435.3980
2370.524, 436.9589
2372.452, 439.0493
2374.381, 437.0830
2376.309, 439.4116
2378.238, 435.0795
2380.166, 436.3206
2382.095, 436.9618
2384.023, 441.1651
2385.952, 436.8655
2387.880, 437.9518
2389.809, 441.3315
2391.737, 441.5022
2393.666, 443.0147
2395.594, 440.5553
2397.522, 441.3124
2399.451, 441.8655
2401.379, 445.2378
2403.308, 446.8247
2405.236, 444.9127
2407.165, 443.9422
2409.093, 445.2094
2411.022, 446.4368
2412.950, 446.7970
2414.879, 447.1903
2416.807, 448.1869
2418.736, 449.2192
2420.664, 449.7209
2422.593, 450.3559
2424.521, 451.7337
2426.449, 453.4573
2428.378, 455.6681
2430.306, 457.4791
2432.235, 456.6161
2434.163, 458.2406
2436.092, 458.8047
2438.020, 458.8264
2439.949, 459.9904
2441.877, 459.5469
2443.806, 459.2614
2445.734, 459.1891
2447.663, 458.6711
2449.591, 458.7011
2451.520, 457.4541
2453.448, 458.8316
2455.376, 459.0904
2457.305, 459.6787
2459.233, 461.1636
2461.162, 460.8119
2463.090, 463.2419
2465.019, 464.0579
2466.947, 463.5490
2468.876, 460.4239
2470.804, 458.2438
2472.733, 457.8462
2474.661, 458.7229
2476.590, 461.6758
2478.518, 464.1539
2480.447, 464.0538
2482.375, 463.6294
2484.303, 464.4802
2486.232, 465.7008
2488.160, 467.1460
2490.089, 468.0198
2492.017, 466.7570
2493.946, 464.9699
2495.874, 464.3495
2497.803, 465.0736
2499.731, 468.5547
2501.660, 472.9836
2503.588, 473.7505
2505.517, 471.8821
2507.445, 471.4159
2509.374, 472.1006
2511.302, 471.8974
2513.230, 472.3723
2515.159, 473.0746
2517.087, 473.3600
2519.016, 474.6086
2520.944, 475.1236
2522.873, 475.8473
2524.801, 477.2604
2526.730, 477.3093
2528.658, 475.2586
2530.587, 474.3243
2532.515, 474.6543
2534.444, 476.2043
2536.372, 479.5103
2538.301, 481.6844
2540.229, 482.2160
2542.157, 481.3907
2544.086, 476.8185
2546.014, 475.1983
2547.943, 480.1672
2549.871, 483.9911
2551.800, 484.3118
2553.728, 484.2262
2555.657, 484.3119
2557.585, 485.1480
2559.514, 488.2038
2561.442, 490.2718
2563.371, 488.5986
2565.299, 487.0490
2567.228, 488.6629
2569.156, 490.0455
2571.084, 488.1838
2573.013, 486.6470
2574.941, 488.8434
2576.870, 491.5960
2578.798, 492.4164
2580.727, 492.1724
2582.655, 491.0078
2584.584, 489.9929
2586.512, 490.5190
2588.441, 491.7649
2590.369, 493.3495
2592.298, 494.4800
2594.226, 492.9799
2596.155, 491.0363
2598.083, 493.4179
2600.011, 492.5656
2601.940, 497.0812
2603.868, 494.4860
2605.797, 494.7289
2607.725, 496.5950
2609.654, 496.8010
2611.582, 496.3271
2613.511, 498.6728
2615.439, 502.7432
2617.368, 504.1332
2619.296, 503.2951
2621.225, 502.5837
2623.153, 502.0729
2625.082, 502.1500
2627.010, 502.8084
2628.938, 504.1357
2630.867, 504.4991
2632.795, 505.1259
2634.724, 506.0153
2636.652, 506.0532
2638.581, 506.7090
2640.509, 507.4464
2642.438, 508.1986
2644.366, 508.2963
2646.295, 507.5624
2648.223, 508.9579
2650.152, 509.3136
2652.080, 509.2932
2654.009, 511.0193
2655.937, 509.5529
2657.865, 509.5472
2659.794, 509.6836
2661.722, 510.0273
2663.651, 509.2479
2665.579, 510.0620
2667.508, 510.8988
2669.436, 510.9346
2671.365, 513.2391
2673.293, 513.4358
2675.222, 514.1447
2677.150, 515.8046
2679.079, 516.7717
2681.007, 518.2772
2682.936, 517.8113
2684.864, 520.9255
2686.792, 522.8118
2688.721, 523.2112
2690.649, 522.9518
2692.578, 522.0952
2694.506, 520.2994
2696.435, 521.5634
2698.363, 522.1879
2700.292, 522.5425
2702.220, 525.2878
2704.149, 523.7997
2706.077, 524.2178
2708.006, 527.9208
2709.934, 529.0068
2711.863, 525.7961
2713.791, 524.9930
2715.719, 526.8188
2717.648, 529.2329
2719.576, 532.1871
2721.505, 533.7278
2723.433, 533.5546
2725.362, 532.4088
2727.290, 529.6542
2729.219, 529.1937
2731.147, 531.2649
2733.076, 532.4531
2735.004, 532.5081
2736.933, 533.4689
2738.861, 535.6213
2740.790, 537.7184
2742.718, 539.7712
2744.646, 541.7904
2746.575, 542.4557
2748.503, 544.2783
2750.432, 543.2214
2752.360, 542.6308
2754.289, 542.5828
2756.217, 542.5834
2758.146, 542.5778
2760.074, 543.0050
2762.003, 543.7644
2763.931, 543.8924
2765.860, 543.4493
2767.788, 543.0208
2769.717, 542.7272
2771.645, 543.5181
2773.573, 545.3212
2775.502, 547.6805
2777.430, 550.1584
2779.359, 550.6021
2781.287, 549.4108
2783.216, 548.0525
2785.144, 546.9032
2787.073, 548.2562
2789.001, 547.6561
2790.930, 550.8129
2792.858, 549.1149
2794.787, 549.8848
2796.715, 551.7715
2798.644, 551.1972
2800.572, 549.6233
2802.500, 550.2158
2804.429, 552.0492
2806.357, 554.3045
2808.286, 556.1718
2810.214, 555.9246
2812.143, 555.1412
2814.071, 556.0366
2816.000, 557.5608
2817.928, 558.7337
2819.857, 559.4870
2821.785, 559.3184
2823.714, 559.1214
2825.642, 559.1457
2827.571, 560.1882
2829.499, 563.9498
2831.427, 567.6757
2833.356, 570.0783
2835.284, 571.3254
2837.213, 570.9349
2839.141, 570.3442
2841.070, 570.3489
2842.998, 570.2175
2844.927, 569.1291
2846.855, 568.8537
2848.784, 570.3633
2850.712, 572.3299
2852.641, 574.8920
2854.569, 576.8420
2856.498, 577.7927
2858.426, 578.7081
2860.354, 580.1402
2862.283, 580.4529
2864.211, 580.8201
2866.140, 581.4661
2868.068, 580.4407
2869.997, 581.8741
2871.925, 581.0336
2873.854, 580.5750
2875.782, 580.7795
2877.711, 581.2830
2879.639, 581.9385
2881.568, 583.8011
2883.496, 586.6968
2885.425, 588.6933
2887.353, 589.7089
2889.281, 589.7675
2891.210, 589.0682
2893.138, 588.0893
2895.067, 587.1708
2896.995, 587.8112
2898.924, 589.0385
2900.852, 588.2722
2902.781, 589.4724
2904.709, 588.4108
2906.638, 590.6487
2908.566, 591.1631
2910.495, 591.4540
2912.423, 593.5347
2914.352, 595.4801
2916.280, 595.1241
2918.208, 594.6738
2920.137, 596.0938
2922.065, 596.9240
2923.994, 595.2467
2925.922, 593.7270
2927.851, 593.2842
2929.779, 593.6462
2931.708, 595.3485
2933.636, 596.4444
2935.565, 596.2825
2937.493, 596.5820
2939.422, 598.3125
2941.350, 599.0369
2943.279, 598.3830
2945.207, 598.0202
2947.135, 598.0368
2949.064, 596.3370
2950.992, 592.6969
2952.921, 592.2199
2954.849, 594.7513
2956.778, 598.0277
2958.706, 601.1695
2960.635, 599.3857
2962.563, 601.9009
2964.492, 597.5401
2966.420, 601.4451
2968.349, 598.7822
2970.277, 594.8709
2972.206, 595.9645
2974.134, 598.6620
2976.063, 600.7322
2977.991, 602.0445
2979.919, 602.7679
2981.848, 602.4439
2983.776, 599.2292
2985.705, 597.9468
2987.633, 602.8876
2989.562, 605.1282
2991.490, 601.4060
2993.419, 600.3336
2995.347, 604.0713
2997.276, 606.8823
2999.204, 608.0823
3001.133, 608.0765
3003.061, 606.9152
3004.990, 605.3654
3006.918, 603.7985
3008.846, 605.1280
3010.775, 605.4836
3012.703, 609.3542
3014.632, 609.1575
3016.560, 611.6736
3018.489, 614.3182
3020.417, 612.6959
3022.346, 610.2140
3024.274, 609.9385
3026.203, 611.3361
3028.131, 615.0332
3030.060, 618.3283
3031.988, 619.7438
3033.917, 620.3651
3035.845, 619.7511
3037.773, 620.2568
3039.702, 622.7869
3041.630, 624.4211
3043.559, 624.1389
3045.487, 624.7029
3047.416, 626.3024
3049.344, 626.9412
3051.273, 626.6680
3053.201, 626.2946
3055.130, 625.9434
3057.058, 625.8903
3058.987, 626.3431
3060.915, 628.6354
3062.844, 630.9406
3064.772, 630.6258
3066.700, 629.6524
3068.629, 630.0412
3070.557, 630.0897
3072.486, 628.5096
3074.414, 627.0234
3076.343, 624.8808
3078.271, 626.1765
3080.200, 625.4835
3082.128, 625.8092
3084.057, 628.8686
3085.985, 627.4234
3087.914, 633.8649
3089.842, 635.9938
3091.771, 634.5203
3093.699, 635.8952
3095.627, 638.6671
3097.556, 637.8342
3099.484, 639.2263
3101.413, 637.3170
3103.341, 639.2863
3105.270, 638.3928
3107.198, 636.9507
3109.127, 635.9562
3111.055, 635.9965
3112.984, 635.8958
3114.912, 636.2786
3116.841, 637.8934
3118.769, 638.1155
3120.698, 641.0309
3122.626, 642.9880
3124.554, 643.8943
3126.483, 644.0803
3128.411, 643.6826
3130.340, 642.7599
3132.268, 642.3605
3134.197, 647.3029
3136.125, 652.3903
3138.054, 650.6036
3139.982, 646.4703
3141.911, 641.3190
3143.839, 639.4706
3145.768, 644.7156
3147.696, 648.9362
3149.625, 648.2328
3151.553, 648.5934
3153.481, 650.8545
3155.410, 652.5598
3157.338, 653.5146
3159.267, 654.5027
3161.195, 655.6293
3163.124, 658.3876
3165.052, 659.0195
3166.981, 661.9091
3168.909, 661.2794
3170.838, 661.2595
3172.766, 661.9010
3174.695, 663.0458
3176.623, 665.2650
3178.552, 671.0878
3180.480, 673.5022
3182.408, 669.8611
3184.337, 666.3163
3186.265, 663.2057
3188.194, 663.0526
3190.122, 665.8049
3192.051, 669.5951
3193.979, 673.6113
3195.908, 674.4349
3197.836, 674.1057
3199.765, 675.3919
3201.693, 676.8780
3203.622, 676.9847
3205.550, 677.2288
3207.479, 677.9645
3209.407, 679.2981
3211.335, 682.1829
3213.264, 682.3441
3215.192, 679.3438
3217.121, 679.4151
3219.049, 682.7109
3220.978, 684.9406
3222.906, 686.2495
3224.835, 685.7358
3226.763, 685.4634
3228.692, 688.2999
3230.620, 692.0242
3232.549, 695.6520
3234.477, 698.1644
3236.406, 698.7211
3238.334, 699.1064
3240.262, 699.5771
3242.191, 700.3807
3244.119, 701.5829
3246.048, 704.9272
3247.976, 709.3476
3249.905, 708.6094
3251.833, 711.5784
3253.762, 709.3246
3255.690, 713.1989
3257.619, 714.0187
3259.547, 712.9739
3261.476, 715.1636
3263.404, 716.0590
3265.333, 715.5025
3267.261, 718.8353
3269.189, 717.1496
3271.118, 716.8432
3273.046, 718.1572
3274.975, 722.3856
3276.903, 727.2740
3278.832, 728.0773
3280.760, 727.1694
3282.689, 724.2868
3284.617, 724.6104
3286.546, 733.9526
3288.474, 741.0173
3290.403, 743.4586
3292.331, 745.1812
3294.260, 746.6224
3296.188, 747.4622
3298.116, 749.3572
3300.045, 750.1130
3301.973, 752.8496
3303.902, 754.1876
3305.830, 756.3781
3307.759, 762.3530
3309.687, 767.5243
3311.616, 769.1342
3313.544, 771.1625
3315.473, 774.1104
3317.401, 777.8236
3319.330, 782.2389
3321.258, 786.7205
3323.187, 790.9219
3325.115, 793.6071
3327.043, 795.5927
3328.972, 797.7967
3330.900, 799.8356
3332.829, 801.2517
3334.757, 803.1790
3336.686, 806.5034
3338.614, 807.4136
3340.543, 804.8737
3342.471, 805.5524
3344.400, 808.4869
3346.328, 809.9411
3348.257, 811.1078
3350.185, 814.3001
3352.114, 817.6765
3354.042, 820.1396
3355.970, 822.1871
3357.899, 823.2440
3359.827, 826.0637
3361.756, 830.9124
3363.684, 833.6479
3365.613, 834.8625
3367.541, 840.3647
3369.470, 841.7761
3371.398, 847.3215
3373.327, 846.7089
3375.255, 847.1796
3377.184, 849.2586
3379.112, 853.6350
3381.041, 857.4229
3382.969, 860.0318
3384.897, 862.7772
3386.826, 865.8267
3388.754, 870.2250
3390.683, 875.0817
3392.611, 880.6962
3394.540, 883.4413
3396.468, 878.6883
3398.397, 876.3666
3400.325, 881.5103
3402.254, 887.1733
3404.182, 893.0621
3406.111, 896.4564
3408.039, 897.7458
3409.968, 897.8939
3411.896, 897.8654
3413.824, 899.1572
3415.753, 900.3698
3417.681, 901.6349
3419.610, 902.4033
3421.538, 903.0451
3423.467, 904.2444
3425.395, 905.4938
3427.324, 904.5578
3429.252, 904.2633
3431.181, 902.0876
3433.109, 900.5743
3435.038, 898.2955
3436.966, 899.3027
3438.895, 899.5979
3440.823, 900.0424
3442.751, 902.6859
3444.680, 900.6002
3446.608, 901.6710
3448.537, 897.9700
3450.465, 894.2318
3452.394, 899.4957
3454.322, 903.5306
3456.251, 898.9484
3458.179, 895.4265
3460.108, 894.3660
3462.036, 896.3468
3463.965, 900.5182
3465.893, 900.2011
3467.822, 897.0992
3469.750, 892.6563
3471.678, 889.6595
3473.607, 890.6738
3475.535, 892.5020
3477.464, 894.3439
3479.392, 896.4345
3481.321, 898.7042
3483.249, 900.4993
3485.178, 901.3314
3487.106, 899.8060
3489.035, 897.2617
3490.963, 893.8691
3492.892, 891.7364
3494.820, 891.6605
3496.749, 891.7393
3498.677, 891.7311
3500.605, 893.0443
3502.534, 894.4410
3504.462, 892.8069
3506.391, 890.1013
3508.319, 888.2062
3510.248, 885.3789
3512.176, 878.9255
3514.105, 880.8111
3516.033, 879.5674
3517.962, 878.2080
3519.890, 882.1937
3521.819, 879.6494
3523.747, 880.7255
3525.676, 885.2698
3527.604, 888.6841
3529.532, 889.1779
3531.461, 887.4413
3533.389, 883.7672
3535.318, 881.6053
3537.246, 880.9588
3539.175, 883.5862
3541.103, 885.0027
3543.032, 879.9503
3544.960, 877.5590
3546.889, 881.8956
3548.817, 877.9475
3550.746, 866.3019
3552.674, 862.7042
3554.603, 863.2787
3556.531, 862.0892
3558.459, 860.3687
3560.388, 859.4420
3562.316, 856.9011
3564.245, 852.3689
3566.173, 847.1459
3568.102, 841.5485
3570.030, 836.7110
3571.959, 832.1940
3573.887, 827.6734
3575.816, 822.9825
3577.744, 818.1931
3579.673, 813.3041
3581.601, 808.4266
3583.530, 802.2857
3585.458, 795.9846
3587.386, 793.0254
3589.315, 790.1677
3591.243, 783.1916
3593.172, 778.9926
3595.100, 779.6825
3597.029, 777.3948
3598.957, 772.3832
3600.886, 772.8790
3602.814, 774.5173
3604.743, 772.2414
3606.671, 766.9251
3608.600, 765.6607
3610.528, 761.9209
3612.457, 758.0989
3614.385, 756.7405
3616.313, 752.2252
3618.242, 751.4979
3620.170, 751.6675
3622.099, 750.2250
3624.027, 749.1205
3625.956, 748.6847
3627.884, 748.7940
3629.813, 748.0035
3631.741, 748.3651
3633.670, 747.2889
3635.598, 747.2133
3637.527, 747.1121
3639.455, 747.1217
3641.384, 744.4138
3643.312, 738.9135
3645.240, 736.4934
3647.169, 736.6691
3649.097, 739.4541
3651.026, 743.2009
3652.954, 742.4556
3654.883, 748.9372
3656.811, 743.0362
3658.740, 741.2683
3660.668, 742.5047
3662.597, 745.1659
3664.525, 746.8333
3666.454, 745.2386
3668.382, 743.9501
3670.311, 744.3450
3672.239, 742.0234
3674.167, 742.8411
3676.096, 740.5024
3678.024, 742.9706
3679.953, 741.7108
3681.881, 740.0791
3683.810, 738.5247
3685.738, 739.1473
3687.667, 737.1178
3689.595, 738.5446
3691.524, 735.6329
3693.452, 736.2346
3695.381, 737.8566
3697.309, 740.0163
3699.238, 743.1666
3701.166, 746.4024
3703.094, 741.5226
3705.023, 735.5533
3706.951, 736.9061
3708.880, 739.0070
3710.808, 740.1471
3712.737, 739.4389
3714.665, 737.4827
3716.594, 740.3809
3718.522, 739.2117
3720.451, 741.6575
3722.379, 740.4924
3724.308, 742.4941
3726.236, 744.6874
3728.165, 746.5238
3730.093, 745.1596
3732.021, 742.5870
3733.950, 739.3408
3735.878, 739.2510
3737.807, 744.0374
3739.735, 746.4755
3741.664, 746.4083
3743.592, 745.3511
3745.521, 743.9749
3747.449, 741.8019
3749.378, 742.6953
3751.306, 742.1379
3753.235, 747.9760
3755.163, 743.0003
3757.092, 739.8517
3759.020, 739.6072
3760.948, 746.3831
3762.877, 749.5592
3764.805, 746.9066
3766.734, 745.3792
3768.662, 744.7662
3770.591, 742.9797
3772.519, 741.6315
3774.448, 742.3340
3776.376, 743.1882
3778.305, 743.9345
3780.233, 740.8692
3782.162, 737.4649
3784.090, 743.1915
3786.019, 748.3842
3787.947, 746.5811
3789.875, 744.9295
3791.804, 744.0991
3793.732, 746.4354
3795.661, 749.1383
3797.589, 747.6350
3799.518, 746.4789
3801.446, 748.1675
3803.375, 747.4031
3805.303, 747.8298
3807.232, 746.1965
3809.160, 748.3986
3811.089, 749.5279
3813.017, 749.7811
3814.946, 749.1340
3816.874, 748.6420
3818.802, 748.0848
3820.731, 748.1747
3822.659, 749.0515
3824.588, 748.4948
3826.516, 750.6061
3828.445, 750.7921
3830.373, 749.3411
3832.302, 747.2498
3834.230, 744.1932
3836.159, 744.9941
3838.087, 752.8112
3840.016, 754.8798
3841.944, 752.0927
3843.873, 750.2818
3845.801, 749.1123
3847.729, 747.7581
3849.658, 749.1906
3851.586, 749.0685
3853.515, 753.7795
3855.443, 750.9119
3857.372, 751.9538
3859.300, 752.5273
3861.229, 750.5668
3863.157, 750.0744
3865.086, 750.7878
3867.014, 749.3695
3868.943, 747.4172
3870.871, 744.9492
3872.800, 746.7409
3874.728, 753.1683
3876.656, 753.8300
3878.585, 751.1132
3880.513, 747.8092
3882.442, 746.9066
3884.370, 751.5969
3886.299, 753.6112
3888.227, 753.2237
3890.156, 751.8390
3892.084, 750.2866
3894.013, 748.6680
3895.941, 748.7364
3897.870, 751.1315
3899.798, 751.5166
3901.727, 750.4265
3903.655, 748.7420
3905.583, 749.4134
3907.512, 748.8931
3909.440, 752.1884
3911.369, 749.7996
3913.297, 752.0037
3915.226, 753.2696
3917.154, 750.7025
3919.083, 750.2463
3921.011, 751.0600
3922.940, 752.1742
3924.868, 753.7787
3926.797, 752.1926
3928.725, 750.3223
3930.654, 750.2672
3932.582, 752.5272
3934.510, 754.6157
3936.439, 751.0119
3938.367, 748.3191
3940.296, 750.3000
3942.224, 749.8760
3944.153, 749.2315
3946.081, 749.5626
3948.010, 748.1732
3949.938, 749.5481
3951.867, 747.1490
3953.795, 748.9007
3955.724, 751.5646
3957.652, 753.8997
3959.581, 756.6057
3961.509, 756.0579
3963.438, 751.1895
3965.366, 749.5904
3967.294, 749.6255
3969.223, 748.1292
3971.151, 747.3376
3973.080, 748.0921
3975.008, 748.0047
3976.937, 747.6960
3978.865, 752.4468
3980.794, 755.1793
3982.722, 751.1483
3984.651, 749.3895
3986.579, 749.8765
3988.508, 752.8461
3990.436, 754.9423
3992.365, 754.1656
3994.293, 752.8879
3996.221, 751.8884
3998.150, 754.3461
4000.078, 756.0547
4002.007, 753.1896
4003.935, 753.5105
4005.864, 757.4623
4007.792, 758.1942
4009.721, 757.9465
4011.649, 759.8107
4013.578, 758.3381
4015.506, 758.6915
4017.435, 758.4920
4019.363, 757.8885
4021.292, 757.4184
4023.220, 756.8656
4025.148, 756.0544
4027.077, 754.5715
4029.005, 754.5084
4030.934, 754.2107
4032.862, 753.6511
4034.791, 755.2712
4036.719, 754.0450
4038.648, 756.0693
4040.576, 758.3106
4042.505, 758.8372
4044.433, 758.0847
4046.362, 758.4066
4048.290, 757.6412
4050.219, 757.7608
4052.147, 758.4247
4054.075, 757.6399
4056.004, 759.3417
4057.932, 758.9467
4059.861, 757.7981
4061.789, 756.9319
4063.718, 755.4752
4065.646, 754.7954
4067.575, 752.8364
4069.503, 753.3896
4071.432, 753.6371
4073.360, 753.3518
4075.289, 754.7224
4077.217, 754.0110
4079.146, 752.9484
4081.074, 754.1442
4083.002, 755.8574
4084.931, 755.9085
4086.859, 753.5065
4088.788, 750.4975
4090.716, 750.5104
4092.645, 751.7662
4094.573, 752.6674
4096.502, 753.1593
4098.430, 755.9661
4100.359, 754.2249
4102.287, 754.2731
4104.216, 754.1276
4106.144, 750.0921
4108.073, 749.6640
4110.001, 749.3413
4111.930, 753.1598
4113.858, 749.7955
4115.787, 750.2816
4117.715, 750.7101
4119.644, 748.3075
4121.572, 747.5718
4123.500, 748.7066
4125.429, 752.2394
4127.357, 754.6683
4129.286, 753.2540
4131.214, 751.8685
4133.143, 751.6707
4135.071, 750.9726
4137.000, 749.6248
4138.928, 749.0530
4140.856, 748.6237
4142.785, 749.2071
4144.713, 750.9192
4146.642, 751.0287
4148.570, 751.0535
4150.499, 751.7117
4152.427, 750.0265
4154.356, 751.1271
4156.284, 750.2767
4158.213, 747.9526
4160.141, 744.8115
4162.070, 743.2234
4163.998, 744.6094
4165.927, 744.6107
4167.855, 743.4131
4169.784, 743.8158
4171.712, 744.3033
4173.641, 742.2056
4175.569, 743.1982
4177.498, 747.5218
4179.426, 749.0419
4181.354, 748.7230
4183.283, 745.0460
4185.211, 743.9101
4187.140, 745.9560
4189.068, 745.6971
4190.997, 745.4508
4192.925, 748.3328
4194.854, 749.4426
4196.782, 748.6941
4198.710, 748.0812
4200.639, 745.4163
4202.567, 744.4092
4204.496, 743.6826
4206.424, 741.9066
4208.353, 743.7978
4210.281, 745.0807
4212.210, 747.9017
4214.138, 744.6153
4216.067, 736.9847
4217.995, 737.6271
4219.924, 740.4586
4221.852, 741.0946
4223.781, 741.1058
4225.709, 741.5421
4227.638, 740.9670
4229.566, 740.4795
4231.495, 741.4433
4233.423, 739.0211
4235.352, 739.7425
4237.280, 738.0417
4239.208, 739.2247
4241.137, 737.5901
4243.065, 736.4248
4244.994, 735.4944
4246.922, 734.2537
4248.851, 734.2257
4250.779, 734.3118
4252.708, 735.7324
4254.636, 736.1129
4256.564, 736.9293
4258.493, 739.1375
4260.421, 738.1034
4262.350, 739.2277
4264.278, 739.8810
4266.207, 738.5012
4268.135, 735.7875
4270.064, 733.3943
4271.992, 736.6779
4273.921, 740.1415
4275.849, 741.9536
4277.778, 741.4191
4279.706, 739.6550
4281.635, 738.0555
4283.563, 736.5668
4285.492, 735.1879
4287.420, 737.5080
4289.349, 738.0245
4291.277, 729.1036
4293.206, 726.8041
4295.134, 731.3160
4297.063, 734.4398
4298.991, 734.9578
4300.919, 731.2023
4302.848, 730.1646
4304.776, 731.5309
4306.705, 735.3779
4308.633, 736.6063
4310.562, 733.4963
4312.490, 731.8810
4314.418, 731.1865
4316.347, 730.7126
4318.275, 730.7871
4320.204, 731.3662
4322.132, 730.8167
4324.061, 731.9667
4325.989, 729.9330
4327.918, 735.1677
4329.846, 727.7891
4331.775, 724.9426
4333.703, 727.6361
4335.632, 724.3849
4337.560, 732.0362
4339.489, 725.2919
4341.417, 727.5642
4343.346, 729.0228
4345.274, 728.3634
4347.203, 725.9483
4349.131, 725.0616
4351.060, 727.7308
4352.988, 728.3762
4354.917, 727.8055
4356.845, 728.9404
4358.773, 729.6029
4360.702, 729.1717
4362.630, 722.7361
4364.559, 718.4407
4366.487, 717.8949
4368.416, 726.8459
4370.344, 717.7532
4372.272, 721.7444
4374.201, 726.1162
4376.129, 724.5413
4378.058, 724.0204
4379.986, 724.4264
4381.915, 726.2819
4383.843, 727.0294
4385.772, 726.2194
4387.700, 722.3743
4389.629, 719.5966
4391.557, 720.2310
4393.486, 725.3170
4395.414, 730.1469
4397.343, 723.8870
4399.271, 719.9811
4401.200, 721.0618
4403.128, 719.2379
4405.057, 718.1035
4406.985, 720.4702
4408.914, 722.2401
4410.842, 722.9016
4412.771, 722.0783
4414.699, 720.1841
4416.627, 717.7430
4418.556, 720.3464
4420.484, 723.8325
4422.413, 725.0289
4424.341, 723.8563
4426.270, 721.1329
4428.198, 718.1492
4430.126, 717.2374
4432.055, 719.4160
4433.983, 716.0257
4435.912, 712.8901
4437.840, 716.4532
4439.769, 718.0618
4441.697, 717.1630
4443.626, 712.0524
4445.554, 710.9117
4447.483, 715.8917
4449.411, 718.6698
4451.340, 719.3371
4453.268, 717.6937
4455.197, 716.5964
4457.125, 715.5521
4459.054, 714.2300
4460.982, 713.9158
4462.911, 712.2141
4464.839, 712.7593
4466.768, 712.4960
4468.696, 710.7581
4470.625, 713.5821
4472.553, 710.9617
4474.481, 711.7617
4476.410, 708.0477
4478.338, 707.9715
4480.267, 706.9719
4482.195, 706.1168
4484.124, 705.9146
4486.052, 706.8132
4487.980, 707.9734
4489.909, 708.6260
4491.837, 707.7317
4493.766, 705.8242
4495.694, 705.0519
4497.623, 705.3365
4499.551, 706.7487
4501.480, 707.3701
4503.408, 706.8578
4505.337, 708.2595
4507.265, 704.4763
4509.194, 708.4084
4511.122, 706.6418
4513.051, 703.3143
4514.979, 699.7536
4516.908, 697.9360
4518.836, 698.3372
4520.765, 701.3605
4522.693, 704.2245
4524.622, 706.8146
4526.550, 710.8768
4528.479, 708.7468
4530.407, 709.1017
4532.335, 704.3799
4534.264, 705.6964
4536.192, 701.7982
4538.121, 700.8361
4540.049, 700.5469
4541.978, 698.8145
4543.906, 701.1715
4545.834, 704.5586
4547.763, 702.4342
4549.691, 698.6826
4551.620, 694.9877
4553.548, 695.8298
4555.477, 697.2767
4557.405, 697.5953
4559.334, 696.7899
4561.262, 696.0575
4563.191, 696.5786
4565.119, 696.9572
4567.048, 697.1501
4568.976, 697.5471
4570.905, 696.5478
4572.833, 695.0121
4574.762, 699.4512
4576.690, 702.2050
4578.619, 699.7460
4580.547, 696.0884
4582.476, 693.1121
4584.404, 693.2763
4586.333, 688.2602
4588.261, 683.8624
4590.189, 692.7327
4592.118, 695.9404
4594.046, 693.7885
4595.975, 699.3953
4597.903, 703.0069
4599.832, 701.2131
4601.760, 695.4935
4603.688, 691.5295
4605.617, 694.0186
4607.545, 693.4235
4609.474, 690.7928
4611.402, 692.4054
4613.331, 691.5985
4615.259, 692.5704
4617.188, 692.4363
4619.116, 692.3750
4621.045, 693.2037
4622.973, 693.6454
4624.902, 693.3031
4626.830, 692.0413
4628.759, 689.3470
4630.687, 687.3524
4632.616, 687.3799
4634.544, 690.7903
4636.473, 694.7297
4638.401, 696.1953
4640.330, 694.2236
4642.258, 690.3370
4644.187, 687.4964
4646.115, 688.1642
4648.043, 686.3196
4649.972, 688.8190
4651.900, 686.7791
4653.829, 682.7206
4655.757, 688.5891
4657.686, 691.7819
4659.614, 692.4431
4661.542, 682.9894
4663.471, 686.5968
4665.399, 684.9700
4667.328, 683.1284
4669.256, 688.5743
4671.185, 680.5917
4673.113, 685.9219
4675.042, 685.9378
4676.970, 688.3860
4678.899, 685.5675
4680.827, 684.3758
4682.756, 688.4523
4684.684, 689.6118
4686.613, 686.1870
4688.541, 688.7898
4690.470, 680.6232
4692.398, 681.9070
4694.327, 687.2679
4696.255, 684.1081
4698.184, 686.8071
4700.112, 687.2748
4702.041, 677.6014
4703.969, 685.5642
4705.897, 685.9001
4707.826, 678.4045
4709.754, 685.7631
4711.683, 679.3471
4713.611, 677.8479
4715.540, 680.0486
4717.468, 678.3923
4719.396, 682.8173
4721.325, 681.3835
4723.253, 679.4265
4725.182, 679.7537
4727.110, 673.6080
4729.039, 679.4708
4730.967, 677.1309
4732.896, 678.8682
4734.824, 681.5300
4736.753, 677.1149
4738.681, 680.1919
4740.610, 671.6505
4742.538, 672.8306
4744.467, 672.9639
4746.395, 679.3109
4748.324, 670.8261
4750.252, 671.7362
4752.181, 676.6463
4754.109, 675.9594
4756.038, 677.6125
4757.966, 672.3379
4759.895, 673.5714
4761.823, 673.0110
4763.751, 678.6497
4765.680, 679.3945
4767.608, 674.2374
4769.537, 669.1051
4771.465, 675.1900
4773.394, 670.6431
4775.322, 671.8321
4777.250, 667.0973
4779.179, 667.4770
4781.107, 667.7758
4783.036, 670.6964
4784.964, 665.6667
4786.893, 670.9498
4788.821, 670.2724
4790.750, 671.3507
4792.678, 672.2338
4794.607, 665.1183
4796.535, 664.5598
4798.464, 673.3833
4800.392, 667.8986
4802.321, 665.3018
4804.249, 664.7580
4806.178, 673.9027
4808.106, 674.0421
4810.035, 663.4169
4811.963, 672.1349
4813.892, 668.9526
4815.820, 669.3067
4817.749, 668.3705
4819.677, 667.8163
4821.605, 662.4041
4823.534, 663.3937
4825.462, 669.5890
4827.391, 666.9095
4829.319, 670.2605
4831.248, 662.6215
4833.176, 661.5060
4835.104, 664.6183
4837.033, 663.1046
4838.961, 663.6403
4840.890, 662.6290
4842.818, 660.9298
4844.747, 658.5963
4846.675, 657.1109
4848.604, 656.8304
4850.532, 658.1304
4852.461, 660.4141
4854.389, 662.3020
4856.318, 661.6191
4858.246, 655.8252
4860.175, 659.9873
4862.103, 656.0626
4864.032, 655.2502
4865.960, 658.5347
4867.889, 655.3444
4869.817, 652.8966
4871.746, 652.9271
4873.674, 655.5051
4875.603, 657.7388
4877.531, 659.0840
4879.459, 662.0065
4881.388, 661.3184
4883.316, 656.7735
4885.245, 650.5565
4887.173, 648.9883
4889.102, 652.6855
4891.030, 659.1160
4892.958, 658.4382
4894.887, 651.6311
4896.815, 649.4543
4898.744, 649.9113
4900.672, 652.2120
4902.601, 656.5732
4904.529, 658.6556
4906.458, 658.1534
4908.386, 657.1022
4910.315, 655.6486
4912.243, 654.2405
4914.172, 654.2039
4916.100, 655.8065
4918.029, 657.3427
4919.957, 652.3274
4921.886, 651.0748
4923.814, 653.2543
4925.743, 654.3417
4927.671, 653.1559
4929.600, 651.2419
4931.528, 652.5526
4933.457, 653.9024
4935.385, 653.7462
4937.313, 648.9805
4939.242, 646.0946
4941.170, 645.8176
4943.099, 648.7937
4945.027, 648.3057
4946.956, 646.7577
4948.884, 649.0292
4950.813, 649.5267
4952.741, 649.3381
4954.669, 650.1482
4956.598, 649.9968
4958.526, 650.0240
4960.455, 651.7531
4962.383, 651.6357
4964.312, 649.9276
4966.240, 646.8174
4968.169, 643.8681
4970.097, 641.8145
4972.026, 641.1252
4973.954, 643.5286
4975.883, 645.5478
4977.811, 645.2599
4979.740, 648.2151
4981.668, 650.5391
4983.597, 650.8583
4985.525, 650.5446
4987.454, 648.3385
4989.382, 644.9589
4991.311, 648.4330
4993.239, 648.7684
4995.167, 645.6609
4997.096, 647.5945
4999.024, 645.5895
5000.953, 641.8064
5002.881, 647.0055
5004.810, 646.0064
5006.738, 641.6973
5008.667, 642.3920
5010.595, 644.0021
5012.523, 644.5412
5014.452, 641.7810
5016.380, 638.4171
5018.309, 637.5541
5020.237, 641.9207
5022.166, 645.5774
5024.094, 645.6511
5026.023, 640.9188
5027.951, 642.1155
5029.880, 642.7715
5031.808, 640.1360
5033.737, 642.1115
5035.665, 645.7166
5037.594, 648.1700
5039.522, 639.9683
5041.451, 636.2503
5043.379, 638.1990
5045.308, 640.5685
5047.236, 640.7913
5049.165, 640.3870
5051.093, 642.8955
5053.021, 641.0526
5054.950, 637.8254
5056.878, 637.0042
5058.807, 639.0366
5060.735, 641.1432
5062.664, 641.5487
5064.592, 642.4800
5066.521, 640.9377
5068.449, 642.2735
5070.377, 640.2204
5072.306, 638.7238
5074.234, 638.8182
5076.163, 637.2330
5078.091, 638.8029
5080.020, 636.5492
5081.948, 637.6311
5083.877, 639.5072
5085.805, 641.7661
5087.734, 645.5932
5089.662, 641.8115
5091.591, 638.2001
5093.519, 640.7921
5095.448, 643.0257
5097.376, 642.3389
5099.305, 638.1786
5101.233, 640.2641
5103.162, 641.9028
5105.090, 641.9258
5107.019, 644.4469
5108.947, 643.5940
5110.875, 640.2676
5112.804, 637.0081
5114.732, 636.4858
5116.661, 637.4548
5118.589, 638.7751
5120.518, 638.9524
5122.446, 637.7648
5124.375, 635.6202
5126.303, 638.2358
5128.231, 642.1379
5130.160, 645.3210
5132.088, 645.3007
5134.017, 641.7620
5135.945, 637.7351
5137.874, 639.4327
5139.802, 637.7377
5141.731, 635.9913
5143.659, 639.3625
5145.588, 638.8830
5147.516, 638.1199
5149.445, 639.0541
5151.373, 639.2483
5153.302, 638.3221
5155.230, 637.6422
5157.159, 643.7764
5159.087, 642.6999
5161.016, 639.4483
5162.944, 647.7188
5164.873, 645.4981
5166.801, 640.6497
5168.729, 640.4052
5170.658, 643.0103
5172.586, 645.6693
5174.515, 646.8815
5176.443, 642.8903
5178.372, 643.0845
5180.300, 645.3212
5182.229, 639.8107
5184.157, 640.8002
5186.085, 644.6993
5188.014, 646.5325
5189.942, 646.1224
5191.871, 645.7110
5193.799, 646.4059
5195.728, 646.0966
5197.656, 646.1963
5199.585, 647.0822
5201.513, 646.5052
5203.442, 645.9353
5205.370, 645.9031
5207.299, 643.9200
5209.227, 643.8204
5211.156, 643.0009
5213.084, 639.3861
5215.013, 640.2522
5216.941, 645.8075
5218.870, 651.9755
5220.798, 649.4701
5222.727, 648.1114
5224.655, 649.6019
5226.583, 655.3242
5228.512, 653.7001
5230.440, 652.5027
5232.369, 653.9492
5234.297, 652.6649
5236.226, 649.0267
5238.154, 646.8932
5240.083, 654.5638
5242.011, 657.8694
5243.939, 655.3414
5245.868, 647.2782
5247.796, 646.6404
5249.725, 649.2055
5251.653, 652.6719
5253.582, 656.3588
5255.510, 654.4659
5257.439, 649.5877
5259.367, 644.4792
5261.296, 648.3376
5263.224, 650.7856
5265.153, 648.6009
5267.081, 654.0602
5269.010, 658.1534
5270.938, 658.0324
5272.867, 660.0676
5274.795, 655.2422
5276.724, 660.3840
5278.652, 652.3065
5280.581, 653.5070
5282.509, 654.3011
5284.438, 653.8907
5286.366, 659.0816
5288.294, 658.6150
5290.223, 655.9940
5292.151, 655.0262
5294.080, 659.6101
5296.008, 660.3708
5297.937, 657.0575
5299.865, 661.8030
5301.793, 666.6100
5303.722, 666.7940
5305.650, 657.8342
5307.579, 658.6627
5309.507, 661.2476
5311.436, 661.8651
5313.364, 663.2805
5315.293, 660.8080
5317.221, 657.2894
5319.150, 657.3821
5321.078, 654.8243
5323.007, 657.7220
5324.935, 658.3730
5326.864, 661.0311
5328.792, 660.9642
5330.721, 664.4889
5332.649, 662.0552
5334.578, 662.1856
5336.506, 663.5397
5338.435, 664.7003
5340.363, 663.5758
5342.292, 661.7126
5344.220, 660.6051
5346.148, 662.0463
5348.077, 663.6492
5350.005, 665.3934
5351.934, 666.6508
5353.862, 667.3825
5355.791, 664.7732
5357.719, 667.9575
5359.647, 664.8710
5361.576, 664.0729
5363.504, 664.8783
5365.433, 666.9348
5367.361, 672.7361
5369.290, 673.0035
5371.218, 669.9928
5373.147, 667.4749
5375.075, 665.1215
5377.004, 663.0298
5378.932, 662.9116
5380.861, 671.7854
5382.789, 672.6194
5384.718, 672.5399
5386.646, 678.9386
5388.575, 671.5938
5390.503, 673.9650
5392.432, 681.9868
5394.360, 673.8362
5396.289, 675.2318
5398.217, 677.0781
5400.146, 673.5061
5402.074, 674.5324
5404.002, 677.5697
5405.931, 679.3057
5407.859, 682.3633
5409.788, 681.9609
5411.716, 687.5952
5413.645, 687.5256
5415.573, 687.1484
5417.501, 683.2770
5419.430, 680.1864
5421.358, 681.6650
5423.287, 678.5721
5425.215, 676.8809
5427.144, 677.2160
5429.072, 676.9343
5431.001, 680.4141
5432.929, 685.2038
5434.858, 688.3942
5436.786, 680.7152
5438.715, 683.4888
5440.643, 688.6832
5442.572, 684.5327
5444.500, 688.5509
5446.429, 690.7130
5448.357, 689.1882
5450.286, 688.0753
5452.214, 680.3317
5454.143, 682.1789
5456.071, 697.1539
5458.000, 691.4222
5459.928, 694.1667
5461.856, 698.8448
5463.785, 693.6833
5465.713, 693.2795
5467.642, 695.3488
5469.570, 696.9288
5471.499, 693.1988
5473.427, 693.0549
5475.355, 693.9739
5477.284, 694.7941
5479.212, 694.9661
5481.141, 697.6124
5483.069, 695.7921
5484.998, 699.0167
5486.926, 699.7429
5488.855, 699.0865
5490.783, 698.1033
5492.712, 697.5052
5494.640, 698.2430
5496.569, 703.1454
5498.497, 699.9564
5500.426, 703.6995
5502.354, 704.2188
5504.283, 701.0616
5506.211, 696.8610
5508.140, 705.0109
5510.068, 708.2592
5511.997, 707.2096
5513.925, 705.0702
5515.854, 710.0765
5517.782, 712.5381
5519.710, 712.1912
5521.639, 712.4648
5523.567, 712.3569
5525.496, 712.1793
5527.424, 712.0706
5529.353, 712.3145
5531.281, 712.9219
5533.209, 713.3073
5535.138, 714.7568
5537.066, 714.1985
5538.995, 715.2785
5540.923, 714.8604
5542.852, 711.4203
5544.780, 712.7119
5546.709, 715.5948
5548.637, 719.3348
5550.566, 723.3643
5552.494, 720.3372
5554.423, 720.8145
5556.351, 722.8051
5558.280, 719.0934
5560.208, 718.1418
5562.137, 717.3890
5564.065, 717.9218
5565.994, 724.9268
5567.922, 722.1287
5569.851, 724.4388
5571.779, 732.6180
5573.708, 731.3863
5575.636, 725.0622
5577.564, 723.5529
5579.493, 729.0475
5581.421, 730.6268
5583.350, 735.2873
5585.278, 739.5309
5587.207, 740.2573
5589.135, 741.3453
5591.063, 741.5463
5592.992, 737.0794
5594.920, 740.1503
5596.849, 732.4241
5598.777, 732.0320
5600.706, 735.4118
5602.634, 736.9600
5604.563, 739.9128
5606.491, 746.6420
5608.420, 745.7620
5610.348, 749.6907
5612.277, 750.2809
5614.205, 747.2742
5616.134, 745.2039
5618.062, 749.8900
5619.991, 743.3616
5621.919, 740.7047
5623.848, 744.2785
5625.776, 751.2933
5627.705, 748.9526
5629.633, 751.0530
5631.562, 754.0383
5633.490, 748.2606
5635.418, 749.9645
5637.347, 750.3658
5639.275, 749.3779
5641.204, 751.4843
5643.132, 752.7569
5645.061, 754.2164
5646.989, 757.1476
5648.917, 763.4000
5650.846, 757.9818
5652.774, 752.6615
5654.703, 751.9493
5656.631, 756.5881
5658.560, 761.6864
5660.488, 763.6729
5662.417, 766.5756
5664.345, 765.5635
5666.274, 768.9465
5668.202, 768.9796
5670.131, 768.1403
5672.059, 771.7914
5673.988, 779.4191
5675.916, 779.3468
5677.845, 773.6237
5679.773, 768.6208
5681.702, 778.2127
5683.630, 781.0411
5685.559, 777.8366
5687.487, 775.4919
5689.416, 776.5547
5691.344, 780.1653
5693.272, 780.6467
5695.201, 775.0677
5697.129, 785.3784
5699.058, 781.4623
5700.986, 778.7321
5702.915, 791.3640
5704.843, 787.4440
5706.771, 790.7766
5708.700, 791.6149
5710.628, 783.9420
5712.557, 784.6375
5714.485, 791.9944
5716.414, 793.7199
5718.342, 788.4028
5720.271, 794.1117
5722.199, 800.9471
5724.128, 800.6310
5726.056, 794.1455
5727.985, 791.1910
5729.913, 791.8945
5731.842, 794.1033
5733.770, 796.7766
5735.699, 799.9687
5737.627, 799.4763
5739.556, 801.1924
5741.484, 803.5031
5743.413, 801.2029
5745.341, 808.4749
5747.270, 812.2262
5749.198, 810.0902
5751.126, 814.7551
5753.055, 813.2233
5754.983, 816.3330
5756.912, 814.7489
5758.840, 812.5435
5760.769, 813.5119
5762.697, 816.9526
5764.625, 817.0336
5766.554, 814.2551
5768.482, 816.5426
5770.411, 815.6981
5772.339, 815.0473
5774.268, 819.2369
5776.196, 814.9484
5778.125, 822.5261
5780.053, 825.0569
5781.982, 827.1021
5783.910, 836.6873
5785.839, 824.5692
5787.767, 824.0970
5789.696, 827.7913
5791.624, 827.3213
5793.553, 826.4130
5795.481, 831.8109
5797.410, 839.1951
5799.338, 843.5756
5801.267, 840.6484
5803.195, 836.4188
5805.124, 837.3605
5807.052, 840.5741
5808.980, 841.1144
5810.909, 841.6172
5812.837, 844.5197
5814.766, 847.5749
5816.694, 849.1577
5818.623, 851.2158
5820.551, 852.0118
5822.479, 848.8480
5824.408, 852.8400
5826.336, 849.3885
5828.265, 849.6169
5830.193, 848.8107
5832.122, 846.4190
5834.050, 844.7130
5835.979, 858.6382
5837.907, 858.8251
5839.836, 860.4821
5841.764, 869.0049
5843.693, 864.7402
5845.621, 868.0458
5847.550, 870.6562
5849.478, 869.4886
5851.407, 871.7310
5853.335, 871.7914
5855.264, 872.3174
5857.192, 869.8875
5859.121, 868.7563
5861.049, 872.0993
5862.978, 876.4983
5864.906, 879.3441
5866.834, 880.1956
5868.763, 879.6495
5870.691, 880.5048
5872.620, 882.9918
5874.548, 883.9626
5876.477, 885.0605
5878.405, 883.5950
5880.333, 887.1910
5882.262, 887.6375
5884.190, 889.3484
5886.119, 902.0264
5888.047, 890.0316
5889.976, 896.0157
5891.904, 901.4457
5893.833, 891.9699
5895.761, 895.8918
5897.690, 901.4606
5899.618, 899.8918
5901.547, 897.4382
5903.475, 904.6852
5905.404, 905.7756
5907.332, 904.7314
5909.261, 906.0527
5911.189, 908.7977
5913.118, 903.6605
5915.046, 897.8878
5916.975, 905.6652
5918.903, 902.5032
5920.832, 914.9108
5922.760, 907.0049
5924.688, 908.1028
5926.617, 911.4774
5928.545, 913.9778
5930.474, 918.5003
5932.402, 926.7747
5934.331, 926.1337
5936.259, 926.0790
5938.188, 931.5992
5940.116, 920.3766
5942.044, 922.0411
5943.973, 926.3903
5945.901, 929.1264
5947.830, 930.8171
5949.758, 936.4213
5951.687, 928.9686
5953.615, 930.4775
5955.544, 940.1510
5957.472, 934.6882
5959.401, 934.7397
5961.329, 935.7963
5963.258, 936.6523
5965.186, 938.7051
5967.115, 945.8496
5969.043, 951.9818
5970.972, 953.3679
5972.900, 948.8165
5974.829, 941.8894
5976.757, 950.4996
5978.686, 954.4443
5980.614, 959.9421
5982.542, 965.4097
5984.471, 965.4973
5986.399, 970.5400
5988.328, 965.6926
5990.256, 956.4139
5992.185, 951.6621
5994.113, 957.9109
5996.042, 955.7197
5997.970, 954.4532
5999.898, 956.8596
6001.827, 956.7560
6003.755, 960.5774
6005.684, 961.2418
6007.612, 964.9518
6009.541, 969.6390
6011.469, 971.9842
6013.398, 972.1632
6015.326, 966.5215
6017.255, 970.1010
6019.183, 971.5427
6021.112, 970.2888
6023.040, 971.9211
6024.969, 972.8760
6026.897, 977.3923
6028.826, 975.8419
6030.754, 978.4923
6032.683, 980.4175
6034.611, 988.1945
6036.540, 987.1811
6038.468, 985.8224
6040.396, 994.3030
6042.325, 993.7292
6044.253, 993.6553
6046.182, 993.2429
6048.110, 990.6462
6050.039, 986.8078
6051.967, 997.3038
6053.896, 993.5793
6055.824, 994.6819
6057.752, 999.8859
6059.681, 1001.340
6061.609, 1004.581
6063.538, 1001.551
6065.466, 1000.948
6067.395, 999.2162
6069.323, 995.0123
6071.252, 997.7729
6073.180, 999.7182
6075.109, 1005.121
6077.037, 1005.936
6078.966, 1016.511
6080.894, 1014.274
6082.823, 1014.129
6084.751, 1006.150
6086.680, 1008.968
6088.608, 1025.854
6090.537, 1012.010
6092.465, 1021.704
6094.394, 1023.009
6096.322, 1022.171
6098.250, 1022.946
6100.179, 1008.530
6102.107, 1019.654
6104.036, 1017.560
6105.964, 1020.516
6107.893, 1029.944
6109.821, 1020.783
6111.750, 1026.715
6113.678, 1026.419
6115.606, 1023.411
6117.535, 1022.086
6119.463, 1023.849
6121.392, 1024.364
6123.320, 1025.934
6125.249, 1029.983
6127.177, 1028.596
6129.106, 1032.611
6131.034, 1030.750
6132.963, 1032.590
6134.891, 1033.614
6136.820, 1036.483
6138.748, 1042.468
6140.677, 1045.518
6142.605, 1046.809
6144.534, 1046.474
6146.462, 1046.044
6148.391, 1044.586
6150.319, 1040.021
6152.248, 1043.923
6154.176, 1058.537
6156.104, 1059.287
6158.033, 1055.979
6159.961, 1066.478
6161.890, 1063.977
6163.818, 1061.829
6165.747, 1059.796
6167.675, 1059.525
6169.604, 1060.658
6171.532, 1058.767
6173.460, 1054.810
6175.389, 1063.688
6177.317, 1069.452
6179.246, 1065.238
6181.174, 1056.599
6183.103, 1065.559
6185.031, 1064.074
6186.960, 1071.685
6188.888, 1078.296
6190.817, 1073.979
6192.745, 1069.840
6194.674, 1081.961
6196.602, 1077.374
6198.531, 1071.006
6200.459, 1071.223
6202.388, 1073.951
6204.316, 1077.453
6206.245, 1081.348
6208.173, 1083.875
6210.102, 1083.103
6212.030, 1081.622
6213.958, 1089.357
6215.887, 1084.582
6217.815, 1089.148
6219.744, 1090.298
6221.672, 1088.909
6223.601, 1090.333
6225.529, 1094.880
6227.458, 1097.888
6229.386, 1099.438
6231.314, 1095.183
6233.243, 1098.410
6235.171, 1098.630
6237.100, 1098.721
6239.028, 1102.983
6240.957, 1099.542
6242.885, 1103.726
6244.814, 1104.858
6246.742, 1107.378
6248.671, 1106.872
6250.599, 1107.293
6252.528, 1110.729
6254.456, 1112.486
6256.385, 1111.608
6258.313, 1114.180
6260.242, 1110.573
6262.170, 1112.376
6264.099, 1116.512
6266.027, 1115.756
6267.956, 1118.353
6269.884, 1119.665
6271.813, 1115.157
6273.741, 1120.754
6275.669, 1121.971
6277.598, 1118.694
6279.526, 1123.925
6281.455, 1121.255
6283.383, 1121.396
6285.312, 1123.653
6287.240, 1123.693
6289.168, 1127.212
6291.097, 1127.367
6293.025, 1127.216
6294.954, 1128.369
6296.882, 1125.804
6298.811, 1130.118
6300.739, 1129.723
6302.668, 1131.660
6304.596, 1134.120
6306.525, 1132.518
6308.453, 1135.204
6310.382, 1131.224
6312.310, 1132.810
6314.239, 1133.791
6316.167, 1138.328
6318.096, 1134.356
6320.024, 1135.763
6321.953, 1139.458
6323.881, 1139.938
6325.810, 1141.754
6327.738, 1139.592
6329.667, 1141.155
6331.595, 1141.683
6333.523, 1145.759
6335.452, 1147.024
6337.380, 1144.898
6339.309, 1142.782
6341.237, 1147.089
6343.166, 1145.296
6345.094, 1146.785
6347.022, 1144.871
6348.951, 1145.884
6350.879, 1146.844
6352.808, 1149.302
6354.736, 1147.195
6356.665, 1150.995
6358.593, 1151.371
6360.522, 1152.748
6362.450, 1154.006
6364.379, 1150.674
6366.307, 1151.094
6368.236, 1156.887
6370.164, 1156.000
6372.093, 1152.000
6374.021, 1155.466
6375.950, 1165.730
6377.878, 1156.413
6379.807, 1163.666
6381.735, 1165.443
6383.664, 1163.049
6385.592, 1166.190
6387.521, 1166.002
6389.449, 1158.883
6391.377, 1154.990
6393.306, 1158.058
6395.234, 1168.014
6397.163, 1174.848
6399.091, 1170.252
6401.020, 1175.171
6402.948, 1176.749
6404.876, 1166.643
6406.805, 1161.759
6408.733, 1163.235
6410.662, 1166.852
6412.590, 1166.052
6414.519, 1169.412
6416.447, 1169.502
6418.376, 1171.299
6420.304, 1178.961
6422.233, 1175.927
6424.161, 1177.376
6426.090, 1181.968
6428.018, 1176.064
6429.947, 1173.260
6431.875, 1171.244
6433.804, 1172.403
6435.732, 1176.288
6437.661, 1178.794
6439.589, 1182.608
6441.518, 1179.527
6443.446, 1179.299
6445.375, 1181.004
6447.303, 1183.698
6449.231, 1184.329
6451.160, 1179.614
6453.088, 1191.057
6455.017, 1174.074
6456.945, 1180.964
6458.874, 1189.356
6460.802, 1185.131
6462.730, 1179.807
6464.659, 1190.662
6466.587, 1190.440
6468.516, 1199.055
6470.444, 1198.392
6472.373, 1188.538
6474.301, 1189.988
6476.230, 1194.299
6478.158, 1171.460
6480.087, 1190.515
6482.015, 1184.469
6483.944, 1196.527
6485.872, 1199.977
6487.801, 1198.055
6489.729, 1200.417
6491.658, 1197.661
6493.586, 1196.796
6495.515, 1196.433
6497.443, 1197.580
6499.372, 1201.773
6501.300, 1201.495
6503.229, 1199.017
6505.157, 1201.926
6507.085, 1196.102
6509.014, 1205.093
6510.942, 1199.199
6512.871, 1200.227
6514.799, 1204.098
6516.728, 1204.712
6518.656, 1204.432
6520.584, 1205.127
6522.513, 1207.135
6524.441, 1203.408
6526.370, 1203.035
6528.298, 1202.928
6530.227, 1205.718
6532.155, 1208.446
6534.084, 1201.573
6536.012, 1215.436
6537.941, 1202.188
6539.869, 1205.751
6541.798, 1212.220
6543.726, 1215.128
6545.655, 1213.340
6547.583, 1208.505
6549.512, 1209.979
6551.440, 1207.070
6553.369, 1212.245
6555.297, 1213.214
6557.226, 1208.627
6559.154, 1209.568
6561.083, 1216.427
6563.011, 1216.881
6564.939, 1202.406
6566.868, 1220.244
6568.796, 1208.978
6570.725, 1213.258
6572.653, 1223.302
6574.582, 1222.828
6576.510, 1218.642
6578.438, 1223.940
6580.367, 1216.824
6582.295, 1217.822
6584.224, 1220.787
6586.152, 1222.402
6588.081, 1222.079
6590.009, 1222.581
6591.938, 1223.636
6593.866, 1220.618
6595.795, 1215.112
6597.723, 1221.096
6599.652, 1220.925
6601.580, 1228.736
6603.509, 1232.193
6605.437, 1230.554
6607.366, 1231.267
6609.294, 1232.704
6611.223, 1225.856
6613.151, 1224.223
6615.080, 1220.645
6617.008, 1221.148
6618.937, 1224.018
6620.865, 1223.243
6622.793, 1222.051
6624.722, 1224.178
6626.650, 1216.903
6628.579, 1232.780
6630.507, 1234.284
##END=



