##NAMES=Emeleusite
##RRUFFID=R061034
##IDEAL CHEMISTRY=Na_2_LiFe^3+^Si_6_O_15_
##LOCALITY=Igdlutalig, Ilimaussaq, Greenland
##OWNER=RRUFF
##SOURCE=Michael Scott
##DESCRIPTION=Light pink massive associated with albite and aegirine, co-type specimen
##STATUS=The identification of this mineral has been confirmed by X-ray diffraction and chemical analysis
##URL=https://www.rruff.net/odr/rruff_sample/R061034
##MEASURED CHEMISTRY=(Na_1.57_K_0.43_)Li_1.00_(Fe^3+^_0.77_Al_0.18_Ti_0.02_Mg_0.02_)Si_6.00_O_15_ ; (lighter areas) Li estimated by difference  dark: albite
##DIFFRACTION SAMPLE DESCRIPTION=Powder
##CELL PARAMETERS=a: 10.047 b: 17.417 c: 14.048 alpha: 90 beta: 90 gamma: 90 volume: 2458.3 crystal system: orthorhombic
##FILETYPE=Raman RAW
##RAMAN WAVELENGTH=785

142.7080, 2357.736
144.6365, 2820.013
146.5649, 3386.860
148.4934, 3846.383
150.4219, 4162.546
152.3503, 4378.774
154.2788, 4427.981
156.2073, 4438.376
158.1357, 4498.320
160.0642, 4600.717
161.9927, 4738.463
163.9211, 4934.260
165.8496, 5108.134
167.7781, 5258.433
169.7065, 5381.880
171.6350, 5468.371
173.5635, 5530.138
175.4919, 5580.746
177.4204, 5618.015
179.3489, 5665.791
181.2773, 5731.993
183.2058, 5800.025
185.1343, 5868.731
187.0627, 5935.631
188.9912, 6000.681
190.9197, 6062.559
192.8481, 6114.134
194.7766, 6145.043
196.7051, 6186.481
198.6335, 6251.207
200.5620, 6314.459
202.4905, 6360.852
204.4189, 6400.277
206.3474, 6447.010
208.2759, 6502.490
210.2043, 6552.054
212.1328, 6596.148
214.0613, 6632.992
215.9897, 6653.918
217.9182, 6675.151
219.8467, 6708.365
221.7751, 6751.060
223.7036, 6798.804
225.6321, 6856.049
227.5605, 6904.657
229.4890, 6936.377
231.4175, 6969.476
233.3459, 7003.392
235.2744, 7046.959
237.2029, 7114.371
239.1313, 7201.424
241.0598, 7268.795
242.9883, 7294.681
244.9167, 7336.683
246.8452, 7413.516
248.7737, 7486.935
250.7021, 7532.664
252.6306, 7569.049
254.5591, 7613.362
256.4875, 7664.996
258.4160, 7737.842
260.3445, 7854.317
262.2729, 7957.499
264.2014, 8043.904
266.1299, 8115.766
268.0583, 8164.471
269.9868, 8204.336
271.9153, 8257.020
273.8438, 8325.420
275.7722, 8381.862
277.7007, 8398.408
279.6292, 8448.462
281.5576, 8554.256
283.4861, 8679.644
285.4146, 8818.396
287.3430, 8956.276
289.2715, 9080.616
291.2000, 9197.179
293.1284, 9243.573
295.0569, 9166.027
296.9854, 9119.120
298.9138, 9136.529
300.8423, 9169.830
302.7708, 9191.472
304.6992, 9213.054
306.6277, 9251.446
308.5562, 9307.503
310.4846, 9366.205
312.4131, 9442.636
314.3416, 9490.167
316.2700, 9470.973
318.1985, 9468.063
320.1270, 9534.813
322.0554, 9632.369
323.9839, 9726.861
325.9124, 9817.249
327.8408, 9895.552
329.7693, 9953.603
331.6978, 10017.63
333.6262, 10095.12
335.5547, 10167.77
337.4832, 10236.13
339.4116, 10289.29
341.3401, 10307.15
343.2686, 10304.33
345.1970, 10331.34
347.1255, 10396.57
349.0540, 10464.50
350.9824, 10537.23
352.9109, 10607.70
354.8394, 10674.58
356.7678, 10736.12
358.6963, 10784.57
360.6248, 10829.97
362.5532, 10893.75
364.4817, 10976.43
366.4102, 11030.50
368.3386, 11039.72
370.2671, 11076.98
372.1956, 11168.56
374.1240, 11258.41
376.0525, 11321.73
377.9810, 11371.59
379.9094, 11415.82
381.8379, 11454.94
383.7664, 11487.10
385.6948, 11508.13
387.6233, 11553.26
389.5518, 11631.31
391.4802, 11708.70
393.4087, 11775.66
395.3372, 11843.67
397.2656, 11922.44
399.1941, 12001.57
401.1226, 12070.57
403.0510, 12129.35
404.9795, 12174.13
406.9080, 12195.56
408.8364, 12258.05
410.7649, 12380.79
412.6934, 12499.59
414.6218, 12599.75
416.5503, 12685.65
418.4788, 12745.60
420.4072, 12805.52
422.3357, 12891.36
424.2642, 13004.05
426.1926, 13159.20
428.1211, 13365.98
430.0496, 13542.69
431.9780, 13692.92
433.9065, 13785.18
435.8350, 13775.68
437.7634, 13755.87
439.6919, 13764.04
441.6204, 13793.67
443.5488, 13843.64
445.4773, 13909.39
447.4058, 13970.13
449.3342, 14024.77
451.2627, 14088.20
453.1912, 14166.73
455.1196, 14226.62
457.0481, 14240.94
458.9766, 14264.43
460.9050, 14319.25
462.8335, 14394.98
464.7620, 14491.98
466.6904, 14602.12
468.6189, 14692.43
470.5474, 14766.85
472.4758, 14927.57
474.4043, 15193.65
476.3328, 15419.04
478.2612, 15592.79
480.1897, 15686.46
482.1182, 15641.42
484.0466, 15561.51
485.9751, 15465.96
487.9036, 15388.09
489.8320, 15379.73
491.7605, 15426.80
493.6890, 15466.26
495.6174, 15499.73
497.5459, 15567.17
499.4744, 15662.42
501.4028, 15851.69
503.3313, 16225.00
505.2598, 16552.55
507.1882, 16798.31
509.1167, 16917.39
511.0452, 16804.71
512.9736, 16595.18
514.9021, 16477.80
516.8306, 16436.22
518.7590, 16397.85
520.6875, 16363.46
522.6160, 16350.21
524.5444, 16361.23
526.4729, 16390.65
528.4014, 16437.36
530.3298, 16504.32
532.2583, 16606.51
534.1868, 16710.35
536.1152, 16800.11
538.0437, 16875.52
539.9722, 16926.12
541.9006, 16963.05
543.8291, 17023.50
545.7576, 17104.57
547.6860, 17188.57
549.6145, 17276.73
551.5430, 17345.57
553.4714, 17373.22
555.3999, 17424.41
557.3284, 17538.24
559.2568, 17651.65
561.1853, 17739.07
563.1138, 17815.15
565.0422, 17896.43
566.9707, 17973.19
568.8992, 18017.54
570.8276, 18043.31
572.7561, 18101.90
574.6846, 18193.20
576.6130, 18291.05
578.5415, 18395.54
580.4700, 18494.60
582.3984, 18588.33
584.3269, 18671.17
586.2554, 18737.44
588.1838, 18797.08
590.1123, 18841.69
592.0408, 18892.66
593.9692, 18975.55
595.8977, 19072.95
597.8262, 19162.63
599.7546, 19242.93
601.6831, 19301.56
603.6116, 19342.24
605.5400, 19403.89
607.4685, 19493.28
609.3970, 19589.64
611.3254, 19699.87
613.2539, 19796.67
615.1824, 19864.84
617.1108, 19932.30
619.0393, 19996.82
620.9678, 20075.43
622.8962, 20189.38
624.8247, 20314.45
626.7532, 20433.26
628.6816, 20538.18
630.6101, 20610.69
632.5386, 20658.27
634.4670, 20706.39
636.3955, 20755.75
638.3240, 20816.72
640.2524, 20891.69
642.1809, 20973.17
644.1094, 21064.37
646.0378, 21158.58
647.9663, 21260.01
649.8948, 21360.13
651.8232, 21457.43
653.7517, 21551.88
655.6802, 21645.49
657.6086, 21732.14
659.5371, 21797.58
661.4656, 21855.77
663.3940, 21932.14
665.3225, 22016.58
667.2510, 22078.04
669.1794, 22120.89
671.1079, 22188.44
673.0364, 22287.64
674.9648, 22379.87
676.8933, 22454.75
678.8218, 22543.48
680.7502, 22671.54
682.6787, 22772.22
684.6072, 22813.17
686.5356, 22856.03
688.4641, 22918.98
690.3926, 22993.08
692.3210, 23077.17
694.2495, 23167.69
696.1780, 23270.91
698.1064, 23372.38
700.0349, 23447.40
701.9634, 23511.29
703.8918, 23595.96
705.8203, 23697.14
707.7488, 23794.15
709.6772, 23885.87
711.6057, 23976.16
713.5342, 24063.06
715.4626, 24153.02
717.3911, 24244.29
719.3196, 24342.61
721.2480, 24469.29
723.1765, 24569.13
725.1050, 24626.98
727.0334, 24671.63
728.9619, 24689.31
730.8904, 24729.39
732.8188, 24821.98
734.7473, 24937.41
736.6758, 25070.48
738.6042, 25198.72
740.5327, 25288.68
742.4612, 25370.75
744.3896, 25496.95
746.3181, 25643.74
748.2466, 25755.40
750.1750, 25838.72
752.1035, 25923.86
754.0320, 26011.60
755.9604, 26102.79
757.8889, 26192.86
759.8174, 26311.61
761.7458, 26474.39
763.6743, 26616.95
765.6028, 26746.77
767.5313, 26825.18
769.4597, 26812.46
771.3882, 26839.19
773.3167, 26959.61
775.2451, 27070.10
777.1736, 27133.75
779.1021, 27192.93
781.0305, 27262.68
782.9590, 27340.52
784.8875, 27418.98
786.8159, 27509.51
788.7444, 27626.18
790.6729, 27748.97
792.6013, 27862.51
794.5298, 27969.04
796.4583, 28073.76
798.3867, 28173.24
800.3152, 28252.53
802.2437, 28322.57
804.1721, 28423.83
806.1006, 28544.99
808.0291, 28620.92
809.9575, 28654.24
811.8860, 28729.79
813.8145, 28852.79
815.7429, 28950.97
817.6714, 29026.61
819.5999, 29088.44
821.5283, 29137.83
823.4568, 29184.52
825.3853, 29224.30
827.3137, 29293.96
829.2422, 29403.04
831.1707, 29521.56
833.0991, 29654.54
835.0276, 29748.21
836.9561, 29761.78
838.8845, 29801.81
840.8130, 29913.63
842.7415, 30039.86
844.6699, 30172.57
846.5984, 30287.68
848.5269, 30356.65
850.4553, 30424.84
852.3838, 30511.30
854.3123, 30605.82
856.2407, 30711.10
858.1692, 30812.92
860.0977, 30903.95
862.0261, 30986.29
863.9546, 31048.11
865.8831, 31118.49
867.8115, 31238.66
869.7400, 31382.98
871.6685, 31533.89
873.5969, 31669.38
875.5254, 31725.64
877.4539, 31749.27
879.3823, 31849.03
881.3108, 31991.90
883.2393, 32082.12
885.1677, 32142.44
887.0962, 32269.21
889.0247, 32438.56
890.9531, 32543.66
892.8816, 32597.50
894.8101, 32668.37
896.7385, 32754.10
898.6670, 32807.71
900.5955, 32840.04
902.5239, 32955.14
904.4524, 33146.34
906.3809, 33284.41
908.3093, 33363.14
910.2378, 33444.54
912.1663, 33530.85
914.0947, 33632.66
916.0232, 33750.14
917.9517, 33859.18
919.8801, 33956.46
921.8086, 34088.00
923.7371, 34269.16
925.6655, 34380.82
927.5940, 34400.20
929.5225, 34432.75
931.4509, 34490.80
933.3794, 34586.82
935.3079, 34737.26
937.2363, 34864.09
939.1648, 34948.87
941.0933, 35035.78
943.0217, 35117.56
944.9502, 35238.64
946.8787, 35421.60
948.8071, 35583.46
950.7356, 35702.08
952.6641, 35813.39
954.5925, 35923.28
956.5210, 36021.66
958.4495, 36098.50
960.3779, 36188.01
962.3064, 36336.39
964.2349, 36424.10
966.1633, 36374.00
968.0918, 36379.78
970.0203, 36490.17
971.9487, 36620.92
973.8772, 36781.72
975.8057, 36924.22
977.7341, 37053.36
979.6626, 37139.47
981.5911, 37104.56
983.5195, 37155.23
985.4480, 37410.26
987.3765, 37598.83
989.3049, 37618.92
991.2334, 37677.43
993.1619, 37817.53
995.0903, 37978.93
997.0188, 38177.45
998.9473, 38347.16
1000.876, 38451.01
1002.804, 38569.87
1004.733, 38737.28
1006.661, 38880.03
1008.590, 38972.79
1010.518, 39075.21
1012.447, 39221.02
1014.375, 39335.27
1016.303, 39396.13
1018.232, 39451.08
1020.160, 39488.66
1022.089, 39543.79
1024.017, 39620.79
1025.946, 39704.84
1027.874, 39795.77
1029.803, 39892.71
1031.731, 40001.81
1033.660, 40113.25
1035.588, 40246.05
1037.517, 40342.46
1039.445, 40373.91
1041.374, 40426.61
1043.302, 40504.45
1045.230, 40580.53
1047.159, 40650.54
1049.087, 40729.34
1051.016, 40831.70
1052.944, 40890.40
1054.873, 40890.20
1056.801, 40960.75
1058.730, 41125.82
1060.658, 41191.55
1062.587, 41141.61
1064.515, 41214.21
1066.444, 41411.66
1068.372, 41528.60
1070.301, 41569.46
1072.229, 41703.83
1074.157, 41915.55
1076.086, 42045.39
1078.014, 42111.35
1079.943, 42226.05
1081.871, 42370.97
1083.800, 42469.39
1085.728, 42534.20
1087.657, 42596.58
1089.585, 42661.36
1091.514, 42747.58
1093.442, 42840.64
1095.371, 42894.95
1097.299, 42955.93
1099.228, 43115.25
1101.156, 43302.59
1103.084, 43423.73
1105.013, 43530.24
1106.941, 43678.97
1108.870, 43829.41
1110.798, 43930.00
1112.727, 44033.04
1114.655, 44197.88
1116.584, 44337.61
1118.512, 44410.30
1120.441, 44436.75
1122.369, 44382.09
1124.298, 44381.68
1126.226, 44514.42
1128.155, 44662.91
1130.083, 44817.91
1132.011, 44898.25
1133.940, 44839.00
1135.868, 44885.93
1137.797, 45116.28
1139.725, 45293.02
1141.654, 45368.09
1143.582, 45431.54
1145.511, 45493.21
1147.439, 45538.59
1149.368, 45567.59
1151.296, 45629.82
1153.225, 45726.93
1155.153, 45842.47
1157.082, 45968.22
1159.010, 46039.96
1160.938, 46073.82
1162.867, 46109.23
1164.795, 46163.18
1166.724, 46298.54
1168.652, 46462.20
1170.581, 46543.43
1172.509, 46607.07
1174.438, 46756.07
1176.366, 46910.13
1178.295, 46994.88
1180.223, 47042.33
1182.152, 47033.08
1184.080, 47060.90
1186.009, 47227.11
1187.937, 47362.61
1189.865, 47363.30
1191.794, 47395.75
1193.722, 47516.99
1195.651, 47629.21
1197.579, 47728.75
1199.508, 47780.58
1201.436, 47773.59
1203.365, 47792.00
1205.293, 47843.27
1207.222, 47934.17
1209.150, 48056.30
1211.079, 48133.11
1213.007, 48182.89
1214.936, 48323.43
1216.864, 48499.46
1218.792, 48557.09
1220.721, 48565.60
1222.649, 48630.08
1224.578, 48715.13
1226.506, 48781.46
1228.435, 48849.56
1230.363, 48977.79
1232.292, 49053.38
1234.220, 48936.77
1236.149, 48883.41
1238.077, 49027.38
1240.006, 49184.47
1241.934, 49342.04
1243.863, 49445.25
1245.791, 49450.68
1247.719, 49526.88
1249.648, 49689.77
1251.576, 49816.61
1253.505, 49905.11
1255.433, 49954.91
1257.362, 49982.30
1259.290, 50049.98
1261.219, 50144.37
1263.147, 50242.90
1265.076, 50339.25
1267.004, 50431.73
1268.933, 50507.89
1270.861, 50562.11
1272.790, 50587.20
1274.718, 50549.67
1276.646, 50544.63
1278.575, 50607.09
1280.503, 50717.21
1282.432, 50916.10
1284.360, 51047.42
1286.289, 51085.65
1288.217, 51108.32
1290.146, 51111.28
1292.074, 51190.70
1294.003, 51332.69
1295.931, 51513.42
1297.860, 51686.28
1299.788, 51747.05
1301.717, 51748.17
1303.645, 51701.32
1305.573, 51695.63
1307.502, 51827.64
1309.430, 51938.86
1311.359, 51966.70
1313.287, 51930.34
1315.216, 51794.48
1317.144, 51794.20
1319.073, 52003.85
1321.001, 52101.99
1322.930, 52076.01
1324.858, 52116.00
1326.787, 52212.93
1328.715, 52356.32
1330.644, 52492.80
1332.572, 52460.45
1334.500, 52423.59
1336.429, 52617.43
1338.357, 52794.70
1340.286, 52789.33
1342.214, 52801.31
1344.143, 52912.95
1346.071, 52999.63
1348.000, 53033.84
1349.928, 53058.49
1351.857, 53077.78
1353.785, 53167.37
1355.714, 53308.92
1357.642, 53417.40
1359.571, 53486.39
1361.499, 53473.84
1363.427, 53453.95
1365.356, 53560.16
1367.284, 53634.75
1369.213, 53515.53
1371.141, 53463.28
1373.070, 53564.91
1374.998, 53678.36
1376.927, 53780.37
1378.855, 53793.30
1380.784, 53727.25
1382.712, 53857.14
1384.641, 54104.23
1386.569, 54193.24
1388.498, 54190.46
1390.426, 54153.54
1392.354, 54143.70
1394.283, 54266.26
1396.211, 54347.71
1398.140, 54270.50
1400.068, 54238.23
1401.997, 54289.07
1403.925, 54349.03
1405.854, 54409.59
1407.782, 54413.11
1409.711, 54399.76
1411.639, 54562.27
1413.568, 54771.97
1415.496, 54806.29
1417.425, 54812.68
1419.353, 54938.62
1421.281, 55035.20
1423.210, 54965.17
1425.138, 55004.36
1427.067, 55227.68
1428.995, 55347.59
1430.924, 55353.93
1432.852, 55339.80
1434.781, 55313.05
1436.709, 55255.69
1438.638, 55222.69
1440.566, 55323.73
1442.495, 55409.63
1444.423, 55354.80
1446.352, 55310.38
1448.280, 55339.92
1450.208, 55354.34
1452.137, 55341.50
1454.065, 55432.00
1455.994, 55590.46
1457.922, 55550.91
1459.851, 55449.50
1461.779, 55544.20
1463.708, 55645.72
1465.636, 55563.04
1467.565, 55518.14
1469.493, 55647.85
1471.422, 55708.52
1473.350, 55644.65
1475.279, 55647.12
1477.207, 55711.35
1479.135, 55782.11
1481.064, 55837.34
1482.992, 55793.13
1484.921, 55767.50
1486.849, 55862.17
1488.778, 55963.67
1490.706, 56034.80
1492.635, 56056.52
1494.563, 56002.17
1496.492, 56020.51
1498.420, 56098.20
1500.349, 56166.91
1502.277, 56214.39
1504.206, 56236.84
1506.134, 56194.93
1508.063, 55994.76
1509.991, 55917.31
1511.919, 56091.11
1513.848, 56170.80
1515.776, 56104.38
1517.705, 56063.20
1519.633, 56055.72
1521.562, 56133.27
1523.490, 56234.92
1525.419, 56306.19
1527.347, 56342.70
1529.276, 56348.00
1531.204, 56273.90
1533.133, 56096.64
1535.061, 56054.05
1536.990, 56130.35
1538.918, 56099.24
1540.846, 56041.38
1542.775, 56121.95
1544.703, 56203.20
1546.632, 56189.57
1548.560, 56156.27
1550.489, 56110.17
1552.417, 56140.05
1554.346, 56244.06
1556.274, 56314.00
1558.203, 56346.17
1560.131, 56317.85
1562.060, 56276.96
1563.988, 56244.85
1565.917, 56267.88
1567.845, 56386.38
1569.773, 56403.67
1571.702, 56314.27
1573.630, 56301.74
1575.559, 56338.68
1577.487, 56343.04
1579.416, 56345.79
1581.344, 56384.66
1583.273, 56397.69
1585.201, 56360.64
1587.130, 56333.02
1589.058, 56320.24
1590.987, 56258.49
1592.915, 56183.74
1594.844, 56172.41
1596.772, 56183.18
1598.700, 56189.41
1600.629, 56177.47
1602.557, 56119.54
1604.486, 56115.18
1606.414, 56157.72
1608.343, 56170.13
1610.271, 56165.25
1612.200, 56165.30
1614.128, 56175.59
1616.057, 56210.00
1617.985, 56239.74
1619.914, 56255.43
1621.842, 56310.55
1623.771, 56378.63
1625.699, 56271.26
1627.627, 56126.50
1629.556, 56123.67
1631.484, 56144.75
1633.413, 56131.84
1635.341, 56129.93
1637.270, 56141.16
1639.198, 56196.20
1641.127, 56267.49
1643.055, 56257.83
1644.984, 56249.19
1646.912, 56315.70
1648.841, 56388.83
1650.769, 56475.23
1652.698, 56456.68
1654.626, 56349.45
1656.554, 56306.34
1658.483, 56304.70
1660.411, 56342.80
1662.340, 56333.22
1664.268, 56211.42
1666.197, 56117.85
1668.125, 56077.15
1670.054, 55995.83
1671.982, 55893.58
1673.911, 55803.08
1675.839, 55738.93
1677.768, 55726.16
1679.696, 55684.80
1681.625, 55584.89
1683.553, 55578.41
1685.481, 55629.57
1687.410, 55575.63
1689.338, 55522.55
1691.267, 55593.71
1693.195, 55631.12
1695.124, 55588.76
1697.052, 55528.69
1698.981, 55469.98
1700.909, 55480.46
1702.838, 55518.55
1704.766, 55555.09
1706.695, 55541.59
1708.623, 55451.41
1710.552, 55379.36
1712.480, 55334.45
1714.408, 55312.46
1716.337, 55292.64
1718.265, 55265.06
1720.194, 55186.52
1722.122, 55004.84
1724.051, 55067.16
1725.979, 55345.31
1727.908, 55263.86
1729.836, 55078.87
1731.765, 55200.95
1733.693, 55330.59
1735.622, 55356.43
1737.550, 55303.38
1739.479, 55193.73
1741.407, 55163.32
1743.335, 55167.32
1745.264, 55135.70
1747.192, 55129.98
1749.121, 55200.76
1751.049, 55165.82
1752.978, 55036.53
1754.906, 54968.18
1756.835, 54961.24
1758.763, 55072.46
1760.692, 55131.30
1762.620, 55065.85
1764.549, 54978.34
1766.477, 54901.52
1768.406, 54973.84
1770.334, 55072.96
1772.262, 55081.73
1774.191, 55060.48
1776.119, 55004.01
1778.048, 55018.57
1779.976, 55078.88
1781.905, 55102.26
1783.833, 55114.79
1785.762, 55141.85
1787.690, 55156.23
1789.619, 55152.36
1791.547, 55134.53
1793.476, 55125.64
1795.404, 55213.18
1797.333, 55259.15
1799.261, 55189.76
1801.189, 55032.86
1803.118, 54806.23
1805.046, 54704.29
1806.975, 54721.44
1808.903, 54922.30
1810.832, 55044.32
1812.760, 54978.04
1814.689, 54875.25
1816.617, 54763.01
1818.546, 54699.15
1820.474, 54722.49
1822.403, 54917.23
1824.331, 54949.09
1826.260, 54722.12
1828.188, 54664.50
1830.116, 54676.15
1832.045, 54528.17
1833.973, 54425.99
1835.902, 54465.79
1837.830, 54469.07
1839.759, 54429.32
1841.687, 54450.92
1843.616, 54457.30
1845.544, 54381.11
1847.473, 54290.61
1849.401, 54197.95
1851.330, 54151.25
1853.258, 54106.66
1855.187, 53915.84
1857.115, 53788.52
1859.043, 53808.20
1860.972, 53840.88
1862.900, 53854.90
1864.829, 53751.77
1866.757, 53637.74
1868.686, 53636.21
1870.614, 53560.96
1872.543, 53394.52
1874.471, 53254.24
1876.400, 53161.00
1878.328, 53159.49
1880.257, 53153.21
1882.185, 53119.55
1884.114, 53075.09
1886.042, 53015.97
1887.970, 52954.94
1889.899, 52872.14
1891.827, 52721.45
1893.756, 52629.08
1895.684, 52599.89
1897.613, 52585.91
1899.541, 52539.31
1901.470, 52429.04
1903.398, 52278.57
1905.327, 52107.41
1907.255, 52044.85
1909.184, 52009.84
1911.112, 51911.03
1913.041, 51787.88
1914.969, 51645.35
1916.897, 51591.60
1918.826, 51556.06
1920.754, 51400.04
1922.683, 51238.99
1924.611, 51113.42
1926.540, 51085.92
1928.468, 51101.44
1930.397, 50931.84
1932.325, 50763.24
1934.254, 50730.70
1936.182, 50667.57
1938.111, 50584.40
1940.039, 50529.22
1941.968, 50441.98
1943.896, 50288.78
1945.824, 50172.84
1947.753, 50101.57
1949.681, 49958.84
1951.610, 49844.49
1953.538, 49892.60
1955.467, 49821.22
1957.395, 49593.74
1959.324, 49387.20
1961.252, 49231.75
1963.181, 49175.63
1965.109, 49102.20
1967.038, 48994.68
1968.966, 48886.38
1970.895, 48773.12
1972.823, 48653.49
1974.751, 48571.97
1976.680, 48532.92
1978.608, 48443.93
1980.537, 48308.32
1982.465, 48084.77
1984.394, 47942.73
1986.322, 47912.82
1988.251, 47841.28
1990.179, 47741.98
1992.108, 47638.04
1994.036, 47517.50
1995.965, 47378.22
1997.893, 47244.18
1999.822, 47121.17
2001.750, 47009.30
2003.678, 46902.71
2005.607, 46804.25
2007.535, 46710.21
2009.464, 46593.87
2011.392, 46419.68
2013.321, 46256.41
2015.249, 46128.67
2017.178, 46099.24
2019.106, 46053.11
2021.035, 45875.80
2022.963, 45721.20
2024.892, 45577.71
2026.820, 45376.66
2028.749, 45205.26
2030.677, 45130.66
2032.605, 45007.42
2034.534, 44834.44
2036.462, 44693.87
2038.391, 44605.61
2040.319, 44611.65
2042.248, 44594.19
2044.176, 44507.73
2046.105, 44201.46
2048.033, 43905.80
2049.962, 43768.96
2051.890, 43697.15
2053.819, 43656.77
2055.747, 43582.30
2057.676, 43474.36
2059.604, 43346.05
2061.532, 43136.84
2063.461, 42924.52
2065.389, 42813.80
2067.318, 42675.36
2069.246, 42521.53
2071.175, 42462.68
2073.103, 42431.82
2075.032, 42364.61
2076.960, 42261.60
2078.889, 42120.70
2080.817, 42015.76
2082.746, 41924.88
2084.674, 41851.34
2086.603, 41717.66
2088.531, 41514.93
2090.459, 41324.84
2092.388, 41197.52
2094.316, 41214.15
2096.245, 41132.62
2098.173, 40943.14
2100.102, 40818.84
2102.030, 40701.69
2103.959, 40557.25
2105.887, 40423.20
2107.816, 40308.73
2109.744, 40224.95
2111.673, 40052.53
2113.601, 39813.85
2115.530, 39709.95
2117.458, 39617.43
2119.386, 39474.93
2121.315, 39337.72
2123.243, 39197.18
2125.172, 39042.96
2127.100, 38896.23
2129.029, 38765.52
2130.957, 38560.49
2132.886, 38375.15
2134.814, 38403.31
2136.743, 38313.70
2138.671, 38083.75
2140.600, 38001.48
2142.528, 37940.07
2144.457, 37784.50
2146.385, 37626.78
2148.313, 37472.43
2150.242, 37360.13
2152.170, 37282.15
2154.099, 37233.01
2156.027, 37167.11
2157.956, 37052.94
2159.884, 36816.31
2161.813, 36597.89
2163.741, 36417.33
2165.670, 36303.29
2167.598, 36189.92
2169.527, 35977.52
2171.455, 35827.62
2173.384, 35739.60
2175.312, 35678.91
2177.240, 35540.64
2179.169, 35326.34
2181.097, 35278.35
2183.026, 35236.31
2184.954, 35097.98
2186.883, 34943.75
2188.811, 34790.23
2190.740, 34714.22
2192.668, 34640.44
2194.597, 34519.11
2196.525, 34289.96
2198.454, 34118.79
2200.382, 34111.95
2202.311, 34040.59
2204.239, 33921.59
2206.167, 33850.39
2208.096, 33784.60
2210.024, 33683.48
2211.953, 33492.64
2213.881, 33290.11
2215.810, 33128.48
2217.738, 32958.32
2219.667, 32818.12
2221.595, 32841.93
2223.524, 32779.70
2225.452, 32601.05
2227.381, 32507.55
2229.309, 32377.63
2231.238, 32108.16
2233.166, 31952.65
2235.094, 31885.48
2237.023, 31845.96
2238.951, 31771.80
2240.880, 31658.42
2242.808, 31560.69
2244.737, 31486.47
2246.665, 31436.21
2248.594, 31358.72
2250.522, 31250.17
2252.451, 31114.33
2254.379, 30918.78
2256.308, 30703.10
2258.236, 30618.04
2260.165, 30553.46
2262.093, 30466.63
2264.021, 30318.00
2265.950, 30184.98
2267.878, 30168.87
2269.807, 30134.48
2271.735, 30076.21
2273.664, 30017.39
2275.592, 29937.47
2277.521, 29832.22
2279.449, 29714.47
2281.378, 29607.19
2283.306, 29521.88
2285.235, 29498.37
2287.163, 29473.41
2289.092, 29366.34
2291.020, 29300.99
2292.948, 29265.63
2294.877, 29167.34
2296.805, 29098.75
2298.734, 29087.77
2300.662, 29025.49
2302.591, 28956.98
2304.519, 28896.10
2306.448, 28882.26
2308.376, 28877.60
2310.305, 28842.47
2312.233, 28876.28
2314.162, 28962.02
2316.090, 28961.15
2318.019, 28967.58
2319.947, 28995.90
2321.875, 29018.64
2323.804, 29078.31
2325.732, 29220.29
2327.661, 29403.75
2329.589, 29564.05
2331.518, 29640.99
2333.446, 29735.76
2335.375, 29828.81
2337.303, 29885.94
2339.232, 29917.49
2341.160, 29895.72
2343.089, 29921.07
2345.017, 29935.15
2346.946, 29927.94
2348.874, 29922.67
2350.802, 29923.83
2352.731, 29937.34
2354.659, 29918.62
2356.588, 29858.85
2358.516, 29892.97
2360.445, 29911.77
2362.373, 29830.12
2364.302, 29878.66
2366.230, 29886.22
2368.159, 29775.29
2370.087, 29690.17
2372.016, 29589.04
2373.944, 29402.08
2375.873, 29249.61
2377.801, 29096.81
2379.729, 28839.46
2381.658, 28597.80
2383.586, 28367.99
2385.515, 28066.19
2387.443, 27789.18
2389.372, 27536.95
2391.300, 27275.91
2393.229, 27059.20
2395.157, 26834.78
2397.086, 26571.52
2399.014, 26289.26
2400.943, 26004.65
2402.871, 25754.58
2404.800, 25539.13
2406.728, 25367.89
2408.656, 25160.49
2410.585, 24993.07
2412.513, 24901.72
2414.442, 24775.11
2416.370, 24671.45
2418.299, 24552.94
2420.227, 24402.24
2422.156, 24273.66
2424.084, 24149.50
2426.013, 23997.59
2427.941, 23840.38
2429.870, 23658.51
2431.798, 23476.79
2433.727, 23313.76
2435.655, 23232.61
2437.583, 23200.63
2439.512, 23106.82
2441.440, 22881.55
2443.369, 22782.61
2445.297, 22725.84
2447.226, 22619.72
2449.154, 22522.59
2451.083, 22393.91
2453.011, 22218.34
2454.940, 22075.55
2456.868, 21958.21
2458.797, 21898.09
2460.725, 21860.92
2462.654, 21733.17
2464.582, 21607.71
2466.510, 21502.33
2468.439, 21394.04
2470.367, 21213.58
2472.296, 21077.95
2474.224, 20987.30
2476.153, 20892.05
2478.081, 20771.21
2480.010, 20629.51
2481.938, 20509.81
2483.867, 20405.47
2485.795, 20316.48
2487.724, 20212.97
2489.652, 20084.54
2491.581, 19933.21
2493.509, 19802.56
2495.438, 19691.51
2497.366, 19587.65
2499.294, 19450.81
2501.223, 19374.81
2503.151, 19301.44
2505.080, 19130.59
2507.008, 18980.84
2508.937, 18829.29
2510.865, 18698.72
2512.794, 18648.55
2514.722, 18620.71
2516.651, 18494.68
2518.579, 18360.53
2520.508, 18329.91
2522.436, 18260.34
2524.365, 18164.57
2526.293, 18092.30
2528.221, 17987.60
2530.150, 17900.91
2532.078, 17817.33
2534.007, 17732.45
2535.935, 17679.44
2537.864, 17538.88
2539.792, 17440.35
2541.721, 17398.72
2543.649, 17322.30
2545.578, 17257.12
2547.506, 17200.62
2549.435, 17131.44
2551.363, 17026.23
2553.292, 16903.52
2555.220, 16810.70
2557.148, 16788.47
2559.077, 16739.71
2561.005, 16630.00
2562.934, 16541.09
2564.862, 16480.07
2566.791, 16443.10
2568.719, 16365.96
2570.648, 16294.60
2572.576, 16267.27
2574.505, 16201.42
2576.433, 16102.08
2578.362, 15990.51
2580.290, 15940.91
2582.219, 15900.81
2584.147, 15826.04
2586.075, 15721.56
2588.004, 15658.29
2589.932, 15650.34
2591.861, 15573.66
2593.789, 15474.12
2595.718, 15412.57
2597.646, 15388.24
2599.575, 15330.90
2601.503, 15262.66
2603.432, 15246.54
2605.360, 15169.13
2607.289, 15058.86
2609.217, 15025.59
2611.146, 14976.87
2613.074, 14911.04
2615.002, 14833.71
2616.931, 14790.12
2618.859, 14773.45
2620.788, 14699.68
2622.716, 14643.38
2624.645, 14607.80
2626.573, 14579.54
2628.502, 14527.36
2630.430, 14482.14
2632.359, 14446.56
2634.287, 14356.17
2636.216, 14279.68
2638.144, 14238.68
2640.073, 14170.47
2642.001, 14102.15
2643.929, 14047.48
2645.858, 13975.53
2647.786, 13913.09
2649.715, 13830.53
2651.643, 13772.33
2653.572, 13691.64
2655.500, 13581.61
2657.429, 13549.86
2659.357, 13470.12
2661.286, 13337.02
2663.214, 13268.15
2665.143, 13200.89
2667.071, 13133.85
2669.000, 13115.82
2670.928, 13065.73
2672.856, 12982.04
2674.785, 12874.63
2676.713, 12832.10
2678.642, 12792.05
2680.570, 12681.92
2682.499, 12627.92
2684.427, 12573.22
2686.356, 12472.03
2688.284, 12390.64
2690.213, 12320.78
2692.141, 12246.58
2694.070, 12129.69
2695.998, 12060.90
2697.927, 12041.79
2699.855, 11977.03
2701.783, 11899.45
2703.712, 11818.40
2705.640, 11739.24
2707.569, 11648.40
2709.497, 11575.87
2711.426, 11587.32
2713.354, 11499.13
2715.283, 11397.40
2717.211, 11358.02
2719.140, 11243.44
2721.068, 11162.36
2722.997, 11150.04
2724.925, 11044.25
2726.854, 10959.97
2728.782, 10911.41
2730.710, 10850.27
2732.639, 10787.66
2734.567, 10732.79
2736.496, 10718.25
2738.424, 10685.11
2740.353, 10632.79
2742.281, 10557.95
2744.210, 10520.43
2746.138, 10462.45
2748.067, 10352.64
2749.995, 10309.63
2751.924, 10238.76
2753.852, 10139.91
2755.781, 10079.40
2757.709, 10017.39
2759.637, 9986.912
2761.566, 9984.885
2763.494, 9880.018
2765.423, 9797.759
2767.351, 9790.806
2769.280, 9759.793
2771.208, 9713.856
2773.137, 9640.872
2775.065, 9613.569
2776.994, 9554.322
2778.922, 9496.734
2780.851, 9469.178
2782.779, 9381.657
2784.708, 9292.208
2786.636, 9264.667
2788.564, 9231.708
2790.493, 9194.567
2792.421, 9142.711
2794.350, 9073.881
2796.278, 9023.573
2798.207, 8991.787
2800.135, 8941.587
2802.064, 8878.066
2803.992, 8804.351
2805.921, 8751.336
2807.849, 8683.431
2809.778, 8627.735
2811.706, 8623.571
2813.635, 8514.012
2815.563, 8413.501
2817.491, 8354.150
2819.420, 8329.956
2821.348, 8239.034
2823.277, 8120.717
2825.205, 8066.508
2827.134, 7992.001
2829.062, 7919.732
2830.991, 7862.676
2832.919, 7829.596
2834.848, 7772.059
2836.776, 7667.835
2838.705, 7602.707
2840.633, 7541.424
2842.562, 7484.775
2844.490, 7432.311
2846.418, 7309.897
2848.347, 7228.171
2850.275, 7175.349
2852.204, 7094.107
2854.132, 7023.308
2856.061, 6952.749
2857.989, 6859.099
2859.918, 6743.726
2861.846, 6672.083
2863.775, 6619.319
2865.703, 6495.563
2867.632, 6402.078
2869.560, 6322.486
2871.489, 6266.619
2873.417, 6201.120
2875.345, 6145.011
2877.274, 6071.774
2879.202, 5979.137
2881.131, 5930.110
2883.059, 5877.765
2884.988, 5808.176
2886.916, 5780.892
2888.845, 5740.462
2890.773, 5651.566
2892.702, 5613.648
2894.630, 5546.507
2896.559, 5485.282
2898.487, 5449.989
2900.416, 5366.263
2902.344, 5288.531
2904.272, 5227.055
2906.201, 5162.593
2908.129, 5108.959
2910.058, 5052.580
2911.986, 5008.880
2913.915, 4979.074
2915.843, 4934.143
2917.772, 4862.588
2919.700, 4798.081
2921.629, 4716.141
2923.557, 4638.493
2925.486, 4615.641
2927.414, 4581.473
2929.343, 4529.870
2931.271, 4482.938
2933.199, 4454.466
2935.128, 4402.217
2937.056, 4314.371
2938.985, 4270.124
2940.913, 4226.445
2942.842, 4164.671
2944.770, 4119.984
2946.699, 4101.490
2948.627, 4043.021
2950.556, 4016.101
2952.484, 4022.771
2954.413, 3947.494
2956.341, 3869.168
2958.270, 3832.443
2960.198, 3779.182
2962.126, 3769.219
2964.055, 3753.973
2965.983, 3697.031
2967.912, 3655.637
2969.840, 3624.313
2971.769, 3587.201
2973.697, 3518.139
2975.626, 3482.573
2977.554, 3444.906
2979.483, 3383.986
2981.411, 3367.862
2983.340, 3313.972
2985.268, 3245.076
2987.197, 3224.403
2989.125, 3213.529
2991.053, 3188.501
2992.982, 3166.389
2994.910, 3129.555
2996.839, 3076.783
2998.767, 3041.093
3000.696, 3045.668
3002.624, 3021.722
3004.553, 2971.939
3006.481, 2916.379
3008.410, 2872.136
3010.338, 2831.672
3012.267, 2812.816
3014.195, 2799.821
3016.124, 2721.800
3018.052, 2700.251
3019.980, 2707.172
3021.909, 2687.998
3023.837, 2627.203
3025.766, 2593.351
3027.694, 2594.325
3029.623, 2567.810
3031.551, 2526.622
3033.480, 2483.502
3035.408, 2427.792
3037.337, 2404.545
3039.265, 2415.421
3041.194, 2397.973
3043.122, 2344.993
3045.051, 2308.398
3046.979, 2288.520
3048.907, 2270.383
3050.836, 2236.578
3052.764, 2209.738
3054.693, 2178.831
3056.621, 2150.962
3058.550, 2138.118
3060.478, 2112.654
3062.407, 2092.315
3064.335, 2069.050
3066.264, 2014.591
3068.192, 1995.824
3070.121, 1981.269
3072.049, 1959.860
3073.978, 1941.120
3075.906, 1946.874
3077.834, 1931.425
3079.763, 1890.392
3081.691, 1869.928
3083.620, 1868.198
3085.548, 1857.129
3087.477, 1817.793
3089.405, 1781.361
3091.334, 1759.214
3093.262, 1744.545
3095.191, 1730.071
3097.119, 1698.563
3099.048, 1668.156
3100.976, 1648.339
3102.905, 1641.753
3104.833, 1621.587
3106.761, 1589.367
3108.690, 1562.216
3110.618, 1550.978
3112.547, 1521.902
3114.475, 1513.598
3116.404, 1506.206
3118.332, 1478.473
3120.261, 1460.760
3122.189, 1439.948
3124.118, 1421.656
3126.046, 1411.357
3127.975, 1397.189
3129.903, 1390.987
3131.832, 1382.695
3133.760, 1363.089
3135.688, 1318.292
3137.617, 1299.775
3139.545, 1289.935
3141.474, 1261.439
3143.402, 1255.920
3145.331, 1228.428
3147.259, 1202.341
3149.188, 1205.130
3151.116, 1212.131
3153.045, 1195.242
3154.973, 1168.549
3156.902, 1149.342
3158.830, 1156.552
3160.759, 1122.183
3162.687, 1084.971
3164.615, 1079.747
3166.544, 1082.103
3168.472, 1064.647
3170.401, 1047.497
3172.329, 1044.502
3174.258, 1052.325
3176.186, 1044.405
3178.115, 1027.810
3180.043, 1013.547
3181.972, 1018.557
3183.900, 1006.955
3185.829, 992.9637
3187.757, 983.2743
3189.686, 982.9479
3191.614, 956.0391
3193.542, 947.8812
3195.471, 957.8622
3197.399, 941.3752
3199.328, 942.7371
3201.256, 930.0749
3203.185, 908.0133
3205.113, 900.0248
3207.042, 903.0468
3208.970, 905.7040
3210.899, 894.9852
3212.827, 871.2346
3214.756, 887.0899
3216.684, 887.3627
3218.613, 876.8593
3220.541, 876.0911
3222.469, 892.1972
3224.398, 866.0425
3226.326, 853.7214
3228.255, 864.3228
3230.183, 824.7220
3232.112, 811.5119
3234.040, 802.9582
3235.969, 787.5737
3237.897, 768.5588
3239.826, 790.5068
3241.754, 793.2586
3243.683, 776.2618
3245.611, 754.7527
3247.540, 745.4500
3249.468, 754.6061
3251.396, 761.0106
3253.325, 750.3124
3255.253, 748.7621
3257.182, 760.5226
3259.110, 749.2058
3261.039, 726.3054
3262.967, 736.0287
3264.896, 713.4867
3266.824, 699.2277
3268.753, 696.9691
3270.681, 703.9989
3272.610, 705.5668
3274.538, 689.8877
3276.467, 676.4037
3278.395, 674.2463
3280.323, 680.8694
3282.252, 668.7296
3284.180, 662.0673
3286.109, 661.5280
3288.037, 666.5460
3289.966, 670.7147
3291.894, 662.0333
3293.823, 649.9944
3295.751, 647.2717
3297.680, 664.1558
3299.608, 665.8652
3301.537, 668.4910
3303.465, 670.9613
3305.394, 668.5391
3307.322, 666.9301
3309.250, 669.7838
3311.179, 646.1436
3313.107, 603.3342
3315.036, 636.0988
3316.964, 656.8574
3318.893, 654.9308
3320.821, 650.2042
3322.750, 660.7038
3324.678, 629.9929
3326.607, 617.8364
3328.535, 609.8218
3330.464, 598.1578
3332.392, 628.1437
3334.321, 632.8799
3336.249, 629.1624
3338.177, 618.7852
3340.106, 595.4791
3342.034, 609.4583
3343.963, 607.7374
3345.891, 600.6898
3347.820, 591.5298
3349.748, 565.2432
3351.677, 561.2026
3353.605, 567.1452
3355.534, 565.1471
3357.462, 552.1282
3359.391, 543.1671
3361.319, 538.7762
3363.248, 523.5096
3365.176, 504.6282
3367.104, 494.4572
3369.033, 479.3551
3370.961, 481.0678
3372.890, 478.7316
3374.818, 470.8222
3376.747, 470.0685
3378.675, 463.1862
3380.604, 449.9795
3382.532, 430.5106
3384.461, 416.7691
3386.389, 430.4994
3388.318, 429.1961
3390.246, 414.6078
3392.175, 404.3141
3394.103, 404.6714
3396.031, 394.6918
3397.960, 428.8435
3399.888, 417.0550
3401.817, 387.6440
3403.745, 383.7648
3405.674, 389.6081
3407.602, 372.3419
3409.531, 360.4974
3411.459, 362.3843
3413.388, 372.4118
3415.316, 378.1045
3417.245, 353.0723
3419.173, 345.5962
3421.102, 348.2567
3423.030, 338.1657
3424.958, 341.7265
3426.887, 317.0682
3428.815, 318.0633
3430.744, 325.4466
3432.672, 304.9440
3434.601, 302.1627
3436.529, 309.8649
3438.458, 314.1706
3440.386, 312.2598
3442.315, 306.8501
3444.243, 295.6458
3446.172, 318.4605
3448.100, 317.1390
3450.029, 306.5854
3451.957, 314.8046
3453.885, 295.4302
3455.814, 294.4903
3457.742, 292.8841
3459.671, 290.3500
3461.599, 290.4481
3463.528, 278.9988
3465.456, 274.8170
3467.385, 276.5852
3469.313, 274.0627
3471.242, 266.8321
3473.170, 276.9992
3475.099, 258.7110
3477.027, 250.8890
3478.956, 250.7865
3480.884, 250.6539
3482.813, 250.6536
3484.741, 230.0390
3486.669, 247.9273
3488.598, 259.9358
3490.526, 254.0589
3492.455, 254.9766
3494.383, 248.2007
3496.312, 247.7531
3498.240, 246.1412
3500.169, 242.4343
3502.097, 242.2387
3504.026, 257.2444
3505.954, 233.8852
3507.883, 220.1984
3509.811, 218.9146
3511.740, 218.0406
3513.668, 214.1656
3515.596, 231.8484
3517.525, 228.6033
3519.453, 231.0314
3521.382, 237.8613
3523.310, 226.5110
3525.239, 214.9037
3527.167, 214.5185
3529.096, 214.3208
3531.024, 212.5643
3532.953, 209.5837
3534.881, 200.0193
3536.810, 183.0282
3538.738, 195.8233
3540.667, 206.7725
3542.595, 205.1371
3544.523, 206.5829
3546.452, 197.5394
3548.380, 184.0972
3550.309, 194.8939
3552.237, 206.2154
3554.166, 200.5343
3556.094, 199.6772
3558.023, 184.9528
3559.951, 195.1958
3561.880, 200.5070
3563.808, 194.6543
3565.737, 191.0254
3567.665, 187.9408
3569.594, 197.9238
3571.522, 196.6447
3573.450, 196.1771
3575.379, 194.8942
3577.307, 177.0247
3579.236, 175.1694
3581.164, 170.0431
3583.093, 173.4908
3585.021, 177.0484
3586.950, 171.5996
3588.878, 159.6641
3590.807, 154.6411
3592.735, 161.3241
3594.664, 166.7397
3596.592, 169.1658
3598.521, 167.9015
3600.449, 155.2102
3602.377, 150.8528
3604.306, 161.9600
3606.234, 162.1669
3608.163, 164.5378
3610.091, 177.8700
3612.020, 161.7781
3613.948, 144.1329
3615.877, 157.6013
3617.805, 157.7232
3619.734, 146.2501
3621.662, 144.9277
3623.591, 155.7807
3625.519, 152.3098
3627.448, 158.8396
3629.376, 147.9518
3631.304, 143.9884
3633.233, 163.8039
3635.161, 158.1651
3637.090, 148.2265
3639.018, 155.3649
3640.947, 161.8867
3642.875, 159.3094
3644.804, 149.5182
3646.732, 138.8428
3648.661, 160.1125
3650.589, 151.0139
3652.518, 147.1778
3654.446, 146.1224
3656.375, 142.8873
3658.303, 147.4072
3660.231, 157.1223
3662.160, 145.6848
3664.088, 134.8947
3666.017, 128.1611
3667.945, 125.0546
3669.874, 121.8411
3671.802, 103.7265
3673.731, 128.7678
3675.659, 128.1627
3677.588, 124.6674
3679.516, 132.9896
3681.445, 141.7102
3683.373, 131.5430
3685.302, 124.2931
3687.230, 119.5786
3689.158, 125.0129
3691.087, 122.7538
3693.015, 116.5917
3694.944, 120.3240
3696.872, 112.9260
3698.801, 122.5636
3700.729, 123.3846
3702.658, 111.6943
3704.586, 110.2580
3706.515, 121.9616
3708.443, 123.0027
3710.372, 119.6396
3712.300, 112.3627
3714.229, 115.1861
3716.157, 120.3608
3718.085, 111.9854
3720.014, 97.81525
3721.942, 113.1929
3723.871, 113.6641
3725.799, 110.3748
3727.728, 128.3782
3729.656, 127.6416
3731.585, 113.0326
3733.513, 113.9105
3735.442, 120.0782
3737.370, 101.0145
3739.299, 98.56306
3741.227, 104.1117
3743.156, 104.8005
3745.084, 102.4650
3747.012, 102.1657
3748.941, 98.78474
3750.869, 91.92507
3752.798, 105.2236
3754.726, 110.9303
3756.655, 100.2023
3758.583, 97.30177
3760.512, 105.9749
3762.440, 87.24091
3764.369, 98.28427
3766.297, 92.99149
3768.226, 95.37508
3770.154, 101.6453
3772.083, 103.6477
3774.011, 98.67352
3775.939, 89.78526
3777.868, 100.3094
3779.796, 94.85290
3781.725, 93.18086
3783.653, 87.12202
3785.582, 90.35187
3787.510, 97.55233
3789.439, 93.68565
3791.367, 97.44165
3793.296, 86.91316
3795.224, 95.72151
3797.153, 90.72009
3799.081, 83.06004
3801.010, 79.13810
3802.938, 80.68361
3804.866, 91.84969
3806.795, 89.98978
3808.723, 89.68734
3810.652, 86.86967
3812.580, 94.76662
3814.509, 96.21960
3816.437, 85.42329
3818.366, 77.16237
3820.294, 83.91405
3822.223, 86.66658
3824.151, 76.72863
3826.080, 80.34026
3828.008, 74.70879
3829.937, 73.96160
3831.865, 73.42439
3833.793, 63.26458
3835.722, 68.05803
3837.650, 73.45434
3839.579, 82.02660
3841.507, 81.51505
3843.436, 87.07612
3845.364, 87.98950
3847.293, 80.20930
3849.221, 76.64891
3851.150, 87.09659
3853.078, 85.08784
3855.007, 87.62926
3856.935, 76.70560
3858.864, 76.92999
3860.792, 81.05031
3862.720, 80.78004
3864.649, 76.27734
3866.577, 74.16168
3868.506, 88.61347
3870.434, 74.62043
3872.363, 76.49741
3874.291, 76.24545
3876.220, 77.28164
3878.148, 87.59530
3880.077, 91.25969
3882.005, 82.80932
3883.934, 89.15058
3885.862, 90.71918
3887.791, 85.63028
3889.719, 87.12097
3891.647, 82.73207
3893.576, 78.64745
3895.504, 78.67213
3897.433, 72.06756
3899.361, 60.78262
3901.290, 76.11787
3903.218, 82.65625
3905.147, 65.00268
3907.075, 80.95463
3909.004, 64.38489
3910.932, 68.16393
3912.861, 75.48136
3914.789, 66.62662
3916.718, 62.67579
3918.646, 74.05929
3920.574, 78.51121
3922.503, 78.11692
3924.431, 82.40611
3926.360, 70.01933
3928.288, 74.79494
3930.217, 75.30907
3932.145, 69.72401
3934.074, 73.42454
3936.002, 78.96143
3937.931, 74.62971
3939.859, 70.78008
3941.788, 69.48273
3943.716, 78.09712
3945.645, 77.87248
3947.573, 74.23353
3949.501, 77.05619
3951.430, 81.20402
3953.358, 79.81220
3955.287, 79.49709
3957.215, 94.82394
3959.144, 86.17338
3961.072, 75.91013
3963.001, 94.28671
3964.929, 84.35041
3966.858, 75.35937
3968.786, 73.43476
3970.715, 72.25180
3972.643, 70.64805
3974.572, 70.95510
3976.500, 82.20010
3978.428, 76.74773
3980.357, 64.11423
3982.285, 68.95615
3984.214, 77.92310
3986.142, 90.32404
3988.071, 87.13649
3989.999, 81.55678
3991.928, 77.89005
3993.856, 73.60839
3995.785, 77.46276
3997.713, 69.38567
3999.642, 62.78513
4001.570, 67.46815
4003.499, 74.55910
4005.427, 76.56814
4007.355, 63.27588
4009.284, 64.24171
4011.212, 72.17322
4013.141, 73.00632
4015.069, 70.02855
4016.998, 70.09530
4018.926, 79.27409
4020.855, 78.85883
4022.783, 81.10716
4024.712, 73.93697
4026.640, 72.86868
4028.569, 61.15940
4030.497, 71.24969
4032.426, 78.67853
4034.354, 70.69978
4036.282, 67.84254
4038.211, 71.84768
4040.139, 64.93552
4042.068, 62.82469
4043.996, 70.91275
4045.925, 80.23481
4047.853, 70.15573
4049.782, 73.90459
4051.710, 88.64047
4053.639, 75.61942
4055.567, 77.50228
4057.496, 76.04935
4059.424, 68.04708
4061.353, 66.32307
4063.281, 60.88115
4065.209, 57.20546
4067.138, 75.02887
4069.066, 54.24225
4070.995, 64.85012
4072.923, 68.94447
4074.852, 71.70951
4076.780, 71.40971
4078.709, 59.35986
4080.637, 65.48174
4082.566, 74.64523
4084.494, 68.11545
4086.423, 65.82235
4088.351, 75.94786
4090.280, 77.20615
4092.208, 68.22711
4094.136, 59.01931
4096.065, 56.68620
4097.993, 53.34827
4099.922, 62.05111
4101.851, 50.72372
4103.779, 68.63802
4105.707, 84.46301
4107.636, 70.63956
4109.564, 65.97672
4111.493, 66.54543
4113.421, 64.22128
4115.350, 66.67127
4117.278, 62.99269
4119.207, 53.61401
4121.135, 72.22723
4123.063, 83.12179
4124.992, 62.85107
4126.920, 63.69803
4128.849, 84.59875
4130.777, 74.40374
4132.706, 77.88130
4134.634, 76.11182
4136.563, 64.63950
4138.491, 57.07687
4140.420, 63.94581
4142.348, 52.41407
4144.276, 65.24547
4146.205, 76.91352
4148.134, 62.16787
4150.062, 69.38610
4151.990, 72.71375
4153.919, 72.14195
4155.848, 58.76615
4157.776, 71.28455
4159.704, 64.24760
4161.633, 68.19137
4163.562, 53.34805
4165.490, 63.22328
4167.418, 67.05528
4169.347, 69.43851
4171.275, 69.62713
4173.204, 55.20129
4175.132, 63.77706
4177.061, 55.76680
4178.989, 62.26474
4180.917, 71.02453
4182.846, 66.97527
4184.774, 72.37571
4186.703, 63.38768
4188.631, 50.22776
4190.560, 59.34247
4192.488, 57.87721
4194.417, 52.63907
4196.345, 75.15251
4198.273, 60.54076
4200.202, 66.94294
4202.131, 85.59094
4204.059, 76.58092
4205.987, 64.33714
4207.916, 69.68084
4209.845, 49.41971
4211.773, 55.77249
4213.701, 60.33436
4215.630, 60.85981
4217.559, 55.31308
4219.487, 52.53828
4221.415, 55.27016
4223.344, 59.99478
4225.272, 61.07599
4227.201, 57.69539
4229.129, 58.57095
4231.058, 62.00285
4232.986, 56.45604
4234.915, 53.62157
4236.843, 69.19204
4238.771, 58.75450
4240.700, 55.88518
4242.628, 54.61615
4244.557, 51.90528
4246.485, 47.97159
4248.414, 65.70642
4250.342, 50.18721
4252.271, 75.49882
4254.199, 59.67434
4256.128, 49.85659
4258.056, 54.04528
4259.984, 45.85975
4261.913, 64.98352
4263.842, 62.22459
4265.770, 64.32486
4267.698, 61.71197
4269.627, 60.10116
4271.556, 59.19513
4273.484, 58.52475
4275.412, 55.31585
4277.341, 68.15202
4279.270, 63.07365
4281.198, 50.47559
4283.126, 55.63166
4285.055, 68.14943
4286.983, 73.06759
4288.912, 58.82455
4290.840, 46.33529
4292.769, 52.48234
4294.697, 70.24057
4296.625, 72.15086
4298.554, 54.91153
4300.482, 63.39171
4302.411, 61.86790
4304.339, 59.44798
4306.268, 71.76955
4308.196, 49.66300
4310.125, 49.43670
4312.053, 56.67853
4313.981, 55.87201
4315.910, 37.44632
4317.839, 60.34316
4319.767, 56.77690
4321.695, 63.31068
4323.624, 60.98957
4325.553, 61.01593
4327.481, 56.41102
4329.409, 72.72565
4331.338, 51.00142
4333.267, 67.64298
4335.195, 74.99172
##END=



