##NAMES=Englishite
##RRUFFID=R060825
##IDEAL CHEMISTRY=K_3_Na_2_Ca_10_Al_15_(OH)_7_(PO_4_)_21_·26H_2_O
##LOCALITY=Clay Canyon, Fairfield, Utah County, Utah, USA
##OWNER=RRUFF
##SOURCE=Michael Scott
##DESCRIPTION=Compressed aggregate of colorless to white pearly, platy crystals
##STATUS=The identification of this mineral is not yet confirmed
##URL=https://www.rruff.net/odr/rruff_sample/R060825
##FILETYPE=Raman RAW
##RAMAN WAVELENGTH=532

126.545, 1632.710
128.474, 1773.013
130.402, 1889.574
132.331, 1991.938
134.259, 2097.502
136.188, 2214.407
138.116, 2327.688
140.045, 2430.493
141.973, 2522.424
143.902, 2605.572
145.830, 2679.800
147.759, 2745.885
149.687, 2799.811
151.615, 2839.110
153.544, 2867.281
155.472, 2883.444
157.401, 2881.419
159.329, 2880.097
161.258, 2882.045
163.186, 2883.384
165.115, 2905.228
167.043, 2956.960
168.972, 3028.444
170.900, 3098.691
172.829, 3169.350
174.757, 3237.692
176.686, 3302.747
178.614, 3366.369
180.542, 3421.969
182.471, 3465.892
184.399, 3499.558
186.328, 3528.734
188.256, 3560.310
190.185, 3583.201
192.113, 3587.013
194.042, 3562.974
195.970, 3537.319
197.899, 3515.023
199.827, 3496.185
201.756, 3482.023
203.684, 3476.094
205.613, 3473.382
207.541, 3466.480
209.469, 3448.213
211.398, 3435.967
213.326, 3437.542
215.255, 3460.029
217.183, 3472.242
219.112, 3464.553
221.040, 3447.292
222.969, 3440.252
224.897, 3451.014
226.826, 3464.598
228.754, 3474.673
230.683, 3479.198
232.611, 3483.899
234.540, 3484.875
236.468, 3486.385
238.396, 3497.043
240.325, 3530.951
242.253, 3564.156
244.182, 3583.463
246.110, 3579.604
248.039, 3576.130
249.967, 3579.438
251.896, 3586.289
253.824, 3584.360
255.753, 3562.655
257.681, 3538.136
259.610, 3523.046
261.538, 3518.779
263.467, 3519.641
265.395, 3528.242
267.323, 3544.272
269.252, 3553.939
271.181, 3548.466
273.109, 3541.620
275.037, 3547.460
276.966, 3571.686
278.894, 3592.896
280.823, 3603.058
282.751, 3600.224
284.680, 3601.646
286.608, 3611.870
288.537, 3623.390
290.465, 3628.636
292.394, 3624.685
294.322, 3619.873
296.250, 3615.671
298.179, 3611.684
300.108, 3610.863
302.036, 3618.822
303.964, 3626.995
305.893, 3627.984
307.821, 3618.624
309.750, 3607.618
311.678, 3595.762
313.607, 3582.638
315.535, 3576.249
317.464, 3581.140
319.392, 3590.156
321.321, 3596.659
323.249, 3598.022
325.177, 3598.571
327.106, 3599.823
329.034, 3601.729
330.963, 3600.498
332.891, 3593.362
334.820, 3585.535
336.748, 3581.736
338.677, 3588.833
340.605, 3593.939
342.534, 3592.757
344.462, 3586.364
346.391, 3585.758
348.319, 3594.179
350.248, 3606.526
352.176, 3618.570
354.105, 3624.256
356.033, 3634.835
357.961, 3654.100
359.890, 3679.755
361.818, 3701.954
363.747, 3719.370
365.675, 3733.785
367.604, 3746.467
369.532, 3752.385
371.461, 3764.194
373.389, 3785.995
375.318, 3815.403
377.246, 3843.973
379.175, 3865.334
381.103, 3890.708
383.032, 3926.217
384.960, 3984.171
386.888, 4031.596
388.817, 4058.737
390.745, 4075.020
392.674, 4097.764
394.602, 4130.249
396.531, 4167.962
398.459, 4212.416
400.388, 4271.070
402.316, 4316.136
404.245, 4340.876
406.173, 4353.362
408.102, 4364.544
410.030, 4379.230
411.959, 4385.631
413.887, 4377.667
415.815, 4352.820
417.744, 4333.834
419.672, 4325.897
421.601, 4321.822
423.529, 4315.027
425.458, 4300.178
427.386, 4291.690
429.315, 4292.146
431.243, 4301.348
433.172, 4314.656
435.100, 4337.002
437.029, 4357.342
438.957, 4368.636
440.886, 4364.083
442.814, 4366.870
444.742, 4386.380
446.671, 4414.091
448.599, 4431.979
450.528, 4441.361
452.456, 4440.636
454.385, 4426.692
456.313, 4395.551
458.242, 4377.261
460.170, 4374.432
462.099, 4383.185
464.027, 4401.027
465.956, 4430.140
467.884, 4460.501
469.813, 4488.423
471.741, 4513.715
473.669, 4539.204
475.598, 4564.287
477.526, 4588.010
479.455, 4611.465
481.383, 4635.978
483.312, 4651.415
485.240, 4657.099
487.169, 4652.635
489.097, 4634.810
491.026, 4576.301
492.954, 4533.663
494.883, 4530.535
496.811, 4561.294
498.740, 4582.696
500.668, 4577.108
502.596, 4569.694
504.525, 4576.225
506.453, 4607.215
508.382, 4638.012
510.310, 4669.533
512.239, 4698.518
514.167, 4721.292
516.096, 4739.932
518.024, 4746.714
519.953, 4739.410
521.881, 4716.281
523.810, 4690.112
525.738, 4649.818
527.667, 4616.688
529.595, 4611.708
531.523, 4642.490
533.452, 4672.902
535.380, 4688.786
537.309, 4696.702
539.237, 4716.814
541.166, 4761.756
543.094, 4802.499
545.023, 4821.062
546.951, 4819.514
548.880, 4827.792
550.808, 4861.650
552.737, 4900.139
554.665, 4930.275
556.594, 4955.613
558.522, 4968.670
560.451, 4962.360
562.379, 4945.495
564.307, 4934.456
566.236, 4933.650
568.164, 4932.801
570.093, 4925.202
572.021, 4908.546
573.950, 4903.275
575.878, 4913.304
577.807, 4929.882
579.735, 4946.364
581.664, 4961.409
583.592, 4983.783
585.521, 5023.422
587.449, 5070.079
589.378, 5108.516
591.306, 5136.397
593.234, 5159.826
595.163, 5182.383
597.091, 5201.253
599.020, 5207.336
600.948, 5192.408
602.877, 5170.013
604.805, 5145.022
606.734, 5114.430
608.662, 5089.176
610.591, 5073.167
612.519, 5060.875
614.448, 5047.750
616.376, 5034.417
618.305, 5020.171
620.233, 5001.560
622.161, 4981.535
624.090, 4967.846
626.018, 4965.725
627.947, 4962.668
629.875, 4957.025
631.804, 4948.408
633.732, 4934.559
635.661, 4914.673
637.589, 4892.240
639.518, 4866.038
641.446, 4824.071
643.375, 4812.333
645.303, 4854.334
647.232, 4911.466
649.160, 4940.980
651.089, 4934.100
653.017, 4926.734
654.945, 4926.826
656.874, 4931.508
658.802, 4936.828
660.731, 4955.397
662.659, 4963.494
664.588, 4952.235
666.516, 4927.275
668.445, 4910.997
670.373, 4909.197
672.302, 4913.254
674.230, 4920.029
676.159, 4930.743
678.087, 4933.393
680.016, 4917.752
681.944, 4898.432
683.872, 4887.999
685.801, 4887.666
687.729, 4883.651
689.658, 4869.092
691.586, 4851.939
693.515, 4841.168
695.443, 4840.184
697.372, 4842.378
699.300, 4851.020
701.229, 4861.935
703.157, 4862.971
705.086, 4844.854
707.014, 4831.672
708.943, 4837.279
710.871, 4857.373
712.799, 4869.485
714.728, 4867.164
716.656, 4862.897
718.585, 4858.899
720.513, 4855.150
722.442, 4861.499
724.370, 4885.751
726.299, 4913.983
728.227, 4937.641
730.156, 4955.680
732.084, 4972.040
734.013, 4985.716
735.941, 4997.369
737.870, 5006.330
739.798, 5006.920
741.726, 5016.000
743.655, 5044.251
745.583, 5078.800
747.512, 5105.506
749.440, 5124.688
751.369, 5135.991
753.297, 5131.245
755.226, 5120.137
757.154, 5127.319
759.083, 5175.145
761.011, 5214.607
762.940, 5227.130
764.868, 5222.813
766.797, 5230.158
768.725, 5253.882
770.653, 5284.173
772.582, 5321.487
774.510, 5365.785
776.439, 5396.053
778.367, 5405.412
780.296, 5409.192
782.224, 5406.523
784.153, 5399.521
786.081, 5412.937
788.010, 5472.346
789.938, 5528.277
791.867, 5550.944
793.795, 5530.915
795.724, 5524.333
797.652, 5544.790
799.580, 5570.261
801.509, 5584.637
803.437, 5586.024
805.366, 5593.813
807.294, 5610.441
809.223, 5634.497
811.151, 5665.660
813.080, 5706.283
815.008, 5740.256
816.937, 5769.294
818.865, 5787.313
820.794, 5784.606
822.722, 5747.638
824.651, 5724.452
826.579, 5732.953
828.507, 5752.876
830.436, 5761.318
832.364, 5752.715
834.293, 5755.794
836.221, 5786.595
838.150, 5827.826
840.078, 5857.711
842.007, 5863.449
843.935, 5872.161
845.864, 5887.991
847.792, 5905.660
849.721, 5915.915
851.649, 5913.617
853.578, 5921.692
855.506, 5954.840
857.434, 6000.790
859.363, 6041.241
861.291, 6069.735
863.220, 6100.473
865.148, 6136.000
867.077, 6173.136
869.005, 6205.763
870.934, 6230.733
872.862, 6257.890
874.791, 6297.467
876.719, 6339.751
878.648, 6368.578
880.576, 6379.067
882.505, 6387.682
884.433, 6390.356
886.362, 6395.554
888.290, 6422.407
890.218, 6489.490
892.147, 6544.492
894.075, 6565.981
896.004, 6572.259
897.932, 6591.715
899.861, 6629.818
901.789, 6666.945
903.718, 6688.738
905.646, 6708.945
907.575, 6749.755
909.503, 6827.895
911.432, 6907.023
913.360, 6982.942
915.289, 7058.867
917.217, 7136.696
919.145, 7211.570
921.074, 7302.088
923.002, 7432.634
924.931, 7573.770
926.859, 7693.863
928.788, 7794.818
930.716, 7870.274
932.645, 7926.276
934.573, 7956.465
936.502, 7948.832
938.430, 7892.408
940.359, 7826.447
942.287, 7748.940
944.216, 7665.720
946.144, 7576.544
948.072, 7476.486
950.001, 7402.651
951.929, 7369.854
953.858, 7363.152
955.786, 7375.076
957.715, 7409.771
959.643, 7455.866
961.572, 7513.066
963.500, 7580.164
965.429, 7655.714
967.357, 7738.762
969.286, 7835.207
971.214, 7941.868
973.143, 8067.401
975.071, 8218.802
977.000, 8396.145
978.928, 8577.045
980.856, 8785.977
982.785, 8972.743
984.713, 9119.075
986.642, 9224.431
988.570, 9299.499
990.499, 9357.232
992.427, 9375.141
994.356, 9325.462
996.284, 9231.117
998.213, 9149.956
1000.141, 9091.457
1002.070, 9036.459
1003.998, 8971.933
1005.926, 8905.227
1007.855, 8854.354
1009.783, 8801.842
1011.712, 8786.256
1013.640, 8826.216
1015.569, 8897.574
1017.497, 8963.315
1019.426, 9019.385
1021.354, 9083.876
1023.283, 9156.092
1025.211, 9244.774
1027.140, 9360.613
1029.068, 9509.017
1030.996, 9653.456
1032.925, 9797.447
1034.853, 9928.519
1036.782, 10042.180
1038.710, 10141.560
1040.639, 10197.670
1042.567, 10210.040
1044.496, 10182.040
1046.424, 10104.620
1048.353, 9983.140
1050.281, 9853.720
1052.210, 9714.051
1054.138, 9575.648
1056.067, 9441.956
1057.995, 9314.704
1059.923, 9197.586
1061.852, 9088.176
1063.780, 8994.319
1065.709, 8916.197
1067.637, 8851.237
1069.566, 8796.984
1071.494, 8756.634
1073.423, 8716.371
1075.351, 8677.950
1077.280, 8637.091
1079.208, 8586.718
1081.137, 8527.382
1083.065, 8478.035
1084.994, 8447.054
1086.922, 8421.684
1088.851, 8396.420
1090.779, 8371.354
1092.708, 8345.521
1094.636, 8315.075
1096.564, 8289.887
1098.493, 8273.786
1100.421, 8266.453
1102.350, 8264.680
1104.278, 8257.831
1106.207, 8274.825
1108.135, 8349.975
1110.064, 8434.750
1111.992, 8463.905
1113.921, 8428.121
1115.849, 8411.625
1117.778, 8436.677
1119.706, 8480.189
1121.635, 8535.708
1123.563, 8605.478
1125.491, 8650.840
1127.420, 8658.369
1129.348, 8655.530
1131.277, 8651.478
1133.205, 8644.615
1135.134, 8626.084
1137.062, 8591.090
1138.991, 8554.213
1140.919, 8517.891
1142.848, 8481.070
1144.776, 8438.140
1146.705, 8386.114
1148.633, 8352.661
1150.562, 8354.600
1152.490, 8366.400
1154.418, 8374.920
1156.347, 8380.066
1158.275, 8377.886
1160.204, 8353.583
1162.132, 8338.195
1164.061, 8339.802
1165.989, 8356.495
1167.918, 8384.033
1169.846, 8433.984
1171.775, 8475.583
1173.703, 8507.512
1175.632, 8528.521
1177.560, 8529.607
1179.489, 8510.060
1181.417, 8510.200
1183.345, 8553.906
1185.274, 8594.714
1187.202, 8597.995
1189.131, 8575.016
1191.059, 8579.784
1192.988, 8632.493
1194.916, 8682.576
1196.845, 8715.044
1198.773, 8742.041
1200.702, 8780.120
1202.630, 8839.162
1204.559, 8892.486
1206.487, 8963.931
1208.416, 9007.165
1210.344, 8973.380
1212.272, 8869.990
1214.201, 8797.116
1216.129, 8762.467
1218.058, 8744.579
1219.986, 8750.485
1221.915, 8764.267
1223.843, 8759.852
1225.772, 8731.727
1227.700, 8724.620
1229.629, 8777.476
1231.557, 8830.050
1233.486, 8838.999
1235.414, 8801.765
1237.343, 8794.710
1239.271, 8837.905
1241.199, 8885.188
1243.128, 8930.593
1245.056, 8972.382
1246.985, 9007.271
1248.913, 9034.189
1250.842, 9054.261
1252.770, 9061.969
1254.699, 9065.710
1256.627, 9069.417
1258.556, 9073.163
1260.484, 9079.124
1262.413, 9091.941
1264.341, 9101.130
1266.270, 9098.612
1268.198, 9095.997
1270.126, 9109.553
1272.055, 9143.824
1273.983, 9169.528
1275.912, 9166.135
1277.840, 9165.989
1279.769, 9188.545
1281.697, 9227.864
1283.626, 9249.881
1285.554, 9247.081
1287.483, 9237.372
1289.411, 9213.288
1291.340, 9191.145
1293.268, 9192.525
1295.197, 9221.917
1297.125, 9233.393
1299.053, 9197.493
1300.982, 9175.140
1302.910, 9209.026
1304.839, 9267.723
1306.767, 9286.897
1308.696, 9254.644
1310.624, 9242.599
1312.553, 9282.926
1314.481, 9335.773
1316.410, 9379.446
1318.338, 9413.430
1320.267, 9434.882
1322.195, 9426.318
1324.124, 9431.438
1326.052, 9471.413
1327.980, 9521.069
1329.909, 9550.969
1331.837, 9553.658
1333.766, 9565.941
1335.694, 9605.577
1337.623, 9637.264
1339.551, 9645.040
1341.480, 9637.492
1343.408, 9632.299
1345.337, 9625.170
1347.265, 9629.368
1349.194, 9651.264
1351.122, 9677.472
1353.051, 9703.880
1354.979, 9727.288
1356.907, 9737.894
1358.836, 9734.389
1360.764, 9722.819
1362.693, 9701.107
1364.621, 9677.971
1366.550, 9657.494
1368.478, 9641.279
1370.407, 9642.943
1372.335, 9676.190
1374.264, 9706.998
1376.192, 9717.733
1378.121, 9721.985
1380.049, 9738.110
1381.978, 9768.046
1383.906, 9793.126
1385.834, 9809.774
1387.763, 9819.641
1389.691, 9819.311
1391.620, 9812.665
1393.548, 9809.571
1395.477, 9819.288
1397.405, 9818.561
1399.334, 9796.889
1401.262, 9780.462
1403.191, 9790.756
1405.119, 9819.246
1407.048, 9832.448
1408.976, 9825.320
1410.905, 9817.921
1412.833, 9804.572
1414.761, 9798.876
1416.690, 9813.231
1418.618, 9842.965
1420.547, 9874.892
1422.475, 9912.774
1424.404, 9940.771
1426.332, 9942.674
1428.261, 9944.021
1430.189, 9963.993
1432.118, 9999.114
1434.046, 10031.420
1435.975, 10055.280
1437.903, 10081.130
1439.832, 10115.070
1441.760, 10147.710
1443.688, 10173.650
1445.617, 10193.670
1447.545, 10202.540
1449.474, 10190.050
1451.402, 10190.030
1453.331, 10221.020
1455.259, 10262.100
1457.188, 10291.120
1459.116, 10305.760
1461.045, 10331.580
1462.973, 10386.130
1464.902, 10423.960
1466.830, 10416.610
1468.759, 10399.360
1470.687, 10412.960
1472.615, 10460.520
1474.544, 10491.200
1476.472, 10491.540
1478.401, 10496.950
1480.329, 10526.870
1482.258, 10559.860
1484.186, 10572.830
1486.115, 10566.630
1488.043, 10559.890
1489.972, 10545.940
1491.900, 10543.240
1493.829, 10557.350
1495.757, 10582.140
1497.686, 10618.740
1499.614, 10662.720
1501.542, 10686.440
1503.471, 10680.500
1505.399, 10673.910
1507.328, 10677.800
1509.256, 10685.930
1511.185, 10689.710
1513.113, 10693.070
1515.042, 10714.970
1516.970, 10762.460
1518.899, 10808.200
1520.827, 10843.660
1522.756, 10869.880
1524.684, 10882.190
1526.613, 10883.610
1528.541, 10894.620
1530.469, 10924.080
1532.398, 10938.310
1534.326, 10926.440
1536.255, 10904.440
1538.183, 10873.660
1540.112, 10842.020
1542.040, 10836.480
1543.969, 10864.190
1545.897, 10893.250
1547.826, 10923.680
1549.754, 10946.030
1551.683, 10947.820
1553.611, 10940.050
1555.540, 10950.380
1557.468, 10988.550
1559.396, 11008.200
1561.325, 10976.310
1563.253, 10962.440
1565.182, 11003.600
1567.110, 11064.750
1569.039, 11098.210
1570.967, 11099.200
1572.896, 11094.670
1574.824, 11070.830
1576.753, 11060.850
1578.681, 11078.990
1580.610, 11109.390
1582.538, 11142.110
1584.467, 11177.390
1586.395, 11202.870
1588.323, 11207.730
1590.252, 11217.340
1592.180, 11228.470
1594.109, 11246.360
1596.037, 11281.570
1597.966, 11325.080
1599.894, 11348.320
1601.823, 11335.940
1603.751, 11337.460
1605.680, 11362.850
1607.608, 11393.460
1609.537, 11428.920
1611.465, 11464.370
1613.394, 11489.790
1615.322, 11502.660
1617.250, 11521.760
1619.179, 11548.690
1621.107, 11574.930
1623.036, 11589.480
1624.964, 11605.520
1626.893, 11638.240
1628.821, 11683.220
1630.750, 11716.860
1632.678, 11742.900
1634.607, 11756.730
1636.535, 11748.810
1638.464, 11745.360
1640.392, 11760.940
1642.321, 11790.950
1644.249, 11829.310
1646.177, 11879.380
1648.106, 11910.070
1650.034, 11892.680
1651.963, 11888.260
1653.891, 11919.070
1655.820, 11958.610
1657.748, 11985.460
1659.677, 12001.420
1661.605, 12016.760
1663.534, 12033.590
1665.462, 12052.190
1667.391, 12078.840
1669.319, 12105.200
1671.248, 12123.340
1673.176, 12141.370
1675.104, 12170.600
1677.033, 12210.440
1678.961, 12257.970
1680.890, 12319.870
1682.818, 12373.140
1684.747, 12405.600
1686.675, 12432.040
1688.604, 12469.060
1690.532, 12509.370
1692.461, 12524.560
1694.389, 12500.300
1696.318, 12503.220
1698.246, 12566.690
1700.175, 12617.930
1702.103, 12636.160
1704.031, 12629.490
1705.960, 12594.540
1707.888, 12535.710
1709.817, 12505.370
1711.745, 12518.590
1713.674, 12531.570
1715.602, 12548.680
1717.531, 12558.800
1719.459, 12544.220
1721.388, 12526.110
1723.316, 12541.400
1725.245, 12593.140
1727.173, 12622.420
1729.102, 12612.720
1731.030, 12607.020
1732.959, 12609.930
1734.887, 12618.820
1736.816, 12635.530
1738.744, 12657.030
1740.672, 12674.700
1742.601, 12685.040
1744.529, 12707.900
1746.458, 12774.780
1748.386, 12805.180
1750.315, 12745.530
1752.243, 12686.570
1754.172, 12699.880
1756.100, 12755.610
1758.029, 12779.350
1759.957, 12760.850
1761.886, 12748.880
1763.814, 12753.280
1765.743, 12752.160
1767.671, 12728.290
1769.599, 12714.250
1771.528, 12744.690
1773.456, 12801.800
1775.385, 12833.160
1777.313, 12833.700
1779.242, 12833.750
1781.170, 12824.510
1783.099, 12828.040
1785.027, 12856.980
1786.956, 12887.670
1788.884, 12906.210
1790.813, 12913.090
1792.741, 12907.770
1794.670, 12889.450
1796.598, 12885.560
1798.526, 12906.650
1800.455, 12929.300
1802.383, 12964.100
1804.312, 12981.950
1806.240, 12943.560
1808.169, 12886.330
1810.097, 12886.840
1812.026, 12943.840
1813.954, 12987.140
1815.883, 13003.740
1817.811, 13027.840
1819.740, 13077.040
1821.668, 13125.130
1823.597, 13143.090
1825.525, 13154.730
1827.453, 13204.110
1829.382, 13283.690
1831.310, 13329.430
1833.239, 13325.990
1835.167, 13327.010
1837.096, 13347.150
1839.024, 13373.430
1840.953, 13415.830
1842.881, 13452.900
1844.810, 13449.840
1846.738, 13414.170
1848.667, 13398.370
1850.595, 13402.020
1852.524, 13420.290
1854.452, 13477.810
1856.380, 13515.130
1858.309, 13503.170
1860.237, 13479.570
1862.166, 13472.830
1864.094, 13482.150
1866.023, 13501.010
1867.951, 13529.180
1869.880, 13571.510
1871.808, 13641.560
1873.737, 13699.250
1875.665, 13735.920
1877.594, 13756.480
1879.522, 13746.740
1881.451, 13729.990
1883.379, 13740.460
1885.307, 13777.160
1887.236, 13827.140
1889.164, 13897.800
1891.093, 13950.160
1893.021, 13971.240
1894.950, 13986.540
1896.878, 14003.300
1898.807, 14019.810
1900.735, 14038.450
1902.664, 14054.250
1904.592, 14053.820
1906.521, 14038.710
1908.449, 14036.680
1910.378, 14059.020
1912.306, 14071.750
1914.234, 14056.300
1916.163, 14044.060
1918.091, 14048.800
1920.020, 14063.910
1921.948, 14084.510
1923.877, 14107.740
1925.805, 14124.340
1927.734, 14128.660
1929.662, 14140.460
1931.591, 14163.540
1933.519, 14187.530
1935.448, 14224.240
1937.376, 14247.790
1939.305, 14227.530
1941.233, 14199.770
1943.161, 14225.850
1945.090, 14296.260
1947.018, 14309.700
1948.947, 14243.960
1950.875, 14227.600
1952.804, 14302.270
1954.732, 14361.270
1956.661, 14354.920
1958.589, 14346.260
1960.518, 14382.370
1962.446, 14432.830
1964.375, 14461.260
1966.303, 14469.670
1968.232, 14457.370
1970.160, 14416.650
1972.089, 14417.540
1974.017, 14499.250
1975.945, 14559.400
1977.874, 14555.640
1979.802, 14538.220
1981.731, 14532.990
1983.659, 14536.450
1985.588, 14544.990
1987.516, 14558.780
1989.445, 14574.020
1991.373, 14591.140
1993.302, 14605.400
1995.230, 14606.620
1997.159, 14617.860
1999.087, 14660.300
2001.016, 14690.170
2002.944, 14685.720
2004.872, 14662.190
2006.801, 14620.040
2008.729, 14574.190
2010.658, 14580.850
2012.586, 14639.000
2014.515, 14663.270
2016.443, 14632.810
2018.372, 14622.280
2020.300, 14663.000
2022.229, 14701.360
2024.157, 14712.200
2026.086, 14712.540
2028.014, 14709.690
2029.943, 14707.200
2031.871, 14717.940
2033.799, 14740.760
2035.728, 14742.950
2037.656, 14709.940
2039.585, 14696.910
2041.513, 14715.130
2043.442, 14741.520
2045.370, 14781.480
2047.299, 14818.090
2049.227, 14842.890
2051.156, 14858.060
2053.084, 14855.610
2055.012, 14847.020
2056.941, 14873.580
2058.869, 14932.390
2060.798, 14957.910
2062.727, 14933.320
2064.655, 14935.670
2066.583, 15004.590
2068.512, 15055.240
2070.440, 15050.970
2072.369, 15027.320
2074.297, 14991.440
2076.226, 14961.750
2078.154, 14966.880
2080.083, 15001.100
2082.011, 15040.130
2083.940, 15091.470
2085.868, 15108.850
2087.797, 15072.710
2089.725, 15055.960
2091.654, 15069.910
2093.582, 15095.830
2095.510, 15136.870
2097.439, 15172.880
2099.367, 15183.840
2101.296, 15188.670
2103.224, 15213.730
2105.153, 15252.230
2107.081, 15282.960
2109.010, 15307.310
2110.938, 15323.430
2112.867, 15325.380
2114.795, 15335.500
2116.724, 15355.150
2118.652, 15383.240
2120.581, 15435.430
2122.509, 15475.800
2124.438, 15466.560
2126.366, 15453.150
2128.294, 15481.760
2130.223, 15538.680
2132.151, 15605.080
2134.080, 15672.750
2136.008, 15685.540
2137.937, 15630.410
2139.865, 15621.430
2141.794, 15704.510
2143.722, 15756.790
2145.651, 15726.490
2147.579, 15702.810
2149.508, 15738.700
2151.436, 15777.710
2153.365, 15776.000
2155.293, 15755.290
2157.221, 15731.700
2159.150, 15713.430
2161.078, 15742.130
2163.007, 15814.990
2164.935, 15882.370
2166.864, 15942.330
2168.792, 15986.010
2170.721, 16003.100
2172.649, 16027.400
2174.578, 16087.230
2176.506, 16130.930
2178.435, 16117.570
2180.363, 16098.700
2182.292, 16110.290
2184.220, 16143.940
2186.148, 16199.940
2188.077, 16268.280
2190.005, 16302.710
2191.934, 16304.110
2193.862, 16319.850
2195.791, 16356.610
2197.719, 16373.950
2199.648, 16356.400
2201.576, 16349.310
2203.505, 16368.820
2205.433, 16388.949
2207.362, 16403.211
2209.290, 16406.529
2211.219, 16392.551
2213.147, 16370.030
2215.075, 16341.480
2217.004, 16317.290
2218.932, 16328.140
2220.861, 16372.610
2222.789, 16399.480
2224.718, 16408.000
2226.646, 16414.340
2228.575, 16419.500
2230.503, 16422.199
2232.432, 16411.551
2234.360, 16422.650
2236.289, 16487.670
2238.217, 16546.930
2240.146, 16569.480
2242.074, 16575.740
2244.002, 16562.020
2245.931, 16553.170
2247.859, 16601.840
2249.788, 16679.039
2251.716, 16693.650
2253.645, 16657.230
2255.573, 16649.891
2257.502, 16676.330
2259.430, 16701.109
2261.359, 16721.119
2263.287, 16741.109
2265.216, 16768.881
2267.144, 16785.039
2269.073, 16787.520
2271.001, 16776.699
2272.929, 16728.020
2274.858, 16697.670
2276.786, 16742.430
2278.715, 16806.949
2280.643, 16829.850
2282.572, 16828.020
2284.500, 16829.320
2286.429, 16831.000
2288.357, 16826.221
2290.286, 16813.711
2292.214, 16816.631
2294.143, 16847.330
2296.071, 16865.381
2298.000, 16871.920
2299.928, 16869.590
2301.856, 16847.539
2303.785, 16842.051
2305.713, 16878.961
2307.642, 16906.711
2309.570, 16882.461
2311.499, 16862.811
2313.427, 16900.199
2315.356, 16950.350
2317.284, 16960.520
2319.213, 16951.641
2321.141, 16951.221
2323.070, 16964.400
2324.998, 17032.250
2326.927, 17150.939
2328.855, 17198.461
2330.783, 17170.850
2332.712, 17130.020
2334.640, 17076.699
2336.569, 17051.680
2338.497, 17081.689
2340.426, 17100.230
2342.354, 17055.869
2344.283, 17056.330
2346.211, 17187.801
2348.140, 17299.160
2350.068, 17288.650
2351.997, 17261.410
2353.925, 17286.240
2355.854, 17334.570
2357.782, 17392.260
2359.710, 17442.461
2361.639, 17451.580
2363.567, 17432.109
2365.496, 17424.529
2367.424, 17428.061
2369.353, 17425.410
2371.281, 17414.779
2373.210, 17425.410
2375.138, 17462.301
2377.067, 17501.461
2378.995, 17546.770
2380.924, 17566.359
2382.852, 17534.570
2384.781, 17519.740
2386.709, 17560.801
2388.637, 17588.641
2390.566, 17567.900
2392.494, 17545.340
2394.423, 17543.529
2396.351, 17551.980
2398.280, 17571.141
2400.208, 17592.990
2402.137, 17608.420
2404.065, 17622.570
2405.994, 17636.711
2407.922, 17654.000
2409.851, 17687.189
2411.779, 17730.080
2413.708, 17762.811
2415.636, 17785.080
2417.564, 17787.770
2419.493, 17772.609
2421.421, 17756.029
2423.350, 17738.000
2425.278, 17756.609
2427.207, 17827.789
2429.135, 17896.820
2431.064, 17970.760
2432.992, 18007.711
2434.921, 17967.090
2436.849, 17934.801
2438.778, 17928.850
2440.706, 17937.461
2442.635, 17978.689
2444.563, 18004.330
2446.491, 17971.561
2448.420, 17932.980
2450.348, 17922.180
2452.277, 17932.600
2454.205, 17964.891
2456.134, 18008.029
2458.062, 18059.439
2459.991, 18101.740
2461.919, 18086.561
2463.848, 18037.189
2465.776, 18009.539
2467.705, 18006.279
2469.633, 18047.039
2471.562, 18131.811
2473.490, 18177.320
2475.418, 18177.330
2477.347, 18178.570
2479.275, 18178.939
2481.204, 18194.270
2483.132, 18226.400
2485.061, 18259.949
2486.989, 18296.439
2488.918, 18321.320
2490.846, 18331.439
2492.775, 18337.699
2494.703, 18341.131
2496.632, 18351.561
2498.560, 18377.160
2500.489, 18402.311
2502.417, 18414.711
2504.345, 18427.779
2506.274, 18449.490
2508.202, 18462.420
2510.131, 18440.590
2512.059, 18421.381
2513.988, 18447.270
2515.916, 18480.750
2517.845, 18490.689
2519.773, 18487.590
2521.702, 18476.150
2523.630, 18461.680
2525.559, 18449.119
2527.487, 18435.740
2529.416, 18417.980
2531.344, 18397.811
2533.272, 18383.020
2535.201, 18376.990
2537.129, 18388.500
2539.058, 18418.369
2540.986, 18455.020
2542.915, 18500.029
2544.843, 18549.471
2546.772, 18604.910
2548.700, 18614.670
2550.629, 18559.350
2552.557, 18555.570
2554.486, 18606.189
2556.414, 18673.539
2558.343, 18760.721
2560.271, 18806.961
2562.199, 18785.750
2564.128, 18780.330
2566.056, 18800.119
2567.985, 18846.330
2569.913, 18941.740
2571.842, 19005.811
2573.770, 19008.711
2575.699, 19013.699
2577.627, 19030.461
2579.556, 19062.570
2581.484, 19132.211
2583.413, 19183.721
2585.341, 19200.170
2587.270, 19197.990
2589.198, 19174.939
2591.126, 19152.330
2593.055, 19116.381
2594.983, 19117.311
2596.912, 19179.641
2598.840, 19287.189
2600.769, 19521.189
2602.697, 19680.869
2604.626, 19558.350
2606.554, 19382.260
2608.483, 19294.730
2610.411, 19259.539
2612.340, 19267.939
2614.268, 19292.939
2616.197, 19315.449
2618.125, 19331.170
2620.053, 19321.170
2621.982, 19310.510
2623.910, 19345.221
2625.839, 19384.961
2627.767, 19370.760
2629.696, 19329.660
2631.624, 19301.881
2633.553, 19285.090
2635.481, 19281.029
2637.410, 19283.029
2639.338, 19274.289
2641.267, 19259.240
2643.195, 19241.311
2645.124, 19224.859
2647.052, 19225.381
2648.980, 19233.881
2650.909, 19221.961
2652.837, 19195.119
2654.766, 19186.461
2656.694, 19186.900
2658.623, 19154.160
2660.551, 19101.270
2662.480, 19090.141
2664.408, 19114.680
2666.337, 19118.490
2668.265, 19104.461
2670.194, 19093.850
2672.122, 19089.980
2674.051, 19130.711
2675.979, 19209.199
2677.907, 19245.721
2679.836, 19240.840
2681.764, 19205.850
2683.693, 19146.660
2685.621, 19179.900
2687.550, 19294.779
2689.478, 19336.699
2691.407, 19299.131
2693.335, 19331.221
2695.264, 19437.971
2697.192, 19485.920
2699.121, 19474.400
2701.049, 19483.641
2702.978, 19513.301
2704.906, 19509.250
2706.834, 19467.711
2708.763, 19444.730
2710.691, 19443.500
2712.620, 19459.830
2714.548, 19494.641
2716.477, 19542.500
2718.405, 19600.279
2720.334, 19630.949
2722.262, 19625.490
2724.191, 19637.551
2726.119, 19667.510
2728.048, 19687.070
2729.976, 19697.699
2731.905, 19733.631
2733.833, 19797.680
2735.761, 19794.830
2737.690, 19719.609
2739.618, 19673.029
2741.547, 19655.570
2743.475, 19662.650
2745.404, 19691.881
2747.332, 19722.641
2749.261, 19752.490
2751.189, 19756.760
2753.118, 19734.311
2755.046, 19703.080
2756.975, 19664.260
2758.903, 19661.881
2760.832, 19690.029
2762.760, 19675.801
2764.688, 19624.340
2766.617, 19628.971
2768.545, 19687.359
2770.474, 19736.520
2772.402, 19778.381
2774.331, 19831.020
2776.259, 19888.949
2778.188, 19927.939
2780.116, 19948.539
2782.045, 19947.199
2783.973, 19935.250
2785.902, 19975.420
2787.830, 20057.020
2789.759, 20148.840
2791.687, 20239.650
2793.615, 20283.230
2795.544, 20296.230
2797.472, 20341.369
2799.401, 20403.980
2801.329, 20458.529
2803.258, 20497.551
2805.186, 20504.930
2807.115, 20493.311
2809.043, 20483.010
2810.972, 20478.439
2812.900, 20490.600
2814.829, 20509.881
2816.757, 20518.891
2818.686, 20526.561
2820.614, 20540.461
2822.542, 20562.439
2824.471, 20594.070
2826.399, 20634.311
2828.328, 20678.279
2830.256, 20731.920
2832.185, 20821.160
2834.113, 20898.289
2836.042, 20919.740
2837.970, 20913.029
2839.899, 20873.789
2841.827, 20856.760
2843.756, 20910.711
2845.684, 20984.199
2847.613, 21054.891
2849.541, 21113.711
2851.469, 21147.100
2853.398, 21168.600
2855.326, 21181.840
2857.255, 21184.779
2859.183, 21182.230
2861.112, 21169.270
2863.040, 21138.930
2864.969, 21124.270
2866.897, 21139.770
2868.826, 21154.240
2870.754, 21152.461
2872.683, 21154.340
2874.611, 21174.961
2876.540, 21158.301
2878.468, 21089.740
2880.396, 21043.939
2882.325, 21035.180
2884.253, 21051.400
2886.182, 21109.080
2888.110, 21120.080
2890.039, 21079.711
2891.967, 21050.109
2893.896, 21034.461
2895.824, 21055.789
2897.753, 21112.529
2899.681, 21112.711
2901.610, 21064.289
2903.538, 21039.900
2905.467, 21028.270
2907.395, 20973.119
2909.323, 20899.230
2911.252, 20901.619
2913.180, 20937.789
2915.109, 20895.051
2917.037, 20828.029
2918.966, 20818.570
2920.894, 20838.391
2922.823, 20850.381
2924.751, 20866.600
2926.680, 20921.359
2928.608, 20952.760
2930.537, 20876.270
2932.465, 20805.240
2934.394, 20832.551
2936.322, 20866.670
2938.250, 20869.779
2940.179, 20857.760
2942.107, 20819.891
2944.036, 20803.279
2945.964, 20866.350
2947.893, 20866.590
2949.821, 20745.100
2951.750, 20695.480
2953.678, 20778.900
2955.607, 20826.350
2957.535, 20782.811
2959.464, 20783.490
2961.392, 20831.961
2963.321, 20853.080
2965.249, 20841.869
2967.177, 20856.260
2969.106, 20893.721
2971.034, 20892.961
2972.963, 20867.730
2974.891, 20899.990
2976.820, 20957.131
2978.748, 20955.500
2980.677, 20918.150
2982.605, 20872.650
2984.534, 20833.439
2986.462, 20827.391
2988.391, 20830.971
2990.319, 20837.539
2992.248, 20829.131
2994.176, 20773.400
2996.104, 20731.590
2998.033, 20744.100
2999.961, 20756.340
3001.890, 20720.869
3003.818, 20723.500
3005.747, 20807.070
3007.675, 20865.510
3009.604, 20874.391
3011.532, 20879.881
3013.461, 20895.971
3015.389, 20862.641
3017.318, 20771.641
3019.246, 20741.320
3021.175, 20768.801
3023.103, 20741.789
3025.031, 20680.881
3026.960, 20708.141
3028.888, 20779.949
3030.817, 20750.020
3032.745, 20679.311
3034.674, 20653.670
3036.602, 20657.971
3038.531, 20700.840
3040.459, 20734.170
3042.388, 20709.750
3044.316, 20688.061
3046.245, 20703.600
3048.173, 20733.141
3050.102, 20766.949
3052.030, 20802.609
3053.958, 20829.490
3055.887, 20876.619
3057.815, 20992.080
3059.744, 21012.500
3061.672, 20925.939
3063.601, 20879.939
3065.529, 20883.760
3067.458, 20890.100
3069.386, 20900.211
3071.315, 20924.480
3073.243, 20955.750
3075.172, 20973.090
3077.100, 20983.500
3079.029, 20999.490
3080.957, 21015.061
3082.885, 21022.119
3084.814, 21036.670
3086.742, 21085.039
3088.671, 21132.740
3090.599, 21169.961
3092.528, 21193.330
3094.456, 21186.289
3096.385, 21204.480
3098.313, 21263.609
3100.242, 21292.939
3102.170, 21272.029
3104.099, 21287.471
3106.027, 21335.090
3107.956, 21336.779
3109.884, 21303.029
3111.813, 21247.270
3113.741, 21197.080
3115.669, 21226.760
3117.598, 21276.279
3119.526, 21261.090
3121.455, 21238.840
3123.383, 21248.170
3125.312, 21280.420
3127.240, 21356.170
3129.169, 21400.580
3131.097, 21384.910
3133.026, 21335.150
3134.954, 21238.100
3136.883, 21225.820
3138.811, 21321.500
3140.740, 21370.600
3142.668, 21370.010
3144.596, 21417.439
3146.525, 21488.061
3148.453, 21485.170
3150.382, 21466.721
3152.310, 21551.631
3154.239, 21656.971
3156.167, 21719.311
3158.096, 21733.230
3160.024, 21660.529
3161.953, 21605.131
3163.881, 21618.590
3165.810, 21632.660
3167.738, 21635.100
3169.667, 21644.070
3171.595, 21664.949
3173.523, 21667.779
3175.452, 21657.910
3177.380, 21713.980
3179.309, 21800.439
3181.237, 21773.141
3183.166, 21714.420
3185.094, 21777.910
3187.023, 21869.180
3188.951, 21901.859
3190.880, 21931.971
3192.808, 22020.449
3194.737, 22059.119
3196.665, 22003.340
3198.594, 21956.650
3200.522, 21933.660
3202.450, 21951.391
3204.379, 22008.619
3206.307, 22077.240
3208.236, 22143.461
3210.164, 22141.010
3212.093, 22104.641
3214.021, 22093.061
3215.950, 22111.471
3217.878, 22207.340
3219.807, 22275.381
3221.735, 22200.350
3223.664, 22158.410
3225.592, 22202.869
3227.521, 22261.939
3229.449, 22329.439
3231.377, 22366.551
3233.306, 22370.189
3235.234, 22325.100
3237.163, 22251.150
3239.091, 22234.930
3241.020, 22246.689
3242.948, 22213.689
3244.877, 22191.590
3246.805, 22239.900
3248.734, 22295.680
3250.662, 22309.711
3252.591, 22340.020
3254.519, 22410.090
3256.448, 22444.471
3258.376, 22428.131
3260.304, 22411.109
3262.233, 22396.600
3264.161, 22387.490
3266.090, 22380.801
3268.018, 22352.289
3269.947, 22328.461
3271.875, 22339.740
3273.804, 22366.400
3275.732, 22402.930
3277.661, 22430.891
3279.589, 22433.939
3281.518, 22460.461
3283.446, 22532.260
3285.375, 22562.381
3287.303, 22551.600
3289.231, 22561.619
3291.160, 22578.949
3293.088, 22537.730
3295.017, 22504.779
3296.945, 22606.500
3298.874, 22708.619
3300.802, 22712.119
3302.731, 22709.020
3304.659, 22709.789
3306.588, 22763.891
3308.516, 22886.961
3310.445, 22964.869
3312.373, 22996.439
3314.302, 23038.580
3316.230, 23088.381
3318.158, 23148.891
3320.087, 23195.930
3322.015, 23179.881
3323.944, 23171.561
3325.872, 23217.131
3327.801, 23265.311
3329.729, 23324.170
3331.658, 23320.461
3333.586, 23251.420
3335.515, 23267.311
3337.443, 23346.900
3339.372, 23355.480
3341.300, 23337.350
3343.229, 23370.160
3345.157, 23416.150
3347.085, 23460.961
3349.014, 23487.439
3350.942, 23489.920
3352.871, 23486.189
3354.799, 23467.289
3356.728, 23498.141
3358.656, 23568.270
3360.585, 23589.490
3362.513, 23600.080
3364.442, 23726.221
3366.370, 23844.270
3368.299, 23814.359
3370.227, 23784.730
3372.156, 23840.189
3374.084, 23902.070
3376.012, 23963.619
3377.941, 23989.900
3379.870, 23978.230
3381.798, 24020.150
3383.727, 24086.340
3385.655, 24105.240
3387.583, 24106.480
3389.512, 24130.270
3391.440, 24138.529
3393.369, 24119.949
3395.297, 24093.820
3397.226, 24059.711
3399.154, 24042.680
3401.083, 24046.090
3403.011, 24132.061
3404.940, 24250.820
3406.868, 24282.051
3408.797, 24299.680
3410.725, 24382.859
3412.654, 24460.480
3414.582, 24487.461
3416.510, 24540.740
3418.439, 24633.430
3420.367, 24695.760
3422.296, 24732.801
3424.224, 24826.910
3426.153, 24937.051
3428.081, 24977.000
3430.010, 25019.949
3431.938, 25142.590
3433.867, 25249.449
3435.795, 25309.730
3437.724, 25352.850
3439.652, 25377.551
3441.581, 25415.311
3443.509, 25453.100
3445.438, 25441.340
3447.366, 25424.439
3449.294, 25479.539
3451.223, 25524.449
3453.151, 25512.660
3455.080, 25484.600
3457.008, 25430.520
3458.937, 25465.461
3460.865, 25573.359
3462.794, 25584.801
3464.722, 25543.561
3466.651, 25533.520
3468.579, 25523.721
3470.508, 25477.400
3472.436, 25454.920
3474.365, 25472.740
3476.293, 25500.230
3478.221, 25533.680
3480.150, 25503.770
3482.078, 25431.369
3484.007, 25375.400
3485.935, 25312.529
3487.864, 25184.189
3489.792, 25113.619
3491.721, 25173.410
3493.649, 25160.180
3495.578, 25026.869
3497.506, 24950.650
3499.435, 24911.920
3501.363, 24861.930
3503.292, 24791.770
3505.220, 24672.199
3507.148, 24565.330
3509.077, 24499.699
3511.005, 24461.279
3512.934, 24449.270
3514.862, 24427.141
3516.791, 24400.711
3518.719, 24409.631
3520.648, 24425.660
3522.576, 24404.930
3524.505, 24395.891
3526.433, 24429.061
3528.362, 24482.000
3530.290, 24555.471
3532.219, 24518.180
3534.147, 24407.180
3536.075, 24377.131
3538.004, 24387.949
3539.932, 24412.381
3541.861, 24434.570
3543.789, 24448.480
3545.718, 24474.510
3547.646, 24519.039
3549.575, 24561.480
3551.503, 24594.600
3553.432, 24586.580
3555.360, 24566.010
3557.289, 24535.850
3559.217, 24543.949
3561.146, 24612.051
3563.074, 24671.770
3565.002, 24715.689
3566.931, 24672.221
3568.859, 24579.359
3570.788, 24512.881
3572.716, 24464.750
3574.645, 24441.449
3576.573, 24414.500
3578.502, 24346.689
3580.430, 24365.689
3582.359, 24453.891
3584.287, 24513.939
3586.216, 24540.580
3588.144, 24486.660
3590.073, 24467.770
3592.001, 24600.529
3593.929, 24657.090
3595.858, 24607.500
3597.786, 24565.461
3599.715, 24550.609
3601.643, 24636.811
3603.572, 24723.961
3605.500, 24707.480
3607.429, 24669.141
3609.357, 24620.500
3611.286, 24625.600
3613.214, 24680.381
3615.143, 24679.471
3617.071, 24649.270
3619.000, 24630.869
3620.928, 24626.250
3622.856, 24667.990
3624.785, 24650.051
3626.713, 24559.500
3628.642, 24521.170
3630.570, 24532.221
3632.499, 24566.391
3634.427, 24606.230
3636.356, 24616.580
3638.284, 24656.500
3640.213, 24744.689
3642.141, 24792.350
3644.070, 24794.971
3645.998, 24827.670
3647.927, 24850.869
3649.855, 24800.539
3651.783, 24751.320
3653.712, 24742.279
3655.640, 24738.320
3657.569, 24735.260
3659.497, 24696.449
3661.426, 24645.850
3663.354, 24655.279
3665.283, 24649.920
3667.211, 24525.539
3669.140, 24515.859
3671.068, 24679.109
3672.997, 24718.801
3674.925, 24666.051
3676.854, 24632.051
3678.782, 24624.961
3680.710, 24666.990
3682.639, 24698.600
3684.567, 24703.199
3686.496, 24735.391
3688.424, 24783.699
3690.353, 24744.100
3692.281, 24677.400
3694.210, 24613.680
3696.138, 24615.551
3698.067, 24714.100
3699.995, 24731.119
3701.924, 24668.131
3703.852, 24662.721
3705.781, 24691.580
3707.709, 24758.199
3709.637, 24804.631
3711.566, 24817.789
3713.494, 24808.539
3715.423, 24790.580
3717.351, 24897.750
3719.280, 25033.881
3721.208, 25082.590
3723.137, 25086.170
3725.065, 25047.381
3726.994, 25046.369
3728.922, 25089.961
3730.851, 25141.980
3732.779, 25183.600
3734.708, 25176.439
3736.636, 25175.199
3738.564, 25191.279
3740.493, 25246.740
3742.421, 25335.119
3744.350, 25459.020
3746.278, 25558.480
3748.207, 25535.039
3750.135, 25513.279
3752.064, 25534.779
3753.992, 25576.381
3755.921, 25627.721
3757.849, 25585.990
3759.778, 25534.561
3761.706, 25570.689
3763.635, 25611.109
3765.563, 25625.811
3767.491, 25691.520
3769.420, 25784.369
3771.348, 25754.551
3773.277, 25712.240
3775.205, 25786.590
3777.134, 25820.619
3779.062, 25775.570
3780.991, 25861.029
3782.919, 26024.500
3784.848, 26052.100
3786.776, 26058.170
3788.705, 26127.619
3790.633, 26209.699
3792.562, 26298.900
3794.490, 26260.910
3796.418, 26192.180
3798.347, 26359.740
3800.275, 26503.080
3802.204, 26407.529
3804.132, 26397.770
3806.061, 26489.330
3807.989, 26556.381
3809.918, 26595.670
3811.846, 26608.539
3813.775, 26597.641
3815.703, 26546.170
3817.632, 26578.641
3819.560, 26684.020
3821.489, 26757.289
3823.417, 26831.490
3825.345, 26976.221
3827.274, 27009.619
3829.202, 26878.609
3831.131, 26891.881
3833.059, 26988.850
3834.988, 27001.971
3836.916, 27009.410
3838.845, 27060.801
3840.773, 27129.141
3842.702, 27207.539
3844.630, 27208.750
3846.559, 27196.789
3848.487, 27252.301
3850.416, 27345.949
3852.344, 27493.311
3854.272, 27517.971
3856.201, 27467.869
3858.129, 27523.439
3860.058, 27574.141
3861.986, 27520.311
3863.915, 27513.711
3865.843, 27583.869
3867.772, 27635.480
3869.700, 27678.689
3871.629, 27741.699
3873.557, 27773.689
3875.486, 27763.609
3877.414, 27774.289
3879.343, 27787.561
3881.271, 27766.000
3883.199, 27758.910
3885.128, 27790.461
3887.056, 27845.150
3888.985, 27927.609
3890.913, 27965.949
3892.842, 27996.051
3894.770, 28081.600
3896.699, 28144.279
3898.627, 28170.680
3900.556, 28214.320
3902.484, 28264.779
3904.413, 28327.150
3906.341, 28392.881
3908.270, 28451.971
3910.198, 28538.480
3912.126, 28647.811
3914.055, 28608.211
3915.983, 28549.070
3917.912, 28657.920
3919.840, 28767.150
3921.769, 28847.400
3923.697, 28934.930
3925.626, 29003.221
3927.554, 29017.270
3929.483, 29016.551
3931.411, 29036.520
3933.340, 29112.859
3935.268, 29198.670
3937.197, 29187.510
3939.125, 29154.090
3941.053, 29155.029
3942.982, 29174.270
3944.910, 29232.381
3946.839, 29245.350
3948.767, 29256.461
3950.696, 29353.730
3952.624, 29427.740
3954.553, 29461.789
3956.481, 29497.090
3958.410, 29511.570
3960.338, 29468.570
3962.267, 29460.311
3964.195, 29486.789
3966.124, 29486.971
3968.052, 29513.500
3969.980, 29607.211
3971.909, 29668.080
3973.837, 29692.881
3975.766, 29705.750
3977.694, 29697.891
3979.623, 29698.260
3981.551, 29708.949
3983.480, 29719.410
3985.408, 29736.311
3987.337, 29773.881
3989.265, 29815.660
3991.194, 29845.490
3993.122, 29836.971
3995.051, 29842.570
3996.979, 29875.369
3998.907, 29839.439
4000.836, 29789.980
4002.764, 29827.381
4004.693, 29885.400
4006.621, 29944.961
4008.550, 29962.090
4010.478, 29954.029
4012.407, 29980.869
4014.335, 30000.801
4016.264, 29970.551
4018.192, 29999.891
4020.121, 30070.760
4022.049, 30145.461
4023.978, 30187.840
4025.906, 30174.590
4027.834, 30146.660
4029.763, 30103.881
4031.691, 30116.131
4033.620, 30156.100
4035.548, 30180.730
4037.477, 30191.920
4039.405, 30195.789
4041.334, 30273.561
4043.262, 30352.930
4045.191, 30346.619
4047.119, 30378.830
4049.048, 30485.490
4050.976, 30601.150
4052.905, 30699.779
4054.833, 30742.340
4056.761, 30744.881
4058.690, 30772.770
4060.618, 30798.881
4062.547, 30808.109
4064.475, 30870.131
4066.404, 30959.369
4068.332, 31053.650
4070.261, 31139.100
4072.189, 31189.160
4074.118, 31228.971
4076.046, 31282.570
4077.975, 31339.869
4079.903, 31408.311
4081.832, 31498.869
4083.760, 31625.869
4085.688, 31682.801
4087.617, 31673.789
4089.545, 31711.449
4091.474, 31755.189
4093.402, 31842.699
4095.331, 31938.119
4097.259, 31996.150
4099.188, 32101.340
4101.116, 32243.029
4103.045, 32323.961
4104.973, 32378.109
4106.902, 32449.881
4108.830, 32531.369
4110.759, 32657.439
4112.687, 32735.119
4114.616, 32734.080
4116.544, 32831.719
4118.473, 32976.531
4120.401, 33015.059
4122.330, 33044.320
4124.258, 33151.770
4126.187, 33294.762
4128.115, 33415.840
4130.043, 33427.191
4131.972, 33485.309
4133.900, 33695.840
4135.829, 33812.180
4137.757, 33878.449
4139.686, 33919.828
4141.614, 33943.770
4143.542, 34068.480
4145.471, 34252.609
4147.399, 34398.031
4149.328, 34422.590
4151.256, 34482.070
4153.185, 34699.430
4155.113, 34890.422
4157.042, 35028.941
4158.970, 35207.172
4160.899, 35343.070
4162.827, 35386.289
4164.756, 35465.020
4166.684, 35591.012
4168.613, 35752.441
4170.541, 35927.961
4172.470, 36077.730
4174.398, 36253.961
4176.327, 36471.160
4178.255, 36756.852
4180.184, 37032.410
4182.112, 37246.102
4184.041, 37513.828
4185.969, 37830.879
4187.897, 38154.840
4189.826, 38474.711
4191.754, 38769.059
4193.683, 39119.531
4195.611, 39521.680
4197.540, 39829.160
4199.468, 40120.730
4201.396, 40480.621
4203.325, 40824.480
4205.253, 41150.449
4207.182, 41435.230
4209.110, 41717.109
4211.039, 42014.352
4212.967, 42365.270
4214.896, 42736.988
4216.824, 42968.840
4218.753, 43140.230
4220.681, 43320.730
4222.610, 43379.691
4224.538, 43359.328
4226.467, 43480.680
4228.395, 43558.320
4230.324, 43469.852
4232.252, 43344.430
4234.181, 43233.641
4236.109, 43326.609
4238.038, 43358.609
4239.966, 43146.109
4241.895, 42981.238
4243.823, 42862.441
4245.751, 42833.629
4247.680, 42740.051
4249.608, 42505.461
4251.537, 42346.250
4253.465, 42244.539
4255.394, 42190.750
4257.322, 42096.629
4259.250, 41929.629
4261.179, 41847.309
4263.107, 41788.602
4265.036, 41650.070
4266.964, 41556.422
4268.893, 41526.738
4270.821, 41468.512
4272.750, 41377.879
4274.678, 41214.520
4276.607, 41180.422
4278.535, 41256.699
4280.464, 41082.621
4282.392, 40917.020
4284.321, 40954.488
4286.249, 41037.648
4288.178, 41112.211
4290.106, 40996.371
4292.035, 40920.191
4293.963, 41067.301
4295.892, 41089.430
4297.820, 41049.820
4299.749, 41071.039
4301.677, 41108.430
4303.605, 41150.078
4305.534, 41197.570
4307.462, 41210.961
4309.391, 41064.840
4311.319, 41048.891
4313.248, 41198.922
4315.176, 41345.051
4317.104, 41411.621
4319.033, 41285.578
4320.961, 41296.672
4322.890, 41423.160
4324.818, 41404.020
4326.747, 41393.500
4328.675, 41462.590
4330.604, 41479.191
4332.532, 41478.820
4334.461, 41563.828
4336.389, 41644.262
4338.318, 41700.762
4340.246, 41791.359
4342.175, 41882.629
4344.103, 41933.980
4346.032, 41963.070
4347.960, 41971.000
4349.889, 41971.109
4351.817, 41942.078
4353.746, 41872.148
4355.674, 41889.820
4357.603, 41961.410
4359.531, 41965.230
4361.459, 41987.629
4363.388, 42045.531
4365.316, 42245.000
4367.245, 42413.961
4369.173, 42324.238
4371.102, 42298.129
4373.030, 42348.930
4374.958, 42257.891
4376.887, 42174.922
4378.815, 42182.078
4380.744, 42307.051
4382.672, 42469.699
4384.601, 42502.910
4386.529, 42506.750
4388.458, 42507.488
4390.386, 42515.469
4392.315, 42578.770
4394.243, 42779.988
4396.172, 42884.750
4398.100, 42895.211
4400.029, 42919.781
4401.957, 42968.371
4403.886, 43049.910
4405.814, 43135.750
4407.743, 43237.949
4409.671, 43390.949
4411.600, 43509.230
4413.528, 43590.691
4415.457, 43699.871
4417.385, 43833.461
4419.313, 43997.570
4421.242, 44105.309
4423.170, 44181.488
4425.099, 44274.461
4427.027, 44395.711
4428.956, 44545.422
4430.884, 44600.660
4432.813, 44645.230
4434.741, 44758.129
4436.669, 44877.250
4438.598, 45003.828
4440.526, 45114.070
4442.455, 45319.109
4444.383, 45641.109
4446.312, 45803.578
4448.240, 45850.770
4450.169, 45784.789
4452.097, 45867.859
4454.026, 46072.570
4455.954, 46319.949
4457.883, 46374.781
4459.811, 46163.648
4461.740, 46146.922
4463.668, 46250.570
4465.597, 46377.719
4467.525, 46638.840
4469.454, 46980.789
4471.382, 47186.871
4473.311, 47364.070
4475.239, 47543.129
4477.167, 47740.762
4479.096, 47908.020
4481.024, 47992.148
4482.953, 48086.891
4484.881, 48200.750
4486.810, 48308.051
4488.738, 48444.059
4490.667, 48613.051
4492.595, 48763.328
4494.523, 48872.680
4496.452, 48921.629
4498.380, 48941.211
4500.309, 48957.141
4502.237, 49037.422
4504.166, 49081.660
4506.094, 49061.730
4508.023, 49035.379
4509.951, 49089.852
4511.880, 49308.230
4513.808, 49417.301
4515.737, 49459.578
4517.665, 49516.070
4519.594, 49651.809
4521.522, 49840.449
4523.451, 49818.359
4525.379, 49784.301
4527.308, 49855.238
4529.236, 49928.180
4531.165, 50036.211
4533.093, 50241.891
4535.021, 50433.090
4536.950, 50580.039
4538.878, 50581.578
4540.807, 50637.000
4542.735, 50810.180
4544.664, 51030.352
4546.592, 51247.219
4548.521, 51409.730
4550.449, 51526.281
4552.377, 51610.211
4554.306, 51687.910
4556.234, 51814.289
4558.163, 51985.719
4560.091, 52014.828
4562.020, 52000.078
4563.948, 51992.078
4565.877, 52034.738
4567.805, 52156.469
4569.734, 52425.109
4571.662, 52594.629
4573.591, 52668.090
4575.519, 52690.859
4577.448, 52770.891
4579.376, 52925.148
4581.305, 52987.070
4583.233, 53027.250
4585.162, 53092.469
4587.090, 53182.570
4589.019, 53300.480
4590.947, 53426.301
4592.875, 53609.480
4594.804, 53819.801
4596.732, 53984.820
4598.661, 54122.320
4600.589, 54244.000
4602.518, 54375.750
4604.446, 54480.891
4606.375, 54537.309
4608.303, 54675.160
4610.231, 54855.949
4612.160, 55073.121
4614.088, 55116.500
4616.017, 55064.262
4617.945, 55146.449
4619.874, 55255.238
4621.802, 55369.520
4623.731, 55507.102
4625.659, 55649.879
4627.588, 55785.730
4629.516, 55925.699
4631.445, 56028.039
4633.373, 56028.281
4635.302, 56116.691
4637.230, 56224.059
4639.159, 56174.410
4641.087, 56271.211
4643.016, 56498.270
4644.944, 56654.160
4646.873, 56832.012
4648.801, 57047.762
4650.729, 57077.980
4652.658, 57129.238
4654.586, 57331.859
4656.515, 57562.180
4658.443, 57711.320
4660.372, 57625.648
4662.300, 57721.480
4664.229, 57912.730
4666.157, 57974.449
4668.085, 58050.641
4670.014, 58155.730
4671.942, 58262.238
4673.871, 58306.352
4675.799, 58280.289
4677.728, 58173.840
4679.656, 58199.500
4681.585, 58498.352
4683.513, 58625.801
4685.442, 58611.059
4687.370, 58444.980
4689.299, 58503.211
4691.227, 58692.250
4693.156, 58858.391
4695.084, 58987.090
4697.013, 59097.238
4698.941, 59278.012
4700.870, 59370.578
4702.798, 59372.340
4704.727, 59510.730
4706.655, 59682.988
4708.583, 59839.711
4710.512, 59704.039
4712.440, 59625.391
4714.369, 59901.691
4716.297, 59887.141
4718.226, 59807.922
4720.154, 59863.941
4722.083, 59925.500
4724.011, 59976.281
4725.939, 60000.230
4727.868, 60094.328
4729.796, 60205.719
4731.725, 60122.820
4733.653, 60186.809
4735.582, 60387.922
4737.510, 60491.301
4739.439, 60508.141
4741.367, 60471.680
4743.296, 60595.500
4745.224, 60724.941
4747.153, 60793.539
4749.081, 60872.172
4751.010, 60993.141
4752.938, 61171.301
4754.867, 61360.109
4756.795, 61549.160
4758.724, 61745.281
4760.652, 61880.969
4762.581, 61980.020
4764.509, 62042.500
4766.438, 62278.000
4768.366, 62561.621
4770.294, 62643.609
4772.223, 62687.680
4774.151, 62770.078
4776.080, 63040.379
4778.008, 63285.199
4779.937, 63494.602
4781.865, 63811.500
4783.793, 64098.180
4785.722, 64306.070
4787.650, 64332.461
4789.579, 64376.930
4791.507, 64497.891
4793.436, 64589.039
4795.364, 64710.859
4797.293, 64893.230
4799.221, 65047.922
4801.150, 65186.059
4803.078, 65319.379
4805.007, 65506.750
4806.935, 65708.977
4808.864, 65913.812
4810.792, 65955.008
4812.721, 66016.070
4814.649, 66262.172
4816.578, 66502.031
4818.506, 66722.781
4820.435, 66921.977
4822.363, 67161.547
4824.292, 67368.867
4826.220, 67425.453
4828.148, 67530.156
4830.077, 67643.656
4832.005, 67647.070
4833.934, 67695.844
4835.862, 67796.070
4837.791, 67954.531
4839.719, 67952.438
4841.647, 67883.156
4843.576, 68081.500
4845.504, 68185.023
4847.433, 68181.742
4849.361, 68208.391
4851.290, 68278.742
4853.218, 68370.922
4855.147, 68418.109
4857.075, 68403.461
4859.004, 68373.094
4860.932, 68619.219
4862.861, 68684.961
4864.789, 68552.219
4866.718, 68712.883
4868.646, 68798.227
4870.575, 68756.438
4872.503, 68968.742
4874.432, 69034.477
4876.360, 68894.242
4878.289, 69027.633
4880.217, 69099.133
4882.146, 69035.711
4884.074, 69010.297
4886.002, 69132.297
4887.931, 69411.133
4889.859, 69551.547
4891.788, 69624.203
4893.716, 69692.352
4895.645, 70070.453
4897.573, 70270.742
4899.501, 70151.992
4901.430, 70445.828
4903.358, 70625.641
4905.287, 70565.656
4907.215, 70639.203
4909.144, 70748.047
4911.072, 70859.281
4913.001, 70881.906
4914.929, 70952.203
4916.858, 71124.102
4918.786, 71467.250
4920.715, 71789.078
4922.643, 72012.008
4924.572, 72080.172
4926.500, 72219.477
4928.429, 72474.977
4930.357, 72592.172
4932.286, 72606.508
4934.214, 72594.477
4936.143, 72855.109
4938.071, 73130.609
4940.000, 73343.852
4941.928, 73505.844
4943.856, 73691.453
4945.785, 73903.633
4947.713, 74149.148
4949.642, 74280.344
4951.570, 74321.500
4953.499, 74496.883
4955.427, 74658.203
4957.355, 74783.117
4959.284, 74896.023
4961.212, 75026.312
4963.141, 75143.383
4965.069, 75157.023
4966.998, 75109.680
4968.926, 75114.141
4970.855, 75369.547
4972.783, 75729.797
4974.712, 76080.680
4976.640, 76265.430
4978.569, 76407.602
4980.497, 76476.000
4982.426, 76407.844
4984.354, 76383.969
4986.283, 76428.594
4988.211, 76567.547
4990.140, 76483.758
4992.068, 76425.539
4993.997, 76665.523
4995.925, 76936.523
4997.854, 77168.727
4999.782, 77328.406
5001.710, 77490.227
5003.639, 77570.352
5005.567, 77520.469
5007.496, 77612.539
5009.424, 77762.258
5011.353, 77910.594
5013.281, 78206.320
5015.209, 78368.602
5017.138, 78362.633
5019.066, 78631.727
5020.995, 78767.891
5022.923, 78724.320
5024.852, 78960.859
5026.780, 79006.133
5028.709, 78893.656
5030.637, 78993.547
5032.566, 79234.523
5034.494, 79537.141
5036.423, 79788.008
5038.351, 79956.477
5040.280, 80125.500
5042.208, 80454.570
5044.137, 80591.672
5046.065, 80752.688
5047.994, 81203.133
5049.922, 81298.094
5051.851, 81348.859
5053.779, 81618.047
5055.708, 81856.453
5057.636, 82008.344
5059.564, 82076.156
5061.493, 82086.312
5063.421, 82298.250
5065.350, 82711.008
5067.278, 82663.711
5069.207, 82839.797
5071.135, 83235.094
5073.063, 83286.273
5074.992, 83629.328
5076.920, 84048.898
5078.849, 83853.953
5080.777, 83955.211
5082.706, 84209.977
5084.634, 84302.789
5086.563, 84692.008
5088.491, 85081.578
5090.420, 85238.812
5092.348, 85111.477
5094.277, 85185.531
5096.205, 85669.656
5098.134, 85530.609
5100.062, 85514.773
5101.991, 85774.367
5103.919, 85928.078
5105.848, 85887.758
5107.776, 85735.328
5109.705, 85662.344
5111.633, 85746.711
5113.562, 85838.273
5115.490, 85658.688
5117.418, 85651.219
5119.347, 85787.359
5121.275, 86021.891
5123.204, 86216.422
5125.132, 86351.703
5127.061, 86432.477
5128.989, 86504.883
5130.917, 86630.320
5132.846, 86807.727
5134.774, 86970.203
5136.703, 87179.203
5138.631, 87401.852
5140.560, 87579.508
5142.488, 87653.008
5144.417, 87719.406
5146.345, 87869.781
5148.274, 88137.227
5150.202, 88357.688
5152.131, 88455.578
5154.059, 88630.344
5155.988, 88780.648
5157.916, 88863.844
5159.845, 88779.781
5161.773, 88983.492
5163.702, 89328.047
5165.630, 89352.828
5167.559, 89519.883
5169.487, 89799.344
5171.416, 90109.320
5173.344, 90557.156
5175.272, 90832.617
5177.201, 90795.977
5179.129, 90765.430
5181.058, 90825.359
5182.986, 90969.219
5184.915, 91085.023
5186.843, 91265.258
5188.771, 91417.953
5190.700, 91376.680
5192.628, 91500.703
5194.557, 91553.141
5196.485, 91345.773
5198.414, 91454.859
5200.342, 91631.508
5202.271, 91777.570
5204.199, 91837.672
5206.128, 92076.000
5208.056, 92309.422
5209.985, 92115.656
5211.913, 92038.258
5213.842, 92072.508
5215.770, 92182.047
5217.699, 92307.227
5219.627, 92383.031
5221.556, 92430.797
5223.484, 92778.430
5225.413, 92819.773
5227.341, 92611.148
5229.270, 92339.961
5231.198, 92408.156
5233.126, 92592.859
5235.055, 92687.227
5236.983, 92705.422
5238.912, 92800.672
5240.840, 92946.602
5242.769, 92677.609
5244.697, 92617.688
5246.625, 92791.758
5248.554, 93085.727
5250.482, 93217.727
5252.411, 93342.172
5254.339, 93570.430
5256.268, 93698.867
5258.196, 93776.906
5260.125, 93856.406
5262.053, 94034.117
5263.982, 94214.188
5265.910, 94388.570
5267.839, 94593.844
5269.767, 94738.297
5271.696, 94886.797
5273.624, 95061.102
5275.553, 95140.727
5277.481, 95357.867
5279.410, 95673.117
5281.338, 95932.070
5283.267, 96131.867
5285.195, 96327.773
5287.124, 96562.250
5289.052, 96893.523
5290.980, 97106.797
5292.909, 97176.344
5294.837, 97198.594
5296.766, 97313.883
5298.694, 97570.422
5300.623, 98050.344
5302.551, 97945.227
5304.479, 97860.789
5306.408, 98056.977
5308.336, 98170.406
5310.265, 98443.508
5312.193, 98804.719
5314.122, 99090.938
5316.050, 99237.000
5317.979, 99323.570
5319.907, 99416.344
5321.836, 99687.133
5323.764, 99821.781
5325.693, 99822.648
5327.621, 99853.719
5329.550, 100016.500
5331.478, 99964.039
5333.407, 99549.461
5335.335, 99568.773
5337.264, 99639.406
5339.192, 99679.477
5341.121, 99794.203
5343.049, 99796.719
5344.978, 99797.281
5346.906, 99873.344
5348.834, 99818.867
5350.763, 99861.344
5352.691, 99891.203
5354.620, 99502.344
5356.548, 99352.156
5358.477, 99360.680
5360.405, 99394.688
5362.334, 99123.773
5364.262, 98974.609
5366.191, 99052.383
5368.119, 99402.344
5370.048, 99483.500
5371.976, 99440.242
5373.905, 99432.703
5375.833, 99582.117
5377.762, 99843.172
5379.690, 100111.203
5381.619, 100223.898
5383.547, 100265.898
5385.476, 100293.500
5387.404, 100355.203
5389.333, 100491.398
5391.261, 100771.797
5393.189, 101044.898
5395.118, 101047.703
5397.046, 100951.000
5398.975, 100916.102
5400.903, 101027.398
5402.832, 101382.703
5404.760, 101530.102
5406.688, 101565.797
5408.617, 101653.500
5410.545, 101991.703
5412.474, 102206.398
5414.402, 102238.297
5416.331, 102441.398
5418.259, 102438.703
5420.188, 102430.898
5422.116, 102625.102
5424.045, 102805.203
5425.973, 102939.297
5427.902, 103050.297
5429.830, 103171.297
5431.759, 103419.297
5433.687, 103705.203
5435.616, 103945.000
5437.544, 103877.398
5439.473, 104078.297
5441.401, 104383.500
5443.330, 104470.203
5445.258, 104479.898
5447.187, 104535.500
5449.115, 104600.898
5451.043, 104387.398
5452.972, 104354.898
5454.900, 104537.602
5456.829, 104886.797
5458.757, 104794.203
5460.686, 104997.203
5462.614, 105309.000
5464.542, 105253.297
5466.471, 105514.703
5468.399, 105559.297
5470.328, 105348.500
5472.256, 105573.500
5474.185, 105648.602
5476.113, 105790.398
5478.042, 106182.703
5479.970, 106365.000
5481.899, 106337.000
5483.827, 106208.898
5485.756, 106114.602
5487.684, 106054.898
5489.613, 106150.703
5491.541, 106299.602
5493.470, 106020.102
5495.398, 106144.000
5497.327, 106341.297
5499.255, 106332.398
5501.184, 106125.102
5503.112, 106192.398
5505.041, 106376.797
5506.969, 106425.602
5508.897, 106459.500
5510.826, 106637.102
5512.754, 106808.297
5514.683, 106619.398
5516.611, 106691.797
5518.540, 106536.398
5520.468, 106121.102
5522.396, 106264.398
5524.325, 106365.898
5526.253, 106362.797
5528.182, 106285.297
5530.110, 106776.000
5532.039, 106864.203
5533.967, 106752.500
5535.896, 106897.102
5537.824, 106919.500
5539.753, 106953.102
5541.681, 106964.297
5543.610, 106769.297
5545.538, 107047.703
5547.467, 107161.000
5549.395, 106975.398
5551.324, 107091.398
5553.252, 107302.203
5555.181, 107379.102
5557.109, 107251.602
5559.038, 107123.203
5560.966, 107166.898
5562.895, 107238.602
5564.823, 107228.797
5566.751, 107443.102
5568.680, 107494.500
5570.608, 107455.898
5572.537, 107476.703
5574.465, 107482.500
5576.394, 107620.102
5578.322, 107762.203
5580.250, 107635.102
5582.179, 107585.898
5584.107, 107629.203
5586.036, 107681.602
5587.964, 107504.602
5589.893, 107617.797
5591.821, 107685.898
5593.750, 107678.000
5595.678, 108060.898
5597.607, 107908.000
5599.535, 107655.898
5601.464, 107582.602
5603.392, 107545.000
5605.321, 107527.602
5607.249, 107515.000
5609.178, 107501.797
5611.106, 107508.102
5613.035, 107845.102
5614.963, 108168.398
5616.892, 108204.797
5618.820, 108206.602
5620.749, 108430.602
5622.677, 108628.398
5624.605, 108584.797
5626.534, 108766.898
5628.462, 108725.102
5630.391, 108542.203
5632.319, 108408.797
5634.248, 108633.602
5636.176, 108999.203
5638.104, 109233.398
5640.033, 109131.398
5641.961, 109398.102
5643.890, 109589.398
5645.818, 109733.000
5647.747, 109993.898
5649.675, 110284.297
5651.604, 110424.000
5653.532, 110387.102
5655.461, 110238.898
5657.389, 110562.203
5659.318, 110790.797
5661.246, 110940.500
5663.175, 111200.898
5665.103, 111327.797
5667.032, 111467.797
5668.960, 111519.602
5670.889, 111316.102
5672.817, 111253.000
5674.746, 111162.898
5676.674, 111055.000
5678.603, 111011.602
5680.531, 111025.797
5682.459, 111005.703
5684.388, 110944.297
5686.316, 110849.500
5688.245, 111005.398
5690.173, 111105.703
5692.102, 111155.797
5694.030, 111250.203
5695.958, 111472.602
5697.887, 111627.703
5699.815, 111700.102
5701.744, 111720.000
5703.672, 111681.398
5705.601, 111698.203
5707.529, 111678.602
5709.458, 111553.703
5711.386, 111748.500
5713.315, 111494.797
5715.243, 111168.602
5717.172, 111115.297
5719.100, 111063.602
5721.029, 111020.898
5722.957, 111029.398
5724.886, 111095.203
5726.814, 111172.898
5728.743, 111279.500
5730.671, 111312.203
5732.600, 111316.000
5734.528, 111599.398
5736.457, 111543.898
5738.385, 111462.203
5740.313, 111569.000
5742.242, 111952.297
5744.170, 111778.602
5746.099, 111632.398
5748.027, 111666.203
5749.956, 111742.602
5751.884, 111705.898
5753.813, 111721.703
5755.741, 111798.703
5757.669, 111895.500
5759.598, 111697.297
5761.526, 111885.898
5763.455, 111980.297
5765.383, 111560.797
5767.312, 111677.703
5769.240, 111597.500
5771.169, 111660.500
5773.097, 111996.797
5775.026, 112021.000
5776.954, 112086.000
5778.883, 111971.203
5780.811, 111698.500
5782.740, 111571.898
5784.668, 111565.297
5786.597, 111545.203
5788.525, 111540.500
5790.454, 111621.602
5792.382, 111901.898
5794.311, 111899.398
5796.239, 111626.500
5798.167, 111287.500
5800.096, 111557.797
5802.024, 111442.898
5803.953, 111250.102
5805.881, 111183.898
5807.810, 110933.297
5809.738, 111044.797
5811.667, 111075.500
5813.595, 110975.203
5815.523, 110988.000
5817.452, 111284.102
5819.380, 111283.297
5821.309, 111084.898
5823.237, 110965.602
5825.166, 110782.898
5827.094, 110851.602
5829.023, 110860.500
5830.951, 110660.703
5832.880, 110608.203
5834.808, 109931.102
5836.737, 109593.797
5838.665, 109670.797
5840.594, 109574.797
5842.522, 109344.898
5844.451, 109480.703
5846.379, 109655.297
5848.308, 109508.102
5850.236, 109324.000
5852.165, 109186.203
5854.093, 108990.000
5856.021, 108763.500
5857.950, 108735.898
5859.878, 108776.898
5861.807, 108837.602
5863.735, 108785.898
5865.664, 108492.797
5867.592, 108686.797
5869.521, 108886.102
5871.449, 108971.297
5873.377, 108924.797
5875.306, 108725.398
5877.234, 108705.797
5879.163, 108715.297
5881.091, 108694.703
5883.020, 108657.500
5884.948, 108731.297
5886.877, 108607.102
5888.805, 108593.500
5890.734, 108536.094
5892.662, 108705.766
5894.591, 108820.328
5896.519, 108882.711
5898.448, 108736.727
5900.376, 108859.805
5902.305, 108875.078
5904.233, 108885.891
5906.162, 108987.500
5908.090, 108953.203
5910.019, 109002.297
5911.947, 108839.602
5913.875, 108753.797
5915.804, 108750.797
5917.732, 108722.797
5919.661, 108910.398
5921.589, 109162.102
5923.518, 109204.500
5925.446, 109028.398
5927.375, 108966.000
5929.303, 108844.602
5931.231, 108791.602
5933.160, 108677.000
5935.088, 108408.297
5937.017, 108290.703
5938.945, 108430.797
5940.874, 108582.898
5942.802, 108637.297
5944.731, 108603.203
5946.659, 108600.797
5948.588, 108330.102
5950.516, 108044.500
5952.445, 107995.797
5954.373, 108407.398
5956.302, 107944.602
5958.230, 108197.297
5960.159, 108689.203
5962.087, 108522.602
5964.016, 108453.703
5965.944, 108404.102
5967.873, 108192.898
5969.801, 108003.398
5971.729, 108161.102
5973.658, 108008.398
5975.586, 108020.703
5977.515, 108048.898
5979.443, 108058.000
5981.372, 108295.703
5983.300, 108244.602
5985.229, 108032.602
5987.157, 107972.000
5989.085, 108141.297
5991.014, 108097.602
5992.942, 107838.297
5994.871, 107504.602
5996.799, 107345.102
5998.728, 107486.102
6000.656, 107585.797
6002.585, 107737.398
6004.513, 107822.102
6006.442, 107836.602
6008.370, 107860.398
6010.299, 108158.703
6012.227, 107985.500
6014.156, 107681.602
6016.084, 107523.703
6018.013, 107536.297
6019.941, 107308.703
6021.870, 107182.398
6023.798, 107147.898
6025.727, 107084.297
6027.655, 106867.797
6029.583, 106613.602
6031.512, 106477.102
6033.440, 106263.000
6035.369, 105870.203
6037.297, 105387.797
6039.226, 105568.703
6041.154, 105482.398
6043.083, 105206.602
6045.011, 104915.500
6046.939, 104530.703
6048.868, 104528.398
6050.796, 104252.398
6052.725, 103869.102
6054.653, 103652.898
6056.582, 103662.797
6058.510, 103795.898
6060.439, 103933.102
6062.367, 103823.500
6064.296, 103513.398
6066.224, 103633.602
6068.153, 103227.297
6070.081, 102835.000
6072.010, 102548.898
6073.938, 102313.500
6075.867, 102109.797
6077.795, 102128.602
6079.724, 102002.898
6081.652, 101924.797
6083.581, 101973.602
6085.509, 101838.297
6087.438, 101874.898
6089.366, 102003.500
6091.294, 102079.203
6093.223, 102046.203
6095.151, 101942.297
6097.080, 101779.398
6099.008, 101884.297
6100.937, 102076.500
6102.865, 102153.203
6104.793, 102040.000
6106.722, 101605.898
6108.650, 101612.398
6110.579, 101533.000
6112.507, 101428.500
6114.436, 101730.898
6116.364, 101652.898
6118.293, 101513.297
6120.221, 101483.398
6122.150, 101494.102
6124.078, 101443.000
6126.007, 101555.703
6127.935, 101732.102
6129.864, 101703.297
6131.792, 101545.500
6133.721, 101421.203
6135.649, 101376.000
6137.578, 101302.500
6139.506, 101270.703
6141.435, 101182.398
6143.363, 101029.398
6145.292, 100958.000
6147.220, 101138.297
6149.148, 101320.898
6151.077, 101300.398
6153.005, 101184.602
6154.934, 101195.297
6156.862, 100954.500
6158.791, 100542.602
6160.719, 100411.102
6162.647, 100407.203
6164.576, 100218.500
6166.504, 99875.094
6168.433, 99927.953
6170.361, 99923.547
6172.290, 99636.203
6174.218, 99203.344
6176.147, 98989.531
6178.075, 98800.438
6180.004, 98974.062
6181.932, 99002.312
6183.861, 98729.727
6185.789, 98348.250
6187.718, 98160.523
6189.646, 97787.180
6191.575, 97416.500
6193.503, 97275.617
6195.432, 97258.406
6197.360, 96871.273
6199.289, 96860.812
6201.217, 96769.547
6203.146, 96537.969
6205.074, 96359.398
6207.002, 96375.750
6208.931, 95975.469
6210.859, 95935.000
6212.788, 95780.930
6214.716, 95756.492
6216.645, 95911.977
6218.573, 95747.102
6220.501, 95465.250
6222.430, 95501.273
6224.358, 95589.883
6226.287, 95617.094
6228.215, 95614.703
6230.144, 95686.461
6232.072, 95142.602
6234.001, 95218.594
6235.929, 95194.672
6237.858, 94820.797
6239.786, 94653.797
6241.715, 94889.812
6243.643, 94872.758
6245.572, 94755.641
6247.500, 94743.438
6249.429, 94882.969
6251.357, 95043.883
6253.286, 95011.273
6255.214, 94990.406
6257.143, 95164.883
6259.071, 95293.344
6261.000, 95170.148
6262.928, 95064.023
6264.856, 95171.281
6266.785, 94844.703
6268.713, 94761.688
6270.642, 94916.156
6272.570, 94885.367
6274.499, 94944.672
6276.427, 95260.102
6278.355, 95450.438
6280.284, 95264.078
6282.212, 95119.758
6284.141, 95531.133
6286.069, 95441.219
6287.998, 95267.609
6289.926, 95378.680
6291.855, 95393.133
6293.783, 95126.789
6295.712, 94777.547
6297.640, 94837.094
6299.569, 94584.047
6301.497, 94636.977
6303.426, 94816.383
6305.354, 94945.297
6307.283, 95109.344
6309.211, 94801.633
6311.140, 94764.250
6313.068, 94494.781
6314.997, 94397.906
6316.925, 94545.242
6318.854, 94498.781
6320.782, 94466.523
6322.710, 94419.906
6324.639, 94293.883
6326.567, 94365.273
6328.496, 94365.531
6330.424, 93925.641
6332.353, 94201.594
6334.281, 94093.398
6336.209, 93921.102
6338.138, 93816.844
6340.066, 93672.008
6341.995, 93423.570
6343.923, 93411.891
6345.852, 93327.727
6347.780, 93246.680
6349.709, 92997.000
6351.637, 92975.023
6353.566, 93378.539
6355.494, 93149.023
6357.423, 92776.750
6359.351, 92665.719
6361.280, 92422.883
6363.208, 92330.906
6365.137, 92421.742
6367.065, 91958.039
6368.994, 91701.219
6370.922, 91801.969
6372.851, 91810.812
6374.779, 91660.523
6376.708, 91522.781
6378.636, 91472.742
6380.564, 91072.094
6382.493, 90766.023
6384.421, 90424.188
6386.350, 90256.859
6388.278, 90293.148
6390.207, 90316.273
6392.135, 90013.641
6394.063, 89804.891
6395.992, 89355.719
6397.920, 89216.727
6399.849, 89077.820
6401.777, 88776.359
6403.706, 88625.742
6405.634, 88440.406
6407.563, 88052.812
6409.491, 87983.852
6411.420, 87950.688
6413.348, 87824.352
6415.277, 87584.633
6417.205, 87050.797
6419.134, 86953.141
6421.062, 86611.023
6422.991, 86457.992
6424.919, 86309.602
6426.848, 86083.789
6428.776, 85914.992
6430.705, 85622.188
6432.633, 85282.750
6434.562, 85166.594
6436.490, 85047.188
6438.418, 84973.297
6440.347, 84989.219
6442.275, 84942.539
6444.204, 84264.211
6446.132, 84478.250
6448.061, 84493.680
6449.989, 84351.906
6451.917, 84110.430
6453.846, 83799.047
6455.774, 83578.648
6457.703, 83224.656
6459.631, 83039.344
6461.560, 82910.359
6463.488, 82639.812
6465.417, 82470.797
6467.345, 82455.141
6469.274, 82123.859
6471.202, 82286.930
6473.131, 82143.961
6475.059, 82138.906
6476.988, 81989.789
6478.916, 81801.820
6480.845, 81793.859
6482.773, 81784.039
6484.702, 81798.953
6486.630, 81681.711
6488.559, 81737.383
6490.487, 81724.797
6492.416, 81448.742
6494.344, 81077.133
6496.272, 80948.062
6498.201, 80815.523
6500.129, 80628.797
6502.058, 80462.227
6503.986, 80424.906
6505.915, 80434.320
6507.843, 80395.953
6509.771, 80306.211
6511.700, 80161.820
6513.628, 80049.922
6515.557, 79868.453
6517.485, 79560.922
6519.414, 79315.719
6521.342, 79157.789
6523.271, 78976.320
6525.199, 78846.797
6527.128, 78672.219
6529.056, 78609.102
6530.985, 78408.727
6532.913, 78207.469
6534.842, 78155.883
6536.770, 78127.992
6538.699, 77800.344
6540.627, 77693.258
6542.556, 77732.961
6544.484, 77453.312
6546.413, 77128.930
6548.341, 76657.609
6550.270, 76360.383
6552.198, 76487.844
6554.126, 76077.328
6556.055, 75788.648
6557.983, 75807.758
6559.912, 75823.023
6561.840, 75889.820
6563.769, 75599.602
6565.697, 75067.547
6567.625, 75067.938
6569.554, 74903.703
6571.482, 74778.773
6573.411, 74574.508
6575.339, 74299.719
6577.268, 74182.859
6579.196, 74186.477
6581.125, 74083.117
6583.053, 73801.422
6584.982, 73633.844
6586.910, 73558.992
6588.839, 73648.383
6590.767, 73226.172
6592.696, 73206.477
6594.624, 73267.656
6596.553, 72828.039
6598.481, 72633.211
6600.410, 72450.781
6602.338, 72342.820
6604.267, 72334.977
6606.195, 72221.117
6608.124, 72138.406
6610.052, 71935.039
##END=



