##NAMES=Enstatite
##RRUFFID=R120174
##IDEAL CHEMISTRY=Mg_2_Si_2_O_6_
##LOCALITY=Nuestra Señora del Carmen Mines, La Celia, Jumilla, Murcia, Spain
##OWNER=RRUFF
##SOURCE=Bob Jenkins
##DESCRIPTION=Transparent, pale greenish-brown bladed crystals associated with R120173 pseudobrookite
##STATUS=The identification of this mineral has been confirmed by single-crystal X-ray diffraction
##URL=https://www.rruff.net/odr/rruff_sample/R120174
##DIFFRACTION SAMPLE DESCRIPTION=Single crystal, powder profile is calculated
##CELL PARAMETERS=a: 18.277 b: 8.844 c: 5.2034 alpha: 90 beta: 90 gamma: 90 volume: 841.1 crystal system: orthorhombic
##FILETYPE=Raman RAW
##RAMAN WAVELENGTH=532

1.036855e+002, 6.758887e+001
1.056140e+002, 6.949661e+001
1.075425e+002, 7.032507e+001
1.094709e+002, 6.972044e+001
1.113994e+002, 6.751096e+001
1.133279e+002, 6.588894e+001
1.152563e+002, 6.537379e+001
1.171848e+002, 6.527919e+001
1.191133e+002, 6.487708e+001
1.210417e+002, 6.432531e+001
1.229702e+002, 6.330440e+001
1.248987e+002, 6.116252e+001
1.268271e+002, 5.782483e+001
1.287556e+002, 5.552910e+001
1.306841e+002, 5.538575e+001
1.326125e+002, 5.659301e+001
1.345410e+002, 5.722897e+001
1.364695e+002, 5.752270e+001
1.383979e+002, 5.714059e+001
1.403264e+002, 5.569336e+001
1.422549e+002, 5.238557e+001
1.441833e+002, 5.015338e+001
1.461118e+002, 4.993966e+001
1.480403e+002, 5.148576e+001
1.499687e+002, 5.241742e+001
1.518972e+002, 5.243060e+001
1.538257e+002, 5.198899e+001
1.557541e+002, 5.143957e+001
1.576826e+002, 5.039968e+001
1.596111e+002, 4.964085e+001
1.615395e+002, 4.936676e+001
1.634680e+002, 4.951175e+001
1.653965e+002, 4.971416e+001
1.673249e+002, 4.962613e+001
1.692534e+002, 4.967398e+001
1.711819e+002, 5.033509e+001
1.731103e+002, 5.077856e+001
1.750388e+002, 5.273320e+001
1.769673e+002, 5.697278e+001
1.788957e+002, 6.348797e+001
1.808242e+002, 7.089397e+001
1.827527e+002, 7.911330e+001
1.846811e+002, 8.801501e+001
1.866096e+002, 9.743860e+001
1.885381e+002, 1.078268e+002
1.904665e+002, 1.180864e+002
1.923950e+002, 1.277990e+002
1.943235e+002, 1.347287e+002
1.962519e+002, 1.378196e+002
1.981804e+002, 1.408169e+002
2.001089e+002, 1.445579e+002
2.020373e+002, 1.493710e+002
2.039658e+002, 1.564232e+002
2.058943e+002, 1.632822e+002
2.078227e+002, 1.690045e+002
2.097512e+002, 1.733664e+002
2.116797e+002, 1.773892e+002
2.136081e+002, 1.801931e+002
2.155366e+002, 1.826690e+002
2.174651e+002, 1.869724e+002
2.193935e+002, 1.939750e+002
2.213220e+002, 2.020329e+002
2.232505e+002, 2.112139e+002
2.251789e+002, 2.222664e+002
2.271074e+002, 2.312435e+002
2.290359e+002, 2.381040e+002
2.309643e+002, 2.428582e+002
2.328928e+002, 2.430385e+002
2.348213e+002, 2.373192e+002
2.367497e+002, 2.288386e+002
2.386782e+002, 2.186143e+002
2.406067e+002, 2.059475e+002
2.425351e+002, 1.942996e+002
2.444636e+002, 1.839563e+002
2.463921e+002, 1.750116e+002
2.483205e+002, 1.677899e+002
2.502490e+002, 1.627311e+002
2.521775e+002, 1.589182e+002
2.541059e+002, 1.557677e+002
2.560344e+002, 1.534304e+002
2.579629e+002, 1.515129e+002
2.598913e+002, 1.499093e+002
2.618198e+002, 1.486979e+002
2.637483e+002, 1.479424e+002
2.656767e+002, 1.478286e+002
2.676052e+002, 1.480611e+002
2.695337e+002, 1.484212e+002
2.714621e+002, 1.486373e+002
2.733906e+002, 1.494452e+002
2.753191e+002, 1.509653e+002
2.772475e+002, 1.531511e+002
2.791760e+002, 1.557156e+002
2.811045e+002, 1.587432e+002
2.830329e+002, 1.620886e+002
2.849614e+002, 1.657198e+002
2.868899e+002, 1.698759e+002
2.888183e+002, 1.738773e+002
2.907468e+002, 1.776120e+002
2.926753e+002, 1.811324e+002
2.946037e+002, 1.845450e+002
2.965322e+002, 1.877383e+002
2.984607e+002, 1.908992e+002
3.003891e+002, 1.938725e+002
3.023176e+002, 1.963449e+002
3.042461e+002, 1.998894e+002
3.061745e+002, 2.048677e+002
3.081030e+002, 2.111108e+002
3.100315e+002, 2.186682e+002
3.119599e+002, 2.278845e+002
3.138884e+002, 2.381440e+002
3.158169e+002, 2.490047e+002
3.177453e+002, 2.603242e+002
3.196738e+002, 2.738770e+002
3.216023e+002, 2.901306e+002
3.235307e+002, 3.087701e+002
3.254592e+002, 3.300283e+002
3.273877e+002, 3.569424e+002
3.293161e+002, 3.831786e+002
3.312446e+002, 4.093656e+002
3.331731e+002, 4.355153e+002
3.351015e+002, 4.528676e+002
3.370300e+002, 4.592753e+002
3.389585e+002, 4.571348e+002
3.408869e+002, 4.467997e+002
3.428154e+002, 4.253737e+002
3.447439e+002, 4.019206e+002
3.466723e+002, 3.771846e+002
3.486008e+002, 3.514362e+002
3.505292e+002, 3.287757e+002
3.524577e+002, 3.092814e+002
3.543862e+002, 2.927375e+002
3.563146e+002, 2.796313e+002
3.582431e+002, 2.697201e+002
3.601716e+002, 2.623138e+002
3.621000e+002, 2.575819e+002
3.640285e+002, 2.551618e+002
3.659570e+002, 2.546320e+002
3.678854e+002, 2.570344e+002
3.698139e+002, 2.602701e+002
3.717424e+002, 2.635043e+002
3.736708e+002, 2.667213e+002
3.755993e+002, 2.699001e+002
3.775278e+002, 2.724006e+002
3.794562e+002, 2.749395e+002
3.813847e+002, 2.789966e+002
3.833132e+002, 2.853307e+002
3.852416e+002, 2.923277e+002
3.871701e+002, 3.001662e+002
3.890986e+002, 3.087885e+002
3.910270e+002, 3.164541e+002
3.929555e+002, 3.250594e+002
3.948840e+002, 3.316694e+002
3.968124e+002, 3.328708e+002
3.987409e+002, 3.277196e+002
4.006694e+002, 3.196312e+002
4.025978e+002, 3.074695e+002
4.045263e+002, 2.924281e+002
4.064548e+002, 2.781902e+002
4.083832e+002, 2.647469e+002
4.103117e+002, 2.523559e+002
4.122402e+002, 2.412954e+002
4.141686e+002, 2.315943e+002
4.160971e+002, 2.228760e+002
4.180256e+002, 2.152093e+002
4.199540e+002, 2.084966e+002
4.218825e+002, 2.027606e+002
4.238110e+002, 1.976330e+002
4.257394e+002, 1.938822e+002
4.276679e+002, 1.927475e+002
4.295964e+002, 1.938679e+002
4.315248e+002, 1.937133e+002
4.334533e+002, 1.915109e+002
4.353818e+002, 1.880390e+002
4.373102e+002, 1.838009e+002
4.392387e+002, 1.775045e+002
4.411672e+002, 1.719330e+002
4.430956e+002, 1.671799e+002
4.450241e+002, 1.632545e+002
4.469526e+002, 1.600142e+002
4.488810e+002, 1.576120e+002
4.508095e+002, 1.557992e+002
4.527380e+002, 1.545536e+002
4.546664e+002, 1.540688e+002
4.565949e+002, 1.534903e+002
4.585234e+002, 1.529797e+002
4.604518e+002, 1.522597e+002
4.623803e+002, 1.510968e+002
4.643088e+002, 1.491907e+002
4.662372e+002, 1.474617e+002
4.681657e+002, 1.460927e+002
4.700942e+002, 1.450735e+002
4.720226e+002, 1.442431e+002
4.739511e+002, 1.436050e+002
4.758796e+002, 1.431642e+002
4.778080e+002, 1.429704e+002
4.797365e+002, 1.430800e+002
4.816650e+002, 1.431111e+002
4.835934e+002, 1.428789e+002
4.855219e+002, 1.426303e+002
4.874504e+002, 1.425989e+002
4.893788e+002, 1.426239e+002
4.913073e+002, 1.431589e+002
4.932358e+002, 1.445174e+002
4.951642e+002, 1.465259e+002
4.970927e+002, 1.485464e+002
4.990212e+002, 1.501945e+002
5.009496e+002, 1.521668e+002
5.028781e+002, 1.547040e+002
5.048066e+002, 1.577865e+002
5.067350e+002, 1.615485e+002
5.086635e+002, 1.667527e+002
5.105920e+002, 1.722933e+002
5.125204e+002, 1.772481e+002
5.144489e+002, 1.816042e+002
5.163774e+002, 1.852893e+002
5.183058e+002, 1.881714e+002
5.202343e+002, 1.903058e+002
5.221628e+002, 1.919740e+002
5.240912e+002, 1.928409e+002
5.260197e+002, 1.936815e+002
5.279482e+002, 1.948365e+002
5.298766e+002, 1.964074e+002
5.318051e+002, 1.978469e+002
5.337336e+002, 1.992766e+002
5.356620e+002, 2.005143e+002
5.375905e+002, 2.015664e+002
5.395190e+002, 2.026008e+002
5.414474e+002, 2.027361e+002
5.433759e+002, 2.019204e+002
5.453044e+002, 2.001284e+002
5.472328e+002, 1.970838e+002
5.491613e+002, 1.917019e+002
5.510898e+002, 1.865948e+002
5.530182e+002, 1.824842e+002
5.549467e+002, 1.792173e+002
5.568752e+002, 1.764441e+002
5.588036e+002, 1.741937e+002
5.607321e+002, 1.724691e+002
5.626606e+002, 1.713802e+002
5.645891e+002, 1.711065e+002
5.665175e+002, 1.709745e+002
5.684460e+002, 1.712513e+002
5.703745e+002, 1.715010e+002
5.723029e+002, 1.713716e+002
5.742314e+002, 1.707607e+002
5.761599e+002, 1.698904e+002
5.780883e+002, 1.687590e+002
5.800168e+002, 1.673752e+002
5.819453e+002, 1.658289e+002
5.838737e+002, 1.642228e+002
5.858022e+002, 1.623016e+002
5.877307e+002, 1.600440e+002
5.896591e+002, 1.574743e+002
5.915876e+002, 1.543888e+002
5.935161e+002, 1.502951e+002
5.954445e+002, 1.461527e+002
5.973729e+002, 1.424781e+002
5.993014e+002, 1.393442e+002
6.012299e+002, 1.361288e+002
6.031583e+002, 1.323580e+002
6.050868e+002, 1.287197e+002
6.070153e+002, 1.257747e+002
6.089437e+002, 1.236839e+002
6.108722e+002, 1.220903e+002
6.128007e+002, 1.208439e+002
6.147291e+002, 1.200926e+002
6.166576e+002, 1.201215e+002
6.185861e+002, 1.211878e+002
6.205145e+002, 1.224658e+002
6.224430e+002, 1.234182e+002
6.243715e+002, 1.241483e+002
6.262999e+002, 1.258537e+002
6.282284e+002, 1.285836e+002
6.301569e+002, 1.321530e+002
6.320853e+002, 1.364111e+002
6.340138e+002, 1.413616e+002
6.359423e+002, 1.475803e+002
6.378707e+002, 1.548852e+002
6.397992e+002, 1.638245e+002
6.417277e+002, 1.745654e+002
6.436561e+002, 1.869325e+002
6.455846e+002, 2.018225e+002
6.475131e+002, 2.199616e+002
6.494415e+002, 2.402548e+002
6.513700e+002, 2.622552e+002
6.532985e+002, 2.873700e+002
6.552269e+002, 3.096654e+002
6.571554e+002, 3.278850e+002
6.590839e+002, 3.424474e+002
6.610123e+002, 3.533218e+002
6.629408e+002, 3.557847e+002
6.648693e+002, 3.597980e+002
6.667977e+002, 3.660983e+002
6.687262e+002, 3.753112e+002
6.706547e+002, 3.892970e+002
6.725831e+002, 4.142395e+002
6.745116e+002, 4.349723e+002
6.764401e+002, 4.481825e+002
6.783685e+002, 4.542572e+002
6.802970e+002, 4.460642e+002
6.822255e+002, 4.176197e+002
6.841539e+002, 3.823499e+002
6.860824e+002, 3.443696e+002
6.880109e+002, 3.037310e+002
6.899393e+002, 2.677540e+002
6.918678e+002, 2.384132e+002
6.937963e+002, 2.140872e+002
6.957247e+002, 1.940781e+002
6.976532e+002, 1.797528e+002
6.995817e+002, 1.679362e+002
7.015101e+002, 1.593310e+002
7.034386e+002, 1.528831e+002
7.053671e+002, 1.475193e+002
7.072955e+002, 1.432737e+002
7.092240e+002, 1.397451e+002
7.111525e+002, 1.368206e+002
7.130809e+002, 1.345225e+002
7.150094e+002, 1.329658e+002
7.169379e+002, 1.327711e+002
7.188663e+002, 1.326049e+002
7.207948e+002, 1.321832e+002
7.227233e+002, 1.317390e+002
7.246517e+002, 1.317251e+002
7.265802e+002, 1.322380e+002
7.285087e+002, 1.330007e+002
7.304371e+002, 1.339868e+002
7.323656e+002, 1.351482e+002
7.342941e+002, 1.362591e+002
7.362225e+002, 1.373619e+002
7.381510e+002, 1.383708e+002
7.400795e+002, 1.393142e+002
7.420079e+002, 1.401575e+002
7.439364e+002, 1.408160e+002
7.458649e+002, 1.416844e+002
7.477933e+002, 1.417881e+002
7.497218e+002, 1.406634e+002
7.516503e+002, 1.382086e+002
7.535787e+002, 1.356375e+002
7.555072e+002, 1.326025e+002
7.574357e+002, 1.297511e+002
7.593641e+002, 1.272774e+002
7.612926e+002, 1.251716e+002
7.632211e+002, 1.237801e+002
7.651495e+002, 1.235804e+002
7.670780e+002, 1.237081e+002
7.690065e+002, 1.236476e+002
7.709349e+002, 1.232528e+002
7.728634e+002, 1.232498e+002
7.747919e+002, 1.242099e+002
7.767203e+002, 1.251301e+002
7.786488e+002, 1.252423e+002
7.805773e+002, 1.245545e+002
7.825057e+002, 1.237479e+002
7.844342e+002, 1.229100e+002
7.863627e+002, 1.219677e+002
7.882911e+002, 1.207953e+002
7.902196e+002, 1.191397e+002
7.921481e+002, 1.178924e+002
7.940765e+002, 1.173288e+002
7.960050e+002, 1.169832e+002
7.979335e+002, 1.164036e+002
7.998619e+002, 1.155400e+002
8.017904e+002, 1.149091e+002
8.037189e+002, 1.145996e+002
8.056473e+002, 1.146269e+002
8.075758e+002, 1.150074e+002
8.095043e+002, 1.158179e+002
8.114327e+002, 1.168222e+002
8.133612e+002, 1.179282e+002
8.152897e+002, 1.192149e+002
8.172181e+002, 1.207845e+002
8.191466e+002, 1.226224e+002
8.210751e+002, 1.246798e+002
8.230035e+002, 1.273733e+002
8.249320e+002, 1.300257e+002
8.268605e+002, 1.320059e+002
8.287889e+002, 1.331145e+002
8.307174e+002, 1.341641e+002
8.326459e+002, 1.353480e+002
8.345743e+002, 1.365026e+002
8.365028e+002, 1.373333e+002
8.384313e+002, 1.375873e+002
8.403597e+002, 1.383196e+002
8.422882e+002, 1.400493e+002
8.442167e+002, 1.420892e+002
8.461451e+002, 1.438556e+002
8.480736e+002, 1.453012e+002
8.500021e+002, 1.465570e+002
8.519305e+002, 1.474378e+002
8.538590e+002, 1.482817e+002
8.557875e+002, 1.495154e+002
8.577159e+002, 1.515678e+002
8.596444e+002, 1.529567e+002
8.615729e+002, 1.533520e+002
8.635013e+002, 1.531895e+002
8.654298e+002, 1.527504e+002
8.673583e+002, 1.519601e+002
8.692867e+002, 1.514404e+002
8.712152e+002, 1.515933e+002
8.731437e+002, 1.518748e+002
8.750721e+002, 1.518318e+002
8.770006e+002, 1.511301e+002
8.789291e+002, 1.508973e+002
8.808575e+002, 1.512992e+002
8.827860e+002, 1.520473e+002
8.847145e+002, 1.529355e+002
8.866429e+002, 1.539475e+002
8.885714e+002, 1.551696e+002
8.904999e+002, 1.568310e+002
8.924283e+002, 1.585152e+002
8.943568e+002, 1.599907e+002
8.962853e+002, 1.612347e+002
8.982137e+002, 1.622904e+002
9.001422e+002, 1.628183e+002
9.020707e+002, 1.634511e+002
9.039991e+002, 1.645417e+002
9.059276e+002, 1.660802e+002
9.078561e+002, 1.679708e+002
9.097845e+002, 1.703027e+002
9.117130e+002, 1.729205e+002
9.136415e+002, 1.756887e+002
9.155699e+002, 1.786013e+002
9.174984e+002, 1.819407e+002
9.194269e+002, 1.862805e+002
9.213553e+002, 1.904316e+002
9.232838e+002, 1.941957e+002
9.252123e+002, 1.974370e+002
9.271407e+002, 1.997025e+002
9.290692e+002, 2.008356e+002
9.309976e+002, 2.012235e+002
9.329261e+002, 2.009564e+002
9.348546e+002, 2.000885e+002
9.367830e+002, 1.986187e+002
9.387115e+002, 1.964367e+002
9.406400e+002, 1.938152e+002
9.425684e+002, 1.908079e+002
9.444969e+002, 1.874613e+002
9.464254e+002, 1.837951e+002
9.483538e+002, 1.796423e+002
9.502823e+002, 1.755386e+002
9.522108e+002, 1.713316e+002
9.541392e+002, 1.673551e+002
9.560677e+002, 1.639535e+002
9.579962e+002, 1.611597e+002
9.599246e+002, 1.588654e+002
9.618531e+002, 1.568799e+002
9.637816e+002, 1.554424e+002
9.657100e+002, 1.547702e+002
9.676385e+002, 1.546441e+002
9.695670e+002, 1.558566e+002
9.714954e+002, 1.583985e+002
9.734239e+002, 1.622157e+002
9.753524e+002, 1.672839e+002
9.772808e+002, 1.734859e+002
9.792093e+002, 1.812499e+002
9.811378e+002, 1.904240e+002
9.830662e+002, 2.015562e+002
9.849947e+002, 2.145208e+002
9.869232e+002, 2.293094e+002
9.888516e+002, 2.470357e+002
9.907801e+002, 2.687085e+002
9.927086e+002, 2.923886e+002
9.946370e+002, 3.183615e+002
9.965655e+002, 3.462032e+002
9.984940e+002, 3.735031e+002
1.000422e+003, 4.023173e+002
1.002351e+003, 4.270281e+002
1.004279e+003, 4.458883e+002
1.006208e+003, 4.590321e+002
1.008136e+003, 4.660612e+002
1.010065e+003, 4.657490e+002
1.011993e+003, 4.621224e+002
1.013922e+003, 4.560079e+002
1.015850e+003, 4.475479e+002
1.017779e+003, 4.367951e+002
1.019707e+003, 4.231228e+002
1.021636e+003, 4.084355e+002
1.023564e+003, 3.923158e+002
1.025493e+003, 3.755239e+002
1.027421e+003, 3.585380e+002
1.029349e+003, 3.413577e+002
1.031278e+003, 3.232523e+002
1.033206e+003, 3.027806e+002
1.035135e+003, 2.829257e+002
1.037063e+003, 2.649380e+002
1.038992e+003, 2.486930e+002
1.040920e+003, 2.336231e+002
1.042849e+003, 2.194444e+002
1.044777e+003, 2.068411e+002
1.046706e+003, 1.963942e+002
1.048634e+003, 1.876568e+002
1.050563e+003, 1.794941e+002
1.052491e+003, 1.717402e+002
1.054420e+003, 1.649418e+002
1.056348e+003, 1.594351e+002
1.058276e+003, 1.548887e+002
1.060205e+003, 1.509953e+002
1.062133e+003, 1.478192e+002
1.064062e+003, 1.449584e+002
1.065990e+003, 1.426471e+002
1.067919e+003, 1.403820e+002
1.069847e+003, 1.377544e+002
1.071776e+003, 1.346946e+002
1.073704e+003, 1.322948e+002
1.075633e+003, 1.305587e+002
1.077561e+003, 1.293579e+002
1.079490e+003, 1.289214e+002
1.081418e+003, 1.289691e+002
1.083347e+003, 1.288367e+002
1.085275e+003, 1.285312e+002
1.087203e+003, 1.280076e+002
1.089132e+003, 1.270773e+002
1.091060e+003, 1.260449e+002
1.092989e+003, 1.252303e+002
1.094917e+003, 1.247158e+002
1.096846e+003, 1.242424e+002
1.098774e+003, 1.238418e+002
1.100703e+003, 1.234239e+002
1.102631e+003, 1.228467e+002
1.104560e+003, 1.220875e+002
1.106488e+003, 1.215942e+002
1.108417e+003, 1.215665e+002
1.110345e+003, 1.214860e+002
1.112273e+003, 1.212377e+002
1.114202e+003, 1.207792e+002
1.116130e+003, 1.199937e+002
1.118059e+003, 1.187867e+002
1.119987e+003, 1.176027e+002
1.121916e+003, 1.166997e+002
1.123844e+003, 1.158200e+002
1.125773e+003, 1.147212e+002
1.127701e+003, 1.133465e+002
1.129630e+003, 1.119360e+002
1.131558e+003, 1.103945e+002
1.133487e+003, 1.088931e+002
1.135415e+003, 1.074701e+002
1.137344e+003, 1.061349e+002
1.139272e+003, 1.049432e+002
1.141200e+003, 1.038830e+002
1.143129e+003, 1.029584e+002
1.145057e+003, 1.022475e+002
1.146986e+003, 1.016263e+002
1.148914e+003, 1.009280e+002
1.150843e+003, 1.001202e+002
1.152771e+003, 9.936729e+001
1.154700e+003, 9.862929e+001
1.156628e+003, 9.802335e+001
1.158557e+003, 9.772011e+001
1.160485e+003, 9.775182e+001
1.162414e+003, 9.749525e+001
1.164342e+003, 9.666817e+001
1.166271e+003, 9.594921e+001
1.168199e+003, 9.558395e+001
1.170127e+003, 9.544114e+001
1.172056e+003, 9.527020e+001
1.173984e+003, 9.507121e+001
1.175913e+003, 9.486922e+001
1.177841e+003, 9.470638e+001
1.179770e+003, 9.450919e+001
1.181698e+003, 9.413307e+001
1.183627e+003, 9.358595e+001
1.185555e+003, 9.335897e+001
1.187484e+003, 9.368311e+001
1.189412e+003, 9.408019e+001
1.191341e+003, 9.447290e+001
1.193269e+003, 9.481658e+001
1.195198e+003, 9.501134e+001
1.197126e+003, 9.494688e+001
1.199054e+003, 9.491322e+001
1.200983e+003, 9.499306e+001
1.202911e+003, 9.506229e+001
1.204840e+003, 9.502829e+001
1.206768e+003, 9.490196e+001
1.208697e+003, 9.471351e+001
1.210625e+003, 9.436874e+001
1.212554e+003, 9.413164e+001
1.214482e+003, 9.426267e+001
1.216411e+003, 9.451962e+001
1.218339e+003, 9.442611e+001
1.220268e+003, 9.377527e+001
1.222196e+003, 9.347518e+001
1.224125e+003, 9.384724e+001
1.226053e+003, 9.444255e+001
1.227981e+003, 9.516319e+001
1.229910e+003, 9.601078e+001
1.231838e+003, 9.633471e+001
1.233767e+003, 9.550062e+001
1.235695e+003, 9.501688e+001
1.237624e+003, 9.545901e+001
1.239552e+003, 9.631092e+001
1.241481e+003, 9.678403e+001
1.243409e+003, 9.683064e+001
1.245338e+003, 9.707201e+001
1.247266e+003, 9.780116e+001
1.249195e+003, 9.850979e+001
1.251123e+003, 9.884910e+001
1.253052e+003, 9.894571e+001
1.254980e+003, 9.923728e+001
1.256908e+003, 9.996861e+001
1.258837e+003, 1.003527e+002
1.260765e+003, 9.971577e+001
1.262694e+003, 9.902572e+001
1.264622e+003, 9.923374e+001
1.266551e+003, 1.005585e+002
1.268479e+003, 1.015025e+002
1.270408e+003, 1.017218e+002
1.272336e+003, 1.020209e+002
1.274265e+003, 1.028092e+002
1.276193e+003, 1.038141e+002
1.278122e+003, 1.044076e+002
1.280050e+003, 1.044541e+002
1.281979e+003, 1.048301e+002
1.283907e+003, 1.060511e+002
1.285835e+003, 1.072556e+002
1.287764e+003, 1.077539e+002
1.289692e+003, 1.077865e+002
1.291621e+003, 1.081675e+002
1.293549e+003, 1.091036e+002
1.295478e+003, 1.099322e+002
1.297406e+003, 1.103518e+002
1.299335e+003, 1.106644e+002
1.301263e+003, 1.111022e+002
1.303192e+003, 1.116752e+002
1.305120e+003, 1.123621e+002
1.307049e+003, 1.134407e+002
1.308977e+003, 1.143097e+002
1.310906e+003, 1.147459e+002
1.312834e+003, 1.149149e+002
1.314762e+003, 1.150394e+002
1.316691e+003, 1.150417e+002
1.318619e+003, 1.152612e+002
1.320548e+003, 1.160270e+002
1.322476e+003, 1.166734e+002
1.324405e+003, 1.167987e+002
1.326333e+003, 1.165652e+002
1.328262e+003, 1.163765e+002
1.330190e+003, 1.162158e+002
1.332119e+003, 1.161958e+002
1.334047e+003, 1.166090e+002
1.335976e+003, 1.169089e+002
1.337904e+003, 1.167480e+002
1.339833e+003, 1.161756e+002
1.341761e+003, 1.154472e+002
1.343689e+003, 1.144541e+002
1.345618e+003, 1.135354e+002
1.347546e+003, 1.128480e+002
1.349475e+003, 1.121955e+002
1.351403e+003, 1.113699e+002
1.353332e+003, 1.103400e+002
1.355260e+003, 1.095114e+002
1.357189e+003, 1.088367e+002
1.359117e+003, 1.084450e+002
1.361046e+003, 1.085915e+002
1.362974e+003, 1.089155e+002
1.364903e+003, 1.089525e+002
1.366831e+003, 1.086478e+002
1.368760e+003, 1.082675e+002
1.370688e+003, 1.078327e+002
1.372616e+003, 1.072676e+002
1.374545e+003, 1.064908e+002
1.376473e+003, 1.055940e+002
1.378402e+003, 1.046888e+002
1.380330e+003, 1.037774e+002
1.382259e+003, 1.030428e+002
1.384187e+003, 1.024975e+002
1.386116e+003, 1.021993e+002
1.388044e+003, 1.024018e+002
1.389973e+003, 1.027968e+002
1.391901e+003, 1.027112e+002
1.393830e+003, 1.019814e+002
1.395758e+003, 1.014695e+002
1.397687e+003, 1.015383e+002
1.399615e+003, 1.015899e+002
1.401543e+003, 1.013084e+002
1.403472e+003, 1.008248e+002
1.405400e+003, 1.005268e+002
1.407329e+003, 1.005671e+002
1.409257e+003, 1.005000e+002
1.411186e+003, 1.002259e+002
1.413114e+003, 9.994923e+001
1.415043e+003, 9.987605e+001
1.416971e+003, 9.989155e+001
1.418900e+003, 9.954906e+001
1.420828e+003, 9.858165e+001
1.422757e+003, 9.793002e+001
1.424685e+003, 9.773011e+001
1.426614e+003, 9.781031e+001
1.428542e+003, 9.830320e+001
1.430470e+003, 9.898983e+001
1.432399e+003, 9.916944e+001
1.434327e+003, 9.867611e+001
1.436256e+003, 9.846966e+001
1.438184e+003, 9.900736e+001
1.440113e+003, 9.960381e+001
1.442041e+003, 9.979201e+001
1.443970e+003, 9.972476e+001
1.445898e+003, 9.975624e+001
1.447827e+003, 9.990871e+001
1.449755e+003, 1.000369e+002
1.451684e+003, 1.002122e+002
1.453612e+003, 1.002215e+002
1.455541e+003, 9.987414e+001
1.457469e+003, 9.930474e+001
1.459397e+003, 9.888454e+001
1.461326e+003, 9.863612e+001
1.463254e+003, 9.853264e+001
1.465183e+003, 9.886335e+001
1.467111e+003, 9.903055e+001
1.469040e+003, 9.855656e+001
1.470968e+003, 9.775706e+001
1.472897e+003, 9.740684e+001
1.474825e+003, 9.761225e+001
1.476754e+003, 9.804285e+001
1.478682e+003, 9.909115e+001
1.480611e+003, 9.989542e+001
1.482539e+003, 9.999561e+001
1.484468e+003, 9.965498e+001
1.486396e+003, 9.934450e+001
1.488324e+003, 9.906934e+001
1.490253e+003, 9.877818e+001
1.492181e+003, 9.819960e+001
1.494110e+003, 9.790342e+001
1.496038e+003, 9.831459e+001
1.497967e+003, 9.899106e+001
1.499895e+003, 9.935205e+001
1.501824e+003, 9.941471e+001
1.503752e+003, 9.923728e+001
1.505681e+003, 9.873091e+001
1.507609e+003, 9.820675e+001
1.509538e+003, 9.781651e+001
1.511466e+003, 9.746010e+001
1.513395e+003, 9.684203e+001
1.515323e+003, 9.608232e+001
1.517251e+003, 9.614903e+001
1.519180e+003, 9.752232e+001
1.521108e+003, 9.856371e+001
1.523037e+003, 9.850914e+001
1.524965e+003, 9.811739e+001
1.526894e+003, 9.790011e+001
1.528822e+003, 9.780842e+001
1.530751e+003, 9.763110e+001
1.532679e+003, 9.726062e+001
1.534608e+003, 9.721186e+001
1.536536e+003, 9.816727e+001
1.538465e+003, 9.888750e+001
1.540393e+003, 9.848622e+001
1.542322e+003, 9.744355e+001
1.544250e+003, 9.699336e+001
1.546178e+003, 9.722499e+001
1.548107e+003, 9.765908e+001
1.550035e+003, 9.852975e+001
1.551964e+003, 9.917837e+001
1.553892e+003, 9.917430e+001
1.555821e+003, 9.888997e+001
1.557749e+003, 9.888413e+001
1.559678e+003, 9.923573e+001
1.561606e+003, 9.941244e+001
1.563535e+003, 9.943076e+001
1.565463e+003, 9.928520e+001
1.567392e+003, 9.874666e+001
1.569320e+003, 9.825383e+001
1.571249e+003, 9.830221e+001
1.573177e+003, 9.879948e+001
1.575105e+003, 9.892426e+001
1.577034e+003, 9.818948e+001
1.578962e+003, 9.780694e+001
1.580891e+003, 9.822632e+001
1.582819e+003, 9.856286e+001
1.584748e+003, 9.822048e+001
1.586676e+003, 9.752360e+001
1.588605e+003, 9.716862e+001
1.590533e+003, 9.726881e+001
1.592462e+003, 9.736722e+001
1.594390e+003, 9.742616e+001
1.596319e+003, 9.751484e+001
1.598247e+003, 9.761582e+001
1.600176e+003, 9.774881e+001
1.602104e+003, 9.798544e+001
1.604032e+003, 9.829531e+001
1.605961e+003, 9.836882e+001
1.607889e+003, 9.797900e+001
1.609818e+003, 9.788245e+001
1.611746e+003, 9.861356e+001
1.613675e+003, 9.928651e+001
1.615603e+003, 9.939593e+001
1.617532e+003, 9.908435e+001
1.619460e+003, 9.854507e+001
1.621389e+003, 9.772753e+001
1.623317e+003, 9.733066e+001
1.625246e+003, 9.765081e+001
1.627174e+003, 9.802682e+001
1.629103e+003, 9.822633e+001
1.631031e+003, 9.835507e+001
1.632959e+003, 9.861546e+001
1.634888e+003, 9.891250e+001
1.636816e+003, 9.871020e+001
1.638745e+003, 9.776681e+001
1.640673e+003, 9.721440e+001
1.642602e+003, 9.761754e+001
1.644530e+003, 9.809983e+001
1.646459e+003, 9.808788e+001
1.648387e+003, 9.792137e+001
1.650316e+003, 9.822710e+001
1.652244e+003, 9.897583e+001
1.654173e+003, 9.921478e+001
1.656101e+003, 9.850661e+001
1.658030e+003, 9.810678e+001
1.659958e+003, 9.862263e+001
1.661886e+003, 9.939125e+001
1.663815e+003, 1.001505e+002
1.665743e+003, 1.007484e+002
1.667672e+003, 1.006909e+002
1.669600e+003, 9.989870e+001
1.671529e+003, 9.932494e+001
1.673457e+003, 9.919715e+001
1.675386e+003, 9.919068e+001
1.677314e+003, 9.924284e+001
1.679243e+003, 9.929285e+001
1.681171e+003, 9.918931e+001
1.683100e+003, 9.900996e+001
1.685028e+003, 9.916912e+001
1.686957e+003, 9.977877e+001
1.688885e+003, 1.001818e+002
1.690813e+003, 1.001369e+002
1.692742e+003, 1.000057e+002
1.694670e+003, 1.000812e+002
1.696599e+003, 1.001023e+002
1.698527e+003, 9.965128e+001
1.700456e+003, 9.882078e+001
1.702384e+003, 9.828037e+001
1.704313e+003, 9.812987e+001
1.706241e+003, 9.808979e+001
1.708170e+003, 9.818063e+001
1.710098e+003, 9.825768e+001
1.712027e+003, 9.821301e+001
1.713955e+003, 9.813040e+001
1.715884e+003, 9.812061e+001
1.717812e+003, 9.818204e+001
1.719740e+003, 9.826908e+001
1.721669e+003, 9.838418e+001
1.723597e+003, 9.847716e+001
1.725526e+003, 9.852894e+001
1.727454e+003, 9.853206e+001
1.729383e+003, 9.845069e+001
1.731311e+003, 9.831892e+001
1.733240e+003, 9.818300e+001
1.735168e+003, 9.805009e+001
1.737097e+003, 9.798827e+001
1.739025e+003, 9.805647e+001
1.740954e+003, 9.807375e+001
1.742882e+003, 9.789029e+001
1.744811e+003, 9.777030e+001
1.746739e+003, 9.807080e+001
1.748667e+003, 9.844714e+001
1.750596e+003, 9.812252e+001
1.752524e+003, 9.717556e+001
1.754453e+003, 9.719202e+001
1.756381e+003, 9.875371e+001
1.758310e+003, 9.991988e+001
1.760238e+003, 9.987756e+001
1.762167e+003, 9.961413e+001
1.764095e+003, 9.974789e+001
1.766024e+003, 9.998698e+001
1.767952e+003, 9.978001e+001
1.769880e+003, 9.918201e+001
1.771809e+003, 9.898181e+001
1.773737e+003, 9.940337e+001
1.775666e+003, 9.965797e+001
1.777594e+003, 9.937059e+001
1.779523e+003, 9.911765e+001
1.781451e+003, 9.927883e+001
1.783380e+003, 9.960258e+001
1.785308e+003, 9.977969e+001
1.787237e+003, 9.981540e+001
1.789165e+003, 9.971544e+001
1.791094e+003, 9.942449e+001
1.793022e+003, 9.917964e+001
1.794951e+003, 9.900945e+001
1.796879e+003, 9.890209e+001
1.798807e+003, 9.885832e+001
1.800736e+003, 9.887527e+001
1.802664e+003, 9.901455e+001
1.804593e+003, 9.922953e+001
1.806521e+003, 9.926125e+001
1.808450e+003, 9.909008e+001
1.810378e+003, 9.880371e+001
1.812307e+003, 9.805716e+001
1.814235e+003, 9.766318e+001
1.816164e+003, 9.802295e+001
1.818092e+003, 9.862025e+001
1.820021e+003, 9.912441e+001
1.821949e+003, 9.954163e+001
1.823878e+003, 9.988750e+001
1.825806e+003, 1.001745e+002
1.827734e+003, 1.003800e+002
1.829663e+003, 1.006884e+002
1.831591e+003, 1.006660e+002
1.833520e+003, 9.991616e+001
1.835448e+003, 9.923453e+001
1.837377e+003, 9.901254e+001
1.839305e+003, 9.911091e+001
1.841234e+003, 9.945332e+001
1.843162e+003, 1.000100e+002
1.845091e+003, 1.001854e+002
1.847019e+003, 9.979373e+001
1.848948e+003, 9.946841e+001
1.850876e+003, 9.917773e+001
1.852805e+003, 9.907945e+001
1.854733e+003, 9.943032e+001
1.856661e+003, 9.980518e+001
1.858590e+003, 9.973376e+001
1.860518e+003, 9.944595e+001
1.862447e+003, 9.969302e+001
1.864375e+003, 1.005377e+002
1.866304e+003, 1.008454e+002
1.868232e+003, 1.003434e+002
1.870161e+003, 9.982578e+001
1.872089e+003, 9.932687e+001
1.874018e+003, 9.906071e+001
1.875946e+003, 9.936312e+001
1.877875e+003, 9.978162e+001
1.879803e+003, 9.969703e+001
1.881732e+003, 9.929846e+001
1.883660e+003, 9.936695e+001
1.885589e+003, 9.997588e+001
1.887517e+003, 1.004296e+002
1.889445e+003, 1.006102e+002
1.891374e+003, 1.006718e+002
1.893302e+003, 1.006061e+002
1.895231e+003, 1.005108e+002
1.897159e+003, 1.004088e+002
1.899088e+003, 1.003446e+002
1.901016e+003, 1.005063e+002
1.902945e+003, 1.008170e+002
1.904873e+003, 1.006000e+002
1.906802e+003, 9.961417e+001
1.908730e+003, 9.902985e+001
1.910659e+003, 9.902058e+001
1.912587e+003, 9.937568e+001
1.914516e+003, 1.004430e+002
1.916444e+003, 1.014335e+002
1.918372e+003, 1.016706e+002
1.920301e+003, 1.015054e+002
1.922229e+003, 1.015841e+002
1.924158e+003, 1.019053e+002
1.926086e+003, 1.020787e+002
1.928015e+003, 1.020619e+002
1.929943e+003, 1.019584e+002
1.931872e+003, 1.016453e+002
1.933800e+003, 1.014021e+002
1.935729e+003, 1.014208e+002
1.937657e+003, 1.014023e+002
1.939586e+003, 1.010214e+002
1.941514e+003, 1.005414e+002
1.943443e+003, 1.004604e+002
1.945371e+003, 1.007596e+002
1.947299e+003, 1.010351e+002
1.949228e+003, 1.013106e+002
1.951156e+003, 1.013794e+002
1.953085e+003, 1.010825e+002
1.955013e+003, 1.008422e+002
1.956942e+003, 1.007663e+002
1.958870e+003, 1.008389e+002
1.960799e+003, 1.011921e+002
1.962727e+003, 1.016025e+002
1.964656e+003, 1.017540e+002
1.966584e+003, 1.016968e+002
1.968513e+003, 1.016175e+002
1.970441e+003, 1.014881e+002
1.972370e+003, 1.015697e+002
1.974298e+003, 1.019434e+002
1.976226e+003, 1.024015e+002
1.978155e+003, 1.032560e+002
1.980083e+003, 1.037476e+002
1.982012e+003, 1.032542e+002
1.983940e+003, 1.023925e+002
1.985869e+003, 1.016302e+002
1.987797e+003, 1.010997e+002
1.989726e+003, 1.014158e+002
1.991654e+003, 1.028450e+002
1.993583e+003, 1.035140e+002
1.995511e+003, 1.029233e+002
1.997440e+003, 1.025173e+002
1.999368e+003, 1.026184e+002
2.001297e+003, 1.026611e+002
2.003225e+003, 1.025860e+002
2.005153e+003, 1.022888e+002
2.007082e+003, 1.013575e+002
2.009010e+003, 1.003418e+002
2.010939e+003, 1.003494e+002
2.012867e+003, 1.011992e+002
2.014796e+003, 1.018107e+002
2.016724e+003, 1.021330e+002
2.018653e+003, 1.023024e+002
2.020581e+003, 1.022969e+002
2.022510e+003, 1.022252e+002
2.024438e+003, 1.020706e+002
2.026367e+003, 1.019078e+002
2.028295e+003, 1.016557e+002
2.030224e+003, 1.015119e+002
2.032152e+003, 1.018281e+002
2.034080e+003, 1.023600e+002
2.036009e+003, 1.024699e+002
2.037937e+003, 1.021449e+002
2.039866e+003, 1.019771e+002
2.041794e+003, 1.020415e+002
2.043723e+003, 1.021186e+002
2.045651e+003, 1.023389e+002
2.047580e+003, 1.023785e+002
2.049508e+003, 1.018712e+002
2.051437e+003, 1.015388e+002
2.053365e+003, 1.018165e+002
2.055294e+003, 1.023816e+002
2.057222e+003, 1.030866e+002
2.059151e+003, 1.037671e+002
2.061079e+003, 1.039894e+002
2.063008e+003, 1.037727e+002
2.064936e+003, 1.032452e+002
2.066865e+003, 1.023271e+002
2.068793e+003, 1.018005e+002
2.070721e+003, 1.019680e+002
2.072650e+003, 1.021353e+002
2.074578e+003, 1.020330e+002
2.076507e+003, 1.019264e+002
2.078435e+003, 1.020159e+002
2.080364e+003, 1.020835e+002
2.082292e+003, 1.017263e+002
2.084220e+003, 1.012531e+002
2.086149e+003, 1.015885e+002
2.088077e+003, 1.026937e+002
2.090006e+003, 1.027606e+002
2.091934e+003, 1.013403e+002
2.093863e+003, 1.004457e+002
2.095791e+003, 1.003355e+002
2.097720e+003, 1.003427e+002
2.099648e+003, 1.003859e+002
2.101577e+003, 1.004397e+002
2.103505e+003, 1.004894e+002
2.105434e+003, 1.005431e+002
2.107362e+003, 1.007333e+002
2.109291e+003, 1.008614e+002
2.111219e+003, 1.005406e+002
2.113147e+003, 9.994736e+001
2.115076e+003, 9.958448e+001
2.117004e+003, 9.944760e+001
2.118933e+003, 9.988917e+001
2.120861e+003, 1.013018e+002
2.122790e+003, 1.022323e+002
2.124718e+003, 1.022965e+002
2.126647e+003, 1.021882e+002
2.128575e+003, 1.020199e+002
2.130504e+003, 1.017631e+002
2.132432e+003, 1.013576e+002
2.134361e+003, 1.009493e+002
2.136289e+003, 1.007860e+002
2.138218e+003, 1.006820e+002
2.140146e+003, 1.001339e+002
2.142074e+003, 9.929849e+001
2.144003e+003, 9.889442e+001
2.145931e+003, 9.893204e+001
2.147860e+003, 9.939356e+001
2.149788e+003, 1.004905e+002
2.151717e+003, 1.009790e+002
2.153645e+003, 1.002439e+002
2.155574e+003, 9.955405e+001
2.157502e+003, 9.932497e+001
2.159431e+003, 9.919618e+001
2.161359e+003, 9.887949e+001
2.163288e+003, 9.869234e+001
2.165216e+003, 9.910390e+001
2.167145e+003, 9.974326e+001
2.169073e+003, 9.991882e+001
2.171001e+003, 9.971049e+001
2.172930e+003, 9.960709e+001
2.174858e+003, 9.960403e+001
2.176787e+003, 9.956636e+001
2.178715e+003, 9.947215e+001
2.180644e+003, 9.937688e+001
2.182572e+003, 9.919057e+001
2.184501e+003, 9.929372e+001
2.186429e+003, 1.003260e+002
2.188358e+003, 1.009103e+002
2.190286e+003, 1.000678e+002
2.192215e+003, 9.902976e+001
2.194143e+003, 9.861649e+001
2.196072e+003, 9.855793e+001
2.198000e+003, 9.859038e+001
2.199928e+003, 9.868140e+001
2.201857e+003, 9.877390e+001
2.203785e+003, 9.886135e+001
2.205714e+003, 9.885828e+001
2.207642e+003, 9.877378e+001
2.209571e+003, 9.843173e+001
2.211499e+003, 9.766650e+001
2.213428e+003, 9.743130e+001
2.215356e+003, 9.812226e+001
2.217285e+003, 9.882887e+001
2.219213e+003, 9.949698e+001
2.221142e+003, 9.976604e+001
2.223070e+003, 9.908344e+001
2.224999e+003, 9.835899e+001
2.226927e+003, 9.836535e+001
2.228855e+003, 9.866187e+001
2.230784e+003, 9.865580e+001
2.232712e+003, 9.852059e+001
2.234641e+003, 9.878445e+001
2.236569e+003, 9.938100e+001
2.238498e+003, 9.955717e+001
2.240426e+003, 9.929960e+001
2.242355e+003, 9.900082e+001
2.244283e+003, 9.862291e+001
2.246212e+003, 9.864558e+001
2.248140e+003, 9.942446e+001
2.250069e+003, 9.988136e+001
2.251997e+003, 9.942784e+001
2.253926e+003, 9.905923e+001
2.255854e+003, 9.916054e+001
2.257782e+003, 9.940605e+001
2.259711e+003, 9.991138e+001
2.261639e+003, 1.001602e+002
2.263568e+003, 9.938396e+001
2.265496e+003, 9.821255e+001
2.267425e+003, 9.754514e+001
2.269353e+003, 9.733666e+001
2.271282e+003, 9.764418e+001
2.273210e+003, 9.834521e+001
2.275139e+003, 9.849851e+001
2.277067e+003, 9.802821e+001
2.278996e+003, 9.793511e+001
2.280924e+003, 9.849934e+001
2.282853e+003, 9.881052e+001
2.284781e+003, 9.853257e+001
2.286709e+003, 9.837442e+001
2.288638e+003, 9.866312e+001
2.290566e+003, 9.873645e+001
2.292495e+003, 9.810261e+001
2.294423e+003, 9.758790e+001
2.296352e+003, 9.782085e+001
2.298280e+003, 9.810166e+001
2.300209e+003, 9.773335e+001
2.302137e+003, 9.724928e+001
2.304066e+003, 9.740128e+001
2.305994e+003, 9.786355e+001
2.307923e+003, 9.783684e+001
2.309851e+003, 9.747028e+001
2.311780e+003, 9.770236e+001
2.313708e+003, 9.859127e+001
2.315636e+003, 9.881389e+001
2.317565e+003, 9.801714e+001
2.319493e+003, 9.860606e+001
2.321422e+003, 1.013246e+002
2.323350e+003, 1.027293e+002
2.325279e+003, 1.019709e+002
2.327207e+003, 1.008598e+002
2.329136e+003, 9.956487e+001
2.331064e+003, 9.861083e+001
2.332993e+003, 9.840023e+001
2.334921e+003, 9.829586e+001
2.336850e+003, 9.779778e+001
2.338778e+003, 9.745040e+001
2.340707e+003, 9.791364e+001
2.342635e+003, 9.852603e+001
2.344563e+003, 9.854520e+001
2.346492e+003, 9.820688e+001
2.348420e+003, 9.772190e+001
2.350349e+003, 9.728077e+001
2.352277e+003, 9.752798e+001
2.354206e+003, 9.831081e+001
2.356134e+003, 9.865815e+001
2.358063e+003, 9.850171e+001
2.359991e+003, 9.847560e+001
2.361920e+003, 9.866768e+001
2.363848e+003, 9.866129e+001
2.365777e+003, 9.827546e+001
2.367705e+003, 9.817467e+001
2.369634e+003, 9.858862e+001
2.371562e+003, 9.886265e+001
2.373490e+003, 9.883983e+001
2.375419e+003, 9.872559e+001
2.377347e+003, 9.848183e+001
2.379276e+003, 9.833916e+001
2.381204e+003, 9.844570e+001
2.383133e+003, 9.862939e+001
2.385061e+003, 9.876991e+001
2.386990e+003, 9.895103e+001
2.388918e+003, 9.929057e+001
2.390847e+003, 9.968264e+001
2.392775e+003, 1.002113e+002
2.394704e+003, 1.005698e+002
2.396632e+003, 9.990681e+001
2.398561e+003, 9.869288e+001
2.400489e+003, 9.821799e+001
2.402417e+003, 9.835650e+001
2.404346e+003, 9.828774e+001
2.406274e+003, 9.800840e+001
2.408203e+003, 9.792823e+001
2.410131e+003, 9.808904e+001
2.412060e+003, 9.837805e+001
2.413988e+003, 9.890186e+001
2.415917e+003, 9.904961e+001
2.417845e+003, 9.863396e+001
2.419774e+003, 9.835182e+001
2.421702e+003, 9.826788e+001
2.423631e+003, 9.846828e+001
2.425559e+003, 9.919943e+001
2.427488e+003, 9.985454e+001
2.429416e+003, 1.004816e+002
2.431344e+003, 1.006920e+002
2.433273e+003, 1.001097e+002
2.435201e+003, 9.935838e+001
2.437130e+003, 9.852618e+001
2.439058e+003, 9.792066e+001
2.440987e+003, 9.787772e+001
2.442915e+003, 9.800240e+001
2.444844e+003, 9.778077e+001
2.446772e+003, 9.767306e+001
2.448701e+003, 9.870204e+001
2.450629e+003, 9.996703e+001
2.452558e+003, 9.959272e+001
2.454486e+003, 9.826157e+001
2.456415e+003, 9.782578e+001
2.458343e+003, 9.807870e+001
2.460271e+003, 9.797163e+001
2.462200e+003, 9.762939e+001
2.464128e+003, 9.793283e+001
2.466057e+003, 9.886880e+001
2.467985e+003, 9.967516e+001
2.469914e+003, 1.004299e+002
2.471842e+003, 1.003169e+002
2.473771e+003, 9.880760e+001
2.475699e+003, 9.812552e+001
2.477628e+003, 9.855556e+001
2.479556e+003, 9.882626e+001
2.481485e+003, 9.878661e+001
2.483413e+003, 9.860961e+001
2.485342e+003, 9.821410e+001
2.487270e+003, 9.797233e+001
2.489198e+003, 9.810378e+001
2.491127e+003, 9.820143e+001
2.493055e+003, 9.820100e+001
2.494984e+003, 9.811494e+001
2.496912e+003, 9.773519e+001
2.498841e+003, 9.759911e+001
2.500769e+003, 9.820971e+001
2.502698e+003, 9.866334e+001
2.504626e+003, 9.815482e+001
2.506555e+003, 9.765208e+001
2.508483e+003, 9.801610e+001
2.510412e+003, 9.844466e+001
2.512340e+003, 9.810943e+001
2.514269e+003, 9.765227e+001
2.516197e+003, 9.776165e+001
2.518125e+003, 9.814272e+001
2.520054e+003, 9.865451e+001
2.521982e+003, 9.900362e+001
2.523911e+003, 9.849610e+001
2.525839e+003, 9.767879e+001
2.527768e+003, 9.762441e+001
2.529696e+003, 9.806905e+001
2.531625e+003, 9.843087e+001
2.533553e+003, 9.867391e+001
2.535482e+003, 9.853323e+001
2.537410e+003, 9.810628e+001
2.539339e+003, 9.783284e+001
2.541267e+003, 9.773245e+001
2.543196e+003, 9.794460e+001
2.545124e+003, 9.845205e+001
2.547052e+003, 9.896208e+001
2.548981e+003, 9.950697e+001
2.550909e+003, 9.947237e+001
2.552838e+003, 9.872696e+001
2.554766e+003, 9.826431e+001
2.556695e+003, 9.813364e+001
2.558623e+003, 9.816939e+001
2.560552e+003, 9.843297e+001
2.562480e+003, 9.829014e+001
2.564409e+003, 9.740916e+001
2.566337e+003, 9.696043e+001
2.568266e+003, 9.728161e+001
2.570194e+003, 9.758519e+001
2.572123e+003, 9.782055e+001
2.574051e+003, 9.810132e+001
2.575979e+003, 9.851431e+001
2.577908e+003, 9.870785e+001
2.579836e+003, 9.845740e+001
2.581765e+003, 9.830178e+001
2.583693e+003, 9.850891e+001
2.585622e+003, 9.861270e+001
2.587550e+003, 9.837092e+001
2.589479e+003, 9.822061e+001
2.591407e+003, 9.828235e+001
2.593336e+003, 9.840604e+001
2.595264e+003, 9.867205e+001
2.597193e+003, 9.873570e+001
2.599121e+003, 9.822222e+001
2.601050e+003, 9.781084e+001
2.602978e+003, 9.797300e+001
2.604906e+003, 9.808399e+001
2.606835e+003, 9.764628e+001
2.608763e+003, 9.737340e+001
2.610692e+003, 9.782402e+001
2.612620e+003, 9.821754e+001
2.614549e+003, 9.798475e+001
2.616477e+003, 9.765012e+001
2.618406e+003, 9.742992e+001
2.620334e+003, 9.739068e+001
2.622263e+003, 9.779282e+001
2.624191e+003, 9.814902e+001
2.626120e+003, 9.805016e+001
2.628048e+003, 9.779414e+001
2.629977e+003, 9.743663e+001
2.631905e+003, 9.722047e+001
2.633833e+003, 9.744085e+001
2.635762e+003, 9.779991e+001
2.637690e+003, 9.808659e+001
2.639619e+003, 9.825683e+001
2.641547e+003, 9.830282e+001
2.643476e+003, 9.817860e+001
2.645404e+003, 9.765833e+001
2.647333e+003, 9.715408e+001
2.649261e+003, 9.707759e+001
2.651190e+003, 9.733878e+001
2.653118e+003, 9.813713e+001
2.655047e+003, 9.890886e+001
2.656975e+003, 9.875746e+001
2.658904e+003, 9.818536e+001
2.660832e+003, 9.779111e+001
2.662760e+003, 9.750391e+001
2.664689e+003, 9.720708e+001
2.666617e+003, 9.698641e+001
2.668546e+003, 9.701164e+001
2.670474e+003, 9.717803e+001
2.672403e+003, 9.732957e+001
2.674331e+003, 9.749480e+001
2.676260e+003, 9.779713e+001
2.678188e+003, 9.808355e+001
2.680117e+003, 9.805434e+001
2.682045e+003, 9.789278e+001
2.683974e+003, 9.796886e+001
2.685902e+003, 9.808897e+001
2.687831e+003, 9.777812e+001
2.689759e+003, 9.733350e+001
2.691688e+003, 9.739621e+001
2.693616e+003, 9.765538e+001
2.695544e+003, 9.758526e+001
2.697473e+003, 9.736012e+001
2.699401e+003, 9.730837e+001
2.701330e+003, 9.732665e+001
2.703258e+003, 9.725582e+001
2.705187e+003, 9.708362e+001
2.707115e+003, 9.674551e+001
2.709044e+003, 9.630877e+001
2.710972e+003, 9.572733e+001
2.712901e+003, 9.524279e+001
2.714829e+003, 9.542510e+001
2.716758e+003, 9.590398e+001
2.718686e+003, 9.600288e+001
2.720615e+003, 9.593161e+001
2.722543e+003, 9.598660e+001
2.724471e+003, 9.617322e+001
2.726400e+003, 9.658918e+001
2.728328e+003, 9.705285e+001
2.730257e+003, 9.725464e+001
2.732185e+003, 9.731870e+001
2.734114e+003, 9.761288e+001
2.736042e+003, 9.777384e+001
2.737971e+003, 9.690762e+001
2.739899e+003, 9.589880e+001
2.741828e+003, 9.603577e+001
2.743756e+003, 9.660498e+001
2.745685e+003, 9.669645e+001
2.747613e+003, 9.657230e+001
2.749542e+003, 9.654160e+001
2.751470e+003, 9.651549e+001
2.753398e+003, 9.627153e+001
2.755327e+003, 9.610765e+001
2.757255e+003, 9.656904e+001
2.759184e+003, 9.706444e+001
2.761112e+003, 9.693093e+001
2.763041e+003, 9.653098e+001
2.764969e+003, 9.601909e+001
2.766898e+003, 9.566679e+001
2.768826e+003, 9.580005e+001
2.770755e+003, 9.607242e+001
2.772683e+003, 9.624210e+001
2.774612e+003, 9.633351e+001
2.776540e+003, 9.632657e+001
2.778469e+003, 9.628117e+001
2.780397e+003, 9.616775e+001
2.782325e+003, 9.611960e+001
2.784254e+003, 9.636426e+001
2.786182e+003, 9.651557e+001
2.788111e+003, 9.629094e+001
2.790039e+003, 9.596912e+001
2.791968e+003, 9.561800e+001
2.793896e+003, 9.537785e+001
2.795825e+003, 9.542445e+001
2.797753e+003, 9.542418e+001
2.799682e+003, 9.508447e+001
2.801610e+003, 9.486143e+001
2.803539e+003, 9.484190e+001
2.805467e+003, 9.514799e+001
2.807396e+003, 9.606872e+001
2.809324e+003, 9.669417e+001
2.811252e+003, 9.656686e+001
2.813181e+003, 9.638981e+001
2.815109e+003, 9.633294e+001
2.817038e+003, 9.635578e+001
2.818966e+003, 9.662910e+001
2.820895e+003, 9.651861e+001
2.822823e+003, 9.575594e+001
2.824752e+003, 9.523273e+001
2.826680e+003, 9.526362e+001
2.828609e+003, 9.525312e+001
2.830537e+003, 9.502338e+001
2.832466e+003, 9.507648e+001
2.834394e+003, 9.552287e+001
2.836323e+003, 9.560812e+001
2.838251e+003, 9.516376e+001
2.840179e+003, 9.498055e+001
2.842108e+003, 9.511857e+001
2.844036e+003, 9.572899e+001
2.845965e+003, 9.690240e+001
2.847893e+003, 9.707607e+001
2.849822e+003, 9.626992e+001
2.851750e+003, 9.591566e+001
2.853679e+003, 9.605417e+001
2.855607e+003, 9.613206e+001
2.857536e+003, 9.613402e+001
2.859464e+003, 9.576804e+001
2.861393e+003, 9.520900e+001
2.863321e+003, 9.531355e+001
2.865250e+003, 9.583546e+001
2.867178e+003, 9.604727e+001
2.869106e+003, 9.598074e+001
2.871035e+003, 9.548233e+001
2.872963e+003, 9.489908e+001
2.874892e+003, 9.503307e+001
2.876820e+003, 9.545796e+001
2.878749e+003, 9.554148e+001
2.880677e+003, 9.560045e+001
2.882606e+003, 9.637179e+001
2.884534e+003, 9.696910e+001
2.886463e+003, 9.592638e+001
2.888391e+003, 9.499376e+001
2.890320e+003, 9.579939e+001
2.892248e+003, 9.679591e+001
2.894177e+003, 9.702129e+001
2.896105e+003, 9.695361e+001
2.898033e+003, 9.681899e+001
2.899962e+003, 9.648988e+001
2.901890e+003, 9.554258e+001
2.903819e+003, 9.514223e+001
2.905747e+003, 9.640475e+001
2.907676e+003, 9.706977e+001
2.909604e+003, 9.631635e+001
2.911533e+003, 9.574928e+001
2.913461e+003, 9.563338e+001
2.915390e+003, 9.573986e+001
2.917318e+003, 9.618630e+001
2.919247e+003, 9.635947e+001
2.921175e+003, 9.614309e+001
2.923104e+003, 9.611721e+001
2.925032e+003, 9.631334e+001
2.926960e+003, 9.592332e+001
2.928889e+003, 9.488296e+001
2.930817e+003, 9.479021e+001
2.932746e+003, 9.557433e+001
2.934674e+003, 9.592139e+001
2.936603e+003, 9.586820e+001
2.938531e+003, 9.522148e+001
2.940460e+003, 9.448151e+001
2.942388e+003, 9.537552e+001
2.944317e+003, 9.682593e+001
2.946245e+003, 9.638892e+001
2.948174e+003, 9.529109e+001
2.950102e+003, 9.516051e+001
2.952031e+003, 9.548368e+001
2.953959e+003, 9.611526e+001
2.955887e+003, 9.649868e+001
2.957816e+003, 9.579298e+001
2.959744e+003, 9.519583e+001
2.961673e+003, 9.542763e+001
2.963601e+003, 9.581857e+001
2.965530e+003, 9.626102e+001
2.967458e+003, 9.642468e+001
2.969387e+003, 9.592566e+001
2.971315e+003, 9.573608e+001
2.973244e+003, 9.621323e+001
2.975172e+003, 9.624100e+001
2.977101e+003, 9.531509e+001
2.979029e+003, 9.486082e+001
2.980958e+003, 9.510046e+001
2.982886e+003, 9.512938e+001
2.984814e+003, 9.492021e+001
2.986743e+003, 9.491039e+001
2.988671e+003, 9.508703e+001
2.990600e+003, 9.477988e+001
2.992528e+003, 9.418660e+001
2.994457e+003, 9.461416e+001
2.996385e+003, 9.556721e+001
2.998314e+003, 9.590609e+001
3.000242e+003, 9.575912e+001
3.002171e+003, 9.496614e+001
3.004099e+003, 9.417309e+001
3.006028e+003, 9.440182e+001
3.007956e+003, 9.472170e+001
3.009885e+003, 9.409645e+001
3.011813e+003, 9.373060e+001
3.013741e+003, 9.483347e+001
3.015670e+003, 9.562906e+001
3.017598e+003, 9.524553e+001
3.019527e+003, 9.488139e+001
3.021455e+003, 9.497374e+001
3.023384e+003, 9.483941e+001
3.025312e+003, 9.402834e+001
3.027241e+003, 9.363700e+001
3.029169e+003, 9.373787e+001
3.031098e+003, 9.394556e+001
3.033026e+003, 9.423719e+001
3.034955e+003, 9.413145e+001
3.036883e+003, 9.370777e+001
3.038812e+003, 9.425011e+001
3.040740e+003, 9.538614e+001
3.042668e+003, 9.578812e+001
3.044597e+003, 9.572909e+001
3.046525e+003, 9.561288e+001
3.048454e+003, 9.547388e+001
3.050382e+003, 9.539371e+001
3.052311e+003, 9.526772e+001
3.054239e+003, 9.488528e+001
3.056168e+003, 9.462138e+001
3.058096e+003, 9.478536e+001
3.060025e+003, 9.500455e+001
3.061953e+003, 9.519580e+001
3.063882e+003, 9.529874e+001
3.065810e+003, 9.529993e+001
3.067739e+003, 9.519370e+001
3.069667e+003, 9.488506e+001
3.071595e+003, 9.472890e+001
3.073524e+003, 9.473205e+001
3.075452e+003, 9.495543e+001
3.077381e+003, 9.537258e+001
3.079309e+003, 9.558993e+001
3.081238e+003, 9.566582e+001
3.083166e+003, 9.592738e+001
3.085095e+003, 9.619405e+001
3.087023e+003, 9.622093e+001
3.088952e+003, 9.595557e+001
3.090880e+003, 9.500000e+001
3.092809e+003, 9.418227e+001
3.094737e+003, 9.433097e+001
3.096666e+003, 9.457252e+001
3.098594e+003, 9.448717e+001
3.100522e+003, 9.438398e+001
3.102451e+003, 9.413815e+001
3.104379e+003, 9.443886e+001
3.106308e+003, 9.556151e+001
3.108236e+003, 9.588541e+001
3.110165e+003, 9.497893e+001
3.112093e+003, 9.467236e+001
3.114022e+003, 9.497693e+001
3.115950e+003, 9.523398e+001
3.117879e+003, 9.534767e+001
3.119807e+003, 9.478996e+001
3.121736e+003, 9.406624e+001
3.123664e+003, 9.421871e+001
3.125593e+003, 9.468461e+001
3.127521e+003, 9.491605e+001
3.129449e+003, 9.504346e+001
3.131378e+003, 9.508837e+001
3.133306e+003, 9.515221e+001
3.135235e+003, 9.533792e+001
3.137163e+003, 9.538758e+001
3.139092e+003, 9.523801e+001
3.141020e+003, 9.492720e+001
3.142949e+003, 9.425900e+001
3.144877e+003, 9.418906e+001
3.146806e+003, 9.468359e+001
3.148734e+003, 9.502361e+001
3.150663e+003, 9.517413e+001
3.152591e+003, 9.504511e+001
3.154520e+003, 9.478187e+001
3.156448e+003, 9.467399e+001
3.158376e+003, 9.465237e+001
3.160305e+003, 9.476495e+001
3.162233e+003, 9.474744e+001
3.164162e+003, 9.399447e+001
3.166090e+003, 9.379417e+001
3.168019e+003, 9.496140e+001
3.169947e+003, 9.559701e+001
3.171876e+003, 9.471777e+001
3.173804e+003, 9.436706e+001
3.175733e+003, 9.471687e+001
3.177661e+003, 9.479987e+001
3.179590e+003, 9.461998e+001
3.181518e+003, 9.458281e+001
3.183447e+003, 9.466090e+001
3.185375e+003, 9.479348e+001
3.187303e+003, 9.487997e+001
3.189232e+003, 9.463416e+001
3.191160e+003, 9.444854e+001
3.193089e+003, 9.478250e+001
3.195017e+003, 9.509529e+001
3.196946e+003, 9.507449e+001
3.198874e+003, 9.517982e+001
3.200803e+003, 9.582787e+001
3.202731e+003, 9.582036e+001
3.204660e+003, 9.488358e+001
3.206588e+003, 9.471270e+001
3.208517e+003, 9.523484e+001
3.210445e+003, 9.479005e+001
3.212374e+003, 9.377107e+001
3.214302e+003, 9.356741e+001
3.216230e+003, 9.387278e+001
3.218159e+003, 9.459474e+001
3.220087e+003, 9.504577e+001
3.222016e+003, 9.432065e+001
3.223944e+003, 9.363987e+001
3.225873e+003, 9.336983e+001
3.227801e+003, 9.366483e+001
3.229730e+003, 9.502281e+001
3.231658e+003, 9.551013e+001
3.233587e+003, 9.490015e+001
3.235515e+003, 9.452583e+001
3.237444e+003, 9.444055e+001
3.239372e+003, 9.472100e+001
3.241301e+003, 9.519534e+001
3.243229e+003, 9.556077e+001
3.245157e+003, 9.571080e+001
3.247086e+003, 9.534290e+001
3.249014e+003, 9.501859e+001
3.250943e+003, 9.512171e+001
3.252871e+003, 9.537028e+001
3.254800e+003, 9.580132e+001
3.256728e+003, 9.593623e+001
3.258657e+003, 9.559992e+001
3.260585e+003, 9.536018e+001
3.262514e+003, 9.523462e+001
3.264442e+003, 9.508012e+001
3.266371e+003, 9.504581e+001
3.268299e+003, 9.584962e+001
3.270228e+003, 9.666687e+001
3.272156e+003, 9.596610e+001
3.274084e+003, 9.521799e+001
3.276013e+003, 9.543929e+001
3.277941e+003, 9.583251e+001
3.279870e+003, 9.644458e+001
3.281798e+003, 9.625650e+001
3.283727e+003, 9.501768e+001
3.285655e+003, 9.441577e+001
3.287584e+003, 9.455630e+001
3.289512e+003, 9.509604e+001
3.291441e+003, 9.575588e+001
3.293369e+003, 9.562080e+001
3.295298e+003, 9.522815e+001
3.297226e+003, 9.517967e+001
3.299155e+003, 9.525651e+001
3.301083e+003, 9.532468e+001
3.303011e+003, 9.546961e+001
3.304940e+003, 9.576392e+001
3.306868e+003, 9.613201e+001
3.308797e+003, 9.661938e+001
3.310725e+003, 9.634284e+001
3.312654e+003, 9.542083e+001
3.314582e+003, 9.513085e+001
3.316511e+003, 9.518946e+001
3.318439e+003, 9.480241e+001
3.320368e+003, 9.460369e+001
3.322296e+003, 9.556918e+001
3.324225e+003, 9.627253e+001
3.326153e+003, 9.586420e+001
3.328082e+003, 9.555259e+001
3.330010e+003, 9.563728e+001
3.331938e+003, 9.555399e+001
3.333867e+003, 9.523930e+001
3.335795e+003, 9.535681e+001
3.337724e+003, 9.574320e+001
3.339652e+003, 9.606237e+001
3.341581e+003, 9.615899e+001
3.343509e+003, 9.559197e+001
3.345438e+003, 9.507121e+001
3.347366e+003, 9.501022e+001
3.349295e+003, 9.513357e+001
3.351223e+003, 9.541604e+001
3.353152e+003, 9.586668e+001
3.355080e+003, 9.648894e+001
3.357009e+003, 9.628128e+001
3.358937e+003, 9.548354e+001
3.360865e+003, 9.506332e+001
3.362794e+003, 9.506126e+001
3.364722e+003, 9.569323e+001
3.366651e+003, 9.642271e+001
3.368579e+003, 9.710719e+001
3.370508e+003, 9.723564e+001
3.372436e+003, 9.652151e+001
3.374365e+003, 9.591918e+001
3.376293e+003, 9.555816e+001
3.378222e+003, 9.540327e+001
3.380150e+003, 9.548446e+001
3.382079e+003, 9.625406e+001
3.384007e+003, 9.695225e+001
3.385936e+003, 9.592078e+001
3.387864e+003, 9.506838e+001
3.389792e+003, 9.568420e+001
3.391721e+003, 9.654111e+001
3.393649e+003, 9.770724e+001
3.395578e+003, 9.760381e+001
3.397506e+003, 9.620133e+001
3.399435e+003, 9.584056e+001
3.401363e+003, 9.631017e+001
3.403292e+003, 9.676633e+001
3.405220e+003, 9.716938e+001
3.407148e+003, 9.761348e+001
3.409077e+003, 9.775801e+001
3.411005e+003, 9.709229e+001
3.412934e+003, 9.662173e+001
3.414862e+003, 9.647913e+001
3.416791e+003, 9.700054e+001
3.418719e+003, 9.817429e+001
3.420648e+003, 9.815401e+001
3.422576e+003, 9.741448e+001
3.424505e+003, 9.680728e+001
3.426433e+003, 9.647628e+001
3.428362e+003, 9.675058e+001
3.430290e+003, 9.703744e+001
3.432219e+003, 9.708446e+001
3.434147e+003, 9.722472e+001
3.436075e+003, 9.760300e+001
3.438004e+003, 9.713725e+001
3.439932e+003, 9.619437e+001
3.441861e+003, 9.665620e+001
3.443789e+003, 9.760429e+001
3.445718e+003, 9.776978e+001
3.447646e+003, 9.749342e+001
3.449575e+003, 9.645588e+001
3.451503e+003, 9.618945e+001
3.453432e+003, 9.723247e+001
3.455360e+003, 9.777380e+001
3.457289e+003, 9.770889e+001
3.459217e+003, 9.775027e+001
3.461146e+003, 9.775153e+001
3.463074e+003, 9.704043e+001
3.465002e+003, 9.654660e+001
3.466931e+003, 9.737117e+001
3.468859e+003, 9.803130e+001
3.470788e+003, 9.807804e+001
3.472716e+003, 9.803281e+001
3.474645e+003, 9.795022e+001
3.476573e+003, 9.800130e+001
3.478502e+003, 9.810671e+001
3.480430e+003, 9.797131e+001
3.482359e+003, 9.781597e+001
3.484287e+003, 9.793779e+001
3.486216e+003, 9.801092e+001
3.488144e+003, 9.785999e+001
3.490073e+003, 9.790346e+001
3.492001e+003, 9.826879e+001
3.493929e+003, 9.840267e+001
3.495858e+003, 9.830085e+001
3.497786e+003, 9.770598e+001
3.499715e+003, 9.729338e+001
3.501643e+003, 9.845793e+001
3.503572e+003, 9.917232e+001
3.505500e+003, 9.811858e+001
3.507429e+003, 9.766787e+001
3.509357e+003, 9.814676e+001
3.511286e+003, 9.866367e+001
3.513214e+003, 9.907790e+001
3.515143e+003, 9.894680e+001
3.517071e+003, 9.863858e+001
3.519000e+003, 9.851185e+001
3.520928e+003, 9.855520e+001
3.522856e+003, 9.899514e+001
3.524785e+003, 9.905335e+001
3.526713e+003, 9.865801e+001
3.528642e+003, 9.839565e+001
3.530570e+003, 9.835001e+001
3.532499e+003, 9.891177e+001
3.534427e+003, 9.956422e+001
3.536356e+003, 9.989578e+001
3.538284e+003, 9.986949e+001
3.540213e+003, 9.931079e+001
3.542141e+003, 9.885246e+001
3.544070e+003, 9.858234e+001
3.545998e+003, 9.907651e+001
3.547927e+003, 9.991827e+001
3.549855e+003, 9.967654e+001
3.551783e+003, 9.920339e+001
3.553712e+003, 9.932220e+001
3.555640e+003, 9.918633e+001
3.557569e+003, 9.840043e+001
3.559497e+003, 9.832261e+001
3.561426e+003, 9.908187e+001
3.563354e+003, 9.987090e+001
3.565283e+003, 1.003736e+002
3.567211e+003, 9.975214e+001
3.569140e+003, 9.908287e+001
3.571068e+003, 9.920738e+001
3.572997e+003, 9.931053e+001
3.574925e+003, 9.911088e+001
3.576854e+003, 9.987765e+001
3.578782e+003, 1.013194e+002
3.580710e+003, 1.006494e+002
3.582639e+003, 9.946377e+001
3.584567e+003, 9.987285e+001
3.586496e+003, 1.004471e+002
3.588424e+003, 1.005909e+002
3.590353e+003, 1.006750e+002
3.592281e+003, 1.007711e+002
3.594210e+003, 1.006750e+002
3.596138e+003, 1.004728e+002
3.598067e+003, 1.004547e+002
3.599995e+003, 1.003416e+002
3.601924e+003, 9.969006e+001
3.603852e+003, 9.939724e+001
3.605781e+003, 1.001027e+002
3.607709e+003, 9.990807e+001
3.609637e+003, 9.909588e+001
3.611566e+003, 9.995539e+001
3.613494e+003, 1.012739e+002
3.615423e+003, 1.012685e+002
3.617351e+003, 1.009891e+002
3.619280e+003, 1.008144e+002
3.621208e+003, 1.007687e+002
3.623137e+003, 1.008505e+002
3.625065e+003, 1.007364e+002
3.626994e+003, 1.006162e+002
3.628922e+003, 1.011632e+002
3.630851e+003, 1.015892e+002
3.632779e+003, 1.013075e+002
3.634708e+003, 1.008518e+002
3.636636e+003, 1.001536e+002
3.638564e+003, 1.004947e+002
3.640493e+003, 1.016704e+002
3.642421e+003, 1.030452e+002
3.644350e+003, 1.038116e+002
3.646278e+003, 1.026727e+002
3.648207e+003, 1.015865e+002
3.650135e+003, 1.013379e+002
3.652064e+003, 1.012966e+002
3.653992e+003, 1.015026e+002
3.655921e+003, 1.027554e+002
3.657849e+003, 1.040201e+002
3.659778e+003, 1.032903e+002
3.661706e+003, 1.024129e+002
3.663635e+003, 1.023291e+002
3.665563e+003, 1.020297e+002
3.667491e+003, 1.014783e+002
3.669420e+003, 1.020782e+002
3.671348e+003, 1.030653e+002
3.673277e+003, 1.026969e+002
3.675205e+003, 1.022105e+002
3.677134e+003, 1.023277e+002
3.679062e+003, 1.026905e+002
3.680991e+003, 1.032626e+002
3.682919e+003, 1.033896e+002
3.684848e+003, 1.032308e+002
3.686776e+003, 1.030722e+002
3.688705e+003, 1.031202e+002
3.690633e+003, 1.039755e+002
3.692562e+003, 1.038271e+002
3.694490e+003, 1.022220e+002
3.696418e+003, 1.017512e+002
3.698347e+003, 1.021553e+002
3.700275e+003, 1.025527e+002
3.702204e+003, 1.027363e+002
3.704132e+003, 1.023158e+002
3.706061e+003, 1.023120e+002
3.707989e+003, 1.030425e+002
3.709918e+003, 1.036067e+002
3.711846e+003, 1.038855e+002
3.713775e+003, 1.032451e+002
3.715703e+003, 1.028367e+002
3.717632e+003, 1.038958e+002
3.719560e+003, 1.046443e+002
3.721489e+003, 1.046097e+002
3.723417e+003, 1.041411e+002
3.725345e+003, 1.035272e+002
3.727274e+003, 1.037183e+002
3.729202e+003, 1.042061e+002
3.731131e+003, 1.047959e+002
3.733059e+003, 1.048115e+002
3.734988e+003, 1.038272e+002
3.736916e+003, 1.039736e+002
3.738845e+003, 1.047469e+002
3.740773e+003, 1.042633e+002
3.742702e+003, 1.037093e+002
3.744630e+003, 1.040430e+002
3.746559e+003, 1.044781e+002
3.748487e+003, 1.048895e+002
3.750416e+003, 1.049577e+002
3.752344e+003, 1.047627e+002
3.754272e+003, 1.042502e+002
3.756201e+003, 1.041499e+002
3.758129e+003, 1.051837e+002
3.760058e+003, 1.058118e+002
3.761986e+003, 1.056824e+002
3.763915e+003, 1.055270e+002
3.765843e+003, 1.053612e+002
3.767772e+003, 1.050318e+002
3.769700e+003, 1.050318e+002
3.771629e+003, 1.058025e+002
3.773557e+003, 1.060810e+002
3.775486e+003, 1.056667e+002
3.777414e+003, 1.052894e+002
3.779343e+003, 1.050696e+002
3.781271e+003, 1.053702e+002
3.783199e+003, 1.055663e+002
3.785128e+003, 1.053224e+002
3.787056e+003, 1.053943e+002
3.788985e+003, 1.058183e+002
3.790913e+003, 1.063467e+002
3.792842e+003, 1.068079e+002
3.794770e+003, 1.070358e+002
3.796699e+003, 1.069755e+002
3.798627e+003, 1.065520e+002
3.800556e+003, 1.063775e+002
3.802484e+003, 1.064487e+002
3.804413e+003, 1.066513e+002
3.806341e+003, 1.069144e+002
3.808270e+003, 1.074254e+002
3.810198e+003, 1.073070e+002
3.812126e+003, 1.063610e+002
3.814055e+003, 1.063691e+002
3.815983e+003, 1.070079e+002
3.817912e+003, 1.075389e+002
3.819840e+003, 1.080686e+002
3.821769e+003, 1.089887e+002
3.823697e+003, 1.086096e+002
3.825626e+003, 1.069508e+002
3.827554e+003, 1.071041e+002
3.829483e+003, 1.081171e+002
3.831411e+003, 1.092085e+002
3.833340e+003, 1.094870e+002
3.835268e+003, 1.084705e+002
3.837197e+003, 1.083311e+002
3.839125e+003, 1.088465e+002
3.841053e+003, 1.088347e+002
3.842982e+003, 1.084691e+002
3.844910e+003, 1.073177e+002
3.846839e+003, 1.074668e+002
3.848767e+003, 1.090863e+002
3.850696e+003, 1.097487e+002
3.852624e+003, 1.098039e+002
3.854553e+003, 1.098077e+002
3.856481e+003, 1.097270e+002
3.858410e+003, 1.094555e+002
3.860338e+003, 1.094593e+002
3.862267e+003, 1.096952e+002
3.864195e+003, 1.098861e+002
3.866124e+003, 1.100229e+002
3.868052e+003, 1.100332e+002
3.869980e+003, 1.101418e+002
3.871909e+003, 1.103961e+002
3.873837e+003, 1.108248e+002
3.875766e+003, 1.110624e+002
3.877694e+003, 1.100171e+002
3.879623e+003, 1.096011e+002
3.881551e+003, 1.107320e+002
3.883480e+003, 1.112488e+002
3.885408e+003, 1.111544e+002
3.887337e+003, 1.114954e+002
3.889265e+003, 1.117951e+002
3.891194e+003, 1.115078e+002
3.893122e+003, 1.113206e+002
3.895051e+003, 1.113378e+002
3.896979e+003, 1.116197e+002
3.898907e+003, 1.119243e+002
3.900836e+003, 1.118294e+002
3.902764e+003, 1.116946e+002
3.904693e+003, 1.116018e+002
3.906621e+003, 1.119273e+002
3.908550e+003, 1.124999e+002
3.910478e+003, 1.127099e+002
3.912407e+003, 1.127141e+002
3.914335e+003, 1.124468e+002
3.916264e+003, 1.125626e+002
3.918192e+003, 1.130222e+002
3.920121e+003, 1.127736e+002
3.922049e+003, 1.124553e+002
3.923978e+003, 1.127444e+002
3.925906e+003, 1.135246e+002
3.927834e+003, 1.150848e+002
3.929763e+003, 1.147677e+002
3.931691e+003, 1.139345e+002
3.933620e+003, 1.160147e+002
3.935548e+003, 1.171957e+002
3.937477e+003, 1.157511e+002
3.939405e+003, 1.145223e+002
3.941334e+003, 1.137582e+002
3.943262e+003, 1.135319e+002
3.945191e+003, 1.136168e+002
3.947119e+003, 1.140309e+002
3.949048e+003, 1.142374e+002
3.950976e+003, 1.142158e+002
3.952905e+003, 1.144032e+002
3.954833e+003, 1.150027e+002
3.956761e+003, 1.164662e+002
3.958690e+003, 1.178148e+002
3.960618e+003, 1.188577e+002
3.962547e+003, 1.184495e+002
3.964475e+003, 1.174104e+002
3.966404e+003, 1.169408e+002
3.968332e+003, 1.168754e+002
3.970261e+003, 1.173151e+002
3.972189e+003, 1.177070e+002
3.974118e+003, 1.179503e+002
3.976046e+003, 1.177460e+002
3.977975e+003, 1.174601e+002
3.979903e+003, 1.171928e+002
3.981832e+003, 1.174624e+002
3.983760e+003, 1.180598e+002
3.985688e+003, 1.176765e+002
3.987617e+003, 1.172662e+002
3.989545e+003, 1.176692e+002
3.991474e+003, 1.174456e+002
3.993402e+003, 1.165660e+002
3.995331e+003, 1.165953e+002
3.997259e+003, 1.173816e+002
3.999188e+003, 1.195990e+002
4.001116e+003, 1.201790e+002
4.003045e+003, 1.188984e+002
4.004973e+003, 1.188852e+002
4.006902e+003, 1.194746e+002
4.008830e+003, 1.199625e+002
4.010759e+003, 1.200583e+002
4.012687e+003, 1.196901e+002
4.014615e+003, 1.190133e+002
4.016544e+003, 1.185206e+002
4.018472e+003, 1.191595e+002
4.020401e+003, 1.200647e+002
4.022329e+003, 1.211352e+002
4.024258e+003, 1.213410e+002
4.026186e+003, 1.210807e+002
4.028115e+003, 1.210534e+002
4.030043e+003, 1.210962e+002
4.031972e+003, 1.211233e+002
4.033900e+003, 1.215660e+002
4.035829e+003, 1.222357e+002
4.037757e+003, 1.227356e+002
4.039686e+003, 1.229993e+002
4.041614e+003, 1.228921e+002
4.043542e+003, 1.235266e+002
4.045471e+003, 1.241891e+002
4.047399e+003, 1.215806e+002
4.049328e+003, 1.200568e+002
4.051256e+003, 1.230741e+002
4.053185e+003, 1.239086e+002
4.055113e+003, 1.233205e+002
4.057042e+003, 1.243071e+002
4.058970e+003, 1.253645e+002
4.060899e+003, 1.257595e+002
4.062827e+003, 1.257779e+002
4.064756e+003, 1.256664e+002
4.066684e+003, 1.265100e+002
4.068613e+003, 1.269187e+002
4.070541e+003, 1.258703e+002
4.072469e+003, 1.259892e+002
4.074398e+003, 1.269477e+002
4.076326e+003, 1.264711e+002
4.078255e+003, 1.259590e+002
4.080183e+003, 1.259915e+002
4.082112e+003, 1.275241e+002
4.084040e+003, 1.297157e+002
4.085969e+003, 1.292623e+002
4.087897e+003, 1.285489e+002
4.089826e+003, 1.288698e+002
4.091754e+003, 1.291514e+002
4.093683e+003, 1.294703e+002
4.095611e+003, 1.307820e+002
4.097540e+003, 1.315435e+002
4.099468e+003, 1.308817e+002
4.101396e+003, 1.308113e+002
4.103325e+003, 1.311964e+002
4.105253e+003, 1.310200e+002
4.107182e+003, 1.308571e+002
4.109110e+003, 1.308966e+002
4.111039e+003, 1.315364e+002
4.112967e+003, 1.324855e+002
4.114896e+003, 1.329866e+002
4.116824e+003, 1.333592e+002
4.118752e+003, 1.338328e+002
4.120681e+003, 1.336877e+002
4.122609e+003, 1.333829e+002
4.124538e+003, 1.338744e+002
4.126466e+003, 1.346433e+002
4.128395e+003, 1.355261e+002
4.130323e+003, 1.361171e+002
4.132252e+003, 1.365031e+002
4.134180e+003, 1.368416e+002
4.136109e+003, 1.370924e+002
4.138037e+003, 1.372535e+002
4.139966e+003, 1.385615e+002
4.141894e+003, 1.398492e+002
4.143823e+003, 1.388975e+002
4.145751e+003, 1.390515e+002
4.147680e+003, 1.410831e+002
4.149608e+003, 1.423321e+002
4.151537e+003, 1.429637e+002
4.153465e+003, 1.428239e+002
4.155394e+003, 1.429920e+002
4.157322e+003, 1.436475e+002
4.159250e+003, 1.451144e+002
4.161179e+003, 1.461987e+002
4.163107e+003, 1.451561e+002
4.165036e+003, 1.454837e+002
4.166964e+003, 1.471689e+002
4.168893e+003, 1.483701e+002
4.170821e+003, 1.494012e+002
4.172750e+003, 1.504198e+002
4.174678e+003, 1.517044e+002
4.176606e+003, 1.528504e+002
4.178535e+003, 1.521288e+002
4.180463e+003, 1.523079e+002
4.182392e+003, 1.545695e+002
4.184320e+003, 1.566542e+002
4.186249e+003, 1.581814e+002
4.188177e+003, 1.584876e+002
4.190106e+003, 1.587354e+002
4.192034e+003, 1.592526e+002
4.193963e+003, 1.617141e+002
4.195891e+003, 1.639986e+002
4.197820e+003, 1.630229e+002
4.199748e+003, 1.628649e+002
4.201677e+003, 1.641637e+002
4.203605e+003, 1.658065e+002
4.205534e+003, 1.676926e+002
4.207462e+003, 1.701056e+002
4.209391e+003, 1.707151e+002
4.211319e+003, 1.699344e+002
4.213248e+003, 1.703264e+002
4.215176e+003, 1.715847e+002
4.217104e+003, 1.740412e+002
4.219033e+003, 1.740179e+002
4.220961e+003, 1.732659e+002
4.222890e+003, 1.768361e+002
4.224818e+003, 1.790049e+002
4.226747e+003, 1.777225e+002
4.228675e+003, 1.782865e+002
4.230604e+003, 1.796774e+002
4.232532e+003, 1.806143e+002
4.234460e+003, 1.822067e+002
4.236389e+003, 1.845278e+002
4.238317e+003, 1.870700e+002
4.240246e+003, 1.889654e+002
4.242174e+003, 1.889916e+002
4.244103e+003, 1.895551e+002
##END=



