##NAMES=Enstatite
##RRUFFID=R060630
##IDEAL CHEMISTRY=Mg_2_Si_2_O_6_
##LOCALITY=unknown
##OWNER=RRUFF
##SOURCE=Gemological Institute of America
##DESCRIPTION=Tan colored fragment
##STATUS=The identification of this mineral has been confirmed by X-ray diffraction and chemical analysis
##URL=https://www.rruff.net/odr/rruff_sample/R060630
##MEASURED CHEMISTRY=(Mg_0.89_Fe_0.07_Al_0.04_)(Si_0.96_Al_0.04_)O_3_
##DIFFRACTION SAMPLE DESCRIPTION=Powder
##CELL PARAMETERS=a: 18.2136 b: 8.771 c: 5.1829 alpha: 90 beta: 90 gamma: 90 volume: 828 crystal system: orthorhombic
##FILETYPE=Raman Processed
##RAMAN WAVELENGTH=532

146.6113, 19196.29
148.5398, 19992.35
150.4683, 20557.27
152.3967, 20810.35
154.3252, 20414.77
156.2537, 20015.39
158.1821, 19743.80
160.1106, 19590.53
162.0391, 19491.46
163.9675, 19446.70
165.8960, 19444.91
167.8245, 19469.30
169.7529, 19496.19
171.6814, 19565.78
173.6099, 19700.30
175.5383, 19940.66
177.4668, 20125.35
179.3953, 20243.46
181.3237, 20295.51
183.2522, 20305.23
185.1807, 20242.23
187.1091, 20180.44
189.0376, 20153.88
190.9661, 20174.72
192.8945, 20238.71
194.8230, 20361.25
196.7515, 20534.56
198.6799, 20739.47
200.6084, 21009.30
202.5369, 21284.15
204.4653, 21533.23
206.3938, 21754.54
208.3223, 21951.56
210.2507, 22126.44
212.1792, 22280.44
214.1077, 22392.05
216.0361, 22452.49
217.9646, 22482.93
219.8931, 22479.28
221.8215, 22413.24
223.7500, 22405.59
225.6785, 22472.47
227.6069, 22615.71
229.5354, 22838.89
231.4639, 23091.31
233.3923, 23455.74
235.3208, 23962.22
237.2493, 24634.83
239.1777, 25426.33
241.1062, 26507.71
243.0347, 27823.26
244.9631, 28668.99
246.8916, 28929.25
248.8201, 28757.08
250.7485, 28287.11
252.6770, 27181.68
254.6055, 26152.81
256.5339, 25254.49
258.4624, 24493.84
260.3909, 23868.91
262.3193, 23430.18
264.2478, 23107.10
266.1763, 22864.31
268.1047, 22729.51
270.0332, 22640.24
271.9617, 22609.40
273.8901, 22625.45
275.8186, 22655.98
277.7471, 22699.68
279.6755, 22757.61
281.6040, 22834.71
283.5325, 22934.91
285.4609, 23046.04
287.3894, 23165.96
289.3179, 23294.62
291.2463, 23440.49
293.1748, 23604.07
295.1033, 23781.15
297.0317, 23966.43
298.9602, 24151.05
300.8887, 24364.25
302.8171, 24636.37
304.7456, 24947.93
306.6741, 25217.44
308.6025, 25427.01
310.5310, 25615.96
312.4595, 25796.53
314.3879, 25963.84
316.3164, 26149.73
318.2449, 26362.38
320.1733, 26595.87
322.1018, 26836.91
324.0303, 27056.72
325.9587, 27314.19
327.8872, 27624.49
329.8157, 27979.72
331.7441, 28422.80
333.6726, 28919.75
335.6011, 29507.71
337.5295, 30233.96
339.4580, 31071.40
341.3865, 32072.40
343.3149, 33246.91
345.2434, 34600.59
347.1719, 36074.52
349.1003, 37865.80
351.0288, 39652.68
352.9573, 41220.48
354.8857, 42718.35
356.8142, 43642.59
358.7427, 43879.23
360.6711, 43430.43
362.5996, 42649.94
364.5281, 41332.45
366.4565, 39873.48
368.3850, 38466.63
370.3135, 37090.40
372.2419, 35846.85
374.1704, 34712.63
376.0989, 33709.52
378.0273, 32885.46
379.9558, 32255.41
381.8843, 31771.44
383.8127, 31418.25
385.7412, 31207.76
387.6697, 31061.07
389.5981, 30984.21
391.5266, 30952.96
393.4551, 30931.59
395.3835, 30902.68
397.3120, 30907.77
399.2405, 30941.29
401.1689, 30996.50
403.0974, 31146.08
405.0259, 31468.76
406.9543, 31815.34
408.8828, 32099.54
410.8113, 32336.84
412.7397, 32488.10
414.6682, 32496.48
416.5967, 32417.57
418.5251, 32407.49
420.4536, 32491.78
422.3821, 32610.69
424.3105, 32815.00
426.2390, 33109.09
428.1675, 33191.07
430.0959, 32967.36
432.0244, 32543.18
433.9529, 31966.77
435.8813, 31117.31
437.8098, 30355.94
439.7383, 29749.09
441.6667, 29287.64
443.5952, 29020.43
445.5237, 29026.93
447.4521, 29167.61
449.3806, 29466.88
451.3091, 29967.04
453.2375, 30306.06
455.1660, 30386.13
457.0945, 30280.21
459.0229, 30064.19
460.9514, 29590.39
462.8799, 29151.91
464.8083, 28787.05
466.7368, 28494.14
468.6653, 28250.66
470.5938, 28071.65
472.5222, 27933.15
474.4507, 27822.59
476.3792, 27749.71
478.3076, 27696.59
480.2361, 27663.40
482.1646, 27653.73
484.0930, 27667.75
486.0215, 27713.66
487.9500, 27767.28
489.8784, 27823.69
491.8069, 27880.71
493.7354, 27923.49
495.6638, 27937.29
497.5923, 27946.96
499.5208, 27965.71
501.4492, 27994.55
503.3777, 28026.09
505.3062, 28048.41
507.2346, 28078.19
509.1631, 28142.09
511.0916, 28246.63
513.0200, 28371.56
514.9485, 28511.95
516.8770, 28668.63
518.8054, 28854.96
520.7339, 29096.53
522.6624, 29346.51
524.5908, 29597.63
526.5193, 29852.35
528.4478, 30060.25
530.3762, 30204.78
532.3047, 30296.03
534.2332, 30341.46
536.1616, 30298.58
538.0901, 30273.24
540.0186, 30290.87
541.9470, 30339.79
543.8755, 30386.41
545.8040, 30452.38
547.7324, 30495.59
549.6609, 30499.68
551.5894, 30461.89
553.5178, 30433.28
555.4463, 30422.72
557.3748, 30411.53
559.3032, 30381.46
561.2317, 30328.04
563.1602, 30269.03
565.0886, 30193.65
567.0171, 30114.05
568.9456, 30046.81
570.8740, 29984.50
572.8025, 29943.88
574.7310, 29932.66
576.6594, 29950.02
578.5879, 29987.35
580.5164, 30060.79
582.4448, 30137.80
584.3733, 30208.93
586.3018, 30274.84
588.2302, 30324.78
590.1587, 30348.18
592.0872, 30363.29
594.0156, 30379.83
595.9441, 30396.09
597.8726, 30420.07
599.8010, 30452.18
601.7295, 30491.79
603.6580, 30539.48
605.5864, 30596.63
607.5149, 30658.74
609.4434, 30722.16
611.3718, 30790.77
613.3003, 30871.44
615.2288, 30961.16
617.1572, 31071.26
619.0857, 31206.64
621.0142, 31369.33
622.9426, 31548.16
624.8711, 31743.65
626.7996, 31954.18
628.7280, 32175.38
630.6565, 32405.24
632.5850, 32662.38
634.5134, 32939.45
636.4419, 33249.85
638.3704, 33605.59
640.2988, 34000.93
642.2273, 34452.95
644.1558, 34969.74
646.0842, 35545.33
648.0127, 36158.64
649.9412, 36777.23
651.8696, 37498.92
653.7981, 38319.86
655.7266, 39253.88
657.6550, 40351.62
659.5835, 41644.66
661.5120, 43043.65
663.4404, 44654.78
665.3689, 46415.39
667.2974, 47900.95
669.2258, 49128.21
671.1543, 50019.48
673.0828, 50396.76
675.0112, 50146.00
676.9397, 50074.42
678.8682, 49982.93
680.7966, 50269.64
682.7251, 51106.05
684.6536, 52517.17
686.5820, 54395.06
688.5105, 57323.89
690.4390, 60356.37
692.3674, 62611.80
694.2959, 64382.08
696.2244, 64773.51
698.1528, 62935.32
700.0813, 59798.30
702.0098, 56462.68
703.9382, 52587.95
705.8667, 49137.76
707.7952, 46244.75
709.7236, 43886.82
711.6521, 41971.22
713.5806, 40546.41
715.5090, 39400.96
717.4375, 38539.61
719.3660, 37904.07
721.2944, 37379.52
723.2229, 37003.19
725.1514, 36700.23
727.0798, 36462.81
729.0083, 36293.32
730.9368, 36163.49
732.8652, 36089.91
734.7937, 36037.12
736.7222, 35987.48
738.6506, 35941.91
740.5791, 35917.48
742.5076, 35927.74
744.4360, 35950.29
746.3645, 35973.27
748.2930, 35995.62
750.2214, 36035.66
752.1499, 36098.25
754.0784, 36179.40
756.0068, 36295.22
757.9353, 36462.93
759.8638, 36558.80
761.7922, 36544.96
763.7207, 36477.81
765.6492, 36384.71
767.5776, 36250.29
769.5061, 36138.41
771.4346, 36045.46
773.3630, 35978.31
775.2915, 35942.41
777.2200, 35945.72
779.1484, 35944.76
781.0769, 35924.36
783.0054, 35903.12
784.9338, 35903.80
786.8623, 35937.89
788.7908, 35974.81
790.7192, 36025.27
792.6477, 36072.54
794.5762, 36093.54
796.5046, 36070.80
798.4331, 36074.57
800.3616, 36125.20
802.2900, 36204.61
804.2185, 36290.40
806.1470, 36383.97
808.0754, 36482.63
810.0039, 36585.47
811.9324, 36692.39
813.8608, 36802.62
815.7893, 36914.48
817.7178, 37024.46
819.6462, 37126.30
821.5747, 37224.04
823.5032, 37325.16
825.4316, 37429.44
827.3601, 37538.92
829.2886, 37659.20
831.2170, 37787.31
833.1455, 37913.38
835.0740, 38029.92
837.0024, 38173.43
838.9309, 38359.45
840.8594, 38573.70
842.7878, 38797.76
844.7163, 39019.05
846.6448, 39265.36
848.5732, 39572.42
850.5017, 39891.63
852.4302, 40163.59
854.3586, 40393.11
856.2871, 40570.55
858.2156, 40696.83
860.1440, 40771.10
862.0725, 40783.74
864.0010, 40680.68
865.9294, 40588.69
867.8579, 40510.23
869.7864, 40442.86
871.7148, 40385.30
873.6433, 40336.94
875.5718, 40283.21
877.5002, 40215.93
879.4287, 40142.18
881.3572, 40069.49
883.2856, 39999.89
885.2141, 39935.81
887.1426, 39877.58
889.0710, 39830.81
890.9995, 39803.65
892.9280, 39799.80
894.8564, 39809.48
896.7849, 39831.30
898.7134, 39870.27
900.6418, 39927.90
902.5703, 40004.00
904.4988, 40091.31
906.4272, 40187.81
908.3557, 40287.82
910.2842, 40382.82
912.2126, 40465.07
914.1411, 40558.40
916.0696, 40665.12
917.9980, 40777.21
919.9265, 40892.14
921.8550, 41012.02
923.7834, 41141.29
925.7119, 41291.70
927.6404, 41453.54
929.5688, 41625.33
931.4973, 41810.68
933.4258, 42014.79
935.3542, 42259.75
937.2827, 42498.05
939.2112, 42716.56
941.1396, 42909.68
943.0681, 43065.73
944.9966, 43170.71
946.9250, 43247.00
948.8535, 43291.27
950.7820, 43310.03
952.7104, 43326.61
954.6389, 43361.34
956.5674, 43365.90
958.4958, 43329.46
960.4243, 43263.05
962.3528, 43184.88
964.2813, 43096.93
966.2097, 43009.31
968.1382, 42915.86
970.0667, 42835.14
971.9951, 42779.25
973.9236, 42737.50
975.8521, 42752.42
977.7805, 42829.21
979.7090, 42947.16
981.6375, 43089.14
983.5659, 43250.20
985.4944, 43445.29
987.4229, 43670.19
989.3513, 43933.48
991.2798, 44225.43
993.2083, 44554.59
995.1367, 44988.83
997.0652, 45547.64
998.9937, 46221.55
1000.922, 46995.92
1002.851, 47878.34
1004.779, 48900.82
1006.708, 50108.36
1008.636, 51375.96
1010.564, 52768.14
1012.493, 54165.58
1014.421, 55425.67
1016.350, 56588.99
1018.278, 57453.71
1020.207, 57888.70
1022.135, 58034.60
1024.064, 57974.89
1025.992, 57644.70
1027.921, 57301.16
1029.849, 56913.96
1031.778, 56558.45
1033.706, 56305.35
1035.635, 56157.56
1037.563, 55962.54
1039.491, 55776.62
1041.420, 55454.20
1043.348, 54903.04
1045.277, 54156.16
1047.205, 53291.93
1049.134, 52229.79
1051.062, 51197.43
1052.991, 50230.89
1054.919, 49348.95
1056.848, 48576.67
1058.776, 47933.61
1060.705, 47389.59
1062.633, 46965.97
1064.562, 46625.75
1066.490, 46336.52
1068.418, 46090.84
1070.347, 45878.98
1072.275, 45704.20
1074.204, 45548.41
1076.132, 45398.64
1078.061, 45254.95
1079.989, 45135.88
1081.918, 45050.89
1083.846, 44983.61
1085.775, 44940.84
1087.703, 44913.62
1089.632, 44879.20
1091.560, 44834.81
1093.489, 44796.45
1095.417, 44770.73
1097.345, 44757.18
1099.274, 44757.79
1101.202, 44776.27
1103.131, 44801.02
1105.059, 44822.76
1106.988, 44860.68
1108.916, 44926.87
1110.845, 45016.71
1112.773, 45096.30
1114.702, 45139.73
1116.630, 45192.18
1118.559, 45280.33
1120.487, 45374.17
1122.416, 45417.63
1124.344, 45400.51
1126.272, 45394.52
1128.201, 45430.00
1130.129, 45475.74
1132.058, 45510.08
1133.986, 45534.04
1135.915, 45561.48
1137.843, 45593.39
1139.772, 45629.61
1141.700, 45668.94
1143.629, 45711.50
1145.557, 45759.49
1147.486, 45817.86
1149.414, 45871.80
1151.343, 45915.33
1153.271, 45955.08
1155.199, 45997.73
1157.128, 46042.92
1159.056, 46088.80
1160.985, 46130.54
1162.913, 46179.75
1164.842, 46251.73
1166.770, 46341.48
1168.699, 46409.12
1170.627, 46431.54
1172.556, 46472.81
1174.484, 46553.54
1176.413, 46652.96
1178.341, 46744.29
1180.270, 46819.86
1182.198, 46894.52
1184.126, 46962.20
1186.055, 47025.20
1187.983, 47087.54
1189.912, 47145.44
1191.840, 47188.51
1193.769, 47217.32
1195.697, 47241.63
1197.626, 47269.99
1199.554, 47304.05
1201.483, 47343.32
1203.411, 47387.98
1205.340, 47455.27
1207.268, 47549.12
1209.197, 47657.14
1211.125, 47773.12
1213.053, 47890.24
1214.982, 47993.29
1216.910, 48073.03
1218.839, 48137.82
1220.767, 48182.84
1222.696, 48216.35
1224.624, 48256.60
1226.553, 48309.49
1228.481, 48342.93
1230.410, 48341.82
1232.338, 48351.63
1234.267, 48390.48
1236.195, 48454.86
1238.124, 48534.96
1240.052, 48632.67
1241.980, 48730.31
1243.909, 48828.15
1245.837, 48916.89
1247.766, 48985.03
1249.694, 49030.21
1251.623, 49087.57
1253.551, 49170.95
1255.480, 49254.31
1257.408, 49329.16
1259.337, 49399.02
1261.265, 49469.61
1263.194, 49539.62
1265.122, 49605.15
1267.051, 49658.68
1268.979, 49715.33
1270.907, 49790.00
1272.836, 49878.38
1274.764, 49952.11
1276.693, 49998.37
1278.621, 50058.05
1280.550, 50148.81
1282.478, 50248.77
1284.407, 50335.44
1286.335, 50403.84
1288.264, 50476.95
1290.192, 50560.11
1292.121, 50638.99
1294.049, 50703.55
1295.978, 50762.13
1297.906, 50833.21
1299.834, 50920.44
1301.763, 50993.39
1303.691, 51035.38
1305.620, 51075.16
1307.548, 51131.61
1309.477, 51199.73
1311.405, 51264.65
1313.334, 51325.05
1315.262, 51388.95
1317.191, 51457.93
1319.119, 51534.29
1321.048, 51622.61
1322.976, 51723.34
1324.905, 51815.27
1326.833, 51889.61
1328.761, 51960.47
1330.690, 52026.44
1332.618, 52090.70
1334.547, 52157.69
1336.475, 52228.32
1338.404, 52303.66
1340.332, 52396.68
1342.261, 52482.75
1344.189, 52543.25
1346.118, 52594.72
1348.046, 52664.13
1349.975, 52751.24
1351.903, 52844.16
1353.832, 52948.14
1355.760, 53046.67
1357.688, 53130.44
1359.617, 53204.50
1361.545, 53280.77
1363.474, 53364.23
1365.402, 53436.23
1367.331, 53477.02
1369.259, 53519.93
1371.188, 53589.82
1373.116, 53679.46
1375.045, 53745.41
1376.973, 53761.80
1378.902, 53793.11
1380.830, 53857.29
1382.759, 53929.98
1384.687, 53992.64
1386.615, 54047.57
1388.544, 54113.97
1390.472, 54199.57
1392.401, 54283.25
1394.329, 54356.29
1396.258, 54427.50
1398.186, 54506.59
1400.115, 54589.43
1402.043, 54657.01
1403.972, 54697.57
1405.900, 54743.88
1407.829, 54819.98
1409.757, 54898.50
1411.686, 54952.56
1413.614, 54986.81
1415.542, 55036.13
1417.471, 55109.11
1419.399, 55191.04
1421.328, 55278.26
1423.256, 55365.07
1425.185, 55443.81
1427.113, 55509.17
1429.042, 55569.02
1430.970, 55618.84
1432.899, 55665.57
1434.827, 55732.13
1436.756, 55791.45
1438.684, 55807.42
1440.613, 55779.90
1442.541, 55797.29
1444.469, 55878.83
1446.398, 55981.36
1448.326, 56098.75
1450.255, 56223.50
1452.183, 56344.01
1454.112, 56454.32
1456.040, 56566.67
1457.969, 56684.05
1459.897, 56786.44
1461.826, 56859.45
1463.754, 56924.77
1465.683, 57006.61
1467.611, 57104.19
1469.540, 57201.19
1471.468, 57303.64
1473.396, 57394.23
1475.325, 57452.33
1477.253, 57506.64
1479.182, 57576.72
1481.110, 57658.79
1483.039, 57739.82
1484.967, 57818.35
1486.896, 57898.25
1488.824, 57983.03
1490.753, 58069.54
1492.681, 58156.99
1494.610, 58246.44
1496.538, 58339.25
1498.467, 58443.41
1500.395, 58528.38
1502.323, 58570.50
1504.252, 58612.08
1506.180, 58681.31
1508.109, 58767.73
1510.037, 58840.71
1511.966, 58896.97
1513.894, 58953.29
1515.823, 59003.38
1517.751, 59067.71
1519.680, 59167.46
1521.608, 59282.00
1523.537, 59371.08
1525.465, 59423.15
1527.394, 59496.57
1529.322, 59608.18
1531.250, 59715.00
1533.179, 59794.71
1535.107, 59867.16
1537.036, 59962.50
1538.964, 60078.80
1540.893, 60171.07
1542.821, 60225.43
1544.750, 60288.18
1546.678, 60388.57
1548.607, 60487.29
1550.535, 60542.48
1552.464, 60569.36
1554.392, 60620.30
1556.321, 60703.60
1558.249, 60776.38
1560.177, 60836.48
1562.106, 60882.18
1564.034, 60899.11
1565.963, 60913.86
1567.891, 60971.18
1569.820, 61074.68
1571.748, 61185.76
1573.677, 61299.30
1575.605, 61407.28
1577.534, 61494.45
1579.462, 61570.94
1581.391, 61650.08
1583.319, 61729.27
1585.248, 61789.85
1587.176, 61827.69
1589.104, 61863.13
1591.033, 61903.58
1592.961, 61946.62
1594.890, 61990.93
1596.818, 62035.80
1598.747, 62081.76
1600.675, 62132.01
1602.604, 62173.89
1604.532, 62202.06
1606.461, 62239.89
1608.389, 62301.89
1610.318, 62384.24
1612.246, 62480.59
1614.175, 62591.25
1616.103, 62711.74
1618.031, 62823.27
1619.960, 62949.40
1621.888, 63094.16
1623.817, 63226.87
1625.745, 63321.71
1627.674, 63385.84
1629.602, 63452.57
1631.531, 63544.57
1633.459, 63599.05
1635.388, 63602.28
1637.316, 63610.30
1639.245, 63649.13
1641.173, 63701.58
1643.102, 63745.50
1645.030, 63782.20
1646.958, 63835.32
1648.887, 63917.31
1650.815, 63993.80
1652.744, 64047.02
1654.672, 64108.36
1656.601, 64198.53
1658.529, 64303.93
1660.458, 64401.57
1662.386, 64489.65
1664.315, 64571.78
1666.243, 64646.71
1668.172, 64720.26
1670.100, 64791.00
1672.029, 64867.51
1673.957, 64951.15
1675.885, 65045.64
1677.814, 65165.75
1679.742, 65327.45
1681.671, 65465.62
1683.599, 65557.99
1685.528, 65647.59
1687.456, 65744.61
1689.385, 65839.77
1691.313, 65924.84
1693.242, 65999.50
1695.170, 66067.27
1697.099, 66141.05
1699.027, 66183.08
1700.956, 66167.20
1702.884, 66159.04
1704.813, 66196.16
1706.741, 66252.85
1708.669, 66294.36
1710.598, 66324.12
1712.526, 66379.21
1714.455, 66475.78
1716.383, 66567.09
1718.312, 66634.28
1720.240, 66708.16
1722.169, 66809.72
1724.097, 66913.40
1726.026, 66979.13
1727.954, 67002.30
1729.883, 67031.18
1731.811, 67084.87
1733.740, 67109.30
1735.668, 67089.30
1737.596, 67068.58
1739.525, 67087.34
1741.453, 67124.45
1743.382, 67136.55
1745.310, 67127.15
1747.239, 67171.58
1749.167, 67288.38
1751.096, 67417.00
1753.024, 67546.13
1754.953, 67669.17
1756.881, 67783.26
1758.810, 67876.01
1760.738, 67928.90
1762.667, 67943.09
1764.595, 67969.28
1766.523, 68037.84
1768.452, 68086.82
1770.380, 68095.94
1772.309, 68121.63
1774.237, 68200.35
1776.166, 68297.33
1778.094, 68367.99
1780.023, 68412.53
1781.951, 68460.42
1783.880, 68507.72
1785.808, 68561.64
1787.737, 68627.90
1789.665, 68689.53
1791.594, 68742.67
1793.522, 68785.63
1795.450, 68814.20
1797.379, 68829.36
1799.307, 68837.99
1801.236, 68836.33
1803.164, 68849.95
1805.093, 68903.41
1807.021, 68950.79
1808.950, 68976.59
1810.878, 69009.01
1812.807, 69068.73
1814.735, 69150.92
1816.664, 69238.03
1818.592, 69325.66
1820.521, 69431.42
1822.449, 69557.52
1824.377, 69669.34
1826.306, 69747.20
1828.234, 69809.16
1830.163, 69863.91
1832.091, 69910.30
1834.020, 69951.48
1835.948, 69989.49
1837.877, 70016.73
1839.805, 70036.95
1841.734, 70050.95
1843.662, 70044.36
1845.591, 70060.08
1847.519, 70136.67
1849.448, 70220.41
1851.376, 70263.13
1853.304, 70278.86
1855.233, 70297.55
1857.161, 70322.12
1859.090, 70355.90
1861.018, 70404.76
1862.947, 70471.25
1864.875, 70559.85
1866.804, 70668.37
1868.732, 70797.99
1870.661, 70936.78
1872.589, 71064.05
1874.518, 71173.83
1876.446, 71283.20
1878.375, 71389.34
1880.303, 71455.54
1882.231, 71460.51
1884.160, 71452.43
1886.088, 71456.38
1888.017, 71460.76
1889.945, 71471.45
1891.874, 71489.23
1893.802, 71499.97
1895.731, 71507.25
1897.659, 71552.72
1899.588, 71646.65
1901.516, 71735.43
1903.445, 71791.88
1905.373, 71847.57
1907.302, 71913.38
1909.230, 71972.11
1911.158, 72020.68
1913.087, 72056.22
1915.015, 72059.59
1916.944, 72034.98
1918.872, 72049.88
1920.801, 72116.47
1922.729, 72188.65
1924.658, 72260.73
1926.586, 72316.66
1928.515, 72329.12
1930.443, 72337.38
1932.372, 72389.61
1934.300, 72458.27
1936.229, 72481.78
1938.157, 72466.34
1940.085, 72469.15
1942.014, 72500.76
1943.942, 72526.79
1945.871, 72527.30
1947.799, 72535.23
1949.728, 72575.62
1951.656, 72615.49
1953.585, 72621.85
1955.513, 72614.02
1957.442, 72630.78
1959.370, 72675.04
1961.299, 72728.84
1963.227, 72791.59
1965.156, 72866.88
1967.084, 72949.66
1969.012, 73042.13
1970.941, 73150.42
1972.869, 73247.68
1974.798, 73311.95
1976.726, 73349.33
1978.655, 73373.63
1980.583, 73386.83
1982.512, 73386.33
1984.440, 73373.42
1986.369, 73402.04
1988.297, 73506.63
1990.226, 73604.07
1992.154, 73659.17
1994.083, 73715.29
1996.011, 73784.89
1997.939, 73862.70
1999.868, 73946.36
2001.796, 74030.59
2003.725, 74111.07
2005.653, 74190.15
2007.582, 74264.98
2009.510, 74338.70
2011.439, 74415.48
2013.367, 74486.97
2015.296, 74569.76
2017.224, 74664.97
2019.153, 74760.21
2021.081, 74850.66
2023.010, 74926.49
2024.938, 74980.40
2026.866, 75016.30
2028.795, 75037.48
2030.723, 75054.05
2032.652, 75066.63
2034.580, 75071.38
2036.509, 75103.73
2038.437, 75164.08
2040.366, 75251.30
2042.294, 75373.42
2044.223, 75491.16
2046.151, 75564.93
2048.080, 75614.50
2050.008, 75682.42
2051.937, 75764.85
2053.865, 75825.25
2055.793, 75866.20
2057.722, 75917.61
2059.650, 75987.88
2061.579, 76063.51
2063.507, 76138.43
2065.436, 76207.05
2067.364, 76255.30
2069.293, 76294.16
2071.221, 76346.71
2073.150, 76388.84
2075.078, 76367.14
2077.007, 76292.99
2078.935, 76267.24
2080.864, 76305.71
2082.792, 76312.36
2084.720, 76270.92
2086.649, 76253.28
2088.577, 76287.37
2090.506, 76336.42
2092.434, 76389.16
2094.363, 76449.73
2096.291, 76503.80
2098.220, 76566.07
2100.148, 76661.52
2102.077, 76770.09
2104.005, 76846.22
2105.934, 76882.07
2107.862, 76886.25
2109.791, 76863.08
2111.719, 76810.33
2113.647, 76741.63
2115.576, 76659.76
2117.504, 76554.79
2119.433, 76480.74
2121.361, 76465.17
2123.290, 76497.14
2125.218, 76577.79
2127.147, 76685.95
2129.075, 76782.73
2131.004, 76865.00
2132.932, 76939.80
2134.861, 77001.38
2136.789, 77068.12
2138.718, 77144.84
2140.646, 77203.99
2142.574, 77226.53
2144.503, 77256.37
2146.431, 77321.61
2148.360, 77385.95
2150.288, 77427.93
2152.217, 77464.74
2154.145, 77521.14
2156.074, 77580.40
2158.002, 77597.13
2159.931, 77577.65
2161.859, 77590.58
2163.788, 77635.86
2165.716, 77661.25
2167.645, 77657.55
2169.573, 77666.21
2171.501, 77705.10
2173.430, 77749.02
2175.358, 77799.98
2177.287, 77852.25
2179.215, 77901.76
2181.144, 77951.54
2183.072, 77990.85
2185.001, 78031.54
2186.929, 78095.66
2188.858, 78174.15
2190.786, 78248.58
2192.715, 78317.90
2194.643, 78368.50
2196.572, 78402.34
2198.500, 78441.04
2200.428, 78498.79
2202.357, 78539.27
2204.285, 78537.22
2206.214, 78545.70
2208.142, 78576.04
2210.071, 78628.13
2211.999, 78724.91
2213.928, 78818.93
2215.856, 78851.73
2217.785, 78861.67
2219.713, 78920.55
2221.642, 79023.55
2223.570, 79128.38
2225.499, 79234.57
2227.427, 79325.98
2229.355, 79389.41
2231.284, 79490.32
2233.212, 79653.09
2235.141, 79758.57
2237.069, 79738.38
2238.998, 79716.80
2240.926, 79759.55
2242.855, 79798.51
2244.783, 79814.25
2246.712, 79810.61
2248.640, 79769.63
2250.569, 79733.90
2252.497, 79769.98
2254.426, 79859.36
2256.354, 79943.51
2258.282, 80020.46
2260.211, 80085.25
2262.139, 80133.30
2264.068, 80211.37
2265.996, 80330.39
2267.925, 80428.27
2269.853, 80480.20
2271.782, 80533.66
2273.710, 80605.99
2275.639, 80674.80
2277.567, 80741.27
2279.496, 80795.98
2281.424, 80826.42
2283.353, 80848.23
2285.281, 80864.41
2287.209, 80884.55
2289.138, 80929.88
2291.066, 80990.16
2292.995, 81043.53
2294.923, 81094.63
2296.852, 81148.93
2298.780, 81208.73
2300.709, 81281.86
2302.637, 81374.33
2304.566, 81453.86
2306.494, 81496.17
2308.423, 81559.77
2310.351, 81661.13
2312.280, 81752.95
2314.208, 81824.20
2316.136, 81879.73
2318.065, 81927.63
2319.993, 81961.14
2321.922, 81958.33
2323.850, 81961.91
2325.779, 82015.63
2327.707, 82102.43
2329.636, 82200.45
2331.564, 82303.66
2333.493, 82408.23
2335.421, 82503.05
2337.350, 82524.88
2339.278, 82475.20
2341.207, 82431.83
2343.135, 82404.99
2345.063, 82380.35
2346.992, 82357.91
2348.920, 82368.34
2350.849, 82437.05
2352.777, 82515.75
2354.706, 82583.41
2356.634, 82665.62
2358.563, 82772.63
2360.491, 82867.41
2362.420, 82929.16
2364.348, 82970.32
2366.277, 82990.37
2368.205, 83009.05
2370.134, 83060.27
2372.062, 83119.30
2373.990, 83141.20
2375.919, 83147.97
2377.847, 83185.27
2379.776, 83251.86
2381.704, 83336.80
2383.633, 83440.21
2385.561, 83549.18
2387.490, 83662.79
2389.418, 83789.76
2391.347, 83928.72
2393.275, 84064.34
2395.204, 84192.76
2397.132, 84302.24
2399.061, 84370.72
2400.989, 84442.36
2402.917, 84544.77
2404.846, 84618.43
2406.774, 84637.02
2408.703, 84657.74
2410.631, 84708.16
2412.560, 84776.59
2414.488, 84866.10
2416.417, 84963.25
2418.345, 85057.28
2420.274, 85149.36
2422.202, 85228.77
2424.131, 85309.85
2426.059, 85421.21
2427.988, 85550.00
2429.916, 85677.12
2431.844, 85797.12
2433.773, 85895.20
2435.701, 85972.63
2437.630, 86024.98
2439.558, 86053.10
2441.487, 86106.66
2443.415, 86194.16
2445.344, 86277.45
2447.272, 86357.20
2449.201, 86424.35
2451.129, 86470.77
2453.058, 86525.62
2454.986, 86588.52
2456.915, 86672.26
2458.843, 86806.28
2460.771, 86914.16
2462.700, 86967.49
2464.628, 87004.84
2466.557, 87025.43
2468.485, 87052.85
2470.414, 87109.22
2472.342, 87159.04
2474.271, 87161.05
2476.199, 87176.86
2478.128, 87271.58
2480.056, 87381.75
2481.985, 87442.82
2483.913, 87485.16
2485.842, 87542.61
2487.770, 87608.16
2489.698, 87671.63
2491.627, 87735.88
2493.555, 87816.33
2495.484, 87903.34
2497.412, 87961.55
2499.341, 88003.02
2501.269, 88070.51
2503.198, 88160.72
2505.126, 88235.15
2507.055, 88286.13
2508.983, 88373.23
2510.912, 88492.93
2512.840, 88575.84
2514.769, 88615.20
2516.697, 88646.05
2518.625, 88675.26
2520.554, 88702.23
2522.482, 88713.71
2524.411, 88764.80
2526.339, 88887.82
2528.268, 88979.13
2530.196, 89011.89
2532.125, 89059.17
2534.053, 89141.48
2535.982, 89222.73
2537.910, 89287.63
2539.839, 89349.25
2541.767, 89403.90
2543.696, 89459.02
2545.624, 89522.03
2547.552, 89576.99
2549.481, 89616.88
2551.409, 89659.80
2553.338, 89727.05
2555.266, 89796.80
2557.195, 89837.08
2559.123, 89905.05
2561.052, 90065.05
2562.980, 90241.73
2564.909, 90372.41
2566.837, 90476.16
2568.766, 90544.04
2570.694, 90611.80
2572.623, 90727.79
2574.551, 90855.84
2576.479, 90955.13
2578.408, 91040.97
2580.336, 91139.54
2582.265, 91246.21
2584.193, 91329.50
2586.122, 91418.78
2588.050, 91594.96
2589.979, 91802.88
2591.907, 91909.62
2593.836, 91943.76
2595.764, 92013.66
2597.693, 92102.64
2599.621, 92139.13
2601.550, 92141.97
2603.478, 92200.40
2605.406, 92304.91
2607.335, 92383.93
2609.263, 92443.40
2611.192, 92520.92
2613.120, 92616.96
2615.049, 92720.45
2616.977, 92828.84
2618.906, 92935.05
2620.834, 93035.18
2622.763, 93125.41
2624.691, 93202.22
2626.620, 93301.09
2628.548, 93436.68
2630.477, 93511.02
2632.405, 93512.80
2634.333, 93568.15
2636.262, 93686.33
2638.190, 93777.48
2640.119, 93827.76
2642.047, 93894.70
2643.976, 93985.51
2645.904, 94071.38
2647.833, 94152.38
2649.761, 94239.84
2651.690, 94345.23
2653.618, 94433.45
2655.547, 94496.51
2657.475, 94598.91
2659.404, 94760.55
2661.332, 94906.02
2663.260, 95016.30
2665.189, 95105.16
2667.117, 95163.75
2669.046, 95200.52
2670.974, 95213.88
2672.903, 95233.91
2674.831, 95287.75
2676.760, 95311.40
2678.688, 95271.48
2680.617, 95276.46
2682.545, 95347.07
2684.474, 95428.95
2686.402, 95522.96
2688.331, 95602.89
2690.259, 95652.80
2692.188, 95726.17
2694.116, 95830.80
2696.044, 95957.54
2697.973, 96100.39
2699.901, 96261.92
2701.830, 96442.30
2703.758, 96615.33
2705.687, 96780.98
2707.615, 96905.95
2709.544, 96960.63
2711.472, 97010.00
2713.401, 97050.39
2715.329, 97111.34
2717.258, 97205.07
2719.186, 97302.16
2721.115, 97414.38
2723.043, 97514.84
2724.971, 97594.76
2726.900, 97706.35
2728.828, 97863.29
2730.757, 98001.84
2732.685, 98092.48
2734.614, 98226.77
2736.542, 98448.54
2738.471, 98599.93
2740.399, 98635.35
2742.328, 98703.29
2744.256, 98826.70
2746.185, 98931.11
2748.113, 99009.66
2750.042, 99089.51
2751.970, 99182.48
2753.898, 99257.42
2755.827, 99301.09
2757.755, 99378.66
2759.684, 99497.14
2761.612, 99622.87
2763.541, 99752.73
2765.469, 99897.95
2767.398, 100064.7
2769.326, 100200.6
2771.255, 100295.2
2773.183, 100410.7
2775.112, 100546.3
2777.040, 100671.9
2778.969, 100788.0
2780.897, 100862.6
2782.825, 100893.6
2784.754, 100979.9
2786.682, 101118.0
2788.611, 101195.7
2790.539, 101219.5
2792.468, 101273.9
2794.396, 101358.3
2796.325, 101447.4
2798.253, 101540.2
2800.182, 101620.1
2802.110, 101693.4
2804.039, 101793.7
2805.967, 101912.2
2807.896, 102025.8
2809.824, 102131.9
2811.752, 102205.8
2813.681, 102270.6
2815.609, 102389.8
2817.538, 102538.9
2819.466, 102666.1
2821.395, 102777.8
2823.323, 102876.7
2825.252, 102971.1
2827.180, 103079.9
2829.109, 103192.4
2831.037, 103315.7
2832.966, 103422.4
2834.894, 103471.8
2836.823, 103505.6
2838.751, 103564.3
2840.679, 103634.0
2842.608, 103704.7
2844.536, 103779.8
2846.465, 103862.1
2848.393, 103947.9
2850.322, 104036.6
2852.250, 104128.5
2854.179, 104238.1
2856.107, 104335.5
2858.036, 104374.3
2859.964, 104461.4
2861.893, 104670.6
2863.821, 104878.9
2865.750, 105042.8
2867.678, 105183.7
2869.606, 105292.8
2871.535, 105389.0
2873.463, 105480.0
2875.392, 105561.6
2877.320, 105640.6
2879.249, 105740.5
2881.177, 105876.3
2883.106, 106012.0
2885.034, 106137.9
2886.963, 106288.4
2888.891, 106458.2
2890.820, 106621.4
2892.748, 106769.1
2894.677, 106857.6
2896.605, 106895.8
2898.533, 107003.2
2900.462, 107173.8
2902.390, 107306.1
2904.319, 107410.4
2906.247, 107492.9
2908.176, 107576.5
2910.104, 107731.9
2912.033, 107911.8
2913.961, 108019.0
2915.890, 108097.4
2917.818, 108224.8
2919.747, 108356.7
2921.675, 108447.1
2923.604, 108520.2
2925.532, 108592.0
2927.460, 108665.4
2929.389, 108741.0
2931.317, 108824.2
2933.246, 108925.0
2935.174, 109026.7
2937.103, 109105.8
2939.031, 109211.1
2940.960, 109376.4
2942.888, 109513.3
2944.817, 109591.5
2946.745, 109682.1
2948.674, 109821.1
2950.602, 109940.8
2952.531, 110026.5
2954.459, 110191.7
2956.387, 110443.9
2958.316, 110621.9
2960.244, 110697.0
2962.173, 110841.9
2964.101, 111040.8
2966.030, 111138.6
2967.958, 111169.9
2969.887, 111252.1
2971.815, 111374.1
2973.744, 111480.9
2975.672, 111597.9
2977.601, 111758.7
2979.529, 111935.1
2981.458, 112092.7
2983.386, 112224.0
2985.314, 112320.2
2987.243, 112388.4
2989.171, 112428.0
2991.100, 112472.5
2993.028, 112546.8
2994.957, 112635.8
2996.885, 112760.7
2998.814, 112859.3
3000.742, 112915.7
3002.671, 112971.9
3004.599, 113039.2
3006.528, 113109.5
3008.456, 113176.1
3010.385, 113281.7
3012.313, 113422.3
3014.241, 113629.5
3016.170, 113875.8
3018.098, 114028.9
3020.027, 114104.3
3021.955, 114201.1
3023.884, 114285.6
3025.812, 114243.7
3027.741, 114197.3
3029.669, 114318.0
3031.598, 114486.6
3033.526, 114586.1
3035.455, 114670.5
3037.383, 114757.5
3039.312, 114841.3
3041.240, 114935.7
3043.168, 115001.8
3045.097, 115032.7
3047.025, 115067.8
3048.954, 115115.7
3050.882, 115196.0
3052.811, 115312.1
3054.739, 115448.3
3056.668, 115596.0
3058.596, 115777.5
3060.525, 115967.4
3062.453, 116025.5
3064.382, 116008.3
3066.310, 116106.9
3068.239, 116255.2
3070.167, 116335.9
3072.095, 116390.0
3074.024, 116439.4
3075.952, 116496.2
3077.881, 116570.5
3079.809, 116639.8
3081.738, 116702.6
3083.666, 116760.3
3085.595, 116844.8
3087.523, 116906.6
3089.452, 116933.2
3091.380, 117055.2
3093.309, 117298.0
3095.237, 117484.2
3097.166, 117585.5
3099.094, 117717.1
3101.022, 117857.7
3102.951, 117988.1
3104.879, 118092.8
3106.808, 118127.0
3108.736, 118145.6
3110.665, 118243.7
3112.593, 118346.7
3114.522, 118383.8
3116.450, 118428.8
3118.379, 118502.3
3120.307, 118627.3
3122.236, 118818.8
3124.164, 119013.8
3126.093, 119190.4
3128.021, 119361.1
3129.949, 119515.7
3131.878, 119676.9
3133.806, 119834.1
3135.735, 119921.8
3137.663, 119972.1
3139.592, 120130.2
3141.520, 120312.5
3143.449, 120360.4
3145.377, 120370.7
3147.306, 120428.4
3149.234, 120496.4
3151.163, 120547.3
3153.091, 120601.2
3155.020, 120657.4
3156.948, 120734.3
3158.876, 120848.3
3160.805, 120954.7
3162.733, 121053.4
3164.662, 121158.1
3166.590, 121268.7
3168.519, 121343.2
3170.447, 121408.5
3172.376, 121578.2
3174.304, 121789.5
3176.233, 121963.0
3178.161, 122109.3
3180.090, 122203.7
3182.018, 122315.9
3183.947, 122491.0
3185.875, 122643.2
3187.803, 122711.6
3189.732, 122815.3
3191.660, 122977.8
3193.589, 123068.8
3195.517, 123080.0
3197.446, 123132.1
3199.374, 123207.3
3201.303, 123203.9
3203.231, 123170.6
3205.160, 123211.6
3207.088, 123263.3
3209.017, 123239.7
3210.945, 123258.8
3212.874, 123395.0
3214.802, 123559.6
3216.730, 123695.9
3218.659, 123856.4
3220.587, 124029.8
3222.516, 124148.0
3224.444, 124198.1
3226.373, 124265.2
3228.301, 124339.3
3230.230, 124345.3
3232.158, 124318.0
3234.087, 124266.1
3236.015, 124251.2
3237.944, 124323.8
3239.872, 124436.5
3241.801, 124579.8
3243.729, 124686.0
3245.657, 124719.4
3247.586, 124736.7
3249.514, 124747.5
3251.443, 124757.7
3253.371, 124770.3
3255.300, 124737.0
3257.228, 124686.7
3259.157, 124674.5
3261.085, 124692.3
3263.014, 124739.3
3264.942, 124797.6
3266.871, 124860.6
3268.799, 124916.3
3270.728, 124957.6
3272.656, 124973.4
3274.584, 124937.6
3276.513, 124996.8
3278.441, 125129.8
3280.370, 125163.0
3282.298, 125134.5
3284.227, 125125.0
3286.155, 125131.0
3288.084, 125132.5
3290.012, 125164.7
3291.941, 125280.1
3293.869, 125352.6
3295.798, 125326.5
3297.726, 125347.8
3299.655, 125450.9
3301.583, 125540.4
3303.511, 125615.5
3305.440, 125684.0
3307.368, 125736.9
3309.297, 125743.2
3311.225, 125746.9
3313.154, 125828.3
3315.082, 125879.6
3317.011, 125804.5
3318.939, 125799.5
3320.868, 125912.1
3322.796, 126068.4
3324.725, 126254.2
3326.653, 126364.2
3328.582, 126406.8
3330.510, 126445.4
3332.438, 126477.8
3334.367, 126500.4
3336.295, 126542.2
3338.224, 126669.9
3340.152, 126746.6
3342.081, 126687.3
3344.009, 126713.8
3345.938, 126875.4
3347.866, 126986.2
3349.795, 127045.6
3351.723, 127067.6
3353.652, 127076.0
3355.580, 127098.1
3357.509, 127154.9
3359.437, 127261.5
3361.365, 127392.9
3363.294, 127517.0
3365.222, 127665.6
3367.151, 127833.6
3369.079, 127933.2
3371.008, 127963.8
3372.936, 128018.0
3374.865, 128081.5
3376.793, 128130.3
3378.722, 128163.1
3380.650, 128178.7
3382.579, 128173.0
3384.507, 128125.4
3386.436, 128123.5
3388.364, 128207.1
3390.292, 128255.2
3392.221, 128280.0
3394.149, 128381.0
3396.078, 128518.6
3398.006, 128620.7
3399.935, 128708.8
3401.863, 128789.5
3403.792, 128879.0
3405.720, 128982.9
3407.649, 129092.3
3409.577, 129206.3
3411.506, 129318.4
3413.434, 129430.9
3415.363, 129563.8
3417.291, 129686.1
3419.219, 129716.4
3421.148, 129753.6
3423.076, 129892.7
3425.005, 129989.8
3426.933, 130007.7
3428.862, 130007.1
3430.790, 130006.3
3432.719, 130010.0
3434.647, 130026.4
3436.576, 130059.2
3438.504, 130099.1
3440.433, 130105.8
3442.361, 130149.3
3444.290, 130257.8
3446.218, 130376.1
3448.146, 130483.5
3450.075, 130567.6
3452.003, 130618.1
3453.932, 130644.0
3455.860, 130636.3
3457.789, 130583.1
3459.717, 130516.3
3461.646, 130480.7
3463.574, 130437.7
3465.503, 130378.8
3467.431, 130343.6
3469.360, 130330.5
3471.288, 130399.6
3473.217, 130493.0
3475.145, 130470.0
3477.073, 130429.3
3479.002, 130492.6
3480.930, 130524.8
3482.859, 130472.9
3484.787, 130511.6
3486.716, 130677.5
3488.644, 130794.3
3490.573, 130857.0
3492.501, 130860.4
3494.430, 130823.9
3496.358, 130763.1
3498.287, 130697.3
3500.215, 130639.7
3502.144, 130629.3
3504.072, 130688.8
3506.000, 130722.8
3507.929, 130751.6
3509.857, 130819.9
3511.786, 130925.2
3513.714, 131102.4
3515.643, 131230.1
3517.571, 131207.1
3519.500, 131241.8
3521.428, 131362.0
3523.357, 131485.2
3525.285, 131584.8
3527.214, 131512.0
3529.142, 131428.5
3531.071, 131532.0
3532.999, 131625.2
3534.927, 131601.9
3536.856, 131619.2
3538.784, 131696.3
3540.713, 131697.0
3542.641, 131659.9
3544.570, 131723.4
3546.498, 131802.8
3548.427, 131821.3
3550.355, 131802.6
3552.284, 131743.0
3554.212, 131709.0
3556.141, 131715.1
3558.069, 131702.8
3559.998, 131692.6
3561.926, 131723.9
3563.854, 131773.2
3565.783, 131794.7
3567.711, 131860.5
3569.640, 131977.7
3571.568, 132110.1
3573.497, 132234.3
3575.425, 132218.3
3577.354, 132139.2
3579.282, 132132.0
3581.211, 132130.8
3583.139, 132104.3
3585.068, 132124.4
3586.996, 132215.0
3588.925, 132300.2
3590.853, 132378.9
3592.781, 132483.8
3594.710, 132583.1
3596.638, 132654.7
3598.567, 132700.0
3600.495, 132741.6
3602.424, 132709.9
3604.352, 132616.4
3606.281, 132575.7
3608.209, 132570.5
3610.138, 132578.9
3612.066, 132577.5
3613.995, 132546.3
3615.923, 132545.2
3617.852, 132601.8
3619.780, 132639.0
3621.708, 132662.3
3623.637, 132659.5
3625.565, 132682.4
3627.494, 132784.6
3629.422, 132900.0
3631.351, 133024.9
3633.279, 133091.2
3635.208, 133106.6
3637.136, 133125.5
3639.065, 133138.9
3640.993, 133091.1
3642.922, 133069.3
3644.850, 133132.7
3646.779, 133177.6
3648.707, 133190.9
3650.635, 133269.2
3652.564, 133372.8
3654.492, 133401.5
3656.421, 133393.8
3658.349, 133382.2
3660.278, 133342.9
3662.206, 133271.0
3664.135, 133255.5
3666.063, 133299.3
3667.992, 133419.4
3669.920, 133523.9
3671.849, 133489.1
3673.777, 133469.8
3675.706, 133516.5
3677.634, 133574.4
3679.563, 133632.8
3681.491, 133580.4
3683.419, 133517.7
3685.348, 133541.9
3687.276, 133629.2
3689.205, 133807.2
3691.133, 133850.2
3693.062, 133755.2
3694.990, 133732.1
3696.919, 133728.5
3698.847, 133628.7
3700.776, 133584.2
3702.704, 133727.8
3704.633, 133781.2
3706.561, 133730.2
3708.490, 133737.5
3710.418, 133767.1
3712.346, 133756.6
3714.275, 133740.8
3716.203, 133735.3
3718.132, 133757.1
3720.060, 133805.2
3721.989, 133751.0
3723.917, 133645.4
3725.846, 133519.8
3727.774, 133487.3
3729.703, 133680.6
3731.631, 133775.3
3733.560, 133745.4
3735.488, 133812.0
3737.417, 133896.9
3739.345, 133870.8
3741.273, 133803.0
3743.202, 133754.5
3745.130, 133657.1
3747.059, 133530.5
3748.987, 133425.2
3750.916, 133361.9
3752.844, 133359.4
3754.773, 133400.7
3756.701, 133475.3
3758.630, 133554.5
3760.558, 133618.7
3762.487, 133651.1
3764.415, 133624.5
3766.344, 133479.8
3768.272, 133331.1
3770.200, 133251.0
3772.129, 133179.4
3774.057, 133127.5
3775.986, 133056.0
3777.914, 133026.4
3779.843, 133108.7
3781.771, 133199.5
3783.700, 133248.6
3785.628, 133250.6
3787.557, 133213.2
3789.485, 133202.4
3791.414, 133206.2
3793.342, 133242.9
3795.271, 133231.8
3797.199, 133154.7
3799.127, 133072.3
3801.056, 132988.7
3802.984, 132904.6
3804.913, 132834.4
3806.841, 132790.6
3808.770, 132758.9
3810.698, 132733.9
3812.627, 132721.5
3814.555, 132725.0
3816.484, 132764.0
3818.412, 132776.1
3820.341, 132739.5
3822.269, 132622.4
3824.198, 132446.5
3826.126, 132336.1
3828.054, 132207.0
3829.983, 131930.2
3831.911, 131730.1
3833.840, 131660.5
3835.768, 131677.7
3837.697, 131744.4
3839.625, 131815.9
3841.554, 131817.4
3843.482, 131659.6
3845.411, 131550.8
3847.339, 131513.1
3849.268, 131366.1
3851.196, 131198.6
3853.125, 131113.7
3855.053, 131071.8
3856.981, 131055.6
3858.910, 131099.0
3860.838, 131165.2
3862.767, 131140.5
3864.695, 131072.2
3866.624, 130968.0
3868.552, 130902.4
3870.481, 130880.0
3872.409, 130812.7
3874.338, 130751.7
3876.266, 130814.9
3878.195, 130849.1
3880.123, 130772.8
3882.052, 130726.5
3883.980, 130703.9
3885.908, 130668.7
3887.837, 130631.2
3889.765, 130595.3
3891.694, 130563.5
3893.622, 130540.1
3895.551, 130537.9
3897.479, 130522.5
3899.408, 130412.9
3901.336, 130319.4
3903.265, 130266.5
3905.193, 130278.3
3907.122, 130317.3
3909.050, 130284.2
3910.979, 130223.4
3912.907, 130143.5
3914.835, 130144.4
3916.764, 130220.8
3918.692, 130217.3
3920.621, 130154.5
3922.549, 130031.5
3924.478, 129942.5
3926.406, 129918.1
3928.335, 129834.6
3930.263, 129737.2
3932.192, 129716.7
3934.120, 129693.6
3936.049, 129608.0
3937.977, 129538.8
3939.906, 129491.7
3941.834, 129533.9
3943.762, 129548.6
3945.691, 129447.6
3947.619, 129361.0
3949.548, 129307.1
3951.476, 129297.8
3953.405, 129298.9
3955.333, 129266.5
3957.262, 129243.7
3959.190, 129245.7
3961.119, 129221.5
3963.047, 129183.2
3964.976, 129126.0
3966.904, 129116.6
3968.833, 129183.0
3970.761, 129143.2
3972.689, 129026.1
3974.618, 128960.5
3976.546, 128882.3
3978.475, 128755.2
3980.403, 128641.3
3982.332, 128555.1
3984.260, 128543.1
3986.189, 128509.1
3988.117, 128339.8
3990.046, 128200.6
3991.974, 128105.8
3993.903, 128069.3
3995.831, 128036.6
3997.760, 127941.4
3999.688, 127881.4
4001.616, 127891.3
4003.545, 127777.0
4005.473, 127621.2
4007.402, 127542.7
4009.330, 127474.3
4011.259, 127400.6
4013.187, 127312.6
4015.116, 127226.5
4017.044, 127161.9
4018.973, 127110.1
4020.901, 127058.2
4022.830, 127046.3
4024.758, 127034.9
4026.687, 126928.1
4028.615, 126771.6
4030.543, 126567.8
4032.472, 126437.2
4034.400, 126356.3
4036.329, 126210.1
4038.257, 126055.7
4040.186, 125900.3
4042.114, 125848.6
4044.043, 125859.5
4045.971, 125740.0
4047.900, 125648.0
4049.828, 125713.1
4051.757, 125632.2
4053.685, 125417.8
4055.614, 125314.6
4057.542, 125253.4
4059.470, 125195.0
4061.399, 125164.4
4063.327, 125147.7
4065.256, 125024.9
4067.184, 124890.1
4069.113, 124819.4
4071.041, 124733.3
4072.970, 124629.0
4074.898, 124581.7
4076.827, 124492.7
4078.755, 124255.8
4080.684, 124110.2
4082.612, 124068.0
4084.541, 123902.9
4086.469, 123699.6
4088.397, 123494.2
4090.326, 123403.3
4092.254, 123422.4
4094.183, 123389.4
4096.111, 123348.9
4098.040, 123350.6
4099.968, 123279.8
4101.896, 123129.0
4103.825, 122929.5
4105.754, 122746.1
4107.682, 122632.1
4109.610, 122538.5
4111.539, 122463.2
4113.468, 122456.2
4115.396, 122389.7
4117.324, 122154.5
4119.253, 122034.9
4121.182, 122032.5
4123.110, 122042.9
4125.038, 122023.7
4126.967, 121928.8
4128.896, 121876.2
4130.824, 121867.4
4132.752, 121918.0
4134.681, 121937.1
4136.609, 121843.2
4138.538, 121799.9
4140.466, 121785.5
4142.395, 121742.6
4144.323, 121681.2
4146.251, 121597.3
4148.180, 121576.8
4150.108, 121580.0
4152.037, 121534.5
4153.965, 121469.3
4155.894, 121396.7
4157.822, 121320.0
4159.751, 121252.9
4161.679, 121204.8
4163.607, 121182.1
4165.536, 121177.6
4167.465, 121143.1
4169.393, 121057.2
4171.321, 120868.6
4173.250, 120756.6
4175.179, 120752.5
4177.107, 120737.0
4179.035, 120737.9
4180.964, 120786.6
4182.893, 120786.0
4184.821, 120730.3
4186.749, 120670.4
4188.678, 120591.2
4190.606, 120464.6
4192.535, 120381.3
4194.463, 120307.8
4196.392, 120163.7
4198.320, 119960.6
4200.249, 119693.3
4202.177, 119525.0
4204.105, 119426.2
4206.034, 119350.1
4207.962, 119262.7
4209.891, 119155.5
4211.819, 119043.3
4213.748, 118971.3
4215.676, 118992.1
4217.604, 119003.6
4219.533, 118985.1
4221.462, 118976.0
4223.390, 118887.6
4225.318, 118672.5
4227.247, 118460.5
4229.176, 118291.0
4231.104, 118202.0
4233.032, 118178.3
4234.961, 118196.6
4236.890, 118181.8
4238.818, 118119.7
4240.746, 117925.5
4242.675, 117673.0
##END=



