##NAMES=Eosphorite
##RRUFFID=R061055
##IDEAL CHEMISTRY=Mn^2+^Al(PO_4_)(OH)_2_·H_2_O
##LOCALITY=Mendes Pimental Pegmatite, Minas Gerais, Brazil
##OWNER=RRUFF
##SOURCE=Royal Ontario Museum
##DESCRIPTION=Brown pyramidal crystal
##STATUS=The identification of this mineral has been confirmed by X-ray diffraction and chemical analysis
##URL=https://www.rruff.net/odr/rruff_sample/R061055
##MEASURED CHEMISTRY=(Mn^2+^_0.78_Fe_0.21_Ca_0.01_)Al_1.00_P_1.00_O_4_((OH)_1.85_F_0.15_)·H_2_O ; H_2_O estimated by difference  OH by charge balance
##DIFFRACTION SAMPLE DESCRIPTION=Powder
##CELL PARAMETERS=a: 6.9235 b: 10.445 c: 13.484 alpha: 90 beta: 90 gamma: 90 volume: 975.1 crystal system: orthorhombic
##FILETYPE=Raman RAW
##RAMAN WAVELENGTH=785

173.5632, 2374.130
175.4917, 2384.210
177.4202, 2383.074
179.3486, 2378.164
181.2771, 2388.613
183.2056, 2413.950
185.1340, 2451.615
187.0625, 2509.328
188.9910, 2567.214
190.9194, 2618.580
192.8479, 2666.409
194.7764, 2715.522
196.7048, 2764.650
198.6333, 2807.934
200.5618, 2847.282
202.4902, 2872.753
204.4187, 2876.996
206.3472, 2872.478
208.2757, 2862.640
210.2041, 2849.436
212.1326, 2835.583
214.0611, 2821.086
215.9895, 2813.763
217.9180, 2819.227
219.8465, 2824.271
221.7749, 2832.390
223.7034, 2832.335
225.6319, 2805.725
227.5603, 2761.911
229.4888, 2736.305
231.4173, 2733.657
233.3457, 2721.827
235.2742, 2682.712
237.2027, 2646.363
239.1311, 2621.130
241.0596, 2604.643
242.9881, 2596.658
244.9165, 2595.360
246.8450, 2592.659
248.7735, 2586.439
250.7019, 2584.406
252.6304, 2596.666
254.5589, 2603.280
256.4873, 2598.145
258.4158, 2579.872
260.3442, 2540.068
262.2727, 2483.090
264.2012, 2435.890
266.1296, 2401.850
268.0581, 2376.667
269.9866, 2359.054
271.9150, 2349.301
273.8435, 2351.341
275.7720, 2359.747
277.7004, 2364.916
279.6289, 2367.454
281.5574, 2372.702
283.4858, 2379.355
285.4143, 2393.565
287.3428, 2425.660
289.2712, 2454.469
291.1997, 2457.619
293.1282, 2455.510
295.0566, 2486.116
296.9851, 2544.292
298.9136, 2586.847
300.8420, 2604.939
302.7705, 2617.375
304.6990, 2631.142
306.6274, 2636.389
308.5559, 2624.625
310.4844, 2603.392
312.4128, 2584.641
314.3413, 2566.655
316.2698, 2537.723
318.1982, 2490.023
320.1267, 2451.581
322.0552, 2430.232
323.9836, 2412.761
325.9121, 2392.425
327.8406, 2374.530
329.7691, 2369.219
331.6975, 2370.945
333.6260, 2361.258
335.5545, 2335.361
337.4829, 2317.230
339.4114, 2316.451
341.3399, 2314.747
343.2683, 2304.830
345.1968, 2295.356
347.1253, 2295.697
349.0537, 2300.511
350.9822, 2300.296
352.9107, 2294.667
354.8391, 2286.418
356.7676, 2272.769
358.6961, 2261.076
360.6245, 2250.631
362.5530, 2243.992
364.4815, 2243.124
366.4099, 2246.618
368.3384, 2255.545
370.2669, 2267.536
372.1953, 2270.023
374.1238, 2256.456
376.0523, 2253.957
377.9807, 2271.760
379.9092, 2289.652
381.8377, 2303.906
383.7661, 2315.474
385.6946, 2318.039
387.6231, 2322.177
389.5515, 2348.309
391.4800, 2395.987
393.4085, 2433.129
395.3369, 2452.370
397.2654, 2471.808
399.1939, 2498.351
401.1223, 2516.983
403.0508, 2518.674
404.9793, 2513.282
406.9077, 2508.503
408.8362, 2503.197
410.7647, 2494.091
412.6931, 2480.738
414.6216, 2470.659
416.5501, 2466.691
418.4785, 2462.285
420.4070, 2454.470
422.3355, 2449.784
424.2639, 2454.531
426.1924, 2459.860
428.1209, 2458.199
430.0493, 2451.755
431.9778, 2443.560
433.9063, 2432.696
435.8347, 2430.287
437.7632, 2445.416
439.6917, 2454.635
441.6201, 2444.760
443.5486, 2446.543
445.4771, 2476.021
447.4055, 2515.537
449.3340, 2553.252
451.2625, 2590.960
453.1909, 2630.261
455.1194, 2670.972
457.0479, 2723.439
458.9763, 2804.994
460.9048, 2860.309
462.8333, 2887.281
464.7617, 2892.544
466.6902, 2879.505
468.6187, 2843.593
470.5471, 2770.737
472.4756, 2681.357
474.4041, 2589.593
476.3326, 2499.496
478.2610, 2431.571
480.1895, 2391.085
482.1180, 2347.508
484.0464, 2296.995
485.9749, 2251.495
487.9034, 2207.240
489.8318, 2177.202
491.7603, 2175.965
493.6888, 2181.208
495.6172, 2178.661
497.5457, 2171.116
499.4742, 2162.713
501.4026, 2153.389
503.3311, 2142.375
505.2596, 2130.048
507.1880, 2113.040
509.1165, 2087.296
511.0450, 2066.905
512.9734, 2058.768
514.9019, 2049.374
516.8303, 2029.359
518.7588, 2008.845
520.6873, 1993.579
522.6157, 1983.847
524.5442, 1981.785
526.4727, 1986.470
528.4011, 1988.645
530.3296, 1986.859
532.2581, 1989.792
534.1865, 1999.733
536.1150, 2007.097
538.0435, 2010.734
539.9719, 2009.577
541.9004, 1994.973
543.8289, 1985.564
545.7573, 1992.496
547.6858, 2011.586
549.6143, 2039.978
551.5427, 2075.927
553.4712, 2116.626
555.3997, 2163.455
557.3281, 2189.489
559.2566, 2191.870
561.1851, 2189.572
563.1135, 2182.916
565.0420, 2177.112
566.9705, 2171.955
568.8989, 2171.114
570.8274, 2172.216
572.7559, 2182.712
574.6843, 2204.049
576.6129, 2241.376
578.5413, 2297.775
580.4698, 2376.975
582.3983, 2499.379
584.3267, 2666.357
586.2552, 2867.826
588.1837, 3114.569
590.1121, 3330.767
592.0406, 3516.273
593.9691, 3633.890
595.8975, 3671.815
597.8260, 3637.039
599.7545, 3503.469
601.6829, 3336.396
603.6114, 3161.275
605.5399, 2995.105
607.4683, 2863.595
609.3968, 2760.073
611.3253, 2664.998
613.2537, 2578.649
615.1822, 2502.420
617.1107, 2436.084
619.0391, 2388.097
620.9676, 2366.479
622.8961, 2327.789
624.8245, 2247.958
626.7530, 2180.623
628.6815, 2154.979
630.6099, 2134.676
632.5384, 2105.546
634.4669, 2073.313
636.3953, 2041.384
638.3238, 2010.394
640.2523, 1980.454
642.1807, 1952.578
644.1092, 1932.621
646.0377, 1918.691
647.9661, 1894.412
649.8946, 1859.261
651.8231, 1829.339
653.7515, 1806.068
655.6800, 1790.213
657.6085, 1788.094
659.5369, 1777.883
661.4654, 1741.620
663.3939, 1712.003
665.3223, 1703.035
667.2508, 1701.027
669.1793, 1704.954
671.1077, 1704.432
673.0362, 1683.000
674.9647, 1652.893
676.8931, 1635.390
678.8216, 1627.439
680.7501, 1618.187
682.6785, 1608.683
684.6070, 1608.697
686.5355, 1618.648
688.4639, 1615.672
690.3924, 1594.780
692.3209, 1575.799
694.2493, 1562.061
696.1778, 1550.694
698.1063, 1540.076
700.0347, 1533.345
701.9632, 1532.139
703.8917, 1533.877
705.8201, 1543.053
707.7486, 1548.015
709.6771, 1534.291
711.6055, 1516.060
713.5340, 1511.128
715.4625, 1512.675
717.3909, 1508.232
719.3194, 1500.508
721.2479, 1497.420
723.1763, 1497.642
725.1048, 1492.618
727.0333, 1482.206
728.9617, 1474.623
730.8902, 1470.835
732.8187, 1468.163
734.7471, 1468.228
736.6756, 1463.799
738.6041, 1444.598
740.5325, 1435.964
742.4610, 1451.257
744.3895, 1463.204
746.3179, 1464.225
748.2464, 1458.807
750.1749, 1440.676
752.1033, 1427.201
754.0318, 1438.185
755.9603, 1452.478
757.8887, 1446.535
759.8172, 1433.035
761.7457, 1428.114
763.6741, 1428.290
765.6026, 1428.781
767.5311, 1429.171
769.4595, 1428.263
771.3880, 1426.345
773.3165, 1424.789
775.2449, 1423.744
777.1734, 1424.027
779.1019, 1426.318
781.0303, 1425.958
782.9588, 1420.940
784.8873, 1418.073
786.8157, 1417.911
788.7442, 1419.466
790.6727, 1428.741
792.6011, 1429.284
794.5296, 1409.105
796.4581, 1394.918
798.3865, 1397.609
800.3150, 1402.502
802.2435, 1404.391
804.1719, 1405.704
806.1004, 1410.033
808.0289, 1411.305
809.9573, 1397.853
811.8858, 1387.505
813.8143, 1405.594
815.7427, 1425.857
817.6712, 1418.565
819.5997, 1398.762
821.5281, 1383.657
823.4566, 1373.841
825.3851, 1370.744
827.3135, 1373.704
829.2420, 1384.491
831.1705, 1399.880
833.0989, 1398.635
835.0274, 1382.147
836.9559, 1380.019
838.8843, 1393.391
840.8128, 1400.761
842.7413, 1400.640
844.6697, 1403.281
846.5982, 1409.098
848.5267, 1416.349
850.4551, 1427.608
852.3836, 1432.171
854.3121, 1426.934
856.2405, 1423.157
858.1690, 1421.690
860.0975, 1422.215
862.0259, 1424.753
863.9544, 1429.630
865.8829, 1438.033
867.8113, 1446.379
869.7398, 1455.233
871.6683, 1460.360
873.5967, 1460.234
875.5252, 1455.610
877.4537, 1439.910
879.3821, 1433.377
881.3106, 1454.104
883.2391, 1470.931
885.1675, 1464.970
887.0960, 1454.204
889.0245, 1447.702
890.9529, 1441.875
892.8814, 1436.601
894.8099, 1428.847
896.7383, 1411.296
898.6668, 1396.648
900.5953, 1397.035
902.5237, 1403.078
904.4522, 1405.824
906.3807, 1409.588
908.3091, 1423.088
910.2376, 1436.245
912.1661, 1434.846
914.0945, 1426.992
916.0230, 1421.288
917.9515, 1418.846
919.8799, 1422.479
921.8084, 1429.915
923.7369, 1437.302
925.6653, 1445.477
927.5938, 1457.538
929.5223, 1470.882
931.4507, 1476.385
933.3792, 1480.091
935.3077, 1497.447
937.2361, 1525.205
939.1646, 1556.490
941.0931, 1589.623
943.0215, 1613.640
944.9500, 1636.423
946.8785, 1680.879
948.8069, 1748.976
950.7354, 1839.417
952.6639, 1960.904
954.5923, 2135.713
956.5208, 2374.027
958.4493, 2741.591
960.3777, 3213.490
962.3062, 3722.221
964.2347, 4230.755
966.1631, 4582.688
968.0916, 4765.783
970.0201, 4674.191
971.9485, 4351.648
973.8770, 3986.554
975.8055, 3597.943
977.7339, 3272.637
979.6624, 3010.063
981.5909, 2809.604
983.5193, 2665.025
985.4478, 2553.111
987.3763, 2470.364
989.3047, 2400.811
991.2332, 2346.615
993.1617, 2320.182
995.0901, 2318.982
997.0186, 2336.842
998.9471, 2368.336
1000.876, 2387.205
1002.804, 2400.475
1004.732, 2445.867
1006.661, 2511.526
1008.589, 2558.832
1010.518, 2582.634
1012.446, 2565.003
1014.375, 2511.219
1016.303, 2432.173
1018.232, 2334.827
1020.160, 2235.110
1022.089, 2136.550
1024.017, 2043.476
1025.946, 1961.760
1027.874, 1909.421
1029.802, 1879.213
1031.731, 1859.733
1033.659, 1845.075
1035.588, 1822.739
1037.516, 1795.406
1039.445, 1766.059
1041.373, 1737.266
1043.302, 1710.907
1045.230, 1690.335
1047.159, 1685.915
1049.087, 1686.914
1051.016, 1679.551
1052.944, 1665.961
1054.873, 1646.301
1056.801, 1624.828
1058.729, 1609.736
1060.658, 1592.407
1062.586, 1560.110
1064.515, 1524.332
1066.443, 1493.881
1068.372, 1468.202
1070.300, 1447.023
1072.229, 1430.125
1074.157, 1420.835
1076.086, 1410.954
1078.014, 1392.888
1079.943, 1374.938
1081.871, 1360.729
1083.800, 1350.331
1085.728, 1345.343
1087.657, 1341.718
1089.585, 1335.354
1091.514, 1333.770
1093.442, 1343.805
1095.370, 1352.325
1097.299, 1354.055
1099.227, 1356.319
1101.156, 1360.657
1103.084, 1366.510
1105.013, 1378.853
1106.941, 1380.790
1108.870, 1362.719
1110.798, 1352.084
1112.727, 1356.464
1114.655, 1353.650
1116.584, 1341.946
1118.512, 1323.416
1120.441, 1292.957
1122.369, 1284.751
1124.297, 1302.899
1126.226, 1299.401
1128.154, 1274.561
1130.083, 1265.370
1132.011, 1269.547
1133.940, 1265.189
1135.868, 1254.495
1137.797, 1245.913
1139.725, 1240.375
1141.654, 1243.599
1143.582, 1249.934
1145.511, 1249.690
1147.439, 1243.529
1149.368, 1227.925
1151.296, 1211.972
1153.224, 1205.339
1155.153, 1203.835
1157.081, 1210.530
1159.010, 1211.723
1160.938, 1191.668
1162.867, 1176.635
1164.795, 1181.651
1166.724, 1190.059
1168.652, 1200.199
1170.581, 1198.188
1172.509, 1174.324
1174.438, 1157.540
1176.366, 1155.815
1178.295, 1155.958
1180.223, 1156.264
1182.151, 1153.149
1184.080, 1145.792
1186.008, 1144.212
1187.937, 1148.961
1189.865, 1150.087
1191.794, 1147.583
1193.722, 1144.141
1195.651, 1139.667
1197.579, 1131.690
1199.508, 1123.445
1201.436, 1125.602
1203.365, 1130.408
1205.293, 1123.120
1207.222, 1113.309
1209.150, 1112.156
1211.078, 1113.294
1213.007, 1112.068
1214.935, 1110.441
1216.864, 1107.991
1218.792, 1108.029
1220.721, 1113.205
1222.649, 1117.873
1224.578, 1122.193
1226.506, 1120.098
1228.435, 1109.087
1230.363, 1102.630
1232.292, 1102.548
1234.220, 1095.938
1236.149, 1083.659
1238.077, 1090.159
1240.005, 1110.454
1241.934, 1117.008
1243.862, 1112.361
1245.791, 1099.398
1247.719, 1085.910
1249.648, 1088.126
1251.576, 1093.211
1253.505, 1086.297
1255.433, 1076.898
1257.362, 1068.509
1259.290, 1065.820
1261.219, 1075.251
1263.147, 1083.623
1265.076, 1088.621
1267.004, 1088.387
1268.932, 1079.900
1270.861, 1077.514
1272.789, 1083.098
1274.718, 1085.547
1276.646, 1084.234
1278.575, 1075.537
1280.503, 1063.474
1282.432, 1062.733
1284.360, 1069.731
1286.289, 1081.707
1288.217, 1091.332
1290.146, 1089.697
1292.074, 1082.080
1294.003, 1068.733
1295.931, 1057.039
1297.859, 1050.316
1299.788, 1046.806
1301.716, 1044.789
1303.645, 1049.036
1305.573, 1065.248
1307.502, 1070.473
1309.430, 1063.061
1311.359, 1057.458
1313.287, 1053.969
1315.216, 1055.100
1317.144, 1058.330
1319.073, 1055.941
1321.001, 1052.570
1322.930, 1055.039
1324.858, 1057.820
1326.786, 1055.927
1328.715, 1054.345
1330.643, 1056.239
1332.572, 1057.065
1334.500, 1055.969
1336.429, 1052.109
1338.357, 1043.564
1340.286, 1039.626
1342.214, 1040.391
1344.143, 1038.020
1346.071, 1033.172
1348.000, 1026.832
1349.928, 1021.300
1351.857, 1020.891
1353.785, 1023.070
1355.714, 1028.924
1357.642, 1030.223
1359.570, 1020.644
1361.499, 1011.151
1363.427, 1003.352
1365.356, 1005.470
1367.284, 1022.333
1369.213, 1021.009
1371.141, 1001.904
1373.070, 997.3752
1374.998, 1004.096
1376.927, 1016.322
1378.855, 1027.014
1380.784, 1024.208
1382.712, 1017.024
1384.641, 1009.516
1386.569, 1005.526
1388.497, 1008.723
1390.426, 1006.300
1392.354, 993.2840
1394.283, 997.1887
1396.211, 1020.476
1398.140, 1021.155
1400.068, 1004.488
1401.997, 990.4123
1403.925, 982.6107
1405.854, 991.9824
1407.782, 1004.844
1409.711, 1015.913
1411.639, 1013.535
1413.568, 984.8314
1415.496, 969.4416
1417.424, 976.9854
1419.353, 983.6974
1421.281, 986.5298
1423.210, 977.5196
1425.138, 962.3203
1427.067, 960.2852
1428.995, 966.4592
1430.924, 981.3765
1432.852, 989.3777
1434.781, 970.3212
1436.709, 955.7339
1438.638, 957.0158
1440.566, 958.2031
1442.495, 957.3099
1444.423, 951.6888
1446.351, 943.2019
1448.280, 945.2789
1450.208, 952.9496
1452.137, 956.0581
1454.065, 957.8361
1455.994, 964.8146
1457.922, 966.1418
1459.851, 949.9989
1461.779, 939.9292
1463.708, 940.4149
1465.636, 941.6631
1467.565, 942.9731
1469.493, 945.1382
1471.422, 946.8589
1473.350, 946.2627
1475.278, 941.8018
1477.207, 926.1119
1479.135, 915.2711
1481.064, 924.0415
1482.992, 927.6700
1484.921, 919.6110
1486.849, 911.8333
1488.778, 905.1110
1490.706, 909.9768
1492.635, 921.0629
1494.563, 927.5917
1496.492, 928.1519
1498.420, 914.9093
1500.349, 906.2841
1502.277, 919.8917
1504.205, 921.4039
1506.134, 896.2616
1508.062, 893.0140
1509.991, 909.3487
1511.919, 914.3783
1513.848, 912.6453
1515.776, 911.1893
1517.705, 910.3486
1519.633, 912.0548
1521.562, 910.6942
1523.490, 901.3367
1525.419, 898.6885
1527.347, 905.7188
1529.276, 899.0040
1531.204, 883.6381
1533.132, 875.5732
1535.061, 875.8728
1536.989, 892.6257
1538.918, 904.1457
1540.846, 899.5402
1542.775, 888.5955
1544.703, 870.2878
1546.632, 869.6439
1548.560, 883.4193
1550.489, 886.5350
1552.417, 883.6440
1554.346, 882.2571
1556.274, 878.1042
1558.203, 866.4779
1560.131, 859.0651
1562.059, 859.2958
1563.988, 861.3708
1565.916, 864.4195
1567.845, 864.8923
1569.773, 863.2809
1571.702, 857.9667
1573.630, 855.2606
1575.559, 863.9541
1577.487, 861.0812
1579.416, 837.8872
1581.344, 833.9398
1583.273, 850.2641
1585.201, 853.9833
1587.130, 849.4941
1589.058, 838.6285
1590.986, 834.1653
1592.915, 854.2021
1594.843, 858.4630
1596.772, 836.4594
1598.700, 826.7612
1600.629, 830.5847
1602.557, 831.7352
1604.486, 832.5720
1606.414, 841.3464
1608.343, 844.6868
1610.271, 828.4592
1612.200, 820.7474
1614.128, 826.1661
1616.057, 828.8861
1617.985, 827.5620
1619.913, 819.2472
1621.842, 811.1552
1623.770, 814.1003
1625.699, 816.6051
1627.627, 813.1364
1629.556, 810.1953
1631.484, 808.3721
1633.413, 808.4648
1635.341, 807.3701
1637.270, 792.2681
1639.198, 782.1665
1641.127, 799.2085
1643.055, 812.9243
1644.984, 815.5358
1646.912, 817.8622
1648.840, 819.0868
1650.769, 805.3883
1652.697, 792.5923
1654.626, 806.8292
1656.554, 819.4825
1658.483, 815.0316
1660.411, 807.0433
1662.340, 796.4483
1664.268, 790.5991
1666.197, 789.1337
1668.125, 795.0320
1670.054, 797.8748
1671.982, 783.6161
1673.911, 779.0327
1675.839, 795.1164
1677.767, 802.0721
1679.696, 800.3030
1681.624, 784.3047
1683.553, 771.0026
1685.481, 778.0328
1687.410, 788.2841
1689.338, 799.2835
1691.267, 797.1113
1693.195, 783.6655
1695.124, 776.6028
1697.052, 776.7510
1698.981, 791.1530
1700.909, 798.4784
1702.838, 786.5338
1704.766, 781.1732
1706.694, 784.3091
1708.623, 780.5983
1710.551, 774.5237
1712.480, 775.9871
1714.408, 773.2214
1716.337, 758.0289
1718.265, 754.5959
1720.194, 766.3310
1722.122, 772.5676
1724.051, 772.9819
1725.979, 761.5217
1727.908, 753.5317
1729.836, 756.1188
1731.765, 763.9741
1733.693, 775.3749
1735.621, 769.6576
1737.550, 757.0527
1739.478, 756.9075
1741.407, 758.0282
1743.335, 755.3644
1745.264, 753.0632
1747.192, 751.5952
1749.121, 747.3572
1751.049, 744.2150
1752.978, 752.2699
1754.906, 757.1578
1756.835, 751.6329
1758.763, 751.2776
1760.692, 756.3928
1762.620, 754.4771
1764.548, 748.8512
1766.477, 739.4862
1768.405, 739.3343
1770.334, 755.7924
1772.262, 755.9266
1774.191, 741.8254
1776.119, 739.2678
1778.048, 738.6284
1779.976, 724.5625
1781.905, 718.3381
1783.833, 725.3737
1785.762, 735.8687
1787.690, 745.5967
1789.619, 741.3917
1791.547, 734.6165
1793.475, 733.5514
1795.404, 735.9278
1797.332, 741.7856
1799.261, 729.2324
1801.189, 712.3737
1803.118, 723.5217
1805.046, 734.9547
1806.975, 729.9471
1808.903, 722.5900
1810.832, 714.3396
1812.760, 714.7706
1814.689, 719.1376
1816.617, 722.8618
1818.546, 723.2362
1820.474, 719.0893
1822.402, 710.2109
1824.331, 700.6263
1826.259, 706.5315
1828.188, 712.4567
1830.116, 708.2665
1832.045, 705.0201
1833.973, 703.5945
1835.902, 709.9028
1837.830, 714.7847
1839.759, 701.7980
1841.687, 693.5491
1843.616, 699.5533
1845.544, 704.3079
1847.473, 706.5430
1849.401, 697.7972
1851.329, 688.1973
1853.258, 684.3228
1855.186, 686.8724
1857.115, 694.9481
1859.043, 693.3474
1860.972, 687.8699
1862.900, 683.3236
1864.829, 680.4665
1866.757, 679.9950
1868.686, 679.3828
1870.614, 677.5612
1872.543, 667.1852
1874.471, 657.8875
1876.400, 655.3605
1878.328, 658.0731
1880.256, 665.4533
1882.185, 674.9891
1884.113, 678.9213
1886.042, 664.0153
1887.970, 661.8175
1889.899, 677.7162
1891.827, 672.2296
1893.756, 655.0021
1895.684, 643.4957
1897.613, 643.7097
1899.541, 656.8576
1901.470, 653.0867
1903.398, 637.8731
1905.327, 626.7495
1907.255, 625.7219
1909.183, 641.9913
1911.112, 642.4455
1913.040, 630.0923
1914.969, 634.2571
1916.897, 638.8914
1918.826, 629.1816
1920.754, 625.6160
1922.683, 628.8896
1924.611, 620.2070
1926.540, 610.0378
1928.468, 616.6348
1930.397, 620.7701
1932.325, 617.9664
1934.254, 614.9615
1936.182, 611.0160
1938.110, 606.1588
1940.039, 602.5507
1941.967, 598.1940
1943.896, 594.4178
1945.824, 593.2171
1947.753, 592.9890
1949.681, 593.5908
1951.610, 599.6142
1953.538, 599.8988
1955.467, 594.4429
1957.395, 588.2285
1959.324, 581.4859
1961.252, 568.1634
1963.181, 569.0397
1965.109, 581.0935
1967.037, 583.1760
1968.966, 581.7456
1970.894, 581.6323
1972.823, 568.4750
1974.751, 549.3345
1976.680, 560.6164
1978.608, 577.3466
1980.537, 585.7504
1982.465, 576.8661
1984.394, 559.0301
1986.322, 556.8757
1988.251, 557.2063
1990.179, 559.9790
1992.108, 558.2092
1994.036, 548.7526
1995.964, 551.4239
1997.893, 551.1268
1999.821, 535.5609
2001.750, 529.6625
2003.678, 531.6799
2005.607, 534.4409
2007.535, 537.0708
2009.464, 537.3605
2011.392, 533.5154
2013.321, 528.1857
2015.249, 534.5991
2017.178, 533.7737
2019.106, 518.2613
2021.035, 521.7742
2022.963, 531.5906
2024.891, 507.9867
2026.820, 493.3746
2028.748, 504.6758
2030.677, 512.5701
2032.605, 510.0931
2034.534, 495.1180
2036.462, 491.3716
2038.391, 502.8072
2040.319, 499.6920
2042.248, 489.5872
2044.176, 486.3658
2046.105, 484.3918
2048.033, 481.3275
2049.961, 480.3629
2051.890, 481.5144
2053.818, 481.8979
2055.747, 480.4684
2057.676, 479.0466
2059.604, 477.6645
2061.532, 473.3356
2063.461, 465.3910
2065.389, 465.6192
2067.318, 471.8060
2069.246, 464.4433
2071.175, 456.5964
2073.103, 453.0809
2075.032, 450.8593
2076.960, 453.4467
2078.889, 456.0877
2080.817, 454.2337
2082.746, 455.6628
2084.674, 433.4077
2086.603, 406.4911
2088.531, 424.0535
2090.459, 438.8969
2092.388, 438.6631
2094.316, 428.4832
2096.245, 419.6896
2098.173, 429.8777
2100.102, 435.5900
2102.030, 432.5265
2103.959, 422.3021
2105.887, 412.7747
2107.816, 410.0677
2109.744, 411.2182
2111.673, 414.0002
2113.601, 418.9377
2115.530, 419.2522
2117.458, 409.5551
2119.386, 405.7782
2121.315, 405.0108
2123.243, 401.7277
2125.172, 395.5869
2127.100, 388.0616
2129.029, 397.4742
2130.957, 403.3844
2132.886, 386.3546
2134.814, 382.3189
2136.743, 389.6466
2138.671, 389.9674
2140.600, 387.6743
2142.528, 384.3353
2144.457, 378.1613
2146.385, 372.5682
2148.313, 373.3176
2150.242, 370.9028
2152.170, 364.9211
2154.099, 369.1299
2156.027, 372.1323
2157.956, 362.3251
2159.884, 365.9523
2161.813, 375.5997
2163.741, 366.1505
2165.670, 360.1561
2167.598, 363.7343
2169.527, 355.6018
2171.455, 345.5238
2173.384, 344.5518
2175.312, 351.8390
2177.240, 360.9122
2179.169, 355.8089
2181.097, 348.8539
2183.026, 343.2822
2184.954, 349.1530
2186.883, 356.0584
2188.811, 350.8263
2190.740, 341.4809
2192.668, 330.8822
2194.597, 329.8054
2196.525, 333.6189
2198.454, 340.7779
2200.382, 340.1712
2202.311, 335.5500
2204.239, 330.4166
2206.167, 327.7400
2208.096, 326.9804
2210.024, 325.2032
2211.953, 323.6785
2213.881, 323.3621
2215.810, 324.0542
2217.738, 323.6898
2219.667, 319.2345
2221.595, 316.0756
2223.524, 314.0510
2225.452, 305.4950
2227.381, 300.1911
2229.309, 302.8556
2231.238, 300.4146
2233.166, 295.8990
2235.094, 291.9763
2237.023, 290.8189
2238.951, 291.6519
2240.880, 290.7868
2242.808, 289.2935
2244.737, 286.8320
2246.665, 288.4529
2248.594, 289.6336
2250.522, 285.8105
2252.451, 282.0275
2254.379, 280.3584
2256.308, 283.4483
2258.236, 283.4735
2260.165, 280.8691
2262.093, 284.5162
2264.021, 285.8462
2265.950, 279.9200
2267.878, 282.5228
2269.807, 286.3227
2271.735, 274.5150
2273.664, 271.6379
2275.592, 275.7784
2277.521, 269.7042
2279.449, 268.5027
2281.378, 274.7308
2283.306, 268.4944
2285.235, 262.0060
2287.163, 267.2344
2289.092, 266.6475
2291.020, 262.6403
2292.948, 264.1518
2294.877, 262.1550
2296.805, 257.4454
2298.734, 256.2665
2300.662, 254.0157
2302.591, 248.9199
2304.519, 250.9162
2306.448, 251.9549
2308.376, 246.0049
2310.305, 241.8624
2312.233, 243.0366
2314.162, 251.0584
2316.090, 253.5917
2318.019, 252.2418
2319.947, 254.0827
2321.875, 253.0347
2323.804, 250.3910
2325.732, 250.9730
2327.661, 251.3470
2329.589, 247.8008
2331.518, 242.0557
2333.446, 237.9466
2335.375, 244.8903
2337.303, 244.1635
2339.232, 234.4197
2341.160, 231.1646
2343.089, 226.5099
2345.017, 218.8497
2346.946, 224.0001
2348.874, 231.4508
2350.802, 231.2063
2352.731, 226.6024
2354.659, 224.5741
2356.588, 227.1441
2358.516, 222.2134
2360.445, 217.7770
2362.373, 224.5686
2364.302, 225.8740
2366.230, 222.6491
2368.159, 218.2348
2370.087, 217.6311
2372.016, 221.9198
2373.944, 221.6650
2375.873, 222.0530
2377.801, 220.4155
2379.729, 210.1762
2381.658, 203.3102
2383.586, 205.7957
2385.515, 203.8624
2387.443, 201.9145
2389.372, 210.2142
2391.300, 220.3823
2393.229, 222.5500
2395.157, 208.1301
2397.086, 202.5180
2399.014, 207.6921
2400.943, 212.4565
2402.871, 210.5317
2404.800, 204.5993
2406.728, 203.6313
2408.656, 202.5943
2410.585, 193.7092
2412.513, 196.9173
2414.442, 204.9471
2416.370, 201.8187
2418.299, 199.4266
2420.227, 199.3055
2422.156, 196.0666
2424.084, 200.4568
2426.013, 202.5284
2427.941, 197.5207
2429.870, 193.5936
2431.798, 189.5171
2433.727, 186.4596
2435.655, 183.4495
2437.583, 184.8167
2439.512, 190.2603
2441.440, 191.1029
2443.369, 189.5391
2445.297, 187.1484
2447.226, 183.8744
2449.154, 182.9653
2451.083, 175.3900
2453.011, 175.0170
2454.940, 184.0906
2456.868, 175.5338
2458.797, 172.8647
2460.725, 180.3709
2462.654, 182.0359
2464.582, 179.5635
2466.510, 176.4760
2468.439, 172.6987
2470.367, 171.1054
2472.296, 172.7563
2474.224, 167.9228
2476.153, 161.6273
2478.081, 167.7963
2480.010, 167.6905
2481.938, 162.4884
2483.867, 166.3669
2485.795, 168.4322
2487.724, 162.2143
2489.652, 164.2666
2491.581, 170.9625
2493.509, 172.7625
2495.438, 163.4430
2497.366, 159.3090
2499.294, 156.5012
2501.223, 163.2842
2503.151, 164.3873
2505.080, 158.9008
2507.008, 164.2717
2508.937, 165.0627
2510.865, 156.3933
2512.794, 153.0646
2514.722, 161.0826
2516.651, 160.2356
2518.579, 152.9781
2520.508, 156.6541
2522.436, 154.5502
2524.365, 151.5983
2526.293, 156.9207
2528.221, 156.6564
2530.150, 148.2191
2532.078, 147.9934
2534.007, 152.6189
2535.935, 145.9408
2537.864, 150.7041
2539.792, 154.3763
2541.721, 137.6876
2543.649, 139.8402
2545.578, 152.6149
2547.506, 149.5356
2549.435, 140.0669
2551.363, 139.7920
2553.292, 146.6727
2555.220, 140.6407
2557.148, 138.2119
2559.077, 143.3230
2561.005, 141.6557
2562.934, 140.7419
2564.862, 141.4873
2566.791, 140.0459
2568.719, 138.6184
2570.648, 138.1276
2572.576, 138.4316
2574.505, 134.8811
2576.433, 137.1813
2578.362, 135.1597
2580.290, 128.9418
2582.219, 128.6021
2584.147, 132.7399
2586.075, 137.3820
2588.004, 137.4955
2589.932, 133.0789
2591.861, 130.5487
2593.789, 129.5106
2595.718, 129.0966
2597.646, 128.3378
2599.575, 126.1973
2601.503, 132.6265
2603.432, 136.1594
2605.360, 129.2996
2607.289, 125.5283
2609.217, 128.7003
2611.146, 130.3964
2613.074, 125.6853
2615.002, 126.9791
2616.931, 126.7264
2618.859, 122.0196
2620.788, 119.0467
2622.716, 115.7993
2624.645, 118.3908
2626.573, 115.4609
2628.502, 110.3621
2630.430, 114.7977
2632.359, 113.5524
2634.287, 110.1762
2636.216, 117.5301
2638.144, 120.1620
2640.073, 119.1556
2642.001, 117.5411
2643.929, 114.1579
2645.858, 113.2390
2647.786, 111.9604
2649.715, 102.7463
2651.643, 101.6712
2653.572, 112.8184
2655.500, 112.0976
2657.429, 108.7549
2659.357, 105.8707
2661.286, 100.4023
2663.214, 93.78568
2665.143, 91.71906
2667.071, 101.7461
2669.000, 103.7969
2670.928, 100.1194
2672.856, 98.75761
2674.785, 98.46622
2676.713, 99.62478
2678.642, 102.5725
2680.570, 99.28413
2682.499, 96.13274
2684.427, 99.14754
2686.356, 98.68852
2688.284, 96.69448
2690.213, 91.58772
2692.141, 92.01093
2694.070, 94.29971
2695.998, 93.34278
2697.927, 91.00109
2699.855, 91.04630
2701.783, 90.44765
2703.712, 93.14378
2705.640, 93.28964
2707.569, 91.11060
2709.497, 90.86910
2711.426, 86.66945
2713.354, 85.28577
2715.283, 91.82206
2717.211, 87.02538
2719.140, 81.95320
2721.068, 81.32649
2722.997, 88.56001
2724.925, 92.08608
2726.854, 90.52198
2728.782, 89.91483
2730.710, 86.11472
2732.639, 80.79761
2734.567, 77.48320
2736.496, 76.37738
2738.424, 76.99729
2740.353, 78.96384
2742.281, 76.29728
2744.210, 77.12495
2746.138, 84.00593
2748.067, 81.11700
2749.995, 78.68898
2751.924, 77.98912
2753.852, 71.80608
2755.781, 73.77032
2757.709, 78.51942
2759.637, 74.68905
2761.566, 75.37447
2763.494, 76.96624
2765.423, 76.20332
2767.351, 73.03931
2769.280, 70.61163
2771.208, 69.72734
2773.137, 69.25243
2775.065, 68.25623
2776.994, 68.56200
2778.922, 74.39123
2780.851, 72.23351
2782.779, 68.23132
2784.708, 69.07455
2786.636, 70.46590
2788.564, 70.28900
2790.493, 67.87899
2792.421, 70.79911
2794.350, 72.04269
2796.278, 70.51104
2798.207, 65.77333
2800.135, 66.47083
2802.064, 66.88357
2803.992, 58.35407
2805.921, 60.10896
2807.849, 65.06772
2809.778, 66.21973
2811.706, 69.05003
2813.635, 67.19298
2815.563, 65.30482
2817.491, 71.40446
2819.420, 65.68295
2821.348, 56.79914
2823.277, 47.83621
2825.205, 53.61510
2827.134, 57.69050
2829.062, 55.99575
2830.991, 54.81419
2832.919, 52.89347
2834.848, 56.02615
2836.776, 53.00022
2838.705, 56.49792
2840.633, 58.63549
2842.562, 51.56909
2844.490, 47.24345
2846.418, 49.65611
2848.347, 50.34427
2850.275, 49.72959
2852.204, 49.06958
2854.132, 49.01076
2856.061, 54.06190
2857.989, 49.92962
2859.918, 71.19466
2861.846, 80.66947
2863.775, 56.17400
2865.703, 51.06350
2867.632, 52.09508
2869.560, 55.90002
2871.489, 47.33995
2873.417, 44.92560
2875.345, 51.72863
2877.274, 46.53730
2879.202, 43.68518
2881.131, 48.95941
2883.059, 52.84400
2884.988, 49.53703
2886.916, 49.71215
2888.845, 47.94762
2890.773, 44.43758
2892.702, 43.00774
2894.630, 44.58521
2896.559, 47.82496
2898.487, 38.14246
2900.416, 32.98765
2902.344, 39.95564
2904.272, 40.94274
2906.201, 39.14954
2908.129, 39.53798
2910.058, 36.90225
2911.986, 33.44770
2913.915, 33.61885
2915.843, 35.60477
2917.772, 40.77341
2919.700, 45.20416
2921.629, 47.02331
2923.557, 36.66051
2925.486, 36.39443
2927.414, 36.73207
2929.343, 29.90825
2931.271, 36.60808
2933.199, 39.65670
2935.128, 38.38344
2937.056, 35.02897
2938.985, 35.89841
2940.913, 37.33054
2942.842, 39.16156
2944.770, 36.09661
2946.699, 41.63477
2948.627, 48.70272
2950.556, 32.25249
2952.484, 31.55285
2954.413, 29.95035
2956.341, 23.26656
2958.270, 28.92415
2960.198, 32.33443
2962.126, 28.92727
2964.055, 28.09721
2965.983, 32.63434
2967.912, 34.37608
2969.840, 35.17873
2971.769, 30.59025
2973.697, 29.13927
2975.626, 25.42856
2977.554, 26.08848
2979.483, 27.12165
2981.411, 24.93492
2983.340, 24.26028
2985.268, 30.42380
2987.197, 27.94266
2989.125, 29.52043
2991.053, 31.34739
2992.982, 29.70003
2994.910, 30.61581
2996.839, 29.49562
2998.767, 32.72760
3000.696, 28.76980
3002.624, 29.79679
3004.553, 29.64328
3006.481, 25.26535
3008.410, 26.88522
3010.338, 26.17584
3012.267, 24.39740
3014.195, 26.17097
3016.124, 28.14444
3018.052, 30.02076
3019.980, 32.45578
3021.909, 28.43605
3023.837, 29.43146
3025.766, 30.31989
3027.694, 23.57310
3029.623, 23.11824
3031.551, 27.37846
3033.480, 29.18967
3035.408, 25.56540
3037.337, 16.80194
3039.265, 17.68294
3041.194, 21.60835
3043.122, 24.90540
3045.051, 26.45400
3046.979, 22.51392
3048.907, 19.03310
3050.836, 21.09280
3052.764, 19.84389
3054.693, 18.77066
3056.621, 17.76089
3058.550, 23.41670
3060.478, 25.61615
3062.407, 22.45984
3064.335, 26.13170
3066.264, 19.33225
3068.192, 15.33117
3070.121, 17.55790
3072.049, 14.89307
3073.978, 14.47396
3075.906, 15.71751
3077.834, 19.54777
3079.763, 14.00883
3081.691, 12.89428
3083.620, 17.39685
3085.548, 20.32425
3087.477, 17.90718
3089.405, 22.63386
3091.334, 23.10098
3093.262, 19.36749
3095.191, 24.15531
3097.119, 21.67834
3099.048, 18.12151
3100.976, 19.82804
3102.905, 15.16635
3104.833, 11.81572
3106.761, 11.06079
3108.690, 12.43462
3110.618, 12.40241
3112.547, 12.16368
3114.475, 15.05590
3116.404, 23.57672
3118.332, 16.39219
3120.261, 13.33419
3122.189, 15.15281
3124.118, 22.28946
3126.046, 19.93693
3127.975, 16.18437
3129.903, 14.16738
3131.832, 22.52976
3133.760, 14.43946
3135.688, 10.55357
3137.617, 10.57414
3139.545, 9.365233
3141.474, 8.590082
3143.402, 10.11526
3145.331, 8.780375
3147.259, 2.745755
3149.188, 7.601556
3151.116, 8.310838
3153.045, 9.844955
3154.973, 15.47510
3156.902, 20.53132
3158.830, 16.97821
3160.759, 10.88954
3162.687, 7.222112
3164.615, 9.330812
3166.544, 9.409131
3168.472, 10.31279
3170.401, 13.63006
3172.329, 11.09672
3174.258, 9.950305
3176.186, 9.157221
3178.115, 9.438018
3180.043, 18.55867
3181.972, 15.79247
3183.900, 8.964553
3185.829, 5.824845
3187.757, 12.33313
3189.686, 10.57765
3191.614, 9.457540
3193.542, 11.31602
3195.471, 12.04503
3197.399, 8.698110
3199.328, 5.898850
3201.256, 4.209505
3203.185, 2.032717
3205.113, 11.46193
3207.042, 13.17370
3208.970, 11.20750
3210.899, 14.68966
3212.827, 7.096275
3214.756, 4.028942
3216.684, 5.540573
3218.613, 8.290595
3220.541, 12.22101
3222.469, 6.486086
3224.398, 4.062274
3226.326, 9.433984
3228.255, 10.65080
3230.183, 10.81563
3232.112, 10.95573
3234.040, 11.51337
3235.969, 12.41660
3237.897, 11.63054
3239.826, 11.82091
3241.754, 12.77820
3243.683, 14.06178
3245.611, -2.954773
3247.540, -0.7224351
3249.468, 5.878190
3251.396, 3.927721
3253.325, 13.33116
3255.253, 10.65052
3257.182, 7.126251
3259.110, 7.759665
3261.039, 14.88337
3262.967, 6.193324
3264.896, 6.276022
3266.824, 10.84424
3268.753, 6.892869
3270.681, 4.422940
3272.610, 9.460893
3274.538, 9.388494
3276.467, 3.756557
3278.395, 6.989948
3280.323, 5.224600
3282.252, 6.638802
3284.180, 7.375947
3286.109, -1.347282
3288.037, 10.70610
3289.966, 15.25679
3291.894, 10.56629
3293.823, 2.657621
3295.751, 14.21557
3297.680, 15.81955
3299.608, 10.38032
3301.537, 6.377327
3303.465, 6.797757
3305.394, 6.848942
3307.322, 3.946624
3309.250, 0.5452766
3311.179, 0.8639722
3313.107, 13.26110
3315.036, 7.669851
3316.964, 0.9039434
3318.893, 0.3639039
3320.821, 2.199404
3322.750, 6.154760
3324.678, 3.450423
3326.607, 1.441886
3328.535, 4.746381
3330.464, 12.22805
3332.392, 12.76434
3334.321, 4.139221
3336.249, -0.8441660
3338.177, 12.06397
3340.106, 1.670882
3342.034, 0.9727303
3343.963, 9.978249
3345.891, 15.52952
3347.820, -8.326667
3349.748, 2.497628
3351.677, 7.285363
3353.605, 4.802501
3355.534, 4.482029
3357.462, 6.952188
3359.391, 3.057289
3361.319, 3.812826
3363.248, 7.318599
3365.176, 6.471921
3367.104, 7.705617
3369.033, 7.880059
3370.961, 3.991512
3372.890, -3.0372320E-02
3374.818, 9.879822
3376.747, 8.295489
3378.675, 11.69769
3380.604, 17.33950
3382.532, 16.84341
3384.461, 3.423046
3386.389, 15.04134
3388.318, 10.69786
3390.246, 1.216505
3392.175, 5.758406
3394.103, 1.553702
3396.031, -3.978593
3397.960, -7.567809
3399.888, -4.000017
3401.817, 9.458373
3403.745, 14.58431
3405.674, 1.677784
3407.602, -4.123591
3409.531, -1.2515880E-02
3411.459, 2.032948
3413.388, 8.109857
3415.316, 8.392806
3417.245, -1.357497
3419.173, -9.497671
3421.102, 1.662970
3423.030, 11.26041
3424.958, 5.805277
3426.887, 2.809934
3428.815, 4.309893
3430.744, -1.393579
3432.672, -1.796880
3434.601, -1.252208
3436.529, -3.289440
3438.458, -4.205474
3440.386, 2.721862
3442.315, -2.319143
3444.243, 4.809231
3446.172, 15.37176
3448.100, 16.95432
3450.029, 3.535259
3451.957, 7.470495
3453.885, 7.507759
3455.814, 3.564232
3457.742, 1.678273
3459.671, 6.396768
3461.599, 0.1832286
3463.528, 5.329326
3465.456, 6.090299
3467.385, 4.739841
3469.313, 12.10851
3471.242, 9.412623
3473.170, 8.498265
3475.099, 2.623521
3477.027, -2.940434
3478.956, -2.705983
3480.884, -9.021098
3482.813, -7.772012
3484.741, -0.9289922
3486.669, 3.731258
3488.598, 2.886306
3490.526, 2.176847
3492.455, -1.663973
3494.383, 1.164472
3496.312, 0.5298817
3498.240, -4.968961
3500.169, -3.787489
3502.097, 5.942601
3504.026, -0.1265337
3505.954, 1.752143
3507.883, 7.153008
3509.811, -0.2580728
3511.740, 9.157981
3513.668, 1.567707
3515.596, -1.397281
3517.525, 1.069049
3519.453, 0.8922479
3521.382, -4.859277
3523.310, -2.545732
3525.239, -4.621496
3527.167, 1.818079
3529.096, 9.114131
3531.024, -2.461960
3532.953, 2.274904
3534.881, 4.331544
3536.810, 4.491083
3538.738, 3.972029
3540.667, 1.953180
3542.595, -6.097968
3544.523, 3.997654
3546.452, -1.895712
3548.380, -3.837317
3550.309, 5.435139
3552.237, 11.54105
3554.166, -2.436449
3556.094, -1.298564
3558.023, 5.555208
3559.951, 9.271612
3561.880, 8.517182
3563.808, 9.523335
3565.737, 3.322422
3567.665, 2.498603
3569.594, 8.721450
3571.522, 8.570566
3573.450, -5.259728
3575.379, -4.998268
3577.307, 7.657669
3579.236, 4.867788
3581.164, -1.038256
3583.093, -0.5106304
3585.021, 2.562530
3586.950, -4.288893
3588.878, 2.238927
3590.807, -0.3888932
3592.735, -2.268950
3594.664, -0.3356895
3596.592, -9.199622
3598.521, -15.57480
3600.449, -9.263199
3602.377, 3.3915069E-02
3604.306, 6.156680
3606.234, 5.396533
3608.163, -3.871129
3610.091, 4.5672629E-02
3612.020, -3.696361
3613.948, -1.330903
3615.877, -3.534747
3617.805, -10.79561
3619.734, 2.280619
3621.662, -1.790715
3623.591, -4.185040
3625.519, -4.495790
3627.448, -3.505084
3629.376, -1.635185
3631.304, -6.8784803E-02
3633.233, -1.321980
3635.161, -2.240105
3637.090, -0.7837235
3639.018, -6.219913
3640.947, -13.59623
3642.875, -1.509619
3644.804, 5.750009
3646.732, 3.540198
3648.661, -0.6936545
3650.589, -5.420073
3652.518, -7.026302
3654.446, -0.5751487
3656.375, 3.066356
3658.303, 2.618363
3660.231, -3.849521
3662.160, -1.493193
3664.088, 5.507215
3666.017, 4.813178
3667.945, 6.332402
3669.874, -4.404708
3671.802, 10.00476
3673.731, -1.868416
3675.659, -14.80621
3677.588, -0.9545351
3679.516, 4.708411
3681.445, -3.972742
3683.373, -3.262243
3685.302, -2.412618
3687.230, -4.842165
3689.158, -5.380622
3691.087, -1.382689
3693.015, -7.660616
3694.944, -4.981173
3696.872, -1.249465
3698.801, -3.032280
3700.729, -2.376891
3702.658, 1.368650
3704.586, -4.911630
3706.515, 1.239500
3708.443, -3.791053
3710.372, -5.573532
3712.300, -6.422931
3714.229, -8.339768
3716.157, -7.892512
3718.085, 0.3859300
3720.014, -2.863123
3721.942, 7.022566
3723.871, 7.524498
3725.799, 3.564709
3727.728, -1.4247710E-02
3729.656, -5.375326
3731.585, -0.4835803
3733.513, -2.722791
3735.442, 1.601405
3737.370, -1.048569
3739.299, -2.041502
3741.227, 1.431783
3743.156, 1.730627
3745.084, 5.776663
3747.012, 3.244747
3748.941, -5.839992
3750.869, -6.539835
3752.798, -1.551409
3754.726, -0.3662698
3756.655, -1.662877
3758.583, 16.98143
3760.512, 4.377136
3762.440, 0.3537338
3764.369, 2.405812
3766.297, -1.011777
3768.226, -6.072371
3770.154, -4.960583
3772.083, -5.839219
3774.011, -8.426547
3775.939, 3.803216
3777.868, 7.048191
3779.796, 3.657612
3781.725, 3.255334
3783.653, 6.535780
3785.582, 5.413651
3787.510, -12.21867
3789.439, -1.856056
3791.367, 0.4641450
3793.296, 4.980899
3795.224, -1.922258
3797.153, -11.32046
3799.081, 2.343268
3801.010, 2.770832
3802.938, 1.488516
3804.866, 1.701075
3806.795, -7.758739
3808.723, -7.111790
3810.652, -4.227176
3812.580, -8.268757
3814.509, -3.186097
3816.437, -1.899536
3818.366, 5.397543
3820.294, 2.988732
3822.223, 1.358663
3824.151, -1.400543
3826.080, -4.155813
3828.008, -4.044946
3829.937, -4.228812
3831.865, 2.260892
3833.793, -4.401173
3835.722, 4.849237
3837.650, 3.285529
3839.579, 1.409557
3841.507, 1.468013
3843.436, -5.744120
3845.364, -12.72935
3847.293, -11.37847
3849.221, -0.5355663
3851.150, -0.8322777
3853.078, 2.284328
3855.007, 3.123610
3856.935, 1.709353
3858.864, 3.450569
3860.792, 5.536249
3862.720, -5.525801
3864.649, -2.173262
3866.577, -1.342254
3868.506, 5.528857
3870.434, 10.51031
3872.363, 4.655499
3874.291, -1.376171
3876.220, 3.731956
3878.148, -0.1532419
3880.077, -4.751318
3882.005, -2.439075
3883.934, 2.500599
3885.862, -2.115239
3887.791, -3.397123
3889.719, 1.831522
3891.647, 3.205475
3893.576, -1.868919
3895.504, 4.969551
3897.433, -7.119393
3899.361, 5.105524
3901.290, -2.546394
3903.218, -2.169569
3905.147, 6.978566
3907.075, 6.764216
3909.004, -2.487334
3910.932, -0.6571773
3912.861, 16.36996
3914.789, -16.44079
3916.718, -5.473392
3918.646, -5.984890
3920.574, -1.535921
3922.503, -1.819418
3924.431, -5.132914
3926.360, -2.496021
3928.288, 2.455914
3930.217, 4.208023
3932.145, -2.978502
3934.074, 1.190326
3936.002, 2.651638
3937.931, -0.9903879
3939.859, 7.310055
3941.788, 5.442061
3943.716, -3.340067
3945.645, 0.8834252
3947.573, 7.018986
3949.501, -4.782409
3951.430, -5.312969
3953.358, -14.45761
3955.287, 4.630829
3957.215, 5.557155
3959.144, -0.9766194
3961.072, -4.415286
3963.001, -5.780703
3964.929, -1.445651
3966.858, 8.692327
3968.786, 3.962033
3970.715, 1.964922
3972.643, 11.11086
3974.572, -8.218597
3976.500, -18.29642
3978.428, -4.932004
3980.357, 5.267101
3982.285, 3.123195
3984.214, 0.6923013
3986.142, 2.415333
3988.071, -0.2588733
3989.999, -10.14282
3991.928, -8.067069
3993.856, -4.583042
3995.785, -7.313687
3997.713, -0.9757734
3999.642, -1.509624
4001.570, -2.945145
4003.499, -2.860429
4005.427, -4.537614
4007.355, -3.182252
4009.284, -3.508866
4011.212, 1.619533
4013.141, -1.928504
4015.069, -13.87197
4016.998, -2.558079
4018.926, 3.570745
4020.855, 3.368083
4022.783, -5.538585
4024.712, -7.413672
4026.640, -6.101810
4028.569, -13.60945
4030.497, -6.463877
4032.426, 4.987562
4034.354, -4.705447
4036.282, -1.689145
4038.211, 8.117172
4040.139, 4.599111
4042.068, -7.341245
4043.996, -10.86364
4045.925, -8.189034
4047.853, -1.925821
4049.782, 3.316438
4051.710, 5.780650
4053.639, 10.67882
4055.567, 1.795132
4057.496, -9.154378
4059.424, -6.025078
4061.353, -13.71445
4063.281, -12.65854
4065.209, -4.218141
4067.138, -5.214421
4069.066, -1.239640
4070.995, 5.825731
4072.923, 8.930219
4074.852, 1.095453
4076.780, -7.660645
4078.709, 1.836324
4080.637, -11.55754
4082.566, -6.322546
4084.494, -1.286287
4086.423, 8.749907
4088.351, 0.5870872
4090.280, -6.654521
4092.208, 6.8788901E-02
4094.136, -1.676686
4096.065, -6.008702
4097.994, -5.006094
4099.922, -0.5602930
4101.851, -1.263014
4103.779, -4.998919
4105.708, 1.369785
4107.636, 4.325450
4109.564, 6.213025
4111.493, 3.571193
4113.421, -7.6230511E-02
4115.350, 6.507015
4117.278, -4.744074
4119.207, -11.75167
4121.135, -8.800915
4123.063, 5.453753
4124.992, 2.512813
4126.920, 0.2402193
4128.849, 6.212570
4130.777, -3.843704
4132.706, -14.35311
4134.634, 2.205498
4136.563, 2.733384
4138.491, -9.319223
4140.420, 0.1572683
4142.348, -9.466659
4144.277, -11.82403
4146.205, -18.63487
4148.134, -6.066331
4150.062, 2.396846
4151.991, -1.943557
4153.919, 3.834610
4155.848, 13.57120
4157.776, -0.2807158
4159.705, -9.581952
4161.633, 130.2034
4163.562, 442.1704
4165.490, 619.1257
4167.418, 634.5767
4169.347, 844.2670
4171.275, 827.8104
4173.204, 834.2087
4175.132, 885.1215
4177.061, 730.4231
4178.989, 392.5315
4180.917, 704.1003
4182.846, 519.3694
4184.774, 620.4462
4186.703, 506.3677
4188.631, 564.9801
4190.560, 810.3453
4192.488, 625.2082
4194.417, 523.0511
4196.345, 625.4955
4198.274, 506.3955
4200.202, 402.8988
4202.131, 466.8974
4204.059, 564.6847
4205.988, 694.5636
4207.916, 626.8070
4209.845, 748.4398
4211.773, 690.1851
4213.702, 503.5806
4215.630, 537.2227
4217.559, 844.7487
4219.487, 700.0692
4221.416, 466.2166
4223.344, 396.1299
4225.272, 109.3733
4227.201, 16.62731
4229.129, 12.52670
4231.058, -0.7969818
4232.986, -2.036961
4234.915, 9.664042
4236.843, -1.536808
4238.771, -13.87168
4240.700, -1.351745
4242.628, 9.797152
4244.557, -9.8507270E-02
4246.485, -4.573042
4248.414, -6.175219
4250.342, -11.01741
4252.271, 0.1367670
4254.199, 4.613885
4256.128, -0.8221512
4258.056, 1.265410
4259.985, 2.585762
4261.913, 6.330422
4263.842, 13.38489
4265.770, 2.558382
4267.699, -8.360341
4269.627, -11.38372
4271.556, -12.96265
4273.484, 12.32140
4275.413, 6.914545
4277.341, 13.93976
4279.270, -2.028278
4281.198, -0.4189348
4283.126, 13.01135
4285.055, -2.167364
4286.983, -2.169272
4288.912, -9.837741
4290.840, 0.5742399
4292.769, 9.309968
4294.697, 1.507691
4296.625, -2.048476
4298.554, -6.418770
4300.482, -1.965158
4302.411, 4.964791
4304.339, 6.046477
4306.268, 0.9187106
4308.196, 2.473807
4310.125, 13.92492
4312.053, 5.511089
4313.982, -0.6670181
4315.910, 3.471549
4317.839, -4.190113
4319.767, -10.98611
4321.696, -10.54854
4323.624, -2.012655
4325.553, 7.255890
4327.481, 4.137090
4329.410, -9.735710
4331.338, -13.28353
4333.267, -5.664295
4335.195, -8.880578
4337.124, -12.98321
4339.052, -12.55735
4340.980, 6.4214200E-02
4342.909, -2.843805
4344.837, 4.068408
4346.766, 2.584681
4348.694, -2.586201
4350.623, -10.28523
4352.551, -4.009080
4354.479, -1.775014
4356.408, -9.967365
4358.336, -6.712961
4360.265, -1.312621
4362.193, -2.435710
4364.122, -3.430513
4366.050, -2.205563
4367.979, 6.034815
##END=



