##NAMES=Eosphorite
##RRUFFID=R050570
##IDEAL CHEMISTRY=Mn^2+^Al(PO_4_)(OH)_2_·H_2_O
##LOCALITY=Lavra da Ilha, Minas Gerais, Brazil
##OWNER=RRUFF
##SOURCE=University of Arizona Mineral Museum
##DESCRIPTION=Pale brown prismatic crystals with wedge-shaped terminations
##STATUS=The identification of this mineral has been confirmed by X-ray diffraction and chemical analysis
##URL=https://www.rruff.net/odr/rruff_sample/R050570
##MEASURED CHEMISTRY=(Mn_0.42_Fe^2+^_0.40_Ca_0.13_Mg_0.05_)Al(PO_4_)((OH)_0.96_F_0.04_)_2_·H_2_O
##DIFFRACTION SAMPLE DESCRIPTION=Powder
##CELL PARAMETERS=a: 6.944 b: 10.436 c: 13.492 alpha: 90 beta: 90 gamma: 90 volume: 977.73 crystal system: orthorhombic
##FILETYPE=Raman Processed
##RAMAN WAVELENGTH=532

147.4512, 2876.821
149.3797, 2936.043
151.3081, 2993.355
153.2366, 3047.537
155.1651, 3100.359
157.0935, 3150.322
159.0220, 3195.096
160.9505, 3238.434
162.8789, 3286.037
164.8074, 3343.345
166.7359, 3399.273
168.6643, 3449.993
170.5928, 3495.850
172.5213, 3543.510
174.4497, 3597.101
176.3782, 3653.282
178.3067, 3704.170
180.2351, 3749.406
182.1636, 3791.027
184.0921, 3829.480
186.0205, 3861.653
187.9490, 3896.725
189.8775, 3932.931
191.8059, 3971.645
193.7344, 4014.571
195.6629, 4064.267
197.5913, 4114.543
199.5198, 4164.489
201.4483, 4216.095
203.3767, 4261.233
205.3052, 4297.263
207.2337, 4326.941
209.1621, 4353.634
211.0906, 4375.756
213.0191, 4396.398
214.9475, 4415.993
216.8760, 4433.619
218.8045, 4448.367
220.7329, 4461.956
222.6614, 4472.108
224.5899, 4473.007
226.5183, 4460.482
228.4468, 4444.218
230.3753, 4427.651
232.3037, 4411.656
234.2322, 4389.596
236.1607, 4359.221
238.0891, 4323.768
240.0176, 4288.558
241.9461, 4251.686
243.8745, 4219.142
245.8030, 4193.081
247.7315, 4175.392
249.6599, 4156.485
251.5884, 4135.425
253.5169, 4113.315
255.4453, 4090.515
257.3738, 4067.563
259.3023, 4042.380
261.2307, 4013.860
263.1592, 3981.949
265.0877, 3952.236
267.0161, 3920.640
268.9446, 3893.953
270.8731, 3877.563
272.8015, 3872.925
274.7300, 3878.709
276.6585, 3895.610
278.5869, 3922.238
280.5154, 3955.643
282.4439, 3994.411
284.3723, 4042.684
286.3008, 4102.790
288.2293, 4179.490
290.1577, 4261.586
292.0862, 4349.333
294.0147, 4443.538
295.9431, 4540.128
297.8716, 4646.971
299.8001, 4747.917
301.7285, 4839.369
303.6570, 4922.508
305.5855, 4992.608
307.5139, 5045.505
309.4424, 5083.600
311.3709, 5105.389
313.2993, 5111.542
315.2278, 5099.998
317.1563, 5065.550
319.0847, 5009.929
321.0132, 4946.269
322.9417, 4870.597
324.8701, 4793.198
326.7986, 4723.183
328.7271, 4662.619
330.6555, 4604.043
332.5840, 4545.384
334.5125, 4487.863
336.4409, 4436.585
338.3694, 4392.881
340.2979, 4354.216
342.2263, 4317.673
344.1548, 4282.133
346.0833, 4250.862
348.0117, 4227.610
349.9402, 4208.042
351.8687, 4187.228
353.7971, 4164.762
355.7256, 4142.568
357.6541, 4120.658
359.5826, 4099.267
361.5110, 4078.706
363.4395, 4058.434
365.3680, 4040.499
367.2964, 4026.828
369.2249, 4017.853
371.1534, 4009.686
373.0818, 4002.878
375.0103, 3996.735
376.9388, 3989.095
378.8672, 3974.570
380.7957, 3960.614
382.7242, 3951.622
384.6526, 3947.969
386.5811, 3948.046
388.5096, 3950.176
390.4380, 3955.039
392.3665, 3964.879
394.2950, 3982.426
396.2234, 4003.190
398.1519, 4027.978
400.0804, 4055.233
402.0088, 4081.561
403.9373, 4104.238
405.8658, 4127.936
407.7942, 4152.451
409.7227, 4176.673
411.6512, 4195.853
413.5796, 4208.095
415.5081, 4216.736
417.4366, 4225.147
419.3650, 4230.480
421.2935, 4240.742
423.2220, 4258.235
425.1504, 4283.236
427.0789, 4313.176
429.0074, 4344.979
430.9358, 4386.080
432.8643, 4439.722
434.7928, 4508.475
436.7212, 4582.962
438.6497, 4661.494
440.5782, 4748.859
442.5066, 4846.653
444.4351, 4955.933
446.3636, 5080.274
448.2920, 5216.739
450.2205, 5366.637
452.1490, 5532.138
454.0774, 5718.672
456.0059, 5914.288
457.9344, 6113.905
459.8628, 6318.098
461.7913, 6502.609
463.7198, 6667.338
465.6482, 6797.830
467.5767, 6876.427
469.5052, 6900.161
471.4336, 6870.299
473.3621, 6785.631
475.2906, 6655.053
477.2190, 6484.827
479.1475, 6280.537
481.0760, 6063.490
483.0044, 5841.566
484.9329, 5621.170
486.8614, 5411.008
488.7898, 5217.549
490.7183, 5042.972
492.6468, 4888.522
494.5752, 4753.476
496.5037, 4628.714
498.4322, 4512.751
500.3606, 4407.488
502.2891, 4313.667
504.2176, 4226.971
506.1460, 4150.774
508.0745, 4086.124
510.0030, 4035.271
511.9314, 3997.958
513.8599, 3969.847
515.7883, 3943.377
517.7168, 3917.793
519.6453, 3895.942
521.5737, 3880.153
523.5022, 3867.832
525.4307, 3859.745
527.3591, 3857.245
529.2876, 3861.260
531.2161, 3869.862
533.1445, 3886.033
535.0730, 3902.793
537.0015, 3929.582
538.9299, 3952.646
540.8584, 3984.341
542.7869, 4022.081
544.7153, 4070.009
546.6438, 4136.606
548.5723, 4236.533
550.5007, 4341.858
552.4292, 4449.822
554.3577, 4558.278
556.2861, 4669.604
558.2146, 4769.018
560.1431, 4846.636
562.0715, 4902.311
564.0000, 4926.913
565.9285, 4922.733
567.8569, 4905.322
569.7854, 4887.933
571.7139, 4866.088
573.6423, 4852.424
575.5708, 4860.927
577.4993, 4885.877
579.4277, 4938.927
581.3562, 5014.611
583.2847, 5108.625
585.2131, 5232.081
587.1416, 5375.580
589.0701, 5534.171
590.9985, 5703.132
592.9270, 5884.155
594.8555, 6044.966
596.7839, 6179.222
598.7124, 6253.605
600.6409, 6269.499
602.5693, 6228.323
604.4978, 6139.009
606.4263, 5991.037
608.3547, 5822.467
610.2832, 5656.411
612.2117, 5494.307
614.1401, 5346.321
616.0686, 5218.430
617.9971, 5106.850
619.9255, 5009.875
621.8540, 4934.641
623.7825, 4863.765
625.7109, 4786.780
627.6394, 4695.416
629.5679, 4609.974
631.4963, 4531.423
633.4248, 4460.447
635.3533, 4396.740
637.2817, 4338.847
639.2102, 4286.577
641.1387, 4239.876
643.0671, 4199.213
644.9956, 4164.620
646.9241, 4139.743
648.8525, 4119.904
650.7810, 4106.007
652.7095, 4092.800
654.6379, 4079.184
656.5664, 4066.913
658.4949, 4058.542
660.4233, 4055.070
662.3518, 4053.627
664.2803, 4050.267
666.2087, 4042.513
668.1372, 4036.880
670.0657, 4038.099
671.9941, 4043.044
673.9226, 4043.527
675.8511, 4035.672
677.7795, 4030.180
679.7080, 4033.171
681.6365, 4041.060
683.5649, 4044.319
685.4934, 4040.104
687.4219, 4036.804
689.3503, 4037.306
691.2788, 4042.347
693.2073, 4048.103
695.1357, 4053.398
697.0642, 4058.755
698.9927, 4065.096
700.9211, 4073.255
702.8496, 4081.793
704.7781, 4090.434
706.7065, 4097.842
708.6350, 4104.558
710.5635, 4112.510
712.4919, 4121.119
714.4204, 4130.532
716.3489, 4139.614
718.2773, 4147.314
720.2058, 4153.597
722.1343, 4160.450
724.0627, 4169.589
725.9912, 4178.283
727.9197, 4184.765
729.8481, 4187.848
731.7766, 4193.208
733.7051, 4203.405
735.6335, 4215.235
737.5620, 4224.480
739.4905, 4230.246
741.4189, 4239.516
743.3474, 4256.323
745.2759, 4276.093
747.2043, 4293.692
749.1328, 4305.241
751.0613, 4317.156
752.9897, 4329.640
754.9182, 4342.380
756.8467, 4354.424
758.7751, 4366.007
760.7036, 4376.657
762.6321, 4385.543
764.5605, 4394.029
766.4890, 4404.417
768.4175, 4416.919
770.3459, 4429.342
772.2744, 4441.406
774.2029, 4454.822
776.1313, 4469.342
778.0598, 4484.571
779.9883, 4500.185
781.9167, 4516.116
783.8452, 4534.177
785.7737, 4553.761
787.7021, 4573.773
789.6306, 4596.101
791.5591, 4623.134
793.4875, 4650.871
795.4160, 4675.079
797.3445, 4694.125
799.2729, 4714.303
801.2014, 4737.021
803.1299, 4760.847
805.0583, 4784.854
806.9868, 4810.550
808.9153, 4833.229
810.8438, 4851.495
812.7722, 4867.191
814.7007, 4882.466
816.6292, 4897.942
818.5576, 4910.766
820.4861, 4919.231
822.4146, 4924.899
824.3430, 4929.232
826.2715, 4931.058
828.2000, 4932.869
830.1284, 4934.646
832.0569, 4936.524
833.9854, 4938.767
835.9138, 4941.690
837.8423, 4944.984
839.7708, 4950.187
841.6992, 4955.630
843.6277, 4959.526
845.5562, 4960.374
847.4846, 4965.120
849.4131, 4976.606
851.3416, 4990.962
853.2700, 5004.112
855.1985, 5015.383
857.1270, 5028.770
859.0554, 5044.922
860.9839, 5063.274
862.9124, 5083.745
864.8408, 5106.577
866.7693, 5126.632
868.6978, 5143.489
870.6262, 5157.544
872.5547, 5167.486
874.4832, 5173.958
876.4116, 5182.681
878.3401, 5197.635
880.2686, 5211.509
882.1970, 5222.083
884.1255, 5231.554
886.0540, 5237.962
887.9824, 5239.084
889.9109, 5239.337
891.8394, 5242.178
893.7678, 5248.729
895.6963, 5255.982
897.6248, 5263.087
899.5532, 5269.890
901.4817, 5276.875
903.4102, 5283.775
905.3386, 5291.960
907.2671, 5301.030
909.1956, 5311.722
911.1240, 5321.771
913.0525, 5330.879
914.9810, 5348.406
916.9094, 5374.121
918.8379, 5411.391
920.7664, 5462.313
922.6948, 5525.266
924.6233, 5595.847
926.5518, 5678.151
928.4802, 5767.979
930.4087, 5858.884
932.3372, 5959.843
934.2656, 6072.165
936.1941, 6189.932
938.1226, 6324.949
940.0510, 6473.792
941.9795, 6640.663
943.9080, 6842.800
945.8364, 7075.479
947.7649, 7348.475
949.6934, 7638.800
951.6218, 7999.093
953.5503, 8436.711
955.4788, 8964.021
957.4072, 9586.964
959.3357, 10317.33
961.2642, 11099.96
963.1926, 11983.51
965.1211, 12929.90
967.0496, 13746.89
968.9780, 14480.71
970.9065, 14983.02
972.8350, 15129.25
974.7634, 14929.68
976.6919, 14549.97
978.6204, 13936.22
980.5488, 13279.70
982.4773, 12627.11
984.4058, 12022.64
986.3342, 11527.83
988.2627, 11155.44
990.1912, 10875.84
992.1196, 10704.48
994.0481, 10591.01
995.9766, 10508.38
997.9050, 10469.93
999.8335, 10469.00
1001.762, 10506.56
1003.690, 10580.71
1005.619, 10687.39
1007.547, 10825.86
1009.476, 10953.93
1011.404, 11090.11
1013.333, 11176.75
1015.261, 11191.09
1017.190, 11134.69
1019.118, 10995.18
1021.047, 10743.50
1022.975, 10434.23
1024.904, 10081.96
1026.832, 9691.984
1028.760, 9325.132
1030.689, 8981.532
1032.617, 8668.089
1034.546, 8391.689
1036.474, 8146.415
1038.403, 7916.804
1040.331, 7702.636
1042.260, 7503.692
1044.188, 7321.799
1046.117, 7149.556
1048.045, 6980.507
1049.974, 6825.239
1051.902, 6688.114
1053.831, 6568.119
1055.759, 6463.164
1057.688, 6372.820
1059.616, 6297.646
1061.544, 6236.992
1063.473, 6190.856
1065.401, 6150.511
1067.330, 6110.201
1069.258, 6074.749
1071.187, 6050.871
1073.115, 6039.599
1075.044, 6032.796
1076.972, 6026.912
1078.901, 6020.583
1080.829, 6015.271
1082.758, 6011.695
1084.686, 6011.964
1086.615, 6018.206
1088.543, 6025.963
1090.471, 6028.664
1092.400, 6027.086
1094.328, 6029.308
1096.257, 6036.095
1098.185, 6042.185
1100.114, 6045.136
1102.042, 6047.697
1103.971, 6051.764
1105.899, 6052.075
1107.828, 6050.799
1109.756, 6052.559
1111.685, 6059.850
1113.613, 6067.480
1115.542, 6065.928
1117.470, 6065.781
1119.398, 6073.898
1121.327, 6088.367
1123.255, 6102.073
1125.184, 6111.599
1127.112, 6124.454
1129.041, 6147.952
1130.969, 6180.378
1132.898, 6216.693
1134.826, 6252.146
1136.755, 6286.492
1138.683, 6319.884
1140.612, 6353.153
1142.540, 6388.444
1144.469, 6421.929
1146.397, 6446.122
1148.325, 6461.368
1150.254, 6465.335
1152.182, 6454.691
1154.111, 6433.240
1156.039, 6404.573
1157.968, 6372.009
1159.896, 6341.579
1161.825, 6314.451
1163.753, 6293.072
1165.682, 6276.547
1167.610, 6263.492
1169.539, 6252.987
1171.467, 6249.097
1173.396, 6247.869
1175.324, 6243.021
1177.252, 6236.358
1179.181, 6232.736
1181.109, 6234.868
1183.038, 6236.385
1184.966, 6238.495
1186.895, 6244.795
1188.823, 6252.375
1190.752, 6259.469
1192.680, 6266.899
1194.609, 6275.772
1196.537, 6281.995
1198.466, 6287.018
1200.394, 6294.570
1202.323, 6305.247
1204.251, 6317.532
1206.179, 6330.198
1208.108, 6340.299
1210.036, 6349.109
1211.965, 6362.539
1213.893, 6379.935
1215.822, 6391.756
1217.750, 6393.583
1219.679, 6392.140
1221.607, 6391.009
1223.536, 6392.601
1225.464, 6396.226
1227.393, 6400.755
1229.321, 6404.917
1231.250, 6411.649
1233.178, 6421.210
1235.106, 6428.709
1237.035, 6434.206
1238.963, 6443.455
1240.892, 6460.945
1242.820, 6479.583
1244.749, 6492.284
1246.677, 6502.256
1248.606, 6516.958
1250.534, 6537.467
1252.463, 6554.337
1254.391, 6563.444
1256.320, 6575.422
1258.248, 6592.864
1260.177, 6610.028
1262.105, 6620.745
1264.033, 6624.788
1265.962, 6632.939
1267.890, 6650.313
1269.819, 6669.036
1271.747, 6682.667
1273.676, 6691.164
1275.604, 6700.228
1277.533, 6712.203
1279.461, 6725.531
1281.390, 6738.252
1283.318, 6750.874
1285.247, 6763.483
1287.175, 6775.718
1289.104, 6786.598
1291.032, 6795.528
1292.960, 6806.484
1294.889, 6819.624
1296.817, 6831.725
1298.746, 6844.554
1300.674, 6860.679
1302.603, 6878.109
1304.531, 6891.771
1306.460, 6900.398
1308.388, 6909.223
1310.317, 6919.164
1312.245, 6929.499
1314.174, 6940.619
1316.102, 6949.760
1318.031, 6955.966
1319.959, 6961.923
1321.887, 6971.686
1323.816, 6987.593
1325.744, 7004.179
1327.673, 7016.867
1329.601, 7030.736
1331.530, 7048.468
1333.458, 7068.909
1335.387, 7091.582
1337.315, 7117.255
1339.244, 7138.151
1341.172, 7150.596
1343.101, 7159.313
1345.029, 7167.842
1346.958, 7175.977
1348.886, 7184.298
1350.814, 7194.026
1352.743, 7204.914
1354.671, 7216.368
1356.600, 7229.940
1358.528, 7247.035
1360.457, 7266.359
1362.385, 7283.977
1364.314, 7297.643
1366.242, 7311.177
1368.171, 7326.707
1370.099, 7343.127
1372.028, 7358.072
1373.956, 7369.601
1375.885, 7377.547
1377.813, 7378.610
1379.741, 7384.320
1381.670, 7395.031
1383.598, 7407.099
1385.527, 7421.235
1387.455, 7436.753
1389.384, 7453.182
1391.312, 7473.973
1393.241, 7491.142
1395.169, 7497.156
1397.098, 7500.811
1399.026, 7510.717
1400.955, 7526.119
1402.883, 7543.488
1404.812, 7564.139
1406.740, 7580.926
1408.668, 7589.681
1410.597, 7595.719
1412.525, 7603.033
1414.454, 7612.290
1416.382, 7625.611
1418.311, 7646.028
1420.239, 7665.523
1422.168, 7677.829
1424.096, 7689.636
1426.025, 7707.546
1427.953, 7731.374
1429.882, 7752.589
1431.810, 7770.862
1433.739, 7785.955
1435.667, 7799.339
1437.595, 7810.294
1439.524, 7816.982
1441.452, 7820.266
1443.381, 7825.468
1445.309, 7830.070
1447.238, 7840.526
1449.166, 7862.681
1451.095, 7888.084
1453.023, 7907.803
1454.952, 7921.598
1456.880, 7935.643
1458.809, 7951.166
1460.737, 7964.315
1462.666, 7969.920
1464.594, 7976.308
1466.522, 7992.010
1468.451, 8015.360
1470.379, 8037.760
1472.308, 8058.615
1474.236, 8077.315
1476.165, 8090.591
1478.093, 8102.886
1480.022, 8117.771
1481.950, 8133.969
1483.879, 8147.044
1485.807, 8157.323
1487.736, 8164.650
1489.664, 8166.077
1491.593, 8169.584
1493.521, 8181.912
1495.449, 8201.163
1497.378, 8217.493
1499.306, 8230.462
1501.235, 8241.035
1503.163, 8242.405
1505.092, 8247.733
1507.020, 8265.682
1508.949, 8291.537
1510.877, 8314.162
1512.806, 8334.308
1514.734, 8347.908
1516.663, 8348.008
1518.591, 8350.237
1520.520, 8361.383
1522.448, 8378.143
1524.376, 8395.265
1526.305, 8413.152
1528.233, 8430.255
1530.162, 8448.173
1532.090, 8462.976
1534.019, 8468.982
1535.947, 8475.132
1537.876, 8492.921
1539.804, 8520.240
1541.733, 8541.354
1543.661, 8553.034
1545.590, 8564.876
1547.518, 8580.458
1549.447, 8594.964
1551.375, 8603.078
1553.303, 8608.989
1555.232, 8623.831
1557.160, 8650.780
1559.089, 8673.526
1561.017, 8685.769
1562.946, 8697.442
1564.874, 8713.365
1566.803, 8732.270
1568.731, 8750.757
1570.660, 8767.868
1572.588, 8788.468
1574.517, 8816.900
1576.445, 8841.032
1578.374, 8851.957
1580.302, 8859.372
1582.230, 8874.003
1584.159, 8894.177
1586.087, 8904.839
1588.016, 8901.566
1589.944, 8901.302
1591.873, 8911.528
1593.801, 8923.298
1595.730, 8931.260
1597.658, 8937.608
1599.587, 8948.572
1601.515, 8964.471
1603.444, 8982.967
1605.372, 9006.935
1607.301, 9027.894
1609.229, 9040.965
1611.157, 9049.334
1613.086, 9056.626
1615.014, 9063.123
1616.943, 9071.138
1618.871, 9084.138
1620.800, 9093.422
1622.728, 9096.610
1624.657, 9099.829
1626.585, 9106.507
1628.514, 9116.785
1630.442, 9130.119
1632.371, 9145.621
1634.299, 9167.792
1636.228, 9199.479
1638.156, 9231.755
1640.084, 9262.600
1642.013, 9290.674
1643.941, 9312.627
1645.870, 9328.327
1647.798, 9350.484
1649.727, 9389.958
1651.655, 9421.310
1653.584, 9436.744
1655.512, 9454.471
1657.441, 9485.921
1659.369, 9523.938
1661.298, 9555.443
1663.226, 9577.975
1665.155, 9600.009
1667.083, 9618.707
1669.011, 9637.775
1670.940, 9660.183
1672.868, 9681.119
1674.797, 9699.837
1676.725, 9716.344
1678.654, 9727.741
1680.582, 9733.239
1682.511, 9740.899
1684.439, 9747.314
1686.368, 9760.847
1688.296, 9786.721
1690.225, 9816.705
1692.153, 9842.847
1694.082, 9864.743
1696.010, 9884.904
1697.938, 9903.642
1699.867, 9918.132
1701.795, 9924.966
1703.724, 9932.459
1705.652, 9946.532
1707.581, 9962.619
1709.509, 9975.505
1711.438, 9986.166
1713.366, 9998.154
1715.295, 10009.64
1717.223, 10025.79
1719.152, 10050.11
1721.080, 10073.43
1723.009, 10089.19
1724.937, 10102.29
1726.865, 10121.19
1728.794, 10136.09
1730.722, 10165.00
1732.651, 10171.58
1734.579, 10185.45
1736.508, 10208.77
1738.436, 10238.50
1740.365, 10278.67
1742.293, 10318.75
1744.222, 10340.77
1746.150, 10343.00
1748.079, 10353.36
1750.007, 10385.15
1751.936, 10403.64
1753.864, 10400.37
1755.792, 10396.42
1757.721, 10404.63
1759.649, 10419.17
1761.578, 10429.26
1763.506, 10435.47
1765.435, 10453.84
1767.363, 10494.38
1769.292, 10526.31
1771.220, 10540.33
1773.149, 10551.13
1775.077, 10563.36
1777.006, 10575.28
1778.934, 10586.20
1780.863, 10596.67
1782.791, 10604.54
1784.719, 10608.33
1786.648, 10616.16
1788.576, 10632.00
1790.505, 10647.47
1792.433, 10658.35
1794.362, 10668.11
1796.290, 10680.11
1798.219, 10693.96
1800.147, 10708.33
1802.076, 10724.23
1804.004, 10739.66
1805.933, 10754.41
1807.861, 10769.35
1809.790, 10781.81
1811.718, 10795.70
1813.646, 10814.62
1815.575, 10835.41
1817.503, 10852.54
1819.432, 10866.22
1821.360, 10874.94
1823.289, 10878.69
1825.217, 10881.60
1827.146, 10882.10
1829.074, 10887.81
1831.003, 10901.80
1832.931, 10922.92
1834.860, 10953.09
1836.788, 10988.83
1838.717, 11013.63
1840.645, 11024.33
1842.573, 11032.47
1844.502, 11038.67
1846.430, 11045.76
1848.359, 11056.13
1850.287, 11068.02
1852.216, 11081.47
1854.144, 11095.10
1856.073, 11104.12
1858.001, 11108.29
1859.930, 11116.31
1861.858, 11131.83
1863.787, 11144.04
1865.715, 11146.47
1867.644, 11150.38
1869.572, 11163.62
1871.500, 11181.66
1873.429, 11198.04
1875.357, 11213.52
1877.286, 11233.01
1879.214, 11257.58
1881.143, 11278.19
1883.071, 11284.93
1885.000, 11297.19
1886.928, 11323.18
1888.857, 11350.81
1890.785, 11376.17
1892.714, 11396.06
1894.642, 11401.69
1896.571, 11393.64
1898.499, 11396.40
1900.427, 11420.04
1902.356, 11439.16
1904.284, 11447.21
1906.213, 11458.03
1908.141, 11474.57
1910.070, 11493.39
1911.998, 11511.77
1913.927, 11528.14
1915.855, 11540.63
1917.784, 11548.78
1919.712, 11556.29
1921.641, 11565.18
1923.569, 11570.68
1925.498, 11568.98
1927.426, 11571.89
1929.354, 11590.29
1931.283, 11610.57
1933.211, 11620.62
1935.140, 11624.91
1937.068, 11631.26
1938.997, 11640.14
1940.925, 11655.63
1942.854, 11680.30
1944.782, 11703.91
1946.711, 11725.73
1948.639, 11743.22
1950.568, 11749.20
1952.496, 11754.44
1954.425, 11768.79
1956.353, 11788.08
1958.281, 11804.77
1960.210, 11819.26
1962.138, 11832.40
1964.067, 11843.83
1965.995, 11856.66
1967.924, 11873.81
1969.852, 11888.13
1971.781, 11893.89
1973.709, 11898.49
1975.638, 11906.01
1977.566, 11915.66
1979.495, 11927.23
1981.423, 11941.23
1983.352, 11957.37
1985.280, 11977.67
1987.208, 11995.90
1989.137, 12011.47
1991.065, 12026.28
1992.994, 12036.38
1994.922, 12050.10
1996.851, 12074.31
1998.779, 12100.37
2000.708, 12117.28
2002.636, 12128.88
2004.565, 12149.27
2006.493, 12178.96
2008.422, 12195.50
2010.350, 12193.46
2012.279, 12193.11
2014.207, 12195.74
2016.135, 12204.48
2018.064, 12225.46
2019.992, 12247.40
2021.921, 12262.92
2023.849, 12273.12
2025.778, 12275.16
2027.706, 12271.37
2029.635, 12288.59
2031.563, 12335.67
2033.492, 12361.04
2035.420, 12353.25
2037.349, 12346.20
2039.277, 12343.26
2041.206, 12349.16
2043.134, 12375.38
2045.063, 12402.50
2046.991, 12411.38
2048.919, 12412.30
2050.848, 12422.33
2052.776, 12439.12
2054.705, 12454.06
2056.633, 12466.98
2058.562, 12470.57
2060.490, 12458.78
2062.419, 12449.68
2064.347, 12449.97
2066.276, 12452.66
2068.204, 12456.72
2070.133, 12462.58
2072.061, 12466.39
2073.990, 12474.06
2075.918, 12500.28
2077.846, 12541.82
2079.775, 12569.08
2081.703, 12579.44
2083.632, 12580.29
2085.560, 12565.90
2087.489, 12558.17
2089.417, 12568.23
2091.346, 12575.83
2093.274, 12570.18
2095.203, 12564.89
2097.131, 12571.03
2099.060, 12584.69
2100.988, 12602.10
2102.917, 12621.59
2104.845, 12634.36
2106.773, 12636.82
2108.702, 12648.44
2110.630, 12679.59
2112.559, 12696.06
2114.487, 12685.94
2116.416, 12677.85
2118.344, 12685.56
2120.273, 12690.51
2122.201, 12677.83
2124.130, 12667.53
2126.058, 12681.32
2127.987, 12708.89
2129.915, 12729.25
2131.844, 12743.65
2133.772, 12760.83
2135.700, 12779.82
2137.629, 12797.18
2139.557, 12813.39
2141.486, 12822.01
2143.414, 12816.62
2145.343, 12812.22
2147.271, 12815.26
2149.200, 12820.35
2151.128, 12822.34
2153.057, 12828.60
2154.985, 12849.95
2156.914, 12879.50
2158.842, 12901.70
2160.771, 12916.81
2162.699, 12930.86
2164.627, 12943.28
2166.556, 12954.64
2168.484, 12964.54
2170.413, 12974.54
2172.341, 12985.28
2174.270, 12997.35
2176.198, 13015.58
2178.127, 13030.87
2180.055, 13033.99
2181.984, 13037.25
2183.912, 13053.94
2185.841, 13063.96
2187.769, 13090.79
2189.698, 13098.89
2191.626, 13115.17
2193.554, 13139.40
2195.483, 13156.86
2197.411, 13166.07
2199.340, 13172.24
2201.268, 13176.52
2203.197, 13176.54
2205.125, 13165.14
2207.054, 13162.57
2208.982, 13184.36
2210.911, 13210.53
2212.839, 13229.23
2214.768, 13245.83
2216.696, 13265.70
2218.625, 13286.46
2220.553, 13301.07
2222.481, 13310.63
2224.410, 13330.96
2226.338, 13361.74
2228.267, 13380.61
2230.195, 13385.41
2232.124, 13389.71
2234.052, 13395.71
2235.981, 13405.23
2237.909, 13422.19
2239.838, 13438.65
2241.766, 13450.79
2243.695, 13461.37
2245.623, 13467.26
2247.552, 13475.57
2249.480, 13494.63
2251.408, 13519.73
2253.337, 13548.20
2255.265, 13576.11
2257.194, 13584.09
2259.122, 13575.38
2261.051, 13577.53
2262.979, 13591.34
2264.908, 13608.05
2266.836, 13627.77
2268.765, 13644.52
2270.693, 13661.36
2272.622, 13671.21
2274.550, 13667.33
2276.479, 13667.60
2278.407, 13680.22
2280.335, 13698.50
2282.264, 13722.26
2284.192, 13745.03
2286.121, 13754.32
2288.049, 13761.23
2289.978, 13786.84
2291.906, 13822.15
2293.835, 13843.99
2295.763, 13853.35
2297.692, 13863.99
2299.620, 13875.61
2301.549, 13890.42
2303.477, 13909.59
2305.406, 13930.98
2307.334, 13959.53
2309.262, 13981.05
2311.191, 13990.89
2313.119, 14001.50
2315.048, 14017.82
2316.976, 14035.48
2318.905, 14047.55
2320.833, 14064.54
2322.762, 14097.52
2324.690, 14133.93
2326.619, 14162.21
2328.547, 14182.27
2330.476, 14190.33
2332.404, 14209.04
2334.333, 14202.82
2336.261, 14223.99
2338.189, 14229.16
2340.118, 14219.44
2342.046, 14219.81
2343.975, 14235.29
2345.903, 14239.54
2347.832, 14221.42
2349.760, 14216.48
2351.689, 14237.85
2353.617, 14258.61
2355.546, 14271.48
2357.474, 14284.89
2359.403, 14302.99
2361.331, 14319.45
2363.260, 14329.45
2365.188, 14339.81
2367.116, 14356.88
2369.045, 14376.86
2370.973, 14397.65
2372.902, 14417.67
2374.830, 14429.11
2376.759, 14438.47
2378.687, 14469.10
2380.616, 14514.91
2382.544, 14536.22
2384.473, 14533.46
2386.401, 14538.97
2388.330, 14554.04
2390.258, 14569.64
2392.187, 14588.02
2394.115, 14596.22
2396.043, 14582.75
2397.972, 14586.86
2399.900, 14624.31
2401.829, 14663.89
2403.757, 14703.87
2405.686, 14736.56
2407.614, 14750.42
2409.543, 14767.40
2411.471, 14802.88
2413.400, 14835.97
2415.328, 14849.40
2417.257, 14858.58
2419.185, 14881.42
2421.114, 14904.86
2423.042, 14908.63
2424.970, 14906.43
2426.899, 14922.04
2428.827, 14950.59
2430.756, 14980.96
2432.684, 15011.09
2434.613, 15031.07
2436.541, 15041.76
2438.470, 15058.09
2440.398, 15080.11
2442.327, 15100.21
2444.255, 15117.68
2446.184, 15134.17
2448.112, 15148.75
2450.041, 15168.09
2451.969, 15196.17
2453.897, 15216.86
2455.826, 15226.58
2457.754, 15232.53
2459.683, 15231.48
2461.611, 15238.70
2463.540, 15261.99
2465.468, 15291.41
2467.397, 15330.61
2469.325, 15364.89
2471.254, 15381.48
2473.182, 15395.18
2475.111, 15411.00
2477.039, 15427.67
2478.968, 15444.57
2480.896, 15461.19
2482.824, 15477.37
2484.753, 15495.03
2486.681, 15521.90
2488.610, 15550.10
2490.538, 15559.66
2492.467, 15561.18
2494.395, 15579.44
2496.324, 15609.50
2498.252, 15642.55
2500.181, 15675.13
2502.109, 15688.06
2504.038, 15683.09
2505.966, 15696.37
2507.895, 15731.23
2509.823, 15757.06
2511.751, 15773.13
2513.680, 15794.54
2515.608, 15821.04
2517.537, 15846.82
2519.465, 15868.50
2521.394, 15889.96
2523.322, 15916.44
2525.251, 15932.79
2527.179, 15938.01
2529.108, 15941.68
2531.036, 15945.79
2532.965, 15956.80
2534.893, 15983.16
2536.822, 16005.13
2538.750, 16006.58
2540.678, 16016.92
2542.607, 16045.14
2544.535, 16080.89
2546.464, 16122.75
2548.392, 16163.99
2550.321, 16200.49
2552.249, 16234.11
2554.178, 16264.80
2556.106, 16292.78
2558.035, 16321.30
2559.963, 16343.84
2561.892, 16353.76
2563.820, 16359.69
2565.749, 16374.19
2567.677, 16388.23
2569.605, 16386.22
2571.534, 16386.56
2573.462, 16405.24
2575.391, 16439.12
2577.319, 16492.89
2579.248, 16547.57
2581.176, 16570.21
2583.105, 16570.76
2585.033, 16566.98
2586.962, 16564.37
2588.890, 16584.65
2590.819, 16616.29
2592.747, 16618.35
2594.676, 16639.54
2596.604, 16622.46
2598.532, 16662.79
2600.461, 16684.92
2602.389, 16692.71
2604.318, 16726.21
2606.246, 16778.01
2608.175, 16816.91
2610.103, 16841.85
2612.032, 16841.77
2613.960, 16817.81
2615.889, 16812.48
2617.817, 16826.92
2619.746, 16838.38
2621.674, 16846.36
2623.603, 16858.14
2625.531, 16873.74
2627.459, 16892.14
2629.388, 16916.35
2631.316, 16925.24
2633.245, 16913.77
2635.173, 16925.40
2637.102, 16964.28
2639.030, 16997.78
2640.959, 17022.01
2642.887, 17045.37
2644.816, 17068.06
2646.744, 17088.58
2648.673, 17104.40
2650.601, 17125.48
2652.530, 17152.87
2654.458, 17182.94
2656.386, 17216.60
2658.315, 17244.40
2660.243, 17263.43
2662.172, 17277.62
2664.100, 17283.48
2666.029, 17292.45
2667.957, 17307.30
2669.886, 17320.05
2671.814, 17330.79
2673.743, 17340.00
2675.671, 17345.86
2677.600, 17357.02
2679.528, 17374.90
2681.457, 17394.69
2683.385, 17414.08
2685.313, 17437.10
2687.242, 17465.68
2689.170, 17492.41
2691.099, 17522.02
2693.027, 17538.20
2694.956, 17521.63
2696.884, 17528.72
2698.813, 17572.36
2700.741, 17611.28
2702.670, 17636.69
2704.598, 17659.58
2706.527, 17679.84
2708.455, 17700.64
2710.384, 17725.86
2712.312, 17744.29
2714.240, 17750.08
2716.169, 17770.90
2718.097, 17818.22
2720.026, 17854.04
2721.954, 17863.50
2723.883, 17873.63
2725.811, 17879.99
2727.740, 17903.96
2729.668, 17957.62
2731.597, 17988.52
2733.525, 17983.54
2735.454, 17985.94
2737.382, 18008.94
2739.311, 18030.54
2741.239, 18042.39
2743.167, 18071.35
2745.096, 18121.72
2747.024, 18167.15
2748.953, 18204.28
2750.881, 18227.60
2752.810, 18226.28
2754.738, 18239.51
2756.667, 18274.00
2758.595, 18304.26
2760.524, 18329.19
2762.452, 18348.64
2764.381, 18360.09
2766.309, 18379.11
2768.238, 18407.67
2770.166, 18436.56
2772.094, 18465.58
2774.023, 18493.30
2775.951, 18520.22
2777.880, 18544.68
2779.808, 18568.08
2781.737, 18585.01
2783.665, 18620.00
2785.594, 18626.72
2787.522, 18683.60
2789.451, 18724.62
2791.379, 18748.81
2793.308, 18785.55
2795.236, 18832.79
2797.165, 18861.72
2799.093, 18874.32
2801.021, 18889.62
2802.950, 18909.29
2804.878, 18935.98
2806.807, 18969.64
2808.735, 19011.74
2810.664, 19055.87
2812.592, 19071.72
2814.521, 19071.45
2816.449, 19097.57
2818.378, 19138.38
2820.306, 19171.87
2822.235, 19198.81
2824.163, 19217.96
2826.092, 19233.09
2828.020, 19246.72
2829.948, 19264.03
2831.877, 19298.06
2833.805, 19334.21
2835.734, 19347.63
2837.662, 19388.99
2839.591, 19405.63
2841.519, 19456.26
2843.448, 19489.03
2845.376, 19519.61
2847.305, 19557.34
2849.233, 19601.87
2851.162, 19669.09
2853.090, 19723.17
2855.019, 19732.92
2856.947, 19744.87
2858.875, 19779.32
2860.804, 19822.95
2862.732, 19870.39
2864.661, 19920.09
2866.589, 19971.09
2868.518, 20016.06
2870.446, 20049.62
2872.375, 20082.08
2874.303, 20125.61
2876.232, 20151.19
2878.160, 20149.02
2880.089, 20156.53
2882.017, 20181.83
2883.946, 20210.34
2885.874, 20240.13
2887.802, 20280.80
2889.731, 20333.36
2891.659, 20384.54
2893.588, 20431.69
2895.516, 20475.82
2897.445, 20515.68
2899.373, 20552.57
2901.302, 20588.06
2903.230, 20624.38
2905.159, 20665.45
2907.087, 20733.12
2909.016, 20775.28
2910.944, 20855.85
2912.873, 20880.47
2914.801, 20922.39
2916.729, 20969.13
2918.658, 21001.21
2920.586, 21026.53
2922.515, 21054.98
2924.443, 21084.78
2926.372, 21118.15
2928.300, 21151.02
2930.229, 21177.39
2932.157, 21209.55
2934.086, 21254.36
2936.014, 21305.46
2937.943, 21359.96
2939.871, 21414.74
2941.800, 21463.67
2943.728, 21516.38
2945.656, 21578.23
2947.585, 21628.19
2949.513, 21656.56
2951.442, 21684.94
2953.370, 21714.95
2955.299, 21758.54
2957.227, 21819.32
2959.156, 21867.67
2961.084, 21899.97
2963.013, 21932.49
2964.941, 21963.47
2966.870, 21987.72
2968.798, 22006.44
2970.727, 22029.77
2972.655, 22055.28
2974.583, 22074.94
2976.512, 22095.35
2978.440, 22130.02
2980.369, 22172.65
2982.297, 22219.46
2984.226, 22262.85
2986.154, 22290.26
2988.083, 22315.45
2990.011, 22341.74
2991.940, 22376.18
2993.868, 22432.18
2995.797, 22478.32
2997.725, 22493.00
2999.654, 22516.86
3001.582, 22565.68
3003.510, 22598.19
3005.439, 22604.29
3007.367, 22612.18
3009.296, 22622.71
3011.224, 22648.30
3013.153, 22688.03
3015.081, 22737.29
3017.010, 22791.54
3018.938, 22833.98
3020.867, 22863.33
3022.795, 22875.77
3024.724, 22879.56
3026.652, 22898.00
3028.581, 22920.84
3030.509, 22930.18
3032.438, 22942.54
3034.366, 22972.42
3036.294, 23012.84
3038.223, 23061.69
3040.151, 23108.45
3042.080, 23145.79
3044.008, 23175.80
3045.937, 23196.46
3047.865, 23214.43
3049.794, 23232.32
3051.722, 23245.10
3053.651, 23269.24
3055.579, 23269.46
3057.508, 23311.09
3059.436, 23337.65
3061.365, 23349.91
3063.293, 23354.97
3065.221, 23356.67
3067.150, 23366.75
3069.078, 23382.19
3071.007, 23395.01
3072.935, 23411.69
3074.864, 23447.94
3076.792, 23481.98
3078.721, 23498.73
3080.649, 23506.77
3082.578, 23505.88
3084.506, 23511.57
3086.435, 23537.11
3088.363, 23557.91
3090.292, 23566.84
3092.220, 23590.63
3094.148, 23634.86
3096.077, 23658.21
3098.005, 23656.46
3099.934, 23656.34
3101.862, 23659.35
3103.791, 23678.84
3105.719, 23706.09
3107.648, 23721.98
3109.576, 23731.12
3111.505, 23733.13
3113.433, 23737.90
3115.362, 23759.01
3117.290, 23774.96
3119.219, 23765.05
3121.147, 23763.19
3123.075, 23785.76
3125.004, 23799.38
3126.932, 23790.62
3128.861, 23789.65
3130.789, 23797.50
3132.718, 23798.94
3134.646, 23814.11
3136.575, 23812.72
3138.503, 23845.83
3140.432, 23868.66
3142.360, 23881.54
3144.289, 23876.25
3146.217, 23873.40
3148.146, 23896.26
3150.074, 23924.92
3152.002, 23948.06
3153.931, 23962.12
3155.859, 23993.57
3157.788, 24028.83
3159.716, 24042.31
3161.645, 24092.69
3163.573, 24106.35
3165.502, 24095.58
3167.430, 24066.51
3169.359, 24071.28
3171.287, 24104.19
3173.216, 24151.39
3175.144, 24199.84
3177.073, 24224.03
3179.001, 24244.30
3180.929, 24278.69
3182.858, 24314.49
3184.786, 24345.47
3186.715, 24370.99
3188.643, 24406.06
3190.572, 24439.16
3192.500, 24466.51
3194.429, 24499.81
3196.357, 24531.80
3198.286, 24559.86
3200.214, 24592.53
3202.143, 24620.51
3204.071, 24653.85
3206.000, 24717.01
3207.928, 24785.13
3209.856, 24827.69
3211.785, 24869.54
3213.713, 24922.22
3215.642, 24979.46
3217.570, 25040.55
3219.499, 25096.56
3221.427, 25144.72
3223.356, 25191.43
3225.284, 25237.80
3227.213, 25283.26
3229.141, 25329.84
3231.070, 25378.79
3232.998, 25434.54
3234.927, 25502.95
3236.855, 25579.86
3238.783, 25663.64
3240.712, 25746.24
3242.640, 25809.12
3244.569, 25896.18
3246.497, 26047.69
3248.426, 26150.58
3250.354, 26197.86
3252.283, 26254.04
3254.211, 26324.97
3256.140, 26411.76
3258.068, 26509.46
3259.997, 26594.88
3261.925, 26686.57
3263.854, 26809.65
3265.782, 26930.70
3267.710, 27018.70
3269.639, 27110.21
3271.567, 27224.00
3273.496, 27303.57
3275.424, 27383.78
3277.353, 27461.34
3279.281, 27520.13
3281.210, 27598.85
3283.138, 27656.72
3285.067, 27735.93
3286.995, 27817.83
3288.924, 27871.51
3290.852, 27927.39
3292.781, 28020.17
3294.709, 28081.03
3296.637, 28082.25
3298.566, 28105.48
3300.494, 28175.64
3302.423, 28219.03
3304.351, 28240.16
3306.280, 28270.45
3308.208, 28299.38
3310.137, 28299.32
3312.065, 28287.94
3313.994, 28275.63
3315.922, 28270.43
3317.851, 28247.66
3319.779, 28286.25
3321.708, 28215.97
3323.636, 28181.74
3325.564, 28190.19
3327.493, 28125.81
3329.421, 28008.56
3331.350, 27938.23
3333.278, 27877.35
3335.207, 27766.25
3337.135, 27653.88
3339.064, 27579.91
3340.992, 27514.30
3342.921, 27451.87
3344.849, 27384.50
3346.778, 27317.55
3348.706, 27258.66
3350.635, 27181.81
3352.563, 27112.81
3354.491, 27046.62
3356.420, 26968.63
3358.348, 26900.11
3360.277, 26827.39
3362.205, 26750.69
3364.134, 26666.03
3366.062, 26590.27
3367.991, 26497.43
3369.919, 26436.84
3371.848, 26318.26
3373.776, 26228.32
3375.705, 26154.55
3377.633, 26055.33
3379.562, 25975.38
3381.490, 25985.01
3383.418, 25976.71
3385.347, 25900.49
3387.275, 25827.41
3389.204, 25767.05
3391.132, 25726.40
3393.061, 25702.49
3394.989, 25688.41
3396.918, 25671.22
3398.846, 25611.75
3400.775, 25557.22
3402.703, 25550.32
3404.632, 25546.31
3406.560, 25522.68
3408.489, 25500.84
3410.417, 25481.51
3412.345, 25469.07
3414.274, 25461.32
3416.202, 25437.75
3418.131, 25413.55
3420.059, 25404.99
3421.988, 25414.16
3423.916, 25447.93
3425.845, 25484.94
3427.773, 25520.39
3429.702, 25530.09
3431.630, 25506.75
3433.559, 25510.97
3435.487, 25535.47
3437.416, 25578.06
3439.344, 25608.38
3441.272, 25583.45
3443.201, 25548.90
3445.129, 25516.82
3447.058, 25500.61
3448.986, 25503.28
3450.915, 25499.22
3452.843, 25486.07
3454.772, 25474.90
3456.700, 25451.74
3458.629, 25385.75
3460.557, 25308.69
3462.486, 25250.44
3464.414, 25168.10
3466.343, 25047.54
3468.271, 24936.35
3470.199, 24836.58
3472.128, 24731.38
3474.056, 24612.48
3475.985, 24445.26
3477.913, 24279.02
3479.842, 24170.23
3481.770, 24049.32
3483.699, 23889.95
3485.627, 23756.05
3487.556, 23659.13
3489.484, 23567.68
3491.413, 23476.78
3493.341, 23373.62
3495.270, 23263.39
3497.198, 23142.40
3499.126, 23035.71
3501.055, 22957.35
3502.983, 22891.48
3504.912, 22842.62
3506.840, 22751.81
3508.769, 22639.99
3510.697, 22561.68
3512.626, 22513.46
3514.554, 22504.64
3516.483, 22495.18
3518.411, 22471.85
3520.340, 22426.58
3522.268, 22401.30
3524.197, 22328.45
3526.125, 22318.76
3528.053, 22265.54
3529.982, 22210.06
3531.910, 22196.89
3533.839, 22187.21
3535.767, 22165.63
3537.696, 22135.97
3539.624, 22098.82
3541.553, 22062.79
3543.481, 22031.47
3545.410, 22014.94
3547.338, 22003.91
3549.267, 21991.89
3551.195, 21972.46
3553.124, 21939.79
3555.052, 21910.81
3556.980, 21887.61
3558.909, 21870.48
3560.837, 21852.30
3562.766, 21812.36
3564.694, 21771.49
3566.623, 21740.45
3568.551, 21724.63
3570.480, 21725.10
3572.408, 21734.34
3574.337, 21745.76
3576.265, 21700.79
3578.194, 21642.58
3580.122, 21642.96
3582.051, 21646.36
3583.979, 21623.41
3585.907, 21610.42
3587.836, 21620.89
3589.764, 21593.99
3591.693, 21582.59
3593.621, 21539.44
3595.550, 21541.81
3597.478, 21524.77
3599.407, 21503.65
3601.335, 21483.46
3603.264, 21459.67
3605.192, 21433.64
3607.121, 21453.14
3609.049, 21487.53
3610.978, 21492.65
3612.906, 21473.68
3614.834, 21430.49
3616.763, 21388.63
3618.691, 21354.42
3620.620, 21352.00
3622.548, 21369.04
3624.477, 21354.19
3626.405, 21331.83
3628.334, 21324.03
3630.262, 21314.22
3632.191, 21293.68
3634.119, 21285.32
3636.048, 21290.43
3637.976, 21293.92
3639.905, 21293.69
3641.833, 21276.09
3643.761, 21260.80
3645.690, 21253.58
3647.618, 21246.23
3649.547, 21236.71
3651.475, 21245.28
3653.404, 21230.73
3655.332, 21237.97
3657.261, 21212.09
3659.189, 21199.16
3661.118, 21189.07
3663.046, 21179.98
3664.975, 21160.76
3666.903, 21141.52
3668.832, 21175.10
3670.760, 21209.09
3672.688, 21184.99
3674.617, 21174.11
3676.545, 21199.46
3678.474, 21217.05
3680.402, 21222.21
3682.331, 21201.25
3684.259, 21180.55
3686.188, 21193.55
3688.116, 21210.15
3690.045, 21221.66
3691.973, 21227.64
3693.902, 21226.86
3695.830, 21208.22
3697.759, 21184.04
3699.687, 21167.49
3701.615, 21160.78
3703.544, 21150.79
3705.472, 21146.59
3707.401, 21149.08
3709.329, 21147.40
3711.258, 21155.62
3713.186, 21166.36
3715.115, 21163.04
3717.043, 21178.25
3718.972, 21186.71
3720.900, 21188.82
3722.829, 21184.82
3724.757, 21179.77
3726.686, 21161.96
3728.614, 21146.46
3730.542, 21129.14
3732.471, 21130.76
3734.399, 21150.70
3736.328, 21168.05
3738.256, 21180.32
3740.185, 21182.15
3742.113, 21180.95
3744.042, 21178.79
3745.970, 21180.71
3747.899, 21187.78
3749.827, 21197.93
3751.756, 21204.68
3753.684, 21188.06
3755.613, 21179.77
3757.541, 21184.74
3759.469, 21225.10
3761.398, 21289.22
3763.326, 21325.10
3765.255, 21326.12
3767.183, 21261.72
3769.112, 21216.83
3771.040, 21241.35
3772.969, 21250.29
3774.897, 21247.32
3776.826, 21253.42
3778.754, 21258.65
3780.683, 21250.43
3782.611, 21245.90
3784.540, 21255.43
3786.468, 21253.02
3788.396, 21241.93
3790.325, 21222.24
3792.253, 21213.56
3794.182, 21232.46
3796.110, 21249.70
3798.039, 21254.47
3799.967, 21296.93
3801.896, 21296.12
3803.824, 21328.56
3805.753, 21305.45
3807.681, 21306.93
3809.610, 21295.57
3811.538, 21269.12
3813.467, 21250.74
3815.395, 21249.05
3817.323, 21288.93
3819.252, 21320.85
3821.180, 21328.54
3823.109, 21315.66
3825.037, 21338.15
3826.966, 21319.09
3828.894, 21351.87
3830.823, 21352.28
3832.751, 21350.58
3834.680, 21352.82
3836.608, 21348.74
3838.537, 21339.23
3840.465, 21320.47
3842.394, 21308.71
3844.322, 21314.54
3846.250, 21327.50
3848.179, 21344.84
3850.107, 21346.33
3852.036, 21344.54
3853.964, 21350.47
3855.893, 21360.71
3857.821, 21372.99
3859.750, 21399.32
3861.678, 21392.44
3863.607, 21407.81
3865.535, 21383.46
3867.464, 21382.01
3869.392, 21373.14
3871.321, 21357.24
3873.249, 21367.85
3875.177, 21376.53
3877.106, 21381.94
3879.034, 21377.89
3880.963, 21355.03
3882.891, 21359.44
3884.820, 21366.84
3886.748, 21304.96
3888.677, 21244.33
3890.605, 21228.85
3892.534, 21216.22
3894.462, 21201.94
3896.391, 21166.75
3898.319, 21132.87
3900.248, 21147.96
3902.176, 21152.78
3904.104, 21124.58
3906.033, 21113.02
3907.961, 21105.25
3909.890, 21080.83
3911.818, 21057.72
3913.747, 21041.69
3915.675, 21021.68
3917.604, 21000.30
3919.532, 20978.96
3921.461, 20956.48
3923.389, 20923.52
3925.318, 20909.75
3927.246, 20886.44
3929.175, 20874.90
3931.103, 20857.16
3933.031, 20857.32
3934.960, 20860.64
3936.888, 20851.07
3938.817, 20823.70
3940.745, 20788.78
3942.674, 20796.63
3944.602, 20788.78
3946.531, 20724.19
3948.459, 20677.46
3950.388, 20659.44
3952.316, 20674.54
3954.245, 20686.01
3956.173, 20646.22
3958.102, 20615.93
3960.030, 20617.52
3961.958, 20600.24
3963.887, 20571.87
3965.815, 20535.27
3967.744, 20512.07
3969.672, 20512.80
3971.601, 20500.12
3973.529, 20476.38
3975.458, 20454.12
3977.386, 20424.09
3979.315, 20385.84
3981.243, 20364.90
3983.172, 20366.28
3985.100, 20387.91
3987.029, 20394.43
3988.957, 20367.41
3990.885, 20341.40
3992.814, 20314.13
3994.742, 20323.13
3996.671, 20335.36
3998.599, 20299.41
4000.528, 20296.13
4002.456, 20333.95
4004.385, 20326.65
4006.313, 20299.53
4008.242, 20250.80
4010.170, 20222.53
4012.099, 20229.06
4014.027, 20213.39
4015.956, 20197.69
4017.884, 20207.88
4019.813, 20197.81
4021.741, 20160.00
4023.669, 20125.06
4025.598, 20110.13
4027.526, 20123.26
4029.455, 20126.88
4031.383, 20120.93
4033.312, 20136.80
4035.240, 20151.43
4037.169, 20147.62
4039.097, 20126.44
4041.026, 20090.40
4042.954, 20063.85
4044.883, 20049.15
4046.811, 20052.20
4048.740, 20050.45
4050.668, 20045.30
4052.596, 20023.49
4054.525, 19983.37
4056.453, 19959.15
4058.382, 19946.76
4060.310, 19936.39
4062.239, 19926.59
4064.167, 19914.43
4066.096, 19888.81
4068.024, 19865.99
4069.953, 19855.59
4071.881, 19837.38
4073.810, 19813.72
4075.738, 19804.57
4077.667, 19785.66
4079.595, 19771.71
4081.523, 19725.91
4083.452, 19737.84
4085.380, 19727.81
4087.309, 19695.65
4089.237, 19624.35
4091.166, 19604.61
4093.094, 19629.18
4095.023, 19633.10
4096.951, 19624.59
4098.880, 19597.38
4100.808, 19581.44
4102.737, 19576.26
4104.665, 19569.68
4106.594, 19555.10
4108.522, 19531.52
4110.451, 19514.17
4112.379, 19503.27
4114.308, 19496.28
4116.236, 19484.49
4118.165, 19465.72
4120.093, 19451.66
4122.021, 19436.10
4123.950, 19422.28
4125.878, 19401.55
4127.807, 19369.60
4129.735, 19359.19
4131.664, 19363.41
4133.592, 19366.60
4135.521, 19364.22
4137.449, 19359.36
4139.377, 19350.43
4141.306, 19335.03
4143.234, 19324.28
4145.163, 19295.31
4147.091, 19278.46
4149.020, 19254.99
4150.948, 19241.09
4152.877, 19229.25
4154.805, 19219.60
4156.734, 19214.27
4158.662, 19209.17
4160.591, 19208.52
4162.519, 19194.31
4164.448, 19172.04
4166.376, 19149.81
4168.305, 19147.79
4170.233, 19127.01
4172.162, 19132.10
4174.090, 19103.75
4176.019, 19113.37
4177.947, 19109.93
4179.875, 19087.67
4181.804, 19064.89
4183.732, 19045.26
4185.661, 19056.17
4187.589, 19050.39
4189.518, 19015.06
4191.446, 18991.29
4193.375, 18978.73
4195.303, 18967.39
4197.231, 18957.93
4199.160, 18946.52
4201.088, 18917.63
4203.017, 18890.32
4204.945, 18885.70
4206.874, 18871.51
4208.802, 18844.24
4210.731, 18830.98
4212.659, 18822.30
4214.588, 18804.03
4216.516, 18796.41
4218.445, 18792.13
4220.373, 18756.71
4222.302, 18725.42
4224.230, 18719.09
4226.159, 18706.38
4228.087, 18692.57
4230.016, 18678.50
4231.944, 18665.87
4233.873, 18658.39
4235.801, 18657.01
4237.729, 18646.55
4239.658, 18600.31
4241.586, 18558.71
4243.515, 18533.50
4245.443, 18526.52
4247.372, 18536.84
4249.300, 18540.07
4251.229, 18540.39
4253.157, 18541.68
4255.085, 18574.04
4257.014, 18607.83
4258.942, 18625.80
4260.871, 18614.80
4262.799, 18587.92
4264.728, 18591.77
4266.656, 18609.19
4268.585, 18637.41
4270.513, 18631.40
4272.442, 18614.85
4274.370, 18644.92
4276.299, 18678.54
4278.227, 18699.97
4280.156, 18728.45
4282.084, 18743.25
4284.013, 18708.67
4285.941, 18680.81
4287.870, 18671.60
4289.798, 18660.22
4291.727, 18682.90
4293.655, 18669.90
4295.583, 18682.49
4297.512, 18709.71
4299.440, 18687.29
4301.369, 18668.43
4303.297, 18681.05
4305.226, 18698.84
4307.154, 18715.76
4309.083, 18722.77
4311.011, 18728.38
4312.939, 18735.24
4314.868, 18748.68
4316.796, 18761.15
4318.725, 18758.34
4320.653, 18773.09
4322.582, 18802.54
4324.510, 18796.35
4326.439, 18798.01
4328.367, 18849.65
4330.296, 18861.07
4332.224, 18852.29
4334.153, 18883.18
4336.081, 18890.66
4338.010, 18851.00
4339.938, 18857.24
4341.867, 18885.29
4343.795, 18916.22
4345.724, 18938.59
4347.652, 18949.97
4349.581, 18942.69
4351.509, 18929.84
4353.438, 18915.71
4355.366, 18915.52
4357.294, 18934.10
4359.223, 18997.56
4361.151, 19024.98
4363.080, 19000.14
4365.008, 18974.11
4366.937, 18961.87
4368.865, 18981.57
4370.793, 18990.54
4372.722, 18989.99
4374.650, 18984.40
4376.579, 18997.53
4378.507, 18998.92
4380.436, 18999.52
4382.364, 19017.53
4384.293, 19010.71
4386.221, 19026.42
4388.150, 19020.53
4390.078, 19020.40
4392.007, 19003.65
4393.935, 18993.10
4395.864, 18972.54
4397.792, 18958.04
4399.721, 18951.16
4401.649, 18952.53
4403.578, 18954.56
4405.506, 18989.34
4407.435, 19020.73
4409.363, 19017.48
4411.292, 19024.45
4413.220, 19035.33
4415.148, 19035.04
4417.077, 19035.28
4419.005, 19039.88
4420.934, 19042.88
4422.862, 19043.10
4424.791, 19038.44
4426.719, 19044.59
4428.647, 19053.71
4430.576, 19039.02
4432.504, 19041.92
4434.433, 19066.57
4436.361, 19062.90
4438.290, 19049.94
4440.218, 19042.41
4442.147, 19043.09
4444.075, 19053.06
4446.004, 19075.46
4447.932, 19094.02
4449.861, 19103.23
4451.789, 19120.02
4453.718, 19133.04
4455.646, 19134.00
4457.575, 19132.12
4459.503, 19131.68
4461.432, 19140.82
4463.360, 19150.93
4465.289, 19160.75
4467.217, 19173.24
4469.146, 19181.72
4471.074, 19180.49
4473.002, 19197.00
4474.931, 19214.14
4476.859, 19196.16
4478.788, 19190.65
4480.716, 19201.45
4482.645, 19193.76
4484.573, 19194.62
4486.501, 19227.44
4488.430, 19234.83
4490.358, 19227.82
4492.287, 19214.29
4494.215, 19212.95
4496.144, 19220.16
4498.072, 19216.01
4500.001, 19200.48
4501.929, 19176.86
4503.858, 19193.99
4505.786, 19219.70
4507.715, 19228.14
4509.643, 19211.63
4511.572, 19197.73
4513.500, 19211.19
4515.429, 19218.32
4517.357, 19235.68
4519.286, 19251.40
4521.214, 19274.15
4523.143, 19272.63
4525.071, 19284.62
4527.000, 19296.89
4528.928, 19290.06
4530.856, 19290.60
4532.785, 19297.00
4534.713, 19286.97
4536.642, 19295.32
4538.570, 19289.71
4540.499, 19317.03
4542.427, 19293.53
4544.355, 19278.87
4546.284, 19303.95
4548.212, 19342.22
4550.141, 19351.43
4552.069, 19363.98
4553.998, 19377.66
4555.926, 19361.17
4557.855, 19333.38
4559.783, 19303.99
4561.712, 19313.40
4563.640, 19335.56
4565.569, 19355.46
4567.497, 19346.68
4569.426, 19362.28
4571.354, 19355.01
4573.283, 19367.15
4575.211, 19365.23
4577.140, 19361.79
4579.068, 19360.47
4580.997, 19360.12
4582.925, 19347.02
4584.854, 19336.99
4586.782, 19345.48
4588.710, 19352.59
4590.639, 19364.07
4592.567, 19396.24
4594.496, 19400.58
4596.424, 19380.50
4598.353, 19350.14
4600.281, 19338.54
4602.209, 19348.69
4604.138, 19383.87
4606.066, 19400.52
4607.995, 19374.88
4609.923, 19359.07
4611.852, 19345.61
4613.780, 19340.95
4615.709, 19325.32
4617.637, 19348.79
4619.566, 19378.46
4621.494, 19397.71
4623.423, 19399.85
4625.351, 19360.54
4627.280, 19340.54
4629.208, 19358.24
4631.137, 19361.23
4633.065, 19360.85
4634.994, 19364.49
4636.922, 19377.08
4638.851, 19371.40
4640.779, 19311.82
4642.708, 19289.91
4644.636, 19297.20
4646.564, 19307.42
4648.493, 19313.96
4650.421, 19316.67
4652.350, 19325.63
4654.278, 19324.40
4656.207, 19338.79
4658.135, 19340.27
4660.063, 19346.19
4661.992, 19344.42
4663.920, 19347.77
4665.849, 19333.79
4667.777, 19327.10
4669.706, 19314.47
4671.634, 19295.40
4673.563, 19263.38
4675.491, 19274.83
4677.420, 19302.54
4679.348, 19254.18
4681.277, 19261.48
4683.205, 19321.67
4685.134, 19300.52
4687.062, 19301.12
4688.991, 19347.17
4690.919, 19344.49
4692.848, 19332.09
4694.776, 19329.69
4696.705, 19315.63
4698.633, 19294.13
4700.562, 19264.20
4702.490, 19247.63
4704.418, 19247.10
4706.347, 19268.90
4708.275, 19277.13
4710.204, 19274.57
4712.132, 19269.47
4714.061, 19267.59
4715.989, 19265.46
4717.917, 19252.06
4719.846, 19235.74
4721.774, 19221.39
4723.703, 19229.11
4725.631, 19214.76
4727.560, 19173.68
4729.488, 19198.24
4731.417, 19212.39
4733.345, 19178.42
4735.274, 19196.47
4737.202, 19223.30
4739.131, 19234.74
4741.059, 19224.44
4742.988, 19199.35
4744.916, 19148.83
4746.845, 19151.20
4748.773, 19176.41
4750.702, 19192.49
4752.630, 19204.83
4754.559, 19212.55
4756.487, 19209.56
4758.416, 19204.60
4760.344, 19202.97
4762.272, 19221.74
4764.201, 19224.39
4766.129, 19207.07
4768.058, 19163.73
4769.986, 19149.30
4771.915, 19163.94
4773.843, 19137.49
4775.771, 19134.36
4777.700, 19165.73
4779.628, 19175.31
4781.557, 19179.97
4783.485, 19187.51
4785.414, 19194.31
4787.342, 19193.35
4789.271, 19205.97
4791.199, 19195.07
4793.128, 19196.56
4795.056, 19207.11
4796.985, 19180.47
4798.913, 19153.99
4800.842, 19159.01
4802.770, 19143.23
4804.699, 19137.34
4806.627, 19140.21
4808.556, 19138.78
4810.484, 19143.53
4812.413, 19149.60
4814.341, 19150.27
4816.270, 19154.06
4818.198, 19174.38
4820.126, 19186.62
4822.055, 19178.94
4823.983, 19124.38
4825.912, 19102.88
4827.840, 19102.44
4829.769, 19092.90
4831.697, 19133.39
4833.625, 19186.21
4835.554, 19171.49
4837.482, 19163.15
4839.411, 19163.45
4841.339, 19167.54
4843.268, 19156.38
4845.196, 19138.12
4847.125, 19130.57
4849.053, 19135.83
4850.982, 19150.91
4852.910, 19172.76
4854.839, 19169.28
4856.767, 19155.32
4858.696, 19185.09
4860.624, 19191.94
4862.553, 19170.77
4864.481, 19176.78
4866.410, 19158.30
4868.338, 19150.12
4870.267, 19128.86
4872.195, 19109.51
4874.124, 19106.19
4876.052, 19136.46
4877.980, 19167.83
4879.909, 19182.85
4881.837, 19139.79
4883.766, 19122.40
4885.694, 19129.49
4887.623, 19123.82
4889.551, 19116.87
4891.479, 19111.63
4893.408, 19119.05
4895.336, 19085.78
4897.265, 19090.79
4899.193, 19054.33
4901.122, 19071.84
4903.050, 19074.90
4904.979, 19051.85
4906.907, 19031.22
4908.836, 19020.01
4910.764, 19032.38
4912.693, 19013.83
4914.621, 18991.07
4916.550, 19035.54
4918.478, 19041.29
4920.407, 19024.26
4922.335, 19039.47
4924.264, 19026.84
4926.192, 19007.97
4928.121, 19033.35
4930.049, 19011.17
4931.978, 18967.53
4933.906, 18942.62
4935.834, 18949.73
4937.763, 18967.85
4939.691, 18972.15
4941.620, 18975.29
4943.548, 18973.86
4945.477, 18962.90
4947.405, 18958.32
4949.333, 18956.93
4951.262, 18958.79
4953.190, 18932.65
4955.119, 18905.75
4957.047, 18897.78
4958.976, 18883.01
4960.904, 18873.20
4962.833, 18875.81
4964.761, 18892.61
4966.690, 18900.74
4968.618, 18890.57
4970.547, 18879.64
4972.475, 18875.75
4974.404, 18880.90
4976.332, 18860.22
4978.261, 18846.08
4980.189, 18844.15
4982.118, 18824.64
4984.046, 18810.18
4985.975, 18808.38
4987.903, 18843.26
4989.832, 18841.36
4991.760, 18806.94
4993.688, 18782.64
4995.617, 18776.02
4997.545, 18775.50
4999.474, 18758.80
5001.402, 18742.65
5003.331, 18723.01
5005.259, 18685.81
5007.188, 18704.50
5009.116, 18732.64
5011.044, 18718.81
5012.973, 18702.74
5014.901, 18686.61
5016.830, 18670.04
5018.758, 18660.70
5020.687, 18657.22
5022.615, 18658.51
5024.544, 18677.61
5026.472, 18680.43
5028.401, 18656.82
5030.329, 18631.19
5032.258, 18618.12
5034.186, 18617.20
5036.115, 18611.03
5038.043, 18611.67
5039.972, 18609.36
5041.900, 18571.51
5043.829, 18555.61
5045.757, 18556.06
5047.686, 18556.57
5049.614, 18546.06
5051.542, 18523.46
5053.471, 18483.69
5055.399, 18492.96
5057.328, 18489.71
5059.256, 18436.67
5061.185, 18424.74
5063.113, 18407.05
5065.042, 18372.90
5066.970, 18373.68
5068.898, 18393.70
5070.827, 18413.38
5072.755, 18368.78
5074.684, 18354.37
5076.612, 18368.72
5078.541, 18384.36
5080.469, 18366.98
5082.398, 18338.07
5084.326, 18324.93
5086.255, 18324.91
5088.183, 18318.41
5090.112, 18293.28
5092.040, 18271.89
5093.969, 18270.23
5095.897, 18256.00
5097.826, 18270.42
5099.754, 18254.94
5101.683, 18253.44
5103.611, 18271.37
5105.540, 18284.75
5107.468, 18292.81
5109.396, 18304.59
5111.325, 18289.01
5113.253, 18265.49
5115.182, 18252.66
5117.110, 18259.44
5119.039, 18260.55
5120.967, 18245.04
5122.896, 18238.74
5124.824, 18239.85
5126.752, 18242.21
5128.681, 18209.70
5130.609, 18201.81
5132.538, 18213.22
5134.466, 18209.45
5136.395, 18234.10
5138.323, 18250.01
5140.252, 18214.96
5142.180, 18174.22
5144.109, 18167.11
5146.037, 18211.76
5147.966, 18235.40
5149.894, 18216.14
5151.823, 18173.28
5153.751, 18192.39
5155.680, 18191.97
5157.608, 18177.53
5159.537, 18183.41
5161.465, 18163.21
5163.394, 18146.61
5165.322, 18156.62
5167.250, 18132.43
5169.179, 18105.35
5171.107, 18094.86
5173.036, 18141.33
5174.964, 18147.61
5176.893, 18112.32
5178.821, 18072.31
5180.750, 18064.43
5182.678, 18072.28
5184.606, 18076.39
5186.535, 18067.89
5188.463, 18058.14
5190.392, 18052.75
5192.320, 18056.40
5194.249, 18053.94
5196.177, 18046.60
5198.106, 18051.75
5200.034, 18038.14
5201.963, 18008.07
5203.891, 17961.44
5205.820, 17951.90
5207.748, 17967.45
5209.677, 17997.05
5211.605, 18014.56
5213.534, 17987.69
5215.462, 17995.87
5217.391, 17956.16
5219.319, 17962.68
5221.248, 17954.19
5223.176, 17924.58
5225.104, 17930.31
5227.033, 17934.59
5228.961, 17922.70
5230.890, 17908.16
5232.818, 17887.73
5234.747, 17873.91
5236.675, 17864.97
5238.604, 17856.75
5240.532, 17852.91
5242.460, 17849.66
5244.389, 17848.06
5246.317, 17844.44
5248.246, 17837.49
5250.174, 17826.05
5252.103, 17811.21
5254.031, 17790.30
5255.960, 17791.70
5257.888, 17762.96
5259.817, 17789.17
5261.745, 17802.46
5263.674, 17796.56
5265.602, 17774.39
5267.531, 17748.08
5269.459, 17737.46
5271.388, 17737.27
5273.316, 17742.89
5275.245, 17753.18
5277.173, 17699.95
5279.102, 17663.85
5281.030, 17653.25
5282.958, 17596.18
5284.887, 17595.66
5286.815, 17617.07
5288.744, 17613.06
5290.672, 17583.39
5292.601, 17560.54
5294.529, 17551.79
5296.458, 17520.87
5298.386, 17505.36
5300.314, 17503.06
5302.243, 17506.34
5304.171, 17491.50
5306.100, 17474.41
5308.028, 17467.87
5309.957, 17431.12
5311.885, 17409.04
5313.814, 17399.81
5315.742, 17367.48
5317.671, 17338.41
5319.599, 17327.54
5321.528, 17337.29
5323.456, 17322.85
5325.385, 17302.81
5327.313, 17280.47
5329.242, 17250.89
5331.170, 17230.47
5333.099, 17228.14
5335.027, 17240.85
5336.956, 17221.91
5338.884, 17193.23
5340.813, 17165.26
5342.741, 17145.14
5344.669, 17131.17
5346.598, 17119.33
5348.526, 17107.61
5350.455, 17105.20
5352.383, 17109.27
5354.312, 17111.75
5356.240, 17102.14
5358.168, 17083.96
5360.097, 17047.05
5362.025, 16991.62
5363.954, 16969.84
5365.882, 16943.84
5367.811, 16936.25
5369.739, 16915.77
5371.668, 16891.82
5373.596, 16891.96
5375.525, 16853.24
5377.453, 16849.80
5379.382, 16855.26
5381.310, 16855.28
5383.239, 16836.92
5385.167, 16830.35
5387.096, 16818.72
5389.024, 16802.29
5390.953, 16802.38
5392.881, 16770.05
5394.810, 16735.56
5396.738, 16725.13
5398.667, 16717.49
5400.595, 16720.70
5402.523, 16715.31
5404.452, 16658.07
5406.380, 16603.26
5408.309, 16587.05
5410.237, 16611.37
5412.166, 16603.86
5414.094, 16573.51
5416.022, 16548.39
5417.951, 16557.54
5419.879, 16572.96
5421.808, 16564.55
5423.736, 16528.83
5425.665, 16481.19
5427.593, 16469.11
5429.522, 16453.43
5431.450, 16409.04
5433.379, 16380.02
5435.307, 16370.55
5437.236, 16372.25
5439.164, 16375.91
5441.093, 16361.02
5443.021, 16343.74
5444.950, 16334.20
5446.878, 16350.77
5448.807, 16310.15
5450.735, 16272.23
5452.664, 16284.49
5454.592, 16290.40
5456.521, 16273.69
5458.449, 16262.43
5460.377, 16220.42
5462.306, 16205.84
5464.234, 16171.93
5466.163, 16124.07
5468.091, 16114.99
5470.020, 16095.34
5471.948, 16098.05
5473.876, 16072.94
5475.805, 16066.82
5477.733, 16033.53
5479.662, 16030.31
5481.590, 16017.86
5483.519, 16045.67
5485.447, 16050.50
5487.376, 16027.44
5489.304, 16023.89
5491.233, 15979.10
5493.161, 15936.32
5495.090, 15916.18
5497.018, 15890.04
5498.947, 15856.49
5500.875, 15829.77
5502.804, 15820.76
5504.732, 15811.28
5506.661, 15798.51
5508.589, 15773.71
5510.518, 15754.90
5512.446, 15723.64
5514.375, 15712.65
5516.303, 15681.66
5518.231, 15677.11
5520.160, 15664.36
5522.088, 15652.04
5524.017, 15638.01
5525.945, 15615.64
5527.874, 15559.75
5529.802, 15556.77
5531.730, 15546.50
5533.659, 15495.50
5535.587, 15497.26
5537.516, 15510.78
5539.444, 15475.18
5541.373, 15484.46
5543.301, 15462.60
5545.230, 15416.14
5547.158, 15384.85
5549.087, 15370.22
5551.015, 15374.24
5552.944, 15378.14
5554.872, 15330.73
5556.801, 15306.15
5558.729, 15283.04
5560.658, 15251.99
5562.586, 15222.59
5564.515, 15184.97
5566.443, 15168.54
5568.372, 15182.54
5570.300, 15193.52
5572.229, 15155.25
5574.157, 15110.59
5576.085, 15096.06
5578.014, 15097.43
5579.942, 15094.81
5581.871, 15075.18
5583.799, 15028.72
5585.728, 15034.11
5587.656, 14996.44
5589.584, 14941.45
5591.513, 14924.71
5593.441, 14908.77
5595.370, 14905.69
5597.298, 14899.33
5599.227, 14861.79
5601.155, 14870.15
5603.084, 14872.73
5605.012, 14854.06
5606.941, 14813.88
5608.869, 14816.60
5610.798, 14784.30
5612.726, 14727.76
5614.655, 14724.89
5616.583, 14684.97
5618.512, 14661.69
5620.440, 14659.12
5622.369, 14636.12
5624.297, 14601.16
5626.226, 14573.08
5628.154, 14557.69
5630.083, 14556.88
5632.011, 14533.14
5633.939, 14508.41
5635.868, 14491.38
5637.796, 14474.61
5639.725, 14455.25
5641.653, 14444.57
5643.582, 14425.12
5645.510, 14413.97
5647.438, 14390.38
5649.367, 14371.05
5651.295, 14352.42
5653.224, 14323.72
5655.152, 14304.68
5657.081, 14278.88
5659.009, 14247.00
5660.938, 14232.24
5662.866, 14222.98
5664.795, 14218.55
5666.723, 14215.33
5668.652, 14205.35
5670.580, 14186.85
5672.509, 14170.12
5674.437, 14135.33
5676.366, 14102.01
5678.294, 14061.49
5680.223, 14035.14
5682.151, 14026.09
5684.080, 14024.52
5686.008, 13999.75
5687.937, 13996.23
5689.865, 14000.61
5691.793, 13964.84
5693.722, 13930.89
5695.650, 13907.62
5697.579, 13895.63
5699.507, 13891.82
5701.436, 13884.15
5703.364, 13874.82
5705.292, 13853.76
5707.221, 13813.97
5709.149, 13797.60
5711.078, 13770.01
5713.006, 13747.58
5714.935, 13727.58
5716.863, 13709.99
5718.792, 13699.56
5720.720, 13678.19
5722.649, 13665.07
5724.577, 13642.51
5726.506, 13637.41
5728.434, 13611.60
5730.363, 13594.83
5732.291, 13564.54
5734.220, 13545.42
5736.148, 13519.53
5738.077, 13474.58
5740.005, 13444.55
5741.934, 13442.40
5743.862, 13442.81
5745.791, 13428.11
5747.719, 13387.04
5749.647, 13338.21
5751.576, 13319.71
5753.504, 13315.58
5755.433, 13298.63
5757.361, 13295.94
5759.290, 13249.04
5761.218, 13197.85
5763.146, 13180.68
5765.075, 13168.00
5767.003, 13152.25
5768.932, 13146.85
5770.860, 13145.46
5772.789, 13097.02
5774.717, 13061.28
5776.646, 13063.81
5778.574, 13069.17
5780.503, 13005.28
5782.431, 13001.11
5784.360, 12976.58
5786.288, 12942.53
5788.217, 12934.28
5790.145, 12913.27
5792.074, 12895.12
5794.002, 12881.00
5795.931, 12868.26
5797.859, 12854.06
5799.788, 12838.20
5801.716, 12786.75
5803.645, 12794.79
5805.573, 12763.59
5807.501, 12717.62
5809.430, 12701.45
5811.358, 12696.45
5813.287, 12661.93
5815.215, 12653.75
5817.144, 12627.17
5819.072, 12615.96
5821.000, 12632.57
5822.929, 12589.15
5824.857, 12573.75
5826.786, 12531.24
5828.714, 12478.84
5830.643, 12499.76
5832.571, 12460.40
5834.500, 12421.14
5836.428, 12406.04
5838.357, 12413.37
5840.285, 12399.29
5842.214, 12369.01
5844.142, 12344.84
5846.071, 12330.52
5847.999, 12297.13
5849.928, 12292.42
5851.856, 12273.05
5853.785, 12250.29
5855.713, 12235.11
5857.642, 12231.99
5859.570, 12192.64
5861.499, 12172.48
5863.427, 12149.40
5865.355, 12146.07
5867.284, 12117.66
5869.212, 12105.50
5871.141, 12097.33
5873.069, 12070.45
5874.998, 12040.24
5876.926, 12031.80
5878.854, 12020.04
5880.783, 11998.27
5882.711, 11988.44
5884.640, 11966.48
5886.568, 11956.80
5888.497, 11928.21
5890.425, 11905.05
5892.354, 11893.28
5894.282, 11856.67
5896.211, 11834.70
5898.139, 11810.90
5900.068, 11815.80
5901.996, 11748.06
5903.925, 11720.28
5905.853, 11738.88
5907.782, 11759.89
5909.710, 11702.77
5911.639, 11695.58
5913.567, 11709.98
5915.496, 11711.03
5917.424, 11681.91
5919.353, 11676.61
5921.281, 11655.17
5923.209, 11625.73
5925.138, 11610.66
5927.066, 11569.78
5928.995, 11543.57
5930.923, 11549.28
5932.852, 11552.39
5934.780, 11507.44
5936.708, 11511.16
5938.637, 11479.40
5940.565, 11444.80
5942.494, 11428.56
5944.422, 11408.28
5946.351, 11381.28
5948.279, 11378.40
5950.208, 11375.56
5952.136, 11345.99
5954.065, 11328.90
5955.993, 11281.99
5957.922, 11272.21
5959.850, 11238.79
5961.779, 11211.88
5963.707, 11226.40
5965.636, 11213.03
5967.564, 11189.65
5969.493, 11169.75
5971.421, 11150.58
5973.350, 11119.53
5975.278, 11113.21
5977.207, 11094.96
5979.135, 11058.64
5981.063, 11089.96
5982.992, 11072.28
5984.920, 11056.94
5986.849, 11021.05
5988.777, 11000.95
5990.706, 10961.13
5992.634, 10945.27
5994.563, 10912.07
5996.491, 10882.36
5998.419, 10868.35
6000.348, 10841.33
6002.276, 10807.61
6004.205, 10800.65
6006.133, 10784.35
6008.062, 10761.56
6009.990, 10748.20
6011.919, 10733.54
6013.847, 10704.26
6015.776, 10671.81
6017.704, 10658.53
6019.633, 10621.64
6021.561, 10621.17
6023.490, 10601.77
6025.418, 10565.29
6027.347, 10574.14
6029.275, 10538.78
6031.204, 10541.56
6033.132, 10494.42
6035.061, 10477.40
6036.989, 10464.18
6038.917, 10456.06
6040.846, 10434.36
6042.774, 10414.79
6044.703, 10400.99
6046.631, 10376.16
6048.560, 10340.81
6050.488, 10353.66
6052.417, 10342.90
6054.345, 10295.91
6056.273, 10287.87
6058.202, 10287.65
6060.130, 10261.63
6062.059, 10231.03
6063.987, 10206.42
6065.916, 10177.08
6067.844, 10156.36
6069.773, 10127.08
6071.701, 10093.42
6073.630, 10065.87
6075.558, 10053.84
6077.487, 10075.48
6079.415, 10073.14
6081.344, 10025.16
6083.272, 9967.831
6085.201, 9959.783
6087.129, 9951.226
6089.058, 9950.817
6090.986, 9938.594
6092.915, 9910.847
6094.843, 9877.285
6096.771, 9835.253
6098.700, 9819.827
6100.628, 9806.573
6102.557, 9786.616
6104.485, 9763.507
6106.414, 9741.610
6108.342, 9736.202
6110.271, 9705.799
6112.199, 9681.029
6114.127, 9680.166
6116.056, 9616.719
6117.984, 9622.599
6119.913, 9601.874
6121.841, 9577.490
6123.770, 9573.718
6125.698, 9567.879
6127.627, 9540.410
6129.555, 9534.354
6131.484, 9474.401
6133.412, 9500.293
6135.341, 9450.282
6137.269, 9420.589
6139.198, 9417.037
6141.126, 9412.370
6143.055, 9394.068
6144.983, 9364.000
6146.912, 9332.302
6148.840, 9313.919
6150.769, 9301.948
6152.697, 9297.938
6154.625, 9289.614
6156.554, 9237.150
6158.482, 9197.092
6160.411, 9200.295
6162.339, 9196.130
6164.268, 9170.581
6166.196, 9144.265
6168.125, 9134.419
6170.053, 9095.507
6171.981, 9098.752
6173.910, 9084.560
6175.838, 9055.825
6177.767, 9034.292
6179.695, 9013.510
6181.624, 8994.373
6183.552, 8980.635
6185.481, 8972.971
6187.409, 8953.498
6189.338, 8938.339
6191.266, 8920.074
6193.195, 8902.054
6195.123, 8882.768
6197.052, 8865.859
6198.980, 8842.001
6200.909, 8842.000
6202.837, 8834.024
6204.766, 8822.772
6206.694, 8805.799
6208.623, 8774.927
6210.551, 8758.919
6212.479, 8734.842
6214.408, 8709.996
6216.336, 8694.754
6218.265, 8664.397
6220.193, 8653.536
6222.122, 8652.221
6224.050, 8624.161
6225.979, 8592.756
6227.907, 8576.308
6229.835, 8573.899
6231.764, 8566.271
6233.692, 8546.757
6235.621, 8531.916
6237.549, 8487.642
6239.478, 8486.079
6241.406, 8466.236
6243.335, 8439.075
6245.263, 8432.779
6247.192, 8412.789
6249.120, 8392.164
6251.049, 8381.645
6252.977, 8364.320
6254.906, 8325.032
6256.834, 8320.656
6258.763, 8291.559
6260.691, 8273.698
6262.620, 8261.358
6264.548, 8246.055
6266.477, 8230.950
6268.405, 8221.178
6270.333, 8202.477
6272.262, 8187.472
6274.190, 8164.328
6276.119, 8153.774
6278.047, 8131.921
6279.976, 8116.146
6281.904, 8114.999
6283.833, 8073.521
6285.761, 8070.551
6287.689, 8047.091
6289.618, 8056.852
6291.546, 8021.436
6293.475, 7985.310
6295.403, 7967.139
6297.332, 7934.366
6299.260, 7920.107
6301.189, 7893.489
6303.117, 7891.085
6305.046, 7896.177
6306.974, 7877.498
6308.903, 7853.540
6310.831, 7842.314
6312.760, 7825.574
6314.688, 7808.737
6316.617, 7778.638
6318.545, 7768.746
6320.474, 7754.858
6322.402, 7754.935
6324.331, 7740.355
6326.259, 7716.313
6328.188, 7714.303
6330.116, 7706.196
6332.044, 7666.435
6333.973, 7631.800
6335.901, 7618.354
6337.830, 7607.491
6339.758, 7596.822
6341.687, 7591.842
6343.615, 7586.929
6345.543, 7563.325
6347.472, 7543.153
6349.400, 7520.814
6351.329, 7506.271
6353.257, 7478.309
6355.186, 7448.941
6357.114, 7450.798
6359.043, 7436.450
6360.971, 7409.292
6362.900, 7407.420
6364.828, 7410.325
6366.757, 7389.717
6368.685, 7351.122
6370.614, 7348.940
6372.542, 7331.086
6374.471, 7307.935
6376.399, 7289.328
6378.328, 7283.388
6380.256, 7278.167
6382.185, 7251.491
6384.113, 7237.956
6386.042, 7230.833
6387.970, 7200.064
6389.898, 7171.478
6391.827, 7151.064
6393.755, 7129.636
6395.684, 7125.591
6397.612, 7130.394
6399.541, 7104.906
6401.469, 7088.813
6403.397, 7071.354
6405.326, 7044.040
6407.254, 7028.638
6409.183, 7019.553
6411.111, 7012.489
6413.040, 6976.390
6414.968, 6967.696
6416.897, 6969.102
6418.825, 6949.697
6420.754, 6950.042
6422.682, 6915.470
6424.611, 6881.035
6426.539, 6873.471
6428.468, 6867.249
6430.396, 6859.538
6432.325, 6861.022
6434.253, 6840.852
6436.182, 6803.507
6438.110, 6807.376
6440.039, 6778.406
6441.967, 6750.015
6443.896, 6767.519
6445.824, 6734.920
6447.752, 6713.967
6449.681, 6700.082
6451.609, 6685.066
6453.538, 6661.439
6455.466, 6651.086
6457.395, 6655.851
6459.323, 6655.321
6461.251, 6638.245
6463.180, 6633.152
6465.108, 6626.013
6467.037, 6615.881
6468.965, 6592.442
6470.894, 6555.603
6472.822, 6523.101
6474.751, 6508.323
6476.679, 6516.347
6478.608, 6522.419
6480.536, 6514.742
6482.465, 6487.017
6484.393, 6458.925
6486.322, 6457.911
6488.250, 6448.417
6490.179, 6448.045
6492.107, 6438.256
6494.036, 6409.447
6495.964, 6397.073
6497.893, 6395.529
6499.821, 6367.950
6501.750, 6320.775
6503.678, 6302.236
6505.606, 6295.341
6507.535, 6270.024
6509.463, 6270.256
6511.392, 6253.610
6513.320, 6258.529
6515.249, 6229.606
6517.177, 6222.678
6519.105, 6212.106
6521.034, 6182.076
6522.962, 6187.894
6524.891, 6187.085
6526.819, 6155.478
6528.748, 6140.568
6530.676, 6134.822
6532.605, 6114.447
6534.533, 6099.445
6536.462, 6084.263
6538.390, 6066.754
6540.319, 6058.496
6542.247, 6059.375
6544.176, 6042.690
6546.104, 6027.764
6548.033, 6017.253
6549.961, 5977.806
6551.890, 5984.553
6553.818, 5970.196
6555.747, 5947.813
6557.675, 5954.604
6559.604, 5934.114
6561.532, 5911.561
6563.460, 5899.499
6565.389, 5892.098
6567.317, 5899.821
6569.246, 5884.417
6571.174, 5869.203
6573.103, 5859.771
6575.031, 5834.419
6576.959, 5807.622
6578.888, 5807.955
6580.816, 5801.702
6582.745, 5778.853
6584.673, 5763.791
6586.602, 5762.230
6588.530, 5749.272
6590.459, 5735.910
6592.387, 5721.239
6594.316, 5713.994
6596.244, 5688.153
6598.173, 5676.539
6600.101, 5670.410
6602.030, 5653.071
6603.958, 5642.123
6605.887, 5612.776
6607.815, 5616.886
6609.744, 5603.241
6611.672, 5596.025
6613.601, 5592.839
6615.529, 5588.542
6617.458, 5575.152
6619.386, 5547.603
6621.314, 5524.502
6623.243, 5506.211
6625.171, 5508.200
6627.100, 5491.291
6629.028, 5498.540
6630.957, 5496.190
##END=



