##NAMES=Erionite-K
##RRUFFID=R061104
##IDEAL CHEMISTRY=K_10_[Si_26_Al_10_O_72_]·30H_2_O
##LOCALITY=Chase Creek, Falkland, British Columbia, Canada
##OWNER=RRUFF
##SOURCE=Michael Scott
##DESCRIPTION=A cavity lined with randomly oriented colorless prismatic crystals
##STATUS=The identification of this mineral has been confirmed by single-crystal X-ray diffraction
##URL=https://www.rruff.net/odr/rruff_sample/R061104
##DIFFRACTION SAMPLE DESCRIPTION=Single crystal, powder profile is calculated
##CELL PARAMETERS=a: 13.246 b: 13.246 c: 15.106 alpha: 90 beta: 90 gamma: 120 volume: 2295 crystal system: hexagonal
##FILETYPE=Raman RAW
##RAMAN WAVELENGTH=532

250.2134, 10610.60
252.1418, 10661.81
254.0703, 10693.92
255.9988, 10725.83
257.9272, 10762.96
259.8557, 10796.57
261.7842, 10814.59
263.7126, 10813.23
265.6411, 10830.49
267.5696, 10883.03
269.4980, 10954.61
271.4265, 11018.58
273.3550, 11073.35
275.2834, 11121.40
277.2119, 11166.99
279.1404, 11212.18
281.0688, 11250.80
282.9973, 11279.50
284.9258, 11299.01
286.8542, 11315.45
288.7827, 11326.13
290.7112, 11345.16
292.6396, 11374.55
294.5681, 11414.77
296.4966, 11453.50
298.4250, 11485.97
300.3535, 11515.88
302.2820, 11555.77
304.2104, 11615.63
306.1389, 11668.12
308.0674, 11698.59
309.9958, 11714.46
311.9243, 11740.39
313.8528, 11786.53
315.7813, 11829.87
317.7097, 11859.82
319.6382, 11863.71
321.5667, 11888.12
323.4951, 11948.55
325.4236, 12015.71
327.3521, 12062.59
329.2805, 12080.57
331.2090, 12097.85
333.1375, 12118.37
335.0659, 12142.36
336.9944, 12167.03
338.9228, 12193.48
340.8513, 12217.22
342.7798, 12239.91
344.7082, 12263.36
346.6367, 12291.18
348.5652, 12316.36
350.4936, 12337.37
352.4221, 12356.71
354.3506, 12373.87
356.2790, 12395.64
358.2075, 12428.55
360.1360, 12483.74
362.0644, 12524.46
363.9929, 12537.65
365.9214, 12539.49
367.8498, 12548.57
369.7783, 12567.74
371.7068, 12594.50
373.6352, 12623.97
375.5637, 12653.04
377.4922, 12677.08
379.4206, 12697.02
381.3491, 12729.91
383.2776, 12780.75
385.2060, 12858.42
387.1345, 12909.98
389.0630, 12923.67
390.9914, 12921.19
392.9199, 12940.67
394.8484, 12994.18
396.7768, 13038.50
398.7053, 13057.08
400.6338, 13045.62
402.5622, 13056.77
404.4907, 13095.44
406.4192, 13133.46
408.3476, 13154.88
410.2761, 13163.65
412.2046, 13186.56
414.1330, 13218.28
416.0615, 13254.12
417.9900, 13292.60
419.9184, 13346.79
421.8469, 13390.88
423.7754, 13414.40
425.7038, 13422.30
427.6323, 13452.30
429.5608, 13510.37
431.4892, 13568.08
433.4177, 13597.97
435.3462, 13592.76
437.2746, 13596.99
439.2031, 13644.70
441.1316, 13722.35
443.0600, 13792.34
444.9885, 13822.27
446.9170, 13850.28
448.8454, 13891.75
450.7739, 13950.66
452.7024, 14011.22
454.6308, 14074.50
456.5593, 14129.07
458.4878, 14164.05
460.4162, 14163.34
462.3447, 14183.67
464.2732, 14244.37
466.2016, 14320.75
468.1301, 14381.29
470.0586, 14423.91
471.9870, 14466.31
473.9155, 14514.71
475.8440, 14561.80
477.7724, 14593.46
479.7009, 14601.76
481.6294, 14615.91
483.5578, 14651.62
485.4863, 14717.18
487.4148, 14768.33
489.3432, 14792.27
491.2717, 14796.21
493.2002, 14788.52
495.1286, 14791.20
497.0571, 14800.06
498.9856, 14810.99
500.9140, 14810.91
502.8425, 14798.43
504.7710, 14780.87
506.6994, 14762.73
508.6279, 14737.82
510.5564, 14712.29
512.4849, 14702.86
514.4133, 14718.31
516.3418, 14732.41
518.2703, 14731.86
520.1987, 14709.15
522.1272, 14696.48
524.0557, 14701.70
525.9841, 14727.25
527.9126, 14761.45
529.8411, 14798.39
531.7695, 14834.54
533.6980, 14873.38
535.6265, 14904.36
537.5549, 14920.02
539.4834, 14919.24
541.4119, 14923.38
543.3403, 14934.18
545.2688, 14953.24
547.1973, 14982.86
549.1257, 15020.83
551.0542, 15059.26
552.9827, 15102.00
554.9111, 15153.18
556.8396, 15188.99
558.7681, 15179.68
560.6965, 15167.45
562.6250, 15187.16
564.5535, 15265.04
566.4819, 15323.67
568.4104, 15347.56
570.3389, 15353.09
572.2673, 15360.32
574.1958, 15368.82
576.1243, 15383.91
578.0527, 15411.17
579.9812, 15446.19
581.9097, 15471.14
583.8381, 15480.21
585.7665, 15486.22
587.6950, 15494.82
589.6235, 15501.67
591.5519, 15511.89
593.4804, 15521.30
595.4089, 15542.33
597.3373, 15577.41
599.2658, 15622.93
601.1943, 15658.67
603.1227, 15670.07
605.0512, 15679.28
606.9797, 15704.96
608.9081, 15765.18
610.8366, 15809.47
612.7651, 15819.68
614.6935, 15814.51
616.6220, 15829.46
618.5505, 15873.28
620.4789, 15914.14
622.4074, 15937.64
624.3359, 15949.58
626.2643, 15970.22
628.1928, 16004.40
630.1213, 16041.52
632.0497, 16083.53
633.9782, 16127.32
635.9067, 16160.33
637.8351, 16170.63
639.7636, 16183.14
641.6921, 16213.68
643.6205, 16269.50
645.5490, 16300.26
647.4775, 16281.11
649.4059, 16258.16
651.3344, 16261.20
653.2629, 16289.20
655.1913, 16323.99
657.1198, 16368.44
659.0483, 16415.59
660.9767, 16459.70
662.9052, 16509.11
664.8337, 16539.22
666.7621, 16528.58
668.6906, 16503.61
670.6191, 16501.17
672.5475, 16532.35
674.4760, 16565.85
676.4045, 16587.66
678.3329, 16602.40
680.2614, 16636.43
682.1899, 16708.67
684.1183, 16761.59
686.0468, 16755.29
687.9753, 16721.81
689.9037, 16720.47
691.8322, 16785.41
693.7607, 16838.23
695.6891, 16849.28
697.6176, 16830.48
699.5461, 16832.15
701.4745, 16865.26
703.4030, 16896.73
705.3315, 16909.15
707.2599, 16908.50
709.1884, 16921.82
711.1169, 16960.93
713.0453, 17004.32
714.9738, 17049.20
716.9023, 17094.09
718.8307, 17126.12
720.7592, 17135.25
722.6877, 17143.79
724.6161, 17169.28
726.5446, 17216.20
728.4731, 17244.04
730.4016, 17224.59
732.3300, 17196.05
734.2585, 17198.62
736.1870, 17235.96
738.1154, 17280.27
740.0439, 17333.17
741.9724, 17390.81
743.9008, 17429.42
745.8293, 17431.10
747.7578, 17430.62
749.6862, 17451.72
751.6147, 17494.17
753.5432, 17522.59
755.4716, 17535.46
757.4001, 17541.61
759.3286, 17534.79
761.2570, 17512.48
763.1855, 17516.10
765.1140, 17564.88
767.0424, 17630.83
768.9709, 17699.17
770.8994, 17741.40
772.8278, 17766.92
774.7563, 17780.20
776.6848, 17787.36
778.6132, 17779.33
780.5417, 17784.20
782.4702, 17804.33
784.3986, 17841.08
786.3271, 17872.04
788.2556, 17891.46
790.1840, 17910.25
792.1125, 17935.78
794.0410, 17964.93
795.9694, 17995.02
797.8979, 18039.57
799.8264, 18088.42
801.7548, 18131.29
803.6833, 18173.91
805.6118, 18206.02
807.5402, 18183.46
809.4687, 18138.01
811.3972, 18129.68
813.3256, 18161.07
815.2541, 18200.86
817.1826, 18250.82
819.1110, 18316.34
821.0395, 18360.71
822.9680, 18374.39
824.8964, 18382.62
826.8249, 18405.09
828.7534, 18429.68
830.6818, 18448.51
832.6103, 18460.43
834.5388, 18471.13
836.4672, 18493.17
838.3957, 18518.15
840.3242, 18526.93
842.2526, 18521.71
844.1811, 18528.60
846.1096, 18564.84
848.0380, 18612.37
849.9665, 18673.63
851.8950, 18735.27
853.8234, 18771.80
855.7519, 18763.26
857.6804, 18736.45
859.6088, 18721.45
861.5373, 18727.77
863.4658, 18756.40
865.3942, 18798.21
867.3227, 18840.05
869.2512, 18879.41
871.1796, 18913.53
873.1081, 18941.46
875.0366, 18961.46
876.9650, 18962.05
878.8935, 18946.54
880.8220, 18948.98
882.7504, 18994.42
884.6789, 19065.90
886.6074, 19103.44
888.5358, 19120.61
890.4643, 19142.08
892.3928, 19177.09
894.3212, 19210.82
896.2497, 19236.07
898.1782, 19264.39
900.1066, 19292.90
902.0351, 19319.73
903.9636, 19347.72
905.8920, 19377.74
907.8205, 19387.95
909.7490, 19400.68
911.6774, 19430.83
913.6059, 19473.51
915.5344, 19509.61
917.4628, 19527.89
919.3913, 19537.12
921.3198, 19547.77
923.2482, 19563.50
925.1767, 19566.96
927.1052, 19558.90
929.0336, 19587.35
930.9621, 19661.16
932.8906, 19729.76
934.8190, 19755.48
936.7475, 19762.76
938.6760, 19779.68
940.6044, 19815.41
942.5329, 19848.21
944.4614, 19864.50
946.3898, 19862.00
948.3183, 19866.19
950.2468, 19880.47
952.1752, 19894.33
954.1037, 19890.57
956.0322, 19896.42
957.9606, 19948.02
959.8891, 20038.67
961.8176, 20103.59
963.7460, 20119.58
965.6745, 20127.14
967.6030, 20136.77
969.5314, 20117.74
971.4599, 20122.07
973.3884, 20182.26
975.3168, 20264.62
977.2453, 20301.98
979.1738, 20283.29
981.1022, 20273.28
983.0307, 20292.00
984.9592, 20323.97
986.8876, 20360.33
988.8161, 20387.64
990.7446, 20394.78
992.6730, 20380.25
994.6015, 20392.01
996.5300, 20463.37
998.4584, 20542.37
1000.387, 20573.79
1002.315, 20544.87
1004.244, 20528.20
1006.172, 20554.27
1008.101, 20596.02
1010.029, 20620.12
1011.958, 20624.51
1013.886, 20641.67
1015.815, 20680.97
1017.743, 20724.46
1019.672, 20776.53
1021.600, 20827.16
1023.529, 20853.03
1025.457, 20847.12
1027.385, 20854.72
1029.314, 20900.37
1031.242, 20944.63
1033.171, 20970.60
1035.099, 20971.75
1037.028, 20986.52
1038.956, 21016.12
1040.885, 21046.46
1042.813, 21069.76
1044.742, 21076.74
1046.670, 21095.42
1048.599, 21136.79
1050.527, 21185.03
1052.456, 21228.10
1054.384, 21262.64
1056.313, 21289.94
1058.241, 21309.07
1060.169, 21327.71
1062.098, 21342.45
1064.026, 21351.67
1065.955, 21368.88
1067.883, 21393.14
1069.812, 21427.47
1071.740, 21490.91
1073.669, 21556.58
1075.597, 21574.65
1077.526, 21532.14
1079.454, 21507.60
1081.382, 21518.57
1083.311, 21552.81
1085.239, 21610.55
1087.168, 21693.35
1089.096, 21746.87
1091.025, 21733.11
1092.953, 21721.62
1094.882, 21740.20
1096.810, 21786.75
1098.739, 21828.63
1100.667, 21867.10
1102.596, 21898.86
1104.524, 21916.57
1106.453, 21927.30
1108.381, 21952.55
1110.309, 21999.63
1112.238, 22038.73
1114.166, 22050.71
1116.095, 22062.45
1118.023, 22096.45
1119.952, 22145.25
1121.880, 22183.52
1123.809, 22205.44
1125.737, 22231.41
1127.666, 22249.35
1129.594, 22254.20
1131.523, 22287.69
1133.451, 22389.27
1135.380, 22464.43
1137.308, 22472.78
1139.236, 22449.92
1141.165, 22449.67
1143.093, 22474.08
1145.022, 22501.04
1146.950, 22524.88
1148.879, 22548.18
1150.807, 22577.92
1152.736, 22618.58
1154.664, 22652.14
1156.593, 22671.96
1158.521, 22697.11
1160.450, 22733.86
1162.378, 22773.18
1164.307, 22817.08
1166.235, 22867.04
1168.163, 22888.27
1170.092, 22861.65
1172.020, 22827.85
1173.949, 22805.96
1175.877, 22798.10
1177.806, 22834.38
1179.734, 22952.75
1181.663, 23059.70
1183.591, 23113.00
1185.520, 23120.52
1187.448, 23114.68
1189.377, 23109.90
1191.305, 23111.08
1193.234, 23102.90
1195.162, 23095.39
1197.090, 23123.50
1199.019, 23207.10
1200.947, 23260.18
1202.876, 23267.83
1204.804, 23277.00
1206.733, 23319.67
1208.661, 23391.67
1210.590, 23433.42
1212.518, 23420.67
1214.447, 23422.34
1216.375, 23474.51
1218.304, 23524.51
1220.232, 23535.30
1222.161, 23524.17
1224.089, 23517.49
1226.017, 23532.64
1227.946, 23567.45
1229.874, 23619.04
1231.803, 23678.26
1233.731, 23730.65
1235.660, 23760.36
1237.588, 23783.32
1239.517, 23804.47
1241.445, 23824.11
1243.374, 23831.90
1245.302, 23837.82
1247.231, 23867.38
1249.159, 23921.64
1251.088, 23967.46
1253.016, 23988.33
1254.944, 23998.12
1256.873, 24013.33
1258.801, 24032.32
1260.730, 24046.36
1262.658, 24058.30
1264.587, 24078.03
1266.515, 24105.14
1268.444, 24115.63
1270.372, 24112.20
1272.301, 24146.63
1274.229, 24193.48
1276.158, 24220.38
1278.086, 24221.37
1280.015, 24241.41
1281.943, 24302.41
1283.871, 24346.92
1285.800, 24368.81
1287.728, 24403.49
1289.657, 24480.98
1291.585, 24579.82
1293.514, 24612.54
1295.442, 24570.36
1297.371, 24558.51
1299.299, 24604.25
1301.228, 24671.38
1303.156, 24726.34
1305.085, 24770.19
1307.013, 24785.53
1308.942, 24773.70
1310.870, 24781.17
1312.798, 24811.84
1314.727, 24855.27
1316.655, 24907.26
1318.584, 24979.26
1320.512, 25002.37
1322.441, 24977.41
1324.369, 24969.28
1326.298, 25005.88
1328.226, 25069.04
1330.155, 25094.33
1332.083, 25108.68
1334.012, 25131.95
1335.940, 25141.08
1337.869, 25148.48
1339.797, 25184.47
1341.725, 25256.96
1343.654, 25309.52
1345.582, 25313.27
1347.511, 25302.63
1349.439, 25323.94
1351.368, 25376.01
1353.296, 25415.49
1355.225, 25419.87
1357.153, 25428.54
1359.082, 25457.77
1361.010, 25491.32
1362.939, 25541.80
1364.867, 25612.29
1366.796, 25676.51
1368.724, 25726.59
1370.652, 25762.37
1372.581, 25761.07
1374.509, 25753.89
1376.438, 25790.36
1378.366, 25883.75
1380.295, 25944.61
1382.223, 25943.23
1384.152, 25927.83
1386.080, 25905.26
1388.009, 25902.31
1389.937, 25932.12
1391.866, 25992.88
1393.794, 26048.31
1395.723, 26123.36
1397.651, 26189.15
1399.579, 26210.79
1401.508, 26201.03
1403.436, 26199.16
1405.365, 26208.29
1407.293, 26218.70
1409.222, 26224.21
1411.150, 26237.59
1413.079, 26265.32
1415.007, 26300.02
1416.936, 26337.54
1418.864, 26379.00
1420.793, 26427.54
1422.721, 26495.33
1424.650, 26553.38
1426.578, 26585.04
1428.506, 26588.77
1430.435, 26565.61
1432.363, 26497.20
1434.292, 26476.66
1436.220, 26557.35
1438.149, 26642.33
1440.077, 26694.14
1442.006, 26721.85
1443.934, 26748.05
1445.863, 26766.07
1447.791, 26792.97
1449.720, 26843.69
1451.648, 26889.25
1453.577, 26905.21
1455.505, 26906.03
1457.433, 26927.81
1459.362, 26989.24
1461.290, 27030.00
1463.219, 27036.86
1465.147, 27041.63
1467.076, 27057.14
1469.004, 27082.71
1470.933, 27115.64
1472.861, 27158.79
1474.790, 27199.13
1476.718, 27236.84
1478.647, 27269.41
1480.575, 27293.74
1482.504, 27310.49
1484.432, 27318.04
1486.360, 27308.84
1488.289, 27321.44
1490.217, 27374.95
1492.146, 27439.43
1494.074, 27513.14
1496.003, 27581.10
1497.931, 27602.32
1499.860, 27566.97
1501.788, 27553.01
1503.717, 27580.80
1505.645, 27624.82
1507.574, 27679.96
1509.502, 27740.40
1511.431, 27799.53
1513.359, 27860.28
1515.287, 27893.67
1517.216, 27868.88
1519.144, 27855.78
1521.073, 27893.01
1523.001, 27949.03
1524.930, 27973.21
1526.858, 27956.60
1528.787, 27978.97
1530.715, 28089.29
1532.644, 28172.76
1534.572, 28179.47
1536.501, 28162.07
1538.429, 28175.26
1540.358, 28222.29
1542.286, 28268.26
1544.214, 28327.28
1546.143, 28363.21
1548.071, 28347.21
1550.000, 28328.51
1551.928, 28347.93
1553.857, 28400.69
1555.785, 28444.76
1557.714, 28466.42
1559.642, 28496.74
1561.571, 28538.75
1563.499, 28587.41
1565.428, 28654.49
1567.356, 28726.03
1569.285, 28756.01
1571.213, 28718.61
1573.141, 28700.71
1575.070, 28701.98
1576.998, 28726.59
1578.927, 28800.21
1580.855, 28886.67
1582.784, 28923.15
1584.712, 28896.14
1586.641, 28901.21
1588.569, 28969.22
1590.498, 29034.73
1592.426, 29085.11
1594.355, 29118.01
1596.283, 29122.38
1598.212, 29108.89
1600.140, 29136.12
1602.068, 29228.92
1603.997, 29291.02
1605.925, 29280.70
1607.854, 29261.69
1609.782, 29264.51
1611.711, 29284.50
1613.639, 29314.32
1615.568, 29354.07
1617.496, 29387.96
1619.425, 29412.07
1621.353, 29436.43
1623.282, 29457.56
1625.210, 29484.02
1627.139, 29537.72
1629.067, 29610.52
1630.995, 29646.53
1632.924, 29628.35
1634.852, 29621.38
1636.781, 29642.92
1638.709, 29678.39
1640.638, 29719.30
1642.566, 29768.84
1644.495, 29844.56
1646.423, 29951.25
1648.352, 30005.99
1650.280, 29950.60
1652.209, 29916.34
1654.137, 29985.73
1656.066, 30074.93
1657.994, 30087.83
1659.922, 30047.86
1661.851, 30060.64
1663.779, 30149.27
1665.708, 30211.79
1667.636, 30197.96
1669.565, 30187.76
1671.493, 30233.93
1673.422, 30305.55
1675.350, 30355.97
1677.279, 30386.01
1679.207, 30414.88
1681.136, 30442.60
1683.064, 30473.56
1684.993, 30502.82
1686.921, 30541.69
1688.849, 30608.96
1690.778, 30690.06
1692.706, 30749.25
1694.635, 30783.97
1696.563, 30818.10
1698.492, 30871.90
1700.420, 30896.05
1702.349, 30820.46
1704.277, 30745.63
1706.206, 30790.26
1708.134, 30922.43
1710.063, 31012.71
1711.991, 31050.48
1713.920, 31080.79
1715.848, 31106.41
1717.776, 31133.23
1719.705, 31166.21
1721.633, 31200.45
1723.562, 31229.43
1725.490, 31253.80
1727.419, 31278.17
1729.347, 31299.75
1731.276, 31330.51
1733.204, 31393.39
1735.133, 31442.39
1737.061, 31440.00
1738.990, 31418.05
1740.918, 31417.92
1742.847, 31439.97
1744.775, 31497.04
1746.703, 31625.43
1748.632, 31707.53
1750.560, 31676.04
1752.489, 31643.87
1754.417, 31676.43
1756.346, 31744.29
1758.274, 31804.36
1760.203, 31856.76
1762.131, 31892.56
1764.060, 31895.73
1765.988, 31910.77
1767.917, 31949.53
1769.845, 31994.73
1771.774, 32041.11
1773.702, 32086.02
1775.630, 32125.31
1777.559, 32159.01
1779.487, 32186.23
1781.416, 32211.05
1783.344, 32223.06
1785.273, 32199.69
1787.201, 32188.82
1789.130, 32216.28
1791.058, 32268.78
1792.987, 32330.63
1794.915, 32402.03
1796.844, 32472.11
1798.772, 32562.59
1800.701, 32609.00
1802.629, 32577.60
1804.557, 32539.14
1806.486, 32497.69
1808.414, 32480.55
1810.343, 32538.53
1812.271, 32661.98
1814.200, 32730.11
1816.128, 32718.25
1818.057, 32738.52
1819.985, 32837.14
1821.914, 32919.23
1823.842, 32957.44
1825.771, 32962.31
1827.699, 32910.58
1829.628, 32834.44
1831.556, 32860.72
1833.484, 33002.97
1835.413, 33089.66
1837.341, 33078.23
1839.270, 33062.49
1841.198, 33062.16
1843.127, 33080.21
1845.055, 33111.46
1846.984, 33166.15
1848.912, 33297.46
1850.841, 33491.20
1852.769, 33544.98
1854.698, 33383.75
1856.626, 33296.54
1858.555, 33421.08
1860.483, 33541.31
1862.411, 33533.28
1864.340, 33484.19
1866.268, 33494.42
1868.197, 33550.89
1870.125, 33581.46
1872.054, 33570.34
1873.982, 33599.93
1875.911, 33722.91
1877.839, 33819.34
1879.768, 33848.81
1881.696, 33855.56
1883.625, 33860.55
1885.553, 33867.85
1887.482, 33888.33
1889.410, 33923.47
1891.339, 33946.41
1893.267, 33942.02
1895.195, 33955.05
1897.124, 34006.40
1899.052, 34052.14
1900.981, 34069.21
1902.909, 34081.78
1904.838, 34117.47
1906.766, 34166.13
1908.695, 34183.12
1910.623, 34163.90
1912.552, 34202.21
1914.480, 34338.21
1916.409, 34433.58
1918.337, 34421.49
1920.266, 34407.47
1922.194, 34463.52
1924.122, 34533.42
1926.051, 34553.76
1927.979, 34539.62
1929.908, 34532.08
1931.836, 34530.05
1933.765, 34570.35
1935.693, 34690.40
1937.622, 34778.34
1939.550, 34781.58
1941.479, 34772.47
1943.407, 34790.84
1945.336, 34817.31
1947.264, 34819.79
1949.193, 34806.68
1951.121, 34827.74
1953.049, 34898.72
1954.978, 34954.55
1956.906, 34981.45
1958.835, 35014.28
1960.763, 35091.01
1962.692, 35134.59
1964.620, 35052.87
1966.549, 34959.50
1968.477, 35013.48
1970.406, 35175.14
1972.334, 35250.42
1974.263, 35232.96
1976.191, 35224.22
1978.120, 35225.33
1980.048, 35265.80
1981.976, 35405.46
1983.905, 35505.99
1985.833, 35449.44
1987.762, 35361.32
1989.690, 35376.79
1991.619, 35452.16
1993.547, 35461.14
1995.476, 35399.43
1997.404, 35413.97
1999.333, 35559.40
2001.261, 35665.83
2003.190, 35688.61
2005.118, 35707.07
2007.047, 35751.09
2008.975, 35795.20
2010.903, 35817.64
2012.832, 35828.63
2014.760, 35845.33
2016.689, 35867.51
2018.617, 35889.59
2020.546, 35909.97
2022.474, 35940.29
2024.403, 35988.03
2026.331, 36030.21
2028.260, 36062.62
2030.188, 36084.55
2032.117, 36084.91
2034.045, 36083.55
2035.974, 36108.76
2037.902, 36145.53
2039.830, 36145.93
2041.759, 36109.82
2043.687, 36123.75
2045.616, 36220.36
2047.544, 36287.66
2049.473, 36288.78
2051.401, 36298.15
2053.330, 36360.53
2055.258, 36407.29
2057.187, 36358.97
2059.115, 36298.53
2061.044, 36352.29
2062.972, 36487.45
2064.900, 36563.88
2066.829, 36580.67
2068.757, 36569.25
2070.686, 36519.98
2072.614, 36495.84
2074.543, 36519.36
2076.471, 36548.83
2078.400, 36580.29
2080.328, 36598.27
2082.257, 36576.27
2084.185, 36547.58
2086.114, 36554.61
2088.042, 36590.58
2089.970, 36631.80
2091.899, 36677.70
2093.827, 36734.58
2095.756, 36821.61
2097.684, 36879.55
2099.613, 36895.49
2101.541, 36897.29
2103.470, 36876.07
2105.398, 36860.77
2107.327, 36857.34
2109.255, 36874.31
2111.184, 36927.52
2113.112, 37004.72
2115.041, 37089.57
2116.969, 37177.64
2118.897, 37231.78
2120.826, 37248.31
2122.754, 37242.09
2124.683, 37202.32
2126.611, 37161.43
2128.540, 37093.56
2130.468, 37067.95
2132.397, 37152.28
2134.325, 37246.08
2136.254, 37269.18
2138.182, 37255.79
2140.111, 37251.21
2142.039, 37254.95
2143.968, 37264.56
2145.896, 37280.11
2147.824, 37304.38
2149.753, 37337.30
2151.681, 37383.03
2153.610, 37461.05
2155.538, 37510.69
2157.467, 37471.17
2159.395, 37455.13
2161.324, 37554.61
2163.252, 37660.63
2165.181, 37671.92
2167.109, 37631.85
2169.038, 37590.64
2170.966, 37560.16
2172.895, 37628.34
2174.823, 37798.72
2176.751, 37874.14
2178.680, 37827.73
2180.608, 37785.02
2182.537, 37761.88
2184.465, 37755.38
2186.394, 37758.20
2188.322, 37786.62
2190.251, 37888.06
2192.179, 37974.03
2194.108, 37945.31
2196.036, 37884.09
2197.965, 37919.17
2199.893, 38013.21
2201.822, 38038.90
2203.750, 37997.36
2205.678, 37993.50
2207.607, 38036.19
2209.535, 38031.97
2211.464, 37942.50
2213.392, 37922.49
2215.321, 38053.86
2217.249, 38166.87
2219.178, 38211.31
2221.106, 38207.08
2223.035, 38120.41
2224.963, 38034.39
2226.892, 38029.88
2228.820, 38073.20
2230.749, 38118.59
2232.677, 38162.91
2234.605, 38191.32
2236.534, 38204.71
2238.462, 38219.82
2240.391, 38237.14
2242.319, 38260.30
2244.248, 38292.04
2246.176, 38321.69
2248.105, 38351.50
2250.033, 38371.31
2251.962, 38387.68
2253.890, 38380.94
2255.819, 38290.34
2257.747, 38226.76
2259.676, 38323.53
2261.604, 38469.90
2263.532, 38508.96
2265.461, 38479.72
2267.389, 38489.20
2269.318, 38524.29
2271.246, 38494.83
2273.175, 38393.30
2275.103, 38363.53
2277.032, 38443.48
2278.960, 38510.30
2280.889, 38559.16
2282.817, 38585.19
2284.746, 38556.14
2286.674, 38550.18
2288.603, 38624.38
2290.531, 38684.35
2292.459, 38661.16
2294.388, 38628.41
2296.316, 38658.94
2298.245, 38705.01
2300.173, 38687.36
2302.102, 38642.36
2304.030, 38673.68
2305.959, 38767.50
2307.887, 38798.75
2309.816, 38753.20
2311.744, 38756.58
2313.673, 38828.19
2315.601, 38846.09
2317.530, 38776.39
2319.458, 38742.78
2321.386, 38788.40
2323.315, 38830.44
2325.243, 38835.24
2327.172, 38838.31
2329.100, 38860.53
2331.029, 38878.65
2332.957, 38883.75
2334.886, 38871.45
2336.814, 38807.94
2338.743, 38745.31
2340.671, 38779.98
2342.600, 38870.25
2344.528, 38914.63
2346.457, 38922.63
2348.385, 38941.47
2350.313, 38972.55
2352.242, 38999.45
2354.170, 39022.27
2356.099, 39039.60
2358.027, 39052.10
2359.956, 39057.30
2361.884, 39053.13
2363.813, 39045.54
2365.741, 39030.55
2367.670, 39023.66
2369.598, 39040.49
2371.527, 39051.94
2373.455, 39024.29
2375.384, 39008.94
2377.312, 39066.64
2379.240, 39129.41
2381.169, 39124.45
2383.097, 39084.57
2385.026, 39037.58
2386.954, 39001.91
2388.883, 39040.59
2390.811, 39126.32
2392.740, 39153.76
2394.668, 39128.57
2396.597, 39155.76
2398.525, 39250.63
2400.454, 39303.33
2402.382, 39307.36
2404.311, 39283.62
2406.239, 39218.75
2408.167, 39170.64
2410.096, 39151.20
2412.024, 39134.56
2413.953, 39098.66
2415.881, 39096.61
2417.810, 39177.50
2419.738, 39253.80
2421.667, 39294.76
2423.595, 39311.12
2425.524, 39282.84
2427.452, 39261.84
2429.381, 39309.39
2431.309, 39366.34
2433.238, 39366.03
2435.166, 39340.92
2437.094, 39350.42
2439.023, 39361.75
2440.951, 39276.96
2442.880, 39134.09
2444.808, 39092.13
2446.737, 39143.01
2448.665, 39174.47
2450.594, 39187.71
2452.522, 39220.60
2454.451, 39275.98
2456.379, 39291.01
2458.308, 39247.07
2460.236, 39227.65
2462.165, 39249.00
2464.093, 39282.20
2466.021, 39353.62
2467.950, 39375.43
2469.878, 39294.22
2471.807, 39264.82
2473.735, 39369.16
2475.664, 39449.32
2477.592, 39416.00
2479.521, 39380.27
2481.449, 39413.87
2483.378, 39430.88
2485.306, 39350.04
2487.235, 39270.91
2489.163, 39277.06
2491.092, 39305.81
2493.020, 39302.99
2494.948, 39293.05
2496.877, 39313.11
2498.805, 39335.84
2500.734, 39292.89
2502.662, 39236.43
2504.591, 39309.87
2506.519, 39452.98
2508.448, 39466.24
2510.376, 39383.53
2512.305, 39332.78
2514.233, 39309.86
2516.162, 39261.72
2518.090, 39187.82
2520.019, 39210.92
2521.947, 39355.09
2523.875, 39418.82
2525.804, 39389.39
2527.732, 39392.06
2529.661, 39441.54
2531.589, 39443.81
2533.518, 39368.87
2535.446, 39331.83
2537.375, 39387.44
2539.303, 39406.82
2541.232, 39347.58
2543.160, 39319.01
2545.089, 39355.38
2547.017, 39364.87
2548.946, 39288.57
2550.874, 39268.22
2552.802, 39416.89
2554.731, 39531.59
2556.659, 39540.07
2558.588, 39506.20
2560.516, 39397.96
2562.445, 39335.81
2564.373, 39406.13
2566.302, 39484.65
2568.230, 39493.21
2570.159, 39492.77
2572.087, 39535.63
2574.016, 39572.74
2575.944, 39552.98
2577.873, 39522.84
2579.801, 39525.55
2581.729, 39538.38
2583.658, 39537.16
2585.586, 39535.29
2587.515, 39561.27
2589.443, 39584.25
2591.372, 39556.24
2593.300, 39500.11
2595.229, 39425.75
2597.157, 39368.46
2599.086, 39418.75
2601.014, 39524.35
2602.943, 39602.90
2604.871, 39642.54
2606.800, 39577.11
2608.728, 39456.96
2610.656, 39464.94
2612.585, 39567.82
2614.513, 39621.38
2616.442, 39634.25
2618.370, 39634.18
2620.299, 39625.06
2622.227, 39630.97
2624.156, 39648.36
2626.084, 39630.11
2628.013, 39577.08
2629.941, 39536.66
2631.870, 39509.89
2633.798, 39517.12
2635.727, 39556.23
2637.655, 39560.27
2639.583, 39521.53
2641.512, 39529.68
2643.440, 39596.38
2645.369, 39622.59
2647.297, 39606.65
2649.226, 39595.93
2651.154, 39593.71
2653.083, 39586.85
2655.011, 39570.82
2656.940, 39569.46
2658.868, 39589.48
2660.797, 39595.29
2662.725, 39583.63
2664.654, 39579.91
2666.582, 39584.56
2668.510, 39620.11
2670.439, 39712.57
2672.367, 39745.73
2674.296, 39690.11
2676.224, 39659.89
2678.153, 39663.46
2680.081, 39662.78
2682.010, 39651.98
2683.938, 39651.86
2685.867, 39683.46
2687.795, 39666.52
2689.724, 39564.44
2691.652, 39511.60
2693.581, 39519.71
2695.509, 39554.69
2697.438, 39623.21
2699.366, 39655.89
2701.294, 39613.58
2703.223, 39615.07
2705.151, 39700.05
2707.080, 39728.87
2709.008, 39692.06
2710.937, 39583.25
2712.865, 39360.64
2714.794, 39277.37
2716.722, 39462.37
2718.651, 39570.38
2720.579, 39567.74
2722.508, 39558.78
2724.436, 39546.74
2726.365, 39559.48
2728.293, 39613.72
2730.221, 39628.84
2732.150, 39555.61
2734.078, 39533.37
2736.007, 39580.51
2737.935, 39597.25
2739.864, 39570.38
2741.792, 39561.84
2743.721, 39588.83
2745.649, 39587.41
2747.578, 39542.66
2749.506, 39492.55
2751.435, 39429.80
2753.363, 39423.52
2755.292, 39485.20
2757.220, 39509.36
2759.148, 39467.11
2761.077, 39493.38
2763.005, 39620.55
2764.934, 39653.88
2766.862, 39585.96
2768.791, 39584.24
2770.719, 39662.20
2772.648, 39663.88
2774.576, 39567.40
2776.505, 39555.30
2778.433, 39633.24
2780.362, 39668.65
2782.290, 39661.82
2784.219, 39643.59
2786.147, 39615.36
2788.075, 39573.01
2790.004, 39519.22
2791.932, 39523.45
2793.861, 39575.09
2795.789, 39596.33
2797.718, 39588.32
2799.646, 39554.93
2801.575, 39505.87
2803.503, 39481.50
2805.432, 39479.92
2807.360, 39513.59
2809.289, 39555.98
2811.217, 39506.99
2813.146, 39418.86
2815.074, 39425.34
2817.002, 39479.11
2818.931, 39458.59
2820.859, 39420.23
2822.788, 39508.80
2824.716, 39616.85
2826.645, 39554.39
2828.573, 39450.04
2830.502, 39515.84
2832.430, 39607.57
2834.359, 39518.54
2836.287, 39398.83
2838.216, 39390.98
2840.144, 39417.94
2842.073, 39420.34
2844.001, 39416.55
2845.929, 39422.28
2847.858, 39425.30
2849.786, 39399.14
2851.715, 39397.26
2853.643, 39493.17
2855.572, 39558.50
2857.500, 39487.50
2859.429, 39441.39
2861.357, 39507.21
2863.286, 39536.13
2865.214, 39444.02
2867.143, 39355.28
2869.071, 39276.12
2871.000, 39265.32
2872.928, 39369.47
2874.856, 39410.25
2876.785, 39325.83
2878.713, 39275.25
2880.642, 39314.48
2882.570, 39334.64
2884.499, 39330.52
2886.427, 39333.51
2888.356, 39347.43
2890.284, 39331.14
2892.213, 39272.23
2894.141, 39288.20
2896.070, 39384.54
2897.998, 39307.11
2899.927, 39100.17
2901.855, 39088.87
2903.783, 39232.00
2905.712, 39318.42
2907.640, 39354.18
2909.569, 39347.43
2911.497, 39314.07
2913.426, 39278.34
2915.354, 39250.54
2917.283, 39261.70
2919.211, 39277.20
2921.140, 39227.51
2923.068, 39183.22
2924.997, 39244.18
2926.925, 39297.82
2928.854, 39229.75
2930.782, 39154.28
2932.710, 39141.75
2934.639, 39152.85
2936.567, 39182.53
2938.496, 39207.34
2940.424, 39207.53
2942.353, 39219.70
2944.281, 39290.71
2946.210, 39280.88
2948.138, 39130.84
2950.067, 39067.81
2951.995, 39193.91
2953.924, 39200.79
2955.852, 39018.24
2957.781, 39001.99
2959.709, 39161.08
2961.637, 39220.15
2963.566, 39165.77
2965.494, 39132.66
2967.423, 39119.11
2969.351, 39115.75
2971.280, 39119.55
2973.208, 39119.05
2975.137, 39119.95
2977.065, 39146.13
2978.994, 39170.19
2980.922, 39155.95
2982.851, 39109.15
2984.779, 39012.30
2986.708, 38920.59
2988.636, 38859.70
2990.564, 38847.08
2992.493, 38936.05
2994.421, 38996.99
2996.350, 38962.45
2998.278, 38927.42
3000.207, 38917.51
3002.135, 38927.34
3004.064, 38976.75
3005.992, 38943.10
3007.921, 38784.79
3009.849, 38719.82
3011.778, 38782.03
3013.706, 38850.45
3015.635, 38918.65
3017.563, 38857.92
3019.491, 38714.65
3021.420, 38746.46
3023.348, 38882.72
3025.277, 38941.62
3027.205, 38944.41
3029.134, 38893.83
3031.062, 38848.04
3032.991, 38888.63
3034.919, 38942.00
3036.848, 38949.74
3038.776, 38944.88
3040.705, 38952.87
3042.633, 38935.75
3044.562, 38861.57
3046.490, 38786.46
3048.418, 38704.41
3050.347, 38693.91
3052.275, 38799.57
3054.204, 38786.26
3056.132, 38585.23
3058.061, 38549.08
3059.989, 38662.03
3061.918, 38760.04
3063.846, 38826.00
3065.775, 38804.84
3067.703, 38728.02
3069.632, 38645.80
3071.560, 38586.35
3073.489, 38603.23
3075.417, 38635.41
3077.345, 38608.11
3079.274, 38601.72
3081.202, 38701.66
3083.131, 38758.14
3085.059, 38658.78
3086.988, 38601.81
3088.916, 38674.39
3090.845, 38687.98
3092.773, 38619.03
3094.702, 38553.13
3096.630, 38498.51
3098.559, 38467.91
3100.487, 38459.73
3102.416, 38436.99
3104.344, 38423.70
3106.272, 38509.35
3108.201, 38625.56
3110.129, 38665.03
3112.058, 38655.09
3113.986, 38615.19
3115.915, 38553.82
3117.843, 38426.42
3119.772, 38365.89
3121.700, 38472.08
3123.629, 38534.12
3125.557, 38489.73
3127.486, 38454.15
3129.414, 38463.09
3131.343, 38417.59
3133.271, 38320.42
3135.199, 38231.07
3137.128, 38176.11
3139.056, 38323.34
3140.985, 38554.61
3142.913, 38562.37
3144.842, 38488.97
3146.770, 38498.26
3148.699, 38517.63
3150.627, 38479.32
3152.556, 38447.20
3154.484, 38453.99
3156.413, 38454.92
3158.341, 38460.67
3160.270, 38388.39
3162.198, 38209.71
3164.126, 38144.76
3166.055, 38203.32
3167.983, 38221.92
3169.912, 38205.94
3171.840, 38192.30
3173.769, 38193.14
3175.697, 38248.20
3177.626, 38310.26
3179.554, 38314.96
3181.483, 38322.52
3183.411, 38392.95
3185.340, 38429.47
3187.268, 38367.36
3189.197, 38310.74
3191.125, 38271.39
3193.053, 38256.58
3194.982, 38267.39
3196.910, 38287.45
3198.839, 38311.38
3200.767, 38294.54
3202.696, 38254.76
3204.624, 38229.14
3206.553, 38217.14
3208.481, 38226.45
3210.410, 38237.86
3212.338, 38236.82
3214.267, 38236.75
3216.195, 38260.39
3218.124, 38252.56
3220.052, 38210.03
3221.980, 38091.88
3223.909, 37894.60
3225.837, 37906.04
3227.766, 38086.13
3229.694, 38148.33
3231.623, 38119.31
3233.551, 38024.15
3235.480, 37918.27
3237.408, 37826.88
3239.337, 37807.93
3241.265, 37924.11
3243.194, 38031.79
3245.122, 38097.93
3247.051, 38095.70
3248.979, 38014.07
3250.907, 37967.08
3252.836, 37957.31
3254.764, 37902.25
3256.693, 37827.92
3258.621, 37825.66
3260.550, 37857.87
3262.478, 37900.15
3264.407, 37917.37
3266.335, 37849.98
3268.264, 37808.64
3270.192, 37841.96
3272.121, 37863.52
3274.049, 37854.34
3275.978, 37834.13
3277.906, 37801.29
3279.834, 37705.63
3281.763, 37585.06
3283.691, 37560.18
3285.620, 37591.48
3287.548, 37650.79
3289.477, 37695.19
3291.405, 37698.04
3293.334, 37665.50
3295.262, 37585.30
3297.191, 37524.27
3299.119, 37489.47
3301.048, 37522.61
3302.976, 37620.98
3304.905, 37702.82
3306.833, 37752.92
3308.761, 37721.66
3310.690, 37662.91
3312.618, 37639.84
3314.547, 37622.23
3316.475, 37609.91
3318.404, 37564.80
3320.332, 37453.96
3322.261, 37383.65
3324.189, 37362.82
3326.118, 37386.48
3328.046, 37440.76
3329.975, 37465.82
3331.903, 37465.91
3333.832, 37445.11
3335.760, 37412.36
3337.688, 37343.98
3339.617, 37329.52
3341.545, 37439.85
3343.474, 37460.47
3345.402, 37303.23
3347.331, 37198.94
3349.259, 37146.87
3351.188, 37152.89
3353.116, 37194.31
3355.045, 37244.72
3356.973, 37282.02
3358.902, 37275.97
3360.830, 37270.00
3362.759, 37309.83
3364.687, 37288.47
3366.615, 37177.73
3368.544, 37161.67
3370.472, 37247.43
3372.401, 37295.82
3374.329, 37295.75
3376.258, 37175.77
3378.186, 37053.48
3380.115, 37053.64
3382.043, 37085.37
3383.972, 37126.25
3385.900, 37138.22
3387.829, 37093.34
3389.757, 37076.03
3391.686, 37082.95
3393.614, 37092.40
3395.542, 37096.05
3397.471, 37068.07
3399.399, 37037.70
3401.328, 37011.69
3403.256, 37025.78
3405.185, 37171.67
3407.113, 37176.04
3409.042, 37005.29
3410.970, 36892.85
3412.899, 36845.04
3414.827, 36822.29
3416.756, 36814.83
3418.684, 36810.46
3420.613, 36806.41
3422.541, 36791.66
3424.469, 36798.17
3426.398, 36844.29
3428.326, 36858.65
3430.255, 36833.29
3432.183, 36754.16
3434.112, 36658.69
3436.040, 36651.21
3437.969, 36687.88
3439.897, 36738.30
3441.826, 36782.77
3443.754, 36835.13
3445.683, 36810.39
3447.611, 36673.74
3449.540, 36634.12
3451.468, 36672.52
3453.396, 36622.42
3455.325, 36549.04
3457.253, 36580.42
3459.182, 36620.20
3461.110, 36621.71
3463.039, 36578.01
3464.967, 36472.52
3466.896, 36439.35
3468.824, 36488.02
3470.753, 36515.22
3472.681, 36519.20
3474.610, 36483.05
3476.538, 36440.51
3478.467, 36436.56
3480.395, 36392.95
3482.323, 36266.61
3484.252, 36222.25
3486.180, 36287.47
3488.109, 36296.24
3490.037, 36283.06
3491.966, 36356.87
3493.894, 36432.74
3495.823, 36429.58
3497.751, 36386.44
3499.680, 36309.20
3501.608, 36210.14
3503.537, 36087.97
3505.465, 36024.10
3507.394, 36010.08
3509.322, 36031.84
3511.250, 36056.09
3513.179, 36052.95
3515.107, 36033.29
3517.036, 35987.97
3518.964, 35953.82
3520.893, 35933.42
3522.821, 35971.96
3524.750, 36033.51
3526.678, 36018.79
3528.607, 35964.96
3530.535, 35869.18
3532.464, 35825.81
3534.392, 35902.03
3536.321, 35915.71
3538.249, 35853.03
3540.177, 35760.49
3542.106, 35678.09
3544.034, 35741.03
3545.963, 35814.72
3547.891, 35798.86
3549.820, 35750.06
3551.748, 35677.29
3553.677, 35622.33
3555.605, 35586.97
3557.534, 35524.91
3559.462, 35466.95
3561.391, 35498.79
3563.319, 35495.62
3565.248, 35326.79
3567.176, 35231.39
3569.104, 35269.80
3571.033, 35272.18
3572.961, 35236.11
3574.890, 35169.80
3576.818, 35101.86
3578.747, 35044.76
3580.675, 35044.76
3582.604, 35145.19
3584.532, 35178.66
3586.461, 35115.13
3588.389, 35088.17
3590.318, 35057.96
3592.246, 34895.07
3594.175, 34756.40
3596.103, 34795.77
3598.031, 34813.37
3599.960, 34724.14
3601.888, 34711.50
3603.817, 34757.96
3605.745, 34740.46
3607.674, 34704.23
3609.602, 34753.42
3611.531, 34727.14
3613.459, 34497.67
3615.388, 34368.84
3617.316, 34369.59
3619.245, 34315.27
3621.173, 34241.22
3623.102, 34253.91
3625.030, 34259.74
3626.958, 34191.96
3628.887, 34112.89
3630.815, 34021.75
3632.744, 34044.27
3634.672, 34124.30
3636.601, 34001.55
3638.529, 33847.03
3640.458, 33861.92
3642.386, 33866.63
3644.315, 33750.83
3646.243, 33738.99
3648.172, 33809.76
3650.100, 33763.02
3652.029, 33659.16
3653.957, 33567.48
3655.885, 33508.64
3657.814, 33524.76
3659.742, 33488.01
3661.671, 33396.05
3663.599, 33433.58
3665.528, 33509.33
3667.456, 33427.96
3669.385, 33300.28
3671.313, 33136.88
3673.242, 33090.99
3675.170, 33180.20
3677.099, 33232.02
3679.027, 33222.74
3680.956, 33035.77
3682.884, 32882.30
3684.813, 32973.95
3686.741, 32979.38
3688.669, 32825.96
3690.598, 32805.20
3692.526, 32870.03
3694.455, 32840.42
3696.383, 32782.18
3698.312, 32756.93
3700.240, 32691.49
3702.169, 32548.30
3704.097, 32564.86
3706.026, 32679.23
3707.954, 32638.63
3709.883, 32559.45
3711.811, 32531.14
3713.740, 32526.55
3715.668, 32552.15
3717.596, 32491.58
3719.525, 32382.90
3721.453, 32404.54
3723.382, 32413.56
3725.310, 32257.26
3727.239, 32143.72
3729.167, 32137.04
3731.096, 32118.38
3733.024, 32101.46
3734.953, 32185.16
3736.881, 32219.25
3738.810, 32025.35
3740.738, 31940.97
3742.667, 32083.88
3744.595, 32100.21
3746.523, 32028.22
3748.452, 31984.52
3750.380, 31947.59
3752.309, 31888.81
3754.237, 31882.03
3756.166, 31957.34
3758.094, 31927.42
3760.023, 31835.80
3761.951, 31774.23
3763.880, 31720.70
3765.808, 31660.36
3767.737, 31613.33
3769.665, 31582.93
3771.594, 31549.71
3773.522, 31528.46
3775.450, 31551.21
3777.379, 31583.89
3779.307, 31619.22
3781.236, 31629.00
3783.164, 31609.58
3785.093, 31486.96
3787.021, 31345.82
3788.950, 31287.75
3790.878, 31256.30
3792.807, 31232.36
3794.735, 31250.36
3796.664, 31302.18
3798.592, 31377.39
3800.521, 31410.42
3802.449, 31304.96
3804.377, 31213.05
3806.306, 31163.44
3808.234, 31103.78
3810.163, 31044.14
3812.091, 31028.23
3814.020, 30999.25
3815.948, 30888.96
3817.877, 30886.48
3819.805, 30999.56
3821.734, 30925.54
3823.662, 30798.20
3825.591, 30787.68
3827.519, 30822.54
3829.448, 30895.56
3831.376, 30875.12
3833.304, 30783.02
3835.233, 30722.04
3837.161, 30689.42
3839.090, 30703.02
3841.018, 30684.40
3842.947, 30624.49
3844.875, 30628.52
3846.804, 30658.89
3848.732, 30679.73
3850.661, 30627.52
3852.589, 30385.62
3854.518, 30254.53
3856.446, 30239.15
3858.375, 30300.58
3860.303, 30324.69
3862.231, 30172.60
3864.160, 30053.96
3866.088, 30025.28
3868.017, 30027.35
3869.945, 30035.02
3871.874, 30023.46
3873.802, 29982.86
3875.731, 29910.03
3877.659, 29835.53
3879.588, 29760.57
3881.516, 29749.87
3883.445, 29730.45
3885.373, 29613.92
3887.302, 29536.67
3889.230, 29511.23
3891.158, 29449.91
3893.087, 29380.59
3895.015, 29314.04
3896.944, 29242.34
3898.872, 29184.28
3900.801, 29165.89
3902.729, 29165.29
3904.658, 29132.70
3906.586, 29077.92
3908.515, 29013.80
3910.443, 28959.52
3912.372, 28908.58
3914.300, 28865.22
3916.229, 28815.21
3918.157, 28712.34
3920.085, 28645.35
3922.014, 28684.71
3923.942, 28620.62
3925.871, 28504.04
3927.799, 28447.58
3929.728, 28396.69
3931.656, 28313.50
3933.585, 28249.49
3935.513, 28214.57
3937.442, 28178.32
3939.370, 28140.48
3941.299, 28106.61
3943.227, 28085.64
3945.156, 28065.90
3947.084, 27943.61
3949.012, 27811.10
3950.941, 27771.28
3952.869, 27724.17
3954.798, 27651.85
3956.726, 27631.72
3958.655, 27634.16
3960.583, 27627.81
3962.512, 27570.71
3964.440, 27409.12
3966.369, 27359.02
3968.297, 27373.25
3970.226, 27271.30
3972.154, 27190.06
3974.083, 27240.55
3976.011, 27235.43
3977.939, 27160.89
3979.868, 27068.34
3981.796, 26968.79
3983.725, 26877.01
3985.653, 26853.33
3987.582, 26881.62
3989.510, 26831.85
3991.439, 26745.27
3993.367, 26628.02
3995.296, 26586.26
3997.224, 26613.15
3999.153, 26567.98
4001.081, 26496.47
4003.010, 26509.73
4004.938, 26520.32
4006.866, 26476.22
4008.795, 26404.69
4010.723, 26338.12
4012.652, 26311.50
4014.580, 26256.54
4016.509, 26189.10
4018.437, 26126.54
4020.366, 26067.67
4022.294, 26066.00
4024.223, 26046.34
4026.151, 25939.83
4028.080, 25795.17
4030.008, 25699.33
4031.937, 25752.39
4033.865, 25829.86
4035.793, 25757.39
4037.722, 25649.54
4039.650, 25616.20
4041.579, 25513.76
4043.507, 25424.70
4045.436, 25465.47
4047.364, 25460.03
4049.293, 25377.41
4051.221, 25297.25
4053.150, 25296.53
4055.078, 25295.92
4057.007, 25200.90
4058.935, 25154.08
4060.864, 25148.00
4062.792, 25102.99
4064.720, 24988.77
4066.649, 24945.20
4068.577, 24974.33
4070.506, 24943.62
4072.434, 24875.25
4074.363, 24768.90
4076.291, 24686.46
4078.220, 24674.00
4080.148, 24674.01
4082.077, 24618.24
4084.005, 24537.90
4085.934, 24554.18
4087.862, 24545.20
4089.791, 24421.24
4091.719, 24389.56
4093.647, 24392.49
4095.576, 24345.27
4097.504, 24304.33
4099.433, 24229.94
4101.361, 24177.88
4103.290, 24148.93
4105.218, 24196.05
4107.146, 24209.75
4109.075, 24054.48
4111.003, 23984.15
4112.932, 24002.98
4114.860, 23935.73
4116.789, 23868.78
4118.717, 23849.71
4120.646, 23828.66
4122.574, 23799.22
4124.503, 23730.05
4126.431, 23635.90
4128.360, 23508.52
4130.288, 23484.01
4132.217, 23540.88
4134.145, 23487.91
4136.074, 23421.06
4138.002, 23416.89
4139.931, 23392.49
4141.859, 23332.57
4143.788, 23189.13
4145.716, 23084.57
4147.645, 23169.46
4149.573, 23131.46
4151.501, 22972.79
4153.430, 22971.80
4155.358, 22987.27
4157.287, 22887.07
4159.215, 22836.54
4161.144, 22835.32
4163.072, 22872.80
4165.000, 22882.20
4166.929, 22741.95
4168.857, 22698.71
4170.786, 22768.64
4172.714, 22769.45
4174.643, 22726.89
4176.571, 22682.07
4178.500, 22621.58
4180.428, 22558.58
4182.357, 22563.98
4184.285, 22559.36
4186.214, 22500.52
4188.142, 22414.82
4190.071, 22336.40
4191.999, 22330.74
4193.928, 22335.52
4195.856, 22313.81
4197.785, 22285.12
4199.713, 22253.06
4201.642, 22109.58
4203.570, 21972.32
4205.499, 21981.42
4207.427, 21979.62
4209.355, 21936.06
4211.284, 21882.13
4213.212, 21863.75
4215.141, 21886.08
4217.069, 21853.03
4218.998, 21788.17
4220.926, 21770.46
4222.854, 21752.03
4224.783, 21710.15
4226.711, 21590.42
4228.640, 21430.49
4230.568, 21444.63
4232.497, 21506.80
4234.425, 21557.75
4236.354, 21560.64
4238.282, 21522.74
4240.211, 21476.17
4242.139, 21450.16
4244.068, 21474.83
4245.996, 21375.81
4247.925, 21234.26
4249.853, 21258.75
4251.782, 21282.03
4253.710, 21239.52
4255.639, 21226.28
4257.567, 21217.53
4259.496, 21126.49
4261.424, 21096.40
4263.353, 21170.51
4265.281, 21253.51
4267.209, 21283.85
4269.138, 21130.55
4271.066, 21050.35
4272.995, 21091.96
4274.923, 21094.74
4276.852, 21065.36
4278.780, 20993.71
4280.708, 20971.57
4282.637, 20999.27
4284.565, 20974.68
4286.494, 20914.18
4288.422, 20813.09
4290.351, 20771.66
4292.279, 20780.97
4294.208, 20786.68
4296.136, 20795.65
4298.065, 20817.24
4299.993, 20742.79
4301.922, 20639.07
4303.850, 20665.12
4305.779, 20696.72
4307.707, 20699.69
4309.636, 20731.37
4311.564, 20755.85
4313.493, 20724.38
4315.421, 20663.34
4317.350, 20591.08
4319.278, 20611.25
4321.207, 20655.17
4323.135, 20691.73
4325.063, 20621.56
4326.992, 20489.79
4328.920, 20449.81
4330.849, 20485.76
4332.777, 20606.52
4334.706, 20681.11
4336.634, 20679.58
4338.563, 20491.62
4340.491, 20428.99
4342.419, 20579.50
4344.348, 20468.76
4346.276, 20304.71
4348.205, 20301.19
4350.133, 20377.39
4352.062, 20484.07
4353.990, 20357.32
4355.919, 20251.22
4357.847, 20344.39
4359.776, 20368.43
4361.704, 20337.54
4363.633, 20282.76
4365.561, 20250.21
4367.490, 20254.10
4369.418, 20238.32
4371.347, 20224.05
4373.275, 20245.22
4375.204, 20205.80
4377.132, 20121.30
4379.061, 20147.08
4380.989, 20171.67
4382.917, 20143.21
4384.846, 20104.00
4386.774, 20055.40
4388.703, 19971.76
4390.631, 19942.57
4392.560, 19976.72
4394.488, 19962.79
4396.417, 19949.79
4398.345, 20003.34
4400.273, 19977.20
4402.202, 19912.98
4404.130, 19990.32
4406.059, 20034.79
4407.987, 19965.46
4409.916, 19931.07
4411.844, 19908.57
4413.773, 19868.42
4415.701, 19835.56
4417.630, 19812.86
4419.558, 19803.19
4421.487, 19784.31
4423.415, 19738.21
4425.344, 19811.16
4427.272, 19912.80
4429.201, 19897.78
4431.129, 19838.58
4433.058, 19761.73
4434.986, 19738.50
4436.915, 19725.46
4438.843, 19683.33
4440.771, 19720.96
4442.700, 19788.48
4444.628, 19788.24
4446.557, 19747.44
4448.485, 19674.89
4450.414, 19650.39
4452.342, 19621.35
4454.271, 19534.07
4456.199, 19528.47
4458.127, 19564.35
4460.056, 19518.51
4461.984, 19531.58
4463.913, 19619.51
4465.841, 19580.36
4467.770, 19497.11
4469.698, 19417.17
4471.627, 19424.57
4473.555, 19461.48
4475.484, 19371.29
4477.412, 19345.91
4479.341, 19425.45
4481.269, 19360.90
4483.198, 19287.27
4485.126, 19303.66
4487.055, 19340.57
4488.983, 19384.11
4490.912, 19432.53
4492.840, 19426.07
4494.769, 19364.53
4496.697, 19312.65
4498.625, 19312.93
4500.554, 19403.71
4502.482, 19367.96
4504.411, 19267.59
4506.339, 19195.33
4508.268, 19189.39
4510.196, 19235.18
4512.125, 19176.27
4514.053, 19158.22
4515.981, 19268.58
4517.910, 19157.30
4519.838, 19019.95
4521.767, 19103.70
4523.695, 19150.54
4525.624, 19133.41
4527.552, 19064.74
4529.481, 18997.58
4531.409, 18950.42
4533.338, 18978.69
4535.266, 19001.31
4537.195, 18921.05
4539.123, 18955.13
4541.052, 19014.93
4542.980, 18858.18
4544.909, 18782.64
4546.837, 18826.91
4548.766, 18871.07
4550.694, 18877.37
4552.623, 18825.27
4554.551, 18821.72
4556.479, 18819.65
4558.408, 18725.55
4560.336, 18733.07
4562.265, 18801.13
4564.193, 18738.76
4566.122, 18666.06
4568.050, 18617.14
4569.979, 18606.45
4571.907, 18612.48
4573.835, 18621.92
4575.764, 18661.53
4577.692, 18678.61
4579.621, 18559.78
4581.549, 18520.87
4583.478, 18555.04
4585.406, 18536.90
4587.335, 18503.74
4589.263, 18472.09
4591.192, 18563.48
4593.120, 18625.62
4595.049, 18558.82
4596.977, 18431.76
4598.906, 18344.80
4600.834, 18500.75
4602.763, 18505.99
4604.691, 18383.78
4606.620, 18380.01
4608.548, 18382.28
4610.477, 18359.86
4612.405, 18303.93
4614.333, 18278.47
4616.262, 18328.07
4618.190, 18356.50
4620.119, 18348.37
4622.047, 18272.72
4623.976, 18209.30
4625.904, 18171.22
4627.833, 18176.07
4629.761, 18207.37
4631.689, 18245.42
4633.618, 18203.37
4635.546, 18157.54
4637.475, 18147.87
4639.403, 18080.65
4641.332, 18038.81
4643.260, 18104.53
4645.189, 18092.67
4647.117, 18046.17
4649.046, 18048.81
4650.974, 18044.54
4652.903, 18018.26
4654.831, 17929.70
4656.760, 17880.96
4658.688, 17893.22
4660.617, 17875.70
4662.545, 17868.60
4664.474, 17888.27
4666.402, 17888.06
4668.331, 17862.97
4670.259, 17782.93
4672.188, 17811.32
4674.116, 17863.10
4676.044, 17787.76
4677.973, 17765.41
4679.901, 17790.23
4681.830, 17793.30
4683.758, 17781.99
4685.687, 17758.92
4687.615, 17719.38
4689.543, 17699.60
4691.472, 17715.71
4693.400, 17703.29
4695.329, 17677.93
4697.257, 17649.13
4699.186, 17589.41
4701.114, 17534.67
4703.043, 17534.18
4704.971, 17515.70
4706.900, 17486.76
4708.828, 17471.15
4710.757, 17428.39
4712.685, 17373.32
4714.614, 17336.16
4716.542, 17405.60
4718.471, 17554.17
4720.399, 17450.10
4722.328, 17354.99
4724.256, 17352.92
4726.185, 17321.80
4728.113, 17294.64
4730.042, 17290.48
4731.970, 17304.66
4733.898, 17312.12
4735.827, 17286.80
4737.755, 17308.56
4739.684, 17309.55
4741.612, 17185.25
4743.541, 17106.10
4745.469, 17081.62
4747.397, 17121.04
4749.326, 17116.24
4751.254, 17076.67
4753.183, 17072.84
4755.111, 17070.53
4757.040, 17055.80
4758.968, 16991.48
4760.897, 16947.21
4762.825, 16941.81
4764.754, 16906.33
4766.682, 16917.54
4768.611, 16993.60
4770.539, 16950.05
4772.468, 16885.19
4774.396, 16855.70
4776.325, 16927.57
4778.253, 16958.21
4780.182, 16835.13
4782.110, 16772.26
4784.039, 16756.13
4785.967, 16764.03
4787.896, 16778.33
4789.824, 16779.10
4791.752, 16731.73
4793.681, 16737.62
4795.609, 16745.73
4797.538, 16629.21
4799.466, 16548.63
4801.395, 16513.43
4803.323, 16479.58
4805.251, 16565.03
4807.180, 16681.39
4809.108, 16456.39
4811.037, 16336.26
4812.965, 16390.74
4814.894, 16487.09
4816.822, 16503.29
4818.751, 16433.86
4820.679, 16398.43
4822.608, 16373.93
4824.536, 16349.60
4826.465, 16278.67
4828.393, 16251.34
4830.322, 16288.69
4832.250, 16245.62
4834.179, 16213.37
4836.107, 16240.28
4838.036, 16336.05
4839.964, 16354.07
4841.893, 16225.80
4843.821, 16179.86
4845.750, 16152.80
4847.678, 16088.74
4849.606, 16126.02
4851.535, 16166.52
4853.463, 16145.96
4855.392, 16030.61
4857.320, 15941.41
4859.249, 15994.13
4861.177, 15911.71
4863.105, 15852.18
4865.034, 15978.73
4866.962, 15925.59
4868.891, 15832.66
4870.819, 15853.94
4872.748, 15876.14
4874.676, 15869.72
4876.605, 15796.56
4878.533, 15790.87
4880.462, 15799.89
4882.390, 15763.53
4884.319, 15680.11
4886.247, 15609.41
4888.176, 15616.90
4890.104, 15662.73
4892.033, 15700.69
4893.961, 15678.57
4895.890, 15685.97
4897.818, 15689.10
4899.747, 15645.45
4901.675, 15521.95
4903.604, 15409.50
4905.532, 15417.70
4907.460, 15378.54
4909.389, 15351.34
4911.317, 15439.65
4913.246, 15486.37
4915.174, 15468.09
4917.103, 15348.33
4919.031, 15310.97
4920.959, 15296.40
4922.888, 15221.83
4924.816, 15235.05
4926.745, 15276.10
4928.673, 15283.13
4930.602, 15258.00
4932.530, 15210.72
4934.459, 15146.35
4936.387, 15140.10
4938.316, 15153.00
4940.244, 15153.85
4942.173, 15101.82
4944.101, 15053.16
4946.030, 15048.50
4947.958, 15071.48
4949.887, 15069.56
4951.815, 15005.54
4953.744, 14984.50
4955.672, 14960.81
4957.601, 14901.24
4959.529, 14948.94
4961.458, 14939.67
4963.386, 14809.60
4965.314, 14901.87
4967.243, 14938.05
4969.171, 14788.77
4971.100, 14824.58
4973.028, 14802.56
4974.957, 14668.76
4976.885, 14675.46
4978.813, 14672.58
4980.742, 14627.56
4982.670, 14691.34
4984.599, 14676.69
4986.527, 14568.46
4988.456, 14502.78
4990.384, 14513.23
4992.313, 14557.34
4994.241, 14492.77
4996.170, 14462.36
4998.098, 14467.84
5000.027, 14455.82
5001.955, 14469.92
5003.884, 14458.58
5005.812, 14287.34
5007.741, 14305.53
5009.669, 14391.24
5011.598, 14342.44
5013.526, 14319.25
5015.455, 14291.48
5017.383, 14219.50
5019.312, 14204.55
5021.240, 14191.08
5023.168, 14129.83
5025.097, 14132.46
5027.025, 14105.79
5028.954, 13998.30
5030.882, 14034.25
5032.811, 14064.73
5034.739, 14042.32
5036.667, 14058.54
5038.596, 14058.76
5040.524, 14029.22
5042.453, 13979.43
5044.381, 13954.79
5046.310, 13946.36
5048.238, 13903.44
5050.167, 13853.20
5052.095, 13813.93
5054.024, 13825.82
5055.952, 13759.19
5057.881, 13704.55
5059.809, 13786.96
5061.738, 13817.24
5063.666, 13816.97
5065.595, 13815.60
5067.523, 13697.80
5069.452, 13612.26
5071.380, 13643.94
5073.309, 13597.55
5075.237, 13578.29
5077.166, 13603.42
5079.094, 13570.73
5081.022, 13517.61
5082.951, 13464.98
5084.879, 13443.75
5086.808, 13440.51
5088.736, 13442.82
5090.665, 13442.50
5092.593, 13362.13
5094.521, 13284.71
5096.450, 13312.98
5098.378, 13253.36
5100.307, 13215.24
5102.235, 13294.22
5104.164, 13203.08
5106.092, 13147.87
5108.021, 13190.15
5109.949, 13202.02
5111.878, 13177.68
5113.806, 13131.02
5115.735, 13099.58
5117.663, 13109.16
5119.592, 13103.77
5121.520, 12964.13
5123.449, 12982.15
5125.377, 12998.46
5127.306, 12830.51
5129.234, 12855.46
5131.163, 12918.67
5133.091, 12920.42
5135.020, 12881.17
5136.948, 12842.38
5138.876, 12818.98
5140.805, 12828.60
5142.733, 12777.97
5144.662, 12714.05
5146.590, 12791.79
5148.519, 12727.93
5150.447, 12645.99
5152.375, 12709.95
5154.304, 12674.65
5156.232, 12593.05
5158.161, 12513.02
5160.089, 12538.64
5162.018, 12562.16
5163.946, 12560.67
5165.875, 12615.26
5167.803, 12608.09
5169.732, 12568.02
5171.660, 12586.20
5173.589, 12549.53
5175.517, 12478.76
5177.446, 12400.88
5179.374, 12380.46
5181.303, 12381.16
5183.231, 12380.24
5185.160, 12328.33
5187.088, 12303.22
5189.017, 12310.13
5190.945, 12314.76
5192.874, 12336.56
5194.802, 12338.58
5196.730, 12255.15
5198.659, 12312.06
5200.587, 12325.24
5202.516, 12197.60
5204.444, 12203.02
5206.373, 12210.70
5208.301, 12187.82
5210.229, 12160.50
5212.158, 12061.92
5214.086, 11965.48
5216.015, 11980.49
5217.943, 12041.26
5219.872, 12061.24
5221.800, 11999.87
5223.729, 11987.49
5225.657, 11996.60
5227.586, 11993.30
5229.514, 11887.59
5231.443, 11829.53
5233.371, 11824.68
5235.300, 11865.70
5237.228, 11903.16
5239.157, 11870.01
5241.085, 11751.12
5243.014, 11702.73
5244.942, 11735.31
5246.871, 11789.20
5248.799, 11713.80
5250.728, 11606.38
5252.656, 11555.55
5254.584, 11652.48
5256.513, 11654.71
5258.441, 11583.69
5260.370, 11487.76
5262.298, 11570.53
5264.227, 11532.80
5266.155, 11446.98
5268.083, 11570.93
5270.012, 11592.52
5271.940, 11553.55
5273.869, 11495.93
5275.797, 11375.91
5277.726, 11320.54
5279.654, 11336.87
5281.583, 11347.17
5283.511, 11356.72
5285.440, 11335.81
5287.368, 11235.35
5289.297, 11259.35
5291.225, 11246.74
5293.154, 11154.76
5295.082, 11145.81
5297.011, 11083.89
5298.939, 11029.98
5300.868, 11113.70
5302.796, 11141.41
5304.725, 11114.02
5306.653, 11046.92
5308.582, 11032.93
5310.510, 10985.41
5312.438, 10935.33
5314.367, 10993.20
5316.295, 10929.95
5318.224, 10866.86
5320.152, 10894.16
5322.081, 10900.74
5324.009, 10924.50
5325.938, 10949.64
5327.866, 10919.47
5329.794, 10789.57
5331.723, 10685.95
5333.651, 10701.65
5335.580, 10700.66
5337.508, 10652.60
5339.437, 10599.20
5341.365, 10682.42
5343.294, 10704.14
5345.222, 10695.76
5347.151, 10701.43
5349.079, 10639.61
5351.008, 10629.68
5352.936, 10652.51
5354.865, 10551.27
5356.793, 10511.30
5358.722, 10515.79
5360.650, 10528.74
5362.579, 10508.97
5364.507, 10483.40
5366.436, 10464.94
5368.364, 10476.05
5370.292, 10427.66
5372.221, 10345.48
5374.149, 10260.80
5376.078, 10263.49
5378.006, 10300.28
5379.935, 10316.25
5381.863, 10226.01
5383.792, 10187.03
5385.720, 10177.45
5387.648, 10174.34
5389.577, 10173.04
5391.505, 10149.52
5393.434, 10110.77
5395.362, 10072.82
5397.291, 10095.69
5399.219, 10073.77
5401.148, 9992.965
5403.076, 10062.06
5405.005, 10001.97
5406.933, 9922.112
5408.862, 10012.47
5410.790, 9956.053
5412.719, 9964.546
5414.647, 10037.64
5416.576, 9921.365
5418.504, 9873.649
5420.433, 9855.813
5422.361, 9813.111
5424.290, 9747.966
5426.218, 9750.396
5428.146, 9791.295
5430.075, 9789.330
5432.003, 9705.873
5433.932, 9669.816
5435.860, 9711.503
5437.789, 9631.338
5439.717, 9560.312
5441.646, 9551.607
5443.574, 9624.311
5445.502, 9554.165
5447.431, 9518.183
5449.359, 9524.780
5451.288, 9432.515
5453.216, 9443.524
5455.145, 9442.486
5457.073, 9373.648
5459.002, 9397.394
5460.930, 9455.156
5462.859, 9471.117
5464.787, 9381.917
5466.716, 9377.543
5468.644, 9367.721
5470.573, 9328.953
5472.501, 9282.245
5474.430, 9247.856
5476.358, 9215.338
5478.287, 9183.149
5480.215, 9207.603
5482.144, 9162.205
5484.072, 9106.720
5486.000, 9120.734
5487.929, 9115.004
5489.857, 9043.746
5491.786, 8973.744
5493.714, 9045.472
5495.643, 9020.469
5497.571, 9028.809
5499.500, 9102.155
5501.428, 9068.221
5503.356, 9005.915
5505.285, 8951.388
5507.213, 8922.136
5509.142, 8908.252
5511.070, 8866.387
5512.999, 8816.150
5514.927, 8791.283
5516.856, 8740.393
5518.784, 8752.480
5520.713, 8798.151
5522.641, 8752.856
5524.570, 8737.056
5526.498, 8676.159
5528.427, 8585.740
5530.355, 8769.965
5532.284, 8649.270
5534.212, 8506.598
5536.141, 8577.704
5538.069, 8622.268
5539.998, 8607.343
5541.926, 8577.878
5543.854, 8581.871
5545.783, 8550.204
5547.711, 8516.698
5549.640, 8491.028
5551.568, 8471.063
5553.497, 8468.058
5555.425, 8433.004
5557.354, 8369.862
5559.282, 8321.925
5561.210, 8351.284
5563.139, 8376.122
5565.067, 8364.021
5566.996, 8350.674
5568.924, 8334.531
5570.853, 8295.853
5572.781, 8245.885
5574.710, 8343.895
5576.638, 8264.687
5578.567, 8163.722
5580.495, 8196.064
5582.424, 8190.465
5584.352, 8121.836
5586.281, 8052.832
5588.209, 8054.721
5590.138, 8099.681
5592.066, 8066.228
5593.995, 8007.920
5595.923, 8030.235
5597.852, 8042.358
5599.780, 8051.078
5601.708, 8040.177
5603.637, 7978.907
5605.565, 7926.591
5607.494, 7908.219
5609.422, 7904.472
5611.351, 7847.564
5613.279, 7879.489
5615.208, 7854.648
5617.136, 7770.745
5619.064, 7778.002
5620.993, 7738.175
5622.921, 7705.978
5624.850, 7701.521
5626.778, 7699.415
5628.707, 7729.757
5630.635, 7710.448
5632.564, 7632.012
5634.492, 7583.034
5636.421, 7569.165
5638.349, 7584.973
5640.278, 7610.606
5642.206, 7594.442
5644.135, 7497.414
5646.063, 7437.318
5647.992, 7458.663
5649.920, 7496.893
5651.849, 7496.715
5653.777, 7477.572
5655.706, 7460.364
5657.634, 7468.752
5659.563, 7460.260
5661.491, 7406.277
5663.419, 7329.716
5665.348, 7352.470
5667.276, 7346.359
5669.205, 7286.819
5671.133, 7208.481
5673.062, 7271.220
5674.990, 7230.972
5676.918, 7196.204
5678.847, 7211.183
5680.775, 7209.197
5682.704, 7138.153
5684.632, 7137.120
5686.561, 7216.969
5688.489, 7241.109
5690.418, 7148.321
5692.346, 7066.541
5694.275, 7053.565
5696.203, 7109.982
5698.132, 7049.266
5700.060, 6983.871
5701.989, 6964.079
5703.917, 6987.549
5705.846, 6919.726
5707.774, 6909.754
5709.703, 6935.316
5711.631, 6858.699
5713.560, 6889.115
5715.488, 6848.409
5717.417, 6781.123
5719.345, 6823.958
5721.273, 6808.561
5723.202, 6798.477
5725.130, 6783.914
5727.059, 6741.121
5728.987, 6716.091
5730.916, 6664.618
5732.844, 6641.497
5734.772, 6685.369
5736.701, 6738.592
5738.629, 6701.575
5740.558, 6656.802
5742.486, 6658.343
5744.415, 6676.692
5746.343, 6676.768
5748.272, 6631.375
5750.200, 6559.267
5752.129, 6545.592
5754.057, 6544.915
5755.986, 6531.898
5757.914, 6507.973
5759.843, 6490.763
5761.771, 6467.642
5763.700, 6511.264
5765.628, 6542.542
5767.557, 6453.510
5769.485, 6406.250
5771.414, 6423.181
5773.342, 6446.911
5775.271, 6424.817
5777.199, 6335.166
5779.127, 6317.532
5781.056, 6327.290
5782.984, 6307.372
5784.913, 6183.545
5786.841, 6254.518
5788.770, 6289.640
5790.698, 6261.543
5792.626, 6324.560
5794.555, 6255.488
5796.483, 6238.898
5798.412, 6221.166
5800.340, 6089.896
5802.269, 6101.375
5804.197, 6088.425
5806.126, 6053.495
5808.054, 6033.928
5809.983, 6097.939
5811.911, 6089.484
5813.840, 6015.895
5815.768, 5966.123
5817.697, 6080.030
5819.625, 6018.015
5821.554, 5982.772
5823.482, 5971.451
5825.411, 5922.237
5827.339, 5952.696
5829.268, 5945.296
5831.196, 5917.094
5833.125, 5884.257
5835.053, 5802.822
5836.981, 5807.389
5838.910, 5811.967
5840.838, 5805.866
5842.767, 5838.575
5844.695, 5796.920
5846.624, 5819.297
5848.552, 5834.741
5850.480, 5770.609
5852.409, 5730.701
5854.337, 5766.290
5856.266, 5773.816
5858.194, 5723.826
5860.123, 5662.423
5862.051, 5661.413
5863.980, 5639.957
5865.908, 5599.489
5867.837, 5568.390
5869.765, 5561.703
5871.694, 5543.048
5873.622, 5532.623
5875.551, 5536.485
5877.479, 5536.880
5879.408, 5444.360
5881.336, 5409.318
5883.265, 5465.297
5885.193, 5569.918
5887.122, 5539.001
5889.050, 5450.719
5890.979, 5399.664
5892.907, 5388.144
5894.835, 5321.156
5896.764, 5373.351
5898.692, 5346.049
5900.621, 5303.744
5902.549, 5341.170
5904.478, 5294.938
5906.406, 5284.732
5908.334, 5265.838
5910.263, 5237.188
5912.191, 5254.729
5914.120, 5295.357
5916.048, 5243.374
5917.977, 5218.235
5919.905, 5283.783
5921.834, 5191.898
5923.762, 5137.829
5925.691, 5161.601
5927.619, 5213.017
5929.548, 5211.362
5931.476, 5200.785
5933.405, 5141.390
5935.333, 5076.263
5937.262, 5046.129
5939.190, 5077.475
5941.119, 5154.340
5943.047, 5110.430
5944.976, 5032.782
5946.904, 5020.715
5948.833, 4953.287
5950.761, 5015.461
5952.689, 5030.638
5954.618, 4974.005
5956.546, 4921.733
5958.475, 4932.082
5960.403, 4892.474
5962.332, 4847.586
5964.260, 4837.305
5966.188, 4861.515
5968.117, 4807.567
5970.045, 4768.640
5971.974, 4782.593
5973.902, 4819.561
5975.831, 4754.380
5977.759, 4791.582
5979.688, 4802.056
5981.616, 4755.964
5983.545, 4691.846
5985.473, 4717.983
5987.402, 4745.895
5989.330, 4763.150
5991.259, 4748.390
5993.187, 4688.144
5995.116, 4674.427
5997.044, 4688.369
5998.973, 4674.577
6000.901, 4625.419
6002.830, 4573.750
6004.758, 4637.132
6006.687, 4623.495
6008.615, 4596.761
6010.543, 4586.915
6012.472, 4522.920
6014.400, 4546.540
6016.329, 4576.111
6018.257, 4557.625
6020.186, 4498.744
6022.114, 4483.611
6024.042, 4423.921
6025.971, 4469.808
6027.899, 4524.404
6029.828, 4499.065
6031.756, 4413.385
6033.685, 4386.821
6035.613, 4395.847
6037.542, 4401.835
6039.470, 4389.667
6041.399, 4395.931
6043.327, 4327.462
6045.256, 4288.938
6047.184, 4296.992
6049.113, 4312.551
6051.041, 4230.269
6052.970, 4199.103
6054.898, 4236.760
6056.827, 4268.807
6058.755, 4244.755
6060.684, 4205.344
6062.612, 4119.968
6064.541, 4139.743
6066.469, 4198.500
6068.397, 4209.875
6070.326, 4172.588
6072.254, 4167.614
6074.183, 4156.037
6076.111, 4103.866
6078.040, 4045.035
6079.968, 4127.066
6081.896, 4096.421
6083.825, 4093.055
6085.753, 4080.440
6087.682, 4035.737
6089.610, 4016.211
6091.539, 4005.969
6093.467, 4026.971
6095.396, 4003.881
6097.324, 3947.469
6099.253, 3958.464
6101.181, 3948.639
6103.110, 3913.628
6105.038, 3906.744
6106.967, 3915.817
6108.895, 3888.704
6110.824, 3903.895
6112.752, 3885.336
6114.681, 3852.802
6116.609, 3841.565
6118.538, 3863.500
6120.466, 3822.856
6122.395, 3837.066
6124.323, 3813.340
6126.251, 3786.101
6128.180, 3802.046
6130.108, 3829.085
6132.037, 3792.242
6133.965, 3744.758
6135.894, 3739.276
6137.822, 3754.161
6139.750, 3696.804
6141.679, 3665.343
6143.607, 3679.930
6145.536, 3655.934
6147.464, 3623.211
6149.393, 3666.781
6151.321, 3674.512
6153.250, 3661.025
6155.178, 3636.330
6157.107, 3611.641
6159.035, 3599.766
6160.964, 3635.714
6162.892, 3552.846
6164.821, 3510.479
6166.749, 3500.800
6168.678, 3499.370
6170.606, 3515.764
6172.535, 3583.463
6174.463, 3547.965
6176.392, 3497.449
6178.320, 3472.177
6180.249, 3461.870
6182.177, 3439.526
6184.105, 3444.424
6186.034, 3436.098
6187.962, 3434.951
6189.891, 3438.628
6191.819, 3405.648
6193.748, 3380.382
6195.676, 3377.892
6197.604, 3408.791
6199.533, 3387.534
6201.461, 3284.120
6203.390, 3330.369
6205.318, 3307.414
6207.247, 3275.114
6209.175, 3277.519
6211.104, 3293.955
6213.032, 3277.919
6214.961, 3320.429
6216.889, 3289.277
6218.818, 3243.756
6220.746, 3227.304
6222.675, 3233.875
6224.603, 3217.305
6226.532, 3186.320
6228.460, 3168.417
6230.389, 3168.339
6232.317, 3145.810
6234.246, 3091.129
6236.174, 3129.687
6238.103, 3160.263
6240.031, 3146.552
6241.959, 3124.983
6243.888, 3122.015
6245.816, 3132.363
6247.745, 3121.137
6249.673, 3138.662
6251.602, 3108.171
6253.530, 3079.894
6255.458, 3084.033
6257.387, 3071.522
6259.315, 3021.009
6261.244, 3063.805
6263.172, 3065.271
6265.101, 2998.069
6267.029, 2939.193
6268.958, 3013.679
6270.886, 2972.193
6272.815, 2949.894
6274.743, 2959.423
6276.672, 2964.664
6278.600, 2947.984
6280.529, 2946.087
6282.457, 2915.007
6284.386, 2898.903
6286.314, 2883.138
6288.243, 2864.016
6290.171, 2852.910
6292.100, 2870.599
6294.028, 2909.279
6295.957, 2866.981
6297.885, 2831.403
6299.813, 2818.383
6301.742, 2796.390
6303.670, 2763.789
6305.599, 2751.517
6307.527, 2788.601
6309.456, 2786.913
6311.384, 2764.886
6313.313, 2766.701
6315.241, 2765.504
6317.169, 2775.186
6319.098, 2770.314
6321.026, 2721.712
6322.955, 2699.725
6324.883, 2726.396
6326.812, 2705.370
6328.740, 2731.845
6330.669, 2736.310
6332.597, 2705.883
6334.526, 2682.603
6336.454, 2678.565
6338.383, 2660.990
6340.311, 2702.553
6342.240, 2622.553
6344.168, 2607.985
6346.097, 2615.851
6348.025, 2612.178
6349.954, 2630.339
6351.882, 2590.829
6353.811, 2587.760
6355.739, 2603.667
6357.667, 2590.981
6359.596, 2555.206
6361.524, 2527.706
6363.453, 2517.752
6365.381, 2563.197
6367.310, 2512.172
6369.238, 2504.790
6371.167, 2533.131
6373.095, 2525.746
6375.023, 2472.747
6376.952, 2476.427
6378.880, 2469.162
6380.809, 2463.427
6382.737, 2476.689
6384.666, 2489.641
6386.594, 2467.961
6388.523, 2404.174
6390.451, 2473.115
6392.380, 2441.516
6394.308, 2453.475
6396.237, 2448.809
6398.165, 2385.119
6400.094, 2375.853
6402.022, 2352.026
6403.951, 2370.335
6405.879, 2367.727
6407.808, 2404.949
6409.736, 2416.615
6411.665, 2351.033
6413.593, 2359.509
6415.521, 2365.379
6417.450, 2340.379
6419.378, 2306.471
6421.307, 2301.657
6423.235, 2312.825
6425.164, 2306.924
6427.092, 2324.716
6429.021, 2305.326
6430.949, 2303.006
6432.877, 2296.508
6434.806, 2285.896
6436.734, 2269.190
6438.663, 2234.500
6440.591, 2248.136
6442.520, 2246.661
6444.448, 2245.741
6446.377, 2235.610
6448.305, 2205.698
6450.234, 2177.054
6452.162, 2187.500
6454.091, 2196.658
6456.019, 2194.532
6457.948, 2199.002
6459.876, 2139.639
6461.805, 2104.156
6463.733, 2148.591
6465.662, 2177.208
6467.590, 2155.348
6469.519, 2162.595
6471.447, 2061.072
6473.375, 2055.078
6475.304, 2124.296
6477.232, 2144.467
6479.161, 2084.262
6481.089, 2070.957
6483.018, 2084.126
6484.946, 2088.330
6486.875, 2086.028
6488.803, 2073.712
6490.731, 2054.476
6492.660, 2035.788
6494.588, 2001.570
6496.517, 2018.661
6498.445, 1999.419
6500.374, 1996.488
6502.302, 1993.233
6504.231, 1986.208
6506.159, 1983.131
6508.088, 1936.736
6510.016, 2011.023
6511.945, 1980.869
6513.873, 1964.127
6515.802, 1950.429
6517.730, 1931.831
6519.659, 1930.897
6521.587, 1954.849
6523.516, 1943.421
6525.444, 1947.697
6527.373, 1934.325
6529.301, 1929.021
6531.229, 1911.477
6533.158, 1885.179
6535.086, 1878.536
6537.015, 1876.496
6538.943, 1895.962
6540.872, 1878.742
6542.800, 1867.030
6544.729, 1867.755
6546.657, 1856.327
6548.585, 1846.311
6550.514, 1873.095
6552.442, 1825.759
6554.371, 1815.266
6556.299, 1840.243
6558.228, 1836.614
6560.156, 1848.421
6562.085, 1833.221
6564.013, 1775.379
6565.942, 1781.057
6567.870, 1762.795
6569.799, 1770.224
6571.727, 1779.677
6573.656, 1799.329
##END=



