##NAMES=Erionite-Na
##RRUFFID=R061126
##IDEAL CHEMISTRY=Na_10_[Si_26_Al_10_O_72_]·30H_2_O
##LOCALITY=Dunseverick, Ireland
##OWNER=RRUFF
##SOURCE=Michael Scott
##DESCRIPTION=Colorless prismatic crystals frozen in basalt nodules with chabazite
##STATUS=The identification of this mineral is confirmed by single-crystal X-ray diffraction and chemical analysis
##URL=https://www.rruff.net/odr/rruff_sample/R061126
##MEASURED CHEMISTRY=(Na_5.05_K_2.42_Ca_1.08_[box]_1.05_Mg_0.40_)(Si_25.57_Al_10.43_)O_72_·22.80H_2_O ; H_2_O estimated by difference
##DIFFRACTION SAMPLE DESCRIPTION=Single crystal, powder profile is calculated
##CELL PARAMETERS=a: 13.36 b: 13.36 c: 15.24 alpha: 90 beta: 90 gamma: 120 volume: 2357 crystal system: hexagonal
##FILETYPE=Raman RAW
##RAMAN WAVELENGTH=785

160.0310, 1786.304
161.9595, 1784.480
163.8880, 1792.956
165.8164, 1816.051
167.7449, 1840.471
169.6734, 1867.111
171.6018, 1887.998
173.5303, 1895.483
175.4588, 1893.208
177.3872, 1890.694
179.3157, 1887.812
181.2442, 1886.048
183.1726, 1884.965
185.1011, 1886.402
187.0296, 1890.442
188.9580, 1897.363
190.8865, 1909.427
192.8150, 1924.277
194.7434, 1936.744
196.6719, 1947.484
198.6004, 1950.879
200.5288, 1941.437
202.4573, 1931.048
204.3858, 1918.833
206.3142, 1910.831
208.2427, 1916.944
210.1712, 1932.054
212.0996, 1938.262
214.0281, 1930.865
215.9566, 1923.962
217.8850, 1913.708
219.8135, 1909.813
221.7420, 1925.378
223.6704, 1940.643
225.5989, 1934.290
227.5274, 1911.030
229.4558, 1903.143
231.3843, 1922.504
233.3128, 1929.667
235.2412, 1918.062
237.1697, 1904.400
239.0982, 1894.607
241.0266, 1887.320
242.9551, 1882.235
244.8836, 1877.863
246.8120, 1870.697
248.7405, 1861.651
250.6690, 1852.730
252.5974, 1844.277
254.5259, 1833.094
256.4544, 1817.507
258.3828, 1800.949
260.3113, 1783.799
262.2398, 1766.121
264.1682, 1747.658
266.0967, 1728.622
268.0252, 1719.024
269.9536, 1723.960
271.8821, 1727.057
273.8106, 1723.635
275.7390, 1716.519
277.6675, 1704.542
279.5960, 1691.418
281.5244, 1686.362
283.4529, 1687.557
285.3814, 1682.450
287.3098, 1667.568
289.2383, 1655.446
291.1668, 1647.737
293.0952, 1642.686
295.0237, 1643.639
296.9522, 1646.564
298.8806, 1646.447
300.8091, 1642.958
302.7376, 1634.755
304.6660, 1620.319
306.5945, 1610.750
308.5230, 1607.099
310.4514, 1607.618
312.3799, 1611.467
314.3084, 1618.881
316.2368, 1639.719
318.1653, 1661.882
320.0938, 1662.415
322.0222, 1642.550
323.9507, 1635.201
325.8792, 1647.376
327.8076, 1656.116
329.7361, 1656.212
331.6646, 1658.695
333.5930, 1671.679
335.5215, 1687.626
337.4500, 1703.004
339.3784, 1713.862
341.3069, 1712.409
343.2354, 1697.786
345.1638, 1682.374
347.0923, 1667.300
349.0208, 1654.991
350.9492, 1646.979
352.8777, 1636.149
354.8062, 1615.984
356.7346, 1597.534
358.6631, 1590.015
360.5916, 1586.905
362.5201, 1576.523
364.4485, 1561.908
366.3770, 1556.655
368.3055, 1563.562
370.2339, 1567.894
372.1624, 1565.215
374.0909, 1557.189
376.0193, 1542.203
377.9478, 1531.344
379.8763, 1532.508
381.8047, 1535.440
383.7332, 1527.933
385.6617, 1515.309
387.5901, 1510.712
389.5186, 1514.458
391.4471, 1514.316
393.3755, 1512.700
395.3040, 1511.001
397.2325, 1508.468
399.1609, 1503.885
401.0894, 1492.021
403.0179, 1479.615
404.9464, 1474.782
406.8748, 1475.738
408.8033, 1474.528
410.7318, 1468.894
412.6602, 1469.065
414.5887, 1481.597
416.5172, 1491.679
418.4456, 1488.742
420.3741, 1485.471
422.3026, 1493.691
424.2310, 1510.469
426.1595, 1530.332
428.0880, 1553.974
430.0164, 1580.865
431.9449, 1609.190
433.8734, 1644.294
435.8018, 1690.532
437.7303, 1743.200
439.6588, 1795.451
441.5872, 1855.153
443.5157, 1927.477
445.4442, 1999.293
447.3726, 2081.506
449.3011, 2175.848
451.2296, 2270.637
453.1580, 2357.478
455.0865, 2435.344
457.0150, 2507.004
458.9434, 2568.271
460.8719, 2617.120
462.8004, 2663.554
464.7288, 2706.958
466.6573, 2739.841
468.5858, 2764.179
470.5142, 2785.556
472.4427, 2810.972
474.3712, 2816.216
476.2996, 2790.107
478.2281, 2759.505
480.1566, 2741.442
482.0850, 2716.262
484.0135, 2657.307
485.9420, 2572.542
487.8704, 2506.004
489.7989, 2456.653
491.7274, 2371.725
493.6558, 2251.799
495.5843, 2147.267
497.5128, 2074.030
499.4412, 1998.621
501.3697, 1902.091
503.2982, 1810.408
505.2266, 1740.401
507.1551, 1683.174
509.0836, 1628.713
511.0120, 1580.159
512.9405, 1540.367
514.8690, 1506.178
516.7974, 1472.234
518.7259, 1436.289
520.6544, 1405.883
522.5828, 1383.958
524.5113, 1372.984
526.4398, 1374.363
528.3682, 1373.795
530.2967, 1367.558
532.2252, 1363.463
534.1536, 1364.345
536.0821, 1367.935
538.0106, 1374.998
539.9390, 1386.246
541.8675, 1398.392
543.7960, 1413.705
545.7244, 1435.079
547.6529, 1456.252
549.5814, 1469.723
551.5098, 1478.644
553.4383, 1487.939
555.3668, 1504.506
557.2952, 1511.797
559.2237, 1492.928
561.1522, 1466.341
563.0806, 1447.148
565.0091, 1431.328
566.9376, 1413.476
568.8660, 1392.680
570.7945, 1367.181
572.7230, 1339.676
574.6514, 1312.887
576.5799, 1283.911
578.5084, 1250.591
580.4368, 1221.250
582.3653, 1195.540
584.2938, 1162.512
586.2222, 1138.676
588.1507, 1136.570
590.0792, 1135.520
592.0076, 1125.169
593.9361, 1110.392
595.8646, 1091.885
597.7930, 1076.577
599.7215, 1068.853
601.6500, 1062.170
603.5784, 1054.079
605.5069, 1049.805
607.4354, 1047.331
609.3638, 1040.983
611.2923, 1032.580
613.2208, 1026.579
615.1492, 1022.280
617.0777, 1016.754
619.0062, 1014.636
620.9346, 1020.892
622.8631, 1024.426
624.7916, 1019.250
626.7200, 1009.612
628.6485, 994.8960
630.5770, 985.7131
632.5054, 985.8984
634.4339, 989.1713
636.3624, 994.7988
638.2908, 1000.680
640.2193, 1006.988
642.1478, 1007.492
644.0762, 992.9487
646.0047, 975.3732
647.9332, 974.3216
649.8616, 986.8190
651.7901, 987.0549
653.7186, 971.5422
655.6470, 968.4793
657.5755, 978.3887
659.5040, 976.9994
661.4324, 964.7822
663.3609, 959.2167
665.2894, 964.2556
667.2178, 963.5253
669.1463, 951.6758
671.0748, 940.2674
673.0032, 930.7963
674.9317, 924.0209
676.8602, 923.6631
678.7886, 925.9133
680.7171, 930.7607
682.6456, 932.4764
684.5740, 922.5060
686.5025, 908.7100
688.4310, 902.6923
690.3594, 900.2494
692.2879, 893.4581
694.2164, 886.4023
696.1448, 890.4396
698.0733, 901.6115
700.0018, 899.4513
701.9302, 884.4736
703.8587, 876.7834
705.7872, 878.2358
707.7156, 880.7963
709.6441, 884.6214
711.5726, 886.4431
713.5010, 886.4967
715.4295, 883.7192
717.3580, 873.7767
719.2864, 868.3998
721.2149, 874.4915
723.1434, 878.2045
725.0718, 870.8282
727.0003, 865.2979
728.9288, 872.9989
730.8572, 878.7710
732.7857, 865.9086
734.7142, 854.1213
736.6426, 865.0620
738.5711, 880.5923
740.4996, 878.2725
742.4280, 866.9566
744.3565, 860.6558
746.2850, 857.8452
748.2134, 855.7324
750.1419, 854.4450
752.0704, 851.6157
753.9988, 847.2101
755.9273, 847.9958
757.8558, 854.3978
759.7843, 860.0321
761.7128, 865.0717
763.6412, 866.8239
765.5697, 865.1822
767.4982, 858.9131
769.4266, 845.6524
771.3551, 841.6236
773.2836, 853.3159
775.2120, 860.6982
777.1405, 856.9456
779.0690, 853.5135
780.9974, 854.0554
782.9259, 855.1567
784.8544, 856.6474
786.7828, 856.2612
788.7113, 851.5624
790.6398, 847.4142
792.5682, 846.5151
794.4967, 847.6520
796.4252, 852.1089
798.3536, 853.9684
800.2821, 846.5544
802.2106, 839.0012
804.1390, 838.7214
806.0675, 839.1913
807.9960, 839.1238
809.9244, 839.3334
811.8529, 835.0165
813.7814, 826.7930
815.7098, 818.6736
817.6383, 812.1310
819.5668, 801.2879
821.4952, 787.2164
823.4237, 783.2863
825.3522, 786.1500
827.2806, 784.9295
829.2091, 781.8322
831.1376, 777.6567
833.0660, 772.1872
834.9945, 768.9985
836.9230, 768.0942
838.8514, 764.9337
840.7799, 758.6082
842.7084, 753.6631
844.6368, 750.1617
846.5653, 746.0769
848.4938, 743.6183
850.4222, 740.7886
852.3507, 735.0793
854.2792, 731.7177
856.2076, 731.9738
858.1361, 736.5154
860.0646, 746.7204
861.9930, 746.9617
863.9215, 730.5103
865.8500, 719.8903
867.7784, 724.2129
869.7069, 727.3019
871.6354, 724.9659
873.5638, 724.3563
875.4923, 722.3390
877.4208, 716.9384
879.3492, 712.9435
881.2777, 709.7537
883.2062, 704.6636
885.1346, 707.1481
887.0631, 723.5101
888.9916, 733.7322
890.9200, 727.8616
892.8485, 718.3939
894.7770, 713.6005
896.7054, 711.0015
898.6339, 704.2373
900.5624, 702.0396
902.4908, 711.4122
904.4193, 716.8174
906.3478, 712.6071
908.2762, 706.7109
910.2047, 700.8494
912.1332, 696.8138
914.0616, 697.1033
915.9901, 699.1979
917.9186, 698.8165
919.8470, 695.7697
921.7755, 692.1768
923.7040, 689.8829
925.6324, 689.2821
927.5609, 686.4678
929.4894, 682.7773
931.4178, 686.1558
933.3463, 690.3790
935.2748, 684.9236
937.2032, 678.6368
939.1317, 683.0872
941.0602, 692.0741
942.9886, 690.3007
944.9171, 682.1932
946.8456, 682.4115
948.7740, 686.2456
950.7025, 687.9830
952.6310, 691.8119
954.5594, 694.0887
956.4879, 684.2225
958.4164, 674.3030
960.3448, 681.8261
962.2733, 690.1713
964.2018, 689.2192
966.1302, 693.7048
968.0587, 700.2523
969.9872, 698.7592
971.9156, 697.8871
973.8441, 700.4508
975.7726, 697.9418
977.7010, 692.6833
979.6295, 690.4534
981.5580, 685.9152
983.4865, 695.0833
985.4149, 700.7401
987.3434, 703.0741
989.2719, 692.1338
991.2003, 698.3345
993.1288, 697.6659
995.0573, 696.7156
996.9857, 698.9357
998.9142, 701.3419
1000.843, 709.0274
1002.771, 710.4276
1004.700, 705.2924
1006.628, 704.8279
1008.557, 706.4457
1010.485, 705.1558
1012.413, 706.2689
1014.342, 711.9508
1016.270, 717.0156
1018.199, 720.1350
1020.127, 724.3900
1022.056, 726.6742
1023.984, 726.6259
1025.913, 730.7883
1027.841, 733.8580
1029.770, 726.1763
1031.698, 716.5782
1033.627, 714.0234
1035.555, 712.5463
1037.484, 712.1885
1039.412, 716.1691
1041.340, 719.2086
1043.269, 716.2845
1045.197, 707.3067
1047.126, 702.2042
1049.054, 708.4756
1050.983, 715.7421
1052.911, 717.0703
1054.840, 719.7028
1056.768, 725.2512
1058.697, 724.5623
1060.625, 715.8711
1062.554, 713.6371
1064.482, 724.3124
1066.411, 736.0139
1068.339, 745.1430
1070.267, 753.0080
1072.196, 753.2281
1074.124, 750.2197
1076.053, 753.7031
1077.981, 759.9648
1079.910, 762.8021
1081.838, 764.8775
1083.767, 771.2108
1085.695, 779.1893
1087.624, 785.0107
1089.552, 787.6671
1091.481, 785.9910
1093.409, 783.2454
1095.338, 781.4945
1097.266, 777.5555
1099.194, 773.3798
1101.123, 772.6310
1103.051, 771.3358
1104.980, 775.1488
1106.908, 788.0271
1108.837, 790.9370
1110.765, 783.5766
1112.694, 778.9352
1114.622, 770.4965
1116.551, 759.7319
1118.479, 756.0222
1120.408, 757.8958
1122.336, 757.6550
1124.265, 752.0803
1126.193, 744.5681
1128.121, 734.7701
1130.050, 725.7343
1131.978, 728.7222
1133.907, 735.9989
1135.835, 734.6543
1137.764, 727.4869
1139.692, 716.8651
1141.621, 709.8287
1143.549, 713.7061
1145.478, 715.9540
1147.406, 705.3857
1149.335, 693.6025
1151.263, 689.4166
1153.192, 688.4243
1155.120, 687.8644
1157.048, 683.1770
1158.977, 671.9009
1160.905, 666.7712
1162.834, 672.9726
1164.762, 670.8190
1166.691, 655.0443
1168.619, 644.3730
1170.548, 642.2668
1172.476, 646.5569
1174.405, 655.2359
1176.333, 650.9586
1178.262, 635.4749
1180.190, 628.5788
1182.119, 629.4568
1184.047, 627.4807
1185.975, 623.6187
1187.904, 623.7787
1189.832, 624.9197
1191.761, 623.5158
1193.689, 620.5055
1195.618, 614.7958
1197.546, 609.4012
1199.475, 603.3760
1201.403, 598.3456
1203.332, 600.2552
1205.260, 604.4567
1207.189, 609.9103
1209.117, 611.4926
1211.046, 604.0351
1212.974, 599.4462
1214.902, 600.5242
1216.831, 602.3769
1218.759, 606.7816
1220.688, 605.9467
1222.616, 598.6237
1224.545, 591.5361
1226.473, 585.7966
1228.402, 589.8566
1230.330, 598.6678
1232.259, 595.5355
1234.187, 587.5626
1236.116, 583.4471
1238.044, 584.4879
1239.973, 597.1628
1241.901, 610.6238
1243.829, 618.4202
1245.758, 620.4857
1247.686, 615.3494
1249.615, 607.3909
1251.543, 596.3454
1253.472, 588.2484
1255.400, 584.6801
1257.329, 583.6987
1259.257, 585.4573
1261.186, 588.0889
1263.114, 591.5352
1265.043, 590.7066
1266.971, 587.4154
1268.900, 595.2750
1270.828, 606.0342
1272.756, 594.8060
1274.685, 579.8312
1276.613, 590.5296
1278.542, 602.9171
1280.470, 593.0187
1282.399, 585.3149
1284.327, 592.7943
1286.256, 599.6356
1288.184, 601.5158
1290.113, 599.2953
1292.041, 592.5058
1293.970, 588.1704
1295.898, 587.3327
1297.827, 592.5358
1299.755, 601.1739
1301.683, 594.2617
1303.612, 579.8215
1305.540, 578.7426
1307.469, 583.2083
1309.397, 583.1223
1311.326, 582.0197
1313.254, 580.8887
1315.183, 582.6124
1317.111, 594.8431
1319.040, 598.4935
1320.968, 585.5473
1322.897, 576.7321
1324.825, 574.9683
1326.754, 576.4910
1328.682, 580.4490
1330.610, 586.6397
1332.539, 593.9174
1334.467, 596.6852
1336.396, 595.4088
1338.324, 588.1481
1340.253, 581.9729
1342.181, 588.6669
1344.110, 592.3670
1346.038, 576.6522
1347.967, 567.8511
1349.895, 579.9776
1351.824, 587.3039
1353.752, 587.1039
1355.681, 585.9087
1357.609, 584.1432
1359.537, 584.1046
1361.466, 584.3044
1363.394, 578.7165
1365.323, 572.1293
1367.251, 570.7794
1369.180, 571.5607
1371.108, 573.5375
1373.037, 574.8870
1374.965, 575.8617
1376.894, 572.9052
1378.822, 561.3257
1380.751, 556.7840
1382.679, 560.8547
1384.608, 562.0710
1386.536, 561.5632
1388.464, 570.0508
1390.393, 581.1392
1392.321, 583.0381
1394.250, 579.4869
1396.178, 570.8215
1398.107, 564.2745
1400.035, 565.4879
1401.964, 561.3945
1403.892, 544.6499
1405.821, 544.3568
1407.749, 565.3460
1409.678, 565.3744
1411.606, 550.4116
1413.535, 546.3790
1415.463, 548.8765
1417.391, 554.6658
1419.320, 557.4119
1421.248, 550.2073
1423.177, 542.7042
1425.105, 536.4890
1427.034, 539.2205
1428.962, 553.5898
1430.891, 558.9283
1432.819, 554.5018
1434.748, 555.0909
1436.676, 557.0389
1438.605, 548.6082
1440.533, 539.3650
1442.462, 540.9457
1444.390, 544.4673
1446.318, 546.9160
1448.247, 547.2289
1450.175, 545.4512
1452.104, 536.8733
1454.032, 522.5518
1455.961, 522.9573
1457.889, 532.6943
1459.818, 534.3704
1461.746, 534.1297
1463.675, 541.7094
1465.603, 547.2396
1467.532, 543.8638
1469.460, 538.6472
1471.389, 532.3894
1473.317, 526.8334
1475.245, 522.3706
1477.174, 522.7972
1479.102, 526.4162
1481.031, 528.9631
1482.959, 530.8083
1484.888, 532.2863
1486.816, 533.3962
1488.745, 533.8301
1490.673, 534.9310
1492.602, 538.6726
1494.530, 531.7469
1496.459, 516.1823
1498.387, 521.1731
1500.316, 535.9485
1502.244, 539.2009
1504.173, 537.5978
1506.101, 535.0823
1508.030, 532.6474
1509.958, 531.0485
1511.886, 528.5145
1513.815, 524.1644
1515.743, 524.2175
1517.672, 527.6163
1519.600, 531.0096
1521.529, 532.2865
1523.457, 526.6329
1525.386, 522.1404
1527.314, 523.2664
1529.243, 526.9088
1531.171, 534.8830
1533.100, 531.9471
1535.028, 519.5511
1536.957, 516.8806
1538.885, 520.4968
1540.813, 526.3536
1542.742, 531.8524
1544.670, 537.3660
1546.599, 535.5021
1548.527, 521.6288
1550.456, 515.8896
1552.384, 519.7506
1554.313, 523.9014
1556.241, 526.0512
1558.170, 517.5349
1560.098, 509.6533
1562.027, 512.9513
1563.955, 514.7861
1565.884, 511.5881
1567.812, 506.8647
1569.740, 501.2102
1571.669, 496.4116
1573.597, 493.0093
1575.526, 492.6306
1577.454, 493.5323
1579.383, 493.8227
1581.311, 496.2208
1583.240, 501.7235
1585.168, 507.1459
1587.097, 511.4936
1589.025, 508.5059
1590.954, 502.6924
1592.882, 501.9651
1594.811, 502.7699
1596.739, 504.5339
1598.667, 502.1525
1600.596, 493.7670
1602.524, 492.0727
1604.453, 496.6606
1606.381, 503.0426
1608.310, 507.9029
1610.238, 506.8757
1612.167, 502.5981
1614.095, 493.4777
1616.024, 481.1616
1617.952, 488.2430
1619.881, 491.8125
1621.809, 492.0599
1623.738, 479.0323
1625.666, 483.1464
1627.594, 480.3911
1629.523, 477.3536
1631.451, 483.8802
1633.380, 472.7834
1635.308, 479.1584
1637.237, 478.5586
1639.165, 481.1513
1641.094, 476.8316
1643.022, 474.6473
1644.951, 479.3765
1646.879, 480.2779
1648.808, 475.1626
1650.736, 477.9582
1652.665, 466.6199
1654.593, 467.6843
1656.521, 474.0997
1658.450, 469.3319
1660.378, 472.2538
1662.307, 472.2468
1664.235, 458.9315
1666.164, 468.7610
1668.092, 468.5813
1670.021, 458.1236
1671.949, 467.1605
1673.878, 458.1196
1675.806, 455.5317
1677.735, 457.7992
1679.663, 455.0051
1681.592, 460.1915
1683.520, 453.4937
1685.448, 455.9696
1687.377, 456.3999
1689.305, 450.5768
1691.234, 448.0266
1693.162, 450.1195
1695.091, 447.4630
1697.019, 444.2395
1698.948, 454.5373
1700.876, 459.7246
1702.805, 445.4857
1704.733, 432.5357
1706.662, 439.6903
1708.590, 443.3340
1710.519, 443.6546
1712.447, 430.7013
1714.375, 434.8891
1716.304, 432.2070
1718.232, 429.2437
1720.161, 435.8436
1722.089, 424.8210
1724.018, 431.2692
1725.946, 430.7436
1727.875, 433.4096
1729.803, 429.1641
1731.732, 427.0530
1733.660, 431.8565
1735.589, 432.8311
1737.517, 427.7900
1739.446, 425.5660
1741.374, 426.4294
1743.302, 417.2257
1745.231, 415.7282
1747.159, 423.5096
1749.088, 428.0315
1751.016, 428.4194
1752.945, 421.9657
1754.873, 415.9619
1756.802, 414.6764
1758.730, 414.4686
1760.659, 415.0580
1762.587, 417.4928
1764.516, 421.0447
1766.444, 427.7188
1768.373, 428.8101
1770.301, 416.9114
1772.229, 409.4998
1774.158, 406.7847
1776.086, 404.6530
1778.015, 405.6360
1779.943, 414.9223
1781.872, 419.7578
1783.800, 414.9678
1785.729, 410.7865
1787.657, 407.4619
1789.586, 407.2001
1791.514, 403.4543
1793.443, 388.3111
1795.371, 384.5088
1797.300, 397.3677
1799.228, 402.9609
1801.156, 404.2439
1803.085, 408.6924
1805.013, 405.1293
1806.942, 385.8134
1808.870, 387.8893
1810.799, 407.5524
1812.727, 397.6830
1814.656, 381.7538
1816.584, 382.9261
1818.513, 387.0538
1820.441, 391.3623
1822.370, 393.0956
1824.298, 390.9668
1826.227, 375.6776
1828.155, 367.3407
1830.083, 378.0972
1832.012, 383.2520
1833.940, 381.7612
1835.869, 389.7169
1837.797, 394.5618
1839.726, 373.7622
1841.654, 364.2666
1843.583, 373.4638
1845.511, 380.3431
1847.440, 383.3654
1849.368, 382.1057
1851.297, 378.0606
1853.225, 370.4866
1855.154, 366.3484
1857.082, 365.2513
1859.010, 364.6592
1860.939, 363.1905
1862.867, 359.1478
1864.796, 354.3376
1866.724, 349.3776
1868.653, 357.6700
1870.581, 367.0382
1872.510, 356.2534
1874.438, 350.3810
1876.367, 363.0291
1878.295, 362.9650
1880.224, 355.7664
1882.152, 360.4143
1884.081, 364.6792
1886.009, 361.6894
1887.938, 355.1503
1889.866, 346.0543
1891.794, 342.5489
1893.723, 342.8720
1895.651, 345.5584
1897.580, 345.6472
1899.508, 343.7269
1901.437, 345.7462
1903.365, 348.3868
1905.294, 350.9449
1907.222, 348.4354
1909.151, 338.3621
1911.079, 329.4564
1913.008, 324.0602
1914.936, 330.4455
1916.865, 337.2179
1918.793, 341.0492
1920.721, 339.9041
1922.650, 337.0346
1924.578, 344.3854
1926.507, 346.7940
1928.435, 337.0112
1930.364, 330.2086
1932.292, 326.9201
1934.221, 323.9857
1936.149, 323.3761
1938.078, 328.2945
1940.006, 332.2201
1941.935, 332.8759
1943.863, 330.2209
1945.792, 327.8810
1947.720, 329.2725
1949.648, 328.1549
1951.577, 324.0135
1953.505, 319.8818
1955.434, 317.7442
1957.362, 320.7897
1959.291, 320.1790
1961.219, 315.4511
1963.148, 307.7583
1965.076, 303.2449
1967.005, 313.6608
1968.933, 317.3718
1970.862, 311.6762
1972.790, 303.2365
1974.719, 297.9032
1976.647, 305.0333
1978.575, 310.3994
1980.504, 311.3448
1982.432, 301.0712
1984.361, 291.6340
1986.289, 300.2825
1988.218, 303.8103
1990.146, 297.9045
1992.075, 293.0694
1994.003, 290.5627
1995.932, 292.4384
1997.860, 295.1649
1999.789, 298.2032
2001.717, 296.3764
2003.646, 292.7275
2005.574, 288.8351
2007.502, 291.5119
2009.431, 300.9925
2011.359, 297.3568
2013.288, 290.9618
2015.216, 290.2386
2017.145, 291.8051
2019.073, 294.4503
2021.002, 291.8311
2022.930, 287.8872
2024.859, 285.7916
2026.787, 283.3879
2028.716, 280.3270
2030.644, 275.7250
2032.573, 273.3379
2034.501, 275.9714
2036.429, 273.3101
2038.358, 267.7040
2040.286, 268.3474
2042.215, 270.0324
2044.143, 272.1133
2046.072, 271.3939
2048.000, 269.2529
2049.929, 273.7555
2051.857, 273.5248
2053.786, 264.8311
2055.714, 263.0974
2057.643, 265.9793
2059.571, 267.7404
2061.500, 269.0345
2063.428, 270.6082
2065.356, 266.0179
2067.285, 259.4238
2069.213, 253.8825
2071.142, 258.3441
2073.070, 269.2475
2074.999, 266.2516
2076.927, 261.7539
2078.856, 264.6490
2080.784, 264.8756
2082.713, 263.0500
2084.641, 260.1608
2086.570, 258.4392
2088.498, 260.9423
2090.427, 256.5923
2092.355, 250.9304
2094.283, 255.2253
2096.212, 256.1891
2098.140, 250.1292
2100.069, 247.0990
2101.997, 247.1130
2103.926, 253.0367
2105.854, 257.0389
2107.783, 255.2538
2109.711, 247.7375
2111.640, 243.8829
2113.568, 247.6690
2115.497, 241.2340
2117.425, 229.5319
2119.354, 229.5268
2121.282, 231.6832
2123.210, 229.5578
2125.139, 234.0305
2127.067, 241.0806
2128.996, 249.4342
2130.924, 247.5358
2132.853, 230.9578
2134.781, 222.7418
2136.710, 222.6823
2138.638, 224.4874
2140.567, 231.5856
2142.495, 238.3165
2144.424, 233.6484
2146.352, 230.9654
2148.281, 232.9834
2150.209, 232.2260
2152.137, 227.3502
2154.066, 222.1282
2155.994, 222.3252
2157.923, 224.7977
2159.851, 218.7823
2161.780, 219.4346
2163.708, 229.9917
2165.637, 224.1102
2167.565, 211.9481
2169.494, 213.6677
2171.422, 218.9358
2173.351, 218.2569
2175.279, 210.4276
2177.208, 207.3005
2179.136, 210.2839
2181.064, 215.0724
2182.993, 217.7313
2184.921, 212.0388
2186.850, 209.5322
2188.778, 212.3645
2190.707, 214.2359
2192.635, 213.3172
2194.564, 210.2835
2196.492, 209.6491
2198.421, 207.3266
2200.349, 202.0224
2202.278, 195.1839
2204.206, 202.5869
2206.135, 206.4782
2208.063, 207.0471
2209.991, 194.3417
2211.920, 198.7770
2213.848, 196.3433
2215.777, 193.6276
2217.705, 200.4758
2219.634, 189.7008
2221.562, 196.3973
2223.491, 196.1194
2225.419, 199.0336
2227.348, 195.3608
2229.276, 198.2741
2231.205, 195.0133
2233.133, 193.1354
2235.062, 191.7925
2236.990, 191.9186
2238.918, 188.9163
2240.847, 180.2190
2242.775, 190.0450
2244.704, 199.7806
2246.632, 189.5882
2248.561, 183.3864
2250.489, 183.0012
2252.418, 191.3841
2254.346, 192.0399
2256.275, 181.2258
2258.203, 178.0869
2260.132, 181.4106
2262.060, 188.6172
2263.989, 190.8931
2265.917, 187.8204
2267.845, 177.9535
2269.774, 175.0834
2271.702, 176.6003
2273.631, 184.3744
2275.559, 188.3744
2277.488, 182.8748
2279.416, 175.1047
2281.345, 168.9346
2283.273, 168.1359
2285.202, 174.1325
2287.130, 177.1340
2289.059, 173.8517
2290.987, 177.2851
2292.916, 180.6055
2294.844, 171.4970
2296.772, 166.1754
2298.701, 164.9805
2300.629, 165.8210
2302.558, 168.5611
2304.486, 166.3354
2306.415, 162.9222
2308.343, 161.9232
2310.272, 162.1087
2312.200, 165.4593
2314.129, 170.0155
2316.057, 170.0720
2317.986, 166.6276
2319.914, 163.4747
2321.843, 160.7515
2323.771, 158.9670
2325.699, 160.9088
2327.628, 158.0675
2329.556, 158.8073
2331.485, 164.4392
2333.413, 160.1316
2335.342, 154.7238
2337.270, 153.7733
2339.199, 157.9735
2341.127, 163.8010
2343.056, 156.1963
2344.984, 148.9544
2346.913, 144.9260
2348.841, 146.3455
2350.770, 148.6055
2352.698, 149.7518
2354.626, 146.4364
2356.555, 143.0916
2358.483, 146.0002
2360.412, 149.4268
2362.340, 149.1314
2364.269, 144.0454
2366.197, 146.1446
2368.126, 150.0821
2370.054, 142.1603
2371.983, 140.6586
2373.911, 146.5601
2375.840, 151.3712
2377.768, 150.3858
2379.697, 141.3770
2381.625, 139.7484
2383.553, 140.3909
2385.482, 142.1528
2387.410, 139.8705
2389.339, 137.7078
2391.267, 138.6968
2393.196, 140.3409
2395.124, 141.0439
2397.053, 137.7727
2398.981, 133.8242
2400.910, 131.2345
2402.838, 133.8359
2404.767, 134.5031
2406.695, 132.5444
2408.624, 130.8496
2410.552, 131.0254
2412.480, 132.8299
2414.409, 129.3921
2416.337, 127.4823
2418.266, 129.5673
2420.194, 126.3577
2422.123, 125.8163
2424.051, 132.2132
2425.980, 130.7279
2427.908, 128.4016
2429.837, 130.9320
2431.765, 130.0905
2433.694, 127.0746
2435.622, 121.7990
2437.551, 120.9143
2439.479, 121.7360
2441.407, 119.6523
2443.336, 117.2330
2445.264, 116.8834
2447.193, 126.4775
2449.121, 128.5524
2451.050, 122.4677
2452.978, 117.1471
2454.907, 115.8265
2456.835, 117.8703
2458.764, 114.2591
2460.692, 113.9224
2462.621, 119.0848
2464.549, 111.2067
2466.478, 106.2554
2468.406, 109.3895
2470.334, 114.6610
2472.263, 116.0792
2474.191, 109.6694
2476.120, 111.0419
2478.048, 115.1530
2479.977, 116.3808
2481.905, 110.2969
2483.834, 106.5645
2485.762, 109.8942
2487.691, 109.7927
2489.619, 109.8197
2491.548, 111.3557
2493.476, 112.5311
2495.405, 110.7638
2497.333, 104.0538
2499.261, 103.7224
2501.190, 106.6765
2503.118, 110.6337
2505.047, 106.6292
2506.975, 99.18420
2508.904, 96.14874
2510.832, 94.96310
2512.761, 98.75822
2514.689, 105.5169
2516.618, 107.6504
2518.546, 109.2029
2520.475, 103.0076
2522.403, 100.8967
2524.332, 106.4591
2526.260, 110.7940
2528.188, 105.6033
2530.117, 99.24371
2532.045, 99.21293
2533.974, 101.2590
2535.902, 103.3127
2537.831, 102.3592
2539.759, 100.8086
2541.688, 97.46473
2543.616, 104.5230
2545.545, 101.7109
2547.473, 95.04560
2549.402, 99.50822
2551.330, 101.1262
2553.259, 99.08380
2555.187, 100.1666
2557.115, 98.39152
2559.044, 96.79787
2560.972, 99.89459
2562.901, 97.87260
2564.829, 97.89969
2566.758, 93.35614
2568.686, 88.32912
2570.615, 88.34627
2572.543, 88.89687
2574.472, 89.98516
2576.400, 89.29788
2578.329, 85.62514
2580.257, 87.63863
2582.186, 94.86810
2584.114, 96.80001
2586.042, 91.59955
2587.971, 87.97182
2589.899, 87.86958
2591.828, 91.59190
2593.756, 89.80329
2595.685, 85.60860
2597.613, 78.95358
2599.542, 78.91835
2601.470, 84.39661
2603.399, 79.56805
2605.327, 79.79646
2607.256, 83.18855
2609.184, 79.68913
2611.113, 85.90095
2613.041, 86.73781
2614.969, 85.17429
2616.898, 83.31514
2618.826, 82.81512
2620.755, 83.92716
2622.683, 81.07988
2624.612, 82.92491
2626.540, 79.70924
2628.469, 72.92506
2630.397, 71.24583
2632.326, 75.13837
2634.254, 80.71240
2636.183, 79.10664
2638.111, 77.10873
2640.040, 77.06698
2641.968, 72.35303
2643.896, 75.26767
2645.825, 76.62186
2647.753, 75.77554
2649.682, 72.99961
2651.610, 67.20027
2653.539, 70.73120
2655.467, 72.99102
2657.396, 68.35219
2659.324, 70.55688
2661.253, 76.88441
2663.181, 80.33851
2665.110, 77.42293
2667.038, 77.11315
2668.967, 80.20300
2670.895, 75.80728
2672.823, 71.88097
2674.752, 67.41476
2676.680, 66.11384
2678.609, 66.78364
2680.537, 68.57512
2682.466, 69.20414
2684.394, 67.72314
2686.323, 69.32866
2688.251, 68.38479
2690.180, 69.33680
2692.108, 66.83059
2694.037, 67.30973
2695.965, 65.67050
2697.894, 63.75200
2699.822, 62.81388
2701.750, 60.81763
2703.679, 61.08748
2705.607, 67.60199
2707.536, 68.02941
2709.464, 64.66232
2711.393, 62.10191
2713.321, 61.69407
2715.250, 61.51508
2717.178, 63.11005
2719.107, 63.74582
2721.035, 61.91624
2722.964, 56.85344
2724.892, 57.81272
2726.821, 56.37081
2728.749, 56.42547
2730.677, 61.11436
2732.606, 60.05302
2734.534, 59.09776
2736.463, 62.09358
2738.391, 65.69926
2740.320, 64.05026
2742.248, 60.27059
2744.177, 56.99133
2746.105, 57.77201
2748.034, 57.15686
2749.962, 53.58317
2751.891, 53.35722
2753.819, 52.99033
2755.748, 51.99548
2757.676, 56.56731
2759.604, 53.08286
2761.533, 47.80167
2763.461, 49.45233
2765.390, 52.56352
2767.318, 53.60122
2769.247, 51.21515
2771.175, 55.05126
2773.104, 52.08859
2775.032, 45.21467
2776.961, 51.20567
2778.889, 56.21579
2780.818, 56.92346
2782.746, 48.89036
2784.675, 50.68706
2786.603, 55.20348
2788.531, 53.40392
2790.460, 56.14959
2792.388, 53.16252
2794.317, 47.84332
2796.245, 49.65413
2798.174, 49.11900
2800.102, 46.59719
2802.031, 43.41586
2803.959, 45.04760
2805.888, 47.93552
2807.816, 47.99020
2809.745, 47.16461
2811.673, 47.87077
2813.602, 48.38107
2815.530, 46.72091
2817.458, 41.09780
2819.387, 39.18018
2821.315, 46.09692
2823.244, 45.65235
2825.172, 46.81479
2827.101, 51.33577
2829.029, 49.77357
2830.958, 42.22664
2832.886, 36.74755
2834.815, 46.34998
2836.743, 45.01104
2838.672, 39.65939
2840.600, 35.24769
2842.529, 32.18899
2844.457, 35.88740
2846.385, 42.59654
2848.314, 42.52015
2850.242, 42.81888
2852.171, 41.51634
2854.099, 37.99503
2856.028, 38.11276
2857.956, 33.78605
2859.885, 27.75394
2861.813, 33.23410
2863.742, 38.19128
2865.670, 41.13507
2867.599, 44.18740
2869.527, 40.82263
2871.456, 35.91115
2873.384, 32.72868
2875.313, 35.22434
2877.241, 40.69134
2879.169, 44.13041
2881.098, 38.54793
2883.026, 35.87328
2884.955, 34.32533
2886.883, 33.08758
2888.812, 42.58511
2890.740, 45.01960
2892.669, 40.78428
2894.597, 36.94034
2896.526, 36.23047
2898.454, 38.11845
2900.383, 44.16333
2902.311, 39.83434
2904.240, 36.53355
2906.168, 36.50304
2908.096, 35.77599
2910.025, 39.38473
2911.953, 41.48422
2913.882, 38.56334
2915.810, 34.59830
2917.739, 32.93620
2919.667, 32.62722
2921.596, 34.32710
2923.524, 34.04533
2925.453, 29.56879
2927.381, 28.44016
2929.310, 27.74810
2931.238, 31.36923
2933.167, 35.04127
2935.095, 30.19746
2937.023, 29.38384
2938.952, 31.66016
2940.880, 32.65266
2942.809, 34.28456
2944.737, 34.31072
2946.666, 28.32109
2948.594, 26.28244
2950.523, 27.76859
2952.451, 27.72123
2954.380, 31.75179
2956.308, 34.66970
2958.237, 29.90733
2960.165, 28.96114
2962.094, 27.97808
2964.022, 30.59567
2965.950, 32.25476
2967.879, 32.38131
2969.807, 30.90139
2971.736, 30.89281
2973.664, 27.77843
2975.593, 23.56638
2977.521, 22.78132
2979.450, 28.01185
2981.378, 29.72902
2983.307, 26.79861
2985.235, 27.03729
2987.164, 31.46136
2989.092, 28.32750
2991.021, 19.73959
2992.949, 23.96100
2994.878, 26.06905
2996.806, 24.85463
2998.735, 31.99456
3000.663, 27.04027
3002.592, 23.17002
3004.520, 20.84847
3006.448, 25.26622
3008.377, 29.02415
3010.305, 24.29621
3012.234, 21.54673
3014.162, 19.83893
3016.091, 24.58388
3018.019, 33.88412
3019.948, 23.01320
3021.876, 26.27538
3023.805, 21.56833
3025.733, 18.11518
3027.662, 22.53895
3029.590, 21.90543
3031.519, 23.14083
3033.447, 22.36180
3035.375, 18.66712
3037.304, 22.20581
3039.232, 22.90905
3041.161, 22.43313
3043.089, 20.37792
3045.018, 23.53972
3046.946, 28.24426
3048.875, 23.66953
3050.803, 16.67391
3052.732, 15.84420
3054.660, 20.20840
3056.589, 22.45093
3058.517, 21.95054
3060.446, 19.96762
3062.374, 23.14180
3064.302, 30.21077
3066.231, 27.32878
3068.159, 22.07321
3070.088, 23.49791
3072.016, 25.90273
3073.945, 24.76544
3075.873, 24.19696
3077.802, 23.58055
3079.730, 18.27609
3081.659, 22.59891
3083.587, 25.40661
3085.516, 18.05792
3087.444, 17.51343
3089.373, 19.55301
3091.301, 21.27996
3093.229, 19.83421
3095.158, 20.01327
3097.086, 16.65374
3099.015, 18.26448
3100.943, 19.98018
3102.872, 20.98278
3104.800, 19.15465
3106.729, 16.51096
3108.657, 11.81378
3110.586, 22.01029
3112.514, 25.33847
3114.443, 21.32120
3116.371, 18.45653
3118.300, 26.40646
3120.228, 31.88540
3122.156, 24.91483
3124.085, 14.18177
3126.013, 11.58651
3127.942, 12.62489
3129.870, 16.11850
3131.799, 19.25845
3133.727, 18.55788
3135.656, 18.32901
3137.584, 19.80987
3139.513, 11.41322
3141.441, 15.17382
3143.370, 19.17624
3145.298, 18.68332
3147.227, 21.83769
3149.155, 14.22032
3151.083, 11.51775
3153.012, 16.21149
3154.940, 18.61388
3156.869, 14.27678
3158.797, 16.39419
3160.726, 19.46837
3162.654, 8.660500
3164.583, 15.31796
3166.511, 16.81939
3168.440, 14.47068
3170.368, 23.04418
3172.297, 24.64536
3174.225, 22.63515
3176.154, 19.41699
3178.082, 16.26216
3180.010, 18.00403
3181.939, 17.61321
3183.867, 16.04202
3185.796, 14.03461
3187.724, 15.16318
3189.653, 13.29915
3191.581, 11.51451
3193.510, 15.67796
3195.438, 19.18425
3197.367, 17.45929
3199.295, 16.89013
3201.224, 21.52912
3203.152, 21.48773
3205.081, 23.93780
3207.009, 24.35288
3208.938, 19.45664
3210.866, 14.05238
3212.794, 19.58163
3214.723, 17.93743
3216.651, 11.33444
3218.580, 13.16462
3220.508, 19.29945
3222.437, 17.06299
3224.365, 13.30320
3226.294, 17.37972
3228.222, 17.92294
3230.151, 12.18244
3232.079, 11.79061
3234.008, 20.07594
3235.936, 21.57516
3237.865, 15.73745
3239.793, 16.53968
3241.721, 20.48524
3243.650, 16.52597
3245.578, 19.19424
3247.507, 16.22944
3249.435, 14.16294
3251.364, 19.26960
3253.292, 15.69978
3255.221, 13.82519
3257.149, 16.31710
3259.078, 21.75566
3261.006, 25.89024
3262.935, 23.64138
3264.863, 18.50383
3266.792, 14.96070
3268.720, 16.43018
3270.648, 23.51152
3272.577, 21.39846
3274.505, 15.82881
3276.434, 15.10066
3278.362, 20.64443
3280.291, 17.69352
3282.219, 12.73685
3284.148, 10.04336
3286.076, 8.312503
3288.005, 14.83289
3289.933, 16.83742
3291.862, 15.87701
3293.790, 15.98237
3295.719, 10.26147
3297.647, 9.728351
3299.575, 13.68522
3301.504, 17.00972
3303.432, 10.54478
3305.361, 7.413443
3307.289, 13.32309
3309.218, 18.14925
3311.146, 12.93396
3313.075, 12.08512
3315.003, 19.83042
3316.932, 23.61704
3318.860, 20.68808
3320.789, 18.62857
3322.717, 9.176286
3324.646, 8.158416
3326.574, 11.49985
3328.502, 13.25422
3330.431, 16.78063
3332.359, 22.29935
3334.288, 19.68634
3336.216, 13.46991
3338.145, 14.50822
3340.073, 11.25027
3342.002, 11.43378
3343.930, 14.13628
3345.859, 15.42877
3347.787, 9.999743
3349.716, 14.72405
3351.644, 22.42300
3353.573, 22.02996
3355.501, 11.57065
3357.429, 13.65877
3359.358, 8.109592
3361.286, 10.43844
3363.215, 18.89095
3365.143, 22.31454
3367.072, 19.04794
3369.000, 9.508840
3370.929, 10.92293
3372.857, 20.27195
3374.786, 16.24118
3376.714, 17.58873
3378.643, 24.46009
3380.571, 25.01827
3382.500, 17.48393
3384.428, 19.78034
3386.356, 21.45920
3388.285, 13.16531
3390.213, 6.257971
3392.142, 9.227509
3394.070, 13.30947
3395.999, 10.18545
3397.927, 12.48455
3399.856, 16.10782
3401.784, 14.43933
3403.713, 11.99930
3405.641, 20.81338
3407.570, 20.92082
3409.498, 13.01563
3411.427, 7.981372
3413.355, 11.79178
3415.283, 10.90352
3417.212, 9.995226
3419.140, 11.37481
3421.069, 14.25832
3422.997, 15.20576
3424.926, 16.63347
3426.854, 10.32755
3428.783, 6.979405
3430.711, 18.31709
3432.640, 12.93436
3434.568, 14.71066
3436.497, 16.91813
3438.425, 12.16790
3440.354, 1.315003
3442.282, 9.799666
3444.210, 15.64152
3446.139, 12.98350
3448.067, 12.17985
3449.996, 19.89689
3451.924, 9.762617
3453.853, 12.40606
3455.781, 16.50590
3457.710, 18.40248
3459.638, 19.12331
3461.567, 18.92460
3463.495, 13.91388
3465.424, 15.23861
3467.352, 20.68268
3469.281, 22.95579
3471.209, 11.30446
3473.137, 14.87373
3475.066, 19.57690
3476.994, 16.10661
3478.923, 7.413689
3480.851, 7.191279
3482.780, 8.359958
3484.708, 9.395865
3486.637, 16.86060
3488.565, 21.42962
3490.494, 8.187051
3492.422, 18.12988
3494.351, 20.34351
3496.279, 21.41838
3498.208, 21.40879
3500.136, 17.61324
3502.064, 15.13288
3503.993, 22.60104
3505.921, 21.95753
3507.850, 17.70569
3509.778, 16.84611
3511.707, 19.78011
3513.635, 22.89174
3515.564, 10.70058
3517.492, 7.505917
3519.421, 15.71454
3521.349, 21.81772
3523.278, 20.32174
3525.206, 23.47837
3527.135, 19.81019
3529.063, 20.61407
3530.991, 29.20013
3532.920, 27.39337
3534.848, 26.25894
3536.777, 15.01979
3538.705, 11.59654
3540.634, 19.65901
3542.562, 24.21011
3544.491, 25.43857
3546.419, 13.39263
3548.348, 18.48783
3550.276, 16.71362
3552.205, 14.65776
3554.133, 22.16547
3556.062, 12.05028
3557.990, 19.40633
3559.918, 19.57954
3561.847, 16.95442
3563.775, 9.590052
3565.704, 7.885954
3567.632, 13.16219
3569.561, 18.73804
3571.489, 22.13604
3573.418, 23.17492
3575.346, 23.41849
3577.275, 27.83663
3579.203, 24.65837
3581.132, 15.43408
3583.060, 16.37473
3584.989, 22.14294
3586.917, 14.65117
3588.845, 15.39802
3590.774, 16.30029
3592.702, 22.94419
3594.631, 21.69451
3596.559, 13.79612
3598.488, 15.84809
3600.416, 14.65696
3602.345, 13.31695
3604.273, 10.64527
3606.202, 7.664370
3608.130, 7.028907
3610.059, 10.18866
3611.987, 8.093981
3613.916, 8.755171
3615.844, 1.070456
3617.772, 0.7986297
3619.701, 11.58559
3621.629, 15.85239
3623.558, 12.99789
3625.486, 11.94607
3627.415, 14.72281
3629.343, 12.21008
3631.272, 5.605820
3633.200, 6.345840
3635.129, 11.92478
3637.057, 14.34194
3638.986, 18.93799
3640.914, 6.619626
3642.843, -4.312405
3644.771, 14.68409
3646.699, 8.685097
3648.628, 9.517567
3650.556, 6.584796
3652.485, 5.120186
3654.413, 7.065364
3656.342, 10.54536
3658.270, 15.54824
3660.199, 17.40085
3662.127, 8.172242
3664.056, 8.383097
3665.984, 12.34450
3667.913, 11.21616
3669.841, 8.824113
3671.770, 8.422310
3673.698, 6.9314070E-02
3675.626, 16.21778
3677.555, 23.95558
3679.483, 14.44523
3681.412, 6.038516
3683.340, 6.513993
3685.269, 7.741230
3687.197, 4.828223
3689.126, 8.539310
3691.054, 14.39949
3692.983, 14.76416
3694.911, 9.806414
3696.840, 12.83532
3698.768, 13.76526
3700.697, 11.91835
3702.625, 9.789788
3704.553, 11.30958
3706.482, 12.76159
3708.410, -0.8559116
3710.339, 3.920176
3712.267, 8.773361
3714.196, 7.439491
3716.124, 9.586313
3718.053, 11.66101
3719.981, 4.210832
3721.910, -5.399841
3723.838, 14.15511
3725.767, 6.391319
3727.695, 9.356773
3729.624, 12.56232
3731.552, 11.97557
3733.480, 17.21050
3735.409, 15.38534
3737.337, 7.626256
3739.266, 5.475163
3741.194, 7.918615
3743.123, 7.704580
3745.051, 2.003696
3746.980, -3.417606
3748.908, 3.405078
3750.837, -0.7499997
3752.765, 3.099960
3754.694, 8.024798
3756.622, 13.61293
3758.551, 11.35286
3760.479, 0.1555416
3762.407, 2.139911
3764.336, -6.200116
3766.264, 7.804374
3768.193, 5.633998
3770.121, 2.200094
3772.050, 7.775193
3773.978, 14.13413
3775.907, 11.11586
3777.835, 16.72287
3779.764, 7.779841
3781.692, 9.773236
3783.621, 11.13372
3785.549, 11.54741
3787.478, 10.60210
3789.406, 7.518795
3791.334, 11.78440
3793.263, 5.580501
3795.191, 8.689075
3797.120, 13.58012
3799.048, 13.37499
3800.977, 9.339322
3802.905, 7.379506
3804.834, 10.77673
3806.762, 14.07130
3808.691, 6.570057
3810.619, -2.042161
3812.548, 3.572756
3814.476, 6.936101
3816.405, 4.507228
3818.333, 1.007538
3820.261, -3.118328
3822.190, 10.95128
3824.118, 1.560712
3826.047, 6.323429
3827.975, 7.901448
3829.904, 6.190270
3831.832, 6.590026
3833.761, 9.113701
3835.689, 10.85328
3837.618, 11.13690
3839.546, 7.240355
3841.475, 11.27604
3843.403, 7.506574
3845.332, 5.989186
3847.260, 9.558713
3849.188, 10.04632
3851.117, 1.529559
3853.045, -8.669391
3854.974, -1.325089
3856.902, 8.072385
3858.831, 2.211617
3860.759, 1.520337
3862.688, 0.9462010
3864.616, -0.1332753
3866.545, 5.795285
3868.473, 12.77617
3870.402, 9.712524
3872.330, 6.597080
3874.259, -1.390109
3876.187, 0.5538492
3878.115, 7.074428
3880.044, 6.081876
3881.972, 2.696453
3883.901, 8.344879
3885.829, 15.70584
3887.758, 6.075066
3889.686, 7.856371
3891.615, 11.34731
3893.543, 10.40320
3895.472, 12.11564
3897.400, 13.56301
3899.329, 11.40755
3901.257, 10.50253
3903.186, 14.94043
3905.114, 16.17033
3907.042, 2.349379
3908.971, 4.884809
3910.899, 8.010247
3912.828, 6.444040
3914.756, 5.682934
3916.685, 5.819661
3918.613, 1.697109
3920.542, -3.714168
3922.470, 8.667964
3924.399, -4.376248
3926.327, 9.097212
3928.256, 10.83010
3930.184, 8.130155
3932.113, 3.078966
3934.041, 1.073607
3935.969, 2.600857
3937.898, 2.242505
3939.826, 6.801402
3941.755, 7.848813
3943.683, 11.37103
3945.612, 4.596986
3947.540, 5.621915
3949.469, 11.93004
3951.397, 13.87530
3953.326, 6.115079
3955.254, -3.951918
3957.183, -4.110046
3959.111, 3.389817
3961.040, 2.458570
3962.968, 13.13933
3964.896, 7.780702
3966.825, 7.736121
3968.753, 6.722845
3970.682, 7.455029
3972.610, 6.935493
3974.539, 5.375760
3976.467, 5.931414
3978.396, 6.441515
3980.324, 10.44329
3982.253, -0.4749482
3984.181, -4.537982
3986.110, 1.867983
3988.038, 4.777624
3989.967, 4.279108
3991.895, 8.949228
3993.823, 10.18543
3995.752, 10.59103
3997.680, 12.44881
3999.609, 3.015527
4001.537, 8.613811
4003.466, -2.012580
4005.394, 11.06272
4007.323, 11.01493
4009.251, 11.02736
4011.180, 6.323851
4013.108, 4.465423
4015.037, 9.198267
4016.965, 11.67098
4018.894, 6.251571
4020.822, 1.942273
4022.750, 8.282310
4024.679, 11.56322
4026.607, 3.971222
4028.536, -9.786930
4030.464, 3.135935
4032.393, -0.7894235
4034.321, 6.241007
4036.250, 3.405246
4038.178, 0.7736616
4040.107, 2.053472
4042.035, 6.357540
4043.964, 13.46433
4045.892, 6.443246
4047.821, 4.818860
4049.749, -2.415752
4051.677, 20.76060
4053.606, 10.33355
4055.534, 6.934110
4057.463, 10.87393
4059.391, 2.310025
4061.320, 0.5300524
4063.248, 3.475432
4065.177, 4.719231
4067.105, 4.524995
4069.034, 3.009786
4070.962, 6.378311
4072.891, 14.31352
4074.819, 5.895269
4076.748, 3.032902
4078.676, 7.736026
4080.604, 6.941677
4082.533, 4.765355
4084.461, 4.315642
4086.390, 3.820991
4088.318, 2.293384
4090.247, -0.5539680
4092.175, 0.8528065
4094.104, 6.945588
4096.032, 7.685929
4097.961, 2.885821
4099.889, 9.283172
4101.818, 9.479038
4103.746, 7.645469
4105.675, 5.898664
4107.603, -0.2125587
4109.532, 10.34734
4111.460, 9.693033
4113.389, 6.389058
4115.317, 16.81390
4117.246, 6.706954
4119.174, 4.179746
4121.103, 8.556241
4123.031, 7.935688
4124.959, 8.297642
4126.888, 5.321649
4128.816, 1.020805
4130.745, 3.235011
4132.673, 12.33683
4134.602, 11.88737
4136.530, 10.55604
4138.458, -3.611897
4140.387, 10.42801
4142.315, -4.455816
4144.244, 2.500406
4146.172, 12.30692
4148.101, 10.84773
4150.029, 7.461040
4151.958, 4.983865
4153.886, 7.423087
4155.815, 18.01740
4157.743, 19.31246
4159.672, 7.299335
4161.600, 5.000443
4163.529, 7.490124
4165.457, 4.744140
4167.386, -3.226049
4169.314, 6.702108
4171.243, 13.08508
4173.171, 0.2077845
4175.100, 2.038190
4177.028, 17.99944
4178.957, 14.92768
4180.885, 10.99620
4182.813, 7.076820
4184.742, 2.005037
4186.670, 9.132462
4188.599, 10.32900
4190.527, 6.156890
4192.456, 1.685398
4194.384, 8.973847
4196.313, 13.59198
4198.241, 8.335465
4200.169, 14.44348
4202.098, 12.79450
4204.026, -1.522681
4205.955, 7.443525
4207.883, 9.734171
4209.812, 11.83180
4211.740, 10.77576
4213.669, 13.09386
4215.597, 7.165519
4217.526, 6.735500
4219.454, 3.946502
4221.383, 1.492584
4223.311, -0.5657650
4225.240, 12.04137
4227.168, 27.48886
4229.097, 13.51921
4231.025, 11.81068
4232.954, 3.254250
4234.882, 7.993575
4236.811, 5.905591
4238.739, 5.475168
4240.667, 7.500504
4242.596, 15.27847
4244.524, 11.99273
4246.453, -0.8794751
4248.381, 6.424947
4250.310, 12.07314
4252.238, 3.137185
4254.167, 1.407550
4256.095, 2.485928
4258.023, 12.57131
4259.952, 14.79848
4261.880, 5.293180
4263.809, 1.422936
4265.737, 9.512895
4267.666, 12.99280
4269.594, 11.10306
4271.523, 5.619589
4273.451, 14.22314
4275.380, 3.368722
4277.308, 4.179987
4279.237, 2.923661
4281.165, 9.157630
4283.094, 6.912817
4285.022, -0.5788540
4286.951, 5.519060
4288.879, 2.410568
##END=



