##NAMES=Erlichmanite
##RRUFFID=R070095
##IDEAL CHEMISTRY=OsS_2_
##LOCALITY=placer from Philipp Massif, Kamchatka, Russia
##OWNER=RRUFF
##SOURCE=Michael Scott
##DESCRIPTION=Silver bleb in black isoferroplatinum nugget, polished and embedded in epoxy
##STATUS=The identification of this mineral is not yet confirmed
##URL=https://www.rruff.net/odr/rruff_sample/R070095
##FILETYPE=Raman RAW
##RAMAN WAVELENGTH=532

194.1096, 2569.016
196.0381, 2551.670
197.9666, 2552.648
199.8950, 2590.126
201.8235, 2637.861
203.7520, 2678.897
205.6804, 2712.263
207.6089, 2740.817
209.5374, 2761.498
211.4658, 2773.658
213.3943, 2778.946
215.3228, 2778.080
217.2512, 2774.535
219.1797, 2764.632
221.1082, 2743.140
223.0366, 2730.101
224.9651, 2740.818
226.8936, 2769.322
228.8220, 2782.366
230.7505, 2765.238
232.6790, 2748.167
234.6074, 2746.532
236.5359, 2761.979
238.4644, 2776.989
240.3928, 2793.297
242.3213, 2807.616
244.2498, 2806.237
246.1782, 2774.194
248.1067, 2739.588
250.0352, 2719.244
251.9636, 2719.513
253.8921, 2730.644
255.8206, 2752.536
257.7490, 2778.668
259.6775, 2795.642
261.6060, 2798.485
263.5344, 2797.361
265.4629, 2796.023
267.3914, 2789.149
269.3198, 2797.781
271.2483, 2837.526
273.1768, 2889.293
275.1052, 2926.389
277.0337, 2926.811
278.9622, 2924.159
280.8906, 2935.605
282.8191, 2967.148
284.7476, 2990.647
286.6760, 2999.838
288.6045, 2999.772
290.5330, 2995.911
292.4614, 2982.666
294.3899, 2972.358
296.3184, 2965.229
298.2468, 2959.304
300.1753, 2951.854
302.1038, 2951.225
304.0322, 2950.763
305.9607, 2944.489
307.8892, 2924.668
309.8176, 2918.000
311.7461, 2919.686
313.6746, 2929.641
315.6030, 2958.221
317.5315, 3027.143
319.4600, 3108.765
321.3884, 3195.624
323.3169, 3286.613
325.2454, 3363.349
327.1738, 3425.796
329.1023, 3467.562
331.0308, 3471.949
332.9592, 3416.899
334.8877, 3345.400
336.8162, 3259.577
338.7446, 3168.753
340.6731, 3100.785
342.6016, 3071.036
344.5300, 3059.182
346.4585, 3051.143
348.3870, 3036.938
350.3154, 3029.926
352.2439, 3039.012
354.1724, 3061.911
356.1008, 3085.219
358.0293, 3103.262
359.9578, 3118.084
361.8862, 3128.917
363.8147, 3138.242
365.7432, 3152.688
367.6716, 3176.656
369.6001, 3202.383
371.5286, 3219.018
373.4570, 3219.562
375.3855, 3232.895
377.3140, 3279.667
379.2424, 3344.356
381.1709, 3389.803
383.0994, 3403.271
385.0278, 3406.866
386.9563, 3414.262
388.8848, 3419.850
390.8132, 3415.984
392.7417, 3398.005
394.6702, 3375.424
396.5986, 3349.801
398.5271, 3323.274
400.4556, 3302.045
402.3840, 3290.399
404.3125, 3277.030
406.2410, 3263.145
408.1694, 3254.082
410.0979, 3250.841
412.0264, 3246.642
413.9548, 3228.078
415.8833, 3220.131
417.8118, 3229.503
419.7402, 3250.893
421.6687, 3272.897
423.5972, 3300.406
425.5256, 3319.768
427.4541, 3318.917
429.3826, 3296.750
431.3110, 3293.981
433.2395, 3324.805
435.1680, 3356.982
437.0964, 3370.822
439.0249, 3369.011
440.9534, 3364.417
442.8818, 3361.279
444.8103, 3352.244
446.7388, 3332.930
448.6672, 3297.142
450.5957, 3262.096
452.5242, 3233.511
454.4526, 3214.017
456.3811, 3195.688
458.3096, 3177.785
460.2380, 3158.823
462.1665, 3138.839
464.0950, 3115.649
466.0234, 3095.479
467.9519, 3081.104
469.8804, 3076.964
471.8088, 3072.069
473.7373, 3058.054
475.6658, 3040.673
477.5942, 3021.589
479.5227, 3007.600
481.4512, 2995.311
483.3796, 2980.167
485.3081, 2966.119
487.2366, 2961.969
489.1650, 2968.450
491.0935, 2973.076
493.0220, 2972.967
494.9504, 2973.302
496.8789, 2974.213
498.8074, 2980.696
500.7358, 2978.467
502.6643, 2956.334
504.5928, 2922.653
506.5212, 2912.843
508.4497, 2949.807
510.3782, 2983.201
512.3066, 2987.708
514.2351, 2953.858
516.1636, 2934.109
518.0920, 2940.394
520.0205, 2954.236
521.9490, 2958.857
523.8774, 2952.031
525.8059, 2948.103
527.7344, 2951.607
529.6628, 2960.021
531.5913, 2968.979
533.5198, 2977.177
535.4482, 2987.068
537.3767, 2999.832
539.3052, 3015.158
541.2336, 3031.251
543.1621, 3046.917
545.0906, 3063.475
547.0190, 3084.485
548.9475, 3119.015
550.8760, 3136.320
552.8044, 3121.443
554.7329, 3096.873
556.6614, 3081.195
558.5898, 3075.530
560.5183, 3073.346
562.4468, 3077.173
564.3752, 3086.870
566.3037, 3090.886
568.2322, 3081.822
570.1606, 3076.473
572.0891, 3082.224
574.0176, 3099.107
575.9460, 3123.251
577.8745, 3165.992
579.8030, 3203.565
581.7314, 3221.169
583.6599, 3221.530
585.5884, 3235.765
587.5168, 3285.162
589.4453, 3332.363
591.3738, 3354.008
593.3022, 3333.053
595.2307, 3326.208
597.1592, 3341.590
599.0876, 3361.854
601.0161, 3381.573
602.9446, 3403.066
604.8730, 3413.205
606.8015, 3404.244
608.7300, 3389.343
610.6584, 3374.317
612.5869, 3351.054
614.5154, 3324.640
616.4438, 3307.651
618.3723, 3299.425
620.3008, 3294.472
622.2292, 3300.742
624.1577, 3304.379
626.0862, 3288.899
628.0146, 3246.523
629.9431, 3207.143
631.8716, 3174.794
633.8000, 3154.154
635.7285, 3141.587
637.6570, 3136.409
639.5854, 3127.903
641.5139, 3108.841
643.4424, 3090.315
645.3708, 3087.962
647.2993, 3114.163
649.2278, 3129.972
651.1563, 3108.026
653.0847, 3068.486
655.0132, 3046.574
656.9417, 3050.729
658.8701, 3053.429
660.7986, 3053.724
662.7271, 3057.971
664.6555, 3064.185
666.5840, 3068.979
668.5125, 3077.367
670.4409, 3089.425
672.3694, 3100.565
674.2979, 3108.584
676.2263, 3119.927
678.1548, 3125.840
680.0833, 3117.591
682.0117, 3098.620
683.9402, 3085.486
685.8687, 3082.238
687.7971, 3071.939
689.7256, 3066.457
691.6541, 3075.618
693.5825, 3094.680
695.5110, 3113.858
697.4395, 3107.715
699.3679, 3076.511
701.2964, 3031.557
703.2249, 3010.759
705.1533, 3025.238
707.0818, 3034.622
709.0103, 3032.245
710.9387, 3018.799
712.8672, 3019.620
714.7957, 3029.265
716.7241, 3033.052
718.6526, 3038.557
720.5811, 3054.788
722.5095, 3084.145
724.4380, 3096.770
726.3665, 3085.141
728.2949, 3070.443
730.2234, 3067.136
732.1519, 3077.503
734.0803, 3085.216
736.0088, 3081.953
737.9373, 3075.249
739.8657, 3072.111
741.7942, 3066.925
743.7227, 3053.237
745.6511, 3047.370
747.5796, 3052.146
749.5081, 3060.230
751.4365, 3058.240
753.3650, 3065.003
755.2935, 3077.632
757.2219, 3083.921
759.1504, 3075.742
761.0789, 3063.662
763.0073, 3056.993
764.9358, 3053.437
766.8643, 3048.823
768.7927, 3036.730
770.7212, 3025.760
772.6497, 3035.419
774.5781, 3059.287
776.5066, 3078.762
778.4351, 3077.980
780.3635, 3079.827
782.2920, 3095.869
784.2205, 3112.514
786.1489, 3116.929
788.0774, 3118.901
790.0059, 3145.058
791.9343, 3189.271
793.8628, 3231.209
795.7913, 3257.032
797.7197, 3264.394
799.6482, 3270.282
801.5767, 3299.551
803.5051, 3337.796
805.4336, 3369.261
807.3621, 3368.277
809.2905, 3361.004
811.2190, 3346.955
813.1475, 3318.643
815.0759, 3273.071
817.0044, 3230.463
818.9329, 3199.446
820.8613, 3162.275
822.7898, 3127.641
824.7183, 3107.013
826.6467, 3121.438
828.5752, 3146.084
830.5037, 3169.729
832.4321, 3175.859
834.3606, 3154.889
836.2891, 3133.346
838.2175, 3142.293
840.1460, 3173.759
842.0745, 3191.399
844.0029, 3179.253
845.9314, 3152.689
847.8599, 3131.516
849.7883, 3118.840
851.7168, 3115.299
853.6453, 3126.925
855.5737, 3134.130
857.5022, 3127.607
859.4307, 3117.022
861.3591, 3115.739
863.2876, 3125.974
865.2161, 3133.329
867.1445, 3138.422
869.0730, 3151.209
871.0015, 3158.218
872.9299, 3142.143
874.8584, 3123.932
876.7869, 3130.274
878.7153, 3159.805
880.6438, 3180.906
882.5723, 3184.733
884.5007, 3187.133
886.4292, 3200.585
888.3577, 3213.708
890.2861, 3224.268
892.2146, 3231.908
894.1431, 3240.119
896.0715, 3247.943
898.0000, 3264.651
899.9285, 3274.959
901.8569, 3265.954
903.7854, 3247.016
905.7139, 3237.913
907.6423, 3256.540
909.5708, 3269.140
911.4993, 3268.639
913.4277, 3262.678
915.3562, 3259.073
917.2847, 3264.627
919.2131, 3278.144
921.1416, 3312.968
923.0701, 3329.642
924.9985, 3305.384
926.9270, 3261.808
928.8555, 3249.428
930.7839, 3269.771
932.7124, 3292.576
934.6409, 3312.945
936.5693, 3335.377
938.4978, 3349.542
940.4263, 3348.462
942.3547, 3352.402
944.2832, 3369.108
946.2117, 3390.995
948.1401, 3412.383
950.0686, 3434.321
951.9971, 3450.219
953.9255, 3456.853
955.8540, 3459.168
957.7825, 3463.486
959.7109, 3473.877
961.6394, 3483.814
963.5679, 3491.622
965.4963, 3494.815
967.4248, 3495.116
969.3533, 3488.269
971.2817, 3484.442
973.2102, 3482.214
975.1387, 3488.282
977.0671, 3497.417
978.9956, 3505.626
980.9241, 3525.411
982.8525, 3571.126
984.7810, 3602.542
986.7095, 3591.078
988.6379, 3555.354
990.5664, 3535.975
992.4949, 3549.862
994.4233, 3554.645
996.3518, 3537.333
998.2803, 3509.670
1000.209, 3491.870
1002.137, 3487.788
1004.066, 3482.833
1005.994, 3473.924
1007.923, 3463.819
1009.851, 3455.226
1011.780, 3447.938
1013.708, 3440.442
1015.636, 3425.047
1017.565, 3416.884
1019.493, 3427.219
1021.422, 3460.478
1023.350, 3479.903
1025.279, 3473.104
1027.207, 3465.888
1029.136, 3473.030
1031.064, 3492.328
1032.993, 3503.199
1034.921, 3496.602
1036.850, 3499.091
1038.778, 3533.112
1040.707, 3578.280
1042.635, 3599.409
1044.563, 3577.076
1046.492, 3568.622
1048.420, 3593.570
1050.349, 3628.063
1052.277, 3647.390
1054.206, 3651.849
1056.134, 3649.263
1058.063, 3629.272
1059.991, 3607.615
1061.920, 3603.591
1063.848, 3620.179
1065.777, 3635.697
1067.705, 3647.030
1069.634, 3653.411
1071.562, 3651.312
1073.490, 3643.759
1075.419, 3648.924
1077.347, 3684.529
1079.276, 3699.956
1081.204, 3664.925
1083.133, 3612.182
1085.061, 3592.510
1086.990, 3613.664
1088.918, 3642.067
1090.847, 3676.877
1092.775, 3703.040
1094.704, 3717.701
1096.632, 3727.885
1098.561, 3735.589
1100.489, 3734.749
1102.417, 3738.277
1104.346, 3755.742
1106.274, 3773.892
1108.203, 3788.206
1110.131, 3805.285
1112.060, 3817.761
1113.988, 3817.136
1115.917, 3811.913
1117.845, 3813.307
1119.774, 3810.493
1121.702, 3806.755
1123.631, 3807.996
1125.559, 3820.517
1127.488, 3834.279
1129.416, 3833.177
1131.344, 3826.689
1133.273, 3821.936
1135.201, 3825.964
1137.130, 3836.419
1139.058, 3845.425
1140.987, 3852.532
1142.915, 3858.572
1144.844, 3867.325
1146.772, 3882.857
1148.701, 3905.169
1150.629, 3923.938
1152.558, 3920.752
1154.486, 3909.439
1156.415, 3895.183
1158.343, 3890.945
1160.271, 3893.988
1162.200, 3901.184
1164.128, 3916.034
1166.057, 3940.135
1167.985, 3954.877
1169.914, 3949.579
1171.842, 3939.428
1173.771, 3949.667
1175.699, 3971.425
1177.628, 3988.157
1179.556, 3999.767
1181.485, 4010.659
1183.413, 4019.343
1185.342, 4014.938
1187.270, 4008.746
1189.198, 4015.676
1191.127, 4036.824
1193.055, 4066.103
1194.984, 4082.978
1196.912, 4093.135
1198.841, 4112.035
1200.769, 4123.720
1202.698, 4118.803
1204.626, 4109.537
1206.555, 4117.036
1208.483, 4126.224
1210.412, 4128.891
1212.340, 4134.820
1214.269, 4143.659
1216.197, 4151.781
1218.125, 4174.922
1220.054, 4209.061
1221.982, 4160.802
1223.911, 4229.181
1225.839, 4272.201
1227.768, 4291.234
1229.696, 4214.416
1231.625, 4261.369
1233.553, 4258.717
1235.482, 4254.037
1237.410, 4318.405
1239.339, 4255.531
1241.267, 4318.804
1243.196, 4331.726
1245.124, 4367.689
1247.052, 4353.745
1248.981, 4355.221
1250.909, 4406.615
1252.838, 4430.371
1254.766, 4410.682
1256.695, 4448.115
1258.623, 4383.494
1260.552, 4408.427
1262.480, 4471.992
1264.409, 4454.818
1266.337, 4493.158
1268.266, 4457.106
1270.194, 4463.828
1272.123, 4458.578
1274.051, 4452.100
1275.979, 4463.605
1277.908, 4496.250
1279.836, 4529.096
1281.765, 4566.743
1283.693, 4600.681
1285.622, 4614.166
1287.550, 4608.776
1289.479, 4620.220
1291.407, 4670.043
1293.336, 4697.932
1295.264, 4682.459
1297.193, 4656.357
1299.121, 4661.215
1301.050, 4716.905
1302.978, 4752.712
1304.906, 4743.011
1306.835, 4721.001
1308.763, 4717.932
1310.692, 4733.792
1312.620, 4746.471
1314.549, 4746.938
1316.477, 4756.852
1318.406, 4789.488
1320.334, 4819.309
1322.263, 4825.630
1324.191, 4814.490
1326.120, 4815.432
1328.048, 4834.476
1329.977, 4853.919
1331.905, 4876.187
1333.833, 4904.045
1335.762, 4925.398
1337.690, 4935.956
1339.619, 4930.367
1341.547, 4892.342
1343.476, 4866.323
1345.404, 4883.480
1347.333, 4932.079
1349.261, 4956.839
1351.190, 4941.302
1353.118, 4918.021
1355.047, 4879.914
1356.975, 4856.020
1358.904, 4871.723
1360.832, 4926.594
1362.760, 4964.097
1364.689, 4972.833
1366.617, 4969.401
1368.546, 4967.492
1370.474, 4973.879
1372.403, 4965.911
1374.331, 4938.060
1376.260, 4922.604
1378.188, 4935.043
1380.117, 4951.344
1382.045, 4952.917
1383.974, 4940.271
1385.902, 4932.309
1387.831, 4936.466
1389.759, 4954.413
1391.688, 4994.753
1393.616, 5021.941
1395.544, 5033.316
1397.473, 5035.634
1399.401, 5022.314
1401.330, 4981.836
1403.258, 4948.976
1405.187, 4925.333
1407.115, 4921.333
1409.044, 4944.647
1410.972, 4987.792
1412.901, 5029.439
1414.829, 5069.613
1416.758, 5106.988
1418.686, 5140.179
1420.615, 5171.551
1422.543, 5201.239
1424.471, 5224.827
1426.400, 5240.934
1428.328, 5243.822
1430.257, 5257.132
1432.185, 5299.510
1434.114, 5337.610
1436.042, 5344.557
1437.971, 5331.017
1439.899, 5337.422
1441.828, 5371.858
1443.756, 5401.201
1445.685, 5417.620
1447.613, 5425.680
1449.542, 5425.409
1451.470, 5417.814
1453.398, 5406.446
1455.327, 5389.828
1457.255, 5374.045
1459.184, 5360.279
1461.112, 5349.959
1463.041, 5345.793
1464.969, 5346.304
1466.898, 5340.116
1468.826, 5318.127
1470.755, 5309.724
1472.683, 5337.931
1474.612, 5367.395
1476.540, 5372.887
1478.469, 5355.524
1480.397, 5337.424
1482.325, 5308.467
1484.254, 5300.448
1486.182, 5337.860
1488.111, 5376.659
1490.039, 5380.664
1491.968, 5358.857
1493.896, 5360.351
1495.825, 5407.954
1497.753, 5439.077
1499.682, 5441.234
1501.610, 5434.965
1503.539, 5433.901
1505.467, 5436.254
1507.396, 5427.959
1509.324, 5401.197
1511.252, 5382.209
1513.181, 5372.104
1515.109, 5374.400
1517.038, 5396.167
1518.966, 5434.198
1520.895, 5470.630
1522.823, 5502.329
1524.752, 5527.924
1526.680, 5544.497
1528.609, 5556.188
1530.537, 5556.963
1532.466, 5552.109
1534.394, 5558.219
1536.323, 5579.556
1538.251, 5603.689
1540.179, 5638.607
1542.108, 5659.467
1544.036, 5644.615
1545.965, 5619.908
1547.893, 5614.063
1549.822, 5627.410
1551.750, 5656.244
1553.679, 5712.800
1555.607, 5757.165
1557.536, 5763.561
1559.464, 5757.737
1561.393, 5758.983
1563.321, 5768.350
1565.250, 5793.716
1567.178, 5851.573
1569.106, 5867.783
1571.035, 5781.120
1572.963, 5688.034
1574.892, 5657.931
1576.820, 5670.426
1578.749, 5666.438
1580.677, 5645.158
1582.606, 5629.889
1584.534, 5626.639
1586.463, 5628.229
1588.391, 5627.564
1590.320, 5632.792
1592.248, 5661.033
1594.177, 5713.519
1596.105, 5745.058
1598.033, 5746.520
1599.962, 5727.292
1601.890, 5664.200
1603.819, 5599.654
1605.747, 5588.059
1607.676, 5627.708
1609.604, 5625.501
1611.533, 5563.432
1613.461, 5498.705
1615.390, 5445.968
1617.318, 5395.568
1619.247, 5335.972
1621.175, 5273.842
1623.104, 5234.340
1625.032, 5226.674
1626.960, 5211.546
1628.889, 5167.686
1630.817, 5136.500
1632.746, 5141.511
1634.674, 5158.063
1636.603, 5156.021
1638.531, 5133.650
1640.460, 5110.670
1642.388, 5089.984
1644.317, 5062.760
1646.245, 5020.602
1648.174, 4980.741
1650.102, 4957.397
1652.031, 4945.018
1653.959, 4922.471
1655.887, 4880.569
1657.816, 4857.246
1659.744, 4885.313
1661.673, 4892.724
1663.601, 4829.132
1665.530, 4755.526
1667.458, 4748.748
1669.387, 4808.618
1671.315, 4836.885
1673.244, 4815.949
1675.172, 4797.415
1677.101, 4793.292
1679.029, 4786.097
1680.958, 4758.656
1682.886, 4724.276
1684.814, 4711.451
1686.743, 4724.769
1688.671, 4738.872
1690.600, 4772.047
1692.528, 4777.895
1694.457, 4709.259
1696.385, 4645.793
1698.314, 4664.120
1700.242, 4740.743
1702.171, 4769.655
1704.099, 4730.944
1706.028, 4710.333
1707.956, 4725.751
1709.885, 4746.397
1711.813, 4768.940
1713.741, 4788.294
1715.670, 4796.092
1717.598, 4793.587
1719.527, 4803.289
1721.455, 4835.524
1723.384, 4850.719
1725.312, 4833.661
1727.241, 4809.756
1729.169, 4776.890
1731.098, 4750.779
1733.026, 4759.666
1734.955, 4802.664
1736.883, 4828.188
1738.812, 4829.574
1740.740, 4824.831
1742.668, 4814.131
1744.597, 4799.971
1746.525, 4779.669
1748.454, 4757.416
1750.382, 4740.451
1752.311, 4728.673
1754.239, 4719.873
1756.168, 4719.242
1758.096, 4708.566
1760.025, 4665.487
1761.953, 4636.367
1763.882, 4672.776
1765.810, 4728.057
1767.739, 4710.583
1769.667, 4625.931
1771.595, 4590.213
1773.524, 4623.237
1775.452, 4673.214
1777.381, 4745.441
1779.309, 4804.023
1781.238, 4819.794
1783.166, 4810.809
1785.095, 4802.002
1787.023, 4793.495
1788.952, 4784.323
1790.880, 4773.474
1792.809, 4766.250
1794.737, 4768.212
1796.666, 4769.691
1798.594, 4759.919
1800.522, 4749.121
1802.451, 4758.537
1804.379, 4784.425
1806.308, 4786.609
1808.236, 4751.250
1810.165, 4729.019
1812.093, 4735.461
1814.022, 4750.785
1815.950, 4778.694
1817.879, 4803.495
1819.807, 4798.642
1821.736, 4768.771
1823.664, 4760.833
1825.593, 4787.503
1827.521, 4802.565
1829.449, 4785.919
1831.378, 4778.885
1833.306, 4806.917
1835.235, 4839.320
1837.163, 4844.720
1839.092, 4829.904
1841.020, 4823.521
1842.949, 4833.932
1844.877, 4829.869
1846.806, 4797.392
1848.734, 4772.288
1850.663, 4759.885
1852.591, 4759.020
1854.520, 4777.950
1856.448, 4804.594
1858.376, 4811.951
1860.305, 4798.461
1862.233, 4793.602
1864.162, 4799.618
1866.090, 4807.168
1868.019, 4812.167
1869.947, 4820.517
1871.876, 4841.440
1873.804, 4862.548
1875.733, 4866.310
1877.661, 4859.841
1879.590, 4873.543
1881.518, 4912.168
1883.447, 4926.702
1885.375, 4893.604
1887.303, 4872.292
1889.232, 4898.375
1891.160, 4927.969
1893.089, 4924.883
1895.017, 4908.743
1896.946, 4918.683
1898.874, 4952.946
1900.803, 4968.751
1902.731, 4956.338
1904.660, 4949.987
1906.588, 4960.472
1908.517, 4969.791
1910.445, 4976.171
1912.374, 4973.640
1914.302, 4944.788
1916.230, 4903.332
1918.159, 4892.711
1920.087, 4917.526
1922.016, 4949.597
1923.944, 5003.275
1925.873, 5038.761
1927.801, 5047.936
1929.730, 5044.017
1931.658, 5022.125
1933.587, 4999.487
1935.515, 4992.281
1937.444, 5000.399
1939.372, 5027.514
1941.301, 5075.957
1943.229, 5105.772
1945.157, 5103.625
1947.086, 5106.377
1949.014, 5128.406
1950.943, 5149.767
1952.871, 5168.875
1954.800, 5173.411
1956.728, 5134.228
1958.657, 5069.605
1960.585, 5045.724
1962.514, 5067.316
1964.442, 5102.217
1966.371, 5176.190
1968.299, 5213.129
1970.228, 5159.722
1972.156, 5113.851
1974.084, 5142.098
1976.013, 5186.951
1977.941, 5175.500
1979.870, 5126.580
1981.798, 5115.977
1983.727, 5155.541
1985.655, 5175.006
1987.584, 5156.498
1989.512, 5155.452
1991.441, 5196.362
1993.369, 5231.675
1995.298, 5234.411
1997.226, 5227.499
1999.155, 5238.352
2001.083, 5251.568
2003.011, 5217.453
2004.940, 5144.666
2006.868, 5145.845
2008.797, 5253.618
2010.725, 5327.751
2012.654, 5325.557
2014.582, 5312.408
2016.511, 5302.830
2018.439, 5296.594
2020.368, 5294.436
2022.296, 5294.714
2024.225, 5294.624
2026.153, 5294.529
2028.082, 5298.119
2030.010, 5307.230
2031.938, 5313.338
2033.867, 5312.032
2035.795, 5314.875
2037.724, 5328.722
2039.652, 5340.920
2041.581, 5338.523
2043.509, 5339.960
2045.438, 5371.068
2047.366, 5414.881
2049.295, 5432.387
2051.223, 5426.618
2053.152, 5428.359
2055.080, 5439.813
2057.009, 5453.463
2058.937, 5475.685
2060.865, 5485.146
2062.794, 5450.396
2064.722, 5431.737
2066.651, 5493.260
2068.579, 5564.604
2070.508, 5553.241
2072.436, 5487.993
2074.365, 5463.915
2076.293, 5486.454
2078.222, 5480.527
2080.150, 5430.751
2082.079, 5411.451
2084.007, 5449.922
2085.936, 5482.661
2087.864, 5484.481
2089.792, 5479.820
2091.721, 5477.141
2093.649, 5479.596
2095.578, 5498.207
2097.506, 5522.344
2099.435, 5520.159
2101.363, 5490.720
2103.292, 5480.816
2105.220, 5502.419
2107.149, 5521.011
2109.077, 5537.347
2111.006, 5550.952
2112.934, 5550.334
2114.863, 5559.890
2116.791, 5614.014
2118.719, 5658.711
2120.648, 5624.660
2122.576, 5555.782
2124.505, 5541.853
2126.433, 5573.071
2128.362, 5595.141
2130.290, 5605.521
2132.219, 5622.759
2134.147, 5657.767
2136.076, 5678.549
2138.004, 5671.215
2139.933, 5659.884
2141.861, 5655.088
2143.790, 5646.068
2145.718, 5608.231
2147.646, 5574.587
2149.575, 5600.588
2151.503, 5663.462
2153.432, 5684.491
2155.360, 5665.785
2157.289, 5659.144
2159.217, 5668.740
2161.146, 5675.426
2163.074, 5675.801
2165.003, 5679.146
2166.931, 5698.740
2168.860, 5710.709
2170.788, 5701.130
2172.717, 5687.063
2174.645, 5676.971
2176.573, 5672.485
2178.502, 5673.881
2180.430, 5682.110
2182.359, 5707.855
2184.287, 5750.020
2186.216, 5759.873
2188.144, 5726.768
2190.073, 5729.970
2192.001, 5795.052
2193.930, 5842.749
2195.858, 5848.462
2197.787, 5841.112
2199.715, 5818.677
2201.644, 5805.617
2203.572, 5837.429
2205.500, 5871.579
2207.429, 5843.716
2209.357, 5787.063
2211.286, 5785.566
2213.214, 5833.295
2215.143, 5844.591
2217.071, 5815.251
2219.000, 5820.938
2220.928, 5878.119
2222.857, 5913.762
2224.785, 5908.739
2226.714, 5892.824
2228.642, 5857.099
2230.571, 5836.759
2232.499, 5860.507
2234.427, 5891.558
2236.356, 5906.512
2238.284, 5909.401
2240.213, 5903.606
2242.141, 5891.469
2244.070, 5871.139
2245.998, 5847.115
2247.927, 5857.069
2249.855, 5902.688
2251.784, 5945.332
2253.712, 5980.734
2255.641, 6011.255
2257.569, 6040.262
2259.498, 6056.914
2261.426, 6056.652
2263.354, 6045.708
2265.283, 6013.442
2267.211, 5986.509
2269.140, 5983.165
2271.068, 5993.584
2272.997, 6017.958
2274.925, 6042.418
2276.854, 6034.573
2278.782, 6005.286
2280.711, 5993.455
2282.639, 6000.798
2284.568, 6009.777
2286.496, 6022.632
2288.425, 6033.438
2290.353, 6045.347
2292.281, 6048.996
2294.210, 6028.047
2296.138, 6020.598
2298.067, 6041.787
2299.995, 6063.852
2301.924, 6077.361
2303.852, 6082.820
2305.781, 6072.582
2307.709, 6063.074
2309.638, 6074.636
2311.566, 6098.994
2313.495, 6122.071
2315.423, 6144.801
2317.352, 6165.089
2319.280, 6182.681
2321.208, 6223.158
2323.137, 6288.201
2325.065, 6361.094
2326.994, 6448.515
2328.922, 6494.574
2330.851, 6484.462
2332.779, 6441.665
2334.708, 6331.301
2336.636, 6250.328
2338.565, 6255.653
2340.493, 6265.812
2342.422, 6240.548
2344.350, 6204.395
2346.279, 6165.135
2348.207, 6135.526
2350.135, 6136.952
2352.064, 6153.175
2353.992, 6161.625
2355.921, 6160.109
2357.849, 6134.101
2359.778, 6086.674
2361.706, 6073.197
2363.635, 6099.037
2365.563, 6133.286
2367.492, 6184.095
2369.420, 6210.428
2371.349, 6201.660
2373.277, 6196.009
2375.206, 6198.037
2377.134, 6209.815
2379.063, 6244.681
2380.991, 6268.892
2382.919, 6254.750
2384.848, 6245.202
2386.776, 6276.333
2388.705, 6308.092
2390.633, 6314.570
2392.562, 6302.051
2394.490, 6260.419
2396.419, 6216.605
2398.347, 6208.637
2400.276, 6232.065
2402.204, 6287.183
2404.133, 6364.705
2406.061, 6416.911
2407.990, 6443.168
2409.918, 6419.313
2411.846, 6330.545
2413.775, 6313.061
2415.703, 6390.691
2417.632, 6422.340
2419.560, 6372.729
2421.489, 6348.155
2423.417, 6384.960
2425.346, 6420.887
2427.274, 6436.648
2429.203, 6452.388
2431.131, 6481.683
2433.060, 6498.763
2434.988, 6481.209
2436.917, 6464.464
2438.845, 6479.333
2440.773, 6495.789
2442.702, 6483.009
2444.630, 6466.317
2446.559, 6481.606
2448.487, 6505.851
2450.416, 6487.322
2452.344, 6451.008
2454.273, 6471.271
2456.201, 6529.658
2458.130, 6559.239
2460.058, 6562.658
2461.987, 6554.508
2463.915, 6536.105
2465.844, 6540.817
2467.772, 6578.685
2469.700, 6602.388
2471.629, 6612.366
2473.557, 6604.440
2475.486, 6569.753
2477.414, 6551.228
2479.343, 6559.125
2481.271, 6568.513
2483.200, 6569.511
2485.128, 6577.969
2487.057, 6618.961
2488.985, 6637.708
2490.914, 6586.245
2492.842, 6554.791
2494.771, 6596.879
2496.699, 6642.491
2498.627, 6660.157
2500.556, 6659.487
2502.484, 6623.075
2504.413, 6596.571
2506.341, 6645.949
2508.270, 6705.037
2510.198, 6674.081
2512.127, 6620.092
2514.055, 6657.603
2515.984, 6734.581
2517.912, 6760.588
2519.841, 6750.326
2521.769, 6731.043
2523.698, 6708.281
2525.626, 6710.084
2527.554, 6731.014
2529.483, 6696.322
2531.411, 6614.167
2533.340, 6617.424
2535.268, 6703.498
2537.197, 6767.466
2539.125, 6801.901
2541.054, 6807.466
2542.982, 6767.621
2544.911, 6746.980
2546.839, 6748.350
2548.768, 6758.802
2550.696, 6780.383
2552.625, 6800.380
2554.553, 6819.274
2556.481, 6830.613
2558.410, 6825.653
2560.338, 6829.589
2562.267, 6876.259
2564.195, 6882.721
2566.124, 6792.606
2568.052, 6746.010
2569.981, 6815.361
2571.909, 6867.706
2573.838, 6814.622
2575.766, 6777.661
2577.695, 6830.487
2579.623, 6882.946
2581.552, 6886.453
2583.480, 6880.761
2585.408, 6879.040
2587.337, 6888.298
2589.265, 6938.078
2591.194, 6970.408
2593.122, 6917.796
2595.051, 6852.127
2596.979, 6843.662
2598.908, 6850.651
2600.836, 6820.608
2602.765, 6792.612
2604.693, 6823.068
2606.622, 6868.913
2608.550, 6878.047
2610.479, 6867.225
2612.407, 6853.715
2614.335, 6843.010
2616.264, 6841.832
2618.192, 6852.993
2620.121, 6889.665
2622.049, 6940.285
2623.978, 6994.008
2625.906, 7035.778
2627.835, 7006.659
2629.763, 6936.417
2631.692, 6938.489
2633.620, 6990.333
2635.549, 6984.936
2637.477, 6941.311
2639.406, 6937.417
2641.334, 6963.956
2643.262, 6948.884
2645.191, 6900.687
2647.119, 6917.883
2649.048, 6993.051
2650.976, 7034.863
2652.905, 7044.918
2654.833, 7047.958
2656.762, 7045.255
2658.690, 7046.927
2660.619, 7055.236
2662.547, 7039.837
2664.476, 7000.864
2666.404, 6996.546
2668.333, 7026.869
2670.261, 7044.867
2672.189, 7046.698
2674.118, 7046.013
2676.046, 7040.322
2677.975, 7045.978
2679.903, 7063.512
2681.832, 7082.218
2683.760, 7101.263
2685.689, 7138.891
2687.617, 7202.847
2689.546, 7218.568
2691.474, 7165.307
2693.403, 7140.267
2695.331, 7147.586
2697.260, 7143.902
2699.188, 7126.240
2701.116, 7127.758
2703.045, 7157.447
2704.973, 7183.045
2706.902, 7211.329
2708.830, 7204.687
2710.759, 7153.952
2712.687, 7147.362
2714.616, 7194.091
2716.544, 7224.979
2718.473, 7226.978
2720.401, 7227.121
2722.330, 7218.841
2724.258, 7242.725
2726.187, 7307.979
2728.115, 7313.428
2730.043, 7245.090
2731.972, 7230.277
2733.900, 7306.910
2735.829, 7337.432
2737.757, 7308.423
2739.686, 7303.979
2741.614, 7327.036
2743.543, 7319.353
2745.471, 7270.795
2747.400, 7225.492
2749.328, 7176.881
2751.257, 7189.969
2753.185, 7277.041
2755.114, 7307.460
2757.042, 7278.707
2758.970, 7266.131
2760.899, 7277.638
2762.827, 7276.462
2764.756, 7257.069
2766.684, 7268.436
2768.613, 7309.064
2770.541, 7322.978
2772.470, 7310.539
2774.398, 7336.014
2776.327, 7401.643
2778.255, 7407.366
2780.184, 7353.632
2782.112, 7342.626
2784.041, 7369.310
2785.969, 7413.469
2787.897, 7463.062
2789.826, 7424.338
2791.754, 7315.885
2793.683, 7292.686
2795.611, 7342.896
2797.540, 7421.936
2799.468, 7505.828
2801.397, 7485.802
2803.325, 7403.229
2805.254, 7398.347
2807.182, 7444.563
2809.111, 7457.999
2811.039, 7451.648
2812.968, 7449.617
2814.896, 7459.604
2816.824, 7517.764
2818.753, 7587.723
2820.681, 7590.415
2822.610, 7565.010
2824.538, 7569.265
2826.467, 7595.188
2828.395, 7638.320
2830.324, 7690.728
2832.252, 7747.421
2834.181, 7802.432
2836.109, 7843.425
2838.038, 7884.774
2839.966, 7949.926
2841.895, 8005.206
2843.823, 8001.102
2845.751, 7999.764
2847.680, 8059.917
2849.608, 8124.379
2851.537, 8169.226
2853.465, 8196.860
2855.394, 8178.428
2857.322, 8190.660
2859.251, 8317.216
2861.179, 8403.514
2863.108, 8358.927
2865.036, 8350.985
2866.965, 8488.263
2868.893, 8589.191
2870.822, 8561.124
2872.750, 8577.459
2874.678, 8697.993
2876.607, 8753.339
2878.535, 8684.911
2880.464, 8639.690
2882.392, 8660.800
2884.321, 8670.523
2886.249, 8655.710
2888.178, 8704.663
2890.106, 8832.570
2892.035, 8903.228
2893.963, 8886.890
2895.892, 8942.367
2897.820, 9073.564
2899.749, 9142.027
2901.677, 9158.457
2903.605, 9240.224
2905.534, 9373.887
2907.462, 9462.639
2909.391, 9517.567
2911.319, 9580.231
2913.248, 9648.322
2915.176, 9708.816
2917.105, 9773.143
2919.033, 9873.807
2920.962, 9980.130
2922.890, 10034.19
2924.819, 10076.07
2926.747, 10147.00
2928.676, 10230.52
2930.604, 10334.66
2932.532, 10415.69
2934.461, 10415.93
2936.389, 10416.94
2938.318, 10468.13
2940.246, 10516.01
2942.175, 10533.19
2944.103, 10537.87
2946.032, 10544.60
2947.960, 10512.67
2949.889, 10426.49
2951.817, 10328.32
2953.746, 10252.18
2955.674, 10113.89
2957.603, 9894.271
2959.531, 9693.520
2961.459, 9517.234
2963.388, 9409.784
2965.316, 9382.812
2967.245, 9261.596
2969.173, 9046.159
2971.102, 8948.984
2973.030, 8937.552
2974.959, 8873.146
2976.887, 8779.705
2978.816, 8725.946
2980.744, 8698.934
2982.673, 8675.699
2984.601, 8655.621
2986.530, 8640.960
2988.458, 8622.266
2990.386, 8579.848
2992.315, 8540.343
2994.243, 8515.583
2996.172, 8513.320
2998.100, 8571.092
3000.029, 8599.919
3001.957, 8531.637
3003.886, 8489.253
3005.814, 8518.618
3007.743, 8508.471
3009.671, 8413.293
3011.600, 8350.729
3013.528, 8343.826
3015.457, 8332.904
3017.385, 8315.641
3019.313, 8300.122
3021.242, 8286.113
3023.170, 8279.642
3025.099, 8276.265
3027.027, 8243.181
3028.956, 8194.990
3030.884, 8169.797
3032.813, 8154.364
3034.741, 8126.019
3036.670, 8094.844
3038.598, 8073.919
3040.527, 8054.298
3042.455, 8022.187
3044.384, 7999.253
3046.312, 8016.248
3048.240, 8012.172
3050.169, 7950.773
3052.097, 7911.599
3054.026, 7925.302
3055.954, 7946.868
3057.883, 7983.777
3059.811, 7968.584
3061.740, 7894.864
3063.668, 7876.419
3065.597, 7920.136
3067.525, 7944.002
3069.454, 7948.631
3071.382, 7925.368
3073.311, 7890.869
3075.239, 7878.526
3077.167, 7882.783
3079.096, 7900.464
3081.024, 7923.325
3082.953, 7962.794
3084.881, 7974.091
3086.810, 7886.137
3088.738, 7829.204
3090.667, 7882.189
3092.595, 7927.292
3094.524, 7935.432
3096.452, 7940.995
3098.381, 7960.274
3100.309, 7950.130
3102.238, 7908.550
3104.166, 7870.822
3106.094, 7842.908
3108.023, 7872.605
3109.951, 7933.914
3111.880, 7910.112
3113.808, 7848.781
3115.737, 7822.782
3117.665, 7826.891
3119.594, 7886.815
3121.522, 7929.744
3123.451, 7887.605
3125.379, 7838.883
3127.308, 7804.851
3129.236, 7801.181
3131.165, 7856.501
3133.093, 7875.128
3135.021, 7840.407
3136.950, 7815.463
3138.878, 7805.707
3140.807, 7829.110
3142.735, 7878.620
3144.664, 7898.828
3146.592, 7896.011
3148.521, 7880.486
3150.449, 7865.350
3152.378, 7874.102
3154.306, 7890.808
3156.235, 7902.090
3158.163, 7914.670
3160.092, 7949.242
3162.020, 7946.637
3163.948, 7868.653
3165.877, 7834.161
3167.805, 7884.407
3169.734, 7936.022
3171.662, 7988.021
3173.591, 8002.292
3175.519, 7984.220
3177.448, 7971.765
3179.376, 7960.675
3181.305, 7932.903
3183.233, 7906.483
3185.162, 7916.786
3187.090, 7925.512
3189.019, 7881.584
3190.947, 7863.487
3192.875, 7910.384
3194.804, 7968.330
3196.732, 8050.811
3198.661, 8045.690
3200.589, 7922.937
3202.518, 7874.324
3204.446, 7898.513
3206.375, 7896.492
3208.303, 7877.852
3210.232, 7877.247
3212.160, 7892.472
3214.089, 7938.200
3216.017, 7969.649
3217.946, 7920.442
3219.874, 7883.983
3221.802, 7911.283
3223.731, 7933.643
3225.659, 7927.821
3227.588, 7919.834
3229.516, 7910.051
3231.445, 7930.428
3233.373, 7975.955
3235.302, 7977.237
3237.230, 7953.344
3239.159, 7977.375
3241.087, 8007.854
3243.016, 7978.278
3244.944, 7947.869
3246.873, 7974.196
3248.801, 7999.041
3250.729, 8005.044
3252.658, 7997.531
3254.586, 7971.849
3256.515, 7938.415
3258.443, 7896.462
3260.372, 7926.562
3262.300, 8007.014
3264.229, 8022.197
3266.157, 7999.019
3268.086, 7982.058
3270.014, 7969.432
3271.943, 7960.885
3273.871, 7955.324
3275.800, 7951.629
3277.728, 7958.186
3279.656, 7985.731
3281.585, 7989.937
3283.513, 7959.444
3285.442, 7955.700
3287.370, 7969.803
3289.299, 7940.032
3291.227, 7906.150
3293.156, 7986.866
3295.084, 8065.392
3297.013, 8030.280
3298.941, 7963.103
3300.870, 7865.052
3302.798, 7844.274
3304.727, 7939.692
3306.655, 8005.020
3308.583, 8017.843
3310.512, 8020.015
3312.440, 8010.239
3314.369, 7974.212
3316.297, 7937.559
3318.226, 7941.102
3320.154, 7970.688
3322.083, 8040.271
3324.011, 8082.991
3325.940, 8046.499
3327.868, 8027.246
3329.797, 8040.716
3331.725, 8046.597
3333.654, 8041.778
3335.582, 8024.809
3337.510, 8004.409
3339.439, 8001.113
3341.367, 8016.776
3343.296, 8069.894
3345.224, 8113.804
3347.153, 8122.381
3349.081, 8104.912
3351.010, 8048.968
3352.938, 8025.909
3354.867, 8045.844
3356.795, 8050.449
3358.724, 8043.419
3360.652, 8031.811
3362.581, 8026.390
3364.509, 8048.066
3366.438, 8075.404
3368.366, 8096.875
3370.294, 8112.700
3372.223, 8126.473
3374.151, 8119.141
3376.080, 8087.789
3378.008, 8076.336
3379.937, 8082.476
3381.865, 8083.081
3383.794, 8082.361
3385.722, 8088.775
3387.651, 8092.143
3389.579, 8073.437
3391.508, 8070.167
3393.436, 8099.889
3395.365, 8122.560
3397.293, 8134.575
3399.221, 8118.355
3401.150, 8088.728
3403.078, 8115.383
3405.007, 8157.502
3406.935, 8139.662
3408.864, 8124.599
3410.792, 8170.713
3412.721, 8187.072
3414.649, 8136.512
3416.578, 8128.269
3418.506, 8172.262
3420.435, 8141.896
3422.363, 8072.744
3424.292, 8100.297
3426.220, 8161.399
3428.148, 8208.172
3430.077, 8220.085
3432.005, 8161.721
3433.934, 8146.147
3435.862, 8223.352
3437.791, 8229.697
3439.719, 8171.585
3441.648, 8146.920
3443.576, 8149.552
3445.505, 8173.649
3447.433, 8205.679
3449.362, 8244.825
3451.290, 8263.834
3453.219, 8230.060
3455.147, 8221.603
3457.075, 8241.437
3459.004, 8249.205
3460.932, 8248.040
3462.861, 8251.630
3464.789, 8255.313
3466.718, 8249.809
3468.646, 8248.468
3470.575, 8261.344
3472.503, 8266.562
3474.432, 8259.211
3476.360, 8262.667
3478.289, 8275.035
3480.217, 8264.729
3482.146, 8252.981
3484.074, 8276.639
3486.002, 8300.852
3487.931, 8307.635
3489.859, 8293.853
3491.788, 8238.810
3493.716, 8253.061
3495.645, 8325.232
3497.573, 8288.650
3499.502, 8215.870
3501.430, 8245.745
3503.359, 8290.240
3505.287, 8292.387
3507.216, 8286.396
3509.144, 8278.992
3511.073, 8276.069
3513.001, 8277.600
3514.929, 8270.280
3516.858, 8265.019
3518.786, 8295.274
3520.715, 8321.251
3522.643, 8315.212
3524.572, 8288.049
3526.500, 8230.141
3528.429, 8225.832
3530.357, 8278.994
3532.286, 8326.930
3534.214, 8363.541
3536.143, 8383.591
3538.071, 8377.541
3540.000, 8303.239
3541.928, 8275.930
3543.856, 8326.750
3545.785, 8366.176
3547.713, 8387.656
3549.642, 8382.604
3551.570, 8371.732
3553.499, 8377.920
3555.427, 8408.437
3557.356, 8492.121
3559.284, 8524.762
3561.213, 8467.060
3563.141, 8416.666
3565.070, 8381.296
3566.998, 8392.806
3568.927, 8425.731
3570.855, 8475.513
3572.783, 8478.985
3574.712, 8371.166
3576.640, 8344.112
3578.569, 8431.445
3580.497, 8441.249
3582.426, 8406.185
3584.354, 8435.620
3586.283, 8465.396
3588.211, 8423.762
3590.140, 8395.701
3592.068, 8427.354
3593.997, 8436.027
3595.925, 8422.985
3597.854, 8423.260
3599.782, 8432.781
3601.710, 8457.980
3603.639, 8467.481
3605.567, 8436.680
3607.496, 8399.004
3609.424, 8358.703
3611.353, 8365.521
3613.281, 8402.362
3615.210, 8394.590
3617.138, 8380.899
3619.067, 8402.973
3620.995, 8419.048
3622.924, 8409.139
3624.852, 8418.781
3626.781, 8447.903
3628.709, 8436.927
3630.637, 8417.357
3632.566, 8452.979
3634.494, 8486.944
3636.423, 8476.472
3638.351, 8487.195
3640.280, 8526.938
3642.208, 8525.981
3644.137, 8497.740
3646.065, 8479.619
3647.994, 8473.923
3649.922, 8506.076
3651.851, 8493.971
3653.779, 8412.630
3655.708, 8414.443
3657.636, 8481.210
3659.564, 8456.772
3661.493, 8413.280
3663.421, 8434.812
3665.350, 8450.144
3667.278, 8433.315
3669.207, 8412.942
3671.135, 8394.336
3673.064, 8440.498
3674.992, 8502.763
3676.921, 8513.068
3678.849, 8511.159
3680.778, 8515.703
3682.706, 8513.333
3684.635, 8502.267
3686.563, 8491.337
3688.491, 8486.192
3690.420, 8504.429
3692.348, 8517.464
3694.277, 8509.429
3696.205, 8490.810
3698.134, 8462.764
3700.062, 8429.586
3701.991, 8410.253
3703.919, 8459.909
3705.848, 8513.783
3707.776, 8539.214
3709.705, 8512.582
3711.633, 8413.104
3713.562, 8435.934
3715.490, 8519.562
3717.418, 8496.586
3719.347, 8464.879
3721.275, 8504.109
3723.204, 8539.824
3725.132, 8561.949
3727.061, 8563.258
3728.989, 8560.413
3730.918, 8616.760
3732.846, 8653.366
3734.775, 8584.216
3736.703, 8540.079
3738.632, 8545.255
3740.560, 8570.755
3742.489, 8600.921
3744.417, 8595.526
3746.345, 8579.366
3748.274, 8565.637
3750.202, 8554.296
3752.131, 8544.660
3754.059, 8522.078
3755.988, 8500.652
3757.916, 8518.799
3759.845, 8542.378
3761.773, 8556.015
3763.702, 8556.513
3765.630, 8542.657
3767.559, 8525.422
3769.487, 8519.582
3771.416, 8561.563
3773.344, 8600.176
3775.272, 8610.859
3777.201, 8613.372
3779.129, 8610.449
3781.058, 8591.883
3782.986, 8579.468
3784.915, 8611.697
3786.843, 8632.324
3788.772, 8612.745
3790.700, 8648.142
3792.629, 8722.022
3794.557, 8686.615
3796.486, 8615.480
3798.414, 8552.061
3800.343, 8559.503
3802.271, 8658.910
3804.199, 8634.644
3806.128, 8540.681
3808.056, 8606.953
3809.985, 8669.157
3811.913, 8562.558
3813.842, 8548.380
3815.770, 8652.358
3817.699, 8661.542
3819.627, 8629.644
3821.556, 8684.151
3823.484, 8728.253
3825.413, 8703.665
3827.341, 8686.920
3829.270, 8680.025
3831.198, 8662.620
3833.126, 8644.939
3835.055, 8631.042
3836.983, 8639.976
3838.912, 8688.278
3840.840, 8703.549
3842.769, 8692.112
3844.697, 8675.479
3846.626, 8656.019
3848.554, 8629.211
3850.483, 8631.975
3852.411, 8669.864
3854.340, 8677.631
3856.268, 8656.639
3858.197, 8584.073
3860.125, 8538.151
3862.053, 8540.872
3863.982, 8605.141
3865.910, 8701.314
3867.839, 8702.249
3869.767, 8680.486
3871.696, 8697.018
3873.624, 8697.823
3875.553, 8665.924
3877.481, 8664.195
3879.410, 8676.086
3881.338, 8665.247
3883.267, 8634.619
3885.195, 8584.032
3887.124, 8613.771
3889.052, 8696.295
3890.980, 8734.780
3892.909, 8745.898
3894.837, 8723.629
3896.766, 8698.434
3898.694, 8683.993
3900.623, 8685.205
3902.551, 8685.409
3904.480, 8688.249
3906.408, 8677.135
3908.337, 8640.534
3910.265, 8663.221
3912.194, 8717.688
3914.122, 8730.499
3916.051, 8740.637
3917.979, 8752.009
3919.907, 8759.934
3921.836, 8779.992
3923.764, 8790.406
3925.693, 8780.770
3927.621, 8747.863
3929.550, 8732.678
3931.478, 8746.140
3933.407, 8738.651
3935.335, 8713.206
3937.264, 8709.322
3939.192, 8707.380
3941.121, 8668.459
3943.049, 8670.885
3944.978, 8706.495
3946.906, 8694.214
3948.834, 8691.808
3950.763, 8747.622
3952.691, 8764.407
3954.620, 8769.073
3956.548, 8768.093
3958.477, 8742.729
3960.405, 8765.621
3962.334, 8807.052
3964.262, 8811.717
3966.191, 8804.769
3968.119, 8806.799
3970.048, 8804.677
3971.976, 8799.380
3973.905, 8790.923
3975.833, 8822.806
3977.761, 8863.011
3979.690, 8822.058
3981.618, 8792.231
3983.547, 8807.049
3985.475, 8777.160
3987.404, 8750.624
3989.332, 8739.776
3991.261, 8744.111
3993.189, 8747.159
3995.118, 8757.645
3997.046, 8795.492
3998.975, 8823.334
4000.903, 8822.269
4002.832, 8795.348
4004.760, 8775.883
4006.688, 8808.194
4008.617, 8825.908
4010.545, 8785.844
4012.474, 8757.965
4014.402, 8802.828
4016.331, 8872.288
4018.259, 8846.231
4020.188, 8818.816
4022.116, 8847.397
4024.045, 8859.067
4025.973, 8870.109
4027.902, 8831.766
4029.830, 8820.422
4031.759, 8861.143
4033.687, 8886.558
4035.615, 8888.519
4037.544, 8846.973
4039.472, 8820.973
4041.401, 8817.015
4043.329, 8821.513
4045.258, 8864.475
4047.186, 8835.119
4049.115, 8800.492
4051.043, 8899.239
4052.972, 8955.858
4054.900, 8909.556
4056.829, 8825.657
4058.757, 8777.028
4060.686, 8837.281
4062.614, 8883.320
4064.542, 8905.885
4066.471, 8869.851
4068.399, 8809.003
4070.328, 8802.770
4072.256, 8797.455
4074.185, 8771.321
4076.113, 8821.846
4078.042, 8904.721
4079.970, 8892.532
4081.899, 8874.040
4083.827, 8892.651
4085.756, 8884.267
4087.684, 8863.291
4089.613, 8899.560
4091.541, 8928.304
4093.469, 8885.277
4095.398, 8905.870
4097.326, 8974.775
4099.255, 8907.616
4101.184, 8834.252
4103.112, 8895.518
4105.040, 8938.143
4106.969, 8929.075
4108.897, 8896.446
4110.826, 8881.200
4112.754, 8873.787
4114.683, 8891.184
4116.611, 8943.369
4118.540, 8967.765
4120.468, 8973.328
4122.396, 8921.986
4124.325, 8892.669
4126.253, 8942.141
4128.182, 9002.271
4130.110, 9026.596
4132.039, 8958.973
4133.967, 8911.440
4135.896, 8908.260
4137.824, 8897.373
4139.753, 8891.702
4141.681, 8854.135
4143.609, 8851.189
4145.538, 8934.019
4147.467, 8940.250
4149.395, 8923.585
4151.323, 8914.098
4153.252, 8913.656
4155.181, 8922.397
4157.109, 8970.169
4159.037, 9039.966
4160.966, 9016.041
4162.895, 8980.599
4164.823, 9012.646
4166.751, 8985.370
4168.680, 8907.484
4170.608, 8940.870
4172.537, 9016.135
4174.465, 9059.874
4176.394, 9018.074
4178.322, 8928.557
4180.250, 8879.858
4182.179, 8906.118
4184.107, 9029.592
4186.036, 9081.691
4187.964, 9061.176
4189.893, 9028.774
4191.821, 9012.025
4193.750, 9032.083
4195.678, 9087.983
4197.606, 9155.833
4199.535, 9150.429
4201.464, 9135.033
4203.392, 9169.821
4205.320, 9125.350
4207.249, 9029.702
4209.178, 9113.067
4211.106, 9174.880
4213.034, 9073.967
4214.963, 9029.260
4216.892, 9053.082
4218.820, 9101.119
4220.748, 9127.419
4222.677, 9115.720
4224.605, 9151.054
4226.534, 9212.219
4228.462, 9266.471
4230.391, 9271.288
4232.319, 9175.464
4234.248, 9191.198
4236.176, 9256.154
4238.104, 9251.837
4240.033, 9233.790
4241.961, 9214.961
4243.890, 9194.939
4245.818, 9176.596
4247.747, 9157.369
4249.675, 9150.081
4251.604, 9157.340
4253.532, 9255.852
4255.461, 9347.397
4257.389, 9305.131
4259.317, 9255.728
4261.246, 9219.109
4263.175, 9221.902
4265.103, 9237.605
4267.031, 9247.740
4268.960, 9241.392
4270.889, 9233.145
4272.817, 9342.308
4274.745, 9422.069
4276.674, 9352.363
4278.603, 9329.789
4280.531, 9337.218
4282.459, 9289.507
4284.388, 9244.848
4286.316, 9226.974
4288.245, 9236.118
4290.173, 9259.783
4292.102, 9258.126
4294.030, 9308.832
4295.958, 9450.869
4297.887, 9411.094
4299.815, 9319.216
4301.744, 9315.229
4303.672, 9348.835
4305.601, 9405.820
4307.529, 9406.281
4309.458, 9376.496
4311.386, 9319.838
4313.314, 9315.099
4315.243, 9348.575
4317.172, 9338.721
4319.100, 9330.791
4321.028, 9347.109
4322.957, 9318.621
4324.886, 9284.069
4326.814, 9348.294
4328.742, 9360.912
4330.671, 9291.679
4332.600, 9303.243
4334.528, 9351.174
4336.456, 9402.289
4338.385, 9399.801
4340.313, 9356.683
4342.242, 9389.899
4344.170, 9409.661
4346.099, 9358.163
4348.027, 9340.100
4349.956, 9342.390
4351.884, 9302.013
4353.813, 9294.529
4355.741, 9342.724
4357.669, 9361.808
4359.598, 9372.896
4361.526, 9409.226
4363.455, 9441.022
4365.383, 9458.493
4367.312, 9416.214
4369.240, 9374.104
4371.169, 9388.005
4373.097, 9350.835
4375.025, 9297.968
4376.954, 9329.112
4378.883, 9367.357
4380.811, 9390.593
4382.739, 9375.312
4384.668, 9371.207
4386.597, 9468.473
4388.525, 9412.181
4390.453, 9232.635
4392.382, 9263.940
4394.311, 9332.831
4396.239, 9363.426
4398.167, 9371.355
4400.096, 9363.052
4402.024, 9328.348
4403.953, 9334.446
4405.881, 9382.975
4407.810, 9399.716
4409.738, 9384.852
4411.667, 9312.981
4413.595, 9347.528
4415.523, 9435.371
4417.452, 9438.192
4419.380, 9385.598
4421.309, 9277.771
4423.237, 9263.539
4425.166, 9307.714
4427.094, 9413.226
4429.022, 9419.651
4430.951, 9352.608
4432.880, 9375.156
4434.808, 9390.313
4436.736, 9363.972
4438.665, 9325.681
4440.594, 9292.325
4442.522, 9280.984
4444.450, 9280.126
4446.379, 9277.868
4448.308, 9208.231
4450.236, 9196.693
4452.164, 9311.362
4454.093, 9328.151
4456.021, 9306.486
4457.950, 9354.213
4459.878, 9328.710
4461.807, 9245.200
4463.735, 9349.569
4465.664, 9407.278
4467.592, 9287.750
4469.521, 9292.085
4471.449, 9325.998
4473.377, 9241.320
4475.306, 9220.498
4477.234, 9263.175
4479.163, 9211.533
4481.091, 9224.453
4483.020, 9375.573
4484.948, 9403.572
4486.877, 9365.447
4488.805, 9343.554
4490.733, 9296.856
4492.662, 9236.203
4494.591, 9240.896
4496.519, 9231.991
4498.447, 9175.865
4500.376, 9175.586
4502.305, 9186.459
4504.233, 9156.730
4506.161, 9158.718
4508.090, 9197.273
4510.019, 9292.009
4511.947, 9335.605
4513.875, 9297.225
4515.804, 9247.215
4517.732, 9214.029
4519.661, 9224.699
4521.589, 9268.264
4523.518, 9307.408
4525.446, 9245.228
4527.375, 9214.116
4529.303, 9236.047
4531.231, 9247.501
4533.160, 9251.052
4535.088, 9247.497
4537.017, 9220.402
4538.945, 9209.480
4540.874, 9295.660
4542.802, 9319.241
4544.730, 9282.997
4546.659, 9277.273
4548.588, 9255.330
4550.516, 9198.043
4552.444, 9228.615
4554.373, 9265.807
4556.302, 9248.240
4558.230, 9222.187
4560.158, 9200.292
4562.087, 9199.455
4564.016, 9192.548
4565.944, 9176.703
4567.872, 9157.790
4569.801, 9169.081
4571.729, 9234.416
4573.658, 9240.297
4575.586, 9218.151
4577.515, 9188.796
4579.443, 9205.405
4581.372, 9230.727
4583.300, 9289.248
4585.229, 9322.417
4587.157, 9331.594
4589.085, 9244.923
4591.014, 9282.020
4592.942, 9269.516
4594.871, 9254.979
4596.799, 9309.495
4598.728, 9236.766
4600.656, 9290.187
4602.585, 9293.251
4604.513, 9319.362
4606.441, 9295.567
4608.370, 9202.787
4610.299, 9208.325
4612.227, 9191.800
4614.155, 9121.696
4616.084, 9105.066
4618.013, 9131.985
4619.941, 9202.965
4621.869, 9236.791
4623.798, 9231.811
4625.727, 9186.908
4627.655, 9153.844
4629.583, 9137.557
4631.512, 9111.838
4633.440, 9127.308
4635.369, 9188.986
4637.297, 9091.466
4639.226, 9021.850
4641.154, 9100.446
4643.083, 9162.025
4645.011, 9185.454
4646.939, 9132.816
4648.868, 9117.209
4650.796, 9134.924
4652.725, 9158.934
4654.653, 9198.579
4656.582, 9240.486
4658.510, 9218.379
4660.438, 9173.196
4662.367, 9120.240
4664.296, 9104.213
4666.224, 9104.621
4668.152, 9107.716
4670.081, 9134.904
4672.010, 9174.455
4673.938, 9220.734
4675.866, 9252.282
4677.795, 9242.199
4679.724, 9094.589
4681.652, 9036.920
4683.580, 9079.372
4685.509, 9093.924
4687.438, 9094.740
4689.366, 9088.492
4691.294, 9076.203
4693.223, 9102.953
4695.151, 9220.230
4697.080, 9239.355
4699.008, 9166.835
4700.937, 8978.341
4702.865, 8998.220
4704.793, 9089.275
4706.722, 9004.754
4708.650, 9037.619
4710.579, 9138.463
4712.507, 9103.304
4714.436, 9051.314
4716.364, 9016.609
4718.293, 9073.792
4720.221, 9107.039
4722.149, 9084.423
4724.078, 9046.072
4726.007, 9016.396
4727.935, 9007.395
4729.863, 9028.641
4731.792, 9044.303
4733.721, 9029.629
4735.649, 8971.356
4737.577, 8937.932
4739.506, 9046.151
4741.435, 9063.555
4743.363, 9033.283
4745.291, 9052.547
4747.220, 9002.225
4749.148, 8920.579
4751.077, 8941.013
4753.005, 8945.190
4754.934, 8926.431
4756.862, 8972.907
4758.791, 9015.854
4760.719, 9040.611
4762.647, 9094.884
4764.576, 9098.049
4766.504, 9016.086
4768.433, 9026.547
4770.361, 9066.002
4772.290, 9100.743
4774.218, 9027.494
4776.146, 8955.711
4778.075, 8973.729
4780.004, 9060.968
4781.932, 9111.169
4783.860, 9004.400
4785.789, 8990.063
4787.718, 9034.505
4789.646, 9100.275
4791.574, 9033.638
4793.503, 8911.169
4795.432, 8888.514
4797.360, 8881.891
4799.288, 8902.866
4801.217, 9063.687
4803.146, 9062.989
4805.074, 8938.360
4807.002, 9019.475
4808.931, 9027.252
4810.859, 8929.877
4812.788, 8810.621
4814.716, 8815.479
4816.645, 8950.755
4818.573, 8912.325
4820.501, 8890.650
4822.430, 8939.305
4824.358, 8987.817
4826.287, 9015.933
4828.215, 9014.562
4830.144, 8981.636
4832.072, 8938.855
4834.001, 8899.928
4835.929, 8949.643
4837.857, 8977.338
4839.786, 8901.020
4841.715, 8858.264
4843.643, 8839.985
4845.571, 8839.453
4847.500, 8894.740
4849.429, 8922.882
4851.357, 8820.492
4853.285, 8857.712
4855.214, 8898.794
4857.143, 8821.422
4859.071, 8868.099
4860.999, 8922.839
4862.928, 8819.921
4864.856, 8835.968
4866.785, 8905.563
4868.713, 8960.150
4870.642, 8960.611
4872.570, 8927.068
4874.499, 8865.372
4876.427, 8902.067
4878.355, 8939.646
4880.284, 8835.751
4882.212, 8816.219
4884.141, 8845.979
4886.069, 8863.636
4887.998, 8824.750
4889.926, 8792.886
4891.854, 8886.327
4893.783, 8875.964
4895.712, 8825.351
4897.640, 8845.896
4899.568, 8848.117
4901.497, 8846.006
4903.426, 8872.266
4905.354, 8913.900
4907.282, 8923.497
4909.211, 8822.391
4911.140, 8844.316
4913.068, 8898.479
4914.996, 8795.168
4916.925, 8786.340
4918.854, 8840.863
4920.782, 8912.922
4922.710, 8902.608
4924.639, 8862.802
4926.567, 8872.731
4928.496, 8873.702
4930.424, 8866.574
4932.353, 8863.842
4934.281, 8821.390
4936.209, 8760.938
4938.138, 8699.384
4940.066, 8753.528
4941.995, 8822.251
4943.923, 8777.833
4945.852, 8767.433
4947.780, 8788.705
4949.709, 8840.181
4951.637, 8856.826
4953.565, 8821.753
4955.494, 8707.237
4957.423, 8728.865
4959.351, 8774.926
4961.279, 8765.266
4963.208, 8728.647
4965.137, 8701.893
4967.065, 8707.479
4968.993, 8722.577
4970.922, 8722.554
4972.851, 8689.766
4974.779, 8787.276
4976.707, 8851.438
4978.636, 8824.426
4980.564, 8850.535
4982.493, 8818.794
4984.421, 8703.170
4986.350, 8715.607
4988.278, 8753.912
4990.207, 8785.813
4992.135, 8833.208
4994.063, 8845.089
4995.992, 8812.112
4997.920, 8707.958
4999.849, 8695.336
5001.777, 8758.866
5003.706, 8762.382
5005.634, 8779.256
5007.563, 8795.039
5009.491, 8741.702
5011.420, 8749.004
5013.348, 8768.478
5015.276, 8667.040
5017.205, 8727.725
5019.134, 8829.765
5021.062, 8813.416
5022.990, 8797.578
5024.919, 8765.927
5026.848, 8683.029
5028.776, 8685.203
5030.704, 8716.378
5032.633, 8739.600
5034.562, 8808.697
5036.490, 8814.773
5038.418, 8724.872
5040.347, 8692.041
5042.275, 8673.830
5044.204, 8661.898
5046.132, 8759.612
5048.061, 8751.733
5049.989, 8661.473
5051.917, 8789.400
5053.846, 8783.758
5055.774, 8690.909
5057.703, 8731.722
5059.631, 8765.396
5061.560, 8779.613
5063.488, 8785.821
5065.417, 8743.620
5067.345, 8675.023
5069.273, 8598.428
5071.202, 8634.345
5073.131, 8691.806
5075.059, 8710.896
5076.987, 8648.552
5078.916, 8648.689
5080.845, 8737.585
5082.773, 8669.713
5084.701, 8677.936
5086.630, 8768.178
5088.559, 8666.917
5090.487, 8610.646
5092.415, 8625.723
5094.344, 8689.913
5096.272, 8631.550
5098.201, 8558.604
5100.129, 8642.176
5102.058, 8683.945
5103.986, 8688.898
5105.915, 8669.340
5107.843, 8652.306
5109.771, 8608.254
5111.700, 8536.616
5113.628, 8569.246
5115.557, 8539.741
5117.485, 8438.268
5119.414, 8443.021
5121.342, 8461.429
5123.271, 8480.410
5125.199, 8514.240
5127.128, 8557.219
5129.056, 8587.071
5130.984, 8579.898
5132.913, 8533.180
5134.842, 8515.629
5136.770, 8583.294
5138.698, 8560.177
5140.627, 8575.945
5142.556, 8650.902
5144.484, 8571.402
5146.412, 8550.789
5148.341, 8593.823
5150.270, 8610.698
5152.198, 8592.156
5154.126, 8550.316
5156.055, 8486.642
5157.983, 8540.900
5159.912, 8586.037
5161.840, 8537.383
5163.769, 8533.601
5165.697, 8532.110
5167.625, 8518.543
5169.554, 8534.428
5171.482, 8524.600
5173.411, 8497.545
5175.339, 8497.457
5177.268, 8481.321
5179.196, 8476.201
5181.125, 8517.258
5183.053, 8541.130
5184.981, 8554.362
5186.910, 8562.303
5188.839, 8494.281
5190.767, 8498.660
5192.695, 8555.951
5194.624, 8423.912
5196.553, 8403.543
5198.481, 8463.347
5200.409, 8513.570
5202.338, 8438.249
5204.267, 8360.113
5206.195, 8366.716
5208.123, 8472.198
5210.052, 8523.031
5211.980, 8484.198
5213.909, 8415.847
5215.837, 8367.815
5217.766, 8349.750
5219.694, 8362.000
5221.623, 8427.819
5223.551, 8468.927
5225.479, 8427.988
5227.408, 8364.209
5229.336, 8338.536
5231.265, 8359.422
5233.193, 8395.263
5235.122, 8352.625
5237.050, 8283.040
5238.979, 8291.295
5240.907, 8355.458
5242.836, 8384.581
5244.764, 8325.263
5246.692, 8364.406
5248.621, 8356.233
5250.550, 8291.230
5252.478, 8288.307
5254.406, 8379.855
5256.335, 8456.751
5258.264, 8354.391
5260.192, 8228.657
5262.120, 8212.293
5264.049, 8343.492
5265.978, 8325.853
5267.906, 8323.150
5269.834, 8349.704
5271.763, 8332.698
5273.691, 8334.997
5275.620, 8327.448
5277.548, 8267.802
5279.477, 8283.274
5281.405, 8302.434
5283.333, 8304.826
5285.262, 8328.074
5287.190, 8326.833
5289.119, 8306.773
5291.047, 8278.867
5292.976, 8284.571
5294.904, 8288.129
5296.833, 8271.886
5298.761, 8321.414
5300.689, 8282.976
5302.618, 8195.224
5304.547, 8202.201
5306.475, 8266.204
5308.403, 8294.262
5310.332, 8225.272
5312.261, 8218.114
5314.189, 8160.163
5316.117, 8072.783
5318.046, 8137.024
5319.975, 8180.332
5321.903, 8198.313
5323.831, 8205.680
5325.760, 8127.263
5327.688, 8089.248
5329.617, 8108.519
5331.545, 8071.047
5333.474, 7995.576
5335.402, 7965.396
5337.331, 8078.920
5339.259, 8080.136
5341.188, 8079.621
5343.116, 8101.761
5345.044, 8026.299
5346.973, 8043.277
5348.901, 8110.357
5350.830, 8160.158
5352.758, 8023.060
5354.687, 7980.223
5356.615, 8095.598
5358.544, 8099.480
5360.472, 8058.257
5362.400, 8021.655
5364.329, 8029.773
5366.258, 8047.335
5368.186, 8075.275
5370.114, 8087.258
5372.043, 7930.034
5373.972, 7978.402
5375.900, 8065.358
5377.828, 7937.311
5379.757, 7977.497
5381.686, 8013.487
5383.614, 7998.131
5385.542, 7989.086
5387.471, 7965.614
5389.399, 7956.200
5391.328, 7984.132
5393.256, 7942.816
5395.185, 7963.625
5397.113, 8023.769
5399.042, 7936.364
5400.970, 7923.749
5402.898, 7954.347
5404.827, 7985.850
5406.755, 7952.971
5408.684, 7984.911
5410.612, 8026.573
5412.541, 7936.941
5414.469, 7801.307
5416.397, 7775.128
5418.326, 7896.152
5420.255, 7869.785
5422.183, 7930.807
5424.111, 7964.717
5426.040, 7791.186
5427.969, 7880.037
5429.897, 7902.808
5431.825, 7808.174
5433.754, 7821.703
5435.683, 7856.278
5437.611, 7832.098
5439.539, 7706.056
5441.468, 7778.489
5443.396, 7824.840
5445.325, 7818.651
5447.253, 7812.231
5449.182, 7811.331
5451.110, 7764.118
5453.039, 7693.716
5454.967, 7805.821
5456.896, 7885.069
5458.824, 7884.828
5460.752, 7798.187
5462.681, 7800.478
5464.609, 7782.879
5466.538, 7751.649
5468.466, 7794.506
5470.395, 7775.208
5472.323, 7773.856
5474.252, 7806.112
5476.180, 7732.077
5478.108, 7744.374
5480.037, 7766.156
5481.966, 7709.128
5483.894, 7659.185
5485.822, 7679.580
5487.751, 7721.182
5489.680, 7657.512
5491.608, 7630.998
5493.536, 7616.729
5495.465, 7607.999
5497.394, 7642.696
5499.322, 7618.274
5501.250, 7575.732
5503.179, 7556.588
5505.107, 7556.072
5507.036, 7558.430
5508.964, 7572.371
5510.893, 7619.536
5512.821, 7517.638
5514.750, 7534.530
5516.678, 7652.962
5518.606, 7572.723
5520.535, 7613.810
5522.463, 7597.354
5524.392, 7474.296
5526.320, 7519.599
5528.249, 7478.882
5530.177, 7444.154
5532.105, 7504.557
5534.034, 7498.133
5535.963, 7506.544
5537.891, 7540.619
5539.819, 7598.805
5541.748, 7478.405
5543.677, 7453.845
5545.605, 7527.099
5547.533, 7518.752
5549.462, 7438.349
5551.391, 7384.745
5553.319, 7396.777
5555.247, 7460.836
5557.176, 7512.020
5559.104, 7519.689
5561.033, 7475.646
5562.961, 7381.081
5564.890, 7395.371
5566.818, 7427.552
5568.747, 7383.913
5570.675, 7409.086
5572.604, 7407.045
5574.532, 7391.178
5576.460, 7405.970
5578.389, 7396.438
5580.317, 7337.778
5582.246, 7291.804
5584.174, 7358.786
5586.103, 7338.509
5588.031, 7359.528
5589.960, 7427.731
5591.888, 7457.651
5593.816, 7372.196
5595.745, 7287.558
5597.674, 7249.167
5599.602, 7212.178
5601.530, 7213.164
5603.459, 7284.442
5605.388, 7386.917
5607.316, 7275.368
5609.244, 7257.063
5611.173, 7257.996
5613.102, 7218.273
5615.030, 7214.867
5616.958, 7262.232
5618.887, 7304.979
5620.815, 7291.684
5622.744, 7127.489
5624.672, 7135.412
5626.601, 7163.194
5628.529, 7058.725
5630.458, 7097.565
5632.386, 7202.556
5634.314, 7262.770
5636.243, 7192.296
5638.171, 7179.513
5640.100, 7110.901
5642.028, 7053.052
5643.957, 7090.796
5645.885, 7091.768
5647.813, 7075.813
5649.742, 7049.448
5651.671, 7020.373
5653.599, 7109.566
5655.527, 7134.246
5657.456, 7114.891
5659.385, 7122.497
5661.313, 7168.919
5663.241, 7084.678
5665.170, 6973.910
5667.099, 7005.285
5669.027, 7106.605
5670.955, 7087.285
5672.884, 7035.206
5674.813, 7094.501
5676.741, 6994.775
5678.669, 6961.772
5680.598, 6926.047
5682.526, 6785.559
5684.455, 6907.573
5686.383, 6958.249
5688.312, 6929.204
5690.240, 6892.478
5692.168, 6884.793
5694.097, 6945.642
5696.025, 6950.044
5697.954, 6804.492
5699.882, 6827.296
5701.811, 6896.947
5703.739, 6975.708
5705.668, 7044.276
5707.596, 6992.323
5709.524, 6926.881
5711.453, 6891.134
5713.382, 6899.104
5715.310, 6939.768
5717.238, 6897.781
5719.167, 6848.375
5721.096, 6850.175
5723.024, 6907.064
5724.952, 6931.643
5726.881, 6902.371
5728.810, 6841.821
5730.738, 6820.398
5732.666, 6833.595
5734.595, 6856.435
5736.523, 6878.416
5738.452, 6920.296
5740.380, 6824.253
5742.309, 6732.721
5744.237, 6719.027
5746.166, 6846.992
5748.094, 6738.199
5750.022, 6799.432
5751.951, 6924.552
5753.879, 6844.542
5755.808, 6741.872
5757.736, 6792.165
5759.665, 6866.386
5761.593, 6833.063
5763.521, 6832.274
5765.450, 6793.286
5767.379, 6785.124
5769.307, 6818.228
5771.235, 6709.390
5773.164, 6728.753
5775.093, 6707.263
5777.021, 6627.801
5778.949, 6699.047
5780.878, 6796.945
5782.807, 6804.298
5784.735, 6739.313
5786.663, 6687.449
5788.592, 6732.406
5790.521, 6704.473
5792.449, 6678.015
5794.377, 6764.749
5796.306, 6751.234
5798.234, 6722.369
5800.163, 6704.305
5802.091, 6691.017
5804.020, 6624.993
5805.948, 6577.344
5807.876, 6602.545
5809.805, 6662.695
5811.733, 6648.450
5813.662, 6593.968
5815.590, 6606.047
5817.519, 6635.399
5819.447, 6598.926
5821.376, 6635.569
5823.304, 6566.721
5825.232, 6504.441
5827.161, 6545.913
5829.090, 6661.905
5831.018, 6647.393
5832.946, 6594.465
5834.875, 6567.277
5836.804, 6579.956
5838.732, 6672.773
5840.660, 6642.024
5842.589, 6550.562
5844.518, 6536.418
5846.446, 6552.835
5848.374, 6595.650
5850.303, 6620.320
5852.231, 6602.587
5854.160, 6534.770
5856.088, 6554.900
5858.017, 6506.010
5859.945, 6420.662
5861.874, 6439.291
5863.802, 6384.795
5865.730, 6412.819
5867.659, 6502.961
5869.587, 6572.891
5871.516, 6463.598
5873.444, 6413.484
5875.373, 6473.386
5877.301, 6546.060
5879.229, 6464.760
5881.158, 6421.542
5883.087, 6433.295
5885.015, 6475.290
5886.943, 6509.301
5888.872, 6433.618
5890.801, 6435.557
5892.729, 6414.639
5894.657, 6356.581
5896.586, 6340.438
5898.515, 6307.804
5900.443, 6339.215
5902.371, 6398.674
5904.300, 6428.675
5906.229, 6357.599
5908.157, 6378.709
5910.085, 6373.634
5912.014, 6346.576
5913.942, 6419.029
5915.871, 6419.442
5917.799, 6343.926
5919.728, 6334.030
5921.656, 6430.068
5923.584, 6378.123
5925.513, 6359.665
5927.441, 6370.907
5929.370, 6381.354
5931.298, 6361.547
5933.227, 6454.226
5935.155, 6412.186
5937.084, 6349.479
5939.012, 6334.651
5940.940, 6308.588
5942.869, 6290.829
5944.798, 6314.309
5946.726, 6329.562
5948.654, 6300.307
5950.583, 6327.461
5952.512, 6253.039
5954.440, 6279.549
5956.368, 6355.339
5958.297, 6300.125
5960.226, 6372.442
5962.154, 6283.336
5964.082, 6226.162
5966.011, 6270.627
5967.939, 6229.127
5969.868, 6277.898
5971.796, 6304.625
5973.725, 6292.608
5975.653, 6259.185
5977.582, 6209.524
5979.510, 6208.715
5981.438, 6250.533
5983.367, 6284.476
5985.295, 6267.624
5987.224, 6245.017
5989.152, 6269.139
5991.081, 6260.030
5993.009, 6212.277
5994.938, 6182.470
5996.866, 6115.096
5998.795, 6169.413
6000.723, 6197.725
6002.651, 6147.234
6004.580, 6136.303
6006.509, 6247.558
6008.437, 6172.507
6010.365, 6077.647
6012.294, 6115.609
6014.223, 6228.754
6016.151, 6260.446
6018.079, 6249.099
6020.008, 6201.181
6021.937, 6134.626
6023.865, 6172.634
6025.793, 6108.287
6027.722, 6169.338
6029.650, 6242.032
6031.579, 6161.220
6033.507, 6066.797
6035.436, 6074.040
6037.364, 6067.534
6039.292, 6053.793
6041.221, 6082.152
6043.149, 6054.296
6045.078, 6082.342
6047.006, 6147.082
6048.935, 6168.501
6050.863, 6095.393
6052.792, 6198.676
6054.720, 6294.682
6056.648, 6285.021
6058.577, 6238.208
6060.506, 6264.577
6062.434, 6190.852
6064.362, 6084.900
6066.291, 6032.693
6068.220, 6035.417
6070.148, 6048.052
6072.076, 6013.268
6074.005, 6043.458
6075.934, 6038.407
6077.862, 6012.495
6079.790, 6032.275
6081.719, 6034.105
6083.647, 6001.608
6085.576, 5993.408
6087.504, 6034.858
6089.433, 6098.120
6091.361, 5964.001
6093.290, 5852.322
6095.218, 5909.261
6097.146, 5969.479
6099.075, 5885.045
6101.003, 5931.163
6102.932, 5933.836
6104.860, 5925.322
6106.789, 5912.871
6108.717, 5884.222
6110.646, 5795.232
6112.574, 5815.542
6114.503, 5895.615
6116.431, 5915.959
6118.359, 5873.356
6120.288, 5955.224
6122.217, 5868.256
6124.145, 5875.194
6126.073, 5899.613
6128.002, 5878.760
6129.931, 5845.168
6131.859, 5801.733
6133.787, 5839.873
6135.716, 5820.063
6137.645, 5777.142
6139.573, 5823.172
6141.501, 5797.937
6143.430, 5726.638
6145.358, 5765.651
6147.287, 5834.178
6149.215, 5817.905
6151.144, 5766.704
6153.072, 5709.293
6155.000, 5725.158
6156.929, 5752.848
6158.857, 5777.225
6160.786, 5867.499
6162.714, 5690.627
6164.643, 5658.184
6166.571, 5737.640
6168.500, 5797.932
6170.428, 5766.222
6172.356, 5767.268
6174.285, 5677.185
6176.214, 5659.657
6178.142, 5703.050
6180.070, 5746.877
6181.999, 5802.202
6183.928, 5695.987
6185.856, 5697.055
6187.784, 5702.565
6189.713, 5670.106
6191.642, 5682.162
6193.570, 5654.387
6195.498, 5619.112
6197.427, 5627.333
6199.355, 5651.495
6201.284, 5675.229
6203.212, 5793.813
6205.141, 5626.622
6207.069, 5606.860
6208.998, 5590.400
6210.926, 5531.622
6212.854, 5586.351
6214.783, 5604.674
6216.711, 5591.814
6218.640, 5589.747
6220.568, 5568.428
6222.497, 5527.605
6224.425, 5602.447
6226.354, 5526.257
6228.282, 5499.695
6230.211, 5566.712
6232.139, 5613.531
6234.067, 5524.589
6235.996, 5528.617
6237.925, 5450.524
6239.853, 5437.266
6241.781, 5466.800
6243.710, 5494.577
6245.639, 5524.086
6247.567, 5462.862
6249.495, 5453.946
6251.424, 5540.567
6253.353, 5554.867
6255.281, 5443.191
6257.209, 5457.578
6259.138, 5504.219
6261.066, 5488.103
6262.995, 5525.091
6264.923, 5554.378
6266.852, 5484.893
6268.780, 5457.829
6270.708, 5484.436
6272.637, 5458.867
6274.565, 5446.855
6276.494, 5414.390
6278.422, 5311.350
6280.351, 5415.936
6282.279, 5360.560
6284.208, 5359.040
6286.136, 5397.564
6288.064, 5407.818
6289.993, 5375.085
6291.922, 5451.868
6293.850, 5382.563
6295.778, 5377.491
6297.707, 5379.067
6299.636, 5360.457
6301.564, 5404.851
6303.492, 5397.101
6305.421, 5397.838
6307.350, 5408.086
6309.278, 5405.867
6311.206, 5383.120
6313.135, 5352.552
6315.063, 5372.444
6316.992, 5253.038
6318.920, 5300.676
6320.849, 5325.442
6322.777, 5280.959
6324.706, 5331.574
6326.634, 5237.246
6328.563, 5336.625
6330.491, 5304.764
6332.419, 5239.835
6334.348, 5265.229
6336.276, 5348.761
6338.205, 5321.122
6340.133, 5232.264
6342.062, 5220.387
6343.990, 5250.835
6345.919, 5264.990
6347.847, 5238.426
6349.775, 5178.935
6351.704, 5099.839
6353.633, 5208.063
6355.561, 5221.932
6357.489, 5165.323
6359.418, 5178.705
6361.347, 5185.915
6363.275, 5214.406
6365.203, 5164.740
6367.132, 5110.276
6369.061, 5111.279
6370.989, 5136.599
6372.917, 5109.881
6374.846, 5173.530
6376.774, 5146.165
6378.703, 5167.794
6380.631, 5162.386
6382.560, 5128.413
6384.488, 5138.394
6386.417, 5113.823
6388.345, 5032.835
6390.273, 5186.645
6392.202, 5103.305
6394.130, 4986.670
6396.059, 5100.369
6397.987, 5133.795
6399.916, 5115.422
6401.844, 5137.808
6403.772, 5156.299
6405.701, 5117.908
6407.630, 5055.998
6409.558, 5040.289
6411.486, 5057.027
6413.415, 5121.676
6415.344, 4980.006
6417.272, 5033.109
6419.200, 5128.181
6421.129, 5076.055
6423.058, 5050.539
6424.986, 4882.548
6426.914, 4923.915
6428.843, 5118.716
6430.771, 5153.610
6432.700, 5057.739
6434.628, 5012.303
6436.557, 4981.190
6438.485, 4879.953
6440.414, 4992.528
6442.342, 5021.341
6444.271, 5027.230
6446.199, 5035.610
6448.127, 4967.899
6450.056, 4915.125
6451.984, 4886.254
6453.913, 4953.296
6455.841, 4896.820
6457.770, 4913.285
6459.698, 5032.275
6461.627, 5009.607
6463.555, 4884.567
6465.483, 4846.153
6467.412, 4945.772
6469.341, 4898.227
6471.269, 4799.806
6473.197, 4836.677
6475.126, 5011.998
6477.055, 4942.425
6478.983, 4950.816
6480.911, 4976.283
6482.840, 4929.114
6484.769, 4895.436
6486.697, 4928.876
6488.625, 4936.735
6490.554, 4767.022
6492.482, 4898.826
6494.411, 4900.849
6496.339, 4829.172
6498.268, 4752.278
6500.196, 4756.749
6502.125, 4871.611
6504.053, 4777.420
6505.981, 4676.385
6507.910, 4789.853
6509.838, 4856.562
6511.767, 4807.041
6513.695, 4792.758
6515.624, 4889.585
6517.552, 4909.157
6519.480, 4837.963
6521.409, 4792.165
6523.338, 4886.049
6525.266, 4807.038
6527.194, 4724.705
6529.123, 4782.398
6531.052, 4708.631
6532.980, 4631.936
6534.908, 4760.254
6536.837, 4791.982
6538.766, 4793.689
6540.694, 4760.135
6542.622, 4694.126
6544.551, 4661.361
6546.479, 4704.871
6548.408, 4640.660
6550.336, 4712.287
6552.265, 4643.808
6554.193, 4719.510
6556.122, 4815.868
6558.050, 4739.020
6559.979, 4624.963
6561.907, 4659.970
6563.835, 4704.532
6565.764, 4620.640
6567.692, 4664.280
6569.621, 4694.511
6571.549, 4704.179
6573.478, 4704.982
6575.406, 4542.227
6577.335, 4716.504
6579.263, 4583.754
6581.191, 4636.539
6583.120, 4642.252
6585.049, 4641.314
6586.977, 4623.070
6588.905, 4547.913
6590.834, 4651.839
6592.763, 4612.333
6594.691, 4720.493
6596.619, 4626.959
6598.548, 4629.011
6600.477, 4605.742
6602.405, 4521.980
6604.333, 4528.697
6606.262, 4602.661
6608.190, 4654.133
6610.119, 4635.702
6612.047, 4620.222
6613.976, 4635.400
6615.904, 4723.546
6617.833, 4715.586
6619.761, 4547.290
6621.689, 4473.295
6623.618, 4428.819
6625.546, 4540.829
6627.475, 4520.403
6629.403, 4535.012
##END=



