##NAMES=Erythrite
##RRUFFID=R050073
##IDEAL CHEMISTRY=Co_3_(AsO_4_)_2_·8H_2_O
##LOCALITY=Bou Azzer, Morocco
##OWNER=RRUFF
##SOURCE=Rock Currier
##DESCRIPTION=Crimson flattened crystals
##STATUS=The identification of this mineral has been confirmed by X-ray diffraction and chemical analysis
##URL=https://www.rruff.net/odr/rruff_sample/R050073
##MEASURED CHEMISTRY=(Co_0.65_Mg_0.35_)_3_(As_1.00_O_4_)_2_·8H_2_O
##DIFFRACTION SAMPLE DESCRIPTION=Powder
##CELL PARAMETERS=a: 10.273 b: 13.4342 c: 4.7543 alpha: 90 beta: 105.11 gamma: 90 volume: 633.4 crystal system: monoclinic
##FILETYPE=Raman RAW
##RAMAN WAVELENGTH=532

141.1382, 238.5079
143.0667, 258.3371
144.9951, 278.5500
146.9236, 298.4322
148.8521, 316.6591
150.7805, 336.2838
152.7090, 359.9277
154.6375, 385.8859
156.5659, 407.5322
158.4944, 423.1144
160.4229, 434.5788
162.3513, 442.3427
164.2798, 445.2597
166.2083, 446.8646
168.1367, 446.2647
170.0652, 442.5936
171.9937, 445.0886
173.9221, 456.9445
175.8506, 474.1078
177.7791, 489.6621
179.7075, 500.3087
181.6360, 514.1522
183.5645, 533.8260
185.4929, 562.3009
187.4214, 592.2295
189.3499, 627.0535
191.2783, 663.0413
193.2068, 692.4462
195.1353, 708.4492
197.0637, 722.7972
198.9922, 741.5559
200.9207, 768.6713
202.8491, 794.4302
204.7776, 818.9363
206.7061, 841.7307
208.6345, 860.3672
210.5630, 874.3056
212.4915, 884.2990
214.4199, 890.5873
216.3484, 895.8974
218.2769, 893.4287
220.2053, 879.9160
222.1338, 855.9387
224.0623, 827.5713
225.9907, 789.3459
227.9192, 749.8553
229.8477, 717.4406
231.7761, 690.3018
233.7046, 672.7078
235.6331, 666.5399
237.5615, 675.3794
239.4900, 682.9387
241.4185, 688.5314
243.3469, 693.1152
245.2754, 698.0102
247.2039, 703.5811
249.1323, 708.8934
251.0608, 714.2399
252.9893, 720.5948
254.9177, 723.4011
256.8462, 722.8755
258.7747, 718.3937
260.7031, 709.9620
262.6316, 697.6487
264.5601, 680.5247
266.4885, 655.9308
268.4170, 620.7617
270.3455, 590.7688
272.2739, 570.7659
274.2024, 556.5074
276.1309, 541.4285
278.0593, 521.9117
279.9878, 504.5976
281.9163, 492.4780
283.8447, 485.8606
285.7732, 480.2115
287.7017, 473.8792
289.6301, 468.0717
291.5586, 465.5448
293.4871, 468.1120
295.4155, 472.2015
297.3440, 476.7534
299.2725, 481.6424
301.2009, 487.7030
303.1294, 498.2195
305.0579, 509.8065
306.9863, 515.2642
308.9148, 514.2638
310.8433, 508.3166
312.7717, 495.8676
314.7002, 476.9127
316.6287, 458.5398
318.5571, 442.1573
320.4856, 427.0782
322.4141, 412.1096
324.3425, 396.1120
326.2710, 381.5357
328.1995, 368.7469
330.1279, 357.4098
332.0564, 349.6049
333.9849, 346.4490
335.9133, 346.3300
337.8418, 347.2950
339.7703, 350.0119
341.6987, 352.5800
343.6272, 353.8639
345.5557, 353.5390
347.4841, 354.9782
349.4126, 359.3561
351.3411, 364.9222
353.2695, 369.3423
355.1980, 371.1515
357.1265, 375.0685
359.0549, 383.5517
360.9834, 397.1197
362.9119, 408.2021
364.8403, 413.1855
366.7688, 418.1964
368.6973, 429.1334
370.6257, 448.1752
372.5542, 465.4985
374.4827, 477.1185
376.4111, 483.7903
378.3396, 493.5125
380.2681, 506.7260
382.1965, 522.1725
384.1250, 540.5405
386.0535, 563.1254
387.9819, 581.8074
389.9104, 593.1137
391.8389, 599.2783
393.7673, 606.6119
395.6958, 615.0642
397.6243, 624.4717
399.5527, 636.2047
401.4812, 650.7266
403.4097, 661.1276
405.3381, 661.9482
407.2666, 659.5645
409.1951, 663.5131
411.1235, 677.1850
413.0520, 691.2396
414.9805, 702.1480
416.9089, 710.3896
418.8374, 720.8065
420.7659, 732.0610
422.6943, 746.5389
424.6228, 767.1183
426.5513, 795.0800
428.4797, 824.8345
430.4082, 856.0788
432.3367, 888.3632
434.2651, 920.2640
436.1936, 955.3105
438.1221, 987.0029
440.0505, 1011.350
441.9790, 1027.536
443.9075, 1043.014
445.8359, 1061.878
447.7644, 1079.591
449.6929, 1090.318
451.6213, 1089.193
453.5498, 1085.280
455.4783, 1081.135
457.4067, 1075.938
459.3352, 1064.489
461.2637, 1045.049
463.1921, 1019.542
465.1206, 989.8544
467.0491, 957.4525
468.9775, 917.4108
470.9060, 864.3364
472.8345, 803.6796
474.7629, 747.8143
476.6914, 698.2542
478.6199, 651.9289
480.5483, 606.4444
482.4768, 560.6013
484.4053, 521.4805
486.3337, 490.5589
488.2622, 465.0860
490.1907, 441.8286
492.1191, 419.5995
494.0476, 402.8452
495.9761, 395.4791
497.9045, 395.1971
499.8330, 391.2250
501.7615, 379.4413
503.6899, 368.1110
505.6184, 361.7818
507.5469, 360.1263
509.4753, 357.2774
511.4038, 350.6310
513.3323, 343.0131
515.2607, 336.9644
517.1892, 332.2578
519.1177, 329.4146
521.0461, 330.1833
522.9746, 333.0205
524.9031, 333.9423
526.8315, 330.2376
528.7600, 327.1762
530.6885, 327.4025
532.6169, 332.6640
534.5454, 335.6166
536.4739, 334.8062
538.4023, 332.4403
540.3308, 330.1866
542.2593, 327.2850
544.1877, 326.6207
546.1162, 330.2061
548.0447, 336.7253
549.9731, 340.7903
551.9016, 341.5897
553.8301, 341.1435
555.7585, 339.0309
557.6870, 335.4607
559.6155, 334.1483
561.5439, 338.4429
563.4724, 343.4643
565.4009, 345.5233
567.3293, 341.6321
569.2578, 340.2705
571.1863, 343.4061
573.1147, 349.3684
575.0432, 355.8277
576.9717, 364.9779
578.9001, 370.9620
580.8286, 370.5065
582.7571, 363.5858
584.6855, 359.9767
586.6140, 360.2134
588.5425, 363.1363
590.4709, 369.3347
592.3994, 379.3527
594.3279, 386.7670
596.2563, 387.6384
598.1848, 386.7891
600.1133, 389.6759
602.0417, 399.4624
603.9702, 407.7224
605.8987, 411.5207
607.8271, 413.0264
609.7556, 416.5881
611.6841, 424.3009
613.6125, 431.7681
615.5410, 437.5400
617.4695, 441.4592
619.3979, 445.0516
621.3264, 448.3934
623.2549, 451.3541
625.1833, 453.1047
627.1118, 453.1831
629.0403, 455.9310
630.9688, 463.9602
632.8972, 474.0640
634.8257, 482.9745
636.7542, 489.4860
638.6826, 496.6425
640.6111, 506.5514
642.5396, 517.0538
644.4680, 524.0425
646.3965, 524.1812
648.3250, 525.5400
650.2534, 532.3102
652.1819, 544.3771
654.1104, 551.2457
656.0388, 550.1576
657.9673, 546.8663
659.8958, 543.2496
661.8242, 539.2939
663.7527, 536.9122
665.6812, 538.5084
667.6096, 540.5285
669.5381, 540.6711
671.4666, 537.9467
673.3950, 534.6331
675.3235, 529.7328
677.2520, 524.6462
679.1804, 520.9372
681.1089, 518.6167
683.0374, 517.6705
684.9658, 519.2155
686.8943, 522.1643
688.8228, 523.0356
690.7512, 518.5094
692.6797, 515.5901
694.6082, 516.9390
696.5366, 521.6660
698.4651, 526.1403
700.3936, 530.3250
702.3220, 533.8760
704.2505, 536.5070
706.1790, 537.9193
708.1074, 539.8124
710.0359, 543.0777
711.9644, 546.1081
713.8928, 546.6295
715.8213, 544.2548
717.7498, 545.4638
719.6782, 553.6075
721.6067, 564.7845
723.5352, 575.8430
725.4636, 585.9608
727.3921, 597.5921
729.3206, 610.5598
731.2490, 625.2028
733.1775, 641.9177
735.1060, 660.5433
737.0344, 681.1613
738.9629, 703.0142
740.8914, 726.8508
742.8198, 754.9726
744.7483, 791.4888
746.6768, 827.5501
748.6052, 858.8359
750.5337, 887.8450
752.4622, 924.4932
754.3906, 969.6036
756.3191, 1020.953
758.2476, 1079.496
760.1760, 1144.183
762.1045, 1209.316
764.0330, 1269.317
765.9614, 1334.761
767.8899, 1410.413
769.8184, 1497.243
771.7468, 1584.853
773.6753, 1668.813
775.6038, 1757.628
777.5322, 1856.939
779.4607, 1966.294
781.3892, 2077.903
783.3176, 2192.512
785.2461, 2307.850
787.1746, 2422.671
789.1030, 2536.889
791.0315, 2651.748
792.9600, 2783.595
794.8884, 2904.088
796.8169, 2994.925
798.7454, 3057.944
800.6738, 3090.675
802.6023, 3093.607
804.5308, 3064.685
806.4592, 2998.566
808.3877, 2873.729
810.3162, 2744.025
812.2446, 2598.478
814.1731, 2453.984
816.1016, 2325.027
818.0300, 2208.400
819.9585, 2116.424
821.8870, 2056.886
823.8154, 2022.284
825.7439, 2007.904
827.6724, 2018.560
829.6008, 2043.790
831.5293, 2078.746
833.4578, 2128.851
835.3862, 2205.540
837.3147, 2314.080
839.2432, 2426.470
841.1716, 2530.473
843.1001, 2636.794
845.0286, 2760.733
846.9570, 2912.177
848.8855, 3061.210
850.8140, 3203.472
852.7424, 3340.308
854.6709, 3478.942
856.5994, 3646.362
858.5278, 3760.838
860.4563, 3799.664
862.3848, 3775.509
864.3132, 3710.012
866.2417, 3603.197
868.1702, 3451.087
870.0986, 3234.511
872.0271, 2981.589
873.9556, 2735.297
875.8840, 2486.908
877.8125, 2257.460
879.7410, 2042.754
881.6694, 1852.257
883.5979, 1696.012
885.5264, 1578.005
887.4548, 1478.920
889.3833, 1395.968
891.3118, 1328.212
893.2402, 1276.559
895.1687, 1252.124
897.0972, 1226.649
899.0256, 1194.489
900.9541, 1161.658
902.8826, 1137.121
904.8110, 1122.333
906.7395, 1107.561
908.6680, 1090.803
910.5964, 1073.050
912.5249, 1055.700
914.4534, 1039.627
916.3818, 1020.954
918.3103, 997.1641
920.2388, 971.9296
922.1672, 948.7550
924.0957, 928.8100
926.0242, 908.1346
927.9526, 884.7889
929.8811, 861.9954
931.8096, 842.9504
933.7380, 827.8431
935.6665, 811.5843
937.5950, 792.1513
939.5234, 772.0453
941.4519, 752.0748
943.3804, 731.1518
945.3088, 714.5613
947.2373, 703.3997
949.1658, 695.0991
951.0942, 689.9421
953.0227, 687.6568
954.9512, 681.6145
956.8796, 667.0862
958.8081, 653.9179
960.7366, 647.6996
962.6650, 647.7103
964.5935, 647.1661
966.5220, 646.6089
968.4504, 644.3433
970.3789, 639.5839
972.3074, 632.4988
974.2358, 624.4391
976.1643, 613.0230
978.0928, 603.7167
980.0212, 600.4623
981.9497, 600.0000
983.8782, 595.4445
985.8066, 584.6205
987.7351, 574.4688
989.6636, 564.2787
991.5920, 556.8577
993.5205, 557.4613
995.4490, 576.0190
997.3774, 587.3804
999.3059, 585.5165
1001.234, 578.1512
1003.163, 574.0143
1005.091, 573.5238
1007.020, 573.0731
1008.948, 571.4399
1010.877, 570.2139
1012.805, 570.8895
1014.734, 573.6830
1016.662, 575.1909
1018.591, 573.9332
1020.519, 572.2020
1022.448, 571.4821
1024.376, 571.9036
1026.304, 569.8277
1028.233, 560.6125
1030.161, 554.1829
1032.090, 556.7017
1034.018, 564.8893
1035.947, 568.3941
1037.875, 564.7538
1039.804, 561.1194
1041.732, 558.2525
1043.661, 557.4800
1045.589, 562.2272
1047.518, 577.9712
1049.446, 588.0606
1051.375, 586.1566
1053.303, 580.4651
1055.231, 580.0001
1057.160, 587.1057
1059.088, 591.5270
1061.017, 590.7145
1062.945, 588.7292
1064.874, 587.7705
1066.802, 587.7859
1068.731, 589.0793
1070.659, 593.2777
1072.588, 596.5267
1074.516, 596.0355
1076.445, 592.8040
1078.373, 592.7744
1080.302, 597.2737
1082.230, 603.5904
1084.158, 615.8737
1086.087, 628.6038
1088.015, 629.7457
1089.944, 614.6263
1091.872, 604.5491
1093.801, 607.6985
1095.729, 614.2375
1097.658, 615.3353
1099.586, 610.8309
1101.515, 609.8730
1103.443, 616.9889
1105.372, 624.6119
1107.300, 629.2590
1109.229, 631.0623
1111.157, 632.9952
1113.085, 635.6785
1115.014, 637.7462
1116.942, 639.5230
1118.871, 640.3555
1120.799, 638.0189
1122.728, 630.4238
1124.656, 626.5539
1126.585, 632.2258
1128.513, 639.6271
1130.442, 642.7614
1132.370, 641.6024
1134.299, 637.9970
1136.227, 627.1939
1138.156, 619.7845
1140.084, 622.0003
1142.012, 632.6913
1143.941, 641.2247
1145.869, 648.2195
1147.798, 652.2327
1149.726, 650.2205
1151.655, 646.0159
1153.583, 646.9119
1155.512, 654.8843
1157.440, 658.9025
1159.369, 653.4639
1161.297, 646.5369
1163.226, 643.3917
1165.154, 643.6517
1167.083, 644.5162
1169.011, 646.5847
1170.939, 647.8505
1172.868, 646.6465
1174.796, 644.2045
1176.725, 643.9240
1178.653, 648.5023
1180.582, 650.9821
1182.510, 648.2607
1184.439, 644.9930
1186.367, 646.3132
1188.296, 653.2215
1190.224, 657.1365
1192.153, 653.9321
1194.081, 651.9141
1196.010, 655.5954
1197.938, 663.2175
1199.866, 671.6303
1201.795, 682.9978
1203.723, 688.6003
1205.652, 681.5488
1207.580, 670.1004
1209.509, 660.4323
1211.437, 651.7198
1213.366, 648.9858
1215.294, 658.4214
1217.223, 667.4228
1219.151, 670.1821
1221.080, 668.0274
1223.008, 667.2466
1224.937, 667.2951
1226.865, 669.4034
1228.793, 675.8411
1230.722, 683.1732
1232.650, 688.0524
1234.579, 690.6052
1236.507, 690.8895
1238.436, 685.7472
1240.364, 682.7246
1242.293, 688.2432
1244.221, 698.5308
1246.150, 702.6633
1248.078, 697.0782
1250.007, 693.5054
1251.935, 695.1337
1253.864, 699.0069
1255.792, 703.4587
1257.720, 709.0828
1259.649, 711.6539
1261.577, 707.0463
1263.506, 704.5324
1265.434, 710.2068
1267.363, 719.4358
1269.291, 720.4542
1271.220, 709.6006
1273.148, 704.6393
1275.077, 714.1996
1277.005, 725.6152
1278.934, 729.8503
1280.862, 728.5724
1282.791, 729.1866
1284.719, 733.6002
1286.647, 736.9827
1288.576, 737.2630
1290.504, 735.8411
1292.433, 733.7040
1294.361, 730.2516
1296.290, 729.1694
1298.218, 732.1431
1300.147, 736.0799
1302.075, 739.8164
1304.004, 743.6050
1305.932, 748.3337
1307.861, 756.9564
1309.789, 762.0564
1311.718, 761.0313
1313.646, 758.3069
1315.574, 756.2516
1317.503, 755.0881
1319.431, 757.1063
1321.360, 765.3602
1323.288, 771.2152
1325.217, 769.0305
1327.145, 764.6445
1329.074, 764.9213
1331.002, 769.9858
1332.931, 774.0299
1334.859, 775.3750
1336.788, 776.7908
1338.716, 779.2117
1340.645, 782.5967
1342.573, 787.7405
1344.501, 797.0807
1346.430, 800.6189
1348.358, 789.9388
1350.287, 780.2653
1352.215, 782.0128
1354.144, 792.9647
1356.072, 798.0002
1358.001, 790.2112
1359.929, 786.1537
1361.858, 791.4338
1363.786, 797.5139
1365.715, 795.2594
1367.643, 784.7839
1369.572, 781.7273
1371.500, 788.7286
1373.428, 798.7051
1375.357, 816.6060
1377.285, 832.1990
1379.214, 830.6805
1381.142, 812.9557
1383.071, 802.1883
1384.999, 803.0345
1386.928, 807.7090
1388.856, 815.4634
1390.785, 823.8656
1392.713, 829.7265
1394.642, 833.0006
1396.570, 834.1317
1398.499, 832.2663
1400.427, 829.3976
1402.355, 824.9119
1404.284, 820.3565
1406.212, 818.9516
1408.141, 820.5717
1410.069, 825.8475
1411.998, 839.4037
1413.926, 851.5037
1415.855, 858.2473
1417.783, 860.0951
1419.712, 858.1238
1421.640, 845.7250
1423.569, 840.6730
1425.497, 849.8709
1427.426, 859.4995
1429.354, 859.0851
1431.282, 852.5862
1433.211, 855.9350
1435.139, 874.1781
1437.068, 886.9721
1438.996, 887.8356
1440.925, 885.6305
1442.853, 886.0524
1444.782, 887.6794
1446.710, 885.2261
1448.639, 876.4347
1450.567, 872.2721
1452.496, 879.7704
1454.424, 888.0490
1456.353, 888.1696
1458.281, 883.6476
1460.209, 884.8428
1462.138, 893.5336
1464.066, 902.5810
1465.995, 913.5994
1467.923, 920.7473
1469.852, 919.0360
1471.780, 910.5844
1473.709, 903.0366
1475.637, 894.8391
1477.566, 892.5581
1479.494, 903.3160
1481.423, 914.3644
1483.351, 918.8050
1485.280, 918.3112
1487.208, 919.1661
1489.136, 922.8583
1491.065, 924.4368
1492.993, 920.6216
1494.922, 917.8834
1496.850, 920.2112
1498.779, 925.9171
1500.707, 930.2593
1502.636, 931.2562
1504.564, 934.9568
1506.493, 943.7719
1508.421, 952.4491
1510.350, 960.4810
1512.278, 966.3148
1514.207, 965.5509
1516.135, 954.1323
1518.063, 950.2355
1519.992, 961.6950
1521.920, 971.5505
1523.849, 970.5867
1525.777, 966.1870
1527.706, 971.1079
1529.634, 986.3304
1531.563, 993.5427
1533.491, 985.0250
1535.420, 979.1627
1537.348, 984.2160
1539.277, 992.9903
1541.205, 998.3320
1543.134, 1000.580
1545.062, 1001.486
1546.990, 999.6971
1548.919, 1000.225
1550.847, 1006.926
1552.776, 1014.439
1554.704, 1017.880
1556.633, 1018.814
1558.561, 1023.478
1560.490, 1034.474
1562.418, 1038.332
1564.347, 1024.751
1566.275, 1011.925
1568.204, 1011.774
1570.132, 1019.482
1572.061, 1026.504
1573.989, 1032.505
1575.917, 1040.763
1577.846, 1055.949
1579.774, 1066.604
1581.703, 1063.032
1583.631, 1054.912
1585.560, 1053.443
1587.488, 1058.362
1589.417, 1063.622
1591.345, 1070.112
1593.274, 1073.693
1595.202, 1069.579
1597.131, 1065.255
1599.059, 1067.527
1600.988, 1074.456
1602.916, 1076.182
1604.844, 1070.599
1606.773, 1066.930
1608.701, 1065.006
1610.630, 1067.837
1612.558, 1081.640
1614.487, 1098.958
1616.415, 1104.755
1618.344, 1097.236
1620.272, 1096.494
1622.201, 1111.255
1624.129, 1120.425
1626.058, 1112.874
1627.986, 1101.848
1629.915, 1098.856
1631.843, 1103.072
1633.771, 1105.824
1635.700, 1105.911
1637.628, 1107.800
1639.557, 1115.157
1641.485, 1121.168
1643.414, 1121.655
1645.342, 1119.376
1647.271, 1118.932
1649.199, 1120.302
1651.128, 1124.090
1653.056, 1135.814
1654.985, 1140.681
1656.913, 1127.185
1658.842, 1113.200
1660.770, 1115.284
1662.698, 1129.660
1664.627, 1135.136
1666.555, 1127.449
1668.484, 1124.136
1670.412, 1130.100
1672.341, 1137.213
1674.269, 1143.123
1676.198, 1148.391
1678.126, 1154.265
1680.055, 1160.867
1681.983, 1163.965
1683.912, 1160.956
1685.840, 1159.952
1687.769, 1164.361
1689.697, 1169.032
1691.625, 1172.080
1693.554, 1173.254
1695.482, 1170.619
1697.411, 1162.779
1699.339, 1162.011
1701.268, 1175.211
1703.196, 1184.437
1705.125, 1181.771
1707.053, 1176.915
1708.982, 1177.155
1710.910, 1180.828
1712.839, 1181.024
1714.767, 1176.143
1716.696, 1176.480
1718.624, 1187.293
1720.552, 1196.751
1722.481, 1200.683
1724.409, 1201.903
1726.338, 1201.509
1728.266, 1200.255
1730.195, 1202.617
1732.123, 1209.607
1734.052, 1215.735
1735.980, 1222.072
1737.909, 1224.290
1739.837, 1215.122
1741.766, 1205.311
1743.694, 1206.645
1745.623, 1217.063
1747.551, 1226.202
1749.479, 1234.001
1751.408, 1238.769
1753.336, 1238.572
1755.265, 1237.881
1757.193, 1238.810
1759.122, 1240.236
1761.050, 1240.429
1762.979, 1240.003
1764.907, 1242.055
1766.836, 1247.136
1768.764, 1252.599
1770.693, 1259.035
1772.621, 1263.953
1774.550, 1264.458
1776.478, 1264.143
1778.406, 1268.217
1780.335, 1274.767
1782.263, 1275.204
1784.192, 1267.662
1786.120, 1263.165
1788.049, 1264.195
1789.977, 1267.676
1791.906, 1272.922
1793.834, 1279.560
1795.763, 1289.053
1797.691, 1299.719
1799.620, 1304.259
1801.548, 1301.063
1803.477, 1300.537
1805.405, 1308.001
1807.333, 1312.119
1809.262, 1306.669
1811.190, 1299.287
1813.119, 1295.935
1815.047, 1295.607
1816.976, 1295.872
1818.904, 1297.429
1820.833, 1296.412
1822.761, 1285.614
1824.690, 1282.915
1826.618, 1300.094
1828.547, 1316.696
1830.475, 1316.942
1832.404, 1309.394
1834.332, 1310.540
1836.260, 1321.354
1838.189, 1327.693
1840.117, 1324.378
1842.046, 1326.248
1843.974, 1341.265
1845.903, 1353.252
1847.831, 1352.050
1849.760, 1347.284
1851.688, 1350.471
1853.617, 1360.311
1855.545, 1366.888
1857.474, 1369.565
1859.402, 1372.197
1861.331, 1374.501
1863.259, 1378.223
1865.188, 1386.215
1867.116, 1393.422
1869.044, 1397.848
1870.973, 1398.543
1872.901, 1390.181
1874.830, 1373.897
1876.758, 1370.160
1878.687, 1385.246
1880.615, 1395.282
1882.544, 1392.167
1884.472, 1386.185
1886.401, 1379.097
1888.329, 1374.221
1890.258, 1375.162
1892.186, 1381.379
1894.115, 1391.057
1896.043, 1404.740
1897.971, 1418.443
1899.900, 1438.000
1901.828, 1447.656
1903.757, 1434.793
1905.685, 1421.739
1907.614, 1423.223
1909.542, 1431.597
1911.471, 1434.830
1913.399, 1433.560
1915.328, 1438.407
1917.256, 1454.216
1919.185, 1464.569
1921.113, 1464.125
1923.042, 1465.005
1924.970, 1471.516
1926.898, 1478.437
1928.827, 1481.768
1930.755, 1483.529
1932.684, 1488.116
1934.612, 1495.005
1936.541, 1498.084
1938.469, 1496.712
1940.398, 1493.469
1942.326, 1487.603
1944.255, 1482.321
1946.183, 1476.389
1948.112, 1474.119
1950.040, 1480.213
1951.969, 1491.288
1953.897, 1504.252
1955.825, 1518.145
1957.754, 1521.245
1959.682, 1508.177
1961.611, 1502.821
1963.539, 1516.085
1965.468, 1525.819
1967.396, 1520.911
1969.325, 1516.170
1971.253, 1524.475
1973.182, 1537.951
1975.110, 1543.374
1977.039, 1541.243
1978.967, 1540.189
1980.896, 1540.290
1982.824, 1541.300
1984.752, 1544.382
1986.681, 1546.061
1988.609, 1537.791
1990.538, 1537.309
1992.466, 1565.969
1994.395, 1598.069
1996.323, 1597.657
1998.252, 1576.249
2000.180, 1572.221
2002.109, 1587.022
2004.037, 1596.556
2005.966, 1598.694
2007.894, 1594.393
2009.823, 1572.225
2011.751, 1558.926
2013.679, 1573.589
2015.608, 1594.187
2017.536, 1599.572
2019.465, 1596.856
2021.393, 1603.630
2023.322, 1620.241
2025.250, 1625.895
2027.179, 1613.989
2029.107, 1608.603
2031.036, 1616.951
2032.964, 1621.990
2034.893, 1612.651
2036.821, 1607.166
2038.750, 1618.840
2040.678, 1636.059
2042.606, 1646.963
2044.535, 1652.784
2046.463, 1656.561
2048.392, 1658.378
2050.320, 1658.513
2052.249, 1656.428
2054.177, 1654.723
2056.106, 1649.417
2058.034, 1651.068
2059.963, 1672.663
2061.891, 1691.291
2063.820, 1684.341
2065.748, 1670.438
2067.677, 1678.772
2069.605, 1703.267
2071.533, 1713.992
2073.462, 1709.377
2075.390, 1702.069
2077.319, 1688.860
2079.247, 1685.263
2081.176, 1699.745
2083.104, 1712.502
2085.033, 1712.690
2086.961, 1713.092
2088.890, 1728.160
2090.818, 1743.605
2092.747, 1735.809
2094.675, 1714.647
2096.604, 1714.215
2098.532, 1736.895
2100.460, 1751.475
2102.389, 1753.124
2104.317, 1756.218
2106.246, 1765.369
2108.174, 1769.593
2110.103, 1761.144
2112.031, 1753.918
2113.960, 1753.879
2115.888, 1759.292
2117.817, 1772.936
2119.745, 1788.975
2121.674, 1791.529
2123.602, 1783.857
2125.531, 1787.938
2127.459, 1806.214
2129.387, 1820.515
2131.316, 1830.613
2133.244, 1831.937
2135.173, 1811.700
2137.101, 1799.114
2139.030, 1810.749
2140.958, 1826.652
2142.887, 1834.380
2144.815, 1837.141
2146.744, 1837.164
2148.672, 1835.935
2150.601, 1838.762
2152.529, 1845.490
2154.458, 1854.451
2156.386, 1866.517
2158.314, 1871.981
2160.243, 1866.364
2162.171, 1862.888
2164.100, 1865.201
2166.028, 1870.470
2167.957, 1881.810
2169.885, 1891.005
2171.814, 1888.433
2173.742, 1882.783
2175.671, 1887.245
2177.599, 1898.093
2179.528, 1902.630
2181.456, 1900.923
2183.385, 1902.450
2185.313, 1907.760
2187.241, 1913.053
2189.170, 1917.799
2191.098, 1923.052
2193.027, 1931.371
2194.955, 1936.063
2196.884, 1929.318
2198.812, 1924.418
2200.741, 1933.905
2202.669, 1945.243
2204.598, 1942.549
2206.526, 1933.253
2208.455, 1933.467
2210.383, 1941.770
2212.312, 1945.915
2214.240, 1945.667
2216.168, 1948.549
2218.097, 1955.663
2220.025, 1961.465
2221.954, 1962.510
2223.882, 1969.035
2225.811, 1994.997
2227.739, 2011.770
2229.668, 1999.219
2231.596, 1983.875
2233.525, 1984.880
2235.453, 1992.076
2237.382, 1993.595
2239.310, 1992.580
2241.239, 1997.535
2243.167, 2006.717
2245.095, 2008.640
2247.024, 2003.390
2248.952, 2001.252
2250.881, 2003.274
2252.809, 2006.745
2254.738, 2011.347
2256.666, 2017.190
2258.595, 2025.038
2260.523, 2033.089
2262.452, 2043.880
2264.380, 2050.827
2266.309, 2048.887
2268.237, 2042.758
2270.166, 2033.762
2272.094, 2025.244
2274.022, 2018.965
2275.951, 2018.082
2277.879, 2034.470
2279.808, 2065.694
2281.736, 2090.508
2283.665, 2108.889
2285.593, 2117.739
2287.522, 2113.090
2289.450, 2105.936
2291.379, 2090.617
2293.307, 2083.462
2295.236, 2092.342
2297.164, 2100.596
2299.093, 2100.733
2301.021, 2101.063
2302.949, 2108.438
2304.878, 2115.907
2306.806, 2115.959
2308.735, 2113.843
2310.663, 2115.105
2312.592, 2120.418
2314.520, 2136.732
2316.449, 2160.542
2318.377, 2156.572
2320.306, 2123.952
2322.234, 2121.370
2324.163, 2154.610
2326.091, 2179.068
2328.020, 2188.394
2329.948, 2193.067
2331.876, 2195.979
2333.805, 2192.952
2335.733, 2174.221
2337.662, 2162.023
2339.590, 2169.007
2341.519, 2178.963
2343.447, 2186.494
2345.376, 2189.371
2347.304, 2181.038
2349.233, 2170.989
2351.161, 2169.587
2353.090, 2174.846
2355.018, 2187.584
2356.947, 2203.571
2358.875, 2203.451
2360.803, 2187.600
2362.732, 2180.792
2364.660, 2184.688
2366.589, 2186.369
2368.517, 2184.190
2370.446, 2188.619
2372.374, 2203.040
2374.303, 2215.642
2376.231, 2224.616
2378.160, 2229.930
2380.088, 2228.155
2382.017, 2227.769
2383.945, 2234.227
2385.874, 2239.723
2387.802, 2237.083
2389.730, 2235.401
2391.659, 2244.129
2393.587, 2254.528
2395.516, 2261.208
2397.444, 2261.746
2399.373, 2245.961
2401.301, 2223.960
2403.230, 2220.976
2405.158, 2233.887
2407.087, 2248.281
2409.015, 2264.211
2410.944, 2268.474
2412.872, 2260.566
2414.801, 2259.902
2416.729, 2268.182
2418.657, 2279.498
2420.586, 2295.755
2422.514, 2305.664
2424.443, 2299.565
2426.371, 2300.285
2428.300, 2322.790
2430.228, 2333.201
2432.157, 2312.321
2434.085, 2298.351
2436.014, 2313.612
2437.942, 2326.702
2439.871, 2312.989
2441.799, 2299.251
2443.728, 2304.061
2445.656, 2318.454
2447.584, 2343.632
2449.513, 2364.857
2451.441, 2355.014
2453.370, 2332.701
2455.298, 2332.274
2457.227, 2345.464
2459.155, 2356.050
2461.084, 2362.637
2463.012, 2356.445
2464.941, 2339.402
2466.869, 2342.581
2468.798, 2369.086
2470.726, 2381.838
2472.655, 2379.188
2474.583, 2382.234
2476.511, 2393.815
2478.440, 2395.660
2480.368, 2381.780
2482.297, 2372.615
2484.225, 2370.689
2486.154, 2375.265
2488.082, 2390.173
2490.011, 2405.444
2491.939, 2423.464
2493.868, 2433.794
2495.796, 2428.477
2497.725, 2423.810
2499.653, 2427.953
2501.582, 2433.577
2503.510, 2438.529
2505.438, 2441.680
2507.367, 2435.833
2509.295, 2435.294
2511.224, 2461.058
2513.152, 2487.362
2515.081, 2488.735
2517.009, 2479.610
2518.938, 2470.077
2520.866, 2465.394
2522.795, 2480.695
2524.723, 2502.593
2526.652, 2500.407
2528.580, 2483.537
2530.509, 2476.520
2532.437, 2478.364
2534.365, 2490.557
2536.294, 2509.073
2538.222, 2511.460
2540.151, 2498.985
2542.079, 2493.692
2544.008, 2495.811
2545.936, 2502.506
2547.865, 2513.952
2549.793, 2525.552
2551.722, 2537.278
2553.650, 2543.501
2555.579, 2541.118
2557.507, 2547.208
2559.436, 2574.856
2561.364, 2585.301
2563.292, 2571.942
2565.221, 2560.994
2567.149, 2553.913
2569.078, 2555.240
2571.006, 2570.343
2572.935, 2581.077
2574.863, 2579.497
2576.792, 2579.077
2578.720, 2580.936
2580.649, 2586.856
2582.577, 2599.753
2584.506, 2611.524
2586.434, 2619.584
2588.363, 2625.961
2590.291, 2633.972
2592.219, 2636.839
2594.148, 2624.484
2596.076, 2616.328
2598.005, 2622.272
2599.933, 2634.666
2601.862, 2660.408
2603.790, 2676.023
2605.719, 2651.091
2607.647, 2630.839
2609.576, 2658.213
2611.504, 2689.436
2613.433, 2685.508
2615.361, 2675.308
2617.290, 2685.670
2619.218, 2698.464
2621.146, 2696.401
2623.075, 2690.620
2625.003, 2687.766
2626.932, 2692.185
2628.860, 2719.019
2630.789, 2746.925
2632.717, 2742.975
2634.646, 2728.457
2636.574, 2727.223
2638.503, 2736.320
2640.431, 2760.257
2642.360, 2785.395
2644.288, 2786.372
2646.217, 2774.002
2648.145, 2764.060
2650.073, 2758.060
2652.002, 2758.650
2653.930, 2765.639
2655.859, 2783.229
2657.787, 2804.700
2659.716, 2813.880
2661.644, 2814.837
2663.573, 2814.954
2665.501, 2817.011
2667.430, 2832.140
2669.358, 2853.648
2671.287, 2863.669
2673.215, 2865.398
2675.144, 2869.801
2677.072, 2874.318
2679.000, 2863.509
2680.929, 2846.313
2682.857, 2857.933
2684.786, 2887.474
2686.714, 2896.814
2688.643, 2890.817
2690.571, 2886.256
2692.500, 2884.256
2694.428, 2892.309
2696.357, 2907.223
2698.285, 2915.456
2700.214, 2920.233
2702.142, 2938.978
2704.071, 2965.629
2705.999, 2969.300
2707.927, 2955.628
2709.856, 2954.530
2711.784, 2961.808
2713.713, 2958.950
2715.641, 2950.819
2717.570, 2961.103
2719.498, 2983.900
2721.427, 2988.160
2723.355, 2980.840
2725.284, 3002.172
2727.212, 3039.559
2729.141, 3046.221
2731.069, 3031.888
2732.998, 3030.260
2734.926, 3038.056
2736.854, 3043.252
2738.783, 3046.759
2740.711, 3052.143
2742.640, 3058.599
2744.568, 3061.859
2746.497, 3065.066
2748.425, 3078.472
2750.354, 3098.945
2752.282, 3122.905
2754.211, 3143.743
2756.139, 3134.562
2758.068, 3114.854
2759.996, 3133.014
2761.925, 3168.548
2763.853, 3173.755
2765.781, 3164.090
2767.710, 3174.021
2769.638, 3190.831
2771.567, 3189.894
2773.495, 3183.221
2775.424, 3191.354
2777.352, 3206.171
2779.281, 3214.129
2781.209, 3220.775
2783.138, 3230.229
2785.066, 3246.929
2786.995, 3288.793
2788.923, 3328.374
2790.852, 3326.771
2792.780, 3311.274
2794.708, 3306.748
2796.637, 3309.743
2798.565, 3318.033
2800.494, 3330.925
2802.422, 3356.562
2804.351, 3375.792
2806.279, 3365.009
2808.208, 3351.444
2810.136, 3348.540
2812.065, 3356.170
2813.993, 3386.697
2815.922, 3410.187
2817.850, 3391.783
2819.779, 3386.795
2821.707, 3437.377
2823.635, 3479.465
2825.564, 3478.305
2827.492, 3472.824
2829.421, 3476.902
2831.349, 3482.964
2833.278, 3485.407
2835.206, 3496.890
2837.135, 3526.776
2839.063, 3549.553
2840.992, 3550.650
2842.920, 3556.285
2844.849, 3576.621
2846.777, 3587.140
2848.706, 3581.239
2850.634, 3583.387
2852.563, 3600.859
2854.491, 3614.155
2856.419, 3615.616
2858.348, 3628.596
2860.276, 3655.461
2862.205, 3673.900
2864.133, 3681.902
2866.062, 3692.226
2867.990, 3705.326
2869.919, 3728.545
2871.847, 3761.653
2873.776, 3775.594
2875.704, 3771.945
2877.633, 3755.175
2879.561, 3732.867
2881.490, 3743.374
2883.418, 3778.898
2885.346, 3820.023
2887.275, 3856.455
2889.203, 3852.440
2891.132, 3834.457
2893.060, 3851.373
2894.989, 3884.661
2896.917, 3909.353
2898.846, 3929.632
2900.774, 3948.363
2902.703, 3967.583
2904.631, 3994.409
2906.560, 4016.049
2908.488, 4015.269
2910.417, 4015.231
2912.345, 4025.646
2914.273, 4046.021
2916.202, 4086.345
2918.130, 4120.213
2920.059, 4130.127
2921.987, 4144.373
2923.916, 4171.704
2925.844, 4197.044
2927.773, 4216.071
2929.701, 4232.758
2931.630, 4245.861
2933.558, 4260.969
2935.487, 4277.777
2937.415, 4305.198
2939.344, 4347.578
2941.272, 4364.063
2943.200, 4348.505
2945.129, 4366.651
2947.057, 4414.100
2948.986, 4455.066
2950.914, 4486.420
2952.843, 4488.752
2954.771, 4480.223
2956.700, 4535.927
2958.628, 4613.997
2960.557, 4615.728
2962.485, 4594.211
2964.414, 4616.176
2966.342, 4659.172
2968.271, 4706.615
2970.199, 4753.013
2972.127, 4797.024
2974.056, 4835.012
2975.984, 4863.628
2977.913, 4887.011
2979.841, 4902.750
2981.770, 4919.883
2983.698, 4932.597
2985.627, 4969.790
2987.555, 5062.758
2989.484, 5135.517
2991.412, 5184.562
2993.341, 5198.686
2995.269, 5172.662
2997.198, 5183.676
2999.126, 5240.011
3001.054, 5300.984
3002.983, 5364.551
3004.911, 5397.332
3006.840, 5410.428
3008.768, 5444.890
3010.697, 5489.771
3012.625, 5516.456
3014.554, 5539.013
3016.482, 5585.706
3018.411, 5632.682
3020.339, 5648.479
3022.268, 5666.257
3024.196, 5722.480
3026.125, 5771.846
3028.053, 5787.427
3029.981, 5804.938
3031.910, 5836.732
3033.838, 5878.247
3035.767, 5939.674
3037.695, 5971.155
3039.624, 5959.228
3041.552, 5973.032
3043.481, 6031.196
3045.409, 6045.019
3047.338, 6017.808
3049.266, 6052.910
3051.195, 6128.247
3053.123, 6130.808
3055.052, 6095.986
3056.980, 6118.355
3058.908, 6163.385
3060.837, 6181.940
3062.765, 6189.210
3064.694, 6191.841
3066.622, 6199.665
3068.551, 6228.963
3070.479, 6250.552
3072.408, 6252.694
3074.336, 6245.564
3076.265, 6223.614
3078.193, 6208.083
3080.122, 6196.196
3082.050, 6226.787
3083.979, 6312.260
3085.907, 6332.202
3087.835, 6283.077
3089.764, 6263.249
3091.692, 6267.363
3093.621, 6281.795
3095.549, 6297.124
3097.478, 6289.465
3099.406, 6275.788
3101.335, 6274.273
3103.263, 6285.076
3105.192, 6319.682
3107.120, 6349.464
3109.049, 6354.722
3110.977, 6357.550
3112.906, 6364.955
3114.834, 6366.402
3116.762, 6347.205
3118.691, 6359.309
3120.619, 6410.247
3122.548, 6431.629
3124.476, 6424.564
3126.405, 6437.781
3128.333, 6464.152
3130.262, 6466.833
3132.190, 6460.205
3134.119, 6474.821
3136.047, 6493.554
3137.976, 6499.927
3139.904, 6499.180
3141.833, 6487.352
3143.761, 6483.599
3145.689, 6495.137
3147.618, 6518.631
3149.546, 6563.844
3151.475, 6590.153
3153.403, 6592.609
3155.332, 6603.162
3157.260, 6624.536
3159.189, 6655.886
3161.117, 6693.205
3163.046, 6719.542
3164.974, 6733.373
3166.903, 6722.097
3168.831, 6709.218
3170.760, 6721.521
3172.688, 6743.760
3174.616, 6775.719
3176.545, 6799.137
3178.473, 6788.362
3180.402, 6811.178
3182.330, 6888.847
3184.259, 6919.784
3186.187, 6882.139
3188.116, 6868.297
3190.044, 6877.178
3191.973, 6888.184
3193.901, 6902.509
3195.830, 6917.904
3197.758, 6942.895
3199.687, 7021.731
3201.615, 7069.635
3203.543, 6995.689
3205.472, 6927.716
3207.400, 6920.754
3209.329, 6939.514
3211.257, 6985.938
3213.186, 7014.623
3215.114, 7018.869
3217.043, 6993.183
3218.971, 6942.264
3220.900, 6926.283
3222.828, 6926.060
3224.757, 6888.716
3226.685, 6848.545
3228.614, 6860.658
3230.542, 6874.466
3232.470, 6851.783
3234.399, 6831.102
3236.327, 6838.247
3238.256, 6824.121
3240.184, 6778.553
3242.113, 6749.230
3244.041, 6741.852
3245.970, 6739.113
3247.898, 6739.178
3249.827, 6733.453
3251.755, 6724.023
3253.684, 6704.098
3255.612, 6695.741
3257.541, 6739.982
3259.469, 6765.663
3261.397, 6728.632
3263.326, 6683.718
3265.254, 6634.689
3267.183, 6609.626
3269.111, 6611.356
3271.040, 6620.070
3272.968, 6631.524
3274.897, 6627.007
3276.825, 6609.167
3278.754, 6574.136
3280.682, 6542.369
3282.611, 6538.783
3284.539, 6538.313
3286.468, 6531.373
3288.396, 6520.952
3290.324, 6511.980
3292.253, 6485.215
3294.181, 6440.175
3296.110, 6420.306
3298.038, 6420.508
3299.967, 6408.020
3301.895, 6391.165
3303.824, 6386.499
3305.752, 6383.046
3307.681, 6372.880
3309.609, 6359.451
3311.538, 6345.313
3313.466, 6323.107
3315.395, 6285.167
3317.323, 6273.325
3319.251, 6288.540
3321.180, 6273.281
3323.108, 6240.909
3325.037, 6232.140
3326.965, 6228.928
3328.894, 6208.937
3330.822, 6181.682
3332.751, 6139.910
3334.679, 6117.399
3336.608, 6130.910
3338.536, 6136.105
3340.465, 6128.798
3342.393, 6109.515
3344.322, 6082.816
3346.250, 6074.531
3348.178, 6071.222
3350.107, 6051.058
3352.035, 6028.102
3353.964, 6007.702
3355.892, 6000.686
3357.821, 6018.427
3359.749, 6020.684
3361.678, 5994.363
3363.606, 6004.250
3365.535, 6034.965
3367.463, 5985.885
3369.392, 5910.484
3371.320, 5921.908
3373.249, 5944.079
3375.177, 5910.293
3377.105, 5881.272
3379.034, 5884.280
3380.962, 5890.074
3382.891, 5897.386
3384.819, 5865.196
3386.748, 5804.902
3388.676, 5818.054
3390.605, 5855.949
3392.533, 5840.685
3394.462, 5807.437
3396.390, 5766.750
3398.319, 5753.218
3400.247, 5794.457
3402.176, 5796.619
3404.104, 5741.392
3406.032, 5702.656
3407.961, 5682.869
3409.889, 5692.496
3411.818, 5713.055
3413.746, 5721.376
3415.675, 5722.189
3417.603, 5723.354
3419.532, 5705.064
3421.460, 5654.048
3423.389, 5626.712
3425.317, 5627.548
3427.246, 5651.370
3429.174, 5680.790
3431.103, 5656.954
3433.031, 5623.788
3434.959, 5629.007
3436.888, 5629.316
3438.816, 5605.495
3440.745, 5580.754
3442.673, 5558.218
3444.602, 5542.736
3446.530, 5533.993
3448.459, 5539.885
3450.387, 5540.799
3452.316, 5496.123
3454.244, 5453.476
3456.173, 5447.578
3458.101, 5430.285
3460.030, 5364.583
3461.958, 5350.503
3463.886, 5380.364
3465.815, 5368.137
3467.743, 5329.341
3469.672, 5291.261
3471.600, 5255.924
3473.529, 5220.665
3475.457, 5196.989
3477.386, 5195.678
3479.314, 5181.680
3481.243, 5153.244
3483.171, 5142.956
3485.100, 5141.222
3487.028, 5111.909
3488.957, 5080.958
3490.885, 5081.105
3492.813, 5070.996
3494.742, 5032.636
3496.670, 4996.663
3498.599, 4966.457
3500.527, 4975.057
3502.456, 5003.338
3504.384, 4972.021
3506.313, 4935.736
3508.241, 4962.246
3510.170, 4983.509
3512.098, 4975.636
3514.027, 4954.212
3515.955, 4917.768
3517.884, 4907.759
3519.812, 4914.339
3521.740, 4905.108
3523.669, 4898.236
3525.597, 4928.995
3527.526, 4938.885
3529.454, 4885.500
3531.383, 4858.745
3533.311, 4864.375
3535.240, 4859.225
3537.168, 4851.325
3539.097, 4878.801
3541.025, 4898.064
3542.954, 4859.909
3544.882, 4829.231
3546.811, 4827.985
3548.739, 4848.798
3550.667, 4887.305
3552.596, 4892.502
3554.524, 4877.771
3556.453, 4872.775
3558.381, 4865.036
3560.310, 4839.534
3562.238, 4822.931
3564.167, 4822.278
3566.095, 4809.560
3568.024, 4786.377
3569.952, 4780.757
3571.881, 4787.470
3573.809, 4802.341
3575.738, 4818.365
3577.666, 4839.248
3579.594, 4835.207
3581.523, 4798.641
3583.451, 4792.496
3585.380, 4806.478
3587.308, 4797.055
3589.237, 4781.684
3591.165, 4769.508
3593.094, 4772.880
3595.022, 4800.792
3596.951, 4807.687
3598.879, 4790.821
3600.808, 4783.394
3602.736, 4781.102
3604.665, 4777.782
3606.593, 4773.634
3608.521, 4765.733
3610.450, 4767.296
3612.378, 4782.960
3614.307, 4806.314
3616.235, 4828.650
3618.164, 4821.504
3620.092, 4800.561
3622.021, 4770.287
3623.949, 4752.676
3625.878, 4757.433
3627.806, 4767.745
3629.735, 4780.438
3631.663, 4774.307
3633.592, 4761.447
3635.520, 4752.592
3637.448, 4756.307
3639.377, 4784.261
3641.305, 4795.648
3643.234, 4785.724
3645.162, 4773.861
3647.091, 4770.809
3649.019, 4814.114
3650.948, 4849.108
3652.876, 4841.479
3654.805, 4821.500
3656.733, 4792.142
3658.662, 4776.695
3660.590, 4773.692
3662.519, 4780.883
3664.447, 4787.098
3666.375, 4781.369
3668.304, 4775.073
3670.232, 4768.005
3672.161, 4776.480
3674.089, 4796.848
3676.018, 4818.201
3677.946, 4830.633
3679.875, 4821.488
3681.803, 4803.260
3683.732, 4765.980
3685.660, 4766.194
3687.589, 4794.755
3689.517, 4784.804
3691.446, 4767.770
3693.374, 4794.458
3695.302, 4816.647
3697.231, 4808.795
3699.159, 4809.679
3701.088, 4819.267
3703.016, 4828.246
3704.945, 4831.355
3706.873, 4811.936
3708.802, 4799.770
3710.730, 4817.604
3712.659, 4811.580
3714.587, 4784.239
3716.516, 4787.654
3718.444, 4805.452
3720.373, 4815.990
3722.301, 4826.588
3724.229, 4846.625
3726.158, 4846.886
3728.086, 4827.270
3730.015, 4786.362
3731.943, 4752.167
3733.872, 4781.623
3735.800, 4803.041
3737.729, 4777.055
3739.657, 4777.252
3741.586, 4803.664
3743.514, 4832.809
3745.443, 4853.869
3747.371, 4851.948
3749.300, 4835.055
3751.228, 4790.332
3753.156, 4802.381
3755.085, 4856.652
3757.013, 4854.358
3758.942, 4832.247
3760.870, 4827.140
3762.799, 4823.965
3764.727, 4817.084
3766.656, 4823.104
3768.584, 4836.946
3770.513, 4835.009
3772.441, 4833.853
3774.370, 4853.911
3776.298, 4862.501
3778.227, 4845.255
3780.155, 4869.775
3782.083, 4910.458
3784.012, 4895.415
3785.940, 4876.740
3787.869, 4894.387
3789.797, 4888.564
3791.726, 4847.043
3793.654, 4857.782
3795.583, 4888.823
3797.511, 4887.916
3799.440, 4882.414
3801.368, 4884.445
3803.297, 4880.268
3805.225, 4870.864
3807.154, 4885.080
3809.082, 4901.585
3811.010, 4894.673
3812.939, 4884.674
3814.867, 4875.819
3816.796, 4884.386
3818.724, 4900.195
3820.653, 4871.416
3822.581, 4854.370
3824.510, 4905.620
3826.438, 4948.927
3828.367, 4973.527
3830.295, 4956.702
3832.224, 4925.894
3834.152, 4929.491
3836.081, 4939.164
3838.009, 4944.364
3839.938, 4949.573
3841.866, 4951.011
3843.794, 4917.853
3845.723, 4892.306
3847.651, 4919.055
3849.580, 4943.210
3851.508, 4954.508
3853.437, 4975.604
3855.365, 4996.472
3857.294, 5002.103
3859.222, 4981.042
3861.151, 4909.013
3863.079, 4890.774
3865.008, 4923.318
3866.936, 4945.302
3868.865, 4957.744
3870.793, 4959.539
3872.721, 4958.062
3874.650, 4954.139
3876.578, 4956.999
3878.507, 4962.977
3880.435, 4969.934
3882.364, 4966.595
3884.292, 4945.655
3886.221, 4928.666
3888.149, 4918.743
3890.078, 4925.751
3892.006, 4930.947
3893.935, 4910.312
3895.863, 4899.974
3897.792, 4905.646
3899.720, 4895.715
3901.648, 4884.300
3903.577, 4901.529
3905.505, 4920.635
3907.434, 4932.060
3909.362, 4939.537
3911.291, 4944.138
3913.219, 4942.167
3915.148, 4937.474
3917.076, 4928.617
3919.005, 4938.483
3920.933, 4968.609
3922.862, 4965.676
3924.790, 4950.088
3926.719, 4961.522
3928.647, 4951.788
3930.575, 4893.579
3932.504, 4897.865
3934.432, 4936.154
3936.361, 4946.055
3938.289, 4946.187
3940.218, 4945.656
3942.146, 4935.928
3944.075, 4920.428
3946.003, 4912.804
3947.932, 4913.675
3949.860, 4925.110
3951.789, 4936.927
3953.717, 4943.293
3955.646, 4918.319
3957.574, 4890.329
3959.502, 4894.348
3961.431, 4918.720
3963.359, 4947.760
3965.288, 4947.695
3967.216, 4929.743
3969.145, 4932.429
3971.073, 4932.976
3973.002, 4916.964
3974.930, 4923.420
3976.859, 4929.821
3978.787, 4936.515
3980.716, 4953.340
3982.644, 4962.639
3984.573, 4967.171
3986.501, 4955.651
3988.429, 4934.164
3990.358, 4940.754
3992.286, 4970.232
3994.215, 4981.330
3996.143, 4968.950
3998.072, 4961.825
4000.000, 4959.041
4001.929, 4935.570
4003.857, 4932.029
4005.786, 4942.478
4007.714, 4950.502
4009.643, 4963.824
4011.571, 4969.835
4013.500, 4970.706
4015.428, 4961.523
4017.356, 4966.916
4019.285, 4972.358
4021.213, 4970.254
4023.142, 4975.629
4025.070, 4963.244
4026.999, 4961.391
4028.927, 4981.306
4030.856, 4977.391
4032.784, 4953.997
4034.713, 4956.850
4036.641, 4971.718
4038.570, 4967.472
4040.498, 4954.315
4042.427, 4959.004
4044.355, 4987.447
4046.283, 5003.031
4048.212, 4983.148
4050.140, 4971.724
4052.069, 4992.670
4053.997, 4998.472
4055.926, 4972.363
4057.854, 4965.347
4059.783, 4985.237
4061.711, 5007.760
4063.640, 5032.405
4065.568, 5015.972
4067.497, 4988.080
4069.425, 4978.876
4071.354, 4980.021
4073.282, 4989.853
4075.210, 4975.715
4077.139, 4957.643
4079.067, 4954.298
4080.996, 4960.523
4082.924, 4980.039
4084.853, 4968.300
4086.781, 4947.999
4088.710, 4955.759
4090.638, 4964.464
4092.567, 4958.262
4094.495, 4967.601
4096.424, 4978.870
4098.352, 4987.039
4100.280, 4994.878
4102.209, 4995.296
4104.138, 4987.383
4106.066, 4980.085
4107.994, 4973.047
4109.923, 4967.039
4111.852, 4965.346
4113.780, 4972.747
4115.708, 4981.197
4117.637, 4992.241
4119.565, 4997.857
4121.494, 4996.773
4123.422, 4997.661
4125.351, 4996.345
4127.279, 4987.343
4129.208, 4975.658
4131.136, 4960.238
4133.064, 4936.837
4134.993, 4927.752
4136.921, 4965.593
4138.850, 4984.198
4140.778, 4980.212
4142.707, 4974.350
4144.635, 4972.968
4146.563, 4988.207
4148.492, 5004.426
4150.421, 5020.064
4152.349, 4987.277
4154.277, 4946.321
4156.206, 4956.052
4158.135, 4972.551
4160.063, 4976.117
4161.991, 4977.519
4163.920, 4993.513
4165.849, 5002.982
4167.777, 4999.523
4169.705, 5001.859
4171.634, 5001.242
4173.563, 5001.979
4175.491, 5021.969
4177.419, 5039.850
4179.348, 5058.208
4181.276, 5052.849
4183.205, 5035.421
4185.133, 4995.156
4187.062, 4965.546
4188.990, 4975.070
4190.918, 4999.108
4192.847, 5018.799
4194.775, 5025.872
4196.704, 5015.647
4198.632, 4984.147
4200.561, 4988.969
4202.489, 5002.427
4204.418, 4994.665
4206.346, 4996.433
4208.274, 5012.295
4210.203, 4988.349
4212.132, 4965.564
4214.060, 5002.004
4215.988, 5020.843
4217.917, 5014.337
4219.846, 5016.961
4221.774, 5022.049
4223.702, 5026.107
4225.631, 5031.255
4227.560, 5034.485
4229.488, 5024.453
4231.416, 5020.407
4233.345, 5039.974
4235.273, 5056.251
4237.202, 5063.720
4239.130, 5034.433
4241.059, 5013.041
4242.987, 5035.549
4244.916, 5056.379
4246.844, 5071.847
4248.772, 5088.866
4250.701, 5084.556
4252.629, 5026.913
4254.558, 5037.049
4256.486, 5075.837
4258.415, 5057.684
4260.343, 5042.550
4262.271, 5049.768
4264.200, 5082.599
4266.129, 5112.954
4268.057, 5095.488
4269.985, 5070.366
4271.914, 5046.858
4273.843, 5086.818
4275.771, 5126.132
4277.699, 5084.145
4279.628, 5065.319
4281.557, 5075.666
4283.485, 5065.617
4285.413, 5064.889
4287.342, 5113.455
4289.271, 5114.602
4291.199, 5081.315
4293.127, 5051.454
4295.056, 5054.869
4296.984, 5124.321
4298.913, 5135.929
4300.841, 5118.570
4302.770, 5120.218
4304.698, 5131.097
4306.626, 5150.752
4308.555, 5136.271
4310.483, 5118.500
4312.412, 5133.909
4314.340, 5142.598
4316.269, 5138.949
4318.197, 5107.805
4320.126, 5093.768
4322.054, 5131.590
4323.982, 5139.900
4325.911, 5127.901
4327.840, 5129.413
4329.768, 5141.141
4331.696, 5162.760
4333.625, 5162.517
4335.554, 5152.680
4337.482, 5143.253
4339.410, 5153.621
4341.339, 5181.388
4343.268, 5191.490
4345.196, 5192.069
4347.124, 5185.152
4349.053, 5203.913
4350.981, 5230.136
4352.910, 5197.986
4354.838, 5173.470
4356.767, 5179.191
4358.695, 5192.486
4360.624, 5198.666
4362.552, 5162.603
4364.480, 5179.570
4366.409, 5246.414
4368.337, 5218.674
4370.266, 5189.000
4372.194, 5235.099
4374.123, 5258.501
4376.051, 5260.464
4377.979, 5245.708
4379.908, 5232.801
4381.837, 5226.810
4383.765, 5238.191
4385.693, 5250.934
4387.622, 5254.126
4389.551, 5216.640
4391.479, 5163.682
4393.407, 5260.722
4395.336, 5320.591
4397.265, 5260.915
4399.193, 5251.895
4401.121, 5268.427
4403.050, 5260.886
4404.979, 5268.406
4406.907, 5288.742
4408.835, 5256.343
4410.764, 5238.801
4412.692, 5290.541
4414.621, 5265.693
4416.549, 5208.760
4418.478, 5221.754
4420.406, 5241.976
4422.334, 5253.680
4424.263, 5242.744
4426.191, 5244.157
4428.120, 5297.920
4430.048, 5334.602
4431.977, 5343.905
4433.905, 5286.599
4435.834, 5263.672
4437.762, 5300.683
4439.690, 5318.866
4441.619, 5316.912
4443.548, 5286.721
4445.476, 5293.294
4447.404, 5320.200
4449.333, 5304.594
4451.262, 5290.172
4453.190, 5290.521
4455.118, 5307.514
4457.047, 5330.121
4458.976, 5354.621
4460.904, 5355.435
4462.832, 5342.915
4464.761, 5357.149
4466.689, 5356.117
4468.618, 5325.565
4470.546, 5342.882
4472.475, 5373.929
4474.403, 5397.584
4476.332, 5395.555
4478.260, 5371.561
4480.188, 5313.997
4482.117, 5305.081
4484.045, 5355.827
4485.974, 5365.602
4487.902, 5361.228
4489.831, 5358.438
4491.759, 5377.330
4493.688, 5404.926
4495.616, 5412.833
4497.545, 5423.221
4499.473, 5438.481
4501.401, 5428.121
4503.330, 5426.642
4505.259, 5454.922
4507.187, 5418.288
4509.115, 5373.071
4511.044, 5411.833
4512.973, 5443.747
4514.901, 5454.210
4516.829, 5431.338
4518.758, 5423.875
4520.687, 5458.791
4522.615, 5462.503
4524.543, 5449.774
4526.472, 5428.036
4528.400, 5430.011
4530.329, 5444.871
4532.257, 5435.575
4534.186, 5442.229
4536.114, 5466.873
4538.042, 5444.354
4539.971, 5431.701
4541.899, 5483.167
4543.828, 5461.949
4545.756, 5417.595
4547.685, 5419.590
4549.613, 5447.969
4551.542, 5489.744
4553.470, 5513.280
4555.398, 5510.353
4557.327, 5483.175
4559.256, 5498.925
4561.184, 5511.312
4563.112, 5470.173
4565.041, 5482.443
4566.970, 5519.110
4568.898, 5526.196
4570.826, 5519.476
4572.755, 5504.820
4574.684, 5493.588
4576.612, 5495.813
4578.540, 5514.238
4580.469, 5553.917
4582.397, 5573.498
4584.326, 5523.447
4586.254, 5534.444
4588.183, 5567.232
4590.111, 5537.059
4592.040, 5507.427
4593.968, 5493.683
4595.896, 5539.759
4597.825, 5561.813
4599.753, 5538.439
4601.682, 5535.433
4603.610, 5547.799
4605.539, 5580.835
4607.467, 5569.906
4609.396, 5539.827
4611.324, 5519.101
4613.253, 5538.552
4615.181, 5577.168
4617.109, 5550.888
4619.038, 5539.807
4620.967, 5558.213
4622.895, 5566.693
4624.823, 5569.099
4626.752, 5563.178
4628.681, 5590.613
4630.609, 5616.800
4632.537, 5606.037
4634.466, 5602.781
4636.395, 5604.710
4638.323, 5604.220
4640.251, 5584.801
4642.180, 5559.500
4644.108, 5590.377
4646.037, 5625.500
4647.965, 5647.884
4649.894, 5607.484
4651.822, 5592.512
4653.750, 5649.814
4655.679, 5659.331
4657.607, 5641.482
4659.536, 5614.854
4661.464, 5612.433
4663.393, 5616.178
4665.321, 5574.910
4667.250, 5594.258
4669.178, 5657.429
4671.106, 5645.594
4673.035, 5638.868
4674.964, 5652.730
4676.892, 5628.514
4678.820, 5608.080
4680.749, 5614.971
4682.678, 5586.770
4684.606, 5580.962
4686.534, 5643.700
4688.463, 5672.931
4690.392, 5679.681
4692.320, 5688.769
4694.248, 5679.264
4696.177, 5660.724
4698.105, 5651.979
4700.034, 5671.906
4701.962, 5702.439
4703.891, 5655.699
4705.819, 5614.855
4707.748, 5606.410
4709.676, 5653.703
4711.604, 5682.620
4713.533, 5660.455
4715.461, 5675.291
4717.390, 5684.899
4719.318, 5659.426
4721.247, 5656.288
4723.175, 5665.545
4725.104, 5682.368
4727.032, 5653.713
4728.961, 5622.046
4730.889, 5663.499
4732.817, 5682.965
4734.746, 5680.414
4736.675, 5673.939
4738.603, 5705.508
4740.531, 5761.243
4742.460, 5748.956
4744.389, 5728.814
4746.317, 5717.647
4748.245, 5735.251
4750.174, 5707.986
4752.103, 5605.727
4754.031, 5631.667
4755.959, 5699.945
4757.888, 5767.004
4759.816, 5755.796
4761.745, 5724.995
4763.673, 5721.566
4765.602, 5712.770
4767.530, 5711.892
4769.458, 5735.954
4771.387, 5740.466
4773.315, 5739.818
4775.244, 5776.432
4777.172, 5728.179
4779.101, 5649.269
4781.029, 5655.618
4782.958, 5688.549
4784.886, 5718.354
4786.814, 5678.187
4788.743, 5694.928
4790.672, 5750.515
4792.600, 5668.225
4794.528, 5660.993
4796.457, 5742.777
4798.386, 5754.172
4800.314, 5747.288
4802.242, 5739.674
4804.171, 5735.854
4806.100, 5739.228
4808.028, 5748.812
4809.956, 5735.225
4811.885, 5727.717
4813.813, 5739.714
4815.742, 5745.158
4817.670, 5746.558
4819.599, 5745.522
4821.527, 5774.493
4823.456, 5779.486
4825.384, 5717.833
4827.313, 5705.424
4829.241, 5721.858
4831.169, 5753.902
4833.098, 5730.187
4835.026, 5705.417
4836.955, 5737.344
4838.883, 5748.703
4840.812, 5739.449
4842.740, 5709.181
4844.669, 5675.613
4846.597, 5672.509
4848.525, 5765.015
4850.454, 5752.871
4852.383, 5705.835
4854.311, 5715.486
4856.239, 5738.548
4858.168, 5760.449
4860.097, 5770.131
4862.025, 5774.782
4863.953, 5764.772
4865.882, 5721.007
4867.811, 5680.959
4869.739, 5668.484
4871.667, 5727.060
4873.596, 5770.074
4875.524, 5785.524
4877.453, 5759.964
4879.381, 5742.047
4881.310, 5737.491
4883.238, 5755.153
4885.167, 5738.953
4887.095, 5717.315
4889.023, 5764.737
4890.952, 5733.557
4892.880, 5682.827
4894.809, 5754.660
4896.737, 5776.468
4898.666, 5760.210
4900.594, 5753.549
4902.522, 5733.001
4904.451, 5722.886
4906.380, 5780.251
4908.308, 5759.652
4910.236, 5709.719
4912.165, 5738.549
4914.094, 5716.077
4916.022, 5698.344
4917.950, 5803.180
4919.879, 5790.588
4921.808, 5725.796
4923.736, 5749.427
4925.664, 5703.958
4927.593, 5666.257
4929.521, 5763.792
4931.450, 5768.580
4933.378, 5723.625
4935.307, 5693.069
4937.235, 5714.854
4939.164, 5735.240
4941.092, 5682.902
4943.021, 5688.737
4944.949, 5713.622
4946.877, 5718.182
4948.806, 5728.034
4950.734, 5726.851
4952.663, 5691.963
4954.591, 5679.164
4956.520, 5690.979
4958.448, 5728.542
4960.377, 5739.255
4962.305, 5733.375
4964.233, 5718.470
4966.162, 5717.358
4968.091, 5728.210
4970.019, 5749.369
4971.947, 5727.819
4973.876, 5721.559
4975.805, 5745.390
4977.733, 5726.567
4979.661, 5704.068
4981.590, 5691.954
4983.519, 5676.065
4985.447, 5686.533
4987.375, 5717.974
4989.304, 5719.254
4991.232, 5690.641
4993.161, 5661.865
4995.089, 5750.340
4997.018, 5777.576
4998.946, 5742.548
5000.875, 5705.258
5002.803, 5708.136
5004.731, 5727.407
5006.660, 5720.311
5008.588, 5679.944
5010.517, 5641.757
5012.445, 5648.595
5014.374, 5688.450
5016.302, 5713.868
5018.230, 5679.933
5020.159, 5700.810
5022.088, 5730.882
5024.016, 5734.667
5025.944, 5702.272
5027.873, 5675.397
5029.802, 5674.710
5031.730, 5716.786
5033.658, 5741.139
5035.587, 5727.714
5037.516, 5687.688
5039.444, 5665.625
5041.372, 5675.974
5043.301, 5745.863
5045.229, 5751.608
5047.158, 5719.213
5049.086, 5772.030
5051.015, 5760.545
5052.943, 5706.344
5054.872, 5651.577
5056.800, 5663.977
5058.729, 5682.240
5060.657, 5641.800
5062.585, 5655.332
5064.514, 5673.319
5066.442, 5654.979
5068.371, 5669.595
5070.299, 5681.977
5072.228, 5676.626
5074.156, 5645.904
5076.085, 5670.682
5078.013, 5731.871
5079.941, 5651.915
5081.870, 5651.943
5083.799, 5714.241
5085.727, 5707.217
5087.655, 5661.064
5089.584, 5626.562
5091.513, 5667.620
5093.441, 5664.031
5095.369, 5660.454
5097.298, 5710.640
5099.227, 5704.246
5101.155, 5667.117
5103.083, 5617.627
5105.012, 5617.779
5106.940, 5621.796
5108.869, 5614.382
5110.797, 5585.968
5112.726, 5585.429
5114.654, 5600.329
5116.583, 5577.395
5118.511, 5589.523
5120.439, 5611.058
5122.368, 5603.241
5124.296, 5632.683
5126.225, 5643.353
5128.153, 5591.865
5130.082, 5582.829
5132.010, 5584.071
5133.938, 5584.875
5135.867, 5619.046
5137.796, 5595.682
5139.724, 5540.414
5141.652, 5557.533
5143.581, 5591.305
5145.510, 5614.847
5147.438, 5592.650
5149.366, 5625.197
5151.295, 5641.423
5153.224, 5596.639
5155.152, 5584.459
5157.080, 5592.026
5159.009, 5601.957
5160.938, 5537.012
5162.866, 5548.000
5164.794, 5604.035
5166.723, 5563.156
5168.651, 5556.121
5170.580, 5573.417
5172.508, 5590.416
5174.437, 5551.695
5176.365, 5532.565
5178.293, 5573.745
5180.222, 5579.026
5182.150, 5566.510
5184.079, 5554.400
5186.007, 5588.256
5187.936, 5592.675
5189.864, 5573.503
5191.793, 5546.849
5193.721, 5571.242
5195.649, 5593.981
5197.578, 5576.447
5199.507, 5598.597
5201.435, 5604.281
5203.363, 5582.872
5205.292, 5560.599
5207.221, 5549.617
5209.149, 5553.938
5211.077, 5583.647
5213.006, 5606.326
5214.935, 5594.726
5216.863, 5532.284
5218.791, 5537.815
5220.720, 5536.326
5222.648, 5516.291
5224.577, 5535.085
5226.505, 5573.037
5228.434, 5595.043
5230.362, 5539.170
5232.291, 5530.944
5234.219, 5531.230
5236.147, 5513.305
5238.076, 5524.750
5240.004, 5547.138
5241.933, 5561.435
5243.861, 5520.406
5245.790, 5510.966
5247.718, 5512.580
5249.646, 5483.860
5251.575, 5450.732
5253.504, 5459.691
5255.432, 5519.215
5257.360, 5535.465
5259.289, 5491.802
5261.218, 5439.907
5263.146, 5511.440
5265.074, 5522.088
5267.003, 5497.500
5268.932, 5471.033
5270.860, 5422.087
5272.788, 5425.625
5274.717, 5477.855
5276.646, 5471.528
5278.574, 5445.292
5280.502, 5431.921
5282.431, 5476.814
5284.359, 5442.049
5286.288, 5432.418
5288.216, 5487.616
5290.145, 5458.904
5292.073, 5450.756
5294.001, 5457.712
5295.930, 5426.115
5297.858, 5417.126
5299.787, 5429.462
5301.715, 5457.777
5303.644, 5492.668
5305.572, 5486.410
5307.501, 5444.230
5309.429, 5403.713
5311.357, 5407.746
5313.286, 5435.641
5315.215, 5463.028
5317.143, 5428.584
5319.071, 5404.381
5321.000, 5404.157
5322.929, 5385.922
5324.857, 5370.357
5326.785, 5380.046
5328.714, 5433.195
5330.643, 5423.710
5332.571, 5406.633
5334.499, 5396.073
5336.428, 5353.956
5338.356, 5355.499
5340.285, 5369.030
5342.213, 5351.948
5344.142, 5336.725
5346.070, 5326.358
5347.999, 5323.602
5349.927, 5338.895
5351.855, 5331.240
5353.784, 5321.416
5355.712, 5335.205
5357.641, 5367.164
5359.569, 5361.168
5361.498, 5320.015
5363.426, 5325.791
5365.354, 5324.927
5367.283, 5316.780
5369.212, 5307.583
5371.140, 5322.338
5373.068, 5310.396
5374.997, 5275.660
5376.926, 5265.754
5378.854, 5288.137
5380.782, 5299.052
5382.711, 5264.536
5384.640, 5263.222
5386.568, 5279.135
5388.496, 5287.832
5390.425, 5247.200
5392.354, 5221.836
5394.282, 5225.160
5396.210, 5256.825
5398.139, 5308.947
5400.067, 5287.264
5401.996, 5242.293
5403.924, 5292.521
5405.853, 5264.142
5407.781, 5242.527
5409.709, 5253.676
5411.638, 5218.745
5413.566, 5214.294
5415.495, 5229.866
5417.423, 5240.899
5419.352, 5195.061
5421.280, 5153.177
5423.209, 5144.099
5425.137, 5207.368
5427.065, 5172.942
5428.994, 5153.800
5430.923, 5215.973
5432.851, 5172.102
5434.779, 5187.348
5436.708, 5220.832
5438.637, 5172.364
5440.565, 5169.852
5442.493, 5144.718
5444.422, 5098.931
5446.351, 5156.519
5448.279, 5180.414
5450.207, 5161.621
5452.136, 5107.360
5454.064, 5087.461
5455.993, 5090.610
5457.921, 5098.946
5459.850, 5090.696
5461.778, 5104.621
5463.707, 5104.874
5465.635, 5092.156
5467.563, 5143.942
5469.492, 5094.621
5471.420, 5051.143
5473.349, 5104.537
5475.277, 5121.978
5477.206, 5098.268
5479.134, 5058.523
5481.063, 5037.276
5482.991, 5035.903
5484.920, 5039.733
5486.848, 5040.672
5488.776, 5032.206
5490.705, 5033.100
5492.634, 5028.843
5494.562, 5013.649
5496.490, 5029.186
5498.419, 5028.027
5500.348, 5007.583
5502.276, 4971.823
5504.204, 4982.576
5506.133, 4988.432
5508.062, 4994.095
5509.990, 5037.817
5511.918, 5005.811
5513.847, 5002.928
5515.775, 5045.540
5517.704, 5009.426
5519.632, 4999.486
5521.561, 4981.361
5523.489, 4931.065
5525.417, 4934.428
5527.346, 4919.665
5529.274, 4910.465
5531.203, 4944.590
5533.131, 4924.811
5535.060, 4924.398
5536.988, 4947.296
5538.917, 4969.091
5540.845, 4942.189
5542.773, 4934.427
5544.702, 4952.888
5546.631, 4942.926
5548.559, 4939.786
5550.487, 4925.162
5552.416, 4892.483
5554.345, 4849.276
5556.273, 4872.336
5558.201, 4908.218
5560.130, 4912.176
5562.059, 4899.001
5563.987, 4867.674
5565.915, 4851.207
5567.844, 4871.625
5569.772, 4810.047
5571.701, 4804.381
5573.629, 4837.292
5575.558, 4844.452
5577.486, 4862.821
5579.415, 4848.764
5581.343, 4817.598
5583.271, 4818.692
5585.200, 4844.463
5587.128, 4868.344
5589.057, 4862.798
5590.985, 4786.384
5592.914, 4762.745
5594.842, 4770.065
5596.771, 4782.622
5598.699, 4774.931
5600.628, 4777.510
5602.556, 4774.184
5604.484, 4762.012
5606.413, 4770.917
5608.342, 4801.820
5610.270, 4801.374
5612.198, 4756.504
5614.127, 4775.279
5616.056, 4781.595
5617.984, 4751.334
5619.912, 4696.488
5621.841, 4752.852
5623.770, 4765.339
5625.698, 4733.660
5627.626, 4687.822
5629.555, 4676.684
5631.483, 4701.735
5633.412, 4724.617
5635.340, 4716.461
5637.269, 4685.930
5639.197, 4686.848
5641.125, 4690.812
5643.054, 4666.937
5644.982, 4667.049
5646.911, 4664.870
5648.839, 4662.113
5650.768, 4663.459
5652.696, 4638.141
5654.625, 4656.303
5656.553, 4672.299
5658.481, 4640.354
5660.410, 4624.069
5662.339, 4641.294
5664.267, 4651.551
5666.195, 4622.624
5668.124, 4602.772
5670.053, 4580.703
5671.981, 4588.499
5673.909, 4647.236
5675.838, 4627.493
5677.767, 4635.722
5679.695, 4626.481
5681.623, 4557.984
5683.552, 4523.296
5685.480, 4578.344
5687.409, 4603.034
5689.337, 4536.370
5691.266, 4588.020
5693.194, 4600.513
5695.123, 4573.322
5697.051, 4530.296
5698.979, 4485.064
5700.908, 4514.029
5702.836, 4539.391
5704.765, 4521.505
5706.693, 4508.059
5708.622, 4476.367
5710.550, 4485.846
5712.479, 4532.737
5714.407, 4509.692
5716.336, 4471.032
5718.264, 4473.177
5720.192, 4508.420
5722.121, 4512.884
5724.050, 4529.957
5725.978, 4519.576
5727.906, 4494.642
5729.835, 4497.663
5731.764, 4455.088
5733.692, 4418.229
5735.620, 4417.726
5737.549, 4463.563
5739.478, 4461.982
5741.406, 4431.565
5743.334, 4410.350
5745.263, 4421.933
5747.191, 4400.437
5749.120, 4430.636
5751.048, 4441.557
5752.977, 4391.074
5754.905, 4384.917
5756.833, 4388.583
5758.762, 4414.804
5760.690, 4450.655
5762.619, 4431.880
5764.547, 4401.098
5766.476, 4388.657
5768.404, 4380.385
5770.333, 4334.437
5772.261, 4392.934
5774.189, 4351.429
5776.118, 4291.529
5778.047, 4359.157
5779.975, 4323.799
5781.903, 4306.719
5783.832, 4332.832
5785.761, 4378.049
5787.689, 4307.274
5789.617, 4309.234
5791.546, 4313.636
5793.475, 4289.014
5795.403, 4310.174
5797.331, 4301.824
5799.260, 4293.924
5801.188, 4295.632
5803.117, 4303.575
5805.045, 4264.781
5806.974, 4260.044
5808.902, 4265.847
5810.831, 4242.003
5812.759, 4227.915
5814.688, 4246.228
5816.616, 4268.233
5818.544, 4275.065
5820.473, 4271.974
5822.401, 4242.617
5824.330, 4248.493
5826.258, 4282.306
5828.187, 4294.433
5830.115, 4193.652
5832.044, 4153.672
5833.972, 4181.107
5835.900, 4225.312
5837.829, 4167.620
5839.758, 4175.852
5841.686, 4191.707
5843.614, 4179.535
5845.543, 4152.559
5847.472, 4182.616
5849.400, 4191.168
5851.328, 4174.805
5853.257, 4161.566
5855.186, 4170.313
5857.114, 4107.299
5859.042, 4050.023
5860.971, 4050.855
5862.899, 4095.757
5864.828, 4109.361
5866.756, 4097.705
5868.685, 4102.305
5870.613, 4168.610
5872.542, 4079.706
5874.470, 4037.444
5876.398, 4046.071
5878.327, 4069.657
5880.255, 4086.930
5882.184, 4045.101
5884.112, 4040.729
5886.041, 4053.161
5887.969, 4010.276
5889.897, 4020.116
5891.826, 4022.178
5893.755, 4033.061
5895.683, 4048.442
5897.611, 3987.492
5899.540, 3972.931
5901.469, 3994.531
5903.397, 4026.769
5905.325, 4044.189
5907.254, 3960.068
5909.183, 3971.865
5911.111, 3987.946
5913.039, 3960.505
5914.968, 3971.299
5916.896, 3989.791
5918.825, 4002.673
5920.753, 3987.335
5922.682, 3934.013
5924.610, 3906.618
5926.539, 3915.189
5928.467, 3939.641
5930.396, 3949.511
5932.324, 3892.747
5934.252, 3911.788
5936.181, 3927.166
5938.109, 3917.085
5940.038, 3890.412
5941.966, 3880.267
5943.895, 3894.118
5945.823, 3859.937
5947.752, 3832.163
5949.680, 3891.216
5951.608, 3869.028
5953.537, 3854.274
5955.466, 3838.515
5957.394, 3835.523
5959.322, 3886.176
5961.251, 3852.229
5963.180, 3836.917
5965.108, 3819.606
5967.036, 3787.721
5968.965, 3794.215
5970.894, 3788.977
5972.822, 3796.227
5974.750, 3799.373
5976.679, 3781.296
5978.607, 3772.517
5980.536, 3779.643
5982.464, 3782.145
5984.393, 3776.375
5986.321, 3771.442
5988.250, 3803.272
5990.178, 3757.876
5992.106, 3734.135
5994.035, 3751.964
5995.963, 3747.780
5997.892, 3742.456
5999.820, 3738.573
6001.749, 3749.086
6003.677, 3752.012
6005.605, 3691.002
6007.534, 3704.253
6009.463, 3659.129
6011.391, 3637.325
6013.319, 3680.484
6015.248, 3676.357
6017.177, 3696.328
6019.105, 3699.203
6021.033, 3681.955
6022.962, 3659.407
6024.891, 3655.104
6026.819, 3649.536
6028.747, 3600.557
6030.676, 3587.063
6032.604, 3654.719
6034.533, 3655.073
6036.461, 3617.566
6038.390, 3613.456
6040.318, 3625.490
6042.247, 3616.935
6044.175, 3601.108
6046.104, 3581.111
6048.032, 3575.160
6049.960, 3576.494
6051.889, 3575.180
6053.817, 3601.413
6055.746, 3537.184
6057.674, 3515.286
6059.603, 3539.732
6061.531, 3556.334
6063.460, 3537.068
6065.388, 3526.401
6067.316, 3527.135
6069.245, 3538.989
6071.174, 3556.489
6073.102, 3555.099
6075.030, 3530.009
6076.959, 3523.082
6078.888, 3520.563
6080.816, 3506.755
6082.744, 3525.194
6084.673, 3528.952
6086.602, 3513.047
6088.530, 3490.063
6090.458, 3467.442
6092.387, 3432.616
6094.315, 3404.307
6096.244, 3430.361
6098.172, 3459.583
6100.101, 3460.016
6102.029, 3464.676
6103.958, 3442.780
6105.886, 3417.912
6107.814, 3394.701
6109.743, 3387.659
6111.671, 3419.797
6113.600, 3354.857
6115.528, 3348.800
6117.457, 3372.498
6119.385, 3380.874
6121.313, 3358.319
6123.242, 3340.329
6125.171, 3353.321
6127.099, 3358.335
6129.027, 3358.971
6130.956, 3368.729
6132.885, 3347.750
6134.813, 3315.002
6136.741, 3285.333
6138.670, 3277.362
6140.599, 3290.679
6142.527, 3294.372
6144.455, 3283.789
6146.384, 3350.608
6148.313, 3347.321
6150.241, 3271.873
6152.169, 3277.112
6154.098, 3268.927
6156.026, 3273.215
6157.955, 3274.960
6159.883, 3268.611
6161.812, 3258.615
6163.740, 3248.581
6165.668, 3256.573
6167.597, 3255.342
6169.525, 3226.194
6171.454, 3187.768
6173.382, 3195.558
6175.311, 3212.448
6177.239, 3214.202
6179.168, 3211.789
6181.096, 3225.743
6183.024, 3254.765
6184.953, 3197.462
6186.882, 3182.091
6188.810, 3193.773
6190.738, 3189.895
6192.667, 3161.410
6194.596, 3153.032
6196.524, 3159.283
6198.452, 3139.725
6200.381, 3137.537
6202.310, 3129.103
6204.238, 3070.042
6206.166, 3123.571
6208.095, 3099.646
6210.023, 3101.467
6211.952, 3084.875
6213.880, 3042.133
6215.809, 3097.226
6217.737, 3061.679
6219.666, 3084.155
6221.594, 3085.249
6223.522, 3071.864
6225.451, 3085.587
6227.379, 3037.499
6229.308, 3035.353
6231.236, 3036.022
6233.165, 3042.343
6235.093, 3053.658
6237.021, 3054.297
6238.950, 3032.547
6240.879, 2989.733
6242.807, 3003.955
6244.735, 3018.721
6246.664, 2999.201
6248.593, 3005.334
6250.521, 3004.676
6252.449, 3010.928
6254.378, 3028.501
6256.307, 3011.822
6258.235, 2963.626
6260.163, 3005.862
6262.092, 2982.176
6264.021, 2911.543
6265.949, 2919.249
6267.877, 2965.732
6269.806, 2950.832
6271.734, 2905.174
6273.663, 2952.630
6275.591, 2931.895
6277.520, 2927.986
6279.448, 2928.195
6281.376, 2865.381
6283.305, 2906.745
6285.233, 2923.213
6287.162, 2928.326
6289.090, 2881.201
6291.019, 2831.108
6292.947, 2865.883
6294.876, 2864.386
6296.804, 2838.136
6298.732, 2859.171
6300.661, 2876.859
6302.590, 2858.469
6304.518, 2822.938
6306.446, 2837.331
6308.375, 2874.991
6310.304, 2825.995
6312.232, 2793.704
6314.160, 2819.305
6316.089, 2846.114
6318.018, 2818.810
6319.946, 2818.872
6321.874, 2813.937
6323.803, 2799.986
6325.731, 2789.088
6327.660, 2787.941
6329.588, 2781.519
6331.517, 2806.330
6333.445, 2745.757
6335.374, 2733.610
6337.302, 2748.426
6339.230, 2719.124
6341.159, 2740.037
6343.087, 2726.096
6345.016, 2701.841
6346.944, 2728.717
6348.873, 2741.990
6350.801, 2700.653
6352.729, 2686.573
6354.658, 2711.687
6356.587, 2724.977
6358.515, 2718.332
6360.443, 2695.762
6362.372, 2669.001
6364.301, 2653.974
6366.229, 2681.194
6368.157, 2664.069
6370.086, 2664.230
6372.015, 2635.589
6373.943, 2614.840
6375.871, 2650.314
6377.800, 2597.409
6379.729, 2634.670
6381.657, 2653.217
6383.585, 2654.054
6385.514, 2584.128
6387.442, 2605.577
6389.371, 2590.404
6391.299, 2573.734
6393.228, 2608.039
6395.156, 2548.409
6397.084, 2581.907
6399.013, 2578.228
6400.941, 2591.566
6402.870, 2568.058
6404.798, 2555.933
6406.727, 2580.659
6408.655, 2584.982
6410.584, 2557.232
6412.512, 2525.163
6414.440, 2553.128
6416.369, 2514.117
6418.298, 2525.746
6420.226, 2533.823
6422.154, 2519.124
6424.083, 2512.057
6426.012, 2523.828
6427.940, 2505.827
6429.868, 2476.308
6431.797, 2516.356
6433.726, 2451.745
6435.654, 2431.918
6437.582, 2492.457
6439.511, 2522.090
6441.439, 2461.433
6443.368, 2515.495
6445.296, 2501.766
6447.225, 2453.538
6449.153, 2437.581
6451.082, 2460.593
6453.010, 2474.633
6454.938, 2430.668
6456.867, 2458.413
6458.795, 2440.311
6460.724, 2386.205
6462.652, 2388.488
6464.581, 2426.182
6466.509, 2401.068
6468.438, 2387.610
6470.366, 2386.549
6472.295, 2354.079
6474.223, 2400.870
6476.151, 2409.422
6478.080, 2369.620
6480.009, 2392.165
6481.937, 2333.219
6483.865, 2345.586
6485.794, 2348.797
6487.723, 2359.667
6489.651, 2351.037
6491.579, 2337.131
6493.508, 2359.106
6495.437, 2387.648
6497.365, 2358.999
6499.293, 2322.995
6501.222, 2319.180
6503.150, 2334.264
6505.079, 2325.590
6507.007, 2289.372
6508.936, 2298.522
6510.864, 2330.368
6512.792, 2316.228
6514.721, 2293.728
6516.649, 2277.601
6518.578, 2289.728
6520.506, 2305.405
6522.435, 2272.935
6524.363, 2271.827
6526.292, 2263.824
6528.220, 2274.209
6530.148, 2263.228
6532.077, 2273.575
6534.006, 2294.580
6535.934, 2274.133
6537.862, 2225.745
6539.791, 2263.552
6541.720, 2250.984
6543.648, 2233.333
6545.576, 2227.207
6547.505, 2222.595
6549.434, 2212.501
6551.362, 2200.961
6553.290, 2190.689
6555.219, 2222.097
6557.147, 2207.902
6559.076, 2182.320
6561.004, 2205.895
6562.933, 2211.753
6564.861, 2163.428
6566.790, 2182.511
6568.718, 2217.425
6570.646, 2176.386
##END=



