##NAMES=Euchlorine
##RRUFFID=R070460
##IDEAL CHEMISTRY=KNaCu_3_O(SO_4_)_3_
##LOCALITY=Northern Breakthrough (North Breach), Great Fissure (Main Fracture) eruption, Tolbachik volcano, Kamchatka Oblast', Far-Eastern Region, Russia
##OWNER=RRUFF
##SOURCE=Michael Scott
##DESCRIPTION=Bright green massive crystalline coating
##STATUS=The identification of this mineral is confirmed by single-crystal X-ray diffraction and chemical analysis
##URL=https://www.rruff.net/odr/rruff_sample/R070460
##MEASURED CHEMISTRY=K_1.00_(Na_0.80_K_0.20_)Cu_3.00_O(S_1.00_O_4_)_3_
##DIFFRACTION SAMPLE DESCRIPTION=Single crystal, powder profile is calculated
##CELL PARAMETERS=a: 18.558 b: 9.394 c: 14.325 alpha: 90 beta: 113.87 gamma: 90 volume: 2284 crystal system: monoclinic
##FILETYPE=Raman RAW
##RAMAN WAVELENGTH=532

81.89767, 0.0000000E+00
83.82613, 0.0000000E+00
85.75460, 63.33575
87.68307, 61.87395
89.61153, 55.55413
91.54000, 51.21837
93.46847, 46.73268
95.39693, 45.40831
97.32540, 49.20536
99.25387, 59.83607
101.1823, 72.02999
103.1108, 83.67818
105.0393, 95.01655
106.9677, 109.9880
108.8962, 131.5694
110.8247, 155.4635
112.7531, 177.8096
114.6816, 189.3661
116.6101, 208.6199
118.5385, 242.5344
120.4670, 289.4506
122.3955, 338.8768
124.3239, 389.6502
126.2524, 442.0810
128.1809, 497.3781
130.1093, 552.7739
132.0378, 613.1338
133.9663, 680.4407
135.8947, 756.1127
137.8232, 833.6143
139.7517, 918.8304
141.6801, 1004.097
143.6086, 1076.713
145.5371, 1123.656
147.4655, 1168.391
149.3940, 1212.484
151.3225, 1221.916
153.2509, 1219.419
155.1794, 1197.798
157.1079, 1167.468
159.0363, 1145.817
160.9648, 1141.872
162.8933, 1138.224
164.8217, 1126.765
166.7502, 1107.504
168.6787, 1091.350
170.6071, 1081.438
172.5356, 1075.802
174.4641, 1069.372
176.3925, 1060.742
178.3210, 1052.868
180.2495, 1046.786
182.1779, 1043.065
184.1064, 1040.475
186.0349, 1037.632
187.9633, 1034.813
189.8918, 1034.382
191.8203, 1035.389
193.7487, 1039.990
195.6772, 1048.140
197.6057, 1057.846
199.5341, 1075.548
201.4626, 1103.339
203.3911, 1140.247
205.3195, 1181.003
207.2480, 1226.253
209.1765, 1274.582
211.1049, 1325.400
213.0334, 1378.095
214.9619, 1433.876
216.8903, 1494.504
218.8188, 1558.068
220.7473, 1621.369
222.6757, 1693.383
224.6042, 1755.382
226.5327, 1794.185
228.4611, 1808.941
230.3896, 1814.949
232.3181, 1817.483
234.2465, 1816.074
236.1750, 1799.609
238.1035, 1764.501
240.0319, 1721.725
241.9604, 1674.712
243.8889, 1623.835
245.8173, 1569.613
247.7458, 1513.241
249.6743, 1455.204
251.6027, 1391.601
253.5312, 1312.847
255.4597, 1239.464
257.3881, 1181.322
259.3166, 1142.129
261.2451, 1104.644
263.1735, 1069.406
265.1020, 1034.906
267.0305, 997.4329
268.9589, 951.7836
270.8874, 910.9725
272.8159, 879.7183
274.7443, 862.2282
276.6728, 845.4232
278.6013, 826.7195
280.5297, 809.6625
282.4582, 797.6699
284.3867, 793.0665
286.3151, 791.1463
288.2436, 792.3286
290.1721, 796.6669
292.1005, 797.9192
294.0290, 791.8169
295.9575, 785.3392
297.8859, 783.5769
299.8144, 790.8477
301.7429, 798.1216
303.6713, 806.5781
305.5998, 814.8051
307.5283, 818.8221
309.4567, 812.3653
311.3852, 806.5948
313.3137, 808.1260
315.2421, 823.2507
317.1706, 832.7604
319.0991, 830.8412
321.0275, 822.9873
322.9560, 818.0730
324.8845, 820.3438
326.8129, 822.1477
328.7414, 821.2098
330.6699, 817.3028
332.5983, 812.8040
334.5268, 807.4424
336.4553, 801.7209
338.3837, 796.1451
340.3122, 789.4365
342.2407, 784.4729
344.1691, 782.5883
346.0976, 783.3180
348.0261, 784.3698
349.9545, 786.3094
351.8830, 788.1850
353.8115, 788.5615
355.7399, 783.6495
357.6684, 784.7863
359.5969, 798.0473
361.5253, 817.6945
363.4538, 833.6349
365.3823, 840.4954
367.3107, 847.2939
369.2392, 855.9922
371.1677, 868.1394
373.0961, 881.9944
375.0246, 900.3622
376.9531, 917.6817
378.8815, 931.4372
380.8100, 938.6647
382.7385, 946.3257
384.6669, 954.4370
386.5954, 963.1868
388.5239, 971.1590
390.4523, 979.1593
392.3808, 984.6304
394.3093, 986.1102
396.2377, 979.8593
398.1662, 978.3735
400.0947, 985.2588
402.0231, 996.6664
403.9516, 1007.111
405.8801, 1015.069
407.8085, 1023.930
409.7370, 1035.744
411.6655, 1051.858
413.5939, 1067.355
415.5224, 1084.826
417.4509, 1097.131
419.3793, 1100.847
421.3078, 1088.264
423.2363, 1082.702
425.1647, 1087.027
427.0932, 1097.599
429.0217, 1108.525
430.9501, 1119.422
432.8786, 1128.122
434.8071, 1136.969
436.7355, 1148.092
438.6640, 1162.506
440.5925, 1181.333
442.5209, 1200.149
444.4494, 1215.898
446.3779, 1229.843
448.3063, 1240.947
450.2348, 1246.290
452.1633, 1245.973
454.0917, 1244.331
456.0202, 1241.249
457.9487, 1237.360
459.8771, 1237.776
461.8056, 1242.621
463.7341, 1244.972
465.6625, 1241.294
467.5910, 1235.532
469.5195, 1230.540
471.4479, 1227.833
473.3764, 1228.406
475.3049, 1230.203
477.2333, 1229.218
479.1618, 1229.151
481.0903, 1230.411
483.0187, 1237.200
484.9472, 1247.379
486.8757, 1258.217
488.8041, 1269.881
490.7326, 1285.075
492.6611, 1302.965
494.5895, 1321.715
496.5180, 1342.191
498.4465, 1361.255
500.3749, 1378.433
502.3034, 1393.659
504.2319, 1400.021
506.1603, 1393.857
508.0888, 1376.976
510.0173, 1359.444
511.9457, 1338.285
513.8742, 1312.687
515.8027, 1282.630
517.7311, 1253.675
519.6596, 1230.827
521.5881, 1215.189
523.5165, 1202.566
525.4450, 1188.211
527.3735, 1169.552
529.3019, 1145.335
531.2304, 1116.294
533.1589, 1088.575
535.0873, 1064.590
537.0158, 1042.925
538.9443, 1021.662
540.8727, 1001.065
542.8012, 975.8633
544.7297, 947.8788
546.6581, 919.4507
548.5866, 891.7623
550.5151, 862.2147
552.4435, 837.8303
554.3720, 825.2689
556.3005, 824.2221
558.2289, 825.7760
560.1574, 823.3064
562.0859, 820.5535
564.0143, 817.3283
565.9428, 813.1932
567.8713, 810.1063
569.7997, 814.8278
571.7282, 823.1289
573.6567, 830.7384
575.5851, 833.9498
577.5136, 837.9790
579.4421, 847.2073
581.3705, 861.0345
583.2990, 877.4263
585.2275, 893.5526
587.1559, 914.6735
589.0844, 941.7692
591.0129, 972.7056
592.9413, 1002.919
594.8698, 1033.668
596.7983, 1073.799
598.7267, 1130.950
600.6552, 1202.255
602.5837, 1273.036
604.5121, 1331.177
606.4406, 1381.034
608.3691, 1422.466
610.2975, 1459.611
612.2260, 1501.505
614.1545, 1544.158
616.0829, 1579.366
618.0114, 1604.878
619.9399, 1626.352
621.8683, 1645.701
623.7968, 1669.157
625.7253, 1693.133
627.6537, 1716.104
629.5822, 1733.631
631.5107, 1740.248
633.4391, 1727.929
635.3676, 1701.643
637.2961, 1668.903
639.2245, 1629.927
641.1530, 1581.611
643.0815, 1522.630
645.0099, 1460.285
646.9384, 1394.137
648.8669, 1334.302
650.7953, 1277.317
652.7238, 1219.322
654.6523, 1162.860
656.5807, 1116.620
658.5092, 1077.402
660.4377, 1049.444
662.3661, 1040.239
664.2946, 1039.347
666.2231, 1034.065
668.1516, 1021.661
670.0800, 1012.389
672.0085, 1011.487
673.9370, 1012.715
675.8654, 1009.130
677.7939, 995.9133
679.7224, 976.6623
681.6508, 952.6282
683.5793, 932.8732
685.5078, 907.5986
687.4362, 875.6201
689.3647, 842.8098
691.2932, 809.5530
693.2216, 778.1378
695.1501, 753.3596
697.0786, 737.4203
699.0070, 723.0900
700.9355, 709.2795
702.8640, 694.7421
704.7924, 682.0826
706.7209, 671.0452
708.6494, 662.2018
710.5778, 657.1821
712.5063, 655.6666
714.4348, 652.0471
716.3632, 641.1011
718.2917, 630.9101
720.2202, 626.1277
722.1486, 631.8207
724.0771, 634.8908
726.0056, 632.8769
727.9340, 627.3171
729.8625, 622.4556
731.7910, 618.8730
733.7194, 616.7705
735.6479, 616.9877
737.5764, 618.3538
739.5048, 618.3259
741.4333, 612.8749
743.3618, 609.4791
745.2902, 608.9370
747.2187, 611.6453
749.1472, 616.6441
751.0756, 624.5922
753.0041, 628.6448
754.9326, 625.1563
756.8610, 620.5403
758.7895, 618.7271
760.7180, 617.6479
762.6464, 617.9095
764.5749, 619.4659
766.5034, 623.5330
768.4318, 630.0765
770.3603, 640.9156
772.2888, 647.7049
774.2172, 647.1458
776.1457, 642.8434
778.0742, 639.0352
780.0026, 634.9663
781.9311, 632.8226
783.8596, 635.0331
785.7880, 638.3596
787.7165, 639.4991
789.6450, 637.8932
791.5734, 636.4754
793.5019, 633.9354
795.4304, 631.6323
797.3588, 633.9532
799.2873, 646.9439
801.2158, 655.6732
803.1442, 654.9871
805.0727, 649.6902
807.0012, 646.8865
808.9296, 646.7682
810.8581, 649.5481
812.7866, 656.7000
814.7150, 666.3560
816.6435, 674.2963
818.5720, 679.4109
820.5004, 683.1716
822.4289, 686.5081
824.3574, 687.9720
826.2858, 685.8841
828.2143, 678.7960
830.1428, 674.7252
832.0712, 677.8277
833.9997, 683.5667
835.9282, 686.7547
837.8566, 685.0621
839.7851, 684.9809
841.7136, 688.8096
843.6420, 693.6701
845.5705, 695.2640
847.4990, 691.4391
849.4274, 689.3328
851.3559, 692.4986
853.2844, 698.1673
855.2128, 702.1261
857.1413, 704.2126
859.0698, 705.2981
860.9982, 704.2886
862.9267, 703.0281
864.8552, 703.7620
866.7836, 704.8683
868.7121, 704.5228
870.6406, 701.4582
872.5690, 699.5493
874.4975, 699.6290
876.4260, 702.5477
878.3544, 706.7834
880.2829, 712.2227
882.2114, 716.2145
884.1398, 721.0309
886.0683, 727.2202
887.9968, 731.9517
889.9252, 732.9092
891.8537, 735.1890
893.7822, 740.4529
895.7106, 747.6069
897.6391, 753.2350
899.5676, 758.0085
901.4960, 761.9380
903.4245, 763.0534
905.3530, 760.2442
907.2814, 759.6793
909.2099, 763.5684
911.1384, 770.6867
913.0668, 776.9864
914.9953, 779.2087
916.9238, 781.3387
918.8522, 785.1851
920.7807, 791.2504
922.7092, 796.3336
924.6376, 799.3712
926.5661, 804.0901
928.4946, 812.9002
930.4230, 821.2681
932.3515, 822.7944
934.2800, 815.7811
936.2084, 814.6139
938.1369, 822.0057
940.0654, 834.0978
941.9938, 848.7871
943.9223, 867.9737
945.8507, 886.2832
947.7792, 900.1830
949.7076, 914.8214
951.6361, 934.8444
953.5646, 957.2310
955.4930, 984.0657
957.4215, 1018.826
959.3500, 1065.334
961.2784, 1123.963
963.2069, 1189.711
965.1354, 1260.430
967.0638, 1335.499
968.9923, 1416.275
970.9208, 1501.386
972.8492, 1600.975
974.7777, 1715.915
976.7062, 1837.342
978.6346, 1977.570
980.5631, 2145.803
982.4916, 2346.802
984.4200, 2566.031
986.3485, 2787.555
988.2770, 3036.135
990.2054, 3331.170
992.1339, 3660.282
994.0624, 4003.054
995.9908, 4344.856
997.9193, 4665.973
999.8478, 4971.041
1001.776, 5251.243
1003.705, 5465.604
1005.633, 5617.074
1007.562, 5724.498
1009.490, 5783.778
1011.419, 5786.113
1013.347, 5723.701
1015.276, 5589.284
1017.204, 5401.477
1019.132, 5147.659
1021.061, 4854.234
1022.989, 4561.102
1024.918, 4291.248
1026.846, 4025.106
1028.775, 3749.968
1030.703, 3495.452
1032.632, 3278.207
1034.560, 3089.353
1036.489, 2953.661
1038.417, 2874.203
1040.346, 2820.322
1042.274, 2793.737
1044.203, 2808.177
1046.131, 2846.063
1048.059, 2901.295
1049.988, 2943.199
1051.916, 2961.516
1053.845, 2958.069
1055.773, 2932.961
1057.702, 2880.554
1059.630, 2815.028
1061.559, 2734.905
1063.487, 2636.421
1065.416, 2522.829
1067.344, 2394.865
1069.273, 2272.968
1071.201, 2148.858
1073.130, 2029.196
1075.058, 1917.497
1076.986, 1811.173
1078.915, 1714.821
1080.843, 1641.408
1082.772, 1578.574
1084.700, 1518.894
1086.629, 1461.976
1088.557, 1408.448
1090.486, 1360.411
1092.414, 1321.302
1094.343, 1287.123
1096.271, 1256.923
1098.200, 1231.087
1100.128, 1209.076
1102.057, 1194.148
1103.985, 1183.000
1105.913, 1174.084
1107.842, 1177.185
1109.770, 1198.485
1111.699, 1226.085
1113.627, 1244.060
1115.556, 1256.011
1117.484, 1274.774
1119.413, 1304.456
1121.341, 1333.014
1123.270, 1353.015
1125.198, 1366.765
1127.127, 1382.151
1129.055, 1397.870
1130.984, 1400.490
1132.912, 1381.821
1134.840, 1362.642
1136.769, 1348.816
1138.697, 1335.118
1140.626, 1316.368
1142.554, 1291.447
1144.483, 1266.891
1146.411, 1239.446
1148.340, 1221.830
1150.268, 1216.818
1152.197, 1224.119
1154.125, 1237.103
1156.054, 1261.917
1157.982, 1286.727
1159.911, 1311.248
1161.839, 1332.630
1163.767, 1342.166
1165.696, 1337.940
1167.624, 1325.355
1169.553, 1301.166
1171.481, 1267.987
1173.410, 1235.993
1175.338, 1207.698
1177.267, 1184.408
1179.195, 1162.081
1181.124, 1143.648
1183.052, 1134.584
1184.981, 1136.574
1186.909, 1149.078
1188.838, 1172.552
1190.766, 1202.879
1192.694, 1242.312
1194.623, 1289.807
1196.551, 1341.752
1198.480, 1397.786
1200.408, 1458.859
1202.337, 1525.661
1204.265, 1598.484
1206.194, 1674.946
1208.122, 1750.264
1210.051, 1818.525
1211.979, 1883.701
1213.908, 1936.403
1215.836, 1977.576
1217.765, 2000.686
1219.693, 1995.605
1221.621, 1959.602
1223.550, 1908.603
1225.478, 1841.461
1227.407, 1762.229
1229.335, 1668.305
1231.264, 1561.410
1233.192, 1471.111
1235.121, 1401.719
1237.049, 1342.968
1238.978, 1291.638
1240.906, 1251.532
1242.835, 1230.660
1244.763, 1231.854
1246.692, 1244.052
1248.620, 1275.701
1250.548, 1309.846
1252.477, 1339.425
1254.405, 1363.517
1256.334, 1379.363
1258.262, 1388.021
1260.191, 1385.178
1262.119, 1368.495
1264.048, 1339.692
1265.976, 1297.633
1267.905, 1240.418
1269.833, 1181.214
1271.762, 1109.629
1273.690, 1048.320
1275.619, 1009.099
1277.547, 988.7167
1279.475, 970.3178
1281.404, 954.4023
1283.332, 937.9237
1285.261, 917.3147
1287.189, 899.5117
1289.118, 889.7881
1291.046, 886.8764
1292.975, 885.3700
1294.903, 886.5665
1296.832, 887.9349
1298.760, 888.7695
1300.689, 888.6366
1302.617, 887.2366
1304.546, 884.7283
1306.474, 883.4795
1308.402, 886.5724
1310.331, 886.9383
1312.259, 879.0634
1314.188, 864.7899
1316.116, 857.5391
1318.045, 863.9730
1319.973, 867.9819
1321.902, 863.6315
1323.830, 855.7394
1325.759, 852.1707
1327.687, 857.1375
1329.616, 857.2594
1331.544, 846.2050
1333.473, 837.8882
1335.401, 837.4348
1337.329, 841.3015
1339.258, 845.3584
1341.186, 849.8629
1343.115, 851.6075
1345.043, 847.0620
1346.972, 843.5177
1348.900, 847.2742
1350.829, 853.4803
1352.757, 851.8262
1354.686, 841.0968
1356.614, 833.8747
1358.543, 833.4467
1360.471, 836.6188
1362.400, 844.4294
1364.328, 853.6847
1366.256, 856.5969
1368.185, 852.9922
1370.113, 848.3728
1372.042, 839.2433
1373.970, 832.2153
1375.899, 836.1778
1377.827, 852.1285
1379.756, 859.4076
1381.684, 855.0171
1383.613, 849.8994
1385.541, 842.9673
1387.470, 836.9760
1389.398, 838.3082
1391.327, 849.6401
1393.255, 854.2360
1395.183, 848.1829
1397.112, 843.1839
1399.040, 843.9173
1400.969, 845.0903
1402.897, 841.5421
1404.826, 835.8652
1406.754, 833.8370
1408.683, 841.0650
1410.611, 847.8003
1412.540, 847.5456
1414.468, 840.4512
1416.397, 829.8909
1418.325, 818.0417
1420.254, 814.3065
1422.182, 822.3627
1424.110, 830.7364
1426.039, 835.2448
1427.967, 837.9472
1429.896, 840.0191
1431.824, 839.9764
1433.753, 841.8961
1435.681, 847.6359
1437.610, 853.1872
1439.538, 856.9285
1441.467, 859.9141
1443.395, 863.4280
1445.324, 868.3642
1447.252, 870.9972
1449.181, 868.5667
1451.109, 865.2859
1453.037, 864.4386
1454.966, 865.5150
1456.894, 864.2118
1458.823, 857.9941
1460.751, 859.0241
1462.680, 873.8740
1464.608, 885.1825
1466.537, 878.1246
1468.465, 858.1806
1470.394, 850.1349
1472.322, 860.3068
1474.251, 869.0013
1476.179, 867.6696
1478.108, 867.6478
1480.036, 879.8156
1481.964, 898.4978
1483.893, 905.6532
1485.821, 898.8014
1487.750, 893.6618
1489.678, 895.8188
1491.607, 898.2802
1493.535, 894.1858
1495.464, 886.6512
1497.392, 883.8536
1499.321, 886.8297
1501.249, 890.0296
1503.178, 894.2707
1505.106, 899.1161
1507.035, 901.6410
1508.963, 902.0309
1510.891, 903.9391
1512.820, 909.5833
1514.748, 915.4881
1516.677, 921.1216
1518.605, 924.5185
1520.534, 922.2133
1522.462, 916.8872
1524.391, 913.2791
1526.319, 910.9471
1528.248, 912.2800
1530.176, 925.1115
1532.105, 933.4790
1534.033, 926.5353
1535.962, 915.7105
1537.890, 916.9861
1539.818, 933.5248
1541.747, 943.9992
1543.675, 943.5823
1545.604, 943.0535
1547.532, 943.4139
1549.461, 945.0795
1551.389, 948.6180
1553.318, 953.6303
1555.246, 957.4895
1557.175, 961.9464
1559.103, 964.0297
1561.032, 960.8616
1562.960, 956.9415
1564.889, 954.7130
1566.817, 954.0275
1568.745, 956.7092
1570.674, 967.7921
1572.602, 975.0268
1574.531, 973.6267
1576.459, 970.7258
1578.388, 971.4979
1580.316, 973.5720
1582.245, 971.4114
1584.173, 962.9456
1586.102, 958.0831
1588.030, 958.3525
1589.959, 960.6849
1591.887, 965.1586
1593.816, 969.6382
1595.744, 971.2717
1597.672, 969.8051
1599.601, 969.4665
1601.529, 971.4142
1603.458, 973.4041
1605.386, 974.9121
1607.315, 976.4976
1609.243, 978.3491
1611.172, 980.9635
1613.100, 985.7236
1615.029, 993.4185
1616.957, 998.6310
1618.886, 998.6879
1620.814, 997.9351
1622.743, 996.5797
1624.671, 995.9890
1626.599, 998.9998
1628.528, 1005.689
1630.456, 1012.393
1632.385, 1020.616
1634.313, 1025.693
1636.242, 1024.844
1638.170, 1021.707
1640.099, 1016.431
1642.027, 1011.016
1643.956, 1013.344
1645.884, 1025.694
1647.813, 1035.213
1649.741, 1040.206
1651.670, 1041.678
1653.598, 1037.477
1655.526, 1031.646
1657.455, 1030.471
1659.383, 1033.542
1661.312, 1033.515
1663.240, 1026.542
1665.169, 1024.662
1667.097, 1037.888
1669.026, 1050.379
1670.954, 1045.622
1672.883, 1032.871
1674.811, 1037.548
1676.740, 1062.316
1678.668, 1080.702
1680.597, 1090.128
1682.525, 1092.199
1684.453, 1081.785
1686.382, 1069.115
1688.310, 1065.217
1690.239, 1068.404
1692.167, 1069.493
1694.096, 1068.052
1696.024, 1065.225
1697.953, 1053.849
1699.881, 1049.389
1701.810, 1064.759
1703.738, 1088.042
1705.667, 1101.273
1707.595, 1104.946
1709.524, 1111.779
1711.452, 1126.305
1713.380, 1134.381
1715.309, 1127.183
1717.237, 1118.691
1719.166, 1118.939
1721.094, 1123.361
1723.023, 1120.307
1724.951, 1108.396
1726.880, 1109.413
1728.808, 1137.387
1730.737, 1156.465
1732.665, 1151.694
1734.594, 1141.505
1736.522, 1136.464
1738.451, 1136.362
1740.379, 1141.967
1742.307, 1155.043
1744.236, 1165.234
1746.164, 1176.859
1748.093, 1179.285
1750.021, 1160.492
1751.950, 1140.720
1753.878, 1137.047
1755.807, 1145.367
1757.735, 1152.234
1759.664, 1156.957
1761.592, 1162.165
1763.521, 1169.466
1765.449, 1175.019
1767.378, 1178.508
1769.306, 1179.397
1771.234, 1174.462
1773.163, 1166.596
1775.091, 1166.583
1777.020, 1179.212
1778.948, 1185.853
1780.877, 1178.005
1782.805, 1176.018
1784.734, 1192.236
1786.662, 1208.057
1788.591, 1204.904
1790.519, 1190.774
1792.448, 1190.982
1794.376, 1210.775
1796.305, 1221.323
1798.233, 1214.208
1800.161, 1210.511
1802.090, 1214.537
1804.018, 1223.390
1805.947, 1240.182
1807.875, 1258.854
1809.804, 1264.873
1811.732, 1257.644
1813.661, 1251.168
1815.589, 1244.787
1817.518, 1243.749
1819.446, 1252.261
1821.375, 1263.228
1823.303, 1275.561
1825.232, 1286.560
1827.160, 1290.849
1829.089, 1289.325
1831.017, 1290.129
1832.945, 1293.571
1834.874, 1299.302
1836.802, 1311.147
1838.731, 1318.639
1840.659, 1309.746
1842.588, 1299.302
1844.516, 1307.298
1846.445, 1327.044
1848.373, 1333.166
1850.302, 1322.341
1852.230, 1320.209
1854.159, 1339.919
1856.087, 1351.794
1858.016, 1336.142
1859.944, 1319.560
1861.872, 1323.549
1863.801, 1340.279
1865.729, 1353.901
1867.658, 1364.478
1869.586, 1370.861
1871.515, 1370.417
1873.443, 1370.066
1875.372, 1367.023
1877.300, 1368.205
1879.229, 1381.153
1881.157, 1396.808
1883.086, 1403.369
1885.014, 1402.678
1886.943, 1405.861
1888.871, 1411.798
1890.799, 1426.605
1892.728, 1462.191
1894.656, 1487.646
1896.585, 1487.874
1898.513, 1483.776
1900.442, 1488.021
1902.370, 1496.126
1904.299, 1501.073
1906.227, 1502.841
1908.156, 1501.100
1910.084, 1494.676
1912.013, 1490.660
1913.941, 1491.281
1915.870, 1493.014
1917.798, 1498.129
1919.726, 1500.280
1921.655, 1492.828
1923.583, 1479.327
1925.512, 1464.113
1927.440, 1447.436
1929.369, 1447.300
1931.297, 1475.239
1933.226, 1492.393
1935.154, 1483.609
1937.083, 1473.754
1939.011, 1469.497
1940.940, 1471.020
1942.868, 1481.363
1944.797, 1497.350
1946.725, 1509.905
1948.653, 1519.095
1950.582, 1525.880
1952.510, 1528.905
1954.439, 1532.325
1956.367, 1532.490
1958.296, 1537.718
1960.224, 1553.781
1962.153, 1572.898
1964.081, 1590.768
1966.010, 1605.670
1967.938, 1609.802
1969.867, 1604.125
1971.795, 1609.594
1973.724, 1630.305
1975.652, 1654.375
1977.580, 1686.508
1979.509, 1709.116
1981.437, 1701.521
1983.366, 1692.998
1985.294, 1711.336
1987.223, 1744.864
1989.151, 1770.629
1991.080, 1788.591
1993.008, 1802.825
1994.937, 1809.908
1996.865, 1820.905
1998.794, 1838.292
2000.722, 1856.672
2002.651, 1878.076
2004.579, 1896.398
2006.507, 1905.241
2008.436, 1910.165
2010.364, 1918.112
2012.293, 1929.421
2014.221, 1950.381
2016.150, 1984.252
2018.078, 1995.265
2020.007, 1969.318
2021.935, 1950.107
2023.864, 1952.810
2025.792, 1960.132
2027.721, 1968.278
2029.649, 1972.354
2031.578, 1965.417
2033.506, 1951.402
2035.434, 1938.854
2037.363, 1927.626
2039.291, 1918.513
2041.220, 1910.694
2043.148, 1906.766
2045.077, 1914.159
2047.005, 1915.483
2048.934, 1905.182
2050.862, 1890.344
2052.791, 1866.939
2054.719, 1847.348
2056.647, 1853.332
2058.576, 1876.059
2060.504, 1874.869
2062.433, 1849.493
2064.361, 1846.783
2066.290, 1878.313
2068.218, 1894.569
2070.147, 1875.620
2072.075, 1860.400
2074.004, 1871.228
2075.932, 1883.266
2077.861, 1874.048
2079.789, 1860.739
2081.718, 1869.444
2083.646, 1893.677
2085.574, 1906.756
2087.503, 1906.235
2089.431, 1908.445
2091.360, 1919.206
2093.288, 1918.762
2095.217, 1896.312
2097.145, 1878.167
2099.074, 1876.343
2101.002, 1876.195
2102.931, 1866.658
2104.859, 1857.361
2106.788, 1863.047
2108.716, 1875.381
2110.645, 1870.025
2112.573, 1848.020
2114.501, 1841.212
2116.430, 1855.155
2118.358, 1867.714
2120.287, 1878.498
2122.215, 1885.037
2124.144, 1888.621
2126.072, 1886.104
2128.001, 1871.543
2129.929, 1855.192
2131.858, 1842.035
2133.786, 1835.413
2135.715, 1846.700
2137.643, 1870.742
2139.572, 1881.924
2141.500, 1879.607
2143.428, 1864.747
2145.357, 1830.164
2147.285, 1811.735
2149.214, 1825.647
2151.142, 1841.624
2153.071, 1850.488
2154.999, 1858.323
2156.928, 1869.077
2158.856, 1880.364
2160.785, 1890.409
2162.713, 1898.994
2164.642, 1904.572
2166.570, 1907.472
2168.499, 1913.445
2170.427, 1923.038
2172.355, 1925.211
2174.284, 1916.218
2176.212, 1910.969
2178.141, 1910.689
2180.069, 1918.853
2181.998, 1948.066
2183.926, 1972.108
2185.855, 1974.015
2187.783, 1965.568
2189.712, 1950.983
2191.640, 1937.738
2193.569, 1945.609
2195.497, 1970.058
2197.426, 1975.503
2199.354, 1960.792
2201.282, 1954.579
2203.211, 1960.255
2205.139, 1966.758
2207.068, 1977.639
2208.996, 1975.890
2210.925, 1942.786
2212.853, 1915.567
2214.782, 1915.657
2216.710, 1922.003
2218.639, 1920.222
2220.567, 1914.326
2222.496, 1908.860
2224.424, 1903.113
2226.353, 1894.281
2228.281, 1882.565
2230.209, 1877.421
2232.138, 1879.324
2234.066, 1876.057
2235.995, 1865.621
2237.923, 1855.626
2239.852, 1850.226
2241.780, 1841.081
2243.709, 1822.904
2245.637, 1805.086
2247.566, 1785.445
2249.494, 1774.805
2251.423, 1793.729
2253.351, 1815.542
2255.280, 1801.153
2257.208, 1766.614
2259.136, 1750.685
2261.065, 1749.709
2262.993, 1746.737
2264.922, 1741.264
2266.850, 1732.471
2268.779, 1718.888
2270.707, 1708.755
2272.636, 1706.483
2274.564, 1702.287
2276.493, 1693.736
2278.421, 1684.981
2280.350, 1678.610
2282.278, 1670.845
2284.207, 1654.586
2286.135, 1641.340
2288.063, 1645.622
2289.992, 1654.650
2291.920, 1649.865
2293.849, 1637.153
2295.777, 1630.394
2297.706, 1629.213
2299.634, 1632.869
2301.563, 1642.792
2303.491, 1647.925
2305.420, 1648.794
2307.348, 1642.535
2309.277, 1625.678
2311.205, 1612.557
2313.134, 1607.832
2315.062, 1603.969
2316.990, 1598.297
2318.919, 1593.267
2320.847, 1589.864
2322.776, 1587.922
2324.704, 1590.721
2326.633, 1591.745
2328.561, 1577.672
2330.490, 1559.748
2332.418, 1562.093
2334.347, 1578.287
2336.275, 1584.467
2338.204, 1582.045
2340.132, 1582.324
2342.061, 1585.964
2343.989, 1587.828
2345.917, 1589.701
2347.846, 1583.188
2349.774, 1556.855
2351.703, 1541.004
2353.631, 1542.119
2355.560, 1547.414
2357.488, 1559.273
2359.417, 1566.096
2361.345, 1560.533
2363.274, 1551.338
2365.202, 1539.495
2367.131, 1531.190
2369.059, 1536.743
2370.988, 1545.619
2372.916, 1540.996
2374.844, 1530.918
2376.773, 1534.488
2378.701, 1548.136
2380.630, 1554.554
2382.558, 1554.536
2384.487, 1555.563
2386.415, 1557.701
2388.344, 1553.907
2390.272, 1541.427
2392.201, 1532.044
2394.129, 1528.469
2396.058, 1524.961
2397.986, 1523.949
2399.915, 1517.850
2401.843, 1499.620
2403.771, 1487.761
2405.700, 1490.761
2407.628, 1497.865
2409.557, 1504.635
2411.485, 1512.862
2413.414, 1527.659
2415.342, 1540.248
2417.271, 1539.886
2419.199, 1534.619
2421.128, 1532.973
2423.056, 1534.661
2424.985, 1542.113
2426.913, 1551.541
2428.842, 1550.963
2430.770, 1543.291
2432.698, 1543.089
2434.627, 1550.423
2436.555, 1563.853
2438.484, 1587.669
2440.412, 1594.204
2442.341, 1580.296
2444.269, 1564.004
2446.198, 1542.675
2448.126, 1541.455
2450.055, 1576.808
2451.983, 1594.320
2453.912, 1560.483
2455.840, 1538.934
2457.769, 1555.018
2459.697, 1569.821
2461.625, 1568.324
2463.554, 1566.110
2465.482, 1570.226
2467.411, 1575.363
2469.339, 1578.661
2471.268, 1581.173
2473.196, 1585.873
2475.125, 1587.736
2477.053, 1574.999
2478.982, 1560.792
2480.910, 1568.854
2482.839, 1586.497
2484.767, 1587.753
2486.696, 1579.187
2488.624, 1577.504
2490.552, 1580.495
2492.481, 1576.330
2494.409, 1566.549
2496.338, 1568.043
2498.266, 1581.643
2500.195, 1591.109
2502.123, 1595.753
2504.052, 1605.458
2505.980, 1621.461
2507.909, 1628.929
2509.837, 1623.542
2511.766, 1622.399
2513.694, 1633.916
2515.623, 1637.540
2517.551, 1622.872
2519.479, 1620.033
2521.408, 1640.371
2523.336, 1653.692
2525.265, 1643.745
2527.193, 1645.747
2529.122, 1689.061
2531.050, 1721.973
2532.979, 1712.257
2534.907, 1704.345
2536.836, 1728.286
2538.764, 1746.195
2540.693, 1729.621
2542.621, 1710.799
2544.550, 1716.348
2546.478, 1722.494
2548.406, 1706.723
2550.335, 1686.892
2552.263, 1682.157
2554.192, 1682.133
2556.120, 1671.737
2558.049, 1660.017
2559.977, 1662.462
2561.906, 1669.905
2563.834, 1666.269
2565.763, 1657.648
2567.691, 1656.425
2569.620, 1660.944
2571.548, 1669.749
2573.477, 1680.121
2575.405, 1679.307
2577.333, 1670.676
2579.262, 1668.122
2581.190, 1670.765
2583.119, 1668.377
2585.047, 1661.557
2586.976, 1665.555
2588.904, 1682.093
2590.833, 1676.953
2592.761, 1650.328
2594.690, 1643.256
2596.618, 1658.405
2598.547, 1660.666
2600.475, 1643.637
2602.404, 1632.478
2604.332, 1626.626
2606.260, 1631.697
2608.189, 1651.653
2610.117, 1657.485
2612.046, 1642.728
2613.974, 1635.842
2615.903, 1643.261
2617.831, 1652.777
2619.760, 1663.213
2621.688, 1676.855
2623.617, 1696.666
2625.545, 1712.518
2627.474, 1722.166
2629.402, 1729.228
2631.331, 1731.019
2633.259, 1736.956
2635.188, 1753.391
2637.116, 1765.987
2639.044, 1772.994
2640.973, 1774.532
2642.901, 1767.124
2644.830, 1764.813
2646.758, 1777.071
2648.687, 1787.144
2650.615, 1786.856
2652.544, 1787.983
2654.472, 1788.670
2656.401, 1799.577
2658.329, 1834.164
2660.258, 1856.669
2662.186, 1846.026
2664.115, 1829.377
2666.043, 1813.970
2667.971, 1802.088
2669.900, 1800.364
2671.828, 1795.552
2673.757, 1776.448
2675.685, 1765.188
2677.614, 1784.281
2679.542, 1796.210
2681.471, 1773.921
2683.399, 1750.971
2685.328, 1742.551
2687.256, 1740.272
2689.185, 1745.629
2691.113, 1747.626
2693.042, 1735.286
2694.970, 1725.603
2696.898, 1735.688
2698.827, 1740.365
2700.755, 1714.830
2702.684, 1693.921
2704.612, 1698.680
2706.541, 1706.559
2708.469, 1706.437
2710.398, 1703.113
2712.326, 1697.015
2714.255, 1692.557
2716.183, 1697.060
2718.112, 1697.392
2720.040, 1677.458
2721.969, 1666.102
2723.897, 1692.760
2725.825, 1714.490
2727.754, 1695.895
2729.682, 1679.899
2731.611, 1699.807
2733.539, 1714.805
2735.468, 1694.994
2737.396, 1681.897
2739.325, 1714.935
2741.253, 1736.531
2743.182, 1702.278
2745.110, 1670.030
2747.039, 1663.413
2748.967, 1668.985
2750.896, 1692.647
2752.824, 1708.044
2754.752, 1694.414
2756.681, 1682.610
2758.609, 1690.421
2760.538, 1695.386
2762.466, 1689.915
2764.395, 1679.816
2766.323, 1658.502
2768.252, 1647.656
2770.180, 1665.756
2772.109, 1678.428
2774.037, 1672.203
2775.966, 1666.899
2777.894, 1670.790
2779.823, 1669.989
2781.751, 1648.183
2783.679, 1640.445
2785.608, 1667.932
2787.536, 1688.237
2789.465, 1694.212
2791.393, 1693.827
2793.322, 1684.261
2795.250, 1681.239
2797.179, 1694.533
2799.107, 1702.754
2801.036, 1704.500
2802.964, 1698.166
2804.893, 1680.606
2806.821, 1669.982
2808.750, 1673.147
2810.678, 1672.930
2812.606, 1662.409
2814.535, 1668.663
2816.463, 1695.989
2818.392, 1712.972
2820.320, 1715.376
2822.249, 1713.134
2824.177, 1704.820
2826.106, 1704.239
2828.034, 1712.508
2829.963, 1710.236
2831.891, 1697.622
2833.820, 1693.127
2835.748, 1697.635
2837.677, 1710.713
2839.605, 1731.082
2841.533, 1725.676
2843.462, 1701.127
2845.390, 1693.095
2847.319, 1699.226
2849.247, 1709.242
2851.176, 1720.387
2853.104, 1719.772
2855.033, 1712.982
2856.961, 1715.077
2858.890, 1721.976
2860.818, 1725.135
2862.747, 1727.755
2864.675, 1736.299
2866.604, 1746.896
2868.532, 1758.232
2870.460, 1764.016
2872.389, 1753.781
2874.317, 1739.778
2876.246, 1730.483
2878.174, 1727.900
2880.103, 1735.917
2882.031, 1749.010
2883.960, 1772.993
2885.888, 1787.602
2887.817, 1768.818
2889.745, 1756.267
2891.674, 1777.241
2893.602, 1790.366
2895.531, 1776.872
2897.459, 1764.988
2899.387, 1769.403
2901.316, 1767.292
2903.244, 1747.531
2905.173, 1741.274
2907.101, 1757.626
2909.030, 1766.736
2910.958, 1761.568
2912.887, 1754.098
2914.815, 1741.930
2916.744, 1743.421
2918.672, 1759.270
2920.601, 1771.633
2922.529, 1778.945
2924.458, 1780.094
2926.386, 1775.342
2928.314, 1767.720
2930.243, 1759.789
2932.171, 1765.767
2934.100, 1779.822
2936.028, 1784.610
2937.957, 1784.081
2939.885, 1786.624
2941.814, 1789.925
2943.742, 1789.137
2945.671, 1788.140
2947.599, 1790.051
2949.528, 1795.584
2951.456, 1810.759
2953.385, 1822.444
2955.313, 1817.998
2957.241, 1814.337
2959.170, 1823.294
2961.098, 1831.276
2963.027, 1829.510
2964.955, 1833.090
2966.884, 1852.182
2968.812, 1857.248
2970.741, 1825.439
2972.669, 1813.453
2974.598, 1832.825
2976.526, 1839.087
2978.455, 1827.233
2980.383, 1835.390
2982.312, 1870.388
2984.240, 1873.717
2986.168, 1847.112
2988.097, 1846.565
2990.025, 1864.724
2991.954, 1871.582
2993.882, 1872.013
2995.811, 1878.190
2997.739, 1887.937
2999.668, 1902.409
3001.596, 1912.255
3003.525, 1900.647
3005.453, 1887.773
3007.382, 1894.904
3009.310, 1903.900
3011.239, 1901.153
3013.167, 1903.194
3015.095, 1926.449
3017.024, 1941.593
3018.952, 1931.072
3020.881, 1928.094
3022.809, 1940.028
3024.738, 1943.411
3026.666, 1927.991
3028.595, 1933.579
3030.523, 1967.091
3032.452, 1973.092
3034.380, 1954.735
3036.309, 1953.266
3038.237, 1964.626
3040.166, 1962.938
3042.094, 1954.048
3044.022, 1952.592
3045.951, 1955.786
3047.879, 1957.141
3049.808, 1962.908
3051.736, 1989.366
3053.665, 2009.607
3055.593, 2001.946
3057.522, 1989.355
3059.450, 1975.112
3061.379, 1974.073
3063.307, 2000.537
3065.236, 2017.894
3067.164, 2017.933
3069.093, 2021.411
3071.021, 2034.525
3072.949, 2039.690
3074.878, 2036.581
3076.806, 2038.455
3078.735, 2044.711
3080.663, 2050.004
3082.592, 2054.054
3084.520, 2055.092
3086.449, 2054.651
3088.377, 2053.363
3090.306, 2053.982
3092.234, 2058.853
3094.163, 2067.155
3096.091, 2082.848
3098.020, 2093.888
3099.948, 2092.227
3101.876, 2092.231
3103.805, 2101.733
3105.733, 2106.342
3107.662, 2102.479
3109.590, 2115.120
3111.519, 2150.033
3113.447, 2151.731
3115.376, 2121.761
3117.304, 2116.261
3119.233, 2130.056
3121.161, 2153.452
3123.090, 2177.766
3125.018, 2187.490
3126.947, 2190.101
3128.875, 2188.929
3130.803, 2190.792
3132.732, 2201.729
3134.660, 2214.908
3136.589, 2233.689
3138.517, 2239.765
3140.446, 2224.027
3142.374, 2219.969
3144.303, 2241.387
3146.231, 2242.856
3148.160, 2225.556
3150.088, 2217.121
3152.017, 2219.735
3153.945, 2246.169
3155.874, 2280.311
3157.802, 2283.189
3159.730, 2277.296
3161.659, 2290.226
3163.587, 2301.146
3165.516, 2289.997
3167.444, 2280.731
3169.373, 2284.106
3171.301, 2284.697
3173.230, 2265.162
3175.158, 2277.209
3177.087, 2327.930
3179.015, 2345.063
3180.944, 2328.601
3182.872, 2330.905
3184.801, 2346.529
3186.729, 2356.937
3188.657, 2362.015
3190.586, 2359.833
3192.514, 2355.894
3194.443, 2353.161
3196.371, 2354.937
3198.300, 2365.249
3200.228, 2374.794
3202.157, 2381.300
3204.085, 2384.338
3206.014, 2382.326
3207.942, 2391.767
3209.871, 2412.649
3211.799, 2424.723
3213.728, 2429.657
3215.656, 2434.782
3217.584, 2441.099
3219.513, 2455.228
3221.441, 2464.938
3223.370, 2449.445
3225.298, 2440.313
3227.227, 2453.956
3229.155, 2471.324
3231.084, 2491.741
3233.012, 2500.552
3234.941, 2495.663
3236.869, 2498.176
3238.798, 2508.019
3240.726, 2501.678
3242.655, 2488.075
3244.583, 2495.562
3246.511, 2511.653
3248.440, 2517.881
3250.368, 2527.218
3252.297, 2555.827
3254.225, 2578.170
3256.154, 2585.513
3258.082, 2585.608
3260.011, 2577.313
3261.939, 2572.605
3263.868, 2572.148
3265.796, 2577.742
3267.725, 2586.413
3269.653, 2584.490
3271.582, 2579.433
3273.510, 2584.309
3275.438, 2591.681
3277.367, 2594.196
3279.295, 2600.253
3281.224, 2616.144
3283.152, 2627.832
3285.081, 2632.675
3287.009, 2630.311
3288.938, 2620.460
3290.866, 2636.744
3292.795, 2666.683
3294.723, 2658.611
3296.652, 2636.526
3298.580, 2634.293
3300.509, 2645.542
3302.437, 2682.439
3304.365, 2700.933
3306.294, 2657.626
3308.222, 2658.589
3310.151, 2725.296
3312.079, 2758.847
3314.008, 2752.625
3315.936, 2752.259
3317.865, 2761.064
3319.793, 2796.580
3321.722, 2836.781
3323.650, 2847.232
3325.579, 2864.519
3327.507, 2915.386
3329.436, 2961.517
3331.364, 2989.039
3333.292, 3007.724
3335.221, 3017.170
3337.149, 3041.552
3339.078, 3076.850
3341.006, 3100.615
3342.935, 3116.494
3344.863, 3131.872
3346.792, 3142.659
3348.720, 3150.704
3350.649, 3143.136
3352.577, 3108.438
3354.506, 3095.117
3356.434, 3124.602
3358.363, 3117.458
3360.291, 3076.299
3362.219, 3027.623
3364.148, 2975.766
3366.076, 2925.337
3368.005, 2879.983
3369.933, 2840.634
3371.862, 2810.972
3373.790, 2800.992
3375.719, 2786.253
3377.647, 2766.335
3379.576, 2711.800
3381.504, 2631.862
3383.433, 2632.417
3385.361, 2674.163
3387.290, 2675.308
3389.218, 2660.846
3391.146, 2640.132
3393.075, 2631.663
3395.003, 2649.528
3396.932, 2645.610
3398.860, 2596.950
3400.789, 2604.423
3402.717, 2655.874
3404.646, 2649.721
3406.574, 2619.099
3408.503, 2609.126
3410.431, 2621.670
3412.360, 2674.337
3414.288, 2710.302
3416.217, 2686.193
3418.145, 2695.104
3420.073, 2742.252
3422.002, 2774.246
3423.930, 2796.654
3425.859, 2843.507
3427.787, 2897.935
3429.716, 2943.383
3431.644, 2977.994
3433.573, 3002.504
3435.501, 3008.724
3437.430, 2993.194
3439.358, 2979.838
3441.287, 2970.161
3443.215, 2943.113
3445.144, 2905.669
3447.072, 2872.317
3449.000, 2837.783
3450.929, 2792.323
3452.857, 2753.744
3454.786, 2731.168
3456.714, 2703.685
3458.643, 2668.408
3460.571, 2630.168
3462.500, 2589.798
3464.428, 2544.317
3466.357, 2505.726
3468.285, 2494.496
3470.214, 2487.435
3472.142, 2475.911
3474.071, 2461.683
3475.999, 2444.450
3477.927, 2438.154
3479.856, 2439.501
3481.784, 2422.122
3483.713, 2401.115
3485.641, 2402.419
3487.570, 2404.626
3489.498, 2399.937
3491.427, 2377.874
3493.355, 2332.677
3495.284, 2322.089
3497.212, 2344.036
3499.141, 2337.921
3501.069, 2319.812
3502.998, 2312.553
3504.926, 2310.221
3506.854, 2314.439
3508.783, 2307.261
3510.711, 2279.522
3512.640, 2269.316
3514.568, 2275.999
3516.497, 2265.576
3518.425, 2247.225
3520.354, 2233.399
3522.282, 2223.157
3524.211, 2215.458
3526.139, 2211.685
3528.068, 2216.166
3529.996, 2212.269
3531.925, 2202.925
3533.853, 2208.361
3535.781, 2217.095
3537.710, 2206.385
3539.638, 2195.018
3541.567, 2190.014
3543.495, 2196.826
3545.424, 2219.351
3547.352, 2212.539
3549.281, 2184.006
3551.209, 2190.288
3553.138, 2203.919
3555.066, 2181.289
3556.995, 2163.542
3558.923, 2180.988
3560.852, 2186.487
3562.780, 2174.970
3564.708, 2159.008
3566.637, 2143.897
3568.565, 2153.906
3570.494, 2163.615
3572.422, 2140.201
3574.351, 2126.542
3576.279, 2138.231
3578.208, 2148.611
3580.136, 2154.233
3582.065, 2144.800
3583.993, 2131.900
3585.922, 2145.529
3587.850, 2155.576
3589.779, 2129.247
3591.707, 2117.904
3593.635, 2134.187
3595.564, 2137.053
3597.492, 2128.115
3599.421, 2127.724
3601.349, 2130.424
3603.278, 2127.890
3605.206, 2132.160
3607.135, 2154.330
3609.063, 2147.802
3610.992, 2104.429
3612.920, 2088.186
3614.849, 2089.476
3616.777, 2093.675
3618.706, 2094.459
3620.634, 2083.949
3622.563, 2081.069
3624.491, 2097.740
3626.419, 2088.265
3628.348, 2064.711
3630.276, 2078.899
3632.205, 2102.234
3634.133, 2102.816
3636.062, 2101.046
3637.990, 2105.178
3639.919, 2098.548
3641.847, 2082.133
3643.776, 2082.409
3645.704, 2087.461
3647.633, 2077.069
3649.561, 2067.225
3651.490, 2064.947
3653.418, 2070.943
3655.346, 2085.717
3657.275, 2094.830
3659.203, 2097.775
3661.132, 2087.820
3663.060, 2080.796
3664.989, 2088.956
3666.917, 2093.049
3668.846, 2087.608
3670.774, 2089.814
3672.703, 2093.741
3674.631, 2074.781
3676.560, 2056.507
3678.488, 2062.894
3680.417, 2063.554
3682.345, 2041.574
3684.273, 2050.230
3686.202, 2078.755
3688.130, 2081.969
3690.059, 2071.643
3691.987, 2051.083
3693.916, 2043.512
3695.844, 2068.203
3697.773, 2078.554
3699.701, 2076.042
3701.630, 2069.718
3703.558, 2060.472
3705.487, 2038.560
3707.415, 2036.001
3709.344, 2089.097
3711.272, 2092.796
3713.200, 2057.949
3715.129, 2057.605
3717.057, 2071.480
3718.986, 2076.929
3720.914, 2080.021
3722.843, 2083.958
3724.771, 2082.493
3726.700, 2075.938
3728.628, 2064.972
3730.557, 2054.544
3732.485, 2048.313
3734.414, 2050.468
3736.342, 2070.266
3738.271, 2078.524
3740.199, 2075.313
3742.127, 2058.550
3744.056, 2043.557
3745.984, 2049.261
3747.913, 2058.892
3749.841, 2072.168
3751.770, 2066.145
3753.698, 2049.746
3755.627, 2062.108
3757.555, 2080.231
3759.484, 2084.077
3761.412, 2079.912
3763.341, 2062.728
3765.269, 2064.517
3767.198, 2077.871
3769.126, 2086.094
3771.054, 2083.466
3772.983, 2055.691
3774.911, 2051.369
3776.840, 2089.586
3778.768, 2088.347
3780.697, 2068.730
3782.625, 2076.788
3784.554, 2089.973
3786.482, 2097.245
3788.411, 2097.753
3790.339, 2091.396
3792.268, 2086.139
3794.196, 2082.111
3796.125, 2073.379
3798.053, 2080.235
3799.981, 2116.577
3801.910, 2116.103
3803.838, 2081.053
3805.767, 2076.500
3807.695, 2083.473
3809.624, 2083.940
3811.552, 2087.320
3813.481, 2097.327
3815.409, 2086.548
3817.338, 2063.804
3819.266, 2057.688
3821.195, 2063.373
3823.123, 2085.675
3825.052, 2101.605
3826.980, 2108.193
3828.908, 2114.235
3830.837, 2112.291
3832.765, 2075.545
3834.694, 2054.666
3836.622, 2081.431
3838.551, 2088.342
3840.479, 2076.031
3842.408, 2068.824
3844.336, 2067.151
3846.265, 2067.907
3848.193, 2082.814
3850.122, 2114.944
3852.050, 2124.512
3853.979, 2116.010
3855.907, 2082.331
3857.835, 2068.682
3859.764, 2121.201
3861.692, 2112.459
3863.621, 2052.264
3865.549, 2051.350
3867.478, 2076.159
3869.406, 2104.461
3871.335, 2111.050
3873.263, 2081.472
3875.192, 2071.369
3877.120, 2075.891
3879.049, 2088.397
3880.977, 2097.811
3882.906, 2100.829
3884.834, 2089.078
3886.762, 2065.803
3888.691, 2062.996
3890.619, 2070.031
3892.548, 2083.043
3894.476, 2088.986
3896.405, 2086.123
3898.333, 2075.047
3900.262, 2064.787
3902.190, 2077.384
3904.119, 2090.087
3906.047, 2095.078
3907.976, 2089.762
3909.904, 2072.890
3911.833, 2066.930
3913.761, 2069.541
3915.689, 2071.975
3917.618, 2078.771
3919.546, 2089.432
3921.475, 2083.246
3923.403, 2073.324
3925.332, 2086.558
3927.260, 2098.337
3929.189, 2088.335
3931.117, 2091.413
3933.046, 2100.417
3934.974, 2082.413
3936.903, 2072.763
3938.831, 2080.697
3940.760, 2085.854
3942.688, 2088.590
3944.616, 2081.547
3946.545, 2071.236
3948.473, 2077.196
3950.402, 2083.777
3952.330, 2086.161
3954.259, 2063.658
3956.187, 2038.632
3958.116, 2047.490
3960.044, 2066.510
3961.973, 2084.800
3963.901, 2079.375
3965.830, 2064.872
3967.758, 2068.440
3969.687, 2072.760
3971.615, 2071.130
3973.543, 2082.528
3975.472, 2083.716
3977.400, 2077.843
3979.329, 2084.283
3981.257, 2085.391
3983.186, 2079.755
3985.114, 2074.700
3987.043, 2077.227
3988.971, 2073.275
3990.900, 2064.106
3992.828, 2077.455
3994.757, 2089.130
3996.685, 2089.648
3998.614, 2088.261
4000.542, 2084.805
4002.470, 2067.361
4004.399, 2045.952
4006.327, 2064.499
4008.256, 2085.895
4010.184, 2085.548
4012.113, 2093.667
4014.041, 2105.572
4015.970, 2092.872
4017.898, 2079.104
4019.827, 2108.839
4021.755, 2112.257
4023.684, 2069.129
4025.612, 2074.915
4027.541, 2088.112
4029.469, 2081.174
4031.397, 2081.765
4033.326, 2079.064
4035.254, 2076.826
4037.183, 2086.524
4039.111, 2085.696
4041.040, 2089.292
4042.968, 2097.923
4044.897, 2086.945
4046.825, 2077.397
4048.754, 2075.739
4050.682, 2072.494
4052.611, 2069.294
4054.539, 2059.565
4056.468, 2058.448
4058.396, 2072.807
4060.324, 2079.521
4062.253, 2079.507
4064.181, 2079.060
4066.110, 2073.810
4068.038, 2067.395
4069.967, 2061.903
4071.895, 2055.582
4073.824, 2064.035
4075.752, 2073.560
4077.681, 2066.127
4079.609, 2068.303
4081.538, 2081.352
4083.466, 2076.836
4085.395, 2071.144
4087.323, 2078.186
4089.251, 2079.791
4091.180, 2076.545
4093.108, 2069.623
4095.037, 2066.343
4096.965, 2073.427
4098.894, 2068.771
4100.822, 2055.310
4102.750, 2072.782
4104.679, 2088.075
4106.607, 2064.273
4108.536, 2061.696
4110.464, 2090.864
4112.393, 2086.745
4114.321, 2068.651
4116.250, 2047.096
4118.178, 2051.037
4120.107, 2096.285
4122.035, 2076.575
4123.964, 2040.420
4125.892, 2063.570
4127.821, 2083.770
4129.749, 2084.117
4131.678, 2081.079
4133.606, 2070.181
4135.535, 2029.556
4137.463, 2015.076
4139.392, 2045.694
4141.320, 2041.524
4143.249, 2024.604
4145.177, 2027.187
4147.105, 2031.755
4149.034, 2036.226
4150.962, 2055.609
4152.891, 2074.035
4154.819, 2071.090
4156.748, 2070.730
4158.676, 2071.280
4160.604, 2062.552
4162.533, 2057.594
4164.461, 2052.156
4166.390, 2049.675
4168.318, 2056.155
4170.247, 2063.091
4172.175, 2062.314
4174.104, 2035.258
4176.032, 2030.906
4177.961, 2057.125
4179.889, 2064.022
4181.818, 2064.556
4183.746, 2059.374
4185.675, 2053.478
4187.603, 2052.797
4189.532, 2065.868
4191.460, 2073.418
4193.389, 2038.116
4195.317, 2029.318
4197.246, 2074.215
4199.174, 2054.538
4201.103, 2018.138
4203.031, 2062.054
4204.959, 2088.140
4206.888, 2056.358
4208.816, 2042.153
4210.745, 2037.250
4212.673, 2048.752
4214.602, 2056.846
4216.530, 2045.925
4218.458, 2054.874
4220.387, 2065.308
4222.315, 2040.577
4224.244, 2023.557
4226.172, 2022.459
4228.101, 2032.218
4230.029, 2042.655
4231.958, 2032.232
4233.886, 2045.211
4235.815, 2083.976
4237.743, 2093.693
4239.672, 2090.828
4241.600, 2087.330
4243.529, 2088.778
4245.457, 2092.900
4247.386, 2077.030
4249.314, 2063.936
4251.243, 2073.708
4253.171, 2074.936
4255.100, 2068.331
4257.028, 2062.005
4258.957, 2057.999
4260.885, 2054.286
4262.813, 2078.891
4264.742, 2112.751
4266.670, 2111.841
4268.599, 2103.273
4270.527, 2096.520
4272.456, 2080.573
4274.384, 2065.753
4276.313, 2067.916
4278.241, 2077.966
4280.169, 2092.954
4282.098, 2084.969
4284.026, 2073.615
4285.955, 2085.806
4287.883, 2077.954
4289.812, 2052.592
4291.740, 2071.100
4293.669, 2094.228
4295.597, 2096.316
4297.526, 2081.092
4299.454, 2060.353
4301.383, 2071.846
4303.311, 2085.246
4305.240, 2085.606
4307.168, 2088.962
4309.097, 2090.723
4311.025, 2075.683
4312.954, 2075.819
4314.882, 2100.398
4316.811, 2085.210
4318.739, 2067.655
4320.667, 2100.181
4322.596, 2107.198
4324.524, 2085.036
4326.453, 2051.181
4328.381, 2034.741
4330.310, 2057.934
4332.238, 2087.310
4334.167, 2113.476
4336.095, 2121.256
4338.023, 2107.612
4339.952, 2068.010
4341.880, 2086.217
4343.809, 2111.730
4345.737, 2076.450
4347.666, 2071.181
4349.594, 2102.001
4351.523, 2103.177
4353.451, 2097.187
4355.380, 2097.830
4357.308, 2081.850
4359.237, 2064.336
4361.165, 2093.413
4363.094, 2110.262
4365.022, 2099.871
4366.951, 2101.697
4368.879, 2109.121
4370.808, 2110.767
4372.736, 2127.404
4374.665, 2152.432
4376.593, 2140.685
4378.521, 2128.201
4380.450, 2133.230
4382.378, 2161.601
4384.307, 2190.246
4386.235, 2164.960
4388.164, 2162.458
4390.092, 2199.065
4392.021, 2186.110
4393.949, 2171.506
4395.877, 2200.991
4397.806, 2207.550
4399.734, 2196.595
4401.663, 2200.262
4403.591, 2205.983
4405.520, 2210.314
4407.448, 2184.035
4409.377, 2153.551
4411.305, 2143.053
4413.234, 2159.857
4415.162, 2189.706
4417.091, 2178.985
4419.019, 2147.109
4420.948, 2100.546
4422.876, 2089.891
4424.805, 2095.396
4426.733, 2083.053
4428.662, 2090.050
4430.590, 2114.782
4432.519, 2107.598
4434.447, 2093.656
4436.375, 2088.702
4438.304, 2071.967
4440.232, 2055.973
4442.161, 2067.466
4444.089, 2064.955
4446.018, 2045.608
4447.946, 2079.168
4449.875, 2094.343
4451.803, 2048.652
4453.731, 2025.989
4455.660, 2029.588
4457.588, 2061.919
4459.517, 2095.976
4461.445, 2121.984
4463.374, 2112.434
4465.302, 2093.792
4467.231, 2079.265
4469.159, 2075.741
4471.088, 2081.395
4473.016, 2104.320
4474.945, 2098.911
4476.873, 2065.765
4478.802, 2080.009
4480.730, 2085.497
4482.659, 2053.610
4484.587, 2044.835
4486.516, 2056.994
4488.444, 2093.518
4490.373, 2108.711
4492.301, 2102.504
4494.229, 2096.919
4496.158, 2105.746
4498.086, 2145.686
4500.015, 2117.796
4501.943, 2073.376
4503.872, 2065.952
4505.800, 2080.271
4507.729, 2104.218
4509.657, 2105.904
4511.585, 2099.089
4513.514, 2089.308
4515.442, 2106.338
4517.371, 2121.565
4519.299, 2110.560
4521.228, 2108.395
4523.156, 2114.550
4525.085, 2123.689
4527.013, 2138.134
4528.942, 2153.272
4530.870, 2109.322
4532.799, 2071.823
4534.727, 2073.224
4536.656, 2089.236
4538.584, 2101.471
4540.513, 2084.818
4542.441, 2087.451
4544.370, 2104.862
4546.298, 2109.990
4548.227, 2103.878
4550.155, 2086.617
4552.083, 2078.050
4554.012, 2070.492
4555.940, 2057.918
4557.869, 2052.978
4559.797, 2055.545
4561.726, 2066.850
4563.654, 2076.466
4565.583, 2079.652
4567.511, 2055.996
4569.439, 2051.323
4571.368, 2084.795
4573.296, 2085.064
4575.225, 2073.904
4577.153, 2067.806
4579.082, 2056.671
4581.010, 2053.070
4582.939, 2095.385
4584.867, 2081.460
4586.796, 2025.399
4588.724, 2047.423
4590.653, 2067.165
4592.581, 2053.504
4594.510, 2034.553
4596.438, 2029.084
4598.367, 2057.842
4600.295, 2060.473
4602.224, 2047.996
4604.152, 2036.714
4606.081, 2043.056
4608.009, 2054.698
4609.938, 2013.637
4611.866, 2000.571
4613.794, 2038.072
4615.723, 2048.905
4617.651, 2040.198
4619.580, 2011.567
4621.508, 2023.773
4623.437, 2047.214
4625.365, 2050.017
4627.293, 2044.781
4629.222, 2035.851
4631.150, 2025.765
4633.079, 2025.022
4635.007, 2031.590
4636.936, 2016.053
4638.864, 2001.872
4640.793, 1997.732
4642.721, 2007.906
4644.650, 2030.188
4646.578, 2070.753
4648.507, 2051.352
4650.435, 2017.879
4652.364, 2048.171
4654.292, 2034.338
4656.221, 1994.982
4658.149, 2000.927
4660.078, 2009.552
4662.006, 2015.296
4663.935, 2042.817
4665.863, 2052.417
4667.792, 2027.226
4669.720, 2023.701
4671.648, 2029.044
4673.577, 2036.038
4675.505, 2042.569
4677.434, 2047.056
4679.362, 2051.095
4681.291, 2036.204
4683.219, 2018.881
4685.147, 2044.922
4687.076, 2032.621
4689.004, 1991.359
4690.933, 1994.287
4692.861, 2013.333
4694.790, 2032.876
4696.718, 1998.732
4698.647, 1975.216
4700.575, 1994.056
4702.504, 2018.900
4704.432, 2033.522
4706.361, 2027.083
4708.289, 2016.075
4710.218, 2002.099
4712.146, 1973.064
4714.075, 1999.302
4716.003, 2040.681
4717.932, 2022.113
4719.860, 2001.793
4721.789, 1991.745
4723.717, 2006.641
4725.646, 2011.447
4727.574, 2004.084
4729.502, 2017.654
4731.431, 2016.592
4733.359, 1991.785
4735.288, 1985.582
4737.216, 1982.906
4739.145, 1977.865
4741.073, 2006.231
4743.001, 2023.112
4744.930, 1988.619
4746.858, 1996.217
4748.787, 2011.592
4750.715, 2000.729
4752.644, 1998.597
4754.572, 2005.862
4756.501, 2029.045
4758.429, 2019.027
4760.358, 1994.500
4762.286, 1998.522
4764.215, 2000.873
4766.143, 2001.162
4768.072, 2019.102
4770.000, 2011.520
4771.929, 1981.829
4773.857, 1990.898
4775.786, 1987.880
4777.714, 1969.614
4779.643, 2004.068
4781.571, 2017.850
4783.500, 1984.155
4785.428, 1969.690
4787.356, 1966.798
4789.285, 1971.138
4791.213, 1961.965
4793.142, 1951.247
4795.070, 1947.131
4796.999, 1950.579
4798.927, 1946.641
4800.855, 1922.275
4802.784, 1940.710
4804.712, 1963.408
4806.641, 1943.080
4808.569, 1939.735
4810.498, 1951.187
4812.426, 1977.265
4814.355, 1971.685
4816.283, 1953.086
4818.212, 1950.247
4820.140, 1956.011
4822.069, 1966.048
4823.997, 1975.668
4825.926, 1989.673
4827.854, 1991.431
4829.783, 1931.138
4831.711, 1911.986
4833.640, 1924.920
4835.568, 1905.743
4837.497, 1914.900
4839.425, 1942.302
4841.354, 1937.260
4843.282, 1908.720
4845.210, 1877.991
4847.139, 1925.848
4849.067, 1949.094
4850.996, 1939.072
4852.924, 1940.121
4854.853, 1951.991
4856.781, 1969.998
4858.709, 1979.705
4860.638, 1953.548
4862.566, 1902.600
4864.495, 1906.401
4866.423, 1916.099
4868.352, 1917.735
4870.280, 1921.593
4872.209, 1916.746
4874.137, 1905.232
4876.066, 1923.220
4877.994, 1929.021
4879.923, 1913.330
4881.851, 1923.381
4883.780, 1917.849
4885.708, 1890.796
4887.637, 1911.445
4889.565, 1926.944
4891.494, 1921.872
4893.422, 1910.134
4895.351, 1905.081
4897.279, 1911.854
4899.208, 1953.179
4901.136, 1945.888
4903.064, 1882.773
4904.993, 1877.305
4906.921, 1888.060
4908.850, 1898.610
4910.778, 1890.086
4912.707, 1901.407
4914.635, 1932.222
4916.563, 1921.764
4918.492, 1908.916
4920.420, 1904.583
4922.349, 1897.857
4924.277, 1896.673
4926.206, 1901.126
4928.134, 1898.833
4930.063, 1901.372
4931.991, 1905.175
4933.920, 1870.057
4935.848, 1859.253
4937.777, 1878.250
4939.705, 1896.806
4941.634, 1897.236
4943.562, 1888.630
4945.491, 1912.665
4947.419, 1915.753
4949.348, 1895.337
4951.276, 1865.668
4953.205, 1849.764
4955.133, 1852.081
4957.062, 1887.119
4958.990, 1886.356
4960.918, 1864.413
4962.847, 1864.068
4964.775, 1857.097
4966.704, 1851.871
4968.632, 1869.251
4970.561, 1875.616
4972.489, 1870.314
4974.417, 1845.993
4976.346, 1873.309
4978.274, 1896.180
4980.203, 1850.665
4982.131, 1849.449
4984.060, 1870.390
4985.988, 1891.210
4987.917, 1876.025
4989.845, 1848.914
4991.774, 1825.251
4993.702, 1817.892
4995.631, 1836.836
4997.559, 1880.327
4999.488, 1846.384
5001.416, 1819.441
5003.345, 1835.220
5005.273, 1840.139
5007.202, 1839.772
5009.130, 1837.606
5011.059, 1844.438
5012.987, 1835.296
5014.916, 1816.026
5016.844, 1838.766
5018.772, 1842.164
5020.701, 1824.629
5022.629, 1806.015
5024.558, 1806.083
5026.486, 1822.866
5028.415, 1861.656
5030.343, 1851.964
5032.271, 1823.887
5034.200, 1815.655
5036.128, 1827.328
5038.057, 1833.020
5039.985, 1812.250
5041.914, 1811.519
5043.842, 1823.939
5045.771, 1845.397
5047.699, 1844.523
5049.628, 1829.104
5051.556, 1806.491
5053.485, 1810.998
5055.413, 1810.676
5057.342, 1799.271
5059.270, 1788.197
5061.199, 1781.253
5063.127, 1784.323
5065.056, 1818.085
5066.984, 1815.335
5068.913, 1777.630
5070.841, 1800.411
5072.770, 1812.747
5074.698, 1815.203
5076.626, 1778.180
5078.555, 1792.135
5080.483, 1785.661
5082.412, 1778.348
5084.340, 1799.478
5086.269, 1768.197
5088.197, 1788.876
5090.125, 1788.814
5092.054, 1798.244
5093.982, 1787.119
5095.911, 1782.342
5097.839, 1798.128
5099.768, 1802.528
5101.696, 1789.037
5103.625, 1799.070
5105.553, 1767.071
5107.482, 1771.957
5109.410, 1792.756
5111.339, 1780.298
5113.267, 1790.707
5115.196, 1792.407
5117.124, 1754.527
5119.053, 1785.481
5120.981, 1786.667
5122.910, 1757.286
5124.838, 1785.882
5126.767, 1760.716
5128.695, 1754.739
5130.624, 1763.204
5132.552, 1756.614
5134.480, 1773.760
5136.409, 1768.039
5138.337, 1760.276
5140.266, 1761.428
5142.194, 1737.316
5144.123, 1760.074
5146.051, 1750.816
5147.979, 1757.472
5149.908, 1727.062
5151.836, 1774.898
5153.765, 1757.453
5155.693, 1722.519
5157.622, 1766.313
5159.550, 1762.668
5161.479, 1741.498
5163.407, 1731.779
5165.336, 1766.599
5167.264, 1764.491
5169.193, 1712.616
5171.121, 1765.331
5173.050, 1763.039
5174.978, 1720.536
5176.907, 1745.539
5178.835, 1743.377
5180.764, 1738.000
5182.692, 1768.943
5184.621, 1739.271
5186.549, 1716.114
5188.478, 1733.692
5190.406, 1698.844
5192.334, 1702.192
5194.263, 1739.442
5196.191, 1725.988
5198.120, 1722.692
5200.048, 1723.443
5201.977, 1704.381
5203.905, 1718.005
5205.833, 1729.210
5207.762, 1717.275
5209.690, 1716.958
5211.619, 1704.154
5213.547, 1680.415
5215.476, 1666.991
5217.404, 1678.771
5219.333, 1699.536
5221.261, 1707.329
5223.190, 1707.571
5225.118, 1700.359
5227.047, 1686.777
5228.975, 1678.848
5230.904, 1673.752
5232.832, 1672.516
5234.761, 1686.808
5236.689, 1678.100
5238.618, 1660.861
5240.546, 1656.076
5242.475, 1668.677
5244.403, 1683.057
5246.332, 1689.530
5248.260, 1674.002
5250.188, 1663.792
5252.117, 1659.631
5254.045, 1649.635
5255.974, 1620.722
5257.902, 1612.517
5259.831, 1663.323
5261.759, 1677.426
5263.688, 1666.020
5265.616, 1642.848
5267.544, 1640.579
5269.473, 1615.687
5271.401, 1599.182
5273.330, 1663.415
5275.258, 1660.785
5277.187, 1647.469
5279.115, 1656.096
5281.044, 1627.208
5282.972, 1635.364
5284.901, 1664.332
5286.829, 1635.670
5288.758, 1631.314
5290.686, 1629.519
5292.615, 1602.172
5294.543, 1625.666
5296.472, 1645.566
5298.400, 1644.281
5300.329, 1625.821
5302.257, 1609.929
5304.186, 1611.001
5306.114, 1642.077
5308.042, 1614.055
5309.971, 1608.089
5311.899, 1644.050
5313.828, 1608.809
5315.756, 1617.813
5317.685, 1638.943
5319.613, 1600.344
5321.542, 1632.995
5323.470, 1647.057
5325.398, 1609.767
5327.327, 1623.762
5329.255, 1637.727
5331.184, 1634.813
5333.112, 1598.243
5335.041, 1583.571
5336.969, 1587.208
5338.898, 1600.449
5340.826, 1585.571
5342.755, 1567.676
5344.683, 1562.002
5346.612, 1586.449
5348.540, 1604.493
5350.469, 1600.075
5352.397, 1572.042
5354.326, 1586.758
5356.254, 1591.725
5358.183, 1580.097
5360.111, 1556.621
5362.040, 1586.068
5363.968, 1595.152
5365.896, 1556.992
5367.825, 1557.274
5369.753, 1563.436
5371.682, 1568.805
5373.610, 1576.424
5375.539, 1572.798
5377.467, 1560.391
5379.396, 1547.789
5381.324, 1573.081
5383.252, 1569.424
5385.181, 1562.355
5387.109, 1592.351
5389.038, 1564.323
5390.966, 1554.807
5392.895, 1577.357
5394.823, 1565.554
5396.752, 1560.309
5398.680, 1549.125
5400.609, 1518.585
5402.537, 1500.292
5404.466, 1513.858
5406.394, 1545.544
5408.323, 1562.090
5410.251, 1544.458
5412.180, 1528.185
5414.108, 1534.070
5416.037, 1535.025
5417.965, 1525.013
5419.894, 1513.825
5421.822, 1516.374
5423.750, 1524.526
5425.679, 1536.967
5427.607, 1547.831
5429.536, 1534.603
5431.464, 1527.838
5433.393, 1529.993
5435.321, 1540.072
5437.250, 1515.859
5439.178, 1500.246
5441.106, 1496.930
5443.035, 1487.023
5444.963, 1503.165
5446.892, 1507.113
5448.820, 1486.721
5450.749, 1487.422
5452.677, 1491.599
5454.606, 1493.907
5456.534, 1492.422
5458.463, 1483.669
5460.391, 1489.528
5462.320, 1497.349
5464.248, 1455.273
5466.177, 1472.899
5468.105, 1495.448
5470.034, 1492.433
5471.962, 1491.103
5473.891, 1477.876
5475.819, 1468.745
5477.748, 1479.792
5479.676, 1471.031
5481.604, 1461.875
5483.533, 1460.414
5485.461, 1473.312
5487.390, 1466.560
5489.318, 1475.414
5491.247, 1500.570
5493.175, 1475.128
5495.104, 1459.281
5497.032, 1455.049
5498.960, 1455.365
5500.889, 1444.811
5502.817, 1462.202
5504.746, 1482.604
5506.674, 1461.926
5508.603, 1413.585
5510.531, 1406.222
5512.460, 1438.654
5514.388, 1450.023
5516.317, 1465.717
5518.245, 1468.325
5520.174, 1452.477
5522.102, 1440.594
5524.031, 1430.309
5525.959, 1415.748
5527.888, 1395.874
5529.816, 1411.448
5531.745, 1421.780
5533.673, 1423.652
5535.602, 1426.831
5537.530, 1416.018
5539.458, 1411.101
5541.387, 1410.562
5543.315, 1399.592
5545.244, 1369.411
5547.172, 1368.674
5549.101, 1399.690
5551.029, 1407.092
5552.958, 1401.151
5554.886, 1395.902
5556.814, 1396.074
5558.743, 1376.316
5560.671, 1395.737
5562.600, 1408.428
5564.528, 1374.312
5566.457, 1382.633
5568.385, 1371.472
5570.314, 1356.624
5572.242, 1368.231
5574.171, 1363.941
5576.099, 1362.555
5578.028, 1364.301
5579.956, 1361.565
5581.885, 1379.896
5583.813, 1393.190
5585.742, 1390.429
5587.670, 1362.654
5589.599, 1364.704
5591.527, 1356.673
5593.456, 1339.984
5595.384, 1371.286
5597.313, 1385.499
5599.241, 1382.897
5601.169, 1366.623
5603.098, 1328.628
5605.026, 1349.463
5606.955, 1375.293
5608.883, 1371.435
5610.812, 1343.330
5612.740, 1354.441
5614.668, 1373.819
5616.597, 1374.288
5618.525, 1341.891
5620.454, 1305.764
5622.382, 1295.977
5624.311, 1324.680
5626.239, 1347.631
5628.168, 1342.104
5630.096, 1340.926
5632.025, 1366.253
5633.953, 1354.818
5635.882, 1319.481
5637.810, 1298.112
5639.739, 1315.419
5641.667, 1332.870
5643.596, 1329.182
5645.524, 1317.735
5647.453, 1312.186
5649.381, 1282.333
5651.310, 1299.199
5653.238, 1327.429
5655.167, 1321.789
5657.095, 1342.430
5659.023, 1333.710
5660.952, 1304.962
5662.880, 1280.055
5664.809, 1311.006
5666.737, 1305.161
5668.666, 1288.875
5670.594, 1297.684
5672.522, 1277.584
5674.451, 1277.027
5676.379, 1285.670
5678.308, 1287.273
5680.236, 1288.578
5682.165, 1288.196
5684.093, 1286.159
5686.022, 1282.593
5687.950, 1275.557
5689.879, 1261.131
5691.807, 1257.837
5693.736, 1275.346
5695.664, 1292.710
5697.593, 1273.311
5699.521, 1258.523
5701.450, 1268.741
5703.378, 1252.233
5705.307, 1250.154
5707.235, 1254.372
5709.164, 1253.372
5711.092, 1231.474
5713.021, 1254.820
5714.949, 1262.071
5716.877, 1239.899
5718.806, 1255.718
5720.734, 1224.000
5722.663, 1224.813
5724.591, 1259.849
5726.520, 1256.380
5728.448, 1218.006
5730.376, 1215.981
5732.305, 1237.946
5734.233, 1226.456
5736.162, 1212.079
5738.090, 1214.653
5740.019, 1229.257
5741.947, 1243.607
5743.876, 1252.733
5745.804, 1256.744
5747.733, 1235.104
5749.661, 1185.327
5751.590, 1208.545
5753.518, 1245.673
5755.447, 1242.798
5757.375, 1194.940
5759.304, 1216.020
5761.232, 1202.923
5763.161, 1189.737
5765.089, 1192.427
5767.018, 1192.396
5768.946, 1191.358
5770.875, 1165.478
5772.803, 1138.873
5774.731, 1167.309
5776.660, 1187.133
5778.588, 1202.382
5780.517, 1201.134
5782.445, 1174.308
5784.374, 1182.787
5786.302, 1180.100
5788.230, 1180.432
5790.159, 1193.189
5792.087, 1183.653
5794.016, 1191.227
5795.944, 1197.145
5797.873, 1191.378
5799.801, 1178.282
5801.730, 1184.444
5803.658, 1173.056
5805.587, 1156.750
5807.515, 1169.570
5809.444, 1157.485
5811.372, 1147.436
5813.301, 1156.165
5815.229, 1182.403
5817.158, 1154.986
5819.086, 1148.007
5821.015, 1150.660
5822.943, 1153.288
5824.872, 1161.585
5826.800, 1159.057
5828.729, 1154.843
5830.657, 1161.919
5832.585, 1188.432
5834.514, 1159.965
5836.442, 1141.758
5838.371, 1133.700
5840.299, 1128.536
5842.228, 1143.588
5844.156, 1138.362
5846.084, 1128.103
5848.013, 1119.998
5849.941, 1109.787
5851.870, 1152.655
5853.798, 1159.134
5855.727, 1143.878
5857.655, 1142.266
5859.584, 1138.548
5861.512, 1129.831
5863.441, 1126.482
5865.369, 1128.196
5867.298, 1115.677
5869.226, 1125.575
5871.155, 1143.637
5873.083, 1141.668
5875.012, 1099.219
5876.940, 1119.206
5878.869, 1110.415
5880.797, 1102.526
5882.726, 1110.592
5884.654, 1102.890
5886.583, 1121.158
5888.511, 1099.006
5890.439, 1072.247
5892.368, 1099.005
5894.296, 1097.411
5896.225, 1101.938
5898.153, 1096.421
5900.082, 1079.708
5902.010, 1077.059
5903.938, 1107.933
5905.867, 1099.734
5907.795, 1086.225
5909.724, 1108.546
5911.652, 1087.816
5913.581, 1078.427
5915.509, 1069.348
5917.438, 1069.884
5919.366, 1109.612
5921.295, 1113.886
5923.223, 1097.673
5925.152, 1077.314
5927.080, 1064.084
5929.009, 1072.730
5930.937, 1065.376
5932.866, 1053.954
5934.794, 1053.885
5936.723, 1073.152
5938.651, 1067.053
5940.580, 1064.420
5942.508, 1058.425
5944.437, 1053.442
5946.365, 1087.087
5948.293, 1065.518
5950.222, 1042.087
5952.150, 1041.714
5954.079, 1061.304
5956.007, 1046.893
5957.936, 1056.039
5959.864, 1071.257
5961.792, 1071.497
5963.721, 1042.509
5965.649, 1052.742
5967.578, 1029.797
5969.506, 1027.493
5971.435, 1057.109
5973.363, 1075.132
5975.292, 1053.649
5977.220, 1029.865
5979.149, 1028.561
5981.077, 1045.281
5983.006, 1034.883
5984.934, 1033.389
5986.863, 1022.511
5988.791, 1021.465
5990.720, 1044.345
5992.648, 1042.462
5994.577, 1031.498
5996.505, 1024.874
5998.434, 1024.337
6000.362, 1026.867
6002.291, 1034.661
6004.219, 1023.992
6006.147, 1017.588
6008.076, 1023.718
6010.004, 1034.968
6011.933, 1029.889
6013.861, 1015.716
6015.790, 1011.224
6017.718, 1013.303
6019.646, 1002.817
6021.575, 1014.110
6023.503, 1026.952
6025.432, 1019.818
6027.360, 1000.677
6029.289, 1004.612
6031.217, 1004.132
6033.146, 1010.750
6035.074, 1010.453
6037.003, 1002.707
6038.931, 1011.133
6040.860, 1039.220
6042.788, 1027.895
6044.717, 1012.210
6046.645, 1011.008
6048.574, 986.8730
6050.502, 989.8947
6052.431, 969.2297
6054.359, 975.2243
6056.288, 1012.860
6058.216, 984.5696
6060.145, 987.7357
6062.073, 994.7064
6064.001, 972.5701
6065.930, 936.5185
6067.858, 960.2565
6069.787, 963.2065
6071.715, 952.9929
6073.644, 951.6290
6075.572, 963.6915
6077.500, 970.8239
6079.429, 975.9355
6081.357, 959.1741
6083.286, 948.8373
6085.214, 953.9740
6087.143, 951.3787
6089.071, 936.1296
6091.000, 960.7081
6092.928, 983.5920
6094.857, 975.3355
6096.785, 942.6445
6098.714, 917.1926
6100.642, 927.5621
6102.571, 931.2565
6104.499, 917.5177
6106.428, 907.3689
6108.356, 924.3260
6110.285, 932.7819
6112.213, 945.8730
6114.142, 955.5243
6116.070, 952.6959
6117.999, 982.4729
6119.927, 953.1202
6121.855, 939.6890
6123.784, 933.9422
6125.712, 915.8240
6127.641, 927.4924
6129.569, 919.2435
6131.498, 955.3220
6133.426, 973.7452
6135.354, 945.6523
6137.283, 932.7343
6139.211, 909.9250
6141.140, 913.2908
6143.068, 928.0262
6144.997, 926.7502
6146.925, 900.8750
6148.854, 958.8359
6150.782, 910.4073
6152.711, 884.4754
6154.639, 897.2947
6156.568, 903.6378
6158.496, 907.0298
6160.425, 923.1562
6162.353, 910.8304
6164.282, 900.9224
6166.210, 909.2778
6168.139, 903.9745
6170.067, 907.0879
6171.996, 911.0471
6173.924, 900.6921
6175.853, 882.5558
6177.781, 875.9448
6179.709, 901.2685
6181.638, 894.7826
6183.566, 902.8895
6185.495, 918.8565
6187.423, 921.3395
6189.352, 907.1930
6191.280, 919.1386
6193.208, 924.9084
6195.137, 907.5922
6197.065, 882.6295
6198.994, 877.4719
6200.922, 890.0429
6202.851, 872.9750
6204.779, 886.8172
6206.708, 916.3140
6208.636, 926.2925
6210.565, 892.9238
6212.493, 900.1887
6214.422, 882.8329
6216.350, 884.7682
6218.279, 906.4749
6220.207, 918.6686
6222.136, 942.4119
6224.064, 934.1677
6225.993, 920.5343
6227.921, 916.0050
6229.850, 922.4747
6231.778, 934.5609
6233.707, 920.8820
6235.635, 926.9407
6237.563, 947.5776
6239.492, 965.3406
6241.420, 970.9675
6243.349, 970.0545
6245.277, 958.5054
6247.206, 948.2243
6249.134, 948.9774
6251.063, 966.8849
6252.991, 991.9962
6254.919, 979.4879
6256.848, 964.9842
6258.776, 974.5897
6260.705, 972.6728
6262.633, 973.0809
6264.562, 1012.944
6266.490, 1011.831
6268.419, 994.2068
6270.347, 984.2770
6272.276, 999.4031
6274.204, 1015.540
6276.133, 988.5959
6278.061, 1007.644
6279.990, 1017.014
6281.918, 1026.045
6283.847, 1020.977
6285.775, 1009.639
6287.704, 1034.961
6289.632, 1080.397
6291.561, 1067.070
6293.489, 1075.160
6295.417, 1084.397
6297.346, 1078.421
6299.274, 1104.927
6301.203, 1126.751
6303.131, 1112.270
6305.060, 1083.720
6306.988, 1092.279
6308.917, 1124.006
6310.845, 1094.827
6312.773, 1090.390
6314.702, 1127.485
6316.630, 1099.752
6318.559, 1070.417
6320.487, 1087.539
6322.416, 1099.665
6324.344, 1090.751
6326.273, 1073.824
6328.201, 1094.639
6330.130, 1110.688
6332.058, 1101.037
6333.987, 1098.367
6335.915, 1130.656
6337.844, 1109.824
6339.772, 1111.466
6341.701, 1122.940
6343.629, 1112.330
6345.558, 1076.649
6347.486, 1097.881
6349.415, 1082.144
6351.343, 1063.183
6353.271, 1054.407
6355.200, 1047.485
6357.128, 1035.028
6359.057, 1031.354
6360.985, 996.9049
6362.914, 945.5724
6364.842, 927.3658
6366.771, 933.9033
6368.699, 933.3215
6370.627, 913.0167
6372.556, 904.1121
6374.484, 914.3643
6376.413, 900.5229
6378.341, 891.4847
6380.270, 891.0576
6382.198, 877.8556
6384.127, 904.3030
6386.055, 862.6232
6387.984, 857.7043
6389.912, 859.8273
6391.841, 862.6461
6393.769, 877.3524
6395.698, 888.0898
6397.626, 877.2794
6399.555, 866.1907
6401.483, 844.9198
6403.412, 840.7598
6405.340, 866.3911
6407.269, 892.4268
6409.197, 831.4726
6411.125, 872.9399
6413.054, 864.6870
6414.982, 869.6130
6416.911, 897.3613
6418.839, 906.4747
6420.768, 881.8387
6422.696, 906.5855
6424.625, 893.4798
6426.553, 884.0991
6428.481, 882.0515
6430.410, 876.3030
6432.338, 864.7636
6434.267, 861.0746
6436.195, 838.0300
6438.124, 815.0304
6440.052, 817.4143
6441.981, 833.1738
6443.909, 848.7279
6445.838, 855.9934
6447.766, 831.3293
6449.695, 874.4446
6451.623, 839.9179
6453.552, 823.4067
6455.480, 815.2735
6457.409, 808.1976
6459.337, 831.0112
6461.266, 836.1047
6463.194, 823.4417
6465.123, 829.2335
6467.051, 823.7024
6468.979, 830.1585
6470.908, 851.9337
6472.836, 855.2687
6474.765, 827.9561
6476.693, 817.9199
6478.622, 821.8295
6480.550, 815.9632
6482.479, 815.2242
6484.407, 823.6893
6486.335, 826.8286
6488.264, 831.2297
6490.192, 812.8524
6492.121, 799.5306
6494.049, 817.5128
6495.978, 818.6941
6497.906, 795.1206
6499.835, 786.9364
6501.763, 819.4314
6503.692, 834.3446
6505.620, 814.8202
6507.549, 796.8571
6509.477, 800.9125
6511.406, 795.7341
6513.334, 768.4672
6515.263, 769.8571
6517.191, 790.7590
6519.120, 770.9714
6521.048, 771.8841
6522.977, 783.9515
6524.905, 781.9902
6526.833, 765.3395
6528.762, 752.4175
6530.690, 745.0847
6532.619, 721.4930
6534.547, 753.9579
6536.476, 774.6303
6538.404, 759.7397
6540.333, 743.9564
6542.261, 746.7950
6544.189, 730.9272
6546.118, 733.9252
6548.046, 742.6983
6549.975, 724.7415
6551.903, 737.8326
6553.832, 745.5868
6555.760, 722.8762
6557.689, 707.6898
6559.617, 705.9536
6561.546, 691.4865
6563.474, 696.8696
6565.403, 702.7488
6567.331, 687.3019
6569.260, 671.2038
6571.188, 657.8972
6573.117, 651.2855
6575.045, 673.4395
6576.974, 669.7605
6578.902, 657.4785
6580.831, 663.4979
6582.759, 660.0167
6584.688, 636.5148
6586.616, 623.2895
6588.544, 635.3563
6590.473, 634.9092
6592.401, 660.6919
6594.330, 637.7154
6596.258, 625.8349
6598.187, 620.8126
6600.115, 614.3544
6602.043, 603.8774
6603.972, 593.9976
6605.900, 605.2578
6607.829, 589.5795
6609.757, 597.7037
6611.686, 593.3651
6613.614, 599.3396
6615.543, 585.4223
6617.471, 561.3880
6619.400, 564.2350
6621.328, 593.0055
6623.257, 588.0025
6625.185, 571.3230
6627.114, 583.6129
6629.042, 587.6343
6630.971, 571.9539
##END=



