##NAMES=Eudialyte
##RRUFFID=R060035
##IDEAL CHEMISTRY=Na_15_Ca_6_Fe_3_Zr_3_Si(Si_25_O_73_)(O,OH,H_2_O)_3_(Cl,OH)_2_
##LOCALITY=Chibini, Kola Peninsula, Russia
##OWNER=RRUFF
##SOURCE=University of Arizona Mineral Museum
##DESCRIPTION=Deep pink coarsely crystalline
##STATUS=The identification of this mineral has been confirmed by X-ray diffraction and chemical analysis
##URL=https://www.rruff.net/odr/rruff_sample/R060035
##MEASURED CHEMISTRY=(Na_14.86_K_0.14_)Ca_6.00_(Fe_1.52_Mn_1.48_)(Zr_2.82_Ti_0.18_)(Si_0.93_Nb_0.07_)(Si_25.00_O_73_)((OH)_1.01_(H_2_O)_1.99_)(Cl_1.65_(OH)_0.35_)
##DIFFRACTION SAMPLE DESCRIPTION=Powder
##CELL PARAMETERS=a: 14.2337 b: 14.2337 c: 30.202 alpha: 90 beta: 90 gamma: 120 volume: 5299 crystal system: hexagonal
##FILETYPE=Raman RAW
##RAMAN WAVELENGTH=780

164.8032, 4107.568
166.7317, 4129.296
168.6602, 4144.146
170.5886, 4157.798
172.5171, 4167.920
174.4456, 4183.993
176.3740, 4211.490
178.3025, 4236.581
180.2310, 4251.234
182.1594, 4262.021
184.0879, 4275.797
186.0164, 4293.006
187.9448, 4311.670
189.8733, 4330.490
191.8018, 4352.638
193.7302, 4383.153
195.6587, 4414.195
197.5872, 4440.056
199.5156, 4460.743
201.4441, 4478.968
203.3726, 4496.708
205.3010, 4505.880
207.2295, 4500.523
209.1580, 4490.488
211.0864, 4479.760
213.0149, 4469.401
214.9434, 4461.802
216.8718, 4457.194
218.8003, 4454.731
220.7288, 4456.291
222.6572, 4456.890
224.5857, 4457.979
226.5142, 4454.218
228.4426, 4431.509
230.3711, 4394.696
232.2996, 4390.983
234.2280, 4430.652
236.1565, 4459.791
238.0850, 4452.702
240.0134, 4440.740
241.9419, 4434.910
243.8704, 4435.065
245.7988, 4446.488
247.7273, 4468.879
249.6558, 4480.013
251.5842, 4467.431
253.5127, 4460.132
255.4412, 4465.880
257.3696, 4480.511
259.2981, 4506.390
261.2266, 4536.309
263.1550, 4551.462
265.0835, 4548.508
267.0120, 4544.060
268.9404, 4534.688
270.8689, 4531.698
272.7974, 4545.058
274.7258, 4564.069
276.6543, 4572.810
278.5828, 4572.783
280.5112, 4576.995
282.4397, 4591.656
284.3682, 4601.552
286.2966, 4599.792
288.2251, 4597.219
290.1536, 4601.907
292.0820, 4611.803
294.0105, 4620.125
295.9390, 4626.104
297.8674, 4636.682
299.7959, 4668.432
301.7244, 4681.248
303.6528, 4650.285
305.5813, 4618.590
307.5098, 4617.421
309.4382, 4634.127
311.3667, 4643.779
313.2952, 4643.081
315.2236, 4644.382
317.1521, 4650.370
319.0806, 4655.274
321.0090, 4656.816
322.9375, 4656.403
324.8660, 4656.847
326.7944, 4656.068
328.7229, 4651.493
330.6514, 4645.491
332.5799, 4627.513
334.5083, 4583.578
336.4368, 4556.822
338.3653, 4578.000
340.2937, 4600.155
342.2222, 4590.681
344.1507, 4562.680
346.0791, 4543.146
348.0076, 4532.768
349.9361, 4524.551
351.8645, 4523.275
353.7930, 4511.281
355.7215, 4474.320
357.6499, 4435.279
359.5784, 4405.971
361.5069, 4385.764
363.4353, 4372.922
365.3638, 4366.079
367.2923, 4351.933
369.2207, 4327.215
371.1492, 4309.510
373.0777, 4312.518
375.0061, 4311.478
376.9346, 4292.711
378.8631, 4265.757
380.7915, 4240.972
382.7200, 4219.168
384.6485, 4202.646
386.5769, 4191.579
388.5054, 4177.396
390.4339, 4150.269
392.3623, 4135.089
394.2908, 4146.482
396.2193, 4163.541
398.1477, 4168.070
400.0762, 4166.679
402.0047, 4172.607
403.9331, 4184.695
405.8616, 4195.592
407.7901, 4202.555
409.7185, 4214.306
411.6470, 4232.446
413.5755, 4253.048
415.5039, 4274.155
417.4324, 4299.063
419.3609, 4327.928
421.2893, 4361.464
423.2178, 4407.836
425.1463, 4472.230
427.0747, 4532.481
429.0032, 4576.693
430.9317, 4630.333
432.8601, 4705.709
434.7886, 4788.396
436.7171, 4866.816
438.6455, 4942.911
440.5740, 5021.498
442.5025, 5102.515
444.4309, 5180.684
446.3594, 5249.592
448.2879, 5326.910
450.2163, 5418.168
452.1448, 5510.205
454.0733, 5606.594
456.0017, 5694.229
457.9302, 5762.060
459.8587, 5814.406
461.7871, 5859.631
463.7156, 5898.157
465.6441, 5924.151
467.5725, 5933.658
469.5010, 5938.962
471.4295, 5939.618
473.3579, 5942.363
475.2864, 5957.018
477.2149, 5966.318
479.1433, 5953.061
481.0718, 5923.309
483.0003, 5895.980
484.9287, 5871.620
486.8572, 5836.856
488.7857, 5789.889
490.7141, 5749.291
492.6426, 5721.318
494.5711, 5688.363
496.4995, 5639.371
498.4280, 5588.011
500.3565, 5547.251
502.2849, 5507.160
504.2134, 5449.167
506.1419, 5374.847
508.0703, 5299.794
509.9988, 5224.179
511.9273, 5141.421
513.8557, 5044.622
515.7842, 4957.673
517.7126, 4905.308
519.6411, 4844.252
521.5696, 4737.462
523.4980, 4626.895
525.4265, 4567.244
527.3550, 4540.125
529.2834, 4491.178
531.2119, 4424.938
533.1404, 4372.299
535.0688, 4337.779
536.9973, 4304.596
538.9258, 4269.536
540.8542, 4235.250
542.7827, 4201.583
544.7112, 4170.657
546.6396, 4141.391
548.5681, 4116.004
550.4966, 4098.349
552.4250, 4087.891
554.3535, 4090.452
556.2820, 4105.879
558.2104, 4090.414
560.1389, 4017.906
562.0674, 3970.762
563.9958, 3981.578
565.9243, 3979.230
567.8528, 3935.048
569.7813, 3884.148
571.7097, 3841.857
573.6382, 3811.677
575.5667, 3804.205
577.4951, 3807.101
579.4236, 3782.710
581.3521, 3727.102
583.2806, 3683.328
585.2090, 3656.456
587.1375, 3635.413
589.0660, 3619.250
590.9944, 3607.680
592.9229, 3603.376
594.8514, 3604.169
596.7798, 3605.713
598.7083, 3609.035
600.6368, 3620.861
602.5652, 3634.322
604.4937, 3634.563
606.4222, 3623.156
608.3506, 3615.759
610.2791, 3613.934
612.2076, 3608.557
614.1360, 3596.069
616.0645, 3592.840
617.9930, 3607.019
619.9214, 3619.468
621.8499, 3619.863
623.7784, 3619.173
625.7068, 3622.028
627.6353, 3627.042
629.5638, 3635.488
631.4922, 3647.352
633.4207, 3659.018
635.3492, 3670.853
637.2776, 3684.879
639.2061, 3701.025
641.1346, 3718.903
643.0630, 3740.248
644.9915, 3755.287
646.9200, 3758.030
648.8484, 3761.475
650.7769, 3767.915
652.7054, 3779.944
654.6339, 3801.000
656.5623, 3823.630
658.4908, 3845.571
660.4193, 3863.590
662.3477, 3864.661
664.2762, 3856.706
666.2047, 3868.557
668.1331, 3898.652
670.0616, 3924.704
671.9901, 3944.124
673.9185, 3962.523
675.8470, 3979.281
677.7755, 4000.507
679.7039, 4034.883
681.6324, 4061.135
683.5609, 4069.188
685.4893, 4073.521
687.4178, 4083.409
689.3463, 4092.012
691.2747, 4091.972
693.2032, 4086.531
695.1317, 4080.375
697.0601, 4073.542
698.9886, 4066.482
700.9171, 4058.569
702.8455, 4045.170
704.7740, 4025.213
706.7025, 4004.102
708.6309, 3982.049
710.5594, 3958.358
712.4879, 3936.526
714.4163, 3906.562
716.3448, 3857.301
718.2733, 3815.040
720.2017, 3797.571
722.1302, 3781.578
724.0587, 3748.014
725.9871, 3711.477
727.9156, 3688.422
729.8441, 3670.938
731.7725, 3643.783
733.7010, 3608.656
735.6295, 3574.221
737.5579, 3541.339
739.4864, 3516.462
741.4149, 3501.223
743.3433, 3484.612
745.2718, 3465.948
747.2003, 3445.350
749.1287, 3423.510
751.0572, 3401.285
752.9857, 3375.540
754.9141, 3355.192
756.8426, 3349.033
758.7711, 3339.961
760.6995, 3316.936
762.6280, 3295.139
764.5565, 3288.362
766.4849, 3280.432
768.4134, 3247.292
770.3419, 3208.934
772.2703, 3203.981
774.1988, 3219.633
776.1273, 3212.492
778.0557, 3187.458
779.9842, 3178.696
781.9127, 3184.894
783.8411, 3196.372
785.7696, 3213.711
787.6981, 3224.732
789.6265, 3227.447
791.5550, 3221.554
793.4835, 3202.482
795.4119, 3189.000
797.3404, 3189.099
799.2689, 3189.203
801.1973, 3183.256
803.1258, 3180.344
805.0543, 3185.927
806.9827, 3193.149
808.9112, 3195.112
810.8397, 3200.869
812.7681, 3223.704
814.6966, 3247.425
816.6251, 3252.214
818.5535, 3250.296
820.4820, 3258.940
822.4105, 3270.927
824.3389, 3270.412
826.2674, 3262.347
828.1959, 3266.085
830.1243, 3280.278
832.0528, 3284.569
833.9813, 3276.584
835.9097, 3280.596
837.8382, 3306.939
839.7667, 3313.946
841.6951, 3281.330
843.6236, 3268.528
845.5521, 3291.627
847.4805, 3301.089
849.4090, 3281.369
851.3375, 3268.302
853.2659, 3276.940
855.1944, 3279.127
857.1229, 3257.078
859.0513, 3241.712
860.9798, 3256.263
862.9083, 3267.423
864.8367, 3250.577
866.7652, 3231.025
868.6937, 3226.706
870.6221, 3224.614
872.5506, 3213.499
874.4791, 3199.539
876.4075, 3190.802
878.3360, 3182.988
880.2645, 3167.423
882.1929, 3150.335
884.1214, 3142.868
886.0499, 3143.082
887.9783, 3147.722
889.9068, 3154.746
891.8353, 3156.325
893.7637, 3154.807
895.6922, 3163.320
897.6207, 3179.043
899.5491, 3180.798
901.4776, 3169.931
903.4061, 3168.977
905.3345, 3179.046
907.2630, 3191.938
909.1915, 3207.130
911.1199, 3213.193
913.0484, 3207.159
914.9769, 3212.422
916.9053, 3236.910
918.8338, 3247.417
920.7623, 3234.808
922.6907, 3220.020
924.6192, 3201.225
926.5477, 3193.258
928.4761, 3208.089
930.4046, 3217.275
932.3331, 3213.368
934.2615, 3208.128
936.1900, 3200.987
938.1185, 3198.442
940.0469, 3209.121
941.9754, 3214.446
943.9039, 3197.031
945.8323, 3188.790
947.7608, 3215.919
949.6893, 3237.550
951.6177, 3221.671
953.5462, 3209.611
955.4747, 3232.130
957.4031, 3257.334
959.3316, 3267.758
961.2601, 3269.417
963.1885, 3254.351
965.1170, 3247.485
967.0455, 3276.906
968.9739, 3312.941
970.9024, 3332.803
972.8309, 3345.192
974.7593, 3355.556
976.6878, 3364.173
978.6163, 3364.083
980.5447, 3369.469
982.4732, 3405.092
984.4017, 3446.689
986.3301, 3463.335
988.2586, 3469.083
990.1871, 3478.220
992.1155, 3492.799
994.0440, 3521.172
995.9725, 3552.813
997.9009, 3571.370
999.8294, 3580.675
1001.758, 3587.014
1003.686, 3589.253
1005.615, 3579.240
1007.543, 3567.346
1009.472, 3581.276
1011.400, 3603.681
1013.329, 3595.977
1015.257, 3571.869
1017.186, 3557.427
1019.114, 3550.701
1021.043, 3551.344
1022.971, 3554.224
1024.899, 3546.247
1026.828, 3533.406
1028.756, 3528.941
1030.685, 3529.296
1032.613, 3529.733
1034.542, 3527.088
1036.470, 3512.128
1038.399, 3489.944
1040.327, 3466.742
1042.256, 3446.813
1044.184, 3442.774
1046.113, 3447.206
1048.041, 3446.812
1049.969, 3442.864
1051.898, 3436.955
1053.826, 3429.632
1055.755, 3420.262
1057.683, 3412.777
1059.612, 3412.778
1061.540, 3418.673
1063.469, 3433.636
1065.397, 3448.365
1067.326, 3442.930
1069.254, 3430.781
1071.183, 3433.253
1073.111, 3442.896
1075.040, 3450.408
1076.968, 3456.478
1078.897, 3460.195
1080.825, 3464.708
1082.754, 3476.028
1084.682, 3489.443
1086.610, 3500.482
1088.539, 3508.486
1090.467, 3511.020
1092.396, 3512.029
1094.324, 3514.822
1096.253, 3518.812
1098.181, 3523.637
1100.110, 3527.035
1102.038, 3529.535
1103.967, 3529.679
1105.895, 3515.191
1107.824, 3510.847
1109.752, 3550.172
1111.681, 3584.569
1113.609, 3573.004
1115.537, 3562.303
1117.466, 3578.109
1119.394, 3602.969
1121.323, 3640.477
1123.251, 3666.140
1125.180, 3654.375
1127.108, 3653.653
1129.037, 3690.192
1130.965, 3723.968
1132.894, 3742.540
1134.822, 3759.891
1136.751, 3776.356
1138.679, 3795.376
1140.608, 3821.464
1142.536, 3842.561
1144.464, 3852.676
1146.393, 3870.007
1148.321, 3897.209
1150.250, 3927.627
1152.178, 3963.424
1154.107, 3999.206
1156.035, 4033.019
1157.964, 4065.238
1159.892, 4094.841
1161.821, 4130.019
1163.749, 4173.883
1165.678, 4206.386
1167.606, 4225.822
1169.535, 4264.351
1171.463, 4321.134
1173.391, 4370.837
1175.320, 4416.989
1177.248, 4482.724
1179.177, 4558.874
1181.105, 4612.775
1183.034, 4656.392
1184.962, 4719.833
1186.891, 4793.695
1188.819, 4856.013
1190.748, 4923.120
1192.676, 5024.119
1194.605, 5131.120
1196.533, 5212.161
1198.462, 5289.823
1200.390, 5379.271
1202.318, 5480.296
1204.247, 5595.602
1206.175, 5715.754
1208.104, 5835.912
1210.032, 5959.583
1211.961, 6085.985
1213.889, 6216.802
1215.818, 6353.125
1217.746, 6504.829
1219.675, 6671.897
1221.603, 6850.344
1223.532, 7040.308
1225.460, 7236.521
1227.389, 7443.145
1229.317, 7675.895
1231.245, 7929.826
1233.174, 8180.595
1235.102, 8432.390
1237.031, 8705.791
1238.959, 8999.129
1240.888, 9316.067
1242.816, 9651.676
1244.745, 9980.907
1246.673, 10320.13
1248.602, 10708.14
1250.530, 11113.30
1252.459, 11494.09
1254.387, 11882.28
1256.316, 12304.52
1258.244, 12744.75
1260.172, 13197.42
1262.101, 13662.16
1264.029, 14142.73
1265.958, 14626.33
1267.886, 15101.90
1269.815, 15578.41
1271.743, 16065.80
1273.672, 16558.56
1275.600, 17064.03
1277.529, 17514.80
1279.457, 17898.93
1281.386, 18303.22
1283.314, 18734.25
1285.243, 19144.13
1287.171, 19522.92
1289.099, 19844.08
1291.028, 20121.53
1292.956, 20360.05
1294.885, 20558.01
1296.813, 20751.73
1298.742, 20919.35
1300.670, 21034.87
1302.599, 21087.53
1304.527, 21055.25
1306.456, 20992.96
1308.384, 20929.98
1310.313, 20835.70
1312.241, 20707.73
1314.170, 20545.04
1316.098, 20330.22
1318.026, 20110.91
1319.955, 19905.49
1321.883, 19683.22
1323.812, 19434.67
1325.740, 19139.64
1327.669, 18809.18
1329.597, 18505.41
1331.526, 18220.63
1333.454, 17913.02
1335.383, 17580.71
1337.311, 17230.25
1339.240, 16889.93
1341.168, 16569.95
1343.097, 16253.44
1345.025, 15943.96
1346.953, 15629.15
1348.882, 15315.91
1350.810, 15008.99
1352.739, 14684.76
1354.667, 14374.81
1356.596, 14096.08
1358.524, 13806.47
1360.453, 13511.49
1362.381, 13277.51
1364.310, 13079.28
1366.238, 12837.39
1368.167, 12593.83
1370.095, 12403.22
1372.024, 12237.44
1373.952, 12083.75
1375.880, 11949.48
1377.809, 11841.86
1379.737, 11734.78
1381.666, 11618.46
1383.594, 11512.34
1385.523, 11408.10
1387.451, 11343.64
1389.380, 11319.54
1391.308, 11332.95
1393.237, 11375.86
1395.165, 11403.63
1397.094, 11442.45
1399.022, 11532.90
1400.951, 11645.84
1402.879, 11752.49
1404.807, 11895.83
1406.736, 12094.04
1408.664, 12344.42
1410.593, 12661.48
1412.521, 13012.27
1414.450, 13371.09
1416.378, 13823.08
1418.307, 14370.47
1420.235, 15003.01
1422.164, 15738.25
1424.092, 16555.89
1426.021, 17450.68
1427.949, 18421.10
1429.878, 19477.53
1431.806, 20643.59
1433.734, 21895.26
1435.663, 23247.61
1437.591, 24635.49
1439.520, 26019.83
1441.448, 27444.73
1443.377, 28944.50
1445.305, 30349.18
1447.234, 31639.88
1449.162, 32949.77
1451.091, 34201.15
1453.019, 35176.42
1454.948, 35889.31
1456.876, 36368.79
1458.805, 36623.63
1460.733, 36665.95
1462.661, 36476.08
1464.590, 36000.64
1466.518, 35434.05
1468.447, 34821.99
1470.375, 34198.24
1472.304, 33564.84
1474.232, 32852.29
1476.161, 32116.00
1478.089, 31475.60
1480.018, 30857.00
1481.946, 30214.58
1483.875, 29589.06
1485.803, 28996.54
1487.732, 28444.48
1489.660, 27911.70
1491.589, 27370.94
1493.517, 26842.11
1495.445, 26293.83
1497.374, 25733.75
1499.302, 25208.38
1501.231, 24697.70
1503.159, 24177.89
1505.088, 23668.01
1507.016, 23158.44
1508.945, 22665.51
1510.873, 22211.85
1512.802, 21785.10
1514.730, 21394.41
1516.659, 21017.54
1518.587, 20637.56
1520.516, 20295.36
1522.444, 19980.76
1524.372, 19681.21
1526.301, 19403.00
1528.229, 19106.49
1530.158, 18799.67
1532.086, 18519.14
1534.015, 18273.35
1535.943, 18037.27
1537.872, 17777.58
1539.800, 17510.76
1541.729, 17310.89
1543.657, 17163.92
1545.586, 17000.12
1547.514, 16812.15
1549.443, 16601.37
1551.371, 16406.86
1553.299, 16250.31
1555.228, 16113.52
1557.156, 15982.74
1559.085, 15841.38
1561.013, 15722.35
1562.942, 15662.99
1564.870, 15613.72
1566.799, 15587.35
1568.727, 15588.55
1570.656, 15548.54
1572.584, 15515.94
1574.513, 15550.84
1576.441, 15599.95
1578.370, 15654.32
1580.298, 15712.07
1582.226, 15758.57
1584.155, 15829.14
1586.083, 15946.47
1588.012, 16073.16
1589.940, 16199.21
1591.869, 16346.09
1593.797, 16476.71
1595.726, 16590.58
1597.654, 16794.13
1599.583, 17059.96
1601.511, 17252.36
1603.440, 17406.14
1605.368, 17634.29
1607.297, 17903.63
1609.225, 18155.63
1611.153, 18431.87
1613.082, 18735.91
1615.010, 19010.92
1616.939, 19301.94
1618.867, 19595.24
1620.796, 19876.59
1622.724, 20234.39
1624.653, 20618.49
1626.581, 20971.29
1628.510, 21342.62
1630.438, 21730.45
1632.367, 22109.54
1634.295, 22491.64
1636.224, 22872.29
1638.152, 23262.97
1640.080, 23667.82
1642.009, 24064.85
1643.937, 24454.94
1645.866, 24831.34
1647.794, 25191.97
1649.723, 25524.68
1651.651, 25835.73
1653.580, 26156.62
1655.508, 26488.32
1657.437, 26813.93
1659.365, 27119.11
1661.294, 27399.74
1663.222, 27640.40
1665.151, 27851.35
1667.079, 28050.77
1669.007, 28226.74
1670.936, 28421.36
1672.864, 28630.22
1674.793, 28800.01
1676.721, 28912.06
1678.650, 28986.22
1680.578, 29057.69
1682.507, 29118.40
1684.435, 29149.68
1686.364, 29150.42
1688.292, 29137.12
1690.221, 29117.13
1692.149, 29086.13
1694.078, 28984.60
1696.006, 28806.49
1697.934, 28669.18
1699.863, 28561.15
1701.791, 28392.55
1703.720, 28180.79
1705.648, 27939.95
1707.577, 27671.88
1709.505, 27398.44
1711.434, 27101.99
1713.362, 26786.86
1715.291, 26443.88
1717.219, 26066.45
1719.148, 25697.32
1721.076, 25339.82
1723.005, 24974.44
1724.933, 24550.69
1726.861, 24091.42
1728.790, 23673.80
1730.718, 23255.56
1732.647, 22804.86
1734.575, 22345.42
1736.504, 21865.20
1738.432, 21406.40
1740.361, 20993.47
1742.289, 20583.17
1744.218, 20179.11
1746.146, 19820.73
1748.075, 19478.93
1750.003, 19135.80
1751.932, 18789.77
1753.860, 18440.05
1755.788, 18110.48
1757.717, 17807.61
1759.645, 17549.59
1761.574, 17315.79
1763.502, 17093.55
1765.431, 16908.55
1767.359, 16768.17
1769.288, 16610.65
1771.216, 16433.38
1773.145, 16293.21
1775.073, 16194.90
1777.002, 16134.94
1778.930, 16096.31
1780.859, 16091.22
1782.787, 16097.64
1784.715, 16096.56
1786.644, 16112.37
1788.572, 16133.69
1790.501, 16149.65
1792.429, 16223.21
1794.358, 16347.80
1796.286, 16443.74
1798.215, 16537.65
1800.143, 16664.73
1802.072, 16803.10
1804.000, 16942.54
1805.929, 17113.60
1807.857, 17329.45
1809.786, 17519.68
1811.714, 17698.25
1813.642, 17932.32
1815.571, 18167.79
1817.499, 18380.12
1819.428, 18617.45
1821.356, 18850.22
1823.285, 19059.78
1825.213, 19292.51
1827.142, 19543.90
1829.070, 19773.59
1830.999, 20005.22
1832.927, 20213.62
1834.856, 20386.37
1836.784, 20557.61
1838.713, 20693.55
1840.641, 20745.38
1842.569, 20802.20
1844.498, 20895.28
1846.426, 20933.66
1848.355, 20899.97
1850.283, 20808.99
1852.212, 20668.60
1854.140, 20492.80
1856.069, 20317.98
1857.997, 20146.91
1859.926, 19910.84
1861.854, 19645.01
1863.783, 19372.51
1865.711, 19037.12
1867.640, 18622.51
1869.568, 18214.34
1871.496, 17817.53
1873.425, 17355.70
1875.353, 16869.60
1877.282, 16461.49
1879.210, 16054.19
1881.139, 15558.79
1883.067, 15105.35
1884.996, 14732.14
1886.924, 14314.26
1888.853, 13876.02
1890.781, 13486.25
1892.710, 13110.04
1894.638, 12732.73
1896.567, 12376.01
1898.495, 12052.37
1900.423, 11748.39
1902.352, 11455.69
1904.280, 11174.48
1906.209, 10923.47
1908.137, 10696.25
1910.066, 10464.46
1911.994, 10236.51
1913.923, 10028.29
1915.851, 9849.026
1917.780, 9671.786
1919.708, 9506.396
1921.637, 9365.236
1923.565, 9233.930
1925.494, 9120.505
1927.422, 9028.356
1929.350, 8954.716
1931.279, 8881.023
1933.207, 8792.835
1935.136, 8724.099
1937.064, 8711.922
1938.993, 8688.653
1940.921, 8662.049
1942.850, 8670.490
1944.778, 8690.433
1946.707, 8726.370
1948.635, 8780.558
1950.564, 8831.147
1952.492, 8890.500
1954.421, 9005.266
1956.349, 9120.354
1958.277, 9239.138
1960.206, 9387.971
1962.134, 9567.349
1964.063, 9763.027
1965.991, 9984.843
1967.920, 10223.56
1969.848, 10458.73
1971.777, 10714.51
1973.705, 10975.67
1975.634, 11230.48
1977.562, 11507.59
1979.491, 11792.92
1981.419, 12047.26
1983.348, 12285.35
1985.276, 12524.43
1987.204, 12729.12
1989.133, 12955.27
1991.061, 13153.10
1992.990, 13248.75
1994.918, 13326.01
1996.847, 13402.98
1998.775, 13394.12
2000.704, 13297.45
2002.632, 13187.33
2004.561, 13051.50
2006.489, 12859.46
2008.418, 12595.37
2010.346, 12284.96
2012.275, 11957.27
2014.203, 11601.23
2016.131, 11204.86
2018.060, 10792.16
2019.988, 10381.03
2021.917, 9977.558
2023.845, 9564.495
2025.774, 9140.882
2027.702, 8731.020
2029.631, 8334.885
2031.559, 7949.460
2033.488, 7586.570
2035.416, 7253.471
2037.345, 6930.217
2039.273, 6608.718
2041.202, 6301.223
2043.130, 6028.223
2045.058, 5800.851
2046.987, 5590.684
2048.915, 5386.851
2050.844, 5205.620
2052.772, 5027.219
2054.701, 4844.038
2056.629, 4678.509
2058.558, 4547.840
2060.486, 4432.981
2062.415, 4317.362
2064.343, 4203.556
2066.272, 4110.206
2068.200, 4026.465
2070.129, 3931.903
2072.057, 3845.848
2073.986, 3770.137
2075.914, 3701.696
2077.843, 3645.727
2079.771, 3574.051
2081.699, 3509.535
2083.628, 3467.826
2085.556, 3409.583
2087.485, 3345.392
2089.413, 3313.593
2091.342, 3282.303
2093.270, 3232.684
2095.199, 3181.373
2097.127, 3127.492
2099.056, 3083.530
2100.984, 3054.735
2102.913, 3013.844
2104.841, 2973.516
2106.770, 2940.268
2108.698, 2904.923
2110.626, 2868.705
2112.555, 2830.024
2114.483, 2791.989
2116.412, 2753.231
2118.340, 2712.031
2120.269, 2675.308
2122.197, 2645.222
2124.126, 2628.517
2126.054, 2606.525
2127.983, 2575.937
2129.911, 2544.849
2131.840, 2512.005
2133.768, 2478.173
2135.697, 2445.603
2137.625, 2425.198
2139.553, 2406.728
2141.482, 2382.695
2143.410, 2357.512
2145.339, 2337.074
2147.267, 2322.853
2149.196, 2294.140
2151.124, 2261.931
2153.053, 2244.588
2154.981, 2226.286
2156.910, 2208.913
2158.838, 2183.519
2160.767, 2161.742
2162.695, 2159.173
2164.624, 2141.900
2166.552, 2112.547
2168.480, 2101.487
2170.409, 2092.063
2172.337, 2071.232
2174.266, 2045.507
2176.194, 2021.787
2178.123, 2010.940
2180.051, 2001.936
2181.980, 1991.391
2183.908, 1976.691
2185.837, 1961.799
2187.765, 1952.803
2189.694, 1937.983
2191.622, 1914.556
2193.551, 1901.274
2195.479, 1891.376
2197.407, 1877.861
2199.336, 1864.097
2201.264, 1852.849
2203.193, 1850.477
2205.121, 1848.694
2207.050, 1835.838
2208.978, 1812.765
2210.907, 1798.615
2212.835, 1795.751
2214.764, 1788.527
2216.692, 1788.297
2218.621, 1777.177
2220.549, 1759.600
2222.478, 1752.810
2224.406, 1741.549
2226.334, 1729.916
2228.263, 1729.259
2230.191, 1722.787
2232.120, 1708.150
2234.048, 1689.964
2235.977, 1680.586
2237.905, 1682.264
2239.834, 1684.512
2241.762, 1681.913
2243.691, 1660.325
2245.619, 1641.234
2247.548, 1622.862
2249.476, 1624.268
2251.405, 1629.956
2253.333, 1614.192
2255.261, 1602.016
2257.190, 1592.943
2259.118, 1581.880
2261.047, 1575.361
2262.975, 1573.506
2264.904, 1560.177
2266.832, 1545.613
2268.761, 1542.666
2270.689, 1537.957
2272.618, 1535.419
2274.546, 1524.870
2276.475, 1512.854
2278.403, 1502.977
2280.332, 1491.210
2282.260, 1485.964
2284.188, 1493.097
2286.117, 1481.662
2288.045, 1459.028
2289.974, 1435.757
2291.902, 1429.703
2293.831, 1451.463
2295.759, 1449.095
2297.688, 1433.216
2299.616, 1423.754
2301.545, 1416.325
2303.473, 1403.616
2305.402, 1392.140
2307.330, 1386.936
2309.259, 1374.363
2311.187, 1369.451
2313.115, 1368.252
2315.044, 1369.029
2316.972, 1364.253
2318.901, 1352.106
2320.829, 1339.258
2322.758, 1326.867
2324.686, 1314.129
2326.615, 1316.147
2328.543, 1313.867
2330.472, 1292.807
2332.400, 1291.760
2334.329, 1295.512
2336.257, 1264.624
2338.186, 1254.168
2340.114, 1262.595
2342.042, 1258.087
2343.971, 1249.337
2345.899, 1241.880
2347.828, 1234.784
2349.756, 1233.450
2351.685, 1233.704
2353.613, 1231.965
2355.542, 1229.422
2357.470, 1213.582
2359.399, 1204.760
2361.327, 1204.561
2363.256, 1199.829
2365.184, 1200.239
2367.113, 1201.279
2369.041, 1194.360
2370.969, 1193.490
2372.898, 1204.878
2374.826, 1197.590
2376.755, 1181.471
2378.683, 1183.056
2380.612, 1181.477
2382.540, 1173.502
2384.469, 1167.707
2386.397, 1163.489
2388.326, 1159.136
2390.254, 1163.398
2392.183, 1166.464
2394.111, 1156.202
2396.040, 1154.737
2397.968, 1154.289
2399.896, 1144.328
2401.825, 1141.549
2403.753, 1142.603
2405.682, 1139.994
2407.610, 1137.273
2409.539, 1134.755
2411.467, 1141.930
2413.396, 1142.160
2415.324, 1124.385
2417.253, 1123.713
2419.181, 1126.060
2421.110, 1110.378
2423.038, 1110.303
2424.967, 1116.710
2426.895, 1112.022
2428.823, 1100.691
2430.752, 1089.208
2432.680, 1095.382
2434.609, 1098.000
2436.537, 1092.087
2438.466, 1082.626
2440.394, 1075.094
2442.323, 1076.244
2444.251, 1070.068
2446.180, 1060.516
2448.108, 1055.257
2450.037, 1056.210
2451.965, 1056.052
2453.894, 1039.552
2455.822, 1036.096
2457.750, 1043.796
2459.679, 1045.230
2461.607, 1039.352
2463.536, 1029.055
2465.464, 1027.067
2467.393, 1029.796
2469.321, 1035.724
2471.250, 1030.477
2473.178, 1020.404
2475.107, 1010.060
2477.035, 1005.036
2478.964, 1001.708
2480.892, 998.4303
2482.821, 994.9437
2484.749, 992.7831
2486.677, 998.1688
2488.606, 993.6867
2490.534, 983.0588
2492.463, 978.1436
2494.391, 978.5204
2496.320, 982.1132
2498.248, 987.3268
2500.177, 983.5190
2502.105, 971.9342
2504.034, 970.7402
2505.962, 972.8887
2507.891, 974.3383
2509.819, 962.6284
2511.748, 952.1277
2513.676, 949.6088
2515.604, 955.4056
2517.533, 959.9973
2519.461, 956.5405
2521.390, 954.4394
2523.318, 948.9174
2525.247, 926.9915
2527.175, 937.7512
2529.104, 956.1882
2531.032, 950.3939
2532.961, 939.2610
2534.889, 929.7515
2536.818, 929.7930
2538.746, 922.3976
2540.675, 913.0984
2542.603, 915.6664
2544.531, 912.5519
2546.460, 904.7900
2548.388, 899.7909
2550.317, 894.8278
2552.245, 888.5500
2554.174, 876.5134
2556.102, 865.0950
2558.031, 854.0293
2559.959, 832.5812
2561.888, 822.2080
2563.816, 824.8280
2565.745, 810.9498
2567.673, 799.8678
2569.602, 798.1884
2571.530, 802.9881
2573.458, 794.7512
2575.387, 772.0023
2577.315, 770.6088
2579.244, 766.8146
2581.172, 753.2653
2583.101, 749.5566
2585.029, 747.3501
2586.958, 743.0889
2588.886, 732.6667
2590.815, 726.6439
2592.743, 729.5004
2594.672, 715.1591
2596.600, 704.1203
2598.529, 707.4720
2600.457, 694.0354
2602.385, 686.6773
2604.314, 699.0598
2606.242, 695.2432
2608.171, 689.7422
2610.099, 690.6699
2612.028, 682.3181
2613.956, 675.2161
2615.885, 675.4478
2617.813, 660.8726
2619.742, 649.1895
2621.670, 653.8853
2623.599, 644.3961
2625.527, 637.2455
2627.456, 641.8517
2629.384, 637.3359
2631.313, 629.8723
2633.241, 620.0897
2635.169, 616.5840
2637.098, 616.5414
2639.026, 618.9683
2640.955, 610.1400
2642.883, 605.5674
2644.812, 612.1782
2646.740, 605.3912
2648.669, 599.0462
2650.597, 597.1940
2652.526, 589.1924
2654.454, 587.8763
2656.383, 595.5949
2658.311, 586.2813
2660.240, 576.9030
2662.168, 573.9052
2664.096, 567.7651
2666.025, 565.0572
2667.953, 566.8345
2669.882, 567.5210
2671.810, 562.6074
2673.739, 554.5124
2675.667, 559.5850
2677.596, 561.1619
2679.524, 558.3565
2681.453, 556.6260
2683.381, 554.1472
2685.310, 551.0526
2687.238, 555.1384
2689.167, 545.4291
2691.095, 530.5015
2693.023, 539.3073
2694.952, 538.9216
2696.880, 532.8516
2698.809, 531.4526
2700.737, 529.5828
2702.666, 528.6764
2704.594, 529.7109
2706.523, 520.7063
2708.451, 511.9667
2710.380, 515.0313
2712.308, 513.2362
2714.237, 502.4143
2716.165, 484.9158
2718.094, 492.7744
2720.022, 497.0623
2721.950, 492.5486
2723.879, 477.6182
2725.807, 470.7185
2727.736, 478.4759
2729.664, 481.1431
2731.593, 484.1409
2733.521, 486.3950
2735.450, 472.1555
2737.378, 466.3559
2739.307, 468.6712
2741.235, 471.9775
2743.164, 465.5767
2745.092, 457.9740
2747.021, 459.3494
2748.949, 463.0303
2750.877, 462.6576
2752.806, 453.0970
2754.734, 446.8562
2756.663, 442.5412
2758.591, 438.3599
2760.520, 430.3223
2762.448, 430.0950
2764.377, 437.0532
2766.305, 434.4872
2768.234, 433.1311
2770.162, 434.4966
2772.091, 428.3127
2774.019, 423.3474
2775.948, 420.4919
2777.876, 419.8424
2779.804, 420.0377
2781.733, 419.2485
2783.661, 419.3145
2785.590, 420.4221
2787.518, 421.7911
2789.447, 420.2645
2791.375, 407.9732
2793.304, 406.7492
2795.232, 410.2173
2797.161, 394.6698
2799.089, 390.4666
2801.018, 393.8413
2802.946, 389.2930
2804.875, 387.2759
2806.803, 388.3329
2808.731, 389.4742
2810.660, 390.6753
2812.588, 386.6417
2814.517, 375.0304
2816.445, 379.2620
2818.374, 376.5363
2820.302, 365.1588
2822.231, 360.7403
2824.159, 361.0279
2826.088, 364.0562
2828.016, 363.7297
2829.945, 355.2660
2831.873, 345.9731
2833.802, 342.9598
2835.730, 339.0716
2837.658, 331.9622
2839.587, 324.8890
2841.515, 331.9739
2843.444, 335.5658
2845.372, 331.9731
2847.301, 318.2480
2849.229, 319.4817
2851.158, 325.4619
2853.086, 325.0706
2855.015, 312.4317
2856.943, 306.8221
2858.872, 313.9741
2860.800, 307.3052
2862.729, 307.5523
2864.657, 310.1157
2866.585, 297.6682
2868.514, 296.8822
2870.442, 295.5312
2872.371, 283.9308
2874.299, 288.8840
2876.228, 292.1522
2878.156, 287.2550
2880.085, 278.7704
2882.013, 280.1832
2883.942, 283.6096
2885.870, 273.2932
2887.799, 273.2909
2889.727, 276.7706
2891.656, 272.0055
2893.584, 267.8003
2895.512, 265.9901
2897.441, 269.1172
2899.369, 265.8997
2901.298, 270.5561
2903.226, 273.7786
2905.155, 258.1982
2907.083, 253.1089
2909.012, 253.5814
2910.940, 249.5615
2912.869, 247.8069
2914.797, 245.5648
2916.726, 240.7078
2918.654, 242.4935
2920.583, 241.9525
2922.511, 242.7197
2924.439, 247.3987
2926.368, 244.4531
2928.296, 236.9132
2930.225, 230.4426
2932.153, 238.4542
2934.082, 241.3397
2936.010, 239.4417
2937.939, 233.4345
2939.867, 226.7249
2941.796, 226.7579
2943.724, 231.7251
2945.653, 235.4318
2947.581, 228.3170
2949.510, 219.1769
2951.438, 224.9349
2953.366, 223.2505
2955.295, 217.5304
2957.223, 212.7897
2959.152, 224.6346
2961.080, 224.3610
2963.009, 215.8830
2964.937, 213.9547
2966.866, 212.3199
2968.794, 212.8974
2970.723, 213.4175
2972.651, 207.3524
2974.580, 213.0432
2976.508, 218.2091
2978.437, 199.7318
2980.365, 197.0965
2982.293, 195.6874
2984.222, 187.7815
2986.150, 192.4170
2988.079, 189.1747
2990.007, 186.5810
2991.936, 193.5119
2993.864, 195.6857
2995.793, 196.3119
2997.721, 195.0279
2999.650, 189.5868
3001.578, 192.6126
3003.507, 196.0384
3005.435, 190.5187
3007.364, 181.2399
3009.292, 182.0610
3011.220, 188.0329
3013.149, 183.2543
3015.077, 183.3477
3017.006, 181.8235
3018.934, 181.8909
3020.863, 175.8387
3022.791, 179.2751
3024.720, 182.8804
3026.648, 175.8499
3028.577, 172.8124
3030.505, 170.9107
3032.434, 168.8327
3034.362, 179.1690
3036.291, 173.2628
3038.219, 163.2159
3040.147, 161.6951
3042.076, 163.7769
3044.004, 162.1256
3045.933, 156.7154
3047.861, 154.1499
3049.790, 155.8046
3051.718, 162.9379
3053.647, 169.6892
3055.575, 157.3254
3057.504, 157.1954
3059.432, 162.4764
3061.361, 166.9064
3063.289, 160.9466
3065.218, 152.2479
3067.146, 147.5965
3069.074, 154.0517
3071.003, 158.6768
3072.931, 156.9800
3074.860, 149.9023
3076.788, 157.2771
3078.717, 153.8076
3080.645, 152.4017
3082.574, 155.5109
3084.502, 151.7493
3086.431, 156.3869
3088.359, 161.2430
3090.288, 154.7887
3092.216, 150.9550
3094.145, 152.9978
3096.073, 158.7770
3098.001, 157.6367
3099.930, 150.9329
3101.858, 147.7930
3103.787, 147.1487
3105.715, 151.3257
3107.644, 162.4223
3109.572, 165.1197
3111.501, 157.0451
3113.429, 149.0924
3115.358, 158.0619
3117.286, 163.8011
3119.215, 152.3355
3121.143, 153.8677
3123.072, 156.1950
3125.000, 156.9583
3126.928, 159.7195
3128.857, 165.4507
3130.785, 170.9778
3132.714, 174.1241
3134.642, 165.8214
3136.571, 171.1348
3138.499, 174.2252
3140.428, 167.4453
3142.356, 167.5316
3144.285, 168.2449
3146.213, 174.3918
3148.142, 182.5116
3150.070, 180.1582
3151.999, 179.4503
3153.927, 184.2715
3155.855, 193.3608
3157.784, 195.1438
3159.712, 192.6844
3161.641, 190.2280
3163.569, 192.4887
3165.498, 191.3788
3167.426, 197.4758
3169.355, 211.3110
3171.283, 222.5986
3173.212, 218.9589
3175.140, 216.6669
3177.069, 218.1428
3178.997, 223.2168
3180.926, 227.2819
3182.854, 242.8533
3184.782, 255.8510
3186.711, 253.1159
3188.639, 256.6805
3190.568, 260.9525
3192.496, 270.0435
3194.425, 282.5565
3196.353, 299.3809
3198.282, 299.4333
3200.210, 294.9483
3202.139, 309.8986
3204.067, 317.5337
3205.996, 326.0687
3207.924, 337.5267
3209.853, 347.1276
3211.781, 353.8940
3213.709, 365.9036
3215.638, 378.9963
3217.566, 396.1489
3219.495, 398.1381
3221.423, 412.0554
3223.352, 427.5939
3225.280, 438.5802
3227.209, 449.6978
3229.137, 449.7704
3231.066, 454.4081
3232.994, 467.6169
3234.923, 474.8906
3236.851, 491.2776
3238.780, 503.0659
3240.708, 506.4810
3242.636, 491.2109
3244.565, 503.5415
3246.493, 518.1325
3248.422, 520.1165
3250.350, 516.8376
3252.279, 518.1557
3254.207, 523.6833
3256.136, 533.3674
3258.064, 540.1638
3259.993, 534.3618
3261.921, 537.5207
3263.850, 552.1135
3265.778, 555.0393
3267.707, 559.1118
3269.635, 566.7539
3271.563, 573.3505
3273.492, 568.3222
3275.420, 582.1741
3277.349, 581.4898
3279.277, 581.0696
3281.206, 601.5258
3283.134, 611.3625
3285.063, 632.3395
3286.991, 645.5972
3288.920, 645.9717
3290.848, 652.1337
3292.777, 655.5343
3294.705, 665.8780
3296.634, 688.0142
3298.562, 711.5810
3300.490, 717.7965
3302.419, 722.3000
3304.347, 729.6042
3306.276, 733.3452
3308.204, 754.2962
3310.133, 757.4496
3312.061, 764.4506
3313.990, 792.3591
3315.918, 796.3769
3317.847, 779.5150
3319.775, 774.7732
3321.704, 782.9818
3323.632, 769.1443
3325.561, 777.1682
3327.489, 777.4116
3329.417, 767.9941
3331.346, 768.3855
3333.274, 770.8178
3335.203, 748.2795
3337.131, 736.3121
3339.060, 752.7418
3340.988, 712.1890
3342.917, 711.1536
3344.845, 723.6187
3346.774, 723.2676
3348.702, 685.9940
3350.631, 737.3574
3352.559, 756.2804
3354.488, 751.5323
3356.416, 769.3442
3358.344, 789.5347
3360.273, 790.4396
3362.201, 786.1607
3364.130, 790.9269
3366.058, 821.0333
3367.987, 826.6182
3369.915, 831.1972
3371.844, 840.3085
3373.772, 846.8108
3375.701, 853.7260
3377.629, 878.9747
3379.558, 900.8335
3381.486, 909.8608
3383.415, 919.6259
3385.343, 923.3450
3387.271, 921.5994
3389.200, 917.5105
3391.128, 917.3818
3393.057, 924.9428
3394.985, 957.2193
3396.914, 964.4954
3398.842, 942.8281
3400.771, 944.1139
3402.699, 950.7197
3404.628, 959.5588
3406.556, 962.7393
3408.485, 958.0420
3410.413, 963.4847
3412.342, 974.9556
3414.270, 985.2039
3416.198, 993.6747
3418.127, 1008.565
3420.055, 1026.325
3421.984, 1052.526
3423.912, 1062.401
3425.841, 1051.568
3427.769, 1045.026
3429.698, 1068.796
3431.626, 1054.246
3433.555, 1027.739
3435.483, 1024.385
3437.412, 1019.813
3439.340, 974.3942
3441.269, 950.4160
3443.197, 934.2310
3445.125, 883.5980
3447.054, 908.7179
3448.982, 899.9495
3450.911, 871.7236
3452.839, 848.8052
3454.768, 843.6581
3456.696, 825.7951
3458.625, 806.8190
3460.553, 806.0126
3462.482, 813.5405
3464.410, 783.7941
3466.339, 787.5897
3468.267, 776.9968
3470.196, 765.6776
3472.124, 766.5941
3474.052, 759.0361
3475.981, 735.8557
3477.909, 728.7394
3479.838, 720.5671
3481.766, 701.5710
3483.695, 726.2176
3485.623, 684.3784
3487.552, 672.8375
3489.480, 676.7200
3491.409, 656.3748
3493.337, 646.3781
3495.266, 636.8819
3497.194, 620.7023
3499.123, 601.9248
3501.051, 588.1510
3502.979, 588.3368
3504.908, 571.7609
3506.836, 565.5790
3508.765, 557.7672
3510.693, 534.1706
3512.622, 545.0213
3514.550, 532.5958
3516.479, 506.7525
3518.407, 481.4221
3520.336, 466.6034
3522.264, 477.0535
3524.193, 453.6711
3526.121, 427.6019
3528.050, 417.4938
3529.978, 419.7995
3531.906, 402.1065
3533.835, 376.1598
3535.763, 375.4377
3537.692, 364.1139
3539.620, 330.9479
3541.549, 334.3611
3543.477, 328.2819
3545.406, 323.7914
3547.334, 309.2875
3549.263, 284.9420
3551.191, 270.4537
3553.120, 272.8013
3555.048, 274.7996
3556.977, 271.4878
3558.905, 262.8444
3560.833, 250.5309
3562.762, 236.6234
3564.690, 237.2341
3566.619, 239.1871
3568.547, 236.5650
3570.476, 232.9466
3572.404, 245.9367
3574.333, 237.1848
3576.261, 223.0038
3578.190, 215.1412
3580.118, 214.6616
3582.047, 211.4777
3583.975, 217.7254
3585.904, 205.4022
3587.832, 191.9124
3589.760, 190.2157
3591.689, 198.2308
3593.617, 189.9558
3595.546, 200.0913
3597.474, 192.6550
3599.403, 179.1658
3601.331, 181.1412
3603.260, 180.3938
3605.188, 191.5492
3607.117, 192.5335
3609.045, 189.2418
3610.974, 182.8730
3612.902, 166.7061
3614.831, 172.3525
3616.759, 178.4927
3618.688, 171.9386
3620.616, 163.1818
3622.544, 162.2406
3624.473, 155.9052
3626.401, 160.2980
3628.330, 165.0354
3630.258, 152.9958
3632.187, 142.7164
3634.115, 159.9314
3636.044, 134.7709
3637.972, 138.7156
3639.901, 148.9032
3641.829, 148.2234
3643.758, 140.2672
3645.686, 144.2604
3647.615, 144.1264
3649.543, 133.7050
3651.471, 138.9511
3653.400, 151.7225
3655.328, 154.3614
3657.257, 148.6813
3659.185, 151.3871
3661.114, 148.7782
3663.042, 141.4811
3664.971, 145.1751
3666.899, 168.7216
3668.828, 175.0207
3670.756, 167.3540
3672.685, 168.4389
3674.613, 160.7572
3676.542, 150.4539
3678.470, 161.0423
3680.398, 165.8978
3682.327, 157.0232
3684.255, 164.6607
3686.184, 169.0922
3688.112, 166.5818
3690.041, 173.4528
3691.969, 176.1615
3693.898, 157.0391
3695.826, 158.6599
3697.755, 151.6379
3699.683, 142.3802
3701.612, 164.2379
3703.540, 158.8958
3705.469, 158.5962
3707.397, 156.4753
3709.325, 154.1902
3711.254, 154.6245
3713.182, 158.4639
3715.111, 168.8535
3717.039, 163.8195
3718.968, 159.6574
3720.896, 157.3932
3722.825, 150.2146
3724.753, 137.0633
3726.682, 136.6404
3728.610, 133.0698
3730.539, 145.1322
3732.467, 141.9825
3734.396, 130.5403
3736.324, 127.4384
3738.252, 122.4821
3740.181, 113.7166
3742.109, 107.1660
3744.038, 119.6908
3745.966, 116.5313
3747.895, 100.1763
3749.823, 114.8468
3751.752, 108.8061
3753.680, 111.2784
3755.609, 108.4601
3757.537, 100.1275
3759.466, 91.33519
3761.394, 88.83888
3763.323, 99.87134
3765.251, 97.26732
3767.179, 99.95837
3769.108, 101.8586
3771.036, 108.2905
3772.965, 114.3942
3774.893, 105.5950
3776.822, 107.9062
3778.750, 99.83403
3780.679, 111.0321
3782.607, 108.2930
3784.536, 98.87446
3786.464, 101.2681
3788.393, 94.59415
3790.321, 90.50226
3792.250, 100.6184
3794.178, 80.77537
3796.106, 71.18279
3798.035, 76.60647
3799.963, 69.82652
3801.892, 71.37686
3803.820, 76.74280
3805.749, 70.98176
3807.677, 66.14128
3809.606, 59.10006
3811.534, 48.62015
3813.463, 42.38517
3815.391, 49.02327
3817.320, 53.14748
3819.248, 43.40094
3821.177, 29.97100
3823.105, 27.34783
3825.033, 34.22862
3826.962, 36.32559
3828.890, 23.66520
3830.819, 32.24162
3832.747, 39.91760
3834.676, 27.00863
3836.604, 21.47812
3838.533, 30.18099
3840.461, 33.38639
3842.390, 24.87019
3844.318, 19.96180
3846.247, 19.23686
3848.175, 17.83624
3850.104, 25.29941
3852.032, 33.60418
3853.960, 27.84356
3855.889, 9.991026
3857.817, 18.03930
3859.746, 17.58870
3861.674, 17.97824
3863.603, 24.10887
3865.531, 27.41067
3867.460, 26.23697
3869.388, 30.10636
3871.317, 35.04787
3873.245, 22.29933
3875.174, 23.78165
3877.102, 15.38744
3879.031, 11.64185
3880.959, 18.04475
3882.887, 20.73551
3884.816, 12.67740
3886.744, 20.17873
3888.673, 19.89542
3890.601, 24.52084
3892.530, 11.64060
3894.458, 10.33991
3896.387, 22.28376
3898.315, 20.13889
3900.244, 19.01494
3902.172, 10.14505
3904.101, 18.78097
3906.029, 21.22682
3907.958, 16.44906
3909.886, 14.80522
3911.814, 18.48714
3913.743, 18.95090
3915.671, 8.754451
3917.600, 8.700334
3919.528, 10.27563
3921.457, 17.66282
3923.385, 16.32187
3925.314, 15.43992
3927.242, 18.37011
3929.171, 16.07371
3931.099, 15.36283
3933.028, 2.028248
3934.956, 11.98878
3936.885, 19.88276
3938.813, 18.04131
3940.741, 11.38504
3942.670, 6.472946
3944.598, 7.783874
3946.527, 16.32754
3948.455, 17.49983
3950.384, 6.537602
3952.312, 3.981318
3954.241, 8.770123
3956.169, 18.44817
3958.098, 18.54832
3960.026, 13.46028
3961.955, 17.28973
3963.883, 6.198841
3965.812, 5.066870
3967.740, 10.78254
3969.668, 10.57987
3971.597, 9.682989
3973.525, 10.39973
3975.454, 13.52182
3977.382, 14.59773
3979.311, 9.450887
3981.239, 7.652899
3983.168, 22.91523
3985.096, 13.84184
3987.025, 11.60459
3988.953, 10.09907
3990.882, 15.27531
3992.810, 16.54053
3994.739, 11.90406
3996.667, 10.39669
3998.595, 10.12406
4000.524, 8.938959
4002.452, 30.10021
4004.381, 17.90199
4006.309, 11.49487
4008.238, 8.145867
4010.166, 10.96716
4012.095, 12.58226
4014.023, 9.217946
4015.952, 10.21734
4017.880, 11.29718
4019.809, 16.76038
4021.737, 8.955116
4023.666, 13.27569
4025.594, 8.194809
4027.522, 8.111669
4029.451, 8.825762
4031.379, 6.704420
4033.308, 7.853231
4035.236, 9.016766
4037.165, 10.12099
4039.093, 12.00880
4041.022, 18.07591
4042.950, 19.94382
4044.879, 10.59640
4046.807, 11.20879
4048.736, 4.861186
4050.664, 4.190055
4052.593, 23.69675
4054.521, 13.36445
4056.449, 12.07255
4058.378, 7.929805
4060.306, -0.4868654
4062.235, 4.434498
4064.163, 11.89262
4066.092, 8.276005
4068.020, 7.371079
4069.949, 16.89949
4071.877, 18.98725
4073.806, 3.649671
4075.734, 11.22128
4077.663, 13.31549
4079.591, 7.005338
4081.520, 23.99547
4083.448, 18.65972
4085.376, 15.76766
4087.305, 12.46893
4089.233, 13.11194
4091.162, 15.41232
4093.090, 17.24099
4095.019, 27.40755
4096.947, 16.41124
4098.876, 21.14264
4100.804, 11.99784
4102.733, 12.48069
4104.661, 22.36870
4106.590, 14.02485
4108.518, 13.37731
4110.447, 21.42303
4112.375, 17.60686
4114.304, 9.687945
4116.232, 13.64777
4118.161, 7.991573
4120.089, 12.79371
4122.018, 13.21225
4123.946, 13.35287
4125.875, 11.81913
4127.803, 13.89751
4129.731, 19.90947
4131.660, 16.31119
4133.588, 18.08948
4135.517, 18.39357
4137.445, 12.59648
4139.374, 17.82777
4141.302, 8.207757
4143.230, 5.355483
4145.159, 6.859621
4147.087, 18.24149
4149.016, 15.92558
4150.944, 23.10315
4152.873, 23.55983
4154.801, 13.07544
4156.730, 4.402842
4158.658, 6.675779
4160.587, 16.43773
4162.515, 18.97065
4164.444, 8.270437
4166.372, 9.508847
4168.301, 11.86709
4170.229, 6.428877
4172.158, 15.72817
4174.086, 28.96901
4176.015, 25.43106
4177.943, 20.60352
4179.872, 16.88427
4181.800, 12.68327
4183.729, 10.17458
4185.657, 12.42181
4187.585, 16.63041
4189.514, 17.03251
4191.442, 14.37780
4193.371, 13.71472
4195.299, 22.58679
4197.228, 16.89919
4199.156, 14.99349
4201.084, 14.80137
4203.013, 15.39509
4204.941, 11.27732
4206.870, 6.786194
4208.798, 16.85295
4210.727, 21.26343
4212.655, 17.64614
4214.584, 17.02868
4216.512, 17.55235
4218.441, 10.35569
4220.369, -4.4000201E-02
4222.298, 14.49510
4224.226, 13.66349
4226.155, 24.07744
4228.083, 8.637150
4230.012, 8.678878
4231.940, 13.22710
4233.869, 9.104818
4235.797, 11.61080
4237.726, 7.343670
4239.654, 13.71611
4241.583, 20.24816
4243.511, 13.26680
4245.439, 11.44714
4247.368, 15.40096
4249.296, 14.00318
4251.225, 15.02464
4253.153, 12.88793
4255.082, 8.584398
4257.010, 11.91468
4258.938, 13.04564
4260.867, 24.31288
4262.795, 12.96142
4264.724, 9.426670
4266.652, 12.62721
4268.581, 15.29288
4270.509, 10.50353
4272.438, 13.77718
4274.366, 18.05764
4276.295, 14.93619
4278.223, 7.985465
4280.152, 1.026312
4282.080, 10.09760
4284.009, 13.77082
4285.937, 4.026786
4287.866, 12.33405
4289.794, 14.11769
4291.723, 18.15343
4293.651, 20.67544
4295.580, 10.16204
4297.508, 5.074532
4299.437, 22.84948
4301.365, 27.19644
4303.293, 10.57448
4305.222, 24.80681
4307.150, 23.25781
4309.079, 13.29170
4311.007, 12.16566
4312.936, 20.42047
4314.864, 8.836014
4316.792, 12.87859
4318.721, 13.52564
4320.649, 15.21887
4322.578, 15.05686
4324.506, 9.429994
4326.435, 13.15075
4328.363, 22.87487
4330.292, 22.69433
4332.220, 11.85526
4334.149, 8.457523
4336.077, 18.91594
4338.006, 22.42538
4339.934, 16.39730
4341.863, 23.01720
##END=



