##NAMES=Eulytine
##RRUFFID=R130114
##IDEAL CHEMISTRY=Bi_4_(SiO_4_)_3_
##LOCALITY=Flying Saucer Group, Maricopa County, Arizona
##OWNER=RRUFF
##SOURCE=Mark Ascher
##DESCRIPTION=White or colorless octahedra, associated with R130113 kettnerite, green mottramite
##STATUS=The identification of this mineral has been confirmed by single-crystal X-ray diffraction
##URL=https://www.rruff.net/odr/rruff_sample/R130114
##DIFFRACTION SAMPLE DESCRIPTION=Single crystal, powder profile is calculated
##CELL PARAMETERS=a: 10.299 b: 10.299 c: 10.299 alpha: 90 beta: 90 gamma: 90 volume: 1092.42 crystal system: cubic
##FILETYPE=Raman Processed
##RAMAN WAVELENGTH=780

78.26855, 14207.58
80.19702, 11871.86
82.12549, 10996.05
84.05396, 11893.62
85.98242, 14022.36
87.91089, 17103.62
89.83936, 21050.51
91.76782, 23791.28
93.69629, 23661.14
95.62476, 21442.93
97.55322, 18580.04
99.48169, 15759.36
101.4102, 13715.04
103.3386, 12258.26
105.2671, 10961.01
107.1956, 9618.971
109.1240, 8475.051
111.0525, 7521.442
112.9810, 6793.169
114.9094, 6335.500
116.8379, 6126.689
118.7664, 6073.328
120.6948, 6191.697
122.6233, 6420.161
124.5518, 6837.994
126.4802, 7302.497
128.4087, 7686.285
130.3372, 7991.688
132.2656, 8102.989
134.1941, 7860.163
136.1226, 7611.560
138.0510, 7378.692
139.9795, 7212.691
141.9080, 7181.895
143.8364, 7279.235
145.7649, 7334.434
147.6934, 7367.921
149.6218, 7312.931
151.5503, 7081.898
153.4788, 6819.131
155.4072, 6624.391
157.3357, 6494.582
159.2642, 6415.605
161.1926, 6442.938
163.1211, 6441.420
165.0496, 6399.215
166.9780, 6328.336
168.9065, 6229.005
170.8350, 6108.271
172.7634, 5988.846
174.6919, 5851.837
176.6204, 5752.798
178.5488, 5682.485
180.4773, 5663.180
182.4058, 5718.985
184.3342, 5826.763
186.2627, 5949.781
188.1912, 6082.357
190.1196, 6262.439
192.0481, 6510.107
193.9766, 6767.690
195.9050, 7079.849
197.8335, 7341.369
199.7620, 7461.410
201.6904, 7436.490
203.6189, 7224.829
205.5474, 6770.684
207.4758, 6320.747
209.4043, 5916.564
211.3328, 5567.675
213.2612, 5282.126
215.1897, 5054.957
217.1182, 4869.768
219.0466, 4722.660
220.9751, 4627.045
222.9036, 4604.154
224.8320, 4602.465
226.7605, 4589.849
228.6890, 4587.726
230.6174, 4627.522
232.5459, 4710.823
234.4744, 4809.868
236.4028, 4924.128
238.3313, 5054.848
240.2598, 5216.478
242.1882, 5381.861
244.1167, 5527.146
246.0452, 5663.141
247.9736, 5822.850
249.9021, 6005.512
251.8306, 6206.670
253.7590, 6431.789
255.6875, 6665.975
257.6160, 6906.326
259.5444, 7149.768
261.4729, 7388.491
263.4014, 7626.324
265.3298, 7883.441
267.2583, 8167.136
269.1868, 8449.784
271.1152, 8756.744
273.0437, 9026.534
274.9722, 9206.266
276.9006, 9338.342
278.8291, 9500.515
280.7576, 9688.267
282.6860, 9845.821
284.6145, 9952.766
286.5430, 10052.66
288.4714, 10144.58
290.3999, 10242.31
292.3284, 10355.98
294.2568, 10483.06
296.1853, 10617.07
298.1138, 10757.27
300.0422, 10910.17
301.9707, 11066.09
303.8992, 11249.63
305.8276, 11479.27
307.7561, 11727.07
309.6846, 11964.33
311.6130, 12203.48
313.5415, 12476.43
315.4700, 12792.13
317.3984, 13110.25
319.3269, 13400.92
321.2554, 13729.93
323.1838, 14158.62
325.1123, 14592.69
327.0408, 14967.99
328.9692, 15286.82
330.8977, 15550.02
332.8262, 15750.90
334.7546, 15910.82
336.6831, 16051.13
338.6116, 16127.67
340.5400, 16098.56
342.4685, 16027.79
344.3970, 15955.51
346.3254, 15883.69
348.2539, 15816.83
350.1824, 15746.81
352.1108, 15713.23
354.0393, 15751.87
355.9678, 15756.11
357.8962, 15669.56
359.8247, 15563.80
361.7532, 15475.43
363.6816, 15408.14
365.6101, 15363.88
367.5386, 15336.30
369.4670, 15390.86
371.3955, 15537.41
373.3240, 15735.02
375.2524, 15965.09
377.1809, 16259.27
379.1094, 16647.52
381.0378, 17095.64
382.9663, 17564.34
384.8948, 18052.02
386.8232, 18517.07
388.7517, 18987.66
390.6802, 19307.85
392.6086, 19437.07
394.5371, 19415.17
396.4656, 19198.99
398.3940, 18910.06
400.3225, 18621.20
402.2510, 18358.84
404.1794, 18242.20
406.1079, 18266.62
408.0364, 18385.34
409.9648, 18596.20
411.8933, 18893.77
413.8218, 19296.29
415.7502, 19759.36
417.6787, 20281.28
419.6072, 20837.58
421.5356, 21402.77
423.4641, 21968.97
425.3926, 22493.67
427.3210, 22980.22
429.2495, 23387.97
431.1780, 23680.81
433.1064, 23927.38
435.0349, 24157.76
436.9634, 24342.78
438.8918, 24450.49
440.8203, 24494.32
442.7488, 24496.48
444.6772, 24461.67
446.6057, 24446.20
448.5342, 24456.95
450.4626, 24484.22
452.3911, 24553.76
454.3196, 24601.01
456.2480, 24588.27
458.1765, 24553.25
460.1050, 24542.82
462.0334, 24535.85
463.9619, 24486.08
465.8904, 24392.12
467.8188, 24282.88
469.7473, 24154.81
471.6758, 24021.22
473.6042, 23929.20
475.5327, 23770.09
477.4612, 23459.76
479.3896, 23094.74
481.3181, 22756.67
483.2466, 22434.34
485.1750, 22091.62
487.1035, 21719.95
489.0320, 21438.73
490.9604, 21292.48
492.8889, 21177.27
494.8174, 21088.53
496.7458, 21033.28
498.6743, 21006.52
500.6028, 21023.47
502.5313, 21103.64
504.4597, 21229.34
506.3882, 21383.34
508.3167, 21565.64
510.2451, 21715.57
512.1736, 21838.70
514.1021, 21912.90
516.0305, 21950.66
517.9590, 21911.58
519.8875, 21791.36
521.8159, 21576.93
523.7444, 21278.53
525.6729, 20871.24
527.6013, 20288.40
529.5298, 19571.54
531.4583, 18886.64
533.3867, 18247.96
535.3152, 17525.76
537.2437, 16694.15
539.1721, 15884.15
541.1006, 15101.76
543.0291, 14381.06
544.9575, 13767.47
546.8860, 13186.44
548.8145, 12579.95
550.7429, 11987.62
552.6714, 11472.68
554.5999, 11026.41
556.5283, 10594.97
558.4568, 10177.16
560.3853, 9814.400
562.3137, 9516.536
564.2422, 9242.719
566.1707, 8978.893
568.0991, 8745.751
570.0276, 8571.692
571.9561, 8403.487
573.8845, 8198.229
575.8130, 7982.099
577.7415, 7791.822
579.6699, 7622.488
581.5984, 7450.933
583.5269, 7278.728
585.4553, 7135.925
587.3838, 7029.470
589.3123, 6931.895
591.2407, 6850.755
593.1692, 6755.128
595.0977, 6626.499
597.0261, 6496.208
598.9546, 6378.341
600.8831, 6269.919
602.8115, 6162.015
604.7400, 6064.558
606.6685, 6004.580
608.5969, 5972.514
610.5254, 5915.668
612.4539, 5826.275
614.3823, 5756.563
616.3108, 5728.733
618.2393, 5687.046
620.1677, 5604.650
622.0962, 5537.523
624.0247, 5520.678
625.9531, 5504.997
627.8816, 5451.213
629.8101, 5387.725
631.7385, 5345.286
633.6670, 5316.440
635.5955, 5284.630
637.5239, 5250.944
639.4524, 5234.361
641.3809, 5243.735
643.3093, 5239.275
645.2378, 5218.667
647.1663, 5186.630
649.0947, 5128.347
651.0232, 5081.909
652.9517, 5067.206
654.8801, 5055.509
656.8086, 5032.654
658.7371, 5002.603
660.6655, 4962.509
662.5940, 4921.657
664.5225, 4896.215
666.4509, 4884.534
668.3794, 4877.800
670.3079, 4876.336
672.2363, 4880.584
674.1648, 4896.603
676.0933, 4893.643
678.0217, 4862.270
679.9502, 4832.853
681.8787, 4801.618
683.8071, 4796.373
685.7356, 4845.373
687.6641, 4900.652
689.5925, 4934.270
691.5210, 4962.605
693.4495, 4996.473
695.3779, 5037.748
697.3064, 5085.494
699.2349, 5143.510
701.1633, 5232.661
703.0918, 5352.143
705.0203, 5456.962
706.9487, 5546.236
708.8772, 5638.604
710.8057, 5737.973
712.7341, 5828.108
714.6626, 5896.697
716.5911, 5979.259
718.5195, 6096.060
720.4480, 6216.390
722.3765, 6330.773
724.3049, 6442.137
726.2334, 6566.646
728.1619, 6675.472
730.0903, 6731.511
732.0188, 6755.692
733.9473, 6785.038
735.8757, 6811.925
737.8042, 6818.493
739.7327, 6803.390
741.6611, 6754.818
743.5896, 6672.465
745.5181, 6585.969
747.4465, 6498.024
749.3750, 6406.214
751.3035, 6313.383
753.2319, 6208.935
755.1604, 6076.007
757.0889, 5955.545
759.0173, 5862.192
760.9458, 5777.257
762.8743, 5692.562
764.8027, 5613.631
766.7312, 5544.081
768.6597, 5482.708
770.5881, 5430.439
772.5166, 5384.088
774.4451, 5334.940
776.3735, 5289.833
778.3020, 5266.818
780.2305, 5262.042
782.1589, 5256.721
784.0874, 5250.635
786.0159, 5237.955
787.9443, 5218.588
789.8728, 5193.140
791.8013, 5148.083
793.7297, 5126.380
795.6582, 5150.383
797.5867, 5153.281
799.5151, 5119.069
801.4436, 5077.298
803.3721, 5023.525
805.3005, 4985.487
807.2290, 4984.522
809.1575, 4986.753
811.0859, 4968.210
813.0144, 4950.313
814.9429, 4952.736
816.8713, 4958.706
818.7998, 4949.658
820.7283, 4936.266
822.6567, 4932.997
824.5852, 4937.562
826.5137, 4953.332
828.4421, 4971.458
830.3706, 4950.203
832.2991, 4894.506
834.2275, 4860.074
836.1560, 4847.863
838.0845, 4816.647
840.0129, 4766.391
841.9414, 4698.596
843.8699, 4611.010
845.7983, 4529.784
847.7268, 4457.205
849.6553, 4398.625
851.5837, 4361.394
853.5122, 4312.492
855.4407, 4235.294
857.3691, 4165.718
859.2976, 4115.515
861.2261, 4073.239
863.1545, 4046.301
865.0830, 4010.156
867.0115, 3955.904
868.9399, 3888.045
870.8684, 3805.621
872.7969, 3714.703
874.7253, 3610.129
876.6538, 3509.719
878.5823, 3432.279
880.5107, 3366.608
882.4392, 3293.178
884.3677, 3228.039
886.2961, 3208.330
888.2246, 3206.171
890.1531, 3161.797
892.0815, 3098.711
894.0100, 3068.881
895.9385, 3063.304
897.8669, 3056.045
899.7954, 3047.258
901.7239, 3040.041
903.6523, 3034.836
905.5808, 3039.193
907.5093, 3053.118
909.4377, 3038.793
911.3662, 2989.080
913.2947, 2970.578
915.2231, 2995.283
917.1516, 3009.767
919.0801, 3012.190
921.0085, 3004.947
922.9370, 2984.008
924.8655, 2961.495
926.7939, 2946.320
928.7224, 2910.763
930.6509, 2832.610
932.5793, 2779.084
934.5078, 2776.745
936.4363, 2758.504
938.3647, 2703.950
940.2932, 2649.708
942.2217, 2603.853
944.1501, 2561.869
946.0786, 2524.468
948.0071, 2485.775
949.9355, 2441.659
951.8640, 2399.705
953.7925, 2357.735
955.7209, 2329.825
957.6494, 2332.435
959.5779, 2333.600
961.5063, 2318.315
963.4348, 2295.533
965.3633, 2263.149
967.2917, 2234.149
969.2202, 2212.504
971.1487, 2200.278
973.0771, 2205.308
975.0056, 2211.770
976.9341, 2209.952
978.8625, 2203.612
980.7910, 2191.350
982.7195, 2180.797
984.6479, 2183.952
986.5764, 2185.413
988.5049, 2166.827
990.4333, 2144.409
992.3618, 2132.348
994.2903, 2126.591
996.2188, 2127.376
998.1472, 2127.619
1000.076, 2114.294
1002.004, 2101.267
1003.933, 2115.858
1005.861, 2129.362
1007.790, 2090.690
1009.718, 2045.303
1011.646, 2057.034
1013.575, 2090.806
1015.503, 2100.040
1017.432, 2104.188
1019.360, 2136.462
1021.289, 2173.072
1023.217, 2177.389
1025.146, 2170.345
1027.074, 2179.440
1029.003, 2195.572
1030.931, 2207.129
1032.860, 2217.567
1034.788, 2232.215
1036.717, 2247.881
1038.645, 2258.402
1040.573, 2268.847
1042.502, 2285.375
1044.430, 2306.043
1046.359, 2330.072
1048.287, 2355.283
1050.216, 2374.492
1052.144, 2397.729
1054.073, 2448.173
1056.001, 2499.870
1057.930, 2515.021
1059.858, 2519.863
1061.787, 2539.648
1063.715, 2571.802
1065.644, 2623.303
1067.572, 2674.998
1069.500, 2700.301
1071.429, 2720.540
1073.357, 2762.980
1075.286, 2805.775
1077.214, 2817.302
1079.143, 2830.993
1081.071, 2885.439
1083.000, 2947.254
1084.928, 2988.905
1086.857, 3024.165
1088.785, 3059.758
1090.714, 3098.690
1092.642, 3143.384
1094.571, 3191.722
1096.499, 3246.306
1098.427, 3298.262
1100.356, 3334.323
1102.284, 3376.740
1104.213, 3443.549
1106.141, 3511.606
1108.070, 3565.514
1109.998, 3623.719
1111.927, 3700.797
1113.855, 3773.875
1115.784, 3833.119
1117.712, 3888.983
1119.641, 3938.674
1121.569, 3996.308
1123.498, 4062.392
1125.426, 4144.691
1127.354, 4261.791
1129.283, 4357.684
1131.211, 4405.669
1133.140, 4469.349
1135.068, 4567.657
1136.997, 4659.105
1138.925, 4733.694
1140.854, 4815.729
1142.782, 4912.703
1144.711, 4994.316
1146.639, 5048.733
1148.568, 5143.931
1150.496, 5291.759
1152.425, 5426.369
1154.353, 5543.522
1156.281, 5651.090
1158.210, 5749.329
1160.138, 5853.536
1162.067, 5964.559
1163.995, 6093.635
1165.924, 6237.646
1167.852, 6370.959
1169.781, 6499.051
1171.709, 6652.672
1173.638, 6821.656
1175.566, 6970.770
1177.495, 7113.333
1179.423, 7273.227
1181.352, 7450.565
1183.280, 7655.231
1185.208, 7867.326
1187.137, 8062.132
1189.065, 8251.168
1190.994, 8438.663
1192.922, 8632.833
1194.851, 8838.911
1196.779, 9055.095
1198.708, 9286.389
1200.636, 9517.312
1202.565, 9735.540
1204.493, 9964.520
1206.422, 10212.45
1208.350, 10476.56
1210.279, 10759.73
1212.207, 11040.22
1214.135, 11311.03
1216.064, 11583.93
1217.992, 11861.74
1219.921, 12132.18
1221.849, 12391.54
1223.778, 12697.10
1225.706, 13053.45
1227.635, 13398.89
1229.563, 13733.87
1231.492, 14091.92
1233.420, 14476.15
1235.349, 14903.83
1237.277, 15364.02
1239.206, 15825.84
1241.134, 16295.35
1243.063, 16792.64
1244.991, 17299.20
1246.919, 17772.13
1248.848, 18262.87
1250.776, 18838.48
1252.705, 19434.21
1254.633, 19975.22
1256.562, 20561.79
1258.490, 21272.78
1260.419, 21997.01
1262.347, 22676.50
1264.276, 23398.42
1266.204, 24189.92
1268.133, 25004.34
1270.061, 25830.17
1271.990, 26700.90
1273.918, 27617.46
1275.846, 28589.03
1277.775, 29616.38
1279.703, 30689.98
1281.632, 31821.39
1283.560, 33096.98
1285.489, 34479.66
1287.417, 35826.74
1289.346, 37217.15
1291.274, 38781.00
1293.203, 40481.73
1295.131, 42256.63
1297.060, 44179.05
1298.988, 46315.30
1300.917, 48604.08
1302.845, 51023.65
1304.773, 53560.42
1306.702, 56201.30
1308.630, 59001.27
1310.559, 61969.07
1312.487, 65145.66
1314.416, 68564.13
1316.344, 72082.79
1318.273, 75697.65
1320.201, 79298.06
1322.130, 82892.73
1324.058, 86551.05
1325.987, 90278.05
1327.915, 94135.48
1329.844, 98018.66
1331.772, 101765.5
1333.700, 105420.4
1335.629, 109119.3
1337.557, 112629.8
1339.486, 115744.5
1341.414, 118760.8
1343.343, 121819.9
1345.271, 124628.2
1347.200, 127059.3
1349.128, 129580.4
1351.057, 132264.1
1352.985, 134806.3
1354.914, 137213.4
1356.842, 139785.1
1358.771, 142538.5
1360.699, 145429.8
1362.627, 148538.7
1364.556, 152056.3
1366.484, 155844.4
1368.413, 159631.6
1370.341, 163795.9
1372.270, 168856.9
1374.198, 173958.7
1376.127, 178698.6
1378.055, 183499.2
1379.984, 188669.9
1381.912, 193292.0
1383.841, 197343.5
1385.769, 200514.0
1387.698, 202785.2
1389.626, 204170.2
1391.554, 204609.1
1393.483, 203857.2
1395.411, 202066.0
1397.340, 199390.7
1399.268, 195954.4
1401.197, 191692.9
1403.125, 186971.4
1405.054, 181919.9
1406.982, 176567.1
1408.911, 170698.1
1410.839, 165137.7
1412.768, 159996.6
1414.696, 155143.9
1416.625, 150572.3
1418.553, 146223.5
1420.481, 142205.7
1422.410, 138903.4
1424.338, 136175.7
1426.267, 133759.5
1428.195, 131889.5
1430.124, 130756.9
1432.052, 130148.0
1433.981, 129976.8
1435.909, 130345.5
1437.838, 131287.4
1439.766, 132745.7
1441.695, 134713.6
1443.623, 137094.0
1445.552, 139847.5
1447.480, 142891.5
1449.408, 146192.5
1451.337, 149798.4
1453.265, 153494.9
1455.194, 157129.2
1457.122, 160667.1
1459.051, 164191.1
1460.979, 167385.1
1462.908, 170181.4
1464.836, 172707.0
1466.765, 174985.7
1468.693, 176946.0
1470.622, 178529.8
1472.550, 179406.3
1474.479, 179800.6
1476.407, 180067.3
1478.335, 180052.0
1480.264, 179524.9
1482.192, 178798.3
1484.121, 177737.2
1486.049, 177059.2
1487.978, 176843.9
1489.906, 177072.6
1491.835, 177752.7
1493.763, 178972.7
1495.692, 180849.2
1497.620, 183800.3
1499.549, 187564.1
1501.477, 191948.8
1503.406, 196804.1
1505.334, 202165.9
1507.262, 207741.2
1509.191, 213817.2
1511.119, 219279.4
1513.048, 224152.2
1514.976, 228161.4
1516.905, 231205.6
1518.833, 232796.2
1520.762, 232834.5
1522.690, 231118.7
1524.619, 227706.8
1526.547, 222427.0
1528.476, 215916.3
1530.404, 208269.4
1532.333, 199917.2
1534.261, 190875.1
1536.189, 181522.2
1538.118, 171973.0
1540.046, 162592.6
1541.975, 153524.8
1543.903, 144938.2
1545.832, 136888.2
1547.760, 129349.1
1549.689, 122459.9
1551.617, 116298.9
1553.546, 110537.6
1555.474, 105133.3
1557.403, 100399.4
1559.331, 96235.74
1561.260, 92316.77
1563.188, 88695.16
1565.116, 85472.67
1567.045, 82526.27
1568.973, 79811.62
1570.902, 77335.23
1572.830, 75111.29
1574.759, 73010.05
1576.687, 71012.06
1578.616, 69077.12
1580.544, 67213.27
1582.473, 65432.37
1584.401, 63734.57
1586.330, 62171.54
1588.258, 60608.53
1590.187, 58931.71
1592.115, 57417.38
1594.043, 56084.90
1595.972, 54750.14
1597.900, 53427.25
1599.829, 52206.67
1601.757, 51034.97
1603.686, 49814.80
1605.614, 48693.14
1607.543, 47781.17
1609.471, 46917.69
1611.400, 46077.85
1613.328, 45312.12
1615.257, 44612.65
1617.185, 43900.07
1619.114, 43243.50
1621.042, 42755.43
1622.970, 42322.40
1624.899, 41900.02
1626.827, 41463.09
1628.756, 40991.48
1630.684, 40583.67
1632.613, 40243.14
1634.541, 39999.18
1636.470, 39804.54
1638.398, 39589.28
1640.327, 39392.60
1642.255, 39240.86
1644.184, 39082.56
1646.112, 38906.25
1648.041, 38717.56
1649.969, 38535.14
1651.897, 38464.79
1653.826, 38433.71
1655.754, 38319.93
1657.683, 38245.61
1659.611, 38262.66
1661.540, 38332.26
1663.468, 38449.50
1665.397, 38576.99
1667.325, 38714.31
1669.254, 38826.96
1671.182, 38998.39
1673.111, 39362.34
1675.039, 39723.49
1676.968, 39969.82
1678.896, 40372.68
1680.824, 40934.32
1682.753, 41376.12
1684.681, 41768.73
1686.610, 42289.39
1688.538, 42824.00
1690.467, 43286.91
1692.395, 43752.22
1694.324, 44252.19
1696.252, 44685.88
1698.181, 45065.56
1700.109, 45510.36
1702.038, 45898.37
1703.966, 46091.43
1705.895, 46164.70
1707.823, 46176.02
1709.751, 45991.03
1711.680, 45595.73
1713.608, 45299.02
1715.537, 45030.95
1717.465, 44659.22
1719.394, 44164.72
1721.322, 43457.98
1723.251, 42853.95
1725.179, 42457.33
1727.108, 41973.71
1729.036, 41420.83
1730.965, 40872.47
1732.893, 40379.17
1734.822, 40005.58
1736.750, 39667.53
1738.678, 39338.19
1740.607, 39061.71
1742.535, 38847.47
1744.464, 38718.10
1746.392, 38644.11
1748.321, 38549.65
1750.249, 38561.14
1752.178, 38735.85
1754.106, 38940.10
1756.035, 39153.40
1757.963, 39361.21
1759.892, 39588.50
1761.820, 39876.22
1763.749, 40213.80
1765.677, 40604.45
1767.605, 41016.79
1769.534, 41446.16
1771.462, 41885.89
1773.391, 42338.00
1775.319, 42772.77
1777.248, 43280.84
1779.176, 44006.25
1781.105, 44611.68
1783.033, 45067.06
1784.962, 45554.74
1786.890, 46108.61
1788.819, 46792.77
1790.747, 47515.32
1792.676, 48249.32
1794.604, 48897.07
1796.532, 49428.23
1798.461, 50329.04
1800.389, 51454.12
1802.318, 52505.59
1804.246, 53618.43
1806.175, 54844.99
1808.103, 56246.20
1810.032, 57830.67
1811.960, 59468.65
1813.889, 61205.27
1815.817, 63151.82
1817.746, 65159.68
1819.674, 67170.59
1821.603, 69188.36
1823.531, 71205.47
1825.459, 73276.70
1827.388, 75209.50
1829.316, 76701.55
1831.245, 77993.98
1833.173, 79207.97
1835.102, 79904.24
1837.030, 80105.00
1838.959, 80177.88
1840.887, 79937.91
1842.816, 79115.30
1844.744, 77981.96
1846.673, 76583.23
1848.601, 74881.99
1850.530, 72902.98
1852.458, 70680.05
1854.386, 68302.73
1856.315, 65785.38
1858.243, 63280.26
1860.172, 60804.50
1862.100, 58331.73
1864.029, 55924.84
1865.957, 53692.51
1867.886, 51559.52
1869.814, 49467.05
1871.743, 47551.46
1873.671, 45821.84
1875.600, 44333.76
1877.528, 42948.03
1879.457, 41493.33
1881.385, 40197.74
1883.313, 39115.56
1885.242, 38191.52
1887.170, 37399.44
1889.099, 36656.77
1891.027, 36038.66
1892.956, 35650.47
1894.884, 35209.63
1896.813, 34712.80
1898.741, 34494.85
1900.670, 34380.50
1902.598, 34165.55
1904.527, 34040.79
1906.455, 34092.43
1908.384, 34039.37
1910.312, 33952.42
1912.240, 34081.74
1914.169, 34160.50
1916.097, 34052.65
1918.026, 33916.88
1919.954, 33761.45
1921.883, 33508.07
1923.811, 33151.13
1925.740, 32685.16
1927.668, 32124.67
1929.597, 31469.38
1931.525, 30662.77
1933.454, 29795.42
1935.382, 29078.79
1937.311, 28253.29
1939.239, 27215.99
1941.167, 26261.16
1943.096, 25393.72
1945.024, 24543.47
1946.953, 23700.30
1948.881, 22836.18
1950.810, 22046.24
1952.738, 21336.99
1954.667, 20686.63
1956.595, 20100.02
1958.524, 19600.32
1960.452, 19138.83
1962.381, 18703.77
1964.309, 18283.26
1966.238, 17896.71
1968.166, 17583.95
1970.094, 17290.04
1972.023, 17013.05
1973.951, 16634.35
1975.880, 16227.09
1977.808, 15998.87
1979.737, 15784.57
1981.665, 15501.67
1983.594, 15200.18
1985.522, 14886.91
1987.451, 14568.63
1989.379, 14273.19
1991.308, 14037.51
1993.236, 13738.47
1995.165, 13375.46
1997.093, 13032.48
1999.021, 12722.13
2000.950, 12468.43
2002.878, 12170.03
2004.807, 11814.06
2006.735, 11521.09
2008.664, 11244.88
2010.592, 10930.53
2012.521, 10627.99
2014.449, 10350.02
2016.378, 10139.06
2018.306, 9956.432
2020.235, 9762.522
2022.163, 9545.006
2024.092, 9302.264
2026.020, 9054.124
2027.948, 8822.040
2029.877, 8633.850
2031.805, 8482.551
2033.734, 8364.691
2035.662, 8269.241
2037.591, 8155.753
2039.519, 7936.877
2041.448, 7736.865
2043.376, 7587.235
2045.305, 7475.234
2047.233, 7363.397
2049.162, 7169.597
2051.090, 7017.225
2053.019, 6950.901
2054.947, 6799.662
2056.875, 6614.352
2058.804, 6472.445
2060.732, 6353.217
2062.661, 6251.687
2064.589, 6165.367
2066.518, 6081.397
2068.446, 5987.968
2070.375, 5868.541
2072.303, 5712.147
2074.232, 5591.116
2076.160, 5486.197
2078.089, 5369.079
2080.017, 5264.088
2081.946, 5178.946
2083.874, 5092.479
2085.802, 5011.278
2087.731, 4950.090
2089.659, 4866.414
2091.588, 4752.641
2093.516, 4672.945
2095.445, 4600.273
2097.373, 4503.109
2099.302, 4428.551
2101.230, 4380.359
2103.159, 4323.590
2105.087, 4253.136
2107.016, 4160.357
2108.944, 4070.987
2110.873, 3993.654
2112.801, 3949.344
2114.729, 3917.978
2116.658, 3892.791
2118.586, 3844.225
2120.515, 3778.286
2122.443, 3720.839
2124.372, 3653.004
2126.300, 3563.897
2128.229, 3488.170
2130.157, 3433.135
2132.086, 3423.728
2134.014, 3390.395
2135.943, 3313.047
2137.871, 3284.865
2139.800, 3270.203
2141.728, 3230.954
2143.656, 3169.563
2145.585, 3090.269
2147.513, 3034.756
2149.442, 2986.355
2151.370, 2925.200
2153.299, 2904.967
2155.227, 2909.585
2157.156, 2854.301
2159.084, 2792.707
2161.013, 2747.722
2162.941, 2711.065
2164.870, 2680.844
2166.798, 2654.282
2168.727, 2635.714
2170.655, 2626.202
2172.583, 2606.842
2174.512, 2580.320
2176.440, 2545.403
2178.369, 2530.954
2180.297, 2530.261
2182.226, 2480.016
2184.154, 2431.683
2186.083, 2410.727
2188.011, 2395.523
2189.940, 2384.806
2191.868, 2384.246
2193.797, 2380.754
2195.725, 2370.881
2197.654, 2349.461
2199.582, 2322.798
2201.510, 2289.693
2203.439, 2278.644
2205.367, 2283.500
2207.296, 2271.775
2209.224, 2258.317
2211.153, 2250.446
2213.081, 2243.411
2215.010, 2237.993
2216.938, 2238.455
2218.867, 2229.041
2220.795, 2210.287
2222.724, 2231.879
2224.652, 2255.794
2226.581, 2253.727
2228.509, 2249.776
2230.438, 2247.188
2232.366, 2254.399
2234.294, 2248.422
2236.223, 2220.771
2238.151, 2253.562
2240.080, 2294.166
2242.008, 2304.960
2243.937, 2272.348
2245.865, 2217.154
2247.794, 2199.804
2249.722, 2194.639
2251.651, 2193.819
2253.579, 2194.653
2255.508, 2192.335
2257.436, 2181.204
2259.365, 2176.212
2261.293, 2168.498
2263.221, 2105.933
2265.150, 2068.659
2267.078, 2081.073
2269.007, 2081.127
2270.935, 2069.611
2272.864, 2048.742
2274.792, 2013.663
2276.721, 1979.489
2278.649, 2006.895
2280.578, 2006.464
2282.506, 1952.910
2284.435, 1957.563
2286.363, 1973.986
2288.292, 1945.007
2290.220, 1945.760
2292.148, 1969.998
2294.077, 1997.600
2296.005, 2003.370
2297.934, 1981.222
2299.862, 1991.782
2301.791, 2005.961
2303.719, 1997.926
2305.648, 2002.080
2307.576, 2011.689
2309.505, 2017.767
2311.433, 1993.053
2313.362, 1941.750
2315.290, 1966.520
2317.219, 1984.753
2319.147, 1951.289
2321.075, 1939.275
2323.004, 1940.877
2324.932, 1943.661
2326.861, 1951.249
2328.789, 1959.113
2330.718, 1943.899
2332.646, 1940.535
2334.575, 1956.527
2336.503, 1939.401
2338.432, 1918.395
2340.360, 1914.969
2342.289, 1912.645
2344.217, 1909.336
2346.146, 1907.901
2348.074, 1887.161
2350.002, 1857.178
2351.931, 1874.115
2353.859, 1894.335
2355.788, 1902.105
2357.716, 1912.557
2359.645, 1915.002
2361.573, 1887.915
2363.502, 1899.999
2365.430, 1925.415
2367.359, 1906.159
2369.287, 1911.193
2371.216, 1941.776
2373.144, 1964.409
2375.073, 1968.268
2377.001, 1946.470
2378.929, 1966.644
2380.858, 2002.558
2382.786, 2040.116
2384.715, 2056.071
2386.643, 2061.025
2388.572, 2069.549
2390.500, 2077.987
2392.429, 2087.499
2394.357, 2104.016
2396.286, 2124.845
2398.214, 2148.950
2400.143, 2174.463
2402.071, 2194.211
2404.000, 2205.018
2405.928, 2189.040
2407.856, 2156.187
2409.785, 2111.612
2411.713, 2096.920
2413.642, 2092.739
2415.570, 2054.197
2417.499, 2034.521
2419.427, 2023.801
2421.356, 1954.149
2423.284, 1915.933
2425.213, 1919.521
2427.141, 1876.819
2429.070, 1836.444
2430.998, 1821.295
2432.927, 1788.560
2434.855, 1754.999
2436.783, 1738.469
2438.712, 1712.984
2440.640, 1685.161
2442.569, 1663.118
2444.497, 1649.875
2446.426, 1640.041
2448.354, 1620.288
2450.283, 1605.903
2452.211, 1597.179
2454.140, 1584.800
2456.068, 1567.164
2457.997, 1545.536
2459.925, 1550.449
2461.854, 1554.849
2463.782, 1545.341
2465.710, 1560.560
2467.639, 1556.090
2469.567, 1500.807
2471.496, 1479.961
2473.424, 1480.727
2475.353, 1489.105
2477.281, 1470.112
2479.210, 1436.297
2481.138, 1405.807
2483.067, 1392.067
2484.995, 1385.780
2486.924, 1358.865
2488.852, 1341.020
2490.781, 1327.009
2492.709, 1271.300
2494.637, 1240.383
2496.566, 1241.429
2498.494, 1232.537
2500.423, 1211.785
2502.351, 1182.661
2504.280, 1175.645
2506.208, 1178.022
2508.137, 1183.856
2510.065, 1170.285
2511.994, 1153.733
2513.922, 1145.389
2515.851, 1138.291
2517.779, 1125.757
2519.708, 1095.577
2521.636, 1095.294
2523.564, 1099.382
2525.493, 1076.754
2527.421, 1081.557
2529.350, 1094.117
2531.278, 1087.466
2533.207, 1068.103
2535.135, 1053.216
2537.064, 1068.610
2538.992, 1083.075
2540.921, 1089.729
2542.849, 1076.439
2544.778, 1091.770
2546.706, 1125.492
2548.635, 1137.613
2550.563, 1140.962
2552.491, 1138.877
2554.420, 1124.122
2556.348, 1152.691
2558.277, 1204.741
2560.205, 1177.460
2562.134, 1150.239
2564.062, 1137.359
2565.991, 1122.145
2567.919, 1111.182
2569.848, 1104.704
2571.776, 1098.303
2573.705, 1090.663
2575.633, 1082.940
2577.562, 1084.191
2579.490, 1079.413
2581.418, 1067.668
2583.347, 1070.460
2585.275, 1061.749
2587.204, 1038.542
2589.132, 1037.123
2591.061, 1033.327
2592.989, 1022.223
2594.918, 1028.991
2596.846, 1025.664
2598.775, 1006.264
2600.703, 985.6718
2602.632, 983.1297
2604.560, 998.4697
2606.489, 984.2478
2608.417, 974.7886
2610.345, 978.6240
2612.274, 983.3712
2614.202, 990.5082
2616.131, 994.5383
2618.059, 956.5559
2619.988, 947.4251
2621.916, 971.1147
2623.845, 960.5837
2625.773, 937.5967
2627.702, 916.0432
2629.630, 926.7852
2631.559, 925.9232
2633.487, 915.2254
2635.416, 931.3115
2637.344, 952.3969
2639.272, 965.5030
2641.201, 943.3696
2643.129, 936.5007
2645.058, 950.2919
2646.986, 989.1684
2648.915, 983.9121
2650.843, 959.1195
2652.772, 979.7446
2654.700, 1000.279
2656.629, 1007.604
2658.557, 985.9142
2660.486, 988.8876
2662.414, 998.5277
2664.343, 983.8339
2666.271, 998.1667
2668.199, 1017.645
2670.128, 1015.999
2672.056, 1000.917
2673.985, 995.7645
2675.913, 1016.193
2677.842, 1003.571
2679.770, 987.8994
2681.699, 987.7553
2683.627, 982.7373
2685.556, 976.9707
2687.484, 970.8191
2689.413, 938.9809
2691.341, 922.7865
2693.270, 927.1752
2695.198, 891.5505
2697.126, 885.8099
2699.055, 907.9036
2700.983, 883.8334
2702.912, 855.4439
2704.840, 839.3302
2706.769, 858.8621
2708.697, 855.9840
2710.626, 837.7151
2712.554, 827.2763
2714.483, 821.4864
2716.411, 821.6082
2718.340, 831.4837
2720.268, 839.8116
2722.197, 838.3904
2724.125, 818.8045
2726.053, 807.3280
2727.982, 798.9910
2729.910, 791.2668
2731.839, 797.7353
2733.767, 797.0447
2735.696, 787.1203
2737.624, 808.3553
2739.553, 810.4741
2741.481, 793.7467
2743.410, 792.5012
2745.338, 783.7693
2747.267, 768.3268
2749.195, 750.3392
2751.124, 747.9771
2753.052, 748.3421
2754.980, 738.4655
2756.909, 734.0624
2758.837, 735.3145
2760.766, 741.0059
2762.694, 747.1028
2764.623, 742.9673
2766.551, 729.3690
2768.480, 720.3391
2770.408, 715.1392
2772.337, 714.9635
2774.265, 728.1536
2776.194, 721.7706
2778.122, 707.9116
2780.051, 709.1122
2781.979, 695.6641
2783.907, 685.1530
2785.836, 692.5347
2787.764, 693.4720
2789.693, 706.7295
2791.621, 733.0579
2793.550, 721.4163
2795.478, 696.0510
2797.407, 670.3804
2799.335, 660.9811
2801.264, 666.6071
2803.192, 677.4658
2805.121, 684.3607
2807.049, 685.7440
2808.978, 679.9959
2810.906, 668.6253
2812.834, 669.6288
2814.763, 670.4022
2816.691, 667.0857
2818.620, 662.8314
2820.548, 653.2820
2822.477, 643.4135
2824.405, 639.5557
2826.334, 663.1151
2828.262, 678.0135
2830.191, 656.8589
2832.119, 647.3378
2834.048, 652.1497
2835.976, 662.9109
2837.905, 636.0401
2839.833, 621.8193
2841.761, 622.1924
2843.690, 625.3665
2845.618, 626.5831
2847.547, 634.2097
2849.475, 657.7376
2851.404, 629.6196
2853.332, 606.7326
2855.261, 605.7979
2857.189, 599.8032
2859.118, 621.2387
2861.046, 640.1365
2862.975, 606.3491
2864.903, 603.6392
2866.832, 609.8008
2868.760, 607.0486
2870.688, 597.6759
2872.617, 605.5988
2874.545, 620.6760
2876.474, 584.9650
2878.402, 580.9772
2880.331, 592.6820
2882.259, 593.7713
2884.188, 602.4540
2886.116, 599.6296
2888.045, 584.0530
2889.973, 587.5444
2891.902, 588.5746
2893.830, 589.6589
2895.759, 607.1617
2897.687, 597.7784
2899.615, 584.1790
2901.544, 581.9867
2903.472, 584.5890
2905.401, 582.8386
2907.329, 579.9355
2909.258, 589.5544
2911.186, 578.5618
2913.115, 570.0331
2915.043, 583.3015
2916.972, 570.6437
2918.900, 559.5001
2920.829, 553.2703
2922.757, 529.3401
2924.686, 551.3590
2926.614, 579.5177
2928.542, 576.0734
2930.471, 556.3011
2932.399, 544.9020
2934.328, 547.0933
2936.256, 554.5242
2938.185, 559.6823
2940.113, 562.5173
2942.042, 563.4055
2943.970, 540.6658
2945.899, 531.1942
2947.827, 539.0425
2949.756, 543.1427
2951.684, 545.2261
2953.613, 543.8751
2955.541, 536.9342
2957.469, 542.1118
2959.398, 551.4837
2961.326, 558.9647
2963.255, 556.1237
2965.183, 547.0369
2967.112, 538.1606
2969.040, 534.0777
2970.969, 541.1110
2972.897, 548.5164
2974.826, 552.3774
2976.754, 551.2415
2978.683, 539.1541
2980.611, 535.2565
2982.540, 544.8566
2984.468, 518.4811
2986.396, 523.8348
2988.325, 546.9987
2990.253, 552.2327
2992.182, 557.4532
2994.110, 554.1799
2996.039, 543.6861
2997.967, 543.4288
2999.896, 537.0164
3001.824, 531.2936
3003.753, 533.8159
3005.681, 543.2349
3007.610, 536.2787
3009.538, 523.6339
3011.467, 535.7085
3013.395, 561.6401
3015.323, 575.2854
3017.252, 564.7531
3019.180, 533.5970
3021.109, 564.8323
3023.037, 595.6553
3024.966, 549.2274
3026.894, 550.9628
3028.823, 569.9134
3030.751, 582.1938
3032.680, 561.0410
3034.608, 568.0291
3036.537, 581.9344
3038.465, 583.8843
3040.394, 542.3979
3042.322, 549.9767
3044.250, 591.2755
3046.179, 633.1621
3048.107, 601.0880
3050.036, 578.8373
3051.964, 583.7861
3053.893, 605.4511
3055.821, 610.5009
3057.750, 601.9924
3059.678, 592.1832
3061.607, 612.7512
3063.535, 619.9153
3065.464, 625.3850
3067.392, 638.1545
3069.321, 635.2119
3071.249, 624.8088
3073.177, 621.2003
3075.106, 638.6374
3077.034, 658.5818
3078.963, 655.4286
3080.891, 651.0384
3082.820, 692.3052
3084.748, 695.7596
3086.677, 688.6946
3088.605, 687.9993
3090.534, 700.4531
3092.462, 698.8015
3094.391, 712.4743
3096.319, 745.6738
3098.248, 729.2159
3100.176, 738.7014
3102.104, 753.9105
3104.033, 754.9870
3105.961, 753.7845
3107.890, 767.4781
3109.818, 780.6129
3111.747, 776.4469
3113.675, 776.4545
3115.604, 799.7330
3117.532, 831.1891
3119.461, 844.3831
3121.389, 864.5325
3123.318, 877.1580
3125.246, 884.7971
3127.175, 903.2075
3129.103, 883.0590
3131.031, 875.0439
3132.960, 896.6605
3134.888, 945.1851
3136.817, 944.5923
3138.745, 956.2790
3140.674, 991.7575
3142.602, 1000.717
3144.531, 1041.894
3146.459, 1061.427
3148.388, 1048.308
3150.316, 1061.038
3152.245, 1054.366
3154.173, 1062.501
3156.102, 1095.041
3158.030, 1120.143
3159.958, 1115.800
3161.887, 1134.172
3163.815, 1185.918
3165.744, 1212.151
3167.672, 1203.821
3169.601, 1217.094
3171.529, 1263.661
3173.458, 1259.630
3175.386, 1279.052
3177.315, 1293.002
3179.243, 1292.186
3181.172, 1340.044
3183.100, 1375.048
3185.029, 1397.669
3186.957, 1422.328
3188.885, 1489.859
3190.814, 1490.705
3192.742, 1488.079
3194.671, 1523.673
3196.599, 1598.415
3198.528, 1589.084
3200.456, 1599.037
3202.385, 1661.616
3204.313, 1704.773
3206.242, 1763.913
3208.170, 1813.966
3210.099, 1847.525
3212.027, 1872.846
3213.956, 1928.282
3215.884, 1995.232
3217.813, 2063.439
3219.741, 2130.567
3221.669, 2186.155
3223.598, 2276.322
3225.526, 2379.273
3227.455, 2440.918
3229.383, 2489.031
3231.312, 2589.461
3233.240, 2714.949
3235.169, 2816.121
3237.097, 2902.740
3239.026, 3075.267
3240.954, 3252.933
3242.883, 3363.889
3244.811, 3543.592
3246.740, 3765.579
3248.668, 3993.186
3250.596, 4217.028
3252.525, 4490.697
3254.453, 4788.576
3256.382, 5125.303
3258.310, 5483.336
3260.239, 5799.542
3262.167, 6135.430
3264.096, 6515.611
3266.024, 6884.184
3267.953, 7148.020
3269.881, 7462.522
3271.810, 7739.534
3273.738, 7946.652
3275.667, 8080.350
3277.595, 8143.273
3279.523, 8114.854
3281.452, 8080.074
3283.380, 8072.574
3285.309, 7971.604
3287.237, 7844.885
3289.166, 7788.284
3291.094, 7760.662
3293.023, 7603.897
3294.951, 7479.717
3296.880, 7326.314
3298.808, 7179.879
3300.737, 7096.937
3302.665, 7022.761
3304.594, 6904.342
3306.522, 6762.775
3308.450, 6622.424
3310.379, 6503.517
3312.307, 6330.884
3314.236, 6211.989
3316.164, 6146.783
3318.093, 6060.113
3320.021, 5925.008
3321.950, 5884.389
3323.878, 5848.492
3325.807, 5729.595
3327.735, 5687.988
3329.664, 5606.641
3331.592, 5541.647
3333.521, 5500.627
3335.449, 5417.315
3337.377, 5362.768
3339.306, 5317.322
3341.234, 5290.605
3343.163, 5297.126
3345.091, 5336.296
3347.020, 5355.098
3348.948, 5374.185
3350.877, 5404.801
3352.805, 5441.369
3354.734, 5591.226
3356.662, 5683.271
3358.591, 5767.543
3360.519, 5931.300
3362.448, 6118.987
3364.376, 6317.712
3366.304, 6583.501
3368.233, 6884.301
3370.161, 7114.936
3372.090, 7490.023
3374.018, 7787.154
3375.947, 8065.685
3377.875, 8419.874
3379.804, 8852.485
3381.732, 9309.131
3383.661, 9761.609
3385.589, 10223.14
3387.518, 10722.77
3389.446, 11337.69
3391.375, 11881.31
3393.303, 12445.10
3395.231, 13035.96
3397.160, 13506.31
3399.088, 13894.40
3401.017, 14247.60
3402.945, 14404.70
3404.874, 14268.19
3406.802, 14007.61
3408.731, 13520.12
3410.659, 12977.76
3412.588, 12377.24
3414.516, 11664.22
3416.445, 11028.45
3418.373, 10458.97
3420.302, 9895.286
3422.230, 9394.116
3424.158, 9100.066
3426.087, 8616.456
3428.015, 8119.556
3429.944, 7743.243
3431.872, 7459.026
3433.801, 7060.192
3435.729, 6623.125
3437.658, 6203.718
3439.586, 5847.737
3441.515, 5558.128
3443.443, 5272.456
3445.372, 4918.486
3447.300, 4648.044
3449.229, 4434.638
3451.157, 4212.727
3453.085, 3969.073
3455.014, 3769.613
3456.942, 3593.672
##END=



