##NAMES=Euxenite-(Y)
##RRUFFID=R070324
##IDEAL CHEMISTRY=Y(NbTi)O_6_
##LOCALITY=Impilahti Parish, Lake Ladoga region, Russia
##OWNER=RRUFF
##SOURCE=James Shigley
##DESCRIPTION=Vitreous amorphous dark brown massive
##STATUS=The identification of this mineral is not yet confirmed
##URL=https://www.rruff.net/odr/rruff_sample/R070324
##DIFFRACTION SAMPLE DESCRIPTION=Powder
##FILETYPE=Raman RAW
##RAMAN WAVELENGTH=532

129.5674, 1122.658
131.4958, 1235.363
133.4243, 1371.635
135.3528, 1507.545
137.2813, 1640.929
139.2097, 1773.580
141.1382, 1907.494
143.0667, 2047.442
144.9951, 2184.490
146.9236, 2314.318
148.8521, 2433.608
150.7805, 2549.201
152.7090, 2660.822
154.6375, 2768.931
156.5659, 2872.814
158.4944, 2974.167
160.4229, 3070.356
162.3513, 3158.471
164.2798, 3240.674
166.2083, 3312.717
168.1367, 3370.855
170.0652, 3414.739
171.9937, 3456.501
173.9221, 3499.355
175.8506, 3540.366
177.7791, 3575.290
179.7075, 3602.183
181.6360, 3626.025
183.5645, 3649.546
185.4929, 3675.178
187.4214, 3695.429
189.3499, 3705.221
191.2783, 3709.607
193.2068, 3719.653
195.1353, 3743.079
197.0637, 3766.532
198.9922, 3782.632
200.9207, 3783.828
202.8491, 3788.795
204.7776, 3803.415
206.7061, 3824.381
208.6345, 3840.361
210.5630, 3850.047
212.4915, 3854.635
214.4199, 3851.833
216.3484, 3834.251
218.2769, 3824.844
220.2053, 3836.302
222.1338, 3868.850
224.0623, 3887.984
225.9907, 3883.019
227.9192, 3869.680
229.8477, 3864.428
231.7761, 3869.319
233.7046, 3877.254
235.6331, 3888.107
237.5615, 3905.226
239.4900, 3911.113
241.4185, 3896.321
243.3469, 3874.375
245.2754, 3862.097
247.2039, 3867.737
249.1323, 3871.470
251.0608, 3865.971
252.9893, 3846.603
254.9177, 3830.015
256.8462, 3814.886
258.7747, 3803.182
260.7031, 3796.953
262.6316, 3802.761
264.5601, 3807.796
266.4885, 3807.836
268.4170, 3801.769
270.3455, 3794.506
272.2739, 3786.976
274.2024, 3778.302
276.1309, 3766.959
278.0593, 3743.785
279.9878, 3725.721
281.9163, 3723.707
283.8447, 3740.387
285.7732, 3747.118
287.7017, 3731.812
289.6301, 3703.805
291.5586, 3677.881
293.4871, 3651.158
295.4155, 3628.775
297.3440, 3614.754
299.2725, 3608.832
301.2009, 3603.801
303.1294, 3600.841
305.0579, 3597.691
306.9863, 3589.225
308.9148, 3568.010
310.8433, 3548.858
312.7717, 3539.936
314.7002, 3541.904
316.6287, 3537.611
318.5571, 3520.820
320.4856, 3496.910
322.4141, 3474.418
324.3425, 3449.801
326.2710, 3430.307
328.1995, 3419.784
330.1279, 3418.516
332.0564, 3418.080
333.9849, 3417.813
335.9133, 3417.622
337.8418, 3417.919
339.7703, 3421.874
341.6987, 3421.396
343.6272, 3412.208
345.5557, 3393.377
347.4841, 3376.476
349.4126, 3362.310
351.3411, 3350.005
353.2695, 3338.825
355.1980, 3328.959
357.1265, 3319.615
359.0549, 3311.503
360.9834, 3305.072
362.9119, 3294.860
364.8403, 3275.118
366.7688, 3255.655
368.6973, 3245.073
370.6257, 3245.358
372.5542, 3246.820
374.4827, 3247.175
376.4111, 3246.507
378.3396, 3245.348
380.2681, 3246.482
382.1965, 3245.118
384.1250, 3237.013
386.0535, 3220.613
387.9819, 3206.801
389.9104, 3199.874
391.8389, 3197.367
393.7673, 3191.988
395.6958, 3176.378
397.6243, 3165.062
399.5527, 3167.089
401.4812, 3183.444
403.4097, 3193.106
405.3381, 3190.715
407.2666, 3180.976
409.1951, 3169.119
411.1235, 3151.325
413.0520, 3136.948
414.9805, 3128.924
416.9089, 3126.538
418.8374, 3128.798
420.7659, 3143.602
422.6943, 3158.146
424.6228, 3160.695
426.5513, 3146.702
428.4797, 3134.192
430.4082, 3127.554
432.3367, 3125.455
434.2651, 3125.428
436.1936, 3129.665
438.1221, 3134.092
440.0505, 3136.461
441.9790, 3136.245
443.9075, 3137.994
445.8359, 3146.885
447.7644, 3156.750
449.6929, 3159.773
451.6213, 3145.790
453.5498, 3134.808
455.4783, 3131.044
457.4067, 3134.198
459.3352, 3138.927
461.2637, 3151.995
463.1921, 3160.645
465.1206, 3155.401
467.0491, 3115.721
468.9775, 3093.949
470.9060, 3106.064
472.8345, 3137.674
474.7629, 3154.895
476.6914, 3148.789
478.6199, 3140.153
480.5483, 3137.246
482.4768, 3142.083
484.4053, 3145.454
486.3337, 3148.577
488.2622, 3149.639
490.1907, 3146.358
492.1191, 3137.151
494.0476, 3128.934
495.9761, 3122.375
497.9045, 3117.797
499.8330, 3117.802
501.7615, 3126.779
503.6899, 3135.807
505.6184, 3140.789
507.5469, 3142.055
509.4753, 3142.806
511.4038, 3140.578
513.3323, 3139.527
515.2607, 3143.946
517.1892, 3165.703
519.1177, 3178.599
521.0461, 3172.926
522.9746, 3155.724
524.9031, 3144.617
526.8315, 3142.802
528.7600, 3145.814
530.6885, 3152.700
532.6169, 3165.307
534.5454, 3176.039
536.4739, 3182.589
538.4023, 3188.545
540.3308, 3197.070
542.2593, 3208.768
544.1877, 3221.404
546.1162, 3237.871
548.0447, 3255.649
549.9731, 3263.933
551.9016, 3247.682
553.8301, 3237.685
555.7585, 3251.946
557.6870, 3287.711
559.6155, 3312.833
561.5439, 3310.226
563.4724, 3302.954
565.4009, 3307.780
567.3293, 3335.327
569.2578, 3355.643
571.1863, 3359.823
573.1147, 3356.494
575.0432, 3358.711
576.9717, 3369.110
578.9001, 3382.314
580.8286, 3398.038
582.7571, 3416.208
584.6855, 3431.584
586.6140, 3444.529
588.5425, 3454.508
590.4709, 3458.900
592.3994, 3456.472
594.3279, 3460.722
596.2563, 3481.649
598.1848, 3506.641
600.1133, 3521.561
602.0417, 3520.382
603.9702, 3519.459
605.8987, 3519.351
607.8271, 3521.442
609.7556, 3528.906
611.6841, 3548.226
613.6125, 3564.858
615.5410, 3571.835
617.4695, 3568.015
619.3979, 3570.577
621.3264, 3584.478
623.2549, 3600.584
625.1833, 3613.774
627.1118, 3623.949
629.0403, 3633.257
630.9688, 3646.597
632.8972, 3657.293
634.8257, 3656.554
636.7542, 3629.524
638.6826, 3614.220
640.6111, 3626.081
642.5396, 3651.468
644.4680, 3665.092
646.3965, 3657.957
648.3250, 3650.513
650.2534, 3650.397
652.1819, 3657.513
654.1104, 3660.466
656.0388, 3653.360
657.9673, 3647.624
659.8958, 3651.010
661.8242, 3662.983
663.7527, 3671.677
665.6812, 3670.989
667.6096, 3668.729
669.5381, 3670.230
671.4666, 3681.455
673.3950, 3687.095
675.3235, 3679.175
677.2520, 3668.849
679.1804, 3671.448
681.1089, 3694.302
683.0374, 3711.247
684.9658, 3710.800
686.8943, 3698.875
688.8228, 3693.701
690.7512, 3701.932
692.6797, 3709.298
694.6082, 3709.806
696.5366, 3705.844
698.4651, 3707.240
700.3936, 3718.899
702.3220, 3731.302
704.2505, 3739.031
706.1790, 3739.772
708.1074, 3747.316
710.0359, 3766.522
711.9644, 3788.022
713.8928, 3806.591
715.8213, 3822.673
717.7498, 3834.320
719.6782, 3836.471
721.6067, 3836.732
723.5352, 3840.546
725.4636, 3844.175
727.3921, 3859.233
729.3206, 3897.230
731.2490, 3942.982
733.1775, 3972.509
735.1060, 3979.831
737.0344, 3989.774
738.9629, 4011.558
740.8914, 4040.749
742.8198, 4069.428
744.7483, 4098.571
746.6768, 4125.731
748.6052, 4147.220
750.5337, 4165.631
752.4622, 4191.510
754.3906, 4226.508
756.3191, 4266.325
758.2476, 4313.121
760.1760, 4365.015
762.1045, 4409.431
764.0330, 4431.427
765.9614, 4459.011
767.8899, 4506.575
769.8184, 4576.173
771.7468, 4632.479
773.6753, 4666.236
775.6038, 4695.067
777.5322, 4725.967
779.4607, 4758.701
781.3892, 4797.856
783.3176, 4852.657
785.2461, 4907.498
787.1746, 4953.616
789.1030, 4987.869
791.0315, 5022.007
792.9600, 5053.281
794.8884, 5086.347
796.8169, 5125.796
798.7454, 5172.501
800.6738, 5217.035
802.6023, 5263.725
804.5308, 5303.514
806.4592, 5328.119
808.3877, 5325.893
810.3162, 5326.836
812.2446, 5331.803
814.1731, 5339.518
816.1016, 5349.195
818.0300, 5361.375
819.9585, 5372.579
821.8870, 5386.571
823.8154, 5396.840
825.7439, 5395.086
827.6724, 5368.687
829.6008, 5351.512
831.5293, 5361.560
833.4578, 5376.153
835.3862, 5358.737
837.3147, 5299.313
839.2432, 5246.605
841.1716, 5222.247
843.1001, 5208.012
845.0286, 5180.344
846.9570, 5131.947
848.8855, 5084.537
850.8140, 5043.666
852.7424, 5005.285
854.6709, 4962.636
856.5994, 4914.724
858.5278, 4865.198
860.4563, 4815.167
862.3848, 4763.505
864.3132, 4709.944
866.2417, 4655.876
868.1702, 4595.021
870.0986, 4520.401
872.0271, 4440.209
873.9556, 4367.603
875.8840, 4312.823
877.8125, 4251.567
879.7410, 4175.117
881.6694, 4094.107
883.5979, 4023.631
885.5264, 3966.898
887.4548, 3909.373
889.3833, 3846.835
891.3118, 3781.469
893.2402, 3715.036
895.1687, 3644.129
897.0972, 3578.251
899.0256, 3522.716
900.9541, 3470.498
902.8826, 3411.181
904.8110, 3342.594
906.7395, 3276.570
908.6680, 3216.605
910.5964, 3160.098
912.5249, 3104.839
914.4534, 3051.035
916.3818, 2997.874
918.3103, 2943.673
920.2388, 2890.843
922.1672, 2842.480
924.0957, 2801.935
926.0242, 2757.532
927.9526, 2703.377
929.8811, 2649.108
931.8096, 2600.950
933.7380, 2558.439
935.6665, 2524.299
937.5950, 2508.260
939.5234, 2493.301
941.4519, 2468.383
943.3804, 2429.096
945.3088, 2395.460
947.2373, 2367.320
949.1658, 2344.293
951.0942, 2327.515
953.0227, 2316.842
954.9512, 2307.492
956.8796, 2304.055
958.8081, 2295.748
960.7366, 2272.886
962.6650, 2237.627
964.5935, 2212.738
966.5220, 2207.511
968.4504, 2204.882
970.3789, 2200.186
972.3074, 2193.913
974.2358, 2189.784
976.1643, 2193.695
978.0928, 2192.014
980.0212, 2175.424
981.9497, 2151.419
983.8782, 2135.582
985.8066, 2131.588
987.7351, 2128.212
989.6636, 2123.603
991.5920, 2117.049
993.5205, 2106.779
995.4490, 2083.093
997.3774, 2071.063
999.3059, 2083.455
1001.234, 2102.306
1003.163, 2104.634
1005.091, 2087.350
1007.020, 2074.810
1008.948, 2078.070
1010.877, 2081.523
1012.805, 2071.221
1014.734, 2045.451
1016.662, 2030.870
1018.591, 2043.558
1020.519, 2056.889
1022.448, 2056.607
1024.376, 2041.721
1026.304, 2036.485
1028.233, 2051.271
1030.161, 2063.369
1032.090, 2062.771
1034.018, 2053.101
1035.947, 2045.940
1037.875, 2042.661
1039.804, 2039.615
1041.732, 2033.361
1043.661, 2027.091
1045.589, 2027.163
1047.518, 2038.836
1049.446, 2046.233
1051.375, 2041.780
1053.303, 2035.591
1055.231, 2040.328
1057.160, 2062.242
1059.088, 2073.542
1061.017, 2064.163
1062.945, 2050.791
1064.874, 2043.753
1066.802, 2042.302
1068.731, 2041.859
1070.659, 2039.709
1072.588, 2041.792
1074.516, 2054.339
1076.445, 2074.468
1078.373, 2085.110
1080.302, 2075.373
1082.230, 2069.062
1084.158, 2070.040
1086.087, 2076.490
1088.015, 2086.770
1089.944, 2104.332
1091.872, 2114.775
1093.801, 2110.705
1095.729, 2101.814
1097.658, 2093.900
1099.586, 2086.793
1101.515, 2087.331
1103.443, 2108.432
1105.372, 2124.242
1107.300, 2118.313
1109.229, 2092.190
1111.157, 2077.706
1113.085, 2085.038
1115.014, 2091.505
1116.942, 2088.451
1118.871, 2082.146
1120.799, 2088.228
1122.728, 2113.772
1124.656, 2127.952
1126.585, 2112.063
1128.513, 2090.803
1130.442, 2084.408
1132.370, 2093.147
1134.299, 2104.117
1136.227, 2121.371
1138.156, 2133.591
1140.084, 2132.508
1142.012, 2120.084
1143.941, 2114.535
1145.869, 2119.986
1147.798, 2127.223
1149.726, 2138.045
1151.655, 2148.705
1153.583, 2151.262
1155.512, 2142.720
1157.440, 2139.953
1159.369, 2153.059
1161.297, 2166.721
1163.226, 2167.193
1165.154, 2156.678
1167.083, 2156.701
1169.011, 2177.638
1170.939, 2197.327
1172.868, 2207.144
1174.796, 2209.809
1176.725, 2212.778
1178.653, 2218.911
1180.582, 2220.585
1182.510, 2211.381
1184.439, 2201.505
1186.367, 2201.188
1188.296, 2211.917
1190.224, 2222.184
1192.153, 2234.548
1194.081, 2243.245
1196.010, 2241.142
1197.938, 2233.761
1199.866, 2235.844
1201.795, 2252.774
1203.723, 2265.506
1205.652, 2262.366
1207.580, 2256.049
1209.509, 2259.601
1211.437, 2276.753
1213.366, 2286.272
1215.294, 2277.610
1217.223, 2271.335
1219.151, 2280.178
1221.080, 2299.657
1223.008, 2307.056
1224.937, 2292.443
1226.865, 2283.281
1228.793, 2286.157
1230.722, 2294.993
1232.650, 2304.047
1234.579, 2313.323
1236.507, 2323.309
1238.436, 2336.086
1240.364, 2346.771
1242.293, 2350.154
1244.221, 2349.768
1246.150, 2356.183
1248.078, 2373.743
1250.007, 2387.867
1251.935, 2394.014
1253.864, 2396.939
1255.792, 2400.561
1257.720, 2405.381
1259.649, 2407.858
1261.577, 2402.620
1263.506, 2401.557
1265.434, 2412.912
1267.363, 2430.250
1269.291, 2438.141
1271.220, 2433.405
1273.148, 2431.982
1275.077, 2439.577
1277.005, 2448.602
1278.934, 2453.137
1280.862, 2454.539
1282.791, 2459.579
1284.719, 2471.584
1286.647, 2481.124
1288.576, 2482.588
1290.504, 2481.168
1292.433, 2481.982
1294.361, 2484.566
1296.290, 2491.843
1298.218, 2513.552
1300.147, 2529.694
1302.075, 2527.340
1304.004, 2513.106
1305.932, 2508.630
1307.861, 2522.039
1309.789, 2533.288
1311.718, 2540.276
1313.646, 2546.029
1315.574, 2553.179
1317.503, 2561.480
1319.431, 2567.334
1321.360, 2567.406
1323.288, 2571.087
1325.217, 2589.061
1327.145, 2607.569
1329.074, 2609.505
1331.002, 2594.410
1332.931, 2583.230
1334.859, 2578.381
1336.788, 2579.074
1338.716, 2588.458
1340.645, 2602.124
1342.573, 2608.773
1344.501, 2603.312
1346.430, 2606.406
1348.358, 2634.323
1350.287, 2657.932
1352.215, 2656.362
1354.144, 2634.396
1356.072, 2624.687
1358.001, 2635.647
1359.929, 2647.279
1361.858, 2661.053
1363.786, 2672.686
1365.715, 2677.899
1367.643, 2676.587
1369.572, 2674.893
1371.500, 2670.838
1373.428, 2669.637
1375.357, 2673.585
1377.285, 2680.662
1379.214, 2689.321
1381.142, 2699.466
1383.071, 2708.874
1384.999, 2718.288
1386.928, 2725.234
1388.856, 2727.122
1390.785, 2726.564
1392.713, 2724.324
1394.642, 2718.886
1396.570, 2727.338
1398.499, 2770.861
1400.427, 2803.721
1402.355, 2800.220
1404.284, 2775.304
1406.212, 2760.201
1408.141, 2754.894
1410.069, 2759.943
1411.998, 2786.008
1413.926, 2810.463
1415.855, 2820.984
1417.783, 2821.973
1419.712, 2826.842
1421.640, 2843.576
1423.569, 2850.612
1425.497, 2835.656
1427.426, 2823.320
1429.354, 2831.852
1431.282, 2854.621
1433.211, 2865.584
1435.139, 2858.933
1437.068, 2858.234
1438.996, 2878.558
1440.925, 2894.854
1442.853, 2882.847
1444.782, 2854.523
1446.710, 2848.653
1448.639, 2872.473
1450.567, 2892.713
1452.496, 2901.390
1454.424, 2904.301
1456.353, 2899.114
1458.281, 2891.461
1460.209, 2900.148
1462.138, 2931.375
1464.066, 2957.294
1465.995, 2973.081
1467.923, 2979.304
1469.852, 2970.007
1471.780, 2951.009
1473.709, 2946.487
1475.637, 2960.933
1477.566, 2976.746
1479.494, 2990.298
1481.423, 3004.842
1483.351, 3026.985
1485.280, 3051.829
1487.208, 3060.599
1489.136, 3046.114
1491.065, 3031.940
1492.993, 3010.837
1494.922, 3000.193
1496.850, 3011.242
1498.779, 3038.885
1500.707, 3070.474
1502.636, 3118.409
1504.564, 3144.834
1506.493, 3134.331
1508.421, 3120.628
1510.350, 3118.560
1512.278, 3123.002
1514.207, 3123.022
1516.135, 3115.282
1518.063, 3114.870
1519.992, 3127.082
1521.920, 3140.516
1523.849, 3151.405
1525.777, 3161.133
1527.706, 3173.113
1529.634, 3187.955
1531.563, 3195.093
1533.491, 3187.561
1535.420, 3182.443
1537.348, 3182.551
1539.277, 3189.367
1541.205, 3211.206
1543.134, 3244.524
1545.062, 3257.852
1546.990, 3238.041
1548.919, 3227.063
1550.847, 3246.617
1552.776, 3271.478
1554.704, 3281.127
1556.633, 3280.480
1558.561, 3286.120
1560.490, 3301.743
1562.418, 3309.610
1564.347, 3296.271
1566.275, 3285.441
1568.204, 3297.511
1570.132, 3319.765
1572.061, 3324.881
1573.989, 3309.723
1575.917, 3309.406
1577.846, 3340.050
1579.774, 3368.749
1581.703, 3378.491
1583.631, 3379.654
1585.560, 3383.174
1587.488, 3388.953
1589.417, 3394.679
1591.345, 3400.056
1593.274, 3405.623
1595.202, 3411.658
1597.131, 3417.867
1599.059, 3422.927
1600.988, 3427.775
1602.916, 3437.303
1604.844, 3452.930
1606.773, 3468.385
1608.701, 3484.504
1610.630, 3497.617
1612.558, 3504.308
1614.487, 3507.693
1616.415, 3512.473
1618.344, 3518.356
1620.272, 3529.279
1622.201, 3553.017
1624.129, 3568.791
1626.058, 3561.120
1627.986, 3551.485
1629.915, 3561.415
1631.843, 3588.273
1633.771, 3604.028
1635.700, 3604.695
1637.628, 3604.982
1639.557, 3605.046
1641.485, 3607.728
1643.414, 3618.379
1645.342, 3630.810
1647.271, 3630.991
1649.199, 3615.405
1651.128, 3613.947
1653.056, 3634.909
1654.985, 3658.810
1656.913, 3691.737
1658.842, 3716.130
1660.770, 3711.941
1662.698, 3685.742
1664.627, 3673.286
1666.555, 3678.320
1668.484, 3685.424
1670.412, 3693.010
1672.341, 3702.335
1674.269, 3715.437
1676.198, 3729.499
1678.126, 3740.670
1680.055, 3748.789
1681.983, 3758.065
1683.912, 3769.400
1685.840, 3779.953
1687.769, 3789.807
1689.697, 3798.119
1691.625, 3807.264
1693.554, 3813.653
1695.482, 3805.196
1697.411, 3777.075
1699.339, 3771.244
1701.268, 3806.947
1703.196, 3834.975
1705.125, 3833.457
1707.053, 3829.163
1708.982, 3842.663
1710.910, 3868.916
1712.839, 3891.263
1714.767, 3910.817
1716.696, 3919.142
1718.624, 3901.615
1720.552, 3895.059
1722.481, 3922.693
1724.409, 3956.593
1726.338, 3971.802
1728.266, 3971.700
1730.195, 3974.414
1732.123, 3981.032
1734.052, 3986.307
1735.980, 3990.760
1737.909, 3991.555
1739.837, 3976.607
1741.766, 3965.987
1743.694, 3987.364
1745.623, 4032.652
1747.551, 4057.543
1749.479, 4056.274
1751.408, 4055.108
1753.336, 4054.984
1755.265, 4062.193
1757.193, 4091.513
1759.122, 4120.748
1761.050, 4121.371
1762.979, 4100.840
1764.907, 4095.252
1766.836, 4108.880
1768.764, 4122.919
1770.693, 4132.256
1772.621, 4143.654
1774.550, 4166.343
1776.478, 4188.058
1778.406, 4193.364
1780.335, 4186.804
1782.263, 4185.617
1784.192, 4190.440
1786.120, 4201.358
1788.049, 4225.959
1789.977, 4244.514
1791.906, 4240.288
1793.834, 4233.130
1795.763, 4244.686
1797.691, 4269.927
1799.620, 4288.547
1801.548, 4299.464
1803.477, 4309.488
1805.405, 4321.462
1807.333, 4329.504
1809.262, 4328.851
1811.190, 4326.417
1813.119, 4323.441
1815.047, 4323.676
1816.976, 4340.956
1818.904, 4382.517
1820.833, 4409.309
1822.761, 4408.006
1824.690, 4411.742
1826.618, 4431.113
1828.547, 4451.564
1830.475, 4466.132
1832.404, 4474.815
1834.332, 4475.396
1836.260, 4466.724
1838.189, 4465.196
1840.117, 4473.425
1842.046, 4484.073
1843.974, 4495.088
1845.903, 4509.954
1847.831, 4535.305
1849.760, 4561.308
1851.688, 4578.833
1853.617, 4587.585
1855.545, 4582.791
1857.474, 4560.208
1859.402, 4545.212
1861.331, 4538.461
1863.259, 4543.878
1865.188, 4568.563
1867.116, 4599.958
1869.044, 4636.250
1870.973, 4670.406
1872.901, 4687.947
1874.830, 4689.464
1876.758, 4685.210
1878.687, 4672.672
1880.615, 4667.189
1882.544, 4674.272
1884.472, 4686.578
1886.401, 4705.137
1888.329, 4723.515
1890.258, 4736.111
1892.186, 4742.688
1894.115, 4738.624
1896.043, 4719.028
1897.971, 4721.210
1899.900, 4770.689
1901.828, 4805.443
1903.757, 4799.154
1905.685, 4790.182
1907.614, 4803.273
1909.542, 4826.140
1911.471, 4842.096
1913.399, 4851.249
1915.328, 4855.285
1917.256, 4849.205
1919.185, 4850.022
1921.113, 4867.096
1923.042, 4878.671
1924.970, 4871.385
1926.898, 4866.228
1928.827, 4876.817
1930.755, 4898.694
1932.684, 4928.163
1934.612, 4963.709
1936.541, 4986.714
1938.469, 4994.046
1940.398, 5002.090
1942.326, 5016.114
1944.255, 5026.112
1946.183, 5026.372
1948.112, 5023.130
1950.040, 5013.048
1951.969, 5006.340
1953.897, 5027.168
1955.825, 5071.259
1957.754, 5095.644
1959.682, 5094.688
1961.611, 5090.283
1963.539, 5075.206
1965.468, 5070.940
1967.396, 5088.121
1969.325, 5112.702
1971.253, 5141.302
1973.182, 5167.715
1975.110, 5180.043
1977.039, 5179.139
1978.967, 5179.482
1980.896, 5179.982
1982.824, 5185.744
1984.752, 5200.246
1986.681, 5214.161
1988.609, 5224.508
1990.538, 5234.458
1992.466, 5245.065
1994.395, 5256.586
1996.323, 5270.692
1998.252, 5285.806
2000.180, 5296.259
2002.109, 5301.761
2004.037, 5308.335
2005.966, 5315.622
2007.894, 5326.902
2009.823, 5345.822
2011.751, 5365.233
2013.679, 5383.782
2015.608, 5400.050
2017.536, 5415.316
2019.465, 5426.370
2021.393, 5423.135
2023.322, 5405.202
2025.250, 5394.703
2027.179, 5388.678
2029.107, 5398.723
2031.036, 5441.415
2032.964, 5473.342
2034.893, 5477.395
2036.821, 5475.772
2038.750, 5474.814
2040.678, 5477.993
2042.606, 5491.971
2044.535, 5512.648
2046.463, 5527.892
2048.392, 5537.782
2050.320, 5551.943
2052.249, 5573.277
2054.177, 5591.040
2056.106, 5601.048
2058.034, 5610.341
2059.963, 5625.360
2061.891, 5635.518
2063.820, 5628.409
2065.748, 5615.944
2067.677, 5614.059
2069.605, 5621.265
2071.533, 5631.568
2073.462, 5646.094
2075.390, 5654.150
2077.319, 5651.213
2079.247, 5656.784
2081.176, 5683.155
2083.104, 5700.226
2085.033, 5682.655
2086.961, 5669.635
2088.890, 5695.603
2090.818, 5734.114
2092.747, 5753.910
2094.675, 5759.591
2096.604, 5764.995
2098.532, 5769.956
2100.460, 5776.579
2102.389, 5782.768
2104.317, 5794.745
2106.246, 5819.217
2108.174, 5839.708
2110.103, 5852.550
2112.031, 5860.868
2113.960, 5860.767
2115.888, 5861.768
2117.817, 5879.493
2119.745, 5902.671
2121.674, 5900.990
2123.602, 5880.510
2125.531, 5883.655
2127.459, 5916.011
2129.387, 5929.087
2131.316, 5903.454
2133.244, 5892.187
2135.173, 5915.441
2137.101, 5941.889
2139.030, 5962.594
2140.958, 5980.313
2142.887, 6002.930
2144.815, 6019.157
2146.744, 6002.148
2148.672, 5967.433
2150.601, 5973.411
2152.529, 6017.711
2154.458, 6057.827
2156.386, 6093.602
2158.314, 6106.194
2160.243, 6081.202
2162.171, 6066.417
2164.100, 6079.646
2166.028, 6099.506
2167.957, 6126.144
2169.885, 6146.705
2171.814, 6142.923
2173.742, 6133.917
2175.671, 6150.386
2177.599, 6182.188
2179.528, 6195.641
2181.456, 6190.869
2183.385, 6188.023
2185.313, 6188.324
2187.241, 6180.750
2189.170, 6156.875
2191.098, 6151.232
2193.027, 6183.000
2194.955, 6214.824
2196.884, 6234.836
2198.812, 6247.082
2200.741, 6248.846
2202.669, 6248.673
2204.598, 6254.212
2206.526, 6265.055
2208.455, 6285.212
2210.383, 6311.663
2212.312, 6316.252
2214.240, 6297.875
2216.168, 6291.530
2218.097, 6300.921
2220.025, 6313.479
2221.954, 6329.249
2223.882, 6342.347
2225.811, 6351.620
2227.739, 6357.052
2229.668, 6352.570
2231.596, 6351.268
2233.525, 6365.871
2235.453, 6385.263
2237.382, 6394.315
2239.310, 6399.528
2241.239, 6418.595
2243.167, 6447.821
2245.095, 6466.443
2247.024, 6474.105
2248.952, 6465.645
2250.881, 6434.135
2252.809, 6431.830
2254.738, 6489.138
2256.666, 6525.342
2258.595, 6511.720
2260.523, 6492.004
2262.452, 6470.738
2264.380, 6459.259
2266.309, 6471.939
2268.237, 6489.346
2270.166, 6492.909
2272.094, 6490.802
2274.022, 6493.267
2275.951, 6500.458
2277.879, 6513.560
2279.808, 6532.099
2281.736, 6554.505
2283.665, 6584.228
2285.593, 6596.650
2287.522, 6567.158
2289.450, 6566.024
2291.379, 6616.983
2293.307, 6653.332
2295.236, 6656.646
2297.164, 6657.654
2299.093, 6668.636
2301.021, 6677.884
2302.949, 6672.146
2304.878, 6668.590
2306.806, 6685.227
2308.735, 6710.154
2310.663, 6729.842
2312.592, 6744.160
2314.520, 6749.795
2316.449, 6748.711
2318.377, 6758.872
2320.306, 6780.604
2322.234, 6795.497
2324.163, 6803.115
2326.091, 6797.909
2328.020, 6771.303
2329.948, 6765.184
2331.876, 6805.094
2333.805, 6834.585
2335.733, 6829.176
2337.662, 6826.736
2339.590, 6844.539
2341.519, 6864.678
2343.447, 6881.097
2345.376, 6891.561
2347.304, 6888.969
2349.233, 6883.811
2351.161, 6888.478
2353.090, 6899.335
2355.018, 6909.564
2356.947, 6920.027
2358.875, 6934.955
2360.803, 6954.205
2362.732, 6973.956
2364.660, 6997.262
2366.589, 6996.794
2368.517, 6965.174
2370.446, 6951.157
2372.374, 6965.083
2374.303, 6978.197
2376.231, 6983.250
2378.160, 6989.046
2380.088, 7002.885
2382.017, 7010.936
2383.945, 6998.597
2385.874, 6991.791
2387.802, 7008.417
2389.730, 7030.907
2391.659, 7043.491
2393.587, 7058.186
2395.516, 7096.088
2397.444, 7136.686
2399.373, 7147.621
2401.301, 7139.331
2403.230, 7135.195
2405.158, 7134.525
2407.087, 7133.217
2409.015, 7131.245
2410.944, 7132.510
2412.872, 7136.894
2414.801, 7151.639
2416.729, 7178.953
2418.657, 7198.466
2420.586, 7209.359
2422.514, 7206.158
2424.443, 7161.873
2426.371, 7147.742
2428.300, 7198.344
2430.228, 7240.597
2432.157, 7258.785
2434.085, 7266.403
2436.014, 7258.907
2437.942, 7256.706
2439.871, 7278.300
2441.799, 7300.797
2443.728, 7310.132
2445.656, 7310.248
2447.584, 7291.257
2449.513, 7276.939
2451.441, 7309.953
2453.370, 7362.074
2455.298, 7384.250
2457.227, 7384.771
2459.155, 7379.458
2461.084, 7370.217
2463.012, 7361.580
2464.941, 7354.329
2466.869, 7361.441
2468.798, 7384.533
2470.726, 7408.245
2472.655, 7434.619
2474.583, 7435.352
2476.511, 7404.343
2478.440, 7386.626
2480.368, 7386.193
2482.297, 7406.550
2484.225, 7474.788
2486.154, 7517.284
2488.082, 7499.064
2490.011, 7500.383
2491.939, 7552.948
2493.868, 7588.555
2495.796, 7576.721
2497.725, 7562.348
2499.653, 7566.640
2501.582, 7572.438
2503.510, 7565.437
2505.438, 7564.077
2507.367, 7588.490
2509.295, 7613.981
2511.224, 7617.299
2513.152, 7616.429
2515.081, 7620.141
2517.009, 7635.943
2518.938, 7689.798
2520.866, 7748.153
2522.795, 7753.107
2524.723, 7729.001
2526.652, 7721.694
2528.580, 7727.073
2530.509, 7737.073
2532.437, 7748.987
2534.365, 7754.884
2536.294, 7754.480
2538.222, 7741.275
2540.151, 7717.627
2542.079, 7726.843
2544.008, 7772.158
2545.936, 7798.010
2547.865, 7803.903
2549.793, 7806.795
2551.722, 7807.294
2553.650, 7811.851
2555.579, 7821.566
2557.507, 7832.795
2559.436, 7849.866
2561.364, 7857.521
2563.292, 7849.624
2565.221, 7852.714
2567.149, 7874.533
2569.078, 7886.910
2571.006, 7876.805
2572.935, 7878.292
2574.863, 7907.821
2576.792, 7936.056
2578.720, 7962.849
2580.649, 7978.170
2582.577, 7970.279
2584.506, 7971.291
2586.434, 8002.201
2588.363, 8023.250
2590.291, 8008.812
2592.219, 7993.844
2594.148, 7982.531
2596.076, 7989.634
2598.005, 8044.540
2599.933, 8089.406
2601.862, 8094.717
2603.790, 8083.408
2605.719, 8048.208
2607.647, 8029.101
2609.576, 8072.385
2611.504, 8121.022
2613.433, 8128.267
2615.361, 8123.089
2617.290, 8124.932
2619.218, 8131.287
2621.146, 8139.390
2623.075, 8151.604
2625.003, 8175.244
2626.932, 8199.553
2628.860, 8209.077
2630.789, 8214.657
2632.717, 8233.792
2634.646, 8254.309
2636.574, 8261.952
2638.503, 8259.747
2640.431, 8242.240
2642.360, 8224.878
2644.288, 8238.469
2646.217, 8267.218
2648.145, 8279.747
2650.073, 8287.237
2652.002, 8318.860
2653.930, 8356.582
2655.859, 8360.832
2657.787, 8347.684
2659.716, 8354.060
2661.644, 8373.097
2663.573, 8388.049
2665.501, 8400.565
2667.430, 8420.799
2669.358, 8439.708
2671.287, 8418.466
2673.215, 8381.300
2675.144, 8422.383
2677.072, 8509.591
2679.000, 8514.754
2680.929, 8468.102
2682.857, 8469.465
2684.786, 8505.595
2686.714, 8529.737
2688.643, 8544.412
2690.571, 8561.646
2692.500, 8578.651
2694.428, 8573.684
2696.357, 8558.247
2698.285, 8585.596
2700.214, 8639.200
2702.142, 8649.146
2704.071, 8625.415
2705.999, 8606.976
2707.927, 8596.440
2709.856, 8613.676
2711.784, 8649.370
2713.713, 8668.088
2715.641, 8674.286
2717.570, 8692.014
2719.498, 8715.227
2721.427, 8708.022
2723.355, 8681.787
2725.284, 8694.909
2727.212, 8735.940
2729.141, 8772.722
2731.069, 8801.599
2732.998, 8808.354
2734.926, 8797.838
2736.854, 8783.956
2738.783, 8770.082
2740.711, 8771.060
2742.640, 8781.612
2744.568, 8783.510
2746.497, 8783.605
2748.425, 8809.267
2750.354, 8846.885
2752.282, 8847.049
2754.211, 8830.903
2756.139, 8863.464
2758.068, 8914.704
2759.996, 8906.872
2761.925, 8876.185
2763.853, 8913.017
2765.781, 8980.300
2767.710, 9000.315
2769.638, 8995.228
2771.567, 8998.000
2773.495, 9006.744
2775.424, 9026.640
2777.352, 9043.587
2779.281, 9020.396
2781.209, 8992.090
2783.138, 9019.829
2785.066, 9062.508
2786.995, 9068.843
2788.923, 9064.783
2790.852, 9078.488
2792.780, 9102.142
2794.708, 9134.037
2796.637, 9163.665
2798.565, 9181.869
2800.494, 9193.216
2802.422, 9204.125
2804.351, 9207.109
2806.279, 9176.551
2808.208, 9161.382
2810.136, 9213.196
2812.065, 9262.477
2813.993, 9262.937
2815.922, 9247.565
2817.850, 9217.412
2819.779, 9204.675
2821.707, 9231.977
2823.635, 9267.130
2825.564, 9303.468
2827.492, 9331.590
2829.421, 9344.883
2831.349, 9353.569
2833.278, 9359.281
2835.206, 9363.745
2837.135, 9366.104
2839.063, 9370.654
2840.992, 9372.659
2842.920, 9388.918
2844.849, 9434.701
2846.777, 9465.478
2848.706, 9472.587
2850.634, 9480.598
2852.563, 9492.341
2854.491, 9511.282
2856.419, 9546.907
2858.348, 9564.497
2860.276, 9562.022
2862.205, 9550.602
2864.133, 9529.442
2866.062, 9551.382
2867.990, 9625.547
2869.919, 9663.914
2871.847, 9666.622
2873.776, 9651.345
2875.704, 9625.772
2877.633, 9645.920
2879.561, 9699.918
2881.490, 9728.111
2883.418, 9734.947
2885.346, 9734.949
2887.275, 9728.785
2889.203, 9711.625
2891.132, 9694.469
2893.060, 9699.513
2894.989, 9715.943
2896.917, 9728.972
2898.846, 9741.537
2900.774, 9755.384
2902.703, 9772.324
2904.631, 9796.603
2906.560, 9821.658
2908.488, 9855.790
2910.417, 9868.357
2912.345, 9817.053
2914.273, 9784.229
2916.202, 9830.983
2918.130, 9877.779
2920.059, 9885.491
2921.987, 9902.522
2923.916, 9945.678
2925.844, 9981.756
2927.773, 9996.238
2929.701, 10016.18
2931.630, 10055.44
2933.558, 10071.00
2935.487, 10057.19
2937.415, 10041.97
2939.344, 10026.65
2941.272, 10029.02
2943.200, 10051.72
2945.129, 10064.53
2947.057, 10069.65
2948.986, 10093.70
2950.914, 10128.06
2952.843, 10117.28
2954.771, 10084.82
2956.700, 10120.18
2958.628, 10181.79
2960.557, 10165.31
2962.485, 10135.84
2964.414, 10193.58
2966.342, 10273.41
2968.271, 10313.62
2970.199, 10328.21
2972.127, 10312.09
2974.056, 10300.51
2975.984, 10322.64
2977.913, 10343.16
2979.841, 10334.21
2981.770, 10345.16
2983.698, 10403.44
2985.627, 10443.50
2987.555, 10436.57
2989.484, 10427.27
2991.412, 10413.91
2993.341, 10426.01
2995.269, 10468.95
2997.198, 10486.29
2999.126, 10470.88
3001.054, 10480.13
3002.983, 10511.70
3004.911, 10537.56
3006.840, 10557.73
3008.768, 10573.23
3010.697, 10584.78
3012.625, 10591.22
3014.554, 10597.12
3016.482, 10607.08
3018.411, 10623.45
3020.339, 10661.85
3022.268, 10690.28
3024.196, 10664.80
3026.125, 10651.83
3028.053, 10695.06
3029.981, 10728.75
3031.910, 10719.42
3033.838, 10707.70
3035.767, 10693.72
3037.695, 10703.86
3039.624, 10746.59
3041.552, 10775.97
3043.481, 10783.45
3045.409, 10793.37
3047.338, 10806.02
3049.266, 10834.30
3051.195, 10870.93
3053.123, 10884.05
3055.052, 10880.41
3056.980, 10867.94
3058.908, 10859.34
3060.837, 10876.44
3062.765, 10904.90
3064.694, 10937.66
3066.622, 10967.31
3068.551, 10986.69
3070.479, 11004.69
3072.408, 11025.79
3074.336, 11043.97
3076.265, 11052.57
3078.193, 11069.19
3080.122, 11099.66
3082.050, 11110.97
3083.979, 11095.95
3085.907, 11109.81
3087.835, 11154.27
3089.764, 11173.02
3091.692, 11174.07
3093.621, 11195.34
3095.549, 11221.13
3097.478, 11213.92
3099.406, 11194.32
3101.335, 11176.67
3103.263, 11179.05
3105.192, 11232.65
3107.120, 11285.49
3109.049, 11314.57
3110.977, 11321.41
3112.906, 11291.10
3114.834, 11289.54
3116.762, 11350.27
3118.691, 11395.56
3120.619, 11420.14
3122.548, 11454.33
3124.476, 11494.71
3126.405, 11482.92
3128.333, 11437.50
3130.262, 11431.80
3132.190, 11456.14
3134.119, 11505.78
3136.047, 11556.57
3137.976, 11584.08
3139.904, 11598.05
3141.833, 11594.00
3143.761, 11599.57
3145.689, 11640.75
3147.618, 11663.35
3149.546, 11639.54
3151.475, 11638.19
3153.403, 11666.45
3155.332, 11686.56
3157.260, 11695.54
3159.189, 11714.94
3161.117, 11742.21
3163.046, 11770.24
3164.974, 11791.39
3166.903, 11779.24
3168.831, 11767.99
3170.760, 11796.78
3172.688, 11843.26
3174.616, 11923.24
3176.545, 11965.58
3178.473, 11906.32
3180.402, 11877.12
3182.330, 11900.02
3184.259, 11920.54
3186.187, 11929.39
3188.116, 11968.38
3190.044, 12031.69
3191.973, 12029.26
3193.901, 11997.12
3195.830, 12024.91
3197.758, 12074.81
3199.687, 12110.48
3201.615, 12121.05
3203.543, 12055.09
3205.472, 12037.61
3207.400, 12186.23
3209.329, 12266.59
3211.257, 12224.34
3213.186, 12215.96
3215.114, 12271.85
3217.043, 12298.97
3218.971, 12299.69
3220.900, 12308.26
3222.828, 12319.67
3224.757, 12313.88
3226.685, 12313.04
3228.614, 12360.32
3230.542, 12404.57
3232.470, 12417.45
3234.399, 12410.34
3236.327, 12347.98
3238.256, 12360.17
3240.184, 12478.71
3242.113, 12528.16
3244.041, 12485.72
3245.970, 12480.02
3247.898, 12503.67
3249.827, 12531.52
3251.755, 12554.67
3253.684, 12552.57
3255.612, 12546.39
3257.541, 12542.39
3259.469, 12564.26
3261.397, 12658.26
3263.326, 12711.55
3265.254, 12694.25
3267.183, 12664.78
3269.111, 12627.60
3271.040, 12617.45
3272.968, 12637.38
3274.897, 12738.78
3276.825, 12853.29
3278.754, 12845.90
3280.682, 12799.81
3282.611, 12771.91
3284.539, 12776.83
3286.468, 12838.69
3288.396, 12883.58
3290.324, 12869.66
3292.253, 12882.95
3294.181, 12925.43
3296.110, 12969.87
3298.038, 13009.27
3299.967, 13016.57
3301.895, 13003.32
3303.824, 12976.22
3305.752, 12958.91
3307.681, 12969.50
3309.609, 13001.82
3311.538, 13070.08
3313.466, 13101.05
3315.395, 13063.78
3317.323, 13063.98
3319.251, 13105.58
3321.180, 13151.37
3323.108, 13193.08
3325.037, 13209.93
3326.965, 13211.69
3328.894, 13196.48
3330.822, 13194.32
3332.751, 13242.18
3334.679, 13268.42
3336.608, 13240.86
3338.536, 13240.54
3340.465, 13275.63
3342.393, 13309.66
3344.322, 13338.37
3346.250, 13341.55
3348.178, 13335.02
3350.107, 13335.51
3352.035, 13349.20
3353.964, 13396.13
3355.892, 13431.17
3357.821, 13441.88
3359.749, 13430.59
3361.678, 13385.29
3363.606, 13399.10
3365.535, 13459.68
3367.463, 13501.75
3369.392, 13526.29
3371.320, 13520.28
3373.249, 13521.17
3375.177, 13574.69
3377.105, 13613.43
3379.034, 13606.62
3380.962, 13583.22
3382.891, 13541.71
3384.819, 13584.29
3386.748, 13690.55
3388.676, 13674.29
3390.605, 13618.78
3392.533, 13667.03
3394.462, 13734.13
3396.390, 13761.79
3398.319, 13764.51
3400.247, 13733.79
3402.176, 13725.30
3404.104, 13748.59
3406.032, 13774.04
3407.961, 13797.03
3409.889, 13803.17
3411.818, 13796.54
3413.746, 13762.51
3415.675, 13750.41
3417.603, 13817.29
3419.532, 13856.02
3421.460, 13832.00
3423.389, 13830.79
3425.317, 13857.88
3427.246, 13881.66
3429.174, 13901.13
3431.103, 13902.80
3433.031, 13916.21
3434.959, 14003.94
3436.888, 14049.51
3438.816, 13988.69
3440.745, 13946.55
3442.673, 13948.03
3444.602, 13955.64
3446.530, 13973.66
3448.459, 14063.00
3450.387, 14158.06
3452.316, 14153.74
3454.244, 14129.16
3456.173, 14126.51
3458.101, 14128.28
3460.030, 14135.13
3461.958, 14121.21
3463.886, 14093.11
3465.815, 14140.34
3467.743, 14213.09
3469.672, 14184.01
3471.600, 14153.51
3473.529, 14219.59
3475.457, 14269.87
3477.386, 14260.99
3479.314, 14249.66
3481.243, 14240.26
3483.171, 14228.87
3485.100, 14225.96
3487.028, 14285.73
3488.957, 14342.84
3490.885, 14323.47
3492.813, 14305.83
3494.742, 14324.00
3496.670, 14318.15
3498.599, 14275.32
3500.527, 14235.67
3502.456, 14210.33
3504.384, 14261.48
3506.313, 14318.42
3508.241, 14291.48
3510.170, 14276.52
3512.098, 14317.92
3514.027, 14335.07
3515.955, 14311.95
3517.884, 14295.25
3519.812, 14282.75
3521.740, 14263.17
3523.669, 14249.74
3525.597, 14266.67
3527.526, 14276.23
3529.454, 14254.64
3531.383, 14248.65
3533.311, 14261.17
3535.240, 14267.61
3537.168, 14261.87
3539.097, 14200.96
3541.025, 14163.66
3542.954, 14253.64
3544.882, 14304.27
3546.811, 14223.71
3548.739, 14205.09
3550.667, 14249.43
3552.596, 14210.49
3554.524, 14138.97
3556.453, 14166.49
3558.381, 14200.00
3560.310, 14176.12
3562.238, 14130.24
3564.167, 14063.51
3566.095, 14049.42
3568.024, 14081.59
3569.952, 14067.57
3571.881, 14034.99
3573.809, 14023.07
3575.738, 14010.74
3577.666, 13980.35
3579.594, 13967.34
3581.523, 13978.96
3583.451, 13976.37
3585.380, 13959.49
3587.308, 13931.66
3589.237, 13891.10
3591.165, 13813.49
3593.094, 13767.49
3595.022, 13777.56
3596.951, 13796.71
3598.879, 13817.26
3600.808, 13762.78
3602.736, 13681.23
3604.665, 13644.41
3606.593, 13631.56
3608.521, 13641.46
3610.450, 13632.57
3612.378, 13588.85
3614.307, 13564.81
3616.235, 13555.31
3618.164, 13537.62
3620.092, 13531.08
3622.021, 13579.10
3623.949, 13597.25
3625.878, 13552.45
3627.806, 13495.98
3629.735, 13437.24
3631.663, 13443.45
3633.592, 13468.98
3635.520, 13444.21
3637.448, 13423.28
3639.377, 13439.96
3641.305, 13428.96
3643.234, 13382.83
3645.162, 13335.22
3647.091, 13297.33
3649.019, 13294.52
3650.948, 13305.10
3652.876, 13313.87
3654.805, 13335.40
3656.733, 13378.74
3658.662, 13401.79
3660.590, 13399.55
3662.519, 13346.05
3664.447, 13293.46
3666.375, 13289.96
3668.304, 13292.86
3670.232, 13287.54
3672.161, 13291.52
3674.089, 13304.73
3676.018, 13339.86
3677.946, 13359.98
3679.875, 13300.00
3681.803, 13262.21
3683.732, 13301.39
3685.660, 13334.83
3687.589, 13358.16
3689.517, 13355.65
3691.446, 13338.20
3693.374, 13301.30
3695.302, 13290.16
3697.231, 13340.75
3699.159, 13385.47
3701.088, 13415.87
3703.016, 13374.14
3704.945, 13313.36
3706.873, 13305.54
3708.802, 13319.65
3710.730, 13348.25
3712.659, 13393.36
3714.587, 13447.76
3716.516, 13435.34
3718.444, 13398.12
3720.373, 13406.40
3722.301, 13397.13
3724.229, 13320.15
3726.158, 13293.94
3728.086, 13320.41
3730.015, 13370.99
3731.943, 13419.23
3733.872, 13421.95
3735.800, 13419.06
3737.729, 13428.12
3739.657, 13426.27
3741.586, 13413.47
3743.514, 13396.28
3745.443, 13378.49
3747.371, 13354.27
3749.300, 13354.35
3751.228, 13407.43
3753.156, 13408.08
3755.085, 13369.41
3757.013, 13402.04
3758.942, 13438.70
3760.870, 13378.20
3762.799, 13347.94
3764.727, 13398.85
3766.656, 13417.58
3768.584, 13406.39
3770.513, 13364.19
3772.441, 13345.56
3774.370, 13432.01
3776.298, 13469.53
3778.227, 13405.50
3780.155, 13377.33
3782.083, 13382.43
3784.012, 13427.24
3785.940, 13463.83
3787.869, 13447.55
3789.797, 13473.49
3791.726, 13561.53
3793.654, 13571.47
3795.583, 13527.70
3797.511, 13436.81
3799.440, 13397.70
3801.368, 13469.32
3803.297, 13475.14
3805.225, 13411.42
3807.154, 13430.53
3809.082, 13475.20
3811.010, 13501.14
3812.939, 13475.12
3814.867, 13380.75
3816.796, 13389.86
3818.724, 13469.50
3820.653, 13487.38
3822.581, 13493.06
3824.510, 13533.26
3826.438, 13539.09
3828.367, 13504.51
3830.295, 13503.72
3832.224, 13505.86
3834.152, 13430.54
3836.081, 13377.32
3838.009, 13394.60
3839.938, 13457.82
3841.866, 13542.01
3843.794, 13510.93
3845.723, 13454.86
3847.651, 13451.46
3849.580, 13457.25
3851.508, 13477.80
3853.437, 13481.69
3855.365, 13476.28
3857.294, 13481.44
3859.222, 13480.13
3861.151, 13458.95
3863.079, 13455.07
3865.008, 13461.51
3866.936, 13399.69
3868.865, 13324.39
3870.793, 13276.86
3872.721, 13270.29
3874.650, 13320.45
3876.578, 13351.35
3878.507, 13361.10
3880.435, 13338.43
3882.364, 13311.70
3884.292, 13295.18
3886.221, 13276.84
3888.149, 13255.17
3890.078, 13218.51
3892.006, 13192.40
3893.935, 13223.97
3895.863, 13207.43
3897.792, 13127.35
3899.720, 13127.12
3901.648, 13172.26
3903.577, 13201.85
3905.505, 13222.79
3907.434, 13248.27
3909.362, 13198.68
3911.291, 13103.01
3913.219, 13077.37
3915.148, 13081.44
3917.076, 13097.01
3919.005, 13088.97
3920.933, 13064.43
3922.862, 13044.58
3924.790, 13027.76
3926.719, 13057.57
3928.647, 13062.72
3930.575, 12993.22
3932.504, 12967.15
3934.432, 12980.78
3936.361, 13031.18
3938.289, 13050.98
3940.218, 13008.51
3942.146, 12978.70
3944.075, 12971.35
3946.003, 12963.73
3947.932, 12951.33
3949.860, 12939.66
3951.789, 12911.73
3953.717, 12864.18
3955.646, 12866.04
3957.574, 12906.79
3959.502, 12907.53
3961.431, 12884.67
3963.359, 12860.47
3965.288, 12823.06
3967.216, 12809.71
3969.145, 12861.95
3971.073, 12872.12
3973.002, 12824.39
3974.930, 12769.76
3976.859, 12723.14
3978.787, 12728.85
3980.716, 12742.46
3982.644, 12734.47
3984.573, 12726.25
3986.501, 12719.77
3988.429, 12704.36
3990.358, 12682.01
3992.286, 12670.24
3994.215, 12671.44
3996.143, 12693.28
3998.072, 12683.86
4000.000, 12650.42
4001.929, 12625.95
4003.857, 12622.40
4005.786, 12645.77
4007.714, 12623.71
4009.643, 12582.67
4011.571, 12618.09
4013.500, 12655.45
4015.428, 12613.03
4017.356, 12557.06
4019.285, 12505.84
4021.213, 12513.60
4023.142, 12552.33
4025.070, 12526.20
4026.999, 12484.37
4028.927, 12512.09
4030.856, 12574.23
4032.784, 12529.23
4034.713, 12447.66
4036.641, 12433.06
4038.570, 12407.11
4040.498, 12406.71
4042.427, 12424.92
4044.355, 12409.39
4046.283, 12428.62
4048.212, 12455.64
4050.140, 12393.29
4052.069, 12343.00
4053.997, 12359.74
4055.926, 12384.00
4057.854, 12406.91
4059.783, 12398.77
4061.711, 12365.48
4063.640, 12361.02
4065.568, 12363.52
4067.497, 12338.41
4069.425, 12312.38
4071.354, 12305.79
4073.282, 12303.91
4075.210, 12292.12
4077.139, 12287.76
4079.067, 12256.08
4080.996, 12250.91
4082.924, 12291.27
4084.853, 12272.23
4086.781, 12230.27
4088.710, 12230.97
4090.638, 12221.54
4092.567, 12193.53
4094.495, 12200.73
4096.424, 12206.06
4098.352, 12220.25
4100.280, 12207.69
4102.209, 12150.68
4104.138, 12109.71
4106.066, 12103.43
4107.994, 12135.51
4109.923, 12137.30
4111.852, 12106.21
4113.780, 12134.14
4115.708, 12157.39
4117.637, 12096.59
4119.565, 12076.97
4121.494, 12117.05
4123.422, 12109.92
4125.351, 12080.61
4127.279, 12035.41
4129.208, 12027.59
4131.136, 12065.81
4133.064, 12037.38
4134.993, 12003.44
4136.921, 12056.97
4138.850, 12082.38
4140.778, 12052.27
4142.707, 11979.67
4144.635, 11913.57
4146.563, 11895.70
4148.492, 11915.48
4150.421, 11957.09
4152.349, 11912.99
4154.277, 11870.51
4156.206, 11960.24
4158.135, 11994.21
4160.063, 11925.12
4161.991, 11862.93
4163.920, 11843.55
4165.849, 11898.66
4167.777, 11920.52
4169.705, 11896.20
4171.634, 11866.80
4173.563, 11847.72
4175.491, 11847.79
4177.419, 11847.85
4179.348, 11853.18
4181.276, 11841.24
4183.205, 11819.09
4185.133, 11828.75
4187.062, 11824.45
4188.990, 11779.46
4190.918, 11760.44
4192.847, 11762.08
4194.775, 11851.79
4196.704, 11875.77
4198.632, 11769.90
4200.561, 11711.41
4202.489, 11692.75
4204.418, 11685.99
4206.346, 11700.28
4208.274, 11752.77
4210.203, 11726.34
4212.132, 11682.22
4214.060, 11684.56
4215.988, 11690.57
4217.917, 11697.94
4219.846, 11716.93
4221.774, 11730.89
4223.702, 11721.82
4225.631, 11701.75
4227.560, 11680.54
4229.488, 11695.96
4231.416, 11698.68
4233.345, 11644.08
4235.273, 11628.77
4237.202, 11648.74
4239.130, 11665.59
4241.059, 11660.81
4242.987, 11605.15
4244.916, 11604.43
4246.844, 11631.67
4248.772, 11611.57
4250.701, 11607.41
4252.629, 11677.74
4254.558, 11636.03
4256.486, 11556.34
4258.415, 11597.22
4260.343, 11652.92
4262.271, 11694.96
4264.200, 11681.20
4266.129, 11649.31
4268.057, 11654.73
4269.985, 11656.08
4271.914, 11645.68
4273.843, 11665.99
4275.771, 11693.26
4277.699, 11713.07
4279.628, 11693.17
4281.557, 11646.22
4283.485, 11706.87
4285.413, 11752.45
4287.342, 11643.91
4289.271, 11679.86
4291.199, 11805.96
4293.127, 11814.65
4295.056, 11789.55
4296.984, 11756.97
4298.913, 11743.81
4300.841, 11745.59
4302.770, 11771.15
4304.698, 11763.14
4306.626, 11702.57
4308.555, 11694.58
4310.483, 11719.78
4312.412, 11772.28
4314.340, 11815.80
4316.269, 11841.38
4318.197, 11784.05
4320.126, 11765.37
4322.054, 11883.68
4323.982, 11877.86
4325.911, 11796.68
4327.840, 11807.95
4329.768, 11829.88
4331.696, 11837.02
4333.625, 11819.70
4335.554, 11802.00
4337.482, 11810.97
4339.410, 11847.41
4341.339, 11899.38
4343.268, 11872.81
4345.196, 11840.42
4347.124, 11850.65
4349.053, 11871.05
4350.981, 11893.61
4352.910, 11910.06
4354.838, 11917.49
4356.767, 11915.09
4358.695, 11901.77
4360.624, 11896.84
4362.552, 11936.00
4364.480, 11956.34
4366.409, 11947.36
4368.337, 11894.57
4370.266, 11864.86
4372.194, 11919.99
4374.123, 11973.91
4376.051, 12010.20
4377.979, 11987.69
4379.908, 11961.39
4381.837, 11946.70
4383.765, 11949.85
4385.693, 11960.02
4387.622, 11965.19
4389.551, 11987.50
4391.479, 12016.54
4393.407, 11976.41
4395.336, 11954.93
4397.265, 11991.22
4399.193, 11995.52
4401.121, 11982.93
4403.050, 11970.20
4404.979, 11992.20
4406.907, 12040.44
4408.835, 12032.92
4410.764, 12013.01
4412.692, 12005.32
4414.621, 12016.30
4416.549, 12028.07
4418.478, 11994.15
4420.406, 11982.87
4422.334, 12011.11
4424.263, 12063.95
4426.191, 12105.16
4428.120, 12101.63
4430.048, 12085.29
4431.977, 12065.59
4433.905, 12061.62
4435.834, 12059.05
4437.762, 12053.77
4439.690, 12021.07
4441.619, 12012.31
4443.548, 12083.39
4445.476, 12102.99
4447.404, 12075.92
4449.333, 12022.29
4451.262, 12030.65
4453.190, 12121.85
4455.118, 12127.29
4457.047, 12101.39
4458.976, 12089.57
4460.904, 12092.73
4462.832, 12111.76
4464.761, 12161.28
4466.689, 12200.12
4468.618, 12217.36
4470.546, 12159.57
4472.475, 12113.75
4474.403, 12156.30
4476.332, 12166.41
4478.260, 12153.38
4480.188, 12175.90
4482.117, 12166.78
4484.045, 12119.33
4485.974, 12152.02
4487.902, 12198.05
4489.831, 12200.13
4491.759, 12210.94
4493.688, 12230.18
4495.616, 12265.37
4497.545, 12268.32
4499.473, 12236.12
4501.401, 12263.71
4503.330, 12272.75
4505.259, 12220.23
4507.187, 12190.24
4509.115, 12192.70
4511.044, 12259.06
4512.973, 12264.27
4514.901, 12218.63
4516.829, 12235.40
4518.758, 12269.45
4520.687, 12306.53
4522.615, 12298.53
4524.543, 12293.09
4526.472, 12346.88
4528.400, 12349.72
4530.329, 12314.38
4532.257, 12295.07
4534.186, 12252.49
4536.114, 12193.11
4538.042, 12235.51
4539.971, 12314.02
4541.899, 12410.70
4543.828, 12384.94
4545.756, 12315.01
4547.685, 12312.17
4549.613, 12324.41
4551.542, 12336.34
4553.470, 12304.05
4555.398, 12291.12
4557.327, 12313.18
4559.256, 12297.63
4561.184, 12308.56
4563.112, 12428.59
4565.041, 12424.86
4566.970, 12364.30
4568.898, 12373.84
4570.826, 12404.41
4572.755, 12440.08
4574.684, 12443.90
4576.612, 12416.62
4578.540, 12364.35
4580.469, 12417.93
4582.397, 12473.61
4584.326, 12436.41
4586.254, 12417.38
4588.183, 12414.23
4590.111, 12415.36
4592.040, 12417.61
4593.968, 12420.26
4595.896, 12418.37
4597.825, 12431.39
4599.753, 12460.11
4601.682, 12423.08
4603.610, 12381.29
4605.539, 12377.46
4607.467, 12404.77
4609.396, 12443.49
4611.324, 12480.65
4613.253, 12452.32
4615.181, 12386.30
4617.109, 12391.63
4619.038, 12396.64
4620.967, 12389.18
4622.895, 12419.44
4624.823, 12455.58
4626.752, 12483.60
4628.681, 12466.50
4630.609, 12466.27
4632.537, 12562.40
4634.466, 12543.88
4636.395, 12467.34
4638.323, 12455.13
4640.251, 12461.11
4642.180, 12473.77
4644.108, 12479.15
4646.037, 12493.58
4647.965, 12522.13
4649.894, 12549.98
4651.822, 12558.02
4653.750, 12535.81
4655.679, 12513.30
4657.607, 12492.42
4659.536, 12468.23
4661.464, 12466.84
4663.393, 12476.13
4665.321, 12465.65
4667.250, 12481.13
4669.178, 12520.48
4671.106, 12571.33
4673.035, 12566.58
4674.964, 12508.13
4676.892, 12561.71
4678.820, 12601.54
4680.749, 12561.57
4682.678, 12508.36
4684.606, 12494.17
4686.534, 12565.02
4688.463, 12542.65
4690.392, 12503.12
4692.320, 12580.85
4694.248, 12579.82
4696.177, 12530.68
4698.105, 12528.88
4700.034, 12557.34
4701.962, 12590.38
4703.891, 12530.37
4705.819, 12492.86
4707.748, 12507.72
4709.676, 12533.78
4711.604, 12537.44
4713.533, 12503.59
4715.461, 12513.80
4717.390, 12531.37
4719.318, 12531.35
4721.247, 12555.96
4723.175, 12565.67
4725.104, 12491.97
4727.032, 12503.14
4728.961, 12560.68
4730.889, 12607.07
4732.817, 12599.58
4734.746, 12564.98
4736.675, 12563.94
4738.603, 12600.29
4740.531, 12650.30
4742.460, 12606.22
4744.389, 12551.76
4746.317, 12519.82
4748.245, 12589.60
4750.174, 12644.24
4752.103, 12636.08
4754.031, 12579.86
4755.959, 12541.83
4757.888, 12554.86
4759.816, 12608.95
4761.745, 12631.50
4763.673, 12535.21
4765.602, 12577.07
4767.530, 12651.89
4769.458, 12650.93
4771.387, 12665.39
4773.315, 12673.06
4775.244, 12623.45
4777.172, 12597.82
4779.101, 12588.79
4781.029, 12563.61
4782.958, 12576.44
4784.886, 12605.38
4786.814, 12571.47
4788.743, 12563.08
4790.672, 12583.55
4792.600, 12584.12
4794.528, 12600.12
4796.457, 12627.09
4798.386, 12595.47
4800.314, 12575.26
4802.242, 12583.27
4804.171, 12576.34
4806.100, 12571.79
4808.028, 12575.48
4809.956, 12591.65
4811.885, 12584.93
4813.813, 12539.75
4815.742, 12580.02
4817.670, 12619.94
4819.599, 12615.18
4821.527, 12613.43
4823.456, 12609.88
4825.384, 12599.53
4827.313, 12604.06
4829.241, 12578.01
4831.169, 12480.58
4833.098, 12565.20
4835.026, 12657.45
4836.955, 12573.27
4838.883, 12567.14
4840.812, 12588.27
4842.740, 12582.86
4844.669, 12581.10
4846.597, 12561.63
4848.525, 12478.28
4850.454, 12456.20
4852.383, 12476.81
4854.311, 12513.20
4856.239, 12574.73
4858.168, 12629.48
4860.097, 12644.75
4862.025, 12592.03
4863.953, 12522.31
4865.882, 12511.72
4867.811, 12464.31
4869.739, 12425.23
4871.667, 12492.34
4873.596, 12557.03
4875.524, 12588.84
4877.453, 12551.57
4879.381, 12479.39
4881.310, 12425.77
4883.238, 12494.90
4885.167, 12517.87
4887.095, 12504.28
4889.023, 12492.16
4890.952, 12480.22
4892.880, 12474.35
4894.809, 12500.34
4896.737, 12435.45
4898.666, 12359.07
4900.594, 12434.88
4902.522, 12504.49
4904.451, 12541.75
4906.380, 12535.95
4908.308, 12466.15
4910.236, 12395.52
4912.165, 12432.96
4914.094, 12444.75
4916.022, 12438.24
4917.950, 12445.16
4919.879, 12420.71
4921.808, 12386.96
4923.736, 12374.18
4925.664, 12401.21
4927.593, 12446.70
4929.521, 12493.79
4931.450, 12469.94
4933.378, 12428.56
4935.307, 12439.71
4937.235, 12437.31
4939.164, 12428.82
4941.092, 12420.65
4943.021, 12456.45
4944.949, 12484.40
4946.877, 12455.86
4948.806, 12431.37
4950.734, 12411.97
4952.663, 12384.70
4954.591, 12443.36
4956.520, 12485.85
4958.448, 12445.71
4960.377, 12416.23
4962.305, 12401.02
4964.233, 12399.31
4966.162, 12425.72
4968.091, 12429.64
4970.019, 12386.19
4971.947, 12383.29
4973.876, 12404.88
4975.805, 12433.53
4977.733, 12378.11
4979.661, 12332.31
4981.590, 12326.27
4983.519, 12322.33
4985.447, 12318.90
4987.375, 12322.42
4989.304, 12378.71
4991.232, 12386.13
4993.161, 12343.58
4995.089, 12317.23
4997.018, 12270.49
4998.946, 12236.36
5000.875, 12330.59
5002.803, 12289.51
5004.731, 12201.78
5006.660, 12295.69
5008.588, 12323.36
5010.517, 12326.50
5012.445, 12398.13
5014.374, 12327.82
5016.302, 12243.77
5018.230, 12279.87
5020.159, 12254.86
5022.088, 12225.55
5024.016, 12239.87
5025.944, 12302.03
5027.873, 12324.40
5029.802, 12276.22
5031.730, 12291.80
5033.658, 12291.70
5035.587, 12255.39
5037.516, 12267.70
5039.444, 12276.93
5041.372, 12263.91
5043.301, 12196.80
5045.229, 12188.04
5047.158, 12208.47
5049.086, 12127.89
5051.015, 12132.35
5052.943, 12172.32
5054.872, 12138.98
5056.800, 12106.74
5058.729, 12110.49
5060.657, 12180.49
5062.585, 12191.37
5064.514, 12171.22
5066.442, 12142.90
5068.371, 12147.73
5070.299, 12127.62
5072.228, 12068.99
5074.156, 12122.13
5076.085, 12148.58
5078.013, 12127.22
5079.941, 12137.17
5081.870, 12097.60
5083.799, 12047.63
5085.727, 12135.70
5087.655, 12138.87
5089.584, 12098.59
5091.513, 12103.30
5093.441, 12088.87
5095.369, 12063.60
5097.298, 12035.32
5099.227, 12041.30
5101.155, 12041.80
5103.083, 12020.12
5105.012, 12015.08
5106.940, 11999.09
5108.869, 11979.80
5110.797, 12040.20
5112.726, 12032.13
5114.654, 11970.01
5116.583, 11930.86
5118.511, 11954.25
5120.439, 11987.69
5122.368, 11967.98
5124.296, 11960.93
5126.225, 11943.20
5128.153, 11890.53
5130.082, 12065.34
5132.010, 12076.99
5133.938, 11847.88
5135.867, 11877.56
5137.796, 11946.77
5139.724, 11993.62
5141.652, 12010.41
5143.581, 11926.14
5145.510, 11839.22
5147.438, 11900.55
5149.366, 11898.28
5151.295, 11892.03
5153.224, 11925.29
5155.152, 11958.84
5157.080, 11946.52
5159.009, 11889.04
5160.938, 11882.89
5162.866, 11878.14
5164.794, 11862.23
5166.723, 11832.69
5168.651, 11783.75
5170.580, 11767.23
5172.508, 11839.10
5174.437, 11853.07
5176.365, 11837.35
5178.293, 11814.65
5180.222, 11842.91
5182.150, 11843.67
5184.079, 11813.48
5186.007, 11821.56
5187.936, 11778.83
5189.864, 11743.05
5191.793, 11832.53
5193.721, 11800.57
5195.649, 11756.77
5197.578, 11784.10
5199.507, 11842.66
5201.435, 11827.63
5203.363, 11748.16
5205.292, 11793.77
5207.221, 11734.58
5209.149, 11647.50
5211.077, 11723.27
5213.006, 11780.25
5214.935, 11773.37
5216.863, 11680.52
5218.791, 11723.88
5220.720, 11748.25
5222.648, 11710.93
5224.577, 11635.53
5226.505, 11664.65
5228.434, 11719.46
5230.362, 11630.75
5232.291, 11600.20
5234.219, 11584.07
5236.147, 11551.93
5238.076, 11599.35
5240.004, 11608.26
5241.933, 11563.83
5243.861, 11507.09
5245.790, 11567.07
5247.718, 11659.16
5249.646, 11666.92
5251.575, 11601.15
5253.504, 11567.71
5255.432, 11605.17
5257.360, 11598.54
5259.289, 11600.18
5261.218, 11592.95
5263.146, 11484.73
5265.074, 11499.09
5267.003, 11525.38
5268.932, 11453.98
5270.860, 11398.02
5272.788, 11446.59
5274.717, 11567.34
5276.646, 11515.90
5278.574, 11543.24
5280.502, 11572.05
5282.431, 11433.19
5284.359, 11441.20
5286.288, 11461.48
5288.216, 11427.98
5290.145, 11420.79
5292.073, 11388.47
5294.001, 11357.94
5295.930, 11402.22
5297.858, 11390.44
5299.787, 11382.29
5301.715, 11423.76
5303.644, 11350.89
5305.572, 11327.98
5307.501, 11363.94
5309.429, 11364.84
5311.357, 11353.17
5313.286, 11340.45
5315.215, 11334.07
5317.143, 11354.08
5319.071, 11328.12
5321.000, 11273.20
5322.929, 11342.47
5324.857, 11341.90
5326.785, 11297.53
5328.714, 11257.53
5330.643, 11245.08
5332.571, 11216.36
5334.499, 11182.39
5336.428, 11249.91
5338.356, 11267.81
5340.285, 11241.51
5342.213, 11187.97
5344.142, 11178.34
5346.070, 11173.40
5347.999, 11163.98
5349.927, 11178.22
5351.855, 11159.87
5353.784, 11142.95
5355.712, 11167.18
5357.641, 11161.62
5359.569, 11144.02
5361.498, 11119.92
5363.426, 11071.80
5365.354, 11046.24
5367.283, 11029.77
5369.212, 11006.39
5371.140, 11128.61
5373.068, 11127.78
5374.997, 11011.53
5376.926, 11021.40
5378.854, 11053.27
5380.782, 11048.12
5382.711, 10968.80
5384.640, 11057.38
5386.568, 11039.56
5388.496, 10934.54
5390.425, 10936.54
5392.354, 10991.79
5394.282, 10982.53
5396.210, 10878.69
5398.139, 10952.66
5400.067, 10928.08
5401.996, 10844.46
5403.924, 10846.17
5405.853, 10890.77
5407.781, 10927.67
5409.709, 10930.27
5411.638, 10864.25
5413.566, 10885.60
5415.495, 10901.85
5417.423, 10806.89
5419.352, 10738.27
5421.280, 10738.99
5423.209, 10777.71
5425.137, 10740.81
5427.065, 10757.64
5428.994, 10785.40
5430.923, 10790.10
5432.851, 10769.23
5434.779, 10740.85
5436.708, 10717.12
5438.637, 10708.18
5440.565, 10666.11
5442.493, 10655.44
5444.422, 10684.99
5446.351, 10695.10
5448.279, 10719.95
5450.207, 10698.62
5452.136, 10586.93
5454.064, 10564.55
5455.993, 10571.74
5457.921, 10572.17
5459.850, 10534.23
5461.778, 10565.21
5463.707, 10616.10
5465.635, 10644.31
5467.563, 10591.71
5469.492, 10519.42
5471.420, 10467.88
5473.349, 10461.01
5475.277, 10475.24
5477.206, 10531.71
5479.134, 10560.04
5481.063, 10450.69
5482.991, 10481.36
5484.920, 10493.39
5486.848, 10456.43
5488.776, 10478.62
5490.705, 10448.13
5492.634, 10408.46
5494.562, 10394.73
5496.490, 10408.68
5498.419, 10378.42
5500.348, 10339.18
5502.276, 10346.68
5504.204, 10297.99
5506.133, 10262.72
5508.062, 10256.05
5509.990, 10268.34
5511.918, 10258.25
5513.847, 10239.65
5515.775, 10228.94
5517.704, 10267.06
5519.632, 10231.51
5521.561, 10192.48
5523.489, 10201.59
5525.417, 10208.58
5527.346, 10204.42
5529.274, 10208.73
5531.203, 10242.20
5533.131, 10200.19
5535.060, 10185.32
5536.988, 10195.53
5538.917, 10184.62
5540.845, 10198.74
5542.773, 10206.79
5544.702, 10192.71
5546.631, 10144.68
5548.559, 10103.79
5550.487, 10098.33
5552.416, 10121.90
5554.345, 10069.96
5556.273, 10112.09
5558.201, 10105.77
5560.130, 9967.073
5562.059, 9989.078
5563.987, 10003.07
5565.915, 9995.846
5567.844, 9985.495
5569.772, 9949.060
5571.701, 9941.780
5573.629, 9970.031
5575.558, 10029.88
5577.486, 9986.651
5579.415, 9933.392
5581.343, 9905.341
5583.271, 9914.060
5585.200, 9890.174
5587.128, 9885.158
5589.057, 9891.330
5590.985, 9846.624
5592.914, 9850.873
5594.842, 9817.990
5596.771, 9753.205
5598.699, 9796.200
5600.628, 9815.887
5602.556, 9809.908
5604.484, 9789.396
5606.413, 9765.653
5608.342, 9797.348
5610.270, 9786.008
5612.198, 9702.940
5614.127, 9756.369
5616.056, 9726.218
5617.984, 9678.266
5619.912, 9678.416
5621.841, 9715.486
5623.770, 9631.962
5625.698, 9600.041
5627.626, 9718.778
5629.555, 9651.637
5631.483, 9562.933
5633.412, 9550.614
5635.340, 9645.686
5637.269, 9612.413
5639.197, 9574.495
5641.125, 9564.229
5643.054, 9581.695
5644.982, 9497.605
5646.911, 9450.750
5648.839, 9466.797
5650.768, 9531.260
5652.696, 9510.064
5654.625, 9503.455
5656.553, 9482.256
5658.481, 9409.560
5660.410, 9333.506
5662.339, 9359.929
5664.267, 9401.679
5666.195, 9377.544
5668.124, 9401.560
5670.053, 9438.293
5671.981, 9447.526
5673.909, 9405.272
5675.838, 9328.593
5677.767, 9298.200
5679.695, 9314.461
5681.623, 9353.600
5683.552, 9307.089
5685.480, 9267.933
5687.409, 9228.284
5689.337, 9186.977
5691.266, 9249.391
5693.194, 9262.469
5695.123, 9224.537
5697.051, 9165.556
5698.979, 9128.004
5700.908, 9197.073
5702.836, 9226.837
5704.765, 9166.255
5706.693, 9184.785
5708.622, 9164.358
5710.550, 9134.593
5712.479, 9111.600
5714.407, 9080.974
5716.336, 9012.829
5718.264, 9056.725
5720.192, 9148.228
5722.121, 8997.420
5724.050, 9031.900
5725.978, 9035.109
5727.906, 8986.780
5729.835, 8994.975
5731.764, 9005.141
5733.692, 9001.023
5735.620, 8979.550
5737.549, 8945.655
5739.478, 8982.430
5741.406, 8982.256
5743.334, 8959.939
5745.263, 8950.600
5747.191, 8922.479
5749.120, 8880.127
5751.048, 8850.552
5752.977, 8846.789
5754.905, 8840.769
5756.833, 8829.836
5758.762, 8850.865
5760.690, 8882.113
5762.619, 8790.089
5764.547, 8781.698
5766.476, 8822.155
5768.404, 8843.881
5770.333, 8771.720
5772.261, 8769.172
5774.189, 8747.852
5776.118, 8711.969
5778.047, 8700.314
5779.975, 8713.745
5781.903, 8728.418
5783.832, 8705.495
5785.761, 8639.173
5787.689, 8650.523
5789.617, 8624.539
5791.546, 8626.126
5793.475, 8656.623
5795.403, 8568.549
5797.331, 8511.658
5799.260, 8524.446
5801.188, 8560.785
5803.117, 8511.977
5805.045, 8612.769
5806.974, 8591.862
5808.902, 8515.795
5810.831, 8511.134
5812.759, 8450.826
5814.688, 8502.158
5816.616, 8522.029
5818.544, 8449.893
5820.473, 8417.949
5822.401, 8405.203
5824.330, 8441.762
5826.258, 8470.092
5828.187, 8396.179
5830.115, 8344.054
5832.044, 8341.789
5833.972, 8358.808
5835.900, 8359.302
5837.829, 8305.675
5839.758, 8257.678
5841.686, 8245.151
5843.614, 8262.814
5845.543, 8269.809
5847.472, 8293.682
5849.400, 8233.645
5851.328, 8179.737
5853.257, 8267.598
5855.186, 8205.567
5857.114, 8184.555
5859.042, 8195.342
5860.971, 8204.469
5862.899, 8210.071
5864.828, 8111.691
5866.756, 8128.972
5868.685, 8191.395
5870.613, 8093.284
5872.542, 8084.949
5874.470, 8147.630
5876.398, 8152.105
5878.327, 8068.027
5880.255, 8103.089
5882.184, 8075.269
5884.112, 8025.256
5886.041, 7999.440
5887.969, 8019.271
5889.897, 7982.223
5891.826, 7938.112
5893.755, 7968.741
5895.683, 8041.674
5897.611, 7894.959
5899.540, 7936.525
5901.469, 7945.068
5903.397, 7871.487
5905.325, 7788.929
5907.254, 7841.065
5909.183, 7854.182
5911.111, 7810.639
5913.039, 7759.863
5914.968, 7824.964
5916.896, 7855.521
5918.825, 7815.342
5920.753, 7762.723
5922.682, 7759.593
5924.610, 7785.719
5926.539, 7787.484
5928.467, 7733.885
5930.396, 7664.348
5932.324, 7690.895
5934.252, 7622.159
5936.181, 7620.633
5938.109, 7645.401
5940.038, 7643.624
5941.966, 7642.840
5943.895, 7591.885
5945.823, 7608.509
5947.752, 7653.768
5949.680, 7633.835
5951.608, 7545.632
5953.537, 7554.623
5955.466, 7570.302
5957.394, 7566.706
5959.322, 7596.870
5961.251, 7493.038
5963.180, 7453.156
5965.108, 7513.802
5967.036, 7602.871
5968.965, 7543.114
5970.894, 7453.651
5972.822, 7434.423
5974.750, 7423.107
5976.679, 7368.452
5978.607, 7423.234
5980.536, 7482.371
5982.464, 7464.386
5984.393, 7398.324
5986.321, 7352.152
5988.250, 7329.955
5990.178, 7350.559
5992.106, 7370.712
5994.035, 7340.387
5995.963, 7235.122
5997.892, 7271.411
5999.820, 7326.742
6001.749, 7346.641
6003.677, 7314.646
6005.605, 7238.793
6007.534, 7173.957
6009.463, 7186.975
6011.391, 7215.879
6013.319, 7199.254
6015.248, 7117.531
6017.177, 7147.926
6019.105, 7166.401
6021.033, 7163.581
6022.962, 7155.833
6024.891, 7106.339
6026.819, 7175.465
6028.747, 7121.098
6030.676, 7049.128
6032.604, 7093.882
6034.533, 7127.722
6036.461, 7099.173
6038.390, 7036.233
6040.318, 7031.902
6042.247, 7110.286
6044.175, 6995.000
6046.104, 6981.894
6048.032, 6971.613
6049.960, 6947.976
6051.889, 6944.317
6053.817, 6991.941
6055.746, 6986.027
6057.674, 6949.552
6059.603, 6920.828
6061.531, 6919.092
6063.460, 6924.723
6065.388, 6863.905
6067.316, 6827.571
6069.245, 6828.915
6071.174, 6835.523
6073.102, 6779.092
6075.030, 6840.723
6076.959, 6830.838
6078.888, 6806.515
6080.816, 6842.787
6082.744, 6769.715
6084.673, 6761.885
6086.602, 6752.144
6088.530, 6731.491
6090.458, 6717.422
6092.387, 6732.073
6094.315, 6702.235
6096.244, 6689.819
6098.172, 6665.413
6100.101, 6632.646
6102.029, 6688.469
6103.958, 6655.157
6105.886, 6653.213
6107.814, 6628.499
6109.743, 6567.021
6111.671, 6536.739
6113.600, 6580.827
6115.528, 6554.907
6117.457, 6545.869
6119.385, 6553.424
6121.313, 6512.670
6123.242, 6550.604
6125.171, 6514.068
6127.099, 6519.598
6129.027, 6518.877
6130.956, 6435.841
6132.885, 6415.677
6134.813, 6397.543
6136.741, 6448.470
6138.670, 6469.900
6140.599, 6419.411
6142.527, 6436.096
6144.455, 6368.755
6146.384, 6375.937
6148.313, 6384.481
6150.241, 6346.819
6152.169, 6304.181
6154.098, 6348.350
6156.026, 6369.742
6157.955, 6353.025
6159.883, 6318.815
6161.812, 6293.354
6163.740, 6296.551
6165.668, 6289.913
6167.597, 6264.060
6169.525, 6236.314
6171.454, 6221.377
6173.382, 6218.246
6175.311, 6208.172
6177.239, 6261.798
6179.168, 6285.057
6181.096, 6260.601
6183.024, 6238.277
6184.953, 6218.822
6186.882, 6158.604
6188.810, 6127.257
6190.738, 6121.274
6192.667, 6128.758
6194.596, 6174.391
6196.524, 6162.989
6198.452, 6122.105
6200.381, 6088.281
6202.310, 6077.577
6204.238, 6093.062
6206.166, 6144.621
6208.095, 6125.652
6210.023, 6085.520
6211.952, 6076.969
6213.880, 6087.902
6215.809, 6033.538
6217.737, 5999.500
6219.666, 6079.518
6221.594, 6067.564
6223.522, 6013.835
6225.451, 6046.887
6227.379, 6010.597
6229.308, 5967.117
6231.236, 5960.802
6233.165, 5983.558
6235.093, 6015.886
6237.021, 6040.741
6238.950, 5982.328
6240.879, 5932.762
6242.807, 5933.889
6244.735, 5932.825
6246.664, 5908.419
6248.593, 5918.367
6250.521, 5926.628
6252.449, 5889.509
6254.378, 5919.967
6256.307, 5942.143
6258.235, 5881.297
6260.163, 5853.657
6262.092, 5812.601
6264.021, 5820.552
6265.949, 5788.606
6267.877, 5748.460
6269.806, 5764.745
6271.734, 5749.266
6273.663, 5770.896
6275.591, 5806.727
6277.520, 5778.905
6279.448, 5735.914
6281.376, 5760.822
6283.305, 5721.528
6285.233, 5773.713
6287.162, 5701.850
6289.090, 5681.740
6291.019, 5729.833
6292.947, 5697.361
6294.876, 5656.697
6296.804, 5652.889
6298.732, 5655.413
6300.661, 5665.086
6302.590, 5667.935
6304.518, 5641.474
6306.446, 5623.531
6308.375, 5638.201
6310.304, 5660.049
6312.232, 5598.881
6314.160, 5556.163
6316.089, 5657.661
6318.018, 5550.750
6319.946, 5560.078
6321.874, 5579.148
6323.803, 5575.706
6325.731, 5558.365
6327.660, 5541.370
6329.588, 5535.073
6331.517, 5596.598
6333.445, 5530.264
6335.374, 5525.450
6337.302, 5542.252
6339.230, 5471.785
6341.159, 5468.992
6343.087, 5485.858
6345.016, 5524.513
6346.944, 5493.295
6348.873, 5453.366
6350.801, 5465.507
6352.729, 5471.137
6354.658, 5460.346
6356.587, 5418.849
6358.515, 5397.912
6360.443, 5399.567
6362.372, 5405.919
6364.301, 5407.546
6366.229, 5418.951
6368.157, 5405.740
6370.086, 5289.955
6372.015, 5300.778
6373.943, 5377.842
6375.871, 5335.159
6377.800, 5295.595
6379.729, 5340.477
6381.657, 5360.854
6383.585, 5367.373
6385.514, 5361.282
6387.442, 5318.525
6389.371, 5229.416
6391.299, 5265.614
6393.228, 5272.360
6395.156, 5288.303
6397.084, 5245.387
6399.013, 5200.772
6400.941, 5235.939
6402.870, 5141.126
6404.798, 5194.242
6406.727, 5190.798
6408.655, 5151.536
6410.584, 5145.480
6412.512, 5148.058
6414.440, 5083.127
6416.369, 5119.719
6418.298, 5066.000
6420.226, 5118.326
6422.154, 5129.081
6424.083, 5054.664
6426.012, 4997.783
6427.940, 5061.288
6429.868, 5095.716
6431.797, 4978.894
6433.726, 4970.876
6435.654, 5020.582
6437.582, 5021.873
6439.511, 4958.749
6441.439, 4881.671
6443.368, 4957.992
6445.296, 4941.350
6447.225, 4920.661
6449.153, 4917.367
6451.082, 4886.432
6453.010, 4822.398
6454.938, 4839.284
6456.867, 4852.665
6458.795, 4842.249
6460.724, 4846.732
6462.652, 4827.324
6464.581, 4783.547
6466.509, 4766.220
6468.438, 4757.053
6470.366, 4783.113
6472.295, 4804.030
6474.223, 4804.579
6476.151, 4787.336
6478.080, 4739.791
6480.009, 4666.008
6481.937, 4702.973
6483.865, 4693.058
6485.794, 4624.131
6487.723, 4709.138
6489.651, 4724.462
6491.579, 4643.850
6493.508, 4634.585
6495.437, 4582.930
6497.365, 4596.014
6499.293, 4566.968
6501.222, 4583.792
6503.150, 4620.972
6505.079, 4592.910
6507.007, 4499.664
6508.936, 4491.937
6510.864, 4493.417
6512.792, 4503.761
6514.721, 4531.052
6516.649, 4519.330
6518.578, 4522.414
6520.506, 4543.438
6522.435, 4488.540
6524.363, 4435.007
6526.292, 4388.055
6528.220, 4395.529
6530.148, 4407.720
6532.077, 4397.047
6534.006, 4364.186
6535.934, 4331.938
6537.862, 4368.037
6539.791, 4378.105
6541.720, 4331.408
6543.648, 4320.605
6545.576, 4337.897
6547.505, 4364.080
6549.434, 4371.749
6551.362, 4339.637
6553.290, 4323.697
6555.219, 4252.925
6557.147, 4257.112
6559.076, 4316.856
6561.004, 4289.445
6562.933, 4243.797
6564.861, 4270.426
6566.790, 4256.562
6568.718, 4245.489
6570.646, 4198.083
6572.575, 4185.642
6574.503, 4223.805
6576.432, 4231.861
6578.360, 4180.465
6580.289, 4142.511
6582.217, 4201.156
6584.146, 4186.830
6586.074, 4138.913
6588.003, 4134.277
6589.931, 4167.084
6591.859, 4152.565
6593.788, 4084.592
##END=



