##NAMES=Eveite
##RRUFFID=R100048
##IDEAL CHEMISTRY=Mn^2+^_2_(AsO_4_)(OH)
##LOCALITY=Langban, Filipstad, Varmland, Sweden
##OWNER=RRUFF
##SOURCE=William W Pinch
##DESCRIPTION=Groups of very pale green (gray) crystals associated with pink akrochordite, R100028, and colorless barite, co-type (Flink 32/22). Used for structure refinement in Yang et al (2011)
##STATUS=The identification of this mineral has been confirmed by single-crystal X-ray diffraction
##URL=https://www.rruff.net/odr/rruff_sample/R100048
##DIFFRACTION SAMPLE DESCRIPTION=Single crystal, powder profile is calculated
##CELL PARAMETERS=a: 8.548 b: 8.721 c: 6.296 alpha: 90 beta: 90 gamma: 90 volume: 469.3 crystal system: orthorhombic
##FILETYPE=Raman RAW
##RAMAN WAVELENGTH=532

169.3655, 780.1150
171.2939, 790.5222
173.2224, 799.7612
175.1509, 808.1406
177.0793, 815.1844
179.0078, 820.2461
180.9363, 824.6895
182.8647, 830.0663
184.7932, 835.0381
186.7217, 842.5742
188.6501, 854.7104
190.5786, 872.1453
192.5071, 886.8676
194.4355, 899.0135
196.3640, 908.2044
198.2925, 913.9125
200.2209, 913.9421
202.1494, 914.8119
204.0779, 918.2490
206.0063, 924.6652
207.9348, 931.5954
209.8633, 939.3253
211.7917, 947.5486
213.7202, 956.1769
215.6487, 966.5232
217.5772, 976.1581
219.5056, 984.7281
221.4341, 992.0284
223.3626, 996.2673
225.2910, 995.0676
227.2195, 991.2648
229.1480, 987.0637
231.0764, 981.6405
233.0049, 975.9059
234.9334, 970.7959
236.8618, 966.4332
238.7903, 962.7878
240.7188, 959.5400
242.6472, 956.4891
244.5757, 953.7659
246.5042, 951.6926
248.4326, 949.4988
250.3611, 947.0683
252.2896, 944.4758
254.2180, 941.2365
256.1465, 936.6342
258.0750, 931.5565
260.0034, 926.0995
261.9319, 919.3923
263.8604, 916.0409
265.7888, 917.9695
267.7173, 924.2867
269.6458, 930.3419
271.5742, 935.9505
273.5027, 941.2861
275.4312, 946.4102
277.3596, 951.2438
279.2881, 956.1301
281.2166, 960.6265
283.1450, 964.8594
285.0735, 969.1930
287.0020, 973.4042
288.9304, 978.2689
290.8589, 984.3514
292.7874, 992.4503
294.7158, 999.8578
296.6443, 1006.475
298.5728, 1012.437
300.5012, 1017.870
302.4297, 1022.059
304.3582, 1026.833
306.2866, 1032.436
308.2151, 1038.823
310.1436, 1045.667
312.0720, 1053.557
314.0005, 1061.259
315.9290, 1068.153
317.8574, 1075.099
319.7859, 1080.888
321.7144, 1083.783
323.6428, 1084.934
325.5713, 1087.775
327.4998, 1094.254
329.4282, 1101.053
331.3567, 1106.338
333.2852, 1108.467
335.2136, 1112.980
337.1421, 1122.110
339.0706, 1132.789
340.9991, 1141.412
342.9275, 1146.825
344.8560, 1151.006
346.7845, 1154.686
348.7129, 1157.660
350.6414, 1158.709
352.5699, 1156.340
354.4983, 1152.678
356.4268, 1149.242
358.3553, 1146.338
360.2837, 1143.791
362.2122, 1141.310
364.1407, 1139.803
366.0691, 1140.299
367.9976, 1144.515
369.9261, 1149.936
371.8545, 1155.705
373.7830, 1160.867
375.7115, 1164.105
377.6399, 1164.034
379.5684, 1163.198
381.4969, 1163.684
383.4253, 1166.115
385.3538, 1169.517
387.2823, 1173.989
389.2107, 1180.056
391.1392, 1187.582
393.0677, 1194.721
394.9961, 1204.496
396.9246, 1218.652
398.8531, 1240.390
400.7815, 1260.892
402.7100, 1278.025
404.6385, 1293.934
406.5669, 1311.242
408.4954, 1330.275
410.4239, 1350.463
412.3523, 1372.283
414.2808, 1396.257
416.2093, 1419.329
418.1377, 1439.704
420.0662, 1460.845
421.9947, 1484.786
423.9231, 1512.439
425.8516, 1539.678
427.7801, 1567.010
429.7085, 1593.164
431.6370, 1617.693
433.5655, 1639.593
435.4939, 1658.395
437.4224, 1674.461
439.3509, 1686.142
441.2793, 1690.532
443.2078, 1690.014
445.1363, 1683.724
447.0647, 1669.262
448.9932, 1647.915
450.9217, 1624.317
452.8501, 1598.657
454.7786, 1574.116
456.7071, 1552.227
458.6355, 1533.204
460.5640, 1519.393
462.4925, 1514.348
464.4209, 1514.497
466.3494, 1513.656
468.2779, 1509.060
470.2063, 1502.792
472.1348, 1495.415
474.0633, 1486.177
475.9917, 1477.408
477.9202, 1470.311
479.8487, 1460.791
481.7771, 1445.952
483.7056, 1424.541
485.6341, 1405.869
487.5625, 1390.074
489.4910, 1379.219
491.4195, 1372.553
493.3479, 1369.120
495.2764, 1369.230
497.2049, 1374.176
499.1333, 1384.297
501.0618, 1393.427
502.9903, 1402.095
504.9187, 1408.340
506.8472, 1412.461
508.7757, 1411.848
510.7041, 1408.886
512.6326, 1404.140
514.5610, 1397.040
516.4895, 1386.456
518.4180, 1373.777
520.3464, 1358.481
522.2749, 1336.978
524.2034, 1314.268
526.1318, 1295.849
528.0603, 1284.727
529.9888, 1275.293
531.9172, 1267.372
533.8457, 1260.030
535.7742, 1251.404
537.7026, 1240.338
539.6311, 1228.653
541.5596, 1216.883
543.4880, 1203.929
545.4165, 1193.680
547.3450, 1187.213
549.2734, 1182.910
551.2019, 1179.742
553.1304, 1177.678
555.0588, 1175.179
556.9873, 1171.137
558.9158, 1166.972
560.8442, 1164.881
562.7727, 1165.443
564.7012, 1166.904
566.6296, 1169.262
568.5581, 1171.695
570.4866, 1173.455
572.4150, 1173.813
574.3435, 1174.701
576.2720, 1177.344
578.2004, 1181.266
580.1289, 1183.874
582.0574, 1183.799
583.9858, 1183.969
585.9144, 1185.987
587.8428, 1189.608
589.7713, 1192.721
591.6998, 1194.854
593.6282, 1197.068
595.5567, 1199.904
597.4852, 1203.460
599.4136, 1206.045
601.3421, 1206.277
603.2706, 1206.021
605.1990, 1207.672
607.1275, 1211.647
609.0560, 1215.352
610.9844, 1218.958
612.9129, 1222.433
614.8414, 1224.421
616.7698, 1223.235
618.6983, 1222.956
620.6268, 1224.652
622.5552, 1227.533
624.4837, 1231.022
626.4122, 1236.389
628.3406, 1241.255
630.2691, 1244.106
632.1976, 1244.726
634.1260, 1245.834
636.0545, 1248.073
637.9830, 1250.776
639.9114, 1253.590
641.8399, 1256.671
643.7684, 1259.638
645.6968, 1262.968
647.6253, 1265.821
649.5538, 1267.282
651.4822, 1265.728
653.4107, 1266.250
655.3392, 1269.934
657.2676, 1275.357
659.1961, 1280.844
661.1246, 1286.613
663.0530, 1291.656
664.9815, 1295.302
666.9100, 1298.226
668.8384, 1301.535
670.7669, 1305.839
672.6954, 1309.953
674.6238, 1313.263
676.5523, 1316.410
678.4808, 1320.519
680.4092, 1326.187
682.3377, 1331.551
684.2662, 1336.145
686.1946, 1339.999
688.1231, 1343.309
690.0516, 1345.994
691.9800, 1348.344
693.9085, 1350.274
695.8370, 1351.861
697.7654, 1353.484
699.6939, 1355.238
701.6224, 1356.937
703.5508, 1358.379
705.4793, 1359.362
707.4078, 1360.362
709.3362, 1359.951
711.2647, 1360.922
713.1932, 1366.061
715.1216, 1375.083
717.0501, 1381.679
718.9786, 1382.786
720.9070, 1383.074
722.8355, 1384.811
724.7640, 1387.688
726.6924, 1390.860
728.6209, 1393.481
730.5494, 1397.564
732.4778, 1403.430
734.4063, 1410.689
736.3348, 1419.638
738.2632, 1430.832
740.1917, 1443.506
742.1202, 1457.207
744.0486, 1472.177
745.9771, 1489.120
747.9056, 1507.672
749.8340, 1528.395
751.7625, 1551.487
753.6910, 1576.088
755.6194, 1608.583
757.5479, 1648.783
759.4764, 1696.546
761.4048, 1752.472
763.3333, 1817.831
765.2618, 1888.334
767.1902, 1962.961
769.1187, 2043.646
771.0472, 2128.459
772.9756, 2213.151
774.9041, 2312.585
776.8326, 2427.037
778.7610, 2554.450
780.6895, 2704.909
782.6180, 2878.681
784.5464, 3057.848
786.4749, 3235.438
788.4034, 3425.286
790.3318, 3626.123
792.2603, 3836.353
794.1888, 4070.942
796.1172, 4333.835
798.0457, 4602.193
799.9742, 4891.378
801.9026, 5198.208
803.8311, 5477.527
805.7596, 5732.407
807.6880, 5965.173
809.6165, 6135.001
811.5450, 6231.523
813.4734, 6295.491
815.4019, 6315.744
817.3304, 6285.221
819.2589, 6277.915
821.1873, 6285.172
823.1158, 6297.236
825.0443, 6340.172
826.9727, 6391.940
828.9012, 6386.267
830.8297, 6335.775
832.7581, 6199.568
834.6866, 5946.075
836.6151, 5591.341
838.5435, 5215.095
840.4720, 4807.964
842.4005, 4446.226
844.3289, 4147.064
846.2574, 3914.266
848.1859, 3751.391
850.1143, 3663.656
852.0428, 3610.833
853.9713, 3592.475
855.8997, 3596.366
857.8282, 3605.385
859.7567, 3629.754
861.6851, 3675.064
863.6136, 3749.704
865.5421, 3833.330
867.4705, 3908.171
869.3990, 3982.251
871.3275, 4015.628
873.2559, 3994.893
875.1844, 3928.595
877.1129, 3811.357
879.0413, 3629.101
880.9698, 3434.247
882.8983, 3227.629
884.8267, 3024.364
886.7552, 2849.295
888.6837, 2700.297
890.6121, 2573.745
892.5406, 2477.254
894.4691, 2391.227
896.3975, 2313.242
898.3260, 2245.375
900.2545, 2176.367
902.1829, 2104.528
904.1114, 2036.957
906.0399, 1970.875
907.9683, 1912.944
909.8968, 1863.715
911.8253, 1823.412
913.7537, 1789.967
915.6822, 1764.865
917.6107, 1744.825
919.5391, 1728.359
921.4676, 1714.102
923.3961, 1700.387
925.3245, 1688.040
927.2530, 1676.945
929.1815, 1666.088
931.1099, 1656.444
933.0384, 1647.723
934.9669, 1637.467
936.8953, 1627.982
938.8238, 1623.626
940.7523, 1623.029
942.6807, 1621.316
944.6092, 1617.212
946.5377, 1613.080
948.4661, 1609.814
950.3946, 1608.336
952.3231, 1607.735
954.2515, 1607.240
956.1800, 1605.002
958.1085, 1603.608
960.0369, 1604.646
961.9654, 1606.466
963.8939, 1607.962
965.8223, 1608.574
967.7508, 1608.752
969.6793, 1609.671
971.6077, 1611.526
973.5362, 1614.172
975.4647, 1616.768
977.3931, 1618.497
979.3216, 1619.963
981.2501, 1622.061
983.1785, 1625.068
985.1070, 1627.987
987.0355, 1629.772
988.9639, 1630.197
990.8924, 1631.967
992.8209, 1634.881
994.7493, 1636.484
996.6778, 1635.103
998.6063, 1632.890
1000.535, 1634.399
1002.463, 1638.559
1004.392, 1641.314
1006.320, 1640.332
1008.249, 1637.785
1010.177, 1636.740
1012.106, 1637.817
1014.034, 1640.396
1015.962, 1643.329
1017.891, 1645.311
1019.819, 1645.750
1021.748, 1647.618
1023.676, 1651.710
1025.605, 1656.075
1027.533, 1658.832
1029.462, 1659.616
1031.390, 1660.620
1033.319, 1661.690
1035.247, 1661.680
1037.176, 1661.373
1039.104, 1662.241
1041.032, 1664.879
1042.961, 1667.078
1044.889, 1667.953
1046.818, 1668.245
1048.746, 1668.183
1050.675, 1667.329
1052.603, 1666.094
1054.532, 1668.005
1056.460, 1673.443
1058.389, 1678.667
1060.317, 1679.512
1062.246, 1675.161
1064.174, 1669.942
1066.103, 1668.182
1068.031, 1667.538
1069.959, 1666.940
1071.888, 1667.256
1073.816, 1670.334
1075.745, 1673.339
1077.673, 1676.512
1079.602, 1680.401
1081.530, 1683.716
1083.459, 1684.360
1085.387, 1683.176
1087.316, 1682.405
1089.244, 1684.264
1091.173, 1688.794
1093.101, 1694.524
1095.030, 1698.262
1096.958, 1698.223
1098.887, 1696.928
1100.815, 1697.142
1102.744, 1699.164
1104.672, 1701.643
1106.600, 1704.677
1108.529, 1705.070
1110.457, 1701.889
1112.386, 1698.742
1114.314, 1699.583
1116.243, 1704.975
1118.171, 1710.867
1120.100, 1715.363
1122.028, 1718.020
1123.957, 1720.865
1125.885, 1724.790
1127.814, 1729.233
1129.742, 1732.478
1131.671, 1734.557
1133.599, 1736.453
1135.527, 1737.319
1137.456, 1736.729
1139.384, 1734.019
1141.313, 1732.514
1143.241, 1733.315
1145.170, 1736.211
1147.098, 1739.861
1149.027, 1743.208
1150.955, 1744.236
1152.884, 1742.249
1154.812, 1740.866
1156.741, 1742.123
1158.669, 1744.961
1160.598, 1747.121
1162.526, 1747.765
1164.454, 1749.570
1166.383, 1753.835
1168.311, 1758.792
1170.240, 1763.051
1172.168, 1766.783
1174.097, 1769.820
1176.025, 1770.217
1177.954, 1769.810
1179.882, 1771.348
1181.811, 1774.302
1183.739, 1776.578
1185.668, 1777.954
1187.596, 1779.793
1189.525, 1782.363
1191.453, 1785.802
1193.381, 1789.736
1195.310, 1793.986
1197.238, 1797.841
1199.167, 1800.733
1201.095, 1804.238
1203.024, 1809.155
1204.952, 1814.866
1206.881, 1818.180
1208.809, 1817.652
1210.738, 1816.077
1212.666, 1814.085
1214.595, 1814.022
1216.523, 1817.686
1218.452, 1824.345
1220.380, 1827.400
1222.308, 1823.273
1224.237, 1820.454
1226.165, 1824.565
1228.094, 1832.307
1230.022, 1837.066
1231.951, 1837.042
1233.879, 1838.508
1235.808, 1843.031
1237.736, 1847.347
1239.665, 1850.209
1241.593, 1852.380
1243.522, 1855.219
1245.450, 1859.061
1247.379, 1861.896
1249.307, 1864.443
1251.235, 1867.966
1253.164, 1870.197
1255.092, 1870.245
1257.021, 1870.716
1258.949, 1872.870
1260.878, 1876.055
1262.806, 1878.880
1264.735, 1880.935
1266.663, 1882.782
1268.592, 1884.926
1270.520, 1886.661
1272.449, 1887.165
1274.377, 1887.560
1276.306, 1889.026
1278.234, 1892.022
1280.162, 1895.098
1282.091, 1897.819
1284.019, 1900.671
1285.948, 1904.713
1287.876, 1909.150
1289.805, 1912.595
1291.733, 1915.090
1293.662, 1917.848
1295.590, 1920.124
1297.519, 1923.030
1299.447, 1928.762
1301.376, 1936.267
1303.304, 1941.144
1305.233, 1942.173
1307.161, 1943.187
1309.089, 1946.421
1311.018, 1949.576
1312.946, 1950.679
1314.875, 1949.957
1316.803, 1951.694
1318.732, 1958.857
1320.660, 1964.440
1322.589, 1964.838
1324.517, 1964.041
1326.446, 1967.384
1328.374, 1975.484
1330.303, 1980.871
1332.231, 1982.338
1334.160, 1982.453
1336.088, 1980.953
1338.016, 1979.629
1339.945, 1980.728
1341.873, 1984.383
1343.802, 1988.179
1345.730, 1992.018
1347.659, 1995.763
1349.587, 1999.546
1351.516, 2003.087
1353.444, 2005.174
1355.373, 2004.689
1357.301, 2005.660
1359.230, 2009.688
1361.158, 2014.268
1363.087, 2018.140
1365.015, 2021.211
1366.943, 2023.703
1368.872, 2025.292
1370.800, 2026.891
1372.729, 2028.448
1374.657, 2030.301
1376.586, 2032.967
1378.514, 2036.364
1380.443, 2039.140
1382.371, 2040.615
1384.300, 2042.497
1386.228, 2045.112
1388.157, 2048.431
1390.085, 2052.911
1392.014, 2058.005
1393.942, 2060.740
1395.870, 2059.890
1397.799, 2059.079
1399.727, 2060.206
1401.656, 2061.673
1403.584, 2062.021
1405.513, 2061.405
1407.441, 2061.382
1409.370, 2061.917
1411.298, 2063.565
1413.227, 2066.762
1415.155, 2070.670
1417.084, 2074.626
1419.012, 2078.671
1420.941, 2082.245
1422.869, 2084.985
1424.797, 2087.449
1426.726, 2089.281
1428.654, 2091.197
1430.583, 2094.022
1432.511, 2097.440
1434.440, 2102.798
1436.368, 2113.788
1438.297, 2122.380
1440.225, 2124.076
1442.154, 2123.025
1444.082, 2124.552
1446.011, 2128.626
1447.939, 2131.836
1449.868, 2132.976
1451.796, 2133.823
1453.724, 2135.727
1455.653, 2138.077
1457.581, 2139.193
1459.510, 2139.310
1461.438, 2140.874
1463.367, 2145.014
1465.295, 2148.611
1467.224, 2149.997
1469.152, 2151.692
1471.081, 2155.481
1473.009, 2160.126
1474.938, 2163.146
1476.866, 2163.905
1478.795, 2165.508
1480.723, 2168.927
1482.651, 2172.389
1484.580, 2175.067
1486.508, 2177.365
1488.437, 2180.054
1490.365, 2183.826
1492.294, 2186.403
1494.222, 2185.392
1496.151, 2185.457
1498.079, 2190.633
1500.008, 2199.465
1501.936, 2204.855
1503.865, 2205.547
1505.793, 2205.435
1507.722, 2204.005
1509.650, 2202.664
1511.578, 2203.151
1513.507, 2205.124
1515.435, 2205.832
1517.364, 2204.826
1519.292, 2205.707
1521.221, 2210.649
1523.149, 2215.053
1525.078, 2215.960
1527.006, 2215.402
1528.935, 2215.114
1530.863, 2214.449
1532.792, 2217.398
1534.720, 2227.081
1536.649, 2236.156
1538.577, 2241.710
1540.505, 2245.194
1542.434, 2247.560
1544.362, 2248.969
1546.291, 2250.810
1548.219, 2253.052
1550.148, 2255.821
1552.076, 2259.229
1554.005, 2263.172
1555.933, 2267.954
1557.862, 2272.626
1559.790, 2274.997
1561.719, 2275.334
1563.647, 2274.718
1565.576, 2270.470
1567.504, 2268.034
1569.432, 2271.244
1571.361, 2278.136
1573.289, 2284.200
1575.218, 2288.882
1577.146, 2293.567
1579.075, 2299.346
1581.003, 2303.693
1582.932, 2303.650
1584.860, 2303.375
1586.789, 2307.628
1588.717, 2315.973
1590.646, 2322.634
1592.574, 2328.715
1594.503, 2332.282
1596.431, 2331.908
1598.359, 2330.092
1600.288, 2326.386
1602.216, 2322.913
1604.145, 2325.864
1606.073, 2339.636
1608.002, 2348.863
1609.930, 2349.680
1611.859, 2350.440
1613.787, 2354.503
1615.716, 2359.237
1617.644, 2361.178
1619.573, 2360.248
1621.501, 2360.458
1623.430, 2362.808
1625.358, 2364.829
1627.286, 2363.987
1629.215, 2364.821
1631.143, 2372.151
1633.072, 2382.699
1635.000, 2388.408
1636.929, 2388.490
1638.857, 2390.734
1640.786, 2396.836
1642.714, 2403.380
1644.643, 2410.171
1646.571, 2415.931
1648.500, 2418.746
1650.428, 2419.097
1652.357, 2420.129
1654.285, 2421.708
1656.214, 2424.436
1658.142, 2429.082
1660.070, 2434.398
1661.999, 2443.005
1663.927, 2450.523
1665.856, 2449.114
1667.784, 2439.783
1669.713, 2432.865
1671.641, 2427.741
1673.570, 2428.386
1675.498, 2441.705
1677.427, 2455.190
1679.355, 2460.970
1681.284, 2461.336
1683.212, 2459.322
1685.141, 2454.510
1687.069, 2455.833
1688.997, 2467.148
1690.926, 2478.114
1692.854, 2487.652
1694.783, 2493.273
1696.711, 2490.009
1698.640, 2481.841
1700.568, 2479.617
1702.497, 2484.101
1704.425, 2489.034
1706.354, 2494.777
1708.282, 2498.653
1710.211, 2497.860
1712.139, 2496.358
1714.068, 2498.086
1715.996, 2502.423
1717.924, 2507.081
1719.853, 2512.270
1721.781, 2517.403
1723.710, 2522.332
1725.638, 2527.016
1727.567, 2530.021
1729.495, 2533.037
1731.424, 2538.469
1733.352, 2545.097
1735.281, 2548.502
1737.209, 2547.549
1739.138, 2548.788
1741.066, 2556.544
1742.995, 2562.735
1744.923, 2563.242
1746.851, 2561.892
1748.780, 2562.443
1750.708, 2564.575
1752.637, 2566.272
1754.565, 2566.938
1756.494, 2568.915
1758.422, 2573.293
1760.351, 2577.347
1762.279, 2580.472
1764.208, 2582.303
1766.136, 2581.399
1768.065, 2578.878
1769.993, 2579.701
1771.922, 2584.741
1773.850, 2589.668
1775.778, 2594.707
1777.707, 2598.836
1779.635, 2600.075
1781.564, 2601.638
1783.492, 2607.740
1785.421, 2616.261
1787.349, 2619.854
1789.278, 2616.995
1791.206, 2616.257
1793.135, 2618.641
1795.063, 2622.195
1796.992, 2628.150
1798.920, 2633.688
1800.849, 2636.272
1802.777, 2637.288
1804.705, 2639.618
1806.634, 2643.417
1808.562, 2647.913
1810.491, 2653.559
1812.419, 2659.118
1814.348, 2663.517
1816.276, 2668.461
1818.205, 2675.774
1820.133, 2683.202
1822.062, 2686.951
1823.990, 2687.077
1825.919, 2689.131
1827.847, 2694.946
1829.776, 2699.268
1831.704, 2700.901
1833.632, 2703.047
1835.561, 2708.004
1837.489, 2713.110
1839.418, 2715.247
1841.346, 2715.430
1843.275, 2717.743
1845.203, 2722.656
1847.132, 2725.528
1849.060, 2723.732
1850.989, 2724.081
1852.917, 2731.489
1854.846, 2737.731
1856.774, 2736.664
1858.703, 2733.090
1860.631, 2734.987
1862.559, 2741.526
1864.488, 2744.858
1866.416, 2743.924
1868.345, 2744.320
1870.273, 2748.211
1872.202, 2751.795
1874.130, 2753.119
1876.059, 2754.168
1877.987, 2755.691
1879.916, 2758.334
1881.844, 2764.132
1883.773, 2772.784
1885.701, 2779.215
1887.630, 2781.855
1889.558, 2784.965
1891.486, 2792.297
1893.415, 2796.439
1895.343, 2789.996
1897.272, 2782.102
1899.200, 2783.411
1901.129, 2791.740
1903.057, 2798.761
1904.986, 2804.716
1906.914, 2809.898
1908.843, 2813.623
1910.771, 2817.679
1912.700, 2821.902
1914.628, 2826.396
1916.557, 2830.759
1918.485, 2835.180
1920.413, 2840.167
1922.342, 2845.403
1924.270, 2849.675
1926.199, 2852.340
1928.127, 2856.861
1930.056, 2866.603
1931.984, 2873.074
1933.913, 2870.486
1935.841, 2869.570
1937.770, 2878.326
1939.698, 2889.160
1941.627, 2892.076
1943.555, 2889.075
1945.484, 2890.108
1947.412, 2895.794
1949.340, 2898.766
1951.269, 2898.309
1953.197, 2895.396
1955.126, 2885.596
1957.054, 2880.728
1958.983, 2891.442
1960.911, 2906.932
1962.840, 2917.112
1964.768, 2922.686
1966.697, 2924.656
1968.625, 2922.543
1970.554, 2922.838
1972.482, 2926.085
1974.411, 2930.542
1976.339, 2938.567
1978.267, 2944.196
1980.196, 2943.386
1982.124, 2941.538
1984.053, 2942.926
1985.981, 2947.197
1987.910, 2953.712
1989.838, 2962.526
1991.767, 2970.643
1993.695, 2978.265
1995.624, 2983.600
1997.552, 2984.458
1999.481, 2985.856
2001.409, 2989.015
2003.338, 2993.296
2005.266, 3000.248
2007.194, 3007.022
2009.123, 3009.289
2011.051, 3008.276
2012.980, 3008.263
2014.908, 3009.314
2016.837, 3009.377
2018.765, 3006.919
2020.694, 3008.598
2022.622, 3020.982
2024.551, 3030.848
2026.479, 3029.631
2028.408, 3027.449
2030.336, 3034.042
2032.265, 3033.874
2034.193, 3036.891
2036.121, 3042.603
2038.050, 3044.070
2039.978, 3054.089
2041.907, 3060.843
2043.835, 3062.000
2045.764, 3064.365
2047.692, 3070.282
2049.621, 3076.624
2051.549, 3081.123
2053.478, 3086.818
2055.406, 3098.660
2057.334, 3100.966
2059.263, 3115.310
2061.191, 3110.809
2063.120, 3111.205
2065.048, 3117.360
2066.977, 3122.677
2068.906, 3126.417
2070.834, 3129.514
2072.762, 3132.866
2074.691, 3135.566
2076.619, 3136.855
2078.548, 3138.180
2080.476, 3141.685
2082.405, 3145.604
2084.333, 3145.841
2086.262, 3143.176
2088.190, 3143.842
2090.119, 3147.720
2092.047, 3156.249
2093.976, 3172.776
2095.904, 3184.529
2097.833, 3185.415
2099.761, 3187.188
2101.689, 3195.673
2103.618, 3203.887
2105.546, 3206.138
2107.475, 3206.599
2109.403, 3211.926
2111.332, 3219.689
2113.260, 3221.381
2115.189, 3217.362
2117.117, 3218.283
2119.046, 3226.092
2120.974, 3233.553
2122.903, 3238.567
2124.831, 3244.778
2126.760, 3256.009
2128.688, 3263.844
2130.616, 3261.207
2132.545, 3257.670
2134.473, 3260.965
2136.402, 3268.710
2138.330, 3279.179
2140.259, 3290.470
2142.187, 3293.806
2144.116, 3289.172
2146.044, 3287.490
2147.973, 3289.855
2149.901, 3294.272
2151.830, 3302.886
2153.758, 3309.906
2155.687, 3312.642
2157.615, 3315.783
2159.543, 3321.527
2161.472, 3328.062
2163.400, 3333.512
2165.329, 3337.903
2167.257, 3340.734
2169.186, 3342.478
2171.114, 3347.980
2173.043, 3357.485
2174.971, 3361.062
2176.900, 3357.593
2178.828, 3359.490
2180.757, 3371.385
2182.685, 3381.292
2184.614, 3382.965
2186.542, 3385.469
2188.470, 3393.302
2190.399, 3401.109
2192.327, 3403.125
2194.256, 3404.883
2196.184, 3415.387
2198.113, 3430.427
2200.041, 3439.657
2201.970, 3443.386
2203.898, 3443.082
2205.827, 3437.921
2207.755, 3439.890
2209.684, 3451.381
2211.612, 3461.370
2213.541, 3468.547
2215.469, 3472.635
2217.397, 3468.987
2219.326, 3469.086
2221.254, 3482.443
2223.183, 3496.438
2225.111, 3500.924
2227.040, 3501.104
2228.968, 3501.572
2230.897, 3503.426
2232.825, 3510.834
2234.754, 3523.093
2236.682, 3531.885
2238.611, 3537.135
2240.539, 3541.674
2242.468, 3545.347
2244.396, 3550.544
2246.324, 3559.166
2248.253, 3565.250
2250.181, 3565.153
2252.110, 3565.536
2254.038, 3570.072
2255.967, 3574.763
2257.895, 3576.070
2259.824, 3577.674
2261.752, 3583.183
2263.681, 3591.101
2265.609, 3599.169
2267.538, 3607.314
2269.466, 3616.052
2271.395, 3625.045
2273.323, 3632.478
2275.251, 3638.124
2277.180, 3645.246
2279.108, 3654.874
2281.037, 3664.007
2282.965, 3672.703
2284.894, 3680.226
2286.822, 3686.189
2288.751, 3691.299
2290.679, 3695.169
2292.608, 3698.742
2294.536, 3701.702
2296.465, 3705.332
2298.393, 3710.918
2300.322, 3717.652
2302.250, 3725.439
2304.178, 3733.300
2306.107, 3738.750
2308.035, 3742.217
2309.964, 3745.363
2311.892, 3747.762
2313.821, 3754.968
2315.749, 3758.595
2317.678, 3762.662
2319.606, 3772.014
2321.535, 3772.740
2323.463, 3785.034
2325.392, 3795.451
2327.320, 3799.317
2329.249, 3802.499
2331.177, 3807.647
2333.105, 3813.185
2335.034, 3816.204
2336.962, 3821.025
2338.891, 3833.795
2340.819, 3847.871
2342.748, 3853.626
2344.676, 3854.568
2346.605, 3858.178
2348.533, 3863.905
2350.462, 3870.501
2352.390, 3877.966
2354.319, 3883.985
2356.247, 3888.450
2358.176, 3894.366
2360.104, 3902.676
2362.032, 3909.620
2363.961, 3917.310
2365.889, 3926.984
2367.818, 3932.942
2369.746, 3944.740
2371.675, 3952.504
2373.603, 3957.079
2375.532, 3954.791
2377.460, 3955.890
2379.389, 3968.513
2381.317, 3983.309
2383.246, 3992.420
2385.174, 3999.780
2387.103, 4010.298
2389.031, 4020.857
2390.959, 4027.509
2392.888, 4030.735
2394.816, 4030.360
2396.745, 4028.381
2398.673, 4031.006
2400.602, 4038.248
2402.530, 4045.542
2404.459, 4052.732
2406.387, 4059.359
2408.316, 4065.102
2410.244, 4068.973
2412.173, 4068.232
2414.101, 4073.241
2416.030, 4087.571
2417.958, 4100.237
2419.886, 4108.604
2421.815, 4116.368
2423.743, 4124.834
2425.672, 4133.083
2427.600, 4141.048
2429.529, 4148.596
2431.457, 4153.806
2433.386, 4161.254
2435.314, 4176.790
2437.243, 4193.037
2439.171, 4201.423
2441.100, 4207.502
2443.028, 4217.387
2444.957, 4228.305
2446.885, 4236.584
2448.813, 4242.486
2450.742, 4248.125
2452.670, 4253.234
2454.599, 4253.853
2456.527, 4251.335
2458.456, 4253.169
2460.384, 4259.897
2462.313, 4271.187
2464.241, 4287.061
2466.170, 4300.734
2468.098, 4309.596
2470.027, 4320.542
2471.955, 4334.817
2473.884, 4346.689
2475.812, 4355.666
2477.740, 4361.594
2479.669, 4364.652
2481.597, 4365.392
2483.526, 4363.152
2485.454, 4363.232
2487.383, 4368.341
2489.311, 4376.814
2491.240, 4391.321
2493.168, 4404.972
2495.097, 4412.293
2497.025, 4419.222
2498.954, 4426.990
2500.882, 4436.638
2502.811, 4450.416
2504.739, 4463.637
2506.667, 4471.558
2508.596, 4477.205
2510.524, 4485.996
2512.453, 4494.550
2514.381, 4495.943
2516.310, 4495.025
2518.238, 4500.930
2520.167, 4511.631
2522.095, 4521.665
2524.024, 4531.383
2525.952, 4543.110
2527.881, 4555.590
2529.809, 4563.780
2531.738, 4567.771
2533.666, 4575.295
2535.594, 4586.555
2537.523, 4595.591
2539.451, 4602.663
2541.380, 4605.928
2543.308, 4604.655
2545.237, 4613.621
2547.165, 4639.635
2549.094, 4654.611
2551.022, 4651.683
2552.951, 4654.931
2554.879, 4666.554
2556.808, 4679.857
2558.736, 4695.407
2560.665, 4706.972
2562.593, 4710.987
2564.521, 4716.855
2566.450, 4726.733
2568.378, 4737.960
2570.307, 4750.664
2572.235, 4763.069
2574.164, 4775.446
2576.092, 4785.908
2578.021, 4792.764
2579.949, 4799.824
2581.878, 4806.799
2583.806, 4817.525
2585.735, 4838.171
2587.663, 4856.816
2589.592, 4864.783
2591.520, 4873.186
2593.448, 4889.915
2595.377, 4904.760
2597.305, 4909.077
2599.234, 4911.482
2601.162, 4917.392
2603.091, 4924.469
2605.019, 4931.491
2606.948, 4938.912
2608.876, 4948.284
2610.805, 4958.007
2612.733, 4965.175
2614.662, 4973.976
2616.590, 4990.080
2618.519, 5008.254
2620.447, 5022.089
2622.375, 5033.469
2624.304, 5045.165
2626.232, 5055.325
2628.161, 5058.986
2630.089, 5061.867
2632.018, 5073.555
2633.946, 5089.385
2635.875, 5102.907
2637.803, 5114.130
2639.732, 5119.508
2641.660, 5124.209
2643.589, 5143.443
2645.517, 5148.234
2647.446, 5173.529
2649.374, 5170.653
2651.302, 5179.836
2653.231, 5196.341
2655.159, 5207.693
2657.088, 5215.112
2659.016, 5221.642
2660.945, 5227.743
2662.873, 5234.906
2664.802, 5243.031
2666.730, 5251.562
2668.659, 5260.916
2670.587, 5272.864
2672.516, 5286.373
2674.444, 5294.174
2676.373, 5299.745
2678.301, 5321.558
2680.229, 5328.112
2682.158, 5339.458
2684.086, 5353.377
2686.015, 5358.124
2687.943, 5373.086
2689.872, 5380.892
2691.800, 5384.427
2693.729, 5398.155
2695.657, 5403.832
2697.586, 5410.137
2699.514, 5421.321
2701.443, 5424.735
2703.371, 5434.973
2705.300, 5449.125
2707.228, 5466.228
2709.156, 5480.510
2711.085, 5498.431
2713.013, 5511.749
2714.942, 5534.733
2716.870, 5556.496
2718.799, 5575.759
2720.727, 5582.774
2722.656, 5581.775
2724.584, 5587.935
2726.513, 5600.523
2728.441, 5615.381
2730.370, 5631.526
2732.298, 5643.420
2734.227, 5657.603
2736.155, 5665.681
2738.083, 5681.278
2740.012, 5691.674
2741.940, 5699.212
2743.869, 5712.550
2745.797, 5722.653
2747.726, 5732.406
2749.654, 5745.655
2751.583, 5754.021
2753.511, 5764.713
2755.440, 5778.882
2757.368, 5795.042
2759.297, 5810.178
2761.225, 5824.541
2763.154, 5840.514
2765.082, 5855.518
2767.010, 5861.561
2768.939, 5864.837
2770.867, 5876.978
2772.796, 5892.997
2774.724, 5904.258
2776.653, 5913.217
2778.581, 5921.241
2780.510, 5931.479
2782.438, 5951.225
2784.367, 5972.417
2786.295, 5985.974
2788.224, 5994.289
2790.152, 5995.537
2792.081, 5998.544
2794.009, 6016.867
2795.938, 6037.295
2797.866, 6046.270
2799.794, 6053.241
2801.723, 6066.007
2803.651, 6080.271
2805.580, 6094.130
2807.508, 6105.834
2809.437, 6115.189
2811.365, 6122.350
2813.294, 6125.283
2815.222, 6131.263
2817.151, 6148.063
2819.079, 6164.626
2821.008, 6174.036
2822.936, 6184.682
2824.865, 6200.119
2826.793, 6215.767
2828.721, 6227.283
2830.650, 6240.878
2832.578, 6260.158
2834.507, 6276.675
2836.435, 6287.531
2838.364, 6298.701
2840.292, 6317.081
2842.221, 6327.932
2844.149, 6324.268
2846.078, 6327.080
2848.006, 6339.521
2849.935, 6354.708
2851.863, 6372.279
2853.792, 6387.826
2855.720, 6399.227
2857.648, 6411.143
2859.577, 6423.038
2861.505, 6441.628
2863.434, 6454.779
2865.362, 6470.932
2867.291, 6488.208
2869.219, 6500.821
2871.148, 6521.248
2873.076, 6531.760
2875.005, 6534.974
2876.933, 6544.939
2878.862, 6561.086
2880.790, 6580.487
2882.719, 6601.040
2884.647, 6613.322
2886.575, 6621.506
2888.504, 6635.772
2890.432, 6653.047
2892.361, 6670.755
2894.289, 6687.423
2896.218, 6699.922
2898.146, 6711.824
2900.075, 6725.920
2902.003, 6742.334
2903.932, 6762.397
2905.860, 6781.666
2907.789, 6794.168
2909.717, 6807.661
2911.646, 6829.752
2913.574, 6848.966
2915.502, 6859.525
2917.431, 6868.878
2919.359, 6878.460
2921.288, 6890.900
2923.216, 6907.009
2925.145, 6923.321
2927.073, 6936.912
2929.002, 6955.097
2930.930, 6984.407
2932.859, 7006.071
2934.787, 7019.122
2936.716, 7029.888
2938.644, 7039.089
2940.573, 7050.259
2942.501, 7063.875
2944.429, 7081.310
2946.358, 7102.067
2948.286, 7118.322
2950.215, 7131.221
2952.143, 7143.203
2954.072, 7156.574
2956.000, 7180.766
2957.929, 7193.053
2959.857, 7219.596
2961.786, 7227.368
2963.714, 7245.396
2965.643, 7264.979
2967.571, 7277.968
2969.500, 7288.206
2971.428, 7299.511
2973.356, 7308.171
2975.285, 7308.903
2977.213, 7313.004
2979.142, 7328.229
2981.070, 7343.132
2982.999, 7355.233
2984.927, 7366.330
2986.856, 7376.186
2988.784, 7386.463
2990.713, 7402.099
2992.641, 7410.856
2994.570, 7436.083
2996.498, 7459.847
2998.427, 7481.245
3000.355, 7494.915
3002.283, 7502.045
3004.212, 7511.370
3006.140, 7523.143
3008.069, 7541.566
3009.997, 7560.802
3011.926, 7565.370
3013.854, 7589.578
3015.783, 7595.891
3017.711, 7626.748
3019.640, 7644.579
3021.568, 7658.294
3023.497, 7671.305
3025.425, 7684.484
3027.354, 7696.942
3029.282, 7711.419
3031.210, 7730.375
3033.139, 7748.133
3035.067, 7767.575
3036.996, 7777.466
3038.924, 7774.214
3040.853, 7783.000
3042.781, 7805.212
3044.710, 7828.148
3046.638, 7850.339
3048.567, 7863.553
3050.495, 7870.481
3052.424, 7880.443
3054.352, 7897.141
3056.281, 7931.354
3058.209, 7971.671
3060.137, 8003.808
3062.066, 8028.685
3063.994, 8042.268
3065.923, 8054.167
3067.851, 8072.571
3069.780, 8086.630
3071.708, 8090.055
3073.637, 8095.828
3075.565, 8109.259
3077.494, 8121.893
3079.422, 8129.874
3081.351, 8142.585
3083.279, 8159.451
3085.208, 8183.714
3087.136, 8213.598
3089.064, 8234.054
3090.993, 8246.424
3092.921, 8253.327
3094.850, 8258.249
3096.778, 8266.725
3098.707, 8277.739
3100.635, 8285.770
3102.564, 8300.562
3104.492, 8339.159
3106.421, 8372.955
3108.349, 8383.777
3110.278, 8396.941
3112.206, 8425.799
3114.135, 8446.199
3116.063, 8452.169
3117.991, 8468.553
3119.920, 8499.462
3121.848, 8529.057
3123.777, 8556.889
3125.705, 8566.113
3127.634, 8565.315
3129.562, 8581.615
3131.491, 8605.973
3133.419, 8623.580
3135.348, 8637.677
3137.276, 8648.161
3139.205, 8662.087
3141.133, 8689.796
3143.062, 8713.764
3144.990, 8724.624
3146.918, 8737.077
3148.847, 8753.215
3150.775, 8773.830
3152.704, 8798.906
3154.632, 8829.504
3156.561, 8864.092
3158.489, 8880.375
3160.418, 8906.864
3162.346, 8929.097
3164.275, 8944.209
3166.203, 8964.532
3168.132, 8977.425
3170.060, 8981.870
3171.989, 8993.095
3173.917, 9035.047
3175.845, 9063.557
3177.774, 9058.584
3179.702, 9064.486
3181.631, 9097.362
3183.559, 9126.661
3185.488, 9149.726
3187.416, 9171.854
3189.345, 9192.800
3191.273, 9215.600
3193.202, 9239.862
3195.130, 9270.396
3197.059, 9297.932
3198.987, 9310.785
3200.916, 9318.600
3202.844, 9325.646
3204.772, 9337.788
3206.701, 9358.560
3208.629, 9382.361
3210.558, 9409.285
3212.486, 9434.309
3214.415, 9456.326
3216.343, 9474.907
3218.272, 9492.348
3220.200, 9534.244
3222.129, 9550.271
3224.057, 9597.721
3225.986, 9597.480
3227.914, 9609.970
3229.843, 9628.639
3231.771, 9654.283
3233.699, 9677.371
3235.628, 9696.497
3237.556, 9709.608
3239.485, 9732.062
3241.413, 9748.484
3243.342, 9767.905
3245.270, 9790.460
3247.199, 9817.090
3249.127, 9834.582
3251.056, 9876.354
3252.984, 9913.593
3254.913, 9943.546
3256.841, 9960.166
3258.770, 9975.690
3260.698, 9997.681
3262.626, 10019.57
3264.555, 10040.69
3266.483, 10060.46
3268.412, 10078.06
3270.340, 10097.78
3272.269, 10118.48
3274.197, 10131.74
3276.126, 10144.78
3278.054, 10177.08
3279.983, 10213.42
3281.911, 10236.21
3283.840, 10260.02
3285.768, 10294.61
3287.697, 10326.97
3289.625, 10349.58
3291.553, 10383.98
3293.482, 10410.69
3295.410, 10459.45
3297.339, 10467.77
3299.267, 10492.49
3301.196, 10521.58
3303.124, 10531.55
3305.053, 10536.25
3306.981, 10544.21
3308.910, 10560.46
3310.838, 10590.07
3312.767, 10620.18
3314.695, 10649.74
3316.624, 10673.50
3318.552, 10692.06
3320.480, 10711.78
3322.409, 10733.86
3324.337, 10762.25
3326.266, 10793.96
3328.194, 10825.84
3330.123, 10856.22
3332.051, 10886.47
3333.980, 10908.66
3335.908, 10918.33
3337.837, 10930.45
3339.765, 10947.80
3341.694, 10973.23
3343.622, 11005.99
3345.551, 11035.20
3347.479, 11061.11
3349.407, 11080.89
3351.336, 11100.67
3353.264, 11122.65
3355.193, 11150.80
3357.121, 11188.94
3359.050, 11226.13
3360.978, 11261.15
3362.907, 11283.50
3364.835, 11294.37
3366.764, 11317.01
3368.692, 11346.95
3370.621, 11370.49
3372.549, 11394.43
3374.478, 11428.87
3376.406, 11458.96
3378.334, 11472.97
3380.263, 11492.20
3382.191, 11520.94
3384.120, 11549.96
3386.048, 11578.16
3387.977, 11603.34
3389.905, 11626.55
3391.834, 11646.67
3393.762, 11672.26
3395.691, 11721.77
3397.619, 11765.35
3399.548, 11786.03
3401.476, 11806.87
3403.405, 11829.36
3405.333, 11867.00
3407.261, 11890.84
3409.190, 11920.26
3411.118, 11951.64
3413.047, 11977.93
3414.975, 12009.00
3416.904, 12040.25
3418.832, 12070.33
3420.761, 12099.72
3422.689, 12129.71
3424.618, 12161.48
3426.546, 12189.99
3428.475, 12215.53
3430.403, 12232.91
3432.332, 12255.75
3434.260, 12314.79
3436.188, 12366.97
3438.117, 12383.09
3440.045, 12399.36
3441.974, 12429.71
3443.902, 12454.16
3445.831, 12473.91
3447.759, 12506.17
3449.688, 12545.22
3451.616, 12575.75
3453.545, 12605.67
3455.473, 12642.82
3457.402, 12678.80
3459.330, 12707.52
3461.259, 12743.94
3463.187, 12790.13
3465.115, 12828.94
3467.044, 12860.40
3468.972, 12878.59
3470.901, 12898.44
3472.829, 12941.12
3474.758, 12982.37
3476.686, 13004.32
3478.615, 13031.56
3480.543, 13069.82
3482.472, 13089.80
3484.400, 13114.27
3486.329, 13121.19
3488.257, 13155.15
3490.186, 13175.18
3492.114, 13199.12
3494.042, 13244.08
3495.971, 13278.14
3497.899, 13284.39
3499.828, 13307.09
3501.756, 13345.96
3503.685, 13412.53
3505.613, 13480.51
3507.542, 13504.28
3509.470, 13510.52
3511.399, 13507.13
3513.327, 13524.71
3515.256, 13561.38
3517.184, 13631.55
3519.113, 13663.69
3521.041, 13723.35
3522.969, 13796.46
3524.898, 13859.83
3526.826, 13915.23
3528.755, 13954.29
3530.683, 14003.44
3532.612, 14068.60
3534.540, 14131.74
3536.469, 14194.67
3538.397, 14282.58
3540.326, 14388.63
3542.254, 14518.27
3544.183, 14634.15
3546.111, 14701.64
3548.040, 14769.95
3549.968, 14843.55
3551.896, 14956.79
3553.825, 15104.78
3555.753, 15274.57
3557.682, 15443.42
3559.610, 15597.47
3561.539, 15717.32
3563.467, 15801.36
3565.396, 15830.05
3567.324, 15792.65
3569.253, 15729.28
3571.181, 15648.99
3573.110, 15588.07
3575.038, 15529.87
3576.967, 15453.47
3578.895, 15385.35
3580.823, 15341.88
3582.752, 15274.52
3584.680, 15178.07
3586.609, 15113.32
3588.537, 15075.71
3590.466, 15055.50
3592.394, 15052.29
3594.323, 15051.05
3596.251, 15062.89
3598.180, 15087.23
3600.108, 15108.70
3602.037, 15148.18
3603.965, 15184.55
3605.894, 15216.98
3607.822, 15238.25
3609.750, 15266.53
3611.679, 15299.70
3613.607, 15329.84
3615.536, 15370.79
3617.464, 15403.38
3619.393, 15447.36
3621.321, 15494.55
3623.250, 15540.58
3625.178, 15582.34
3627.107, 15618.30
3629.035, 15661.71
3630.964, 15686.10
3632.892, 15740.10
3634.821, 15778.56
3636.749, 15813.92
3638.677, 15868.15
3640.606, 15910.60
3642.534, 15914.86
3644.463, 15934.90
3646.391, 15971.49
3648.320, 16015.81
3650.248, 16065.46
3652.177, 16127.71
3654.105, 16178.48
3656.034, 16198.17
3657.962, 16219.77
3659.891, 16247.29
3661.819, 16273.22
3663.748, 16303.09
3665.676, 16361.59
3667.604, 16419.75
3669.533, 16456.67
3671.461, 16486.82
3673.390, 16513.20
3675.318, 16551.59
3677.247, 16596.42
3679.175, 16616.79
3681.104, 16635.61
3683.032, 16679.67
3684.961, 16710.43
3686.889, 16752.10
3688.818, 16793.27
3690.746, 16833.73
3692.675, 16872.57
3694.603, 16895.51
3696.531, 16923.07
3698.460, 16962.41
3700.388, 17016.18
3702.317, 17081.84
3704.245, 17153.48
3706.174, 17201.65
3708.102, 17232.44
3710.031, 17248.12
3711.959, 17264.48
3713.888, 17293.18
3715.816, 17306.15
3717.745, 17307.44
3719.673, 17332.79
3721.602, 17371.88
3723.530, 17420.37
3725.458, 17453.84
3727.387, 17511.43
3729.315, 17550.21
3731.244, 17610.30
3733.172, 17652.43
3735.101, 17671.16
3737.029, 17753.24
3738.958, 17824.90
3740.886, 17849.74
3742.815, 17881.21
3744.743, 17922.92
3746.672, 17958.53
3748.600, 17999.20
3750.529, 18034.15
3752.457, 18069.50
3754.385, 18114.06
3756.314, 18144.75
3758.242, 18206.82
3760.171, 18261.20
3762.099, 18300.87
3764.028, 18312.00
3765.956, 18327.73
3767.885, 18359.00
3769.813, 18407.26
3771.742, 18465.02
3773.670, 18497.49
3775.599, 18526.82
3777.527, 18576.26
3779.456, 18622.70
3781.384, 18660.61
3783.313, 18697.76
3785.241, 18732.26
3787.169, 18747.43
3789.098, 18775.09
3791.026, 18842.50
3792.955, 18900.79
3794.883, 18940.55
3796.812, 18989.40
3798.740, 19040.00
3800.669, 19071.80
3802.597, 19105.21
3804.526, 19148.59
3806.454, 19200.72
3808.383, 19259.15
3810.311, 19306.46
3812.240, 19350.48
3814.168, 19405.14
3816.096, 19453.95
3818.025, 19489.20
3819.953, 19523.06
3821.882, 19557.89
3823.810, 19612.36
3825.739, 19661.71
3827.667, 19683.94
3829.596, 19691.97
3831.524, 19686.64
3833.453, 19715.15
3835.381, 19770.94
3837.310, 19842.69
3839.238, 19910.15
3841.167, 19959.49
3843.095, 19998.13
3845.023, 20025.79
3846.952, 20058.04
3848.880, 20092.58
3850.809, 20132.63
3852.737, 20166.40
3854.666, 20215.37
3856.594, 20243.26
3858.523, 20316.45
3860.451, 20384.70
3862.380, 20440.68
3864.308, 20472.83
3866.237, 20497.52
3868.165, 20518.46
3870.094, 20561.49
3872.022, 20614.96
3873.950, 20658.27
3875.879, 20709.00
3877.807, 20755.39
3879.736, 20826.38
3881.664, 20851.86
3883.593, 20911.31
3885.521, 20969.58
3887.450, 21001.95
3889.378, 21024.70
3891.307, 21044.03
3893.235, 21068.74
3895.164, 21107.35
3897.092, 21186.27
3899.021, 21249.05
3900.949, 21272.91
3902.877, 21307.88
3904.806, 21353.79
3906.734, 21409.23
3908.663, 21465.16
3910.591, 21504.69
3912.520, 21548.26
3914.448, 21586.89
3916.377, 21620.17
3918.305, 21661.58
3920.234, 21697.30
3922.162, 21735.22
3924.091, 21768.44
3926.019, 21809.00
3927.948, 21857.79
3929.876, 21894.61
3931.804, 21934.32
3933.733, 21987.95
3935.661, 22018.18
3937.590, 22071.56
3939.518, 22106.24
3941.447, 22168.80
3943.375, 22210.44
3945.304, 22255.34
3947.232, 22296.44
3949.161, 22338.84
3951.089, 22378.54
3953.018, 22401.97
3954.946, 22425.72
3956.875, 22459.64
3958.803, 22499.06
3960.731, 22557.71
3962.660, 22597.36
3964.588, 22651.45
3966.517, 22693.85
3968.445, 22735.21
3970.374, 22778.82
3972.302, 22816.74
3974.231, 22861.90
3976.159, 22905.29
3978.088, 22942.10
3980.016, 22974.63
3981.945, 22997.81
3983.873, 23017.92
3985.802, 23054.72
3987.730, 23111.10
3989.658, 23162.00
3991.587, 23206.71
3993.515, 23256.88
3995.444, 23311.20
3997.372, 23368.83
3999.301, 23429.61
4001.229, 23473.80
4003.158, 23510.45
4005.086, 23523.85
4007.015, 23549.25
4008.943, 23597.80
4010.872, 23660.34
4012.800, 23724.65
4014.729, 23741.04
4016.657, 23775.13
4018.585, 23851.46
4020.514, 23904.91
4022.442, 23939.68
4024.371, 23980.00
4026.299, 24033.74
4028.228, 24090.32
4030.156, 24127.47
4032.085, 24164.04
4034.013, 24221.88
4035.942, 24269.24
4037.870, 24302.19
4039.799, 24336.18
4041.727, 24367.84
4043.656, 24421.70
4045.584, 24470.37
4047.512, 24477.79
4049.441, 24498.98
4051.369, 24556.63
4053.298, 24607.53
4055.226, 24642.26
4057.155, 24678.31
4059.083, 24716.57
4061.012, 24756.52
4062.940, 24812.52
4064.869, 24864.40
4066.797, 24889.96
4068.726, 24935.69
4070.654, 24999.79
4072.583, 25046.05
4074.511, 25077.17
4076.439, 25109.56
4078.368, 25136.13
4080.296, 25153.03
4082.225, 25188.83
4084.153, 25231.99
4086.082, 25274.91
4088.010, 25318.46
4089.939, 25359.46
4091.867, 25396.63
4093.796, 25441.87
4095.724, 25505.59
4097.653, 25543.63
4099.581, 25560.92
4101.510, 25563.68
4103.438, 25576.42
4105.367, 25621.22
4107.295, 25673.82
4109.224, 25726.69
4111.152, 25752.54
4113.081, 25780.52
4115.009, 25830.51
4116.938, 25877.18
4118.866, 25916.52
4120.794, 25961.56
4122.723, 26004.11
4124.651, 26037.14
4126.580, 26078.14
4128.508, 26126.66
4130.437, 26166.50
4132.365, 26211.08
4134.293, 26250.40
4136.222, 26315.51
4138.150, 26330.84
4140.079, 26384.02
4142.007, 26434.50
4143.936, 26452.15
4145.864, 26471.38
4147.793, 26500.05
4149.721, 26543.25
4151.650, 26589.12
4153.578, 26635.98
4155.507, 26676.32
4157.435, 26711.57
4159.364, 26747.69
4161.292, 26786.74
4163.221, 26834.23
4165.149, 26859.65
4167.078, 26873.47
4169.006, 26946.48
4170.935, 27006.30
4172.863, 26999.62
4174.792, 27034.43
4176.720, 27105.10
4178.648, 27134.16
4180.577, 27153.56
4182.505, 27191.27
4184.434, 27247.69
4186.362, 27303.24
4188.291, 27311.86
4190.219, 27316.65
4192.147, 27341.54
4194.076, 27377.08
4196.004, 27415.12
4197.933, 27450.34
4199.861, 27485.31
4201.790, 27513.87
4203.718, 27543.80
4205.647, 27579.79
4207.575, 27636.09
4209.504, 27692.99
4211.432, 27752.03
4213.361, 27790.34
4215.289, 27817.53
4217.218, 27844.33
4219.146, 27877.36
4221.075, 27922.77
4223.003, 27953.75
4224.932, 27972.34
4226.860, 27981.22
4228.789, 28012.36
4230.717, 28068.24
4232.646, 28115.52
4234.574, 28149.78
4236.502, 28182.23
4238.431, 28190.56
4240.359, 28222.51
4242.288, 28230.54
4244.216, 28237.53
4246.145, 28262.87
4248.073, 28289.04
4250.001, 28317.04
4251.930, 28370.15
4253.858, 28425.36
4255.787, 28468.76
4257.715, 28511.65
4259.644, 28547.98
4261.572, 28557.39
4263.501, 28562.50
4265.429, 28572.91
4267.358, 28612.43
4269.286, 28666.81
4271.215, 28719.91
4273.143, 28745.90
4275.072, 28742.35
4277.000, 28771.04
4278.929, 28819.94
4280.857, 28883.23
4282.786, 28933.56
4284.714, 28968.74
4286.643, 28994.09
4288.571, 29012.38
4290.500, 29019.62
4292.428, 29071.11
4294.356, 29147.02
4296.285, 29184.73
4298.213, 29195.68
4300.142, 29183.07
4302.070, 29205.97
4303.999, 29244.48
4305.927, 29269.24
4307.855, 29285.70
4309.784, 29298.16
4311.712, 29321.81
4313.641, 29364.74
4315.569, 29440.57
4317.498, 29504.16
4319.426, 29546.77
4321.355, 29551.62
4323.283, 29550.06
4325.212, 29552.50
4327.140, 29599.87
4329.069, 29667.29
4330.997, 29708.66
4332.926, 29756.07
4334.854, 29814.51
4336.783, 29825.55
4338.711, 29827.52
4340.640, 29861.42
4342.568, 29883.29
4344.497, 29895.92
4346.425, 29936.40
4348.354, 29961.66
4350.282, 29976.72
4352.210, 29962.55
4354.139, 30016.36
4356.067, 30039.65
4357.996, 30078.54
4359.924, 30138.56
4361.853, 30186.84
4363.781, 30220.77
4365.709, 30235.72
4367.638, 30261.16
4369.566, 30297.44
4371.495, 30333.52
4373.423, 30371.71
4375.352, 30410.45
4377.280, 30453.83
4379.209, 30471.04
4381.137, 30407.98
4383.066, 30404.21
4384.994, 30463.95
4386.923, 30517.06
4388.851, 30547.98
4390.780, 30549.18
4392.708, 30557.95
4394.637, 30570.35
4396.565, 30579.47
4398.494, 30572.50
4400.422, 30595.33
4402.351, 30589.65
4404.279, 30633.05
4406.208, 30661.97
4408.136, 30687.46
4410.064, 30713.41
4411.993, 30749.92
4413.921, 30776.31
4415.850, 30788.23
4417.778, 30795.26
4419.707, 30814.05
4421.635, 30862.57
4423.563, 30909.51
4425.492, 30943.62
4427.420, 30962.26
4429.349, 30977.56
4431.277, 30978.20
4433.206, 30985.05
4435.134, 30984.97
4437.063, 30991.89
4438.991, 31034.34
4440.920, 31087.46
4442.848, 31088.03
4444.777, 31081.18
4446.705, 31082.65
4448.634, 31102.56
4450.562, 31113.10
4452.491, 31157.20
4454.419, 31156.30
4456.348, 31196.13
4458.276, 31220.62
4460.205, 31250.62
4462.133, 31289.00
4464.062, 31347.22
4465.990, 31393.42
4467.918, 31407.91
4469.847, 31392.06
4471.775, 31367.17
4473.704, 31367.22
4475.632, 31383.46
4477.561, 31409.42
4479.489, 31404.00
4481.417, 31422.69
4483.346, 31498.40
4485.274, 31534.92
4487.203, 31538.88
4489.131, 31514.78
4491.060, 31514.46
4492.988, 31536.71
4494.917, 31529.87
4496.845, 31540.25
4498.774, 31554.28
4500.702, 31592.31
4502.631, 31586.62
4504.559, 31629.93
4506.488, 31660.63
4508.416, 31677.04
4510.345, 31680.66
4512.273, 31703.38
4514.202, 31748.17
4516.130, 31772.31
4518.059, 31795.45
4519.987, 31834.33
4521.916, 31851.77
4523.844, 31856.94
4525.772, 31872.67
4527.701, 31871.60
4529.629, 31862.57
4531.558, 31914.85
4533.486, 31946.39
4535.415, 31929.36
4537.343, 31953.63
4539.271, 31984.26
4541.200, 31982.61
4543.128, 32021.76
4545.057, 32069.83
4546.985, 32042.73
4548.914, 32034.03
4550.842, 32058.78
4552.771, 32039.46
4554.699, 32105.96
4556.628, 32050.15
4558.556, 32059.59
4560.485, 32097.87
4562.413, 32135.72
4564.342, 32140.15
4566.270, 32128.64
4568.199, 32141.26
4570.127, 32159.08
4572.056, 32179.41
4573.984, 32216.33
4575.913, 32245.09
4577.841, 32251.23
4579.770, 32272.99
4581.698, 32290.39
4583.626, 32284.40
4585.555, 32284.01
4587.483, 32292.82
4589.412, 32317.55
4591.340, 32333.21
4593.269, 32341.84
4595.197, 32375.79
4597.125, 32391.53
4599.054, 32363.59
4600.982, 32414.47
4602.911, 32457.34
4604.839, 32430.81
4606.768, 32443.92
4608.696, 32462.71
4610.625, 32427.04
4612.553, 32402.69
4614.482, 32401.25
4616.410, 32432.74
4618.339, 32452.54
4620.267, 32449.68
4622.196, 32465.24
4624.124, 32458.60
4626.053, 32461.82
4627.981, 32462.54
4629.910, 32459.65
4631.838, 32459.86
4633.767, 32455.91
4635.695, 32457.55
4637.624, 32492.93
4639.552, 32496.81
4641.480, 32472.32
4643.409, 32433.49
4645.337, 32428.61
4647.266, 32461.76
4649.194, 32521.57
4651.123, 32558.24
4653.051, 32546.63
4654.979, 32517.12
4656.908, 32476.45
4658.836, 32420.37
4660.765, 32452.07
4662.693, 32503.74
4664.622, 32478.21
4666.550, 32481.56
4668.479, 32511.09
4670.407, 32543.90
4672.336, 32538.37
4674.264, 32503.03
4676.193, 32533.74
4678.121, 32536.35
4680.050, 32490.71
4681.978, 32488.72
4683.907, 32486.97
4685.835, 32462.93
4687.764, 32497.29
4689.692, 32547.35
4691.621, 32577.74
4693.549, 32581.91
4695.478, 32579.77
4697.406, 32597.99
4699.334, 32581.57
4701.263, 32543.13
4703.191, 32532.04
4705.120, 32499.36
4707.048, 32485.13
4708.977, 32458.04
4710.905, 32461.69
4712.833, 32456.78
4714.762, 32453.33
4716.690, 32457.08
4718.619, 32469.02
4720.547, 32474.63
4722.476, 32481.15
4724.404, 32494.61
4726.333, 32459.83
4728.261, 32414.11
4730.190, 32384.08
4732.118, 32374.34
4734.047, 32368.23
4735.975, 32345.45
4737.904, 32344.42
4739.832, 32344.72
4741.761, 32292.78
4743.689, 32292.93
4745.618, 32335.03
4747.546, 32368.97
4749.475, 32394.70
4751.403, 32410.23
4753.332, 32429.81
4755.260, 32404.47
4757.188, 32405.45
4759.117, 32367.65
4761.045, 32379.48
4762.974, 32356.13
4764.902, 32358.19
4766.831, 32361.29
4768.759, 32355.82
4770.688, 32367.76
4772.616, 32371.94
4774.544, 32391.66
4776.473, 32385.39
4778.401, 32432.94
4780.330, 32454.46
4782.258, 32462.00
4784.187, 32398.84
4786.115, 32436.23
4788.044, 32392.05
4789.972, 32337.21
4791.901, 32364.40
4793.829, 32394.37
4795.758, 32407.24
4797.686, 32379.40
4799.615, 32372.02
4801.543, 32360.93
4803.472, 32277.06
4805.400, 32234.19
4807.329, 32224.66
4809.257, 32198.14
4811.186, 32181.14
4813.114, 32186.54
4815.042, 32251.29
4816.971, 32296.31
4818.899, 32300.82
4820.828, 32227.80
4822.756, 32193.80
4824.685, 32204.14
4826.613, 32178.58
4828.542, 32157.51
4830.470, 32146.74
4832.398, 32119.15
4834.327, 32127.22
4836.255, 32121.10
4838.184, 32146.69
4840.112, 32126.03
4842.041, 32117.97
4843.969, 32112.00
4845.898, 32106.55
4847.826, 32103.45
4849.755, 32097.12
4851.683, 32073.07
4853.612, 32046.69
4855.540, 32045.30
4857.469, 32057.02
4859.397, 32069.51
4861.326, 32033.87
4863.254, 31992.02
4865.183, 31963.01
4867.111, 31970.56
4869.040, 31960.82
4870.968, 31918.39
4872.896, 31885.80
4874.825, 31881.94
4876.753, 31908.68
4878.682, 31883.21
4880.610, 31841.56
4882.539, 31802.94
4884.467, 31786.67
4886.396, 31756.94
4888.324, 31704.43
4890.252, 31727.91
4892.181, 31757.51
4894.109, 31758.66
4896.038, 31716.53
4897.966, 31662.16
4899.895, 31615.89
4901.823, 31605.27
4903.752, 31614.59
4905.680, 31635.53
4907.609, 31632.99
4909.537, 31653.51
4911.466, 31642.24
4913.394, 31651.23
4915.323, 31605.35
4917.251, 31579.45
4919.180, 31530.66
4921.108, 31463.43
4923.037, 31394.70
4924.965, 31379.74
4926.894, 31399.26
4928.822, 31430.46
4930.750, 31385.29
4932.679, 31348.90
4934.607, 31335.39
4936.536, 31317.98
4938.464, 31309.60
4940.393, 31305.03
4942.321, 31280.97
4944.250, 31267.09
4946.178, 31264.30
4948.106, 31269.82
4950.035, 31214.86
4951.963, 31137.29
4953.892, 31133.08
4955.820, 31131.24
4957.749, 31125.16
4959.677, 31126.85
4961.606, 31091.21
4963.534, 31049.10
4965.463, 31060.17
4967.391, 31026.25
4969.320, 30973.73
4971.248, 30933.10
4973.177, 30958.85
4975.105, 30964.04
4977.034, 30862.13
4978.962, 30804.08
4980.891, 30773.57
4982.819, 30752.08
4984.748, 30755.13
4986.676, 30773.62
4988.604, 30796.38
4990.533, 30757.73
4992.461, 30691.55
4994.390, 30619.49
4996.318, 30584.75
4998.247, 30592.32
5000.175, 30543.88
5002.104, 30562.04
5004.032, 30505.61
5005.960, 30472.51
5007.889, 30464.99
5009.817, 30420.42
5011.746, 30357.53
5013.674, 30346.18
5015.603, 30350.04
5017.531, 30357.72
5019.460, 30367.95
5021.388, 30323.35
5023.317, 30258.07
5025.245, 30214.52
5027.174, 30216.16
5029.102, 30209.15
5031.031, 30143.87
5032.959, 30150.35
5034.888, 30142.56
5036.816, 30067.31
5038.745, 30079.82
5040.673, 30081.53
5042.602, 30043.29
5044.530, 30025.82
5046.458, 30013.21
5048.387, 29991.28
5050.315, 29906.17
5052.244, 29858.07
5054.172, 29844.58
5056.101, 29818.81
5058.029, 29801.59
5059.958, 29782.59
5061.886, 29746.81
5063.814, 29706.07
5065.743, 29681.95
5067.671, 29690.43
5069.600, 29663.96
5071.528, 29622.89
5073.457, 29581.47
5075.385, 29565.79
5077.314, 29552.32
5079.242, 29534.63
5081.171, 29513.82
5083.099, 29462.85
5085.028, 29399.25
5086.956, 29380.14
5088.885, 29392.63
5090.813, 29400.76
5092.742, 29344.41
5094.670, 29326.50
5096.599, 29305.34
5098.527, 29236.05
5100.456, 29177.93
5102.384, 29137.08
5104.313, 29116.89
5106.241, 29087.17
5108.169, 29071.04
5110.098, 29068.95
5112.026, 29036.21
5113.955, 29052.44
5115.883, 29033.33
5117.812, 29027.06
5119.740, 29005.46
5121.668, 28998.74
5123.597, 28965.90
5125.525, 28923.12
5127.454, 28891.71
5129.382, 28880.69
5131.311, 28828.29
5133.239, 28791.86
5135.168, 28783.85
5137.096, 28727.35
5139.025, 28675.27
5140.953, 28640.59
5142.882, 28615.30
5144.810, 28657.72
5146.739, 28701.43
5148.667, 28656.15
5150.596, 28619.43
5152.524, 28563.65
5154.453, 28477.42
5156.381, 28428.17
5158.310, 28422.07
5160.238, 28441.22
5162.167, 28418.23
5164.095, 28365.52
5166.023, 28306.10
5167.952, 28277.52
5169.880, 28238.27
5171.809, 28207.06
5173.737, 28203.27
5175.666, 28210.84
5177.594, 28200.63
5179.522, 28161.24
5181.451, 28100.06
5183.379, 28038.45
5185.308, 27985.22
5187.236, 27944.06
5189.165, 27938.16
5191.093, 27943.58
5193.022, 27933.25
5194.950, 27897.35
5196.879, 27854.47
5198.807, 27816.02
5200.736, 27795.54
5202.664, 27773.86
5204.593, 27742.35
5206.521, 27718.03
5208.450, 27693.72
5210.378, 27649.28
5212.307, 27639.68
5214.235, 27582.52
5216.164, 27539.75
5218.092, 27531.90
5220.021, 27484.46
5221.949, 27413.03
5223.877, 27347.19
5225.806, 27337.77
5227.734, 27360.88
5229.663, 27376.63
5231.591, 27353.26
5233.520, 27270.68
5235.448, 27225.89
5237.376, 27230.46
5239.305, 27142.47
5241.233, 27101.77
5243.162, 27097.99
5245.090, 27073.77
5247.019, 27055.57
5248.947, 27006.99
5250.876, 26911.00
5252.804, 26883.09
5254.733, 26839.93
5256.661, 26781.22
5258.590, 26789.75
5260.518, 26784.85
5262.447, 26771.95
5264.375, 26748.58
5266.304, 26726.41
5268.232, 26676.88
5270.161, 26646.46
5272.089, 26599.16
5274.018, 26561.32
5275.946, 26530.11
5277.875, 26498.35
5279.803, 26446.93
5281.731, 26393.74
5283.660, 26351.94
5285.588, 26302.94
5287.517, 26251.11
5289.445, 26213.30
5291.374, 26226.73
5293.302, 26239.86
5295.230, 26224.71
5297.159, 26159.54
5299.087, 26091.60
5301.016, 26044.74
5302.944, 26016.91
5304.873, 25969.89
5306.801, 25980.29
5308.730, 25983.93
5310.658, 25908.66
5312.587, 25850.39
5314.515, 25795.04
5316.444, 25738.52
5318.372, 25692.98
5320.301, 25645.82
5322.229, 25608.63
5324.158, 25579.12
5326.086, 25544.91
5328.015, 25510.25
5329.943, 25455.01
5331.872, 25404.09
5333.800, 25383.53
5335.729, 25367.74
5337.657, 25322.57
5339.585, 25272.50
5341.514, 25206.34
5343.442, 25129.64
5345.371, 25076.02
5347.299, 25038.97
5349.228, 25003.39
5351.156, 24945.17
5353.084, 24939.37
5355.013, 24909.03
5356.941, 24843.16
5358.870, 24819.00
5360.798, 24772.06
5362.727, 24726.24
5364.655, 24713.19
5366.584, 24677.74
5368.512, 24652.99
5370.441, 24637.36
5372.369, 24592.59
5374.298, 24505.81
5376.226, 24430.72
5378.155, 24407.80
5380.083, 24387.17
5382.012, 24354.48
5383.940, 24322.12
5385.869, 24279.78
5387.797, 24242.06
5389.726, 24197.06
5391.654, 24145.68
5393.583, 24104.64
5395.511, 24096.97
5397.439, 24086.89
5399.368, 24017.77
5401.296, 23980.68
5403.225, 23922.07
5405.153, 23830.57
5407.082, 23771.85
5409.010, 23743.21
5410.938, 23716.97
5412.867, 23662.05
5414.795, 23671.64
5416.724, 23661.81
5418.652, 23609.68
5420.581, 23521.06
5422.509, 23470.83
5424.438, 23438.80
5426.366, 23405.04
5428.295, 23355.71
5430.223, 23309.38
5432.152, 23268.31
5434.080, 23230.28
5436.009, 23191.95
5437.937, 23166.81
5439.866, 23146.76
5441.794, 23096.21
5443.723, 23055.90
5445.651, 22959.14
5447.580, 22948.87
5449.508, 22883.31
5451.437, 22824.15
5453.365, 22790.55
5455.293, 22791.17
5457.222, 22753.44
5459.150, 22729.90
5461.079, 22717.66
5463.007, 22634.10
5464.936, 22575.27
5466.864, 22529.35
5468.792, 22477.77
5470.721, 22420.63
5472.649, 22361.59
5474.578, 22299.26
5476.506, 22232.11
5478.435, 22179.50
5480.363, 22140.44
5482.292, 22111.97
5484.220, 22087.35
5486.149, 22054.17
5488.077, 22029.56
5490.006, 22015.16
5491.934, 21955.93
5493.863, 21933.39
5495.791, 21909.35
5497.720, 21833.47
5499.648, 21777.98
5501.577, 21723.42
5503.505, 21671.47
5505.434, 21632.12
5507.362, 21590.94
5509.291, 21556.36
5511.219, 21519.94
5513.147, 21499.68
5515.076, 21460.08
5517.004, 21440.06
5518.933, 21452.96
5520.861, 21406.92
5522.790, 21371.90
5524.718, 21315.35
5526.646, 21205.29
5528.575, 21155.04
5530.503, 21102.73
5532.432, 21042.64
5534.360, 20986.58
5536.289, 20963.25
5538.217, 20930.95
5540.146, 20877.13
5542.074, 20807.57
5544.003, 20743.87
5545.931, 20678.52
5547.860, 20625.51
5549.788, 20641.59
5551.717, 20657.86
5553.645, 20641.02
5555.574, 20581.77
5557.502, 20506.65
5559.431, 20407.28
5561.359, 20338.14
5563.288, 20333.89
5565.216, 20277.24
5567.145, 20237.24
5569.073, 20215.80
5571.001, 20201.12
5572.930, 20161.71
5574.858, 20084.54
5576.787, 20002.25
5578.715, 19959.45
5580.644, 19907.97
5582.572, 19864.05
5584.500, 19842.00
5586.429, 19796.75
5588.357, 19770.06
5590.286, 19738.95
5592.214, 19701.81
5594.143, 19684.15
5596.071, 19607.02
5598.000, 19551.29
5599.928, 19522.74
5601.857, 19430.02
5603.785, 19392.09
5605.714, 19365.93
5607.642, 19323.73
5609.571, 19270.83
5611.499, 19222.78
5613.428, 19175.79
5615.356, 19125.18
5617.285, 19083.28
5619.213, 19020.24
5621.142, 18993.59
5623.070, 18956.16
5624.999, 18900.49
5626.927, 18845.35
5628.855, 18811.88
5630.784, 18754.66
5632.712, 18706.39
5634.641, 18667.01
5636.569, 18600.89
5638.498, 18578.97
5640.426, 18524.27
5642.354, 18508.97
5644.283, 18488.18
5646.211, 18428.32
5648.140, 18372.34
5650.068, 18334.99
5651.997, 18293.60
5653.925, 18235.53
5655.854, 18194.56
5657.782, 18172.80
5659.711, 18150.83
5661.639, 18115.45
5663.568, 18074.04
5665.496, 18020.95
5667.425, 17985.04
5669.353, 17974.38
5671.282, 17929.72
5673.210, 17906.77
5675.139, 17870.55
5677.067, 17798.24
5678.996, 17692.58
5680.924, 17641.02
5682.853, 17608.74
5684.781, 17576.07
5686.709, 17587.22
5688.638, 17543.71
5690.566, 17486.15
5692.495, 17435.90
5694.423, 17365.87
5696.352, 17345.23
5698.280, 17304.18
5700.208, 17235.30
5702.137, 17211.58
5704.065, 17184.75
5705.994, 17132.54
5707.922, 17063.57
5709.851, 17009.32
5711.779, 16958.29
5713.708, 16941.85
5715.636, 16944.78
5717.565, 16928.82
5719.493, 16857.96
5721.422, 16815.25
5723.350, 16798.32
5725.279, 16772.40
5727.207, 16708.02
5729.136, 16643.45
5731.064, 16581.74
5732.993, 16521.04
5734.921, 16485.12
5736.850, 16430.21
5738.778, 16391.32
5740.707, 16349.07
5742.635, 16301.31
5744.563, 16266.86
5746.492, 16215.33
5748.420, 16173.06
5750.349, 16137.93
5752.277, 16069.60
5754.206, 16046.33
5756.134, 16051.44
5758.063, 15984.88
5759.991, 15947.90
5761.919, 15904.79
5763.848, 15860.06
5765.776, 15834.10
5767.705, 15773.28
5769.633, 15723.61
5771.562, 15689.85
5773.490, 15660.20
5775.419, 15593.02
5777.347, 15569.49
5779.276, 15531.11
5781.204, 15454.62
5783.133, 15416.21
5785.061, 15366.91
5786.990, 15317.99
5788.918, 15280.61
5790.847, 15244.57
5792.775, 15207.76
5794.704, 15192.31
5796.632, 15182.77
5798.561, 15154.60
5800.489, 15124.61
5802.417, 15087.21
5804.346, 15038.93
5806.274, 14985.74
5808.203, 14959.69
5810.131, 14908.98
5812.060, 14835.97
5813.988, 14773.65
5815.917, 14775.81
5817.845, 14745.89
5819.773, 14723.41
5821.702, 14705.85
5823.630, 14673.72
5825.559, 14619.32
5827.487, 14547.37
5829.416, 14489.18
5831.344, 14453.54
5833.273, 14389.62
5835.201, 14367.21
5837.130, 14340.16
5839.058, 14314.67
5840.987, 14337.89
5842.915, 14296.60
5844.844, 14236.12
5846.772, 14166.13
5848.701, 14093.33
5850.629, 14075.32
5852.558, 14022.20
5854.486, 13981.14
5856.415, 13964.14
5858.343, 13931.91
5860.271, 13895.41
5862.200, 13846.29
5864.128, 13795.45
5866.057, 13756.69
5867.985, 13729.96
5869.914, 13697.74
5871.842, 13679.97
5873.771, 13672.42
5875.699, 13628.47
5877.627, 13605.79
5879.556, 13573.75
5881.484, 13537.88
5883.413, 13513.61
5885.341, 13462.89
5887.270, 13404.76
5889.198, 13360.49
5891.127, 13324.72
5893.055, 13265.66
5894.984, 13244.57
5896.912, 13190.11
5898.841, 13131.77
5900.769, 13109.97
5902.698, 13073.66
5904.626, 13016.64
5906.555, 12982.72
5908.483, 12958.26
5910.412, 12888.48
5912.340, 12915.11
5914.269, 12910.37
5916.197, 12872.99
5918.125, 12826.88
5920.054, 12765.92
5921.982, 12699.14
5923.911, 12661.81
5925.839, 12646.38
5927.768, 12625.28
5929.696, 12604.62
5931.625, 12573.42
5933.553, 12527.97
5935.481, 12476.67
5937.410, 12447.55
5939.338, 12399.26
5941.267, 12352.53
5943.195, 12321.30
5945.124, 12302.85
5947.052, 12250.06
5948.981, 12243.60
5950.909, 12220.14
5952.838, 12169.32
5954.766, 12115.60
5956.695, 12066.28
5958.623, 12007.89
5960.552, 11979.38
5962.480, 11971.41
5964.409, 11923.75
5966.337, 11922.08
5968.266, 11867.18
5970.194, 11815.78
5972.123, 11806.33
5974.051, 11765.03
5975.979, 11717.27
5977.908, 11669.65
5979.836, 11633.43
5981.765, 11587.99
5983.693, 11561.39
5985.622, 11511.76
5987.550, 11478.17
5989.479, 11452.56
5991.407, 11419.30
5993.335, 11386.76
5995.264, 11351.77
5997.192, 11323.59
5999.121, 11286.22
6001.049, 11253.00
6002.978, 11204.77
6004.906, 11186.72
6006.835, 11159.99
6008.763, 11135.47
6010.692, 11117.25
6012.620, 11093.30
6014.549, 11037.98
6016.477, 10993.02
6018.406, 10977.13
6020.334, 10961.04
6022.263, 10895.93
6024.191, 10873.51
6026.120, 10849.72
6028.048, 10791.28
6029.977, 10749.28
6031.905, 10755.08
6033.833, 10733.04
6035.762, 10694.28
6037.690, 10658.49
6039.619, 10592.24
6041.547, 10553.36
6043.476, 10510.10
6045.404, 10462.22
6047.333, 10422.92
6049.261, 10413.89
6051.189, 10415.08
6053.118, 10402.99
6055.046, 10361.92
6056.975, 10298.69
6058.903, 10264.12
6060.832, 10220.55
6062.760, 10168.17
6064.689, 10134.94
6066.617, 10121.58
6068.546, 10048.25
6070.474, 10041.86
6072.403, 10040.50
6074.331, 10011.98
6076.260, 9960.751
6078.188, 9925.326
6080.117, 9893.623
6082.045, 9847.813
6083.974, 9811.831
6085.902, 9796.984
6087.831, 9786.077
6089.759, 9739.869
6091.688, 9700.275
6093.616, 9660.454
6095.544, 9621.808
6097.473, 9605.303
6099.401, 9568.505
6101.330, 9546.226
6103.258, 9515.502
6105.187, 9481.440
6107.115, 9472.762
6109.043, 9436.350
6110.972, 9421.596
6112.900, 9396.583
6114.829, 9347.747
6116.757, 9287.954
6118.686, 9282.278
6120.614, 9233.728
6122.543, 9203.497
6124.471, 9189.041
6126.400, 9158.931
6128.328, 9120.864
6130.257, 9060.579
6132.185, 9038.553
6134.114, 9000.416
6136.042, 8961.382
6137.971, 8985.035
6139.899, 8981.937
6141.828, 8945.310
6143.756, 8891.766
6145.685, 8852.141
6147.613, 8851.191
6149.542, 8800.844
6151.470, 8796.526
6153.398, 8761.205
6155.327, 8702.605
6157.255, 8661.065
6159.184, 8622.152
6161.112, 8584.868
6163.041, 8572.152
6164.969, 8528.370
6166.897, 8513.257
6168.826, 8494.124
6170.754, 8460.360
6172.683, 8451.979
6174.611, 8431.018
6176.540, 8395.164
6178.468, 8365.946
6180.397, 8332.413
6182.325, 8297.935
6184.254, 8270.580
6186.182, 8242.089
6188.111, 8211.745
6190.039, 8198.768
6191.968, 8154.412
6193.896, 8116.413
6195.825, 8101.692
6197.753, 8085.749
6199.682, 8039.769
6201.610, 8017.390
6203.539, 7998.194
6205.467, 7955.019
6207.396, 7919.511
6209.324, 7905.928
6211.252, 7885.306
6213.181, 7862.947
6215.109, 7861.904
6217.038, 7844.868
6218.966, 7795.692
6220.895, 7730.366
6222.823, 7706.334
6224.751, 7713.609
6226.680, 7685.955
6228.608, 7666.523
6230.537, 7646.775
6232.465, 7572.732
6234.394, 7518.606
6236.322, 7515.485
6238.251, 7495.710
6240.179, 7471.934
6242.108, 7462.826
6244.036, 7449.822
6245.965, 7413.500
6247.893, 7394.771
6249.822, 7375.279
6251.750, 7344.868
6253.679, 7311.333
6255.607, 7294.275
6257.536, 7255.721
6259.464, 7249.071
6261.393, 7251.101
6263.321, 7241.528
6265.250, 7217.229
6267.178, 7180.439
6269.106, 7156.017
6271.035, 7105.165
6272.963, 7082.226
6274.892, 7047.024
6276.820, 6997.473
6278.749, 6977.383
6280.677, 6943.156
6282.605, 6930.808
6284.534, 6913.620
6286.462, 6909.548
6288.391, 6905.250
6290.319, 6852.464
6292.248, 6823.470
6294.176, 6820.990
6296.105, 6807.307
6298.033, 6773.427
6299.962, 6738.956
6301.890, 6713.025
6303.819, 6679.898
6305.747, 6649.029
6307.676, 6636.421
6309.604, 6604.695
6311.533, 6583.584
6313.461, 6560.282
6315.390, 6535.709
6317.318, 6522.546
6319.247, 6496.168
6321.175, 6464.704
6323.104, 6451.822
6325.032, 6425.404
6326.960, 6404.503
6328.889, 6382.970
6330.817, 6371.864
6332.746, 6348.792
6334.674, 6311.863
6336.603, 6274.051
6338.531, 6253.605
6340.459, 6240.408
6342.388, 6216.695
6344.316, 6189.951
6346.245, 6170.937
6348.173, 6150.432
6350.102, 6129.750
6352.030, 6103.705
6353.959, 6081.495
6355.887, 6069.556
6357.816, 6049.042
6359.744, 5987.436
6361.673, 5975.486
6363.601, 5960.292
6365.530, 5945.987
6367.458, 5934.157
6369.387, 5920.466
6371.315, 5896.986
6373.244, 5868.543
6375.172, 5829.499
6377.101, 5804.532
6379.029, 5767.560
6380.958, 5746.256
6382.886, 5739.433
6384.814, 5710.361
6386.743, 5700.211
6388.671, 5693.782
6390.600, 5671.530
6392.528, 5645.265
6394.457, 5628.630
6396.385, 5608.156
6398.313, 5592.733
6400.242, 5573.779
6402.170, 5553.719
6404.099, 5537.702
6406.027, 5520.356
6407.956, 5497.824
6409.884, 5478.092
6411.813, 5451.556
6413.741, 5427.430
6415.670, 5400.257
6417.598, 5362.368
6419.527, 5344.781
6421.455, 5327.569
6423.384, 5298.333
6425.312, 5307.381
6427.241, 5303.555
6429.169, 5269.625
6431.098, 5240.429
6433.026, 5224.219
6434.955, 5196.857
6436.883, 5181.409
6438.812, 5165.298
6440.740, 5151.753
6442.668, 5136.575
6444.597, 5123.119
6446.525, 5107.224
6448.454, 5098.336
6450.382, 5064.725
6452.311, 5054.093
6454.239, 5021.893
6456.167, 5007.118
6458.096, 4990.326
6460.024, 4954.391
6461.953, 4950.273
6463.881, 4940.119
6465.810, 4922.874
6467.738, 4894.081
6469.667, 4871.967
6471.595, 4863.414
6473.524, 4859.759
6475.452, 4847.978
6477.381, 4819.647
6479.309, 4797.241
6481.238, 4780.326
6483.166, 4778.445
6485.095, 4770.813
6487.023, 4739.117
6488.952, 4700.164
6490.880, 4696.610
6492.809, 4672.450
6494.737, 4655.049
6496.666, 4644.238
6498.594, 4629.138
6500.522, 4606.531
6502.451, 4580.640
6504.379, 4570.101
6506.308, 4540.935
6508.236, 4539.920
6510.165, 4519.114
6512.093, 4493.223
6514.021, 4479.564
6515.950, 4470.875
6517.878, 4437.867
6519.807, 4410.909
6521.735, 4413.966
6523.664, 4399.406
6525.592, 4369.740
6527.521, 4354.191
6529.449, 4354.568
6531.378, 4333.108
6533.306, 4328.820
6535.235, 4312.494
6537.163, 4289.392
6539.092, 4263.125
6541.020, 4239.749
6542.949, 4225.738
6544.877, 4219.622
6546.806, 4208.690
6548.734, 4201.561
6550.663, 4172.141
6552.591, 4163.927
6554.520, 4135.780
6556.448, 4103.878
6558.376, 4105.657
6560.305, 4084.182
6562.233, 4072.579
6564.162, 4065.520
6566.090, 4051.696
6568.019, 4040.284
6569.947, 4030.785
6571.875, 4014.483
6573.804, 3991.018
6575.732, 3979.947
6577.661, 3950.698
6579.589, 3936.370
6581.518, 3941.147
6583.446, 3936.450
6585.375, 3918.406
6587.303, 3889.374
6589.232, 3862.125
6591.160, 3868.539
6593.089, 3842.192
6595.017, 3830.396
6596.946, 3830.816
6598.874, 3806.997
6600.803, 3795.423
6602.731, 3785.246
6604.660, 3754.258
6606.588, 3738.998
6608.517, 3727.069
6610.445, 3717.242
6612.374, 3703.328
6614.302, 3690.582
6616.230, 3680.484
6618.159, 3670.687
6620.087, 3661.294
6622.016, 3652.109
6623.944, 3614.397
6625.873, 3616.987
6627.801, 3610.884
6629.729, 3600.722
##END=



