##NAMES=Fayalite
##RRUFFID=R070157
##IDEAL CHEMISTRY=Fe^2+^_2_(SiO_4_)
##LOCALITY=Coso Hot Springs, Inyo County, California, USA
##OWNER=RRUFF
##SOURCE=James Shigley
##DESCRIPTION=Brown transparent tabular crystals associated with fine grained quartz
##STATUS=The identification of this mineral is confirmed by single-crystal X-ray diffraction and chemical analysis
##URL=https://www.rruff.net/odr/rruff_sample/R070157
##MEASURED CHEMISTRY=(Fe^2+^_1.88_Mn_0.11_Zn_0.01_)Si_1.00_O_4_ ; trace amounts of Mg
##DIFFRACTION SAMPLE DESCRIPTION=Single crystal, powder profile is calculated
##CELL PARAMETERS=a: 4.8177 b: 10.477 c: 6.0922 alpha: 90 beta: 90 gamma: 90 volume: 307.5 crystal system: orthorhombic
##FILETYPE=Raman RAW
##RAMAN WAVELENGTH=785

136.8899, 367.3217
138.8184, 460.5386
140.7468, 544.0444
142.6753, 626.5615
144.6038, 677.1096
146.5322, 652.9792
148.4607, 619.8470
150.3892, 614.8925
152.3176, 638.1519
154.2461, 701.9452
156.1746, 820.9519
158.1030, 891.0452
160.0315, 868.8112
161.9600, 823.5721
163.8884, 772.6993
165.8169, 728.6445
167.7454, 721.8212
169.6738, 753.5593
171.6023, 766.5333
173.5308, 754.3919
175.4592, 730.5082
177.3877, 693.6935
179.3162, 652.8843
181.2446, 612.4444
183.1731, 573.5641
185.1016, 540.8385
187.0300, 513.8336
188.9585, 494.4789
190.8870, 487.3313
192.8154, 482.4680
194.7439, 475.5936
196.6724, 468.5677
198.6008, 464.7463
200.5293, 463.7402
202.4578, 461.4492
204.3862, 457.3538
206.3147, 452.8386
208.2432, 447.6380
210.1716, 442.8637
212.1001, 438.9732
214.0286, 436.0483
215.9570, 433.6720
217.8855, 431.7893
219.8140, 433.9347
221.7424, 443.8232
223.6709, 451.6604
225.5994, 454.0656
227.5278, 453.9265
229.4563, 453.5065
231.3848, 452.4751
233.3132, 449.2943
235.2417, 443.4556
237.1702, 440.3473
239.0986, 441.8612
241.0271, 445.3933
242.9556, 451.4321
244.8840, 458.2074
246.8125, 463.0721
248.7410, 467.1270
250.6694, 473.9371
252.5979, 483.8451
254.5264, 495.5989
256.4548, 508.6340
258.3833, 523.9042
260.3118, 542.7844
262.2402, 563.3500
264.1687, 582.7448
266.0972, 601.9926
268.0256, 624.3012
269.9541, 649.2681
271.8826, 679.7281
273.8110, 718.8257
275.7395, 759.7222
277.6680, 798.8895
279.5964, 839.6183
281.5249, 887.6474
283.4534, 940.1076
285.3818, 989.4285
287.3103, 1036.651
289.2388, 1074.591
291.1672, 1107.905
293.0957, 1125.011
295.0242, 1123.020
296.9526, 1102.558
298.8811, 1058.036
300.8096, 996.6602
302.7380, 932.0842
304.6665, 862.7099
306.5950, 801.6948
308.5234, 753.2957
310.4519, 708.5937
312.3804, 665.4543
314.3088, 625.7034
316.2373, 590.9595
318.1658, 560.5947
320.0942, 534.8511
322.0227, 514.2056
323.9512, 492.7163
325.8796, 467.5206
327.8081, 445.4558
329.7366, 426.0446
331.6650, 411.1672
333.5935, 405.0420
335.5220, 401.9424
337.4504, 393.6666
339.3789, 381.1470
341.3074, 376.3081
343.2358, 383.0900
345.1643, 390.5529
347.0928, 398.0532
349.0212, 406.8669
350.9497, 417.3405
352.8782, 429.4076
354.8066, 442.8568
356.7351, 457.7831
358.6636, 475.6529
360.5920, 498.2934
362.5205, 513.1544
364.4490, 514.8887
366.3774, 519.9800
368.3059, 532.1409
370.2344, 545.9210
372.1628, 563.8788
374.0913, 577.5918
376.0198, 576.7855
377.9482, 563.8489
379.8767, 551.4319
381.8052, 540.3181
383.7336, 526.6974
385.6621, 508.7886
387.5906, 492.3164
389.5190, 477.6304
391.4475, 466.3590
393.3760, 462.5012
395.3044, 460.2325
397.2329, 451.2147
399.1614, 436.6184
401.0898, 426.1355
403.0183, 420.3768
404.9468, 416.6686
406.8752, 415.9359
408.8037, 414.8523
410.7322, 414.3276
412.6606, 410.3093
414.5891, 399.2738
416.5176, 384.8156
418.4460, 370.2803
420.3745, 356.1222
422.3030, 346.0679
424.2314, 340.8192
426.1599, 333.4212
428.0884, 321.5905
430.0168, 313.6501
431.9453, 315.9890
433.8738, 316.9616
435.8022, 308.7429
437.7307, 298.2937
439.6592, 292.7907
441.5876, 291.1381
443.5161, 290.0727
445.4446, 289.6209
447.3730, 287.8722
449.3015, 284.5232
451.2300, 280.8334
453.1584, 276.0309
455.0869, 272.9600
457.0154, 274.1199
458.9438, 275.8416
460.8723, 274.7351
462.8008, 272.7492
464.7292, 274.4862
466.6577, 279.1029
468.5862, 278.8912
470.5146, 273.3979
472.4431, 270.7911
474.3716, 273.2852
476.3000, 275.7442
478.2285, 278.0145
480.1570, 277.9942
482.0854, 271.8662
484.0139, 265.7097
485.9424, 265.8232
487.8708, 270.2605
489.7993, 275.6691
491.7278, 281.5003
493.6563, 283.7572
495.5847, 281.9247
497.5132, 279.4183
499.4417, 275.1674
501.3701, 274.0913
503.2986, 280.9170
505.2271, 286.5241
507.1555, 285.0335
509.0840, 281.9601
511.0125, 282.6956
512.9409, 285.8782
514.8694, 288.8260
516.7979, 291.6039
518.7263, 294.6721
520.6548, 298.1328
522.5833, 300.7609
524.5117, 301.2104
526.4402, 303.4608
528.3687, 307.3678
530.2971, 314.2560
532.2256, 328.4624
534.1541, 341.8033
536.0825, 344.3869
538.0110, 344.2360
539.9395, 354.1940
541.8679, 370.9825
543.7964, 385.9947
545.7249, 398.9680
547.6533, 411.7779
549.5818, 424.3357
551.5103, 437.4996
553.4387, 453.7036
555.3672, 466.8607
557.2957, 476.5032
559.2241, 481.9051
561.1526, 480.7772
563.0811, 477.1187
565.0095, 474.5455
566.9380, 471.7982
568.8665, 469.0767
570.7949, 464.5741
572.7234, 449.2903
574.6519, 421.6494
576.5803, 399.8987
578.5088, 388.3288
580.4373, 374.9590
582.3657, 356.8424
584.2942, 340.7842
586.2227, 329.0601
588.1511, 318.3493
590.0796, 305.7442
592.0081, 295.1100
593.9365, 290.0715
595.8650, 288.3314
597.7935, 288.5558
599.7219, 289.5799
601.6504, 287.5934
603.5789, 282.5435
605.5073, 276.9615
607.4358, 269.8601
609.3643, 265.3257
611.2927, 263.6520
613.2212, 263.7574
615.1497, 266.6404
617.0781, 269.3140
619.0066, 271.0173
620.9351, 272.0941
622.8635, 272.7473
624.7920, 272.8058
626.7205, 272.5604
628.6489, 271.3760
630.5774, 265.9282
632.5059, 259.3900
634.4343, 263.3777
636.3628, 277.3026
638.2913, 284.3607
640.2197, 283.3370
642.1482, 280.3501
644.0767, 273.9901
646.0051, 271.1427
647.9336, 274.2125
649.8621, 276.2368
651.7905, 274.2156
653.7190, 273.1234
655.6475, 277.5025
657.5759, 280.2394
659.5044, 275.5826
661.4329, 269.2601
663.3613, 265.8147
665.2898, 264.3794
667.2183, 263.9749
669.1467, 264.3809
671.0752, 265.3111
673.0037, 266.6131
674.9321, 266.1312
676.8606, 263.8210
678.7891, 261.1556
680.7175, 258.0474
682.6460, 255.5855
684.5745, 253.6995
686.5029, 253.6250
688.4314, 257.1529
690.3599, 258.8014
692.2883, 254.5526
694.2168, 251.2479
696.1453, 252.0112
698.0737, 254.2991
700.0022, 258.2121
701.9307, 261.1893
703.8591, 259.5302
705.7876, 256.1470
707.7161, 254.8897
709.6445, 255.6937
711.5730, 259.9866
713.5015, 266.3549
715.4299, 266.2980
717.3584, 260.8241
719.2869, 260.7109
721.2153, 266.5720
723.1438, 270.2068
725.0723, 270.0506
727.0007, 273.0171
728.9292, 282.3405
730.8577, 288.0470
732.7861, 284.8148
734.7146, 283.4859
736.6431, 288.2324
738.5715, 293.1819
740.5000, 297.3748
742.4285, 299.7143
744.3569, 296.7217
746.2854, 294.9187
748.2139, 302.1784
750.1423, 310.8516
752.0708, 311.1548
753.9993, 308.3198
755.9277, 308.8098
757.8562, 313.0466
759.7847, 323.7740
761.7131, 338.2578
763.6416, 347.1585
765.5701, 351.8329
767.4985, 360.0943
769.4270, 372.4273
771.3555, 393.2401
773.2839, 423.9635
775.2124, 451.6175
777.1409, 471.8937
779.0693, 500.8309
780.9978, 539.0754
782.9263, 588.1205
784.8547, 651.1143
786.7832, 719.1476
788.7117, 793.2000
790.6401, 868.6328
792.5686, 939.5118
794.4971, 1018.790
796.4255, 1109.355
798.3540, 1212.631
800.2825, 1330.890
802.2109, 1460.039
804.1394, 1597.874
806.0679, 1744.778
807.9963, 1909.707
809.9248, 2075.419
811.8533, 2243.773
813.7817, 2385.647
815.7102, 2463.053
817.6387, 2489.962
819.5671, 2490.171
821.4956, 2459.056
823.4241, 2376.696
825.3525, 2253.989
827.2810, 2127.183
829.2095, 1999.018
831.1379, 1887.509
833.0664, 1792.980
834.9949, 1731.556
836.9233, 1706.523
838.8518, 1675.821
840.7803, 1641.760
842.7087, 1588.219
844.6372, 1511.542
846.5657, 1427.904
848.4941, 1337.389
850.4226, 1239.004
852.3511, 1130.000
854.2795, 1021.870
856.2080, 912.9146
858.1365, 814.2288
860.0649, 725.3066
861.9934, 655.1982
863.9219, 611.6068
865.8503, 568.9451
867.7788, 518.2982
869.7073, 473.6337
871.6357, 439.0799
873.5642, 412.3852
875.4927, 396.4430
877.4211, 380.1296
879.3496, 357.3804
881.2781, 335.9889
883.2065, 316.7675
885.1350, 304.2271
887.0635, 306.3837
888.9919, 307.7186
890.9204, 298.2728
892.8489, 288.5082
894.7773, 285.3169
896.7058, 282.8431
898.6343, 275.6317
900.5627, 269.5383
902.4912, 270.1659
904.4197, 272.4763
906.3481, 272.2399
908.2766, 271.6046
910.2051, 273.6691
912.1335, 275.2379
914.0620, 269.5518
915.9905, 265.0110
917.9189, 275.3614
919.8474, 288.4392
921.7759, 287.7429
923.7043, 281.8585
925.6328, 280.8070
927.5613, 283.1646
929.4897, 289.9169
931.4182, 296.2642
933.3467, 292.2260
935.2751, 284.8316
937.2036, 287.8885
939.1321, 293.7520
941.0605, 286.5590
942.9890, 274.8861
944.9175, 276.3200
946.8459, 282.6958
948.7744, 278.1646
950.7029, 268.0873
952.6313, 261.1278
954.5598, 256.9984
956.4883, 255.3492
958.4167, 255.9897
960.3452, 260.7871
962.2737, 266.2441
964.2021, 264.4260
966.1306, 258.7608
968.0591, 255.7741
969.9875, 254.0074
971.9160, 249.7239
973.8445, 245.0779
975.7729, 245.7709
977.7014, 248.2680
979.6299, 243.6555
981.5583, 237.0974
983.4868, 241.5119
985.4153, 249.2387
987.3438, 243.2135
989.2722, 231.8111
991.2007, 230.2936
993.1292, 234.7275
995.0576, 239.7734
996.9861, 244.4083
998.9146, 246.9880
1000.843, 247.9521
1002.771, 248.4268
1004.700, 247.4771
1006.628, 241.9762
1008.557, 235.4540
1010.485, 234.2660
1012.414, 234.4652
1014.342, 228.6205
1016.271, 222.5067
1018.199, 225.5269
1020.128, 230.8848
1022.056, 229.5071
1023.985, 226.7840
1025.913, 229.6889
1027.842, 233.3185
1029.770, 232.7829
1031.698, 230.4193
1033.627, 228.2534
1035.555, 225.3982
1037.484, 218.4021
1039.412, 213.8013
1041.341, 219.8345
1043.269, 225.7025
1045.198, 223.5090
1047.126, 219.1492
1049.055, 213.4916
1050.983, 211.3915
1052.912, 219.0392
1054.840, 225.1891
1056.769, 222.9828
1058.697, 219.7798
1060.625, 218.9818
1062.554, 217.7639
1064.482, 213.3383
1066.411, 212.3018
1068.339, 218.9722
1070.268, 224.3067
1072.196, 224.9475
1074.125, 225.5818
1076.053, 228.5244
1077.982, 227.1171
1079.910, 217.6534
1081.839, 213.7873
1083.767, 219.4847
1085.696, 223.9913
1087.624, 225.6604
1089.552, 224.3707
1091.481, 219.7385
1093.409, 217.4023
1095.338, 218.0060
1097.266, 219.1673
1099.195, 220.6537
1101.123, 221.0351
1103.052, 220.5159
1104.980, 223.9829
1106.909, 230.1530
1108.837, 227.5414
1110.766, 218.4423
1112.694, 214.0228
1114.623, 213.7095
1116.551, 217.3205
1118.479, 222.3740
1120.408, 222.6109
1122.336, 220.5147
1124.265, 219.5672
1126.193, 220.0407
1128.122, 223.4801
1130.050, 227.2436
1131.979, 227.3554
1133.907, 227.7023
1135.836, 234.0832
1137.764, 238.7665
1139.693, 233.9888
1141.621, 229.4124
1143.550, 231.3937
1145.478, 232.9388
1147.406, 230.7538
1149.335, 228.5107
1151.263, 226.7193
1153.192, 225.9640
1155.120, 227.3919
1157.049, 227.6752
1158.977, 226.3207
1160.906, 224.3880
1162.834, 221.7007
1164.763, 219.4172
1166.691, 217.4390
1168.620, 218.3606
1170.548, 222.0686
1172.477, 224.9253
1174.405, 226.6873
1176.333, 225.8362
1178.262, 223.2730
1180.190, 222.0582
1182.119, 220.9787
1184.047, 216.1069
1185.976, 211.4992
1187.904, 213.2486
1189.833, 216.6105
1191.761, 218.5878
1193.690, 218.7154
1195.618, 214.8067
1197.547, 212.3589
1199.475, 215.7793
1201.404, 217.6237
1203.332, 213.8203
1205.260, 211.5991
1207.189, 212.4431
1209.117, 216.3144
1211.046, 225.2166
1212.974, 228.6690
1214.903, 224.8115
1216.831, 222.3624
1218.760, 221.3246
1220.688, 221.2752
1222.617, 222.1286
1224.545, 223.8770
1226.474, 225.8319
1228.402, 225.6267
1230.331, 224.8037
1232.259, 225.8119
1234.188, 227.6262
1236.116, 228.7253
1238.044, 230.8879
1239.973, 238.4552
1241.901, 241.4951
1243.830, 232.6779
1245.758, 227.2294
1247.687, 230.7170
1249.615, 233.4502
1251.544, 233.1985
1253.472, 235.2776
1255.401, 240.4910
1257.329, 238.2174
1259.258, 228.9022
1261.186, 227.1129
1263.115, 231.4672
1265.043, 238.2337
1266.971, 244.4150
1268.900, 242.1404
1270.828, 237.0282
1272.757, 235.3521
1274.685, 235.5520
1276.614, 237.8946
1278.542, 239.2601
1280.471, 237.1009
1282.399, 235.4349
1284.328, 235.4228
1286.256, 235.2512
1288.185, 234.4506
1290.113, 235.5026
1292.042, 238.5128
1293.970, 237.3903
1295.898, 233.2322
1297.827, 234.9629
1299.755, 239.4654
1301.684, 237.5255
1303.612, 233.6213
1305.541, 233.5876
1307.469, 235.5325
1309.398, 239.7238
1311.326, 242.1814
1313.255, 239.2482
1315.183, 236.7585
1317.112, 237.3995
1319.040, 236.4046
1320.969, 232.2413
1322.897, 231.5680
1324.825, 234.6829
1326.754, 238.9684
1328.682, 243.0703
1330.611, 238.9907
1332.539, 232.0060
1334.468, 233.5995
1336.396, 237.0164
1338.325, 234.8760
1340.253, 232.7711
1342.182, 235.0227
1344.110, 236.8082
1346.039, 235.9283
1347.967, 235.4540
1349.896, 236.3693
1351.824, 236.1610
1353.752, 234.6717
1355.681, 233.9061
1357.609, 233.8655
1359.538, 235.5491
1361.466, 237.1095
1363.395, 232.4617
1365.323, 229.2846
1367.252, 237.1952
1369.180, 243.0365
1371.109, 238.4378
1373.037, 235.3753
1374.966, 238.4122
1376.894, 238.3988
1378.823, 233.1849
1380.751, 232.8761
1382.679, 236.8242
1384.608, 236.1655
1386.536, 233.2906
1388.465, 234.4496
1390.393, 236.7398
1392.322, 236.8760
1394.250, 236.6068
1396.179, 237.3589
1398.107, 236.2345
1400.036, 231.2106
1401.964, 231.5006
1403.893, 238.9233
1405.821, 239.9194
1407.750, 234.6767
1409.678, 229.9257
1411.606, 226.9940
1413.535, 230.9275
1415.463, 235.7608
1417.392, 234.4763
1419.320, 232.6871
1421.249, 234.4713
1423.177, 232.7119
1425.106, 224.8142
1427.034, 221.2196
1428.963, 222.8611
1430.891, 225.1873
1432.820, 227.3557
1434.748, 226.2542
1436.677, 224.9974
1438.605, 230.9510
1440.533, 234.9931
1442.462, 227.8557
1444.390, 220.9548
1446.319, 216.5024
1448.247, 217.4503
1450.176, 224.4542
1452.104, 228.8457
1454.033, 230.7860
1455.961, 234.6597
1457.890, 237.5984
1459.818, 232.3713
1461.747, 227.0770
1463.675, 230.3306
1465.604, 232.5536
1467.532, 228.6420
1469.460, 225.8966
1471.389, 225.2832
1473.317, 222.7819
1475.246, 219.2788
1477.174, 222.9176
1479.103, 228.2215
1481.031, 224.3963
1482.960, 219.9784
1484.888, 223.2022
1486.817, 224.7761
1488.745, 219.9321
1490.674, 215.6163
1492.602, 211.4627
1494.531, 215.8325
1496.459, 225.6266
1498.387, 224.0258
1500.316, 218.5482
1502.244, 219.5076
1504.173, 221.0517
1506.101, 220.8656
1508.030, 217.3147
1509.958, 207.5917
1511.887, 205.0814
1513.815, 210.1419
1515.744, 211.3970
1517.672, 210.4432
1519.601, 211.4359
1521.529, 212.2204
1523.458, 210.5867
1525.386, 209.2224
1527.314, 209.8313
1529.243, 206.4944
1531.171, 197.6193
1533.100, 199.5066
1535.028, 208.4745
1536.957, 208.3082
1538.885, 206.2733
1540.814, 214.2338
1542.742, 219.3008
1544.671, 214.8991
1546.599, 210.1859
1548.528, 206.7936
1550.456, 208.0535
1552.385, 212.2672
1554.313, 208.5769
1556.241, 202.9868
1558.170, 205.6201
1560.098, 208.1794
1562.027, 205.6004
1563.955, 203.1612
1565.884, 201.7023
1567.812, 202.5285
1569.741, 204.8555
1571.669, 204.4435
1573.598, 202.5533
1575.526, 200.6610
1577.455, 198.7660
1579.383, 196.4478
1581.312, 194.9664
1583.240, 194.4250
1585.168, 196.2143
1587.097, 199.7676
1589.025, 203.9117
1590.954, 206.1471
1592.882, 200.3050
1594.811, 196.5048
1596.739, 203.8238
1598.668, 204.9582
1600.596, 197.6923
1602.525, 195.5679
1604.453, 197.5634
1606.382, 200.8082
1608.310, 202.3839
1610.239, 196.7660
1612.167, 193.5377
1614.095, 199.1451
1616.024, 201.0327
1617.952, 198.7166
1619.881, 199.3181
1621.809, 200.9312
1623.738, 198.9744
1625.666, 196.9033
1627.595, 197.5186
1629.523, 197.6404
1631.452, 196.6882
1633.380, 193.5882
1635.309, 189.2052
1637.237, 188.3159
1639.166, 190.1223
1641.094, 196.0706
1643.022, 198.6003
1644.951, 193.1162
1646.879, 189.2067
1648.808, 187.9548
1650.736, 184.9744
1652.665, 181.9466
1654.593, 183.4547
1656.522, 184.9393
1658.450, 183.2639
1660.379, 183.0969
1662.307, 185.7987
1664.236, 185.0473
1666.164, 182.3236
1668.093, 184.1413
1670.021, 186.3337
1671.949, 184.3380
1673.878, 183.3253
1675.806, 184.7740
1677.735, 186.2880
1679.663, 187.4903
1681.592, 187.5141
1683.520, 187.0912
1685.449, 187.3808
1687.377, 187.2442
1689.306, 186.5877
1691.234, 182.7690
1693.163, 176.5174
1695.091, 176.1852
1697.020, 178.2040
1698.948, 176.3303
1700.876, 176.0027
1702.805, 180.3102
1704.733, 184.2528
1706.662, 186.6794
1708.590, 178.9017
1710.519, 168.9277
1712.447, 170.9798
1714.376, 174.2684
1716.304, 172.4104
1718.233, 173.0534
1720.161, 176.2016
1722.090, 170.2738
1724.018, 162.8720
1725.947, 169.8862
1727.875, 175.6614
1729.803, 167.8976
1731.732, 166.5354
1733.660, 172.3662
1735.589, 174.6579
1737.517, 172.9549
1739.446, 163.5289
1741.374, 157.4067
1743.303, 163.4478
1745.231, 165.8519
1747.160, 164.0287
1749.088, 164.8738
1751.017, 166.3687
1752.945, 165.6786
1754.874, 164.8645
1756.802, 164.3590
1758.730, 165.7925
1760.659, 168.7549
1762.587, 170.2082
1764.516, 169.2907
1766.444, 163.5664
1768.373, 159.9980
1770.301, 161.4290
1772.230, 163.5001
1774.158, 165.3708
1776.087, 164.3430
1778.015, 161.5382
1779.944, 157.3799
1781.872, 153.3087
1783.801, 149.5632
1785.729, 148.6150
1787.657, 149.7143
1789.586, 151.9456
1791.514, 154.0528
1793.443, 156.1912
1795.371, 152.9032
1797.300, 144.3343
1799.228, 144.1295
1801.157, 148.4620
1803.085, 154.7171
1805.014, 157.5092
1806.942, 155.0031
1808.871, 154.2729
1810.799, 154.1377
1812.728, 144.2375
1814.656, 138.2671
1816.584, 152.6153
1818.513, 158.1959
1820.441, 151.5489
1822.370, 149.9136
1824.298, 150.9473
1826.227, 150.0192
1828.155, 149.5532
1830.084, 150.9511
1832.012, 148.4837
1833.941, 143.5027
1835.869, 142.2803
1837.798, 143.6140
1839.726, 149.0469
1841.655, 150.7708
1843.583, 147.6217
1845.511, 145.1359
1847.440, 144.0979
1849.368, 145.6444
1851.297, 147.8628
1853.225, 150.6677
1855.154, 148.4352
1857.082, 143.4300
1859.011, 143.7599
1860.939, 144.3859
1862.868, 140.9613
1864.796, 138.9019
1866.725, 138.7903
1868.653, 140.1480
1870.582, 140.1765
1872.510, 133.1205
1874.438, 130.6615
1876.367, 137.5078
1878.295, 140.2413
1880.224, 140.1791
1882.152, 136.5015
1884.081, 135.0956
1886.009, 140.7446
1887.938, 142.2204
1889.866, 139.3573
1891.795, 132.0271
1893.723, 126.4968
1895.652, 127.7224
1897.580, 129.5567
1899.509, 130.6222
1901.437, 129.2307
1903.365, 125.9180
1905.294, 120.1176
1907.222, 118.7024
1909.151, 123.3752
1911.079, 124.3948
1913.008, 123.4280
1914.936, 126.0861
1916.865, 126.3709
1918.793, 121.9023
1920.722, 121.7345
1922.650, 123.3786
1924.579, 121.8498
1926.507, 121.1507
1928.436, 122.2294
1930.364, 123.7602
1932.292, 124.9844
1934.221, 122.7608
1936.149, 120.9694
1938.078, 122.6043
1940.006, 122.0690
1941.935, 119.4875
1943.863, 117.8156
1945.792, 117.1943
1947.720, 118.0952
1949.649, 117.8131
1951.577, 116.9494
1953.506, 118.7212
1955.434, 119.7996
1957.363, 116.9619
1959.291, 114.2633
1961.219, 112.6263
1963.148, 117.9974
1965.076, 122.1017
1967.005, 116.5405
1968.933, 112.8490
1970.862, 111.6712
1972.790, 111.7874
1974.719, 111.8135
1976.647, 108.5280
1978.576, 109.8016
1980.504, 115.8032
1982.433, 113.0104
1984.361, 108.5376
1986.290, 108.8728
1988.218, 110.0311
1990.146, 111.0693
1992.075, 108.4116
1994.003, 106.2718
1995.932, 109.3293
1997.860, 108.1499
1999.789, 102.1417
2001.717, 101.9280
2003.646, 102.6047
2005.574, 99.90042
2007.503, 98.43892
2009.431, 98.78096
2011.360, 99.59001
2013.288, 99.98270
2015.217, 99.38094
2017.145, 97.36716
2019.073, 95.01582
2021.002, 100.2803
2022.930, 102.8480
2024.859, 95.78046
2026.787, 92.53189
2028.716, 93.41248
2030.644, 93.37712
2032.573, 95.20155
2034.501, 100.8455
2036.430, 98.61221
2038.358, 91.86315
2040.287, 90.58437
2042.215, 91.03310
2044.144, 92.04785
2046.072, 93.64109
2048.000, 94.36864
2049.929, 89.64678
2051.857, 88.21640
2053.786, 92.01315
2055.714, 91.24068
2057.643, 90.41692
2059.571, 98.17228
2061.500, 101.8695
2063.428, 99.73164
2065.357, 96.62866
2067.285, 94.24851
2069.214, 96.13495
2071.142, 93.73966
2073.071, 88.13747
2074.999, 91.96634
2076.927, 94.47135
2078.856, 86.48691
2080.784, 84.80640
2082.713, 87.01943
2084.641, 83.89121
2086.570, 83.46019
2088.498, 90.69296
2090.427, 93.19366
2092.355, 92.40506
2094.284, 89.25166
2096.212, 87.76675
2098.141, 88.21507
2100.069, 83.09608
2101.998, 79.93771
2103.926, 83.77334
2105.854, 84.14130
2107.783, 82.90887
2109.711, 87.96266
2111.640, 89.95655
2113.568, 84.69355
2115.497, 77.18984
2117.425, 71.55902
2119.354, 76.07411
2121.282, 79.68807
2123.211, 78.44263
2125.139, 80.94479
2127.068, 84.11823
2128.996, 82.85127
2130.925, 82.97565
2132.853, 84.12579
2134.781, 80.47674
2136.710, 76.81192
2138.638, 74.14030
2140.567, 72.22400
2142.495, 71.13615
2144.424, 71.60204
2146.352, 71.20345
2148.281, 69.66938
2150.209, 72.66007
2152.138, 76.72446
2154.066, 80.01218
2155.995, 78.82031
2157.923, 76.57354
2159.852, 76.74924
2161.780, 73.85809
2163.708, 67.82297
2165.637, 71.46622
2167.565, 77.47480
2169.494, 76.16756
2171.422, 76.25967
2173.351, 77.71223
2175.279, 76.75510
2177.208, 72.89587
2179.136, 66.61261
2181.065, 67.66722
2182.993, 70.78799
2184.922, 72.05080
2186.850, 70.06399
2188.779, 66.33329
2190.707, 65.64598
2192.635, 66.09094
2194.564, 67.58807
2196.492, 73.35851
2198.421, 76.33134
2200.349, 68.38081
2202.278, 66.26348
2204.206, 69.40855
2206.135, 65.01546
2208.063, 61.24480
2209.992, 61.70868
2211.920, 65.19551
2213.849, 67.95762
2215.777, 68.18731
2217.706, 68.41953
2219.634, 67.63926
2221.563, 65.75456
2223.491, 63.14200
2225.419, 61.69574
2227.348, 63.59359
2229.276, 64.96758
2231.205, 65.48532
2233.133, 61.51109
2235.062, 56.22464
2236.990, 58.31192
2238.919, 56.97371
2240.847, 51.99669
2242.776, 56.65445
2244.704, 60.94047
2246.633, 60.16126
2248.561, 59.05332
2250.490, 55.62706
2252.418, 56.81310
2254.346, 58.05004
2256.275, 57.46129
2258.203, 62.62758
2260.132, 63.90273
2262.060, 58.82257
2263.989, 54.17886
2265.917, 51.06050
2267.846, 50.74817
2269.774, 54.03066
2271.703, 58.42160
2273.631, 58.70541
2275.560, 56.29430
2277.488, 50.33562
2279.417, 51.10336
2281.345, 54.50751
2283.273, 57.09129
2285.202, 54.14783
2287.130, 49.25893
2289.059, 49.42587
2290.987, 49.69119
2292.916, 49.42149
2294.844, 54.96479
2296.773, 55.64347
2298.701, 49.51703
2300.630, 52.69718
2302.558, 55.08668
2304.487, 51.91116
2306.415, 50.40689
2308.344, 48.62254
2310.272, 46.15873
2312.200, 48.18678
2314.129, 50.63575
2316.057, 48.39459
2317.986, 47.57397
2319.914, 47.62204
2321.843, 49.46679
2323.771, 51.47568
2325.700, 51.15267
2327.628, 47.99609
2329.557, 46.22999
2331.485, 50.54274
2333.414, 50.23083
2335.342, 47.81126
2337.271, 47.94306
2339.199, 44.97977
2341.127, 43.14753
2343.056, 45.89555
2344.984, 46.92772
2346.913, 45.58298
2348.841, 46.06460
2350.770, 47.21322
2352.698, 46.96617
2354.627, 44.34293
2356.555, 43.43526
2358.484, 42.87610
2360.412, 42.75743
2362.341, 43.66668
2364.269, 42.79185
2366.198, 41.81134
2368.126, 41.23473
2370.054, 42.54952
2371.983, 42.84225
2373.911, 42.40936
2375.840, 41.72233
2377.768, 39.95628
2379.697, 41.88121
2381.625, 43.35669
2383.554, 42.77809
2385.482, 43.18745
2387.411, 42.28668
2389.339, 41.89481
2391.268, 43.26382
2393.196, 43.28650
2395.125, 41.60563
2397.053, 36.38784
2398.981, 38.23561
2400.910, 43.10401
2402.838, 43.75357
2404.767, 44.45012
2406.695, 43.96424
2408.624, 41.79460
2410.552, 40.71217
2412.481, 40.02203
2414.409, 37.29778
2416.338, 36.69253
2418.266, 38.80735
2420.195, 38.19167
2422.123, 37.45493
2424.052, 38.04961
2425.980, 40.46412
2427.908, 40.94169
2429.837, 38.47385
2431.765, 36.19358
2433.694, 34.94795
2435.622, 36.83360
2437.551, 35.06616
2439.479, 32.65714
2441.408, 34.82776
2443.336, 35.03322
2445.265, 34.29008
2447.193, 34.32114
2449.122, 36.44758
2451.050, 38.67759
2452.979, 36.07392
2454.907, 35.03513
2456.835, 35.62999
2458.764, 33.57323
2460.692, 32.76165
2462.621, 33.86668
2464.549, 36.78583
2466.478, 35.64906
2468.406, 30.55532
2470.335, 31.63305
2472.263, 33.66490
2474.192, 35.13124
2476.120, 37.36676
2478.049, 38.65211
2479.977, 38.21895
2481.906, 35.34261
2483.834, 32.77866
2485.762, 31.91593
2487.691, 31.11858
2489.619, 30.92030
2491.548, 31.11514
2493.476, 32.33665
2495.405, 32.67283
2497.333, 30.26712
2499.262, 27.40127
2501.190, 27.79159
2503.119, 33.11892
2505.047, 29.40183
2506.976, 25.41788
2508.904, 28.66877
2510.833, 30.51344
2512.761, 31.34405
2514.689, 33.09145
2516.618, 32.34791
2518.546, 29.14712
2520.475, 25.51602
2522.403, 27.34834
2524.332, 29.63263
2526.260, 27.91672
2528.189, 28.94519
2530.117, 30.76796
2532.046, 29.77414
2533.974, 28.36662
2535.903, 27.15285
2537.831, 26.30119
2539.760, 28.57856
2541.688, 29.76047
2543.616, 24.17912
2545.545, 26.08239
2547.473, 28.39422
2549.402, 26.00069
2551.330, 24.37212
2553.259, 24.13455
2555.187, 24.49073
2557.116, 24.30237
2559.044, 24.51445
2560.973, 26.10269
2562.901, 25.01446
2564.830, 24.51460
2566.758, 25.30525
2568.687, 24.34472
2570.615, 24.07664
2572.543, 23.87830
2574.472, 23.07449
2576.400, 24.91359
2578.329, 28.23606
2580.257, 25.33242
2582.186, 21.87889
2584.114, 24.89125
2586.043, 24.04042
2587.971, 20.68612
2589.900, 20.10650
2591.828, 22.03936
2593.757, 25.25107
2595.685, 28.07848
2597.614, 26.26446
2599.542, 23.19804
2601.470, 21.23337
2603.399, 21.25580
2605.327, 22.03297
2607.256, 21.67359
2609.184, 23.26341
2611.113, 22.87082
2613.041, 21.59880
2614.970, 24.92725
2616.898, 22.44694
2618.827, 17.34921
2620.755, 21.07651
2622.684, 21.73814
2624.612, 19.88292
2626.541, 20.59553
2628.469, 22.59507
2630.397, 22.52534
2632.326, 19.49903
2634.254, 20.02780
2636.183, 21.47153
2638.111, 19.42622
2640.040, 18.76120
2641.968, 20.55713
2643.897, 22.74399
2645.825, 24.18267
2647.754, 22.43866
2649.682, 19.48389
2651.611, 15.24970
2653.539, 14.81564
2655.468, 17.58694
2657.396, 17.87887
2659.324, 17.49663
2661.253, 18.56592
2663.181, 18.04174
2665.110, 15.78816
2667.038, 18.19880
2668.967, 21.25168
2670.895, 19.17642
2672.824, 19.00105
2674.752, 18.22709
2676.681, 17.08574
2678.609, 20.04211
2680.538, 24.15575
2682.466, 22.35019
2684.395, 19.46432
2686.323, 18.98212
2688.251, 17.03440
2690.180, 15.43021
2692.108, 16.97269
2694.037, 16.01655
2695.965, 14.39792
2697.894, 16.90396
2699.822, 20.37750
2701.751, 18.60670
2703.679, 16.10548
2705.608, 19.08758
2707.536, 16.23186
2709.465, 11.30996
2711.393, 13.71028
2713.322, 14.49565
2715.250, 16.69156
2717.178, 17.27164
2719.107, 14.85150
2721.035, 14.19800
2722.964, 13.69868
2724.892, 15.15437
2726.821, 13.93366
2728.749, 9.844201
2730.678, 11.38832
2732.606, 17.33994
2734.535, 20.24718
2736.463, 17.47270
2738.392, 12.99124
2740.320, 15.95560
2742.249, 17.22924
2744.177, 16.16038
2746.105, 19.26675
2748.034, 18.62120
2749.962, 16.19640
2751.891, 14.67958
2753.819, 12.02364
2755.748, 12.88110
2757.676, 15.75439
2759.605, 17.05083
2761.533, 16.84479
2763.462, 15.98547
2765.390, 15.03635
2767.319, 12.97736
2769.247, 13.55945
2771.176, 18.70051
2773.104, 17.79728
2775.032, 16.90866
2776.961, 17.64081
2778.889, 14.69792
2780.818, 13.76237
2782.746, 13.52645
2784.675, 13.04598
2786.603, 14.77961
2788.532, 13.87542
2790.460, 10.59820
2792.389, 13.18845
2794.317, 16.42034
2796.246, 14.73624
2798.174, 13.28367
2800.103, 12.98081
2802.031, 12.70436
2803.959, 13.57765
2805.888, 12.69178
2807.816, 11.73338
2809.745, 14.51526
2811.673, 14.96462
2813.602, 15.60677
2815.530, 16.55783
2817.459, 15.29649
2819.387, 16.40709
2821.316, 16.75408
2823.244, 14.38883
2825.173, 13.14384
2827.101, 12.98846
2829.030, 10.69938
2830.958, 11.08251
2832.886, 11.90596
2834.815, 11.48230
2836.743, 13.77460
2838.672, 13.63457
2840.600, 13.30953
2842.529, 14.34569
2844.457, 13.50874
2846.386, 13.56386
2848.314, 12.62533
2850.243, 12.60027
2852.171, 12.58767
2854.100, 12.62351
2856.028, 13.00547
2857.957, 11.86016
2859.885, 11.13642
2861.813, 9.857071
2863.742, 9.822014
2865.670, 10.31621
2867.599, 11.20257
2869.527, 9.648280
2871.456, 10.83971
2873.384, 11.26741
2875.313, 7.826360
2877.241, 9.788506
2879.170, 11.02916
2881.098, 9.976921
2883.027, 9.186469
2884.955, 9.032633
2886.884, 8.266957
2888.812, 5.339418
2890.740, 6.299836
2892.669, 8.812490
2894.597, 10.92004
2896.526, 11.50038
2898.454, 8.684333
2900.383, 7.777861
2902.311, 13.25292
2904.240, 8.488859
2906.168, 7.173965
2908.097, 10.78534
2910.025, 11.24934
2911.954, 11.12482
2913.882, 9.719988
2915.811, 6.523544
2917.739, 8.783129
2919.667, 7.316673
2921.596, 4.268017
2923.524, 7.805650
2925.453, 8.810246
2927.381, 8.814077
2929.310, 9.039253
2931.238, 9.037485
2933.167, 6.808472
2935.095, 4.807591
2937.024, 6.736107
2938.952, 7.172072
2940.881, 5.986816
2942.809, 4.076547
2944.738, 2.378478
2946.666, 5.168802
2948.594, 9.067826
2950.523, 9.503070
2952.451, 6.318540
2954.380, 7.081776
2956.308, 10.42449
2958.237, 8.311049
2960.165, 9.576091
2962.094, 11.27621
2964.022, 10.66420
2965.951, 8.432529
2967.879, 6.471825
2969.808, 5.544716
2971.736, 6.162869
2973.665, 6.205204
2975.593, 4.633125
2977.521, 1.982093
2979.450, 0.9812216
2981.378, 5.775845
2983.307, 7.766523
2985.235, 4.159982
2987.164, 4.821745
2989.092, 5.665079
2991.021, 6.224826
2992.949, 7.917850
2994.878, 7.770183
2996.806, 7.951476
2998.735, 6.910151
3000.663, 3.570420
3002.592, 4.608332
3004.520, 6.293656
3006.448, 6.466492
3008.377, 4.401304
3010.305, 3.646049
3012.234, 4.057825
3014.162, 2.523340
3016.091, 4.810170
3018.019, 4.466333
3019.948, 3.318637
3021.876, 8.868250
3023.805, 8.530564
3025.733, 7.423802
3027.662, 6.052009
3029.590, 2.683922
3031.519, 5.665758
3033.447, 6.143075
3035.375, 0.2230817
3037.304, 2.466293
3039.232, 5.827942
3041.161, 6.713944
3043.089, 4.184785
3045.018, 8.450891
3046.946, 6.399035
3048.875, 2.518184
3050.803, 5.200847
3052.732, 6.215714
3054.660, 5.383426
3056.589, 6.303636
3058.517, 6.889333
3060.446, 6.348797
3062.374, 4.297956
3064.302, 1.056297
3066.231, 4.449125
3068.159, 6.048621
3070.088, 5.981202
3072.016, 4.071397
3073.945, 0.7358808
3075.873, 1.659299
3077.802, 3.613116
3079.730, 0.7555165
3081.659, 1.049217
3083.587, 4.360322
3085.516, 5.818094
3087.444, 1.742937
3089.373, 9.365203
3091.301, 8.847169
3093.229, 4.083518
3095.158, 4.883990
3097.086, 0.4256956
3099.015, 5.800804
3100.943, 11.55451
3102.872, 6.482268
3104.800, 3.787572
3106.729, 3.899667
3108.657, 5.024130
3110.586, 5.366745
3112.514, 7.687668
3114.443, 6.582394
3116.371, 2.860366
3118.300, 1.345111
3120.228, 0.6300988
3122.156, 1.517943
3124.085, 4.347202
3126.013, 7.651200
3127.942, 5.259257
3129.870, 3.215235
3131.799, 2.177251
3133.727, 2.468028
3135.656, 5.486198
3137.584, 5.143408
3139.513, 3.579360
3141.441, 5.399161
3143.370, 3.284685
3145.298, 1.349723
3147.227, 0.5770335
3149.155, 1.299590
3151.083, 2.501873
3153.012, 3.489948
3154.940, 3.955916
3156.869, 3.306400
3158.797, 5.888885
3160.726, 4.788189
3162.654, 2.088272
3164.583, 4.881097
3166.511, 2.765281
3168.440, 2.936769
3170.368, 3.307763
3172.297, 4.961871
3174.225, 4.627334
3176.154, 1.291004
3178.082, 1.018169
3180.010, 6.889559
3181.939, 8.062596
3183.867, 8.679818
3185.796, 5.579951
3187.724, 0.7362878
3189.653, 4.043636
3191.581, 3.286358
3193.510, 3.298211
3195.438, 6.704185
3197.367, 4.551883
3199.295, 3.377760
3201.224, 1.866067
3203.152, 2.776839
3205.081, 6.014052
3207.009, 3.815410
3208.938, 2.689169
3210.866, 5.325667
3212.794, 3.754735
3214.723, 1.978052
3216.651, 5.013402
3218.580, 6.873703
3220.508, 6.083812
3222.437, 9.034033
3224.365, 5.397695
3226.294, 2.090632
3228.222, 3.184629
3230.151, 5.861239
3232.079, 4.626650
3234.008, 5.160065
3235.936, 6.378975
3237.865, -1.372638
3239.793, -1.332717
3241.721, 1.012356
3243.650, 2.876703
3245.578, 1.571358
3247.507, 5.642344
3249.435, 3.003306
3251.364, -1.233318
3253.292, -1.772082
3255.221, 0.7965708
3257.149, 1.259217
3259.078, -0.3942370
3261.006, -2.774981
3262.935, -1.328719
3264.863, 0.6761492
3266.792, 1.721930
3268.720, 0.9515626
3270.648, -0.7625849
3272.577, -1.105239
3274.505, -0.2072285
3276.434, 2.389460
3278.362, 5.554954
3280.291, 3.878411
3282.219, 2.855194
3284.148, 2.327059
3286.076, 1.654589
3288.005, 0.1276613
3289.933, -0.4580438
3291.862, 0.9155650
3293.790, -7.4301809E-02
3295.719, -3.675776
3297.647, 2.120795
3299.575, 1.504640
3301.504, 7.1239240E-02
3303.432, 0.5545428
3305.361, 3.532801
3307.289, 5.081225
3309.218, 2.755478
3311.146, 1.222990
3313.075, 3.092631
3315.003, 5.075311
3316.932, 5.696309
3318.860, 3.004593
3320.789, 0.2518410
3322.717, 3.536074
3324.646, 3.851814
3326.574, 3.243845
3328.502, 2.117048
3330.431, 0.6245683
3332.359, -0.7774695
3334.288, -2.520376
3336.216, 3.2079510E-02
3338.145, 2.030050
3340.073, -0.3621279
3342.002, 0.7081784
3343.930, 3.810199
3345.859, 2.727313
3347.787, 0.2523148
3349.716, 3.431176
3351.644, 6.527405
3353.573, 6.026915
3355.501, 4.037676
3357.429, 2.331985
3359.358, 0.7097415
3361.286, 5.020472
3363.215, 2.711214
3365.143, -0.7883193
3367.072, 0.9286912
3369.000, 3.957723
3370.929, 5.566759
3372.857, 5.746210
3374.786, 4.845675
3376.714, 2.969175
3378.643, 0.4375668
3380.571, 1.438984
3382.500, 2.470267
3384.428, 2.382028
3386.356, 2.469274
3388.285, 3.405003
3390.213, 3.422347
3392.142, 4.892925
3394.070, 6.085985
3395.999, 1.191099
3397.927, -1.639243
3399.856, -2.337618
3401.784, -3.005417
3403.713, -1.894793
3405.641, 6.853116
3407.570, 0.9137560
3409.498, -3.252162
3411.427, -3.211129
3413.355, -1.126740
3415.283, 1.005255
3417.212, 9.8422714E-02
3419.140, 2.153438
3421.069, 3.433375
3422.997, 1.335580
3424.926, -0.7715137
3426.854, -1.479371
3428.783, -0.1964076
3430.711, 2.041127
3432.640, 2.343811
3434.568, -4.766763
3436.497, 3.124521
3438.425, 4.104311
3440.354, 1.004399
3442.282, 3.7445731E-02
3444.210, 0.1063994
3446.139, -1.453739
3448.067, 1.608323
3449.996, 2.564979
3451.924, 8.5783161E-02
3453.853, 3.605121
3455.781, 1.847378
3457.710, -4.547244
3459.638, -3.136142
3461.567, 5.107255
3463.495, 5.372282
3465.424, 2.861268
3467.352, -2.400769
3469.281, -1.228774
3471.209, 3.730736
3473.137, 2.609977
3475.066, 3.276781
3476.994, 5.505651
3478.923, 6.302198
3480.851, 4.733059
3482.780, 1.602982
3484.708, -0.7854818
3486.637, -1.745612
3488.565, 1.551737
3490.494, 0.1551312
3492.422, -7.111593
3494.351, -2.564432
3496.279, 1.722005
3498.208, 1.562419
3500.136, -0.7226520
3502.064, -2.540524
3503.993, -2.661414
3505.921, -1.455433
3507.850, -2.946374
3509.778, 0.1548874
3511.707, 5.580494
3513.635, 6.622669
3515.564, 0.8149109
3517.492, 2.693646
3519.421, 3.558832
3521.349, 2.139137
3523.278, -9.2531689E-02
3525.206, -2.542805
3527.135, 0.9914151
3529.063, -3.017204
3530.991, -3.821197
3532.920, 0.6919432
3534.848, 4.927542
3536.777, 4.385517
3538.705, 2.028615
3540.634, 2.048296
3542.562, 2.358026
3544.491, 1.267264
3546.419, -0.3579408
3548.348, 6.850250
3550.276, 2.124042
3552.205, -0.4094549
3554.133, 1.680438
3556.062, 2.482732
3557.990, -1.287627
3559.918, 3.735906
3561.847, 3.464575
3563.775, 0.2555511
3565.704, -1.142917
3567.632, 1.077598
3569.561, 3.910338
3571.489, 0.7990801
3573.418, -2.997350
3575.346, -3.085487
3577.275, 0.2468306
3579.203, 2.717819
3581.132, -2.410146
3583.060, 3.515432
3584.989, 4.283050
3586.917, 4.216058
3588.845, 7.475830
3590.774, 2.416145
3592.702, -3.289338
3594.631, -0.6475820
3596.559, 0.5163792
3598.488, 0.9637567
3600.416, 2.368125
3602.345, -3.407735
3604.273, -0.8549491
3606.202, -1.259238
3608.130, 0.3910540
3610.059, 2.115694
3611.987, 1.311245
3613.916, 5.355354
3615.844, -0.7684159
3617.772, -2.506722
3619.701, 0.3036994
3621.629, 5.153100
3623.558, 9.199115
3625.486, 7.284401
3627.415, 2.891610
3629.343, -0.4496520
3631.272, -1.032861
3633.200, 0.6712573
3635.129, 2.590485
3637.057, 1.575470
3638.986, -1.547184
3640.914, 4.069281
3642.843, 6.133352
3644.771, 1.829432
3646.699, -2.209810
3648.628, 2.082833
3650.556, 5.775988
3652.485, 8.191342
3654.413, 5.235435
3656.342, 3.000987
3658.270, 2.098106
3660.199, -1.220524
3662.127, -2.083795
3664.056, 6.566716
3665.984, 2.299846
3667.913, -0.2638900
3669.841, 1.243246
3671.770, 1.340900
3673.698, 2.376873
3675.626, 5.083049
3677.555, 2.837183
3679.483, 6.685627
3681.412, 7.202630
3683.340, 2.920411
3685.269, 3.955908
3687.197, 4.480608
3689.126, -0.4574544
3691.054, 1.632850
3692.983, 4.990727
3694.911, 4.480795
3696.840, 1.322924
3698.768, 1.167279
3700.697, 4.869352
3702.625, 3.226616
3704.553, 4.571362
3706.482, 3.805960
3708.410, 1.506045
3710.339, 2.727337
3712.267, 4.085587
3714.196, 1.537053
3716.124, 4.301909
3718.053, 4.213669
3719.981, 2.045804
3721.910, 2.083712
3723.838, 3.679373
3725.767, -3.449243
3727.695, 9.2430353E-02
3729.624, 1.670840
3731.552, -0.5853184
3733.480, 1.196233
3735.409, 1.875250
3737.337, -6.293570
3739.266, 3.076874
3741.194, -0.4117653
3743.123, -0.1104394
3745.051, 3.958757
3746.980, 3.563371
3748.908, 0.3350182
3750.837, 1.357690
3752.765, 0.3385925
3754.694, -2.702584
3756.622, 1.024648
3758.551, 2.177754
3760.479, 1.649614
3762.407, -1.618389
3764.336, -8.075249
3766.264, -4.549962
3768.193, -2.987098
3770.121, -3.529390
3772.050, 2.214455
3773.978, -1.8709650E-02
3775.907, -5.408314
3777.835, -3.912922
3779.764, -0.3184465
3781.692, 3.628695
3783.621, 2.633213
3785.549, 6.120836
3787.478, 3.506570
3789.406, 0.0000000E+00
3791.334, 6.8383493E-02
3793.263, 3.5117991E-02
3795.191, -0.9981186
3797.120, -5.371161
3799.048, -0.8220722
3800.977, 2.658769
3802.905, 0.8258016
3804.834, -0.5762318
3806.762, -1.036228
3808.691, -5.440875
3810.619, 0.7547497
3812.548, -1.104233
3814.476, 0.6446627
3816.405, 0.6160613
3818.333, -0.1369940
3820.261, 0.4525793
3822.190, 1.324920
3824.118, 0.1315944
3826.047, -3.124540
3827.975, 5.384711
3829.904, 3.833360
3831.832, -2.460063
3833.761, -0.7068233
3835.689, 1.254081
3837.618, -2.722562
3839.546, -1.367973
3841.475, 1.383115
3843.403, -2.070435
3845.332, -2.649878
3847.260, 2.937055
3849.188, 4.461936
3851.117, 2.259174
3853.045, 1.608181
3854.974, 2.628242
3856.902, 2.546875
3858.831, 6.388958
3860.759, 5.776341
3862.688, 7.435150
3864.616, 2.375508
3866.545, -0.4955272
3868.473, 1.902455
3870.402, 2.304950
3872.330, -6.4801261E-02
3874.259, 5.125062
3876.187, 3.056136
3878.115, 5.708306
3880.044, 1.290029
3881.972, -5.860735
3883.901, -7.116786
3885.829, -4.091771
3887.758, -2.724073
3889.686, -0.1872626
3891.615, -0.2054059
3893.543, 2.771402
3895.472, -1.923693
3897.400, 1.289029
3899.329, 4.527552
3901.257, 3.771463
3903.186, -0.1947382
3905.114, -3.108054
3907.042, 4.898427
3908.971, -1.312983
3910.899, 6.777752
3912.828, 7.276365
3914.756, 1.180273
3916.685, -0.6999285
3918.613, 0.0000000E+00
3920.542, 0.0000000E+00
3922.470, 0.1838317
3924.399, -0.1819537
3926.327, -4.340339
3928.256, 3.389437
3930.184, 8.3166607E-02
3932.113, -3.678008
3934.041, 4.671845
3935.969, 4.819047
3937.898, -1.114956
3939.826, 0.2691455
3941.755, 5.415221
3943.683, 1.609604
3945.612, 0.1435256
3947.540, 0.0000000E+00
3949.469, -0.1521099
3951.397, 0.5978703
3953.326, 4.338464
3955.254, -1.380666
3957.183, -6.809935
3959.111, 0.2329547
3961.040, 9.392010
3962.968, 2.842803
3964.896, -4.122808
3966.825, 3.455408
3968.753, -0.2973199
3970.682, 6.4194210E-02
3972.610, -3.239335
3974.539, -0.5499889
3976.467, -1.911374
3978.396, -3.815885
3980.324, -1.185128
3982.253, -3.745534
3984.181, 2.511436
3986.110, 4.240411
3988.038, 3.241966
3989.967, 1.628941
3991.895, 2.407475
3993.823, 2.874073
3995.752, 3.349591
3997.680, 1.194488
3999.609, -1.763649
4001.537, -0.8245583
4003.466, 2.899968
4005.394, 4.339569
4007.323, 7.301507
4009.251, -0.7722504
4011.180, 5.351134
4013.108, -2.777582
4015.037, -4.822681
4016.965, 1.659173
4018.894, 1.105476
4020.822, 0.5258872
4022.750, 4.718118
4024.679, 3.572453
4026.607, -1.265574
4028.536, -2.805909
4030.464, -5.864564
4032.393, -0.7939155
4034.321, -1.139462
4036.250, -2.601874
4038.178, 6.187958
4040.107, 2.176633
4042.035, 2.372533
4043.964, 4.057364
4045.892, 2.202663
4047.821, 1.879054
4049.749, -1.002061
4051.677, 4.251922
4053.606, -1.107588
4055.534, 1.316781
4057.463, -0.8183635
4059.391, -3.334957
4061.320, 2.717577
4063.248, 1.804206
4065.177, -1.305929
4067.105, 0.7735847
4069.034, 2.081515
4070.962, 2.752087
4072.891, 3.063807
4074.819, -1.188538
4076.748, 1.849362
4078.676, 5.781374
4080.604, -1.981121
4082.533, -6.246554
4084.461, 2.882579
4086.390, 0.5992633
4088.318, 3.364871
4090.247, 2.926420
4092.175, -0.5177429
4094.104, -7.1251452E-02
4096.032, 1.471239
4097.961, 1.602474
4099.889, 1.135426
4101.817, 0.1093430
4103.746, -0.2041963
4105.675, -2.837243
4107.603, 1.157673
4109.531, 4.437630
4111.460, -1.006428
4113.389, 2.370721
4115.317, 1.046875
4117.245, -3.157063
4119.174, 3.233718
4121.103, 4.055751
4123.031, -1.212115
4124.959, -6.389041
4126.888, -6.052182
4128.816, 1.689496
4130.745, 5.974946
4132.673, -0.3686576
4134.602, -3.186740
4136.530, -2.731612
4138.458, 5.726350
4140.387, 0.5172948
4142.315, -0.3199461
4144.244, 4.156141
4146.172, 1.080192
4148.101, -2.393063
4150.029, 7.467797
4151.958, 7.685102
4153.886, -1.489687
4155.814, -1.664285
4157.743, 3.222101
4159.672, 3.879618
4161.600, -1.213275
4163.528, -1.899779
4165.457, 1.616516
4167.386, -5.042061
4169.314, -7.330127
4171.242, -4.290637
4173.171, 1.236363
4175.100, 2.976724
4177.028, 1.730770
4178.956, -2.3823390E-02
4180.885, 3.032496
4182.813, -1.975146
4184.742, -1.860526
4186.670, -1.670778
4188.599, -0.3164217
4190.527, -1.679844
4192.456, 2.215139
4194.384, 4.575594
4196.313, -1.456138
4198.241, -0.7701408
4200.169, 1.415462
4202.098, -2.529107
4204.026, -1.056031
4205.955, 2.221965
4207.883, -2.337998
4209.812, -3.621909
4211.740, 2.959156
4213.669, 0.8624223
4215.597, -5.347255
4217.525, 5.475541
4219.454, 0.6314567
4221.383, -3.392393
4223.311, 6.939706
4225.239, -1.834007
4227.168, 2.043117
4229.097, 1.681802
4231.025, 3.485141
4232.953, -3.578657
4234.882, 3.919246
4236.811, -1.019352
4238.739, -3.239638
4240.667, -5.173799
4242.596, -4.791833
4244.524, -1.343168
4246.453, -0.7121902
4248.381, -2.338237
4250.310, 2.569460
4252.238, 2.070126
4254.167, -3.756217
4256.095, -1.115337
4258.023, 9.7405091E-02
4259.952, -3.6149379E-02
4261.880, -2.429954
4263.809, -5.695302
4265.737, -2.962740
4267.666, -1.437006
4269.594, -1.823897
4271.522, -6.020081
4273.451, -1.864189
4275.380, 4.223682
4277.308, 6.098020
4279.236, 5.308750
4281.165, -5.401353
4283.094, -1.601971
4285.022, 11.27388
4286.950, 5.908291
4288.879, 4.049491
4290.808, -3.440456
4292.736, -2.795111
4294.664, 3.696824
4296.593, 1.296743
4298.521, -0.9666415
4300.450, -3.582448
4302.378, 2.163954
4304.307, 6.231439
4306.235, 3.288454
4308.164, 0.7306868
4310.092, -1.333047
4312.021, 0.7074438
4313.949, -0.2917492
4315.877, -1.929437
4317.806, 0.1888667
4319.734, 2.277708
4321.663, -1.514202
##END=



