##NAMES=Feklichevite
##RRUFFID=R120046
##IDEAL CHEMISTRY=Na_11_Ca_9_(Fe^3+^,Fe^2+^)_2_Zr_3_Nb(Si_25_O_73_)(OH,H_2_O,Cl,O)_5_
##LOCALITY=Kovdor Massif, Kola Peninsula, Murmanskaja Oblast', Northern Region, Russia
##OWNER=RRUFF
##SOURCE=Donald Doell
##DESCRIPTION=Massive reddish-brown crystals, associated with orthoclase
##STATUS=The identification of this mineral has been confirmed only by single crystal X-ray diffraction
##URL=https://www.rruff.net/odr/rruff_sample/R120046
##DIFFRACTION SAMPLE DESCRIPTION=Single crystal, powder profile is calculated
##CELL PARAMETERS=a: 14.243 b: 14.243 c: 30.131 alpha: 90 beta: 90 gamma: 120 volume: 5293.6 crystal system: hexagonal
##FILETYPE=Raman RAW
##RAMAN WAVELENGTH=532

1.019570e+002, 5.038578e+001
1.038855e+002, 4.985157e+001
1.058140e+002, 4.965674e+001
1.077424e+002, 5.005055e+001
1.096709e+002, 5.067473e+001
1.115994e+002, 5.128392e+001
1.135278e+002, 5.224199e+001
1.154563e+002, 5.265815e+001
1.173848e+002, 5.217256e+001
1.193132e+002, 5.059974e+001
1.212417e+002, 4.897158e+001
1.231702e+002, 4.674641e+001
1.250986e+002, 4.462317e+001
1.270271e+002, 4.378774e+001
1.289556e+002, 4.534785e+001
1.308840e+002, 4.708122e+001
1.328125e+002, 4.795509e+001
1.347410e+002, 4.708097e+001
1.366694e+002, 4.644895e+001
1.385979e+002, 4.572829e+001
1.405264e+002, 4.520793e+001
1.424548e+002, 4.591376e+001
1.443833e+002, 4.787614e+001
1.463118e+002, 5.112541e+001
1.482402e+002, 5.555935e+001
1.501687e+002, 5.927436e+001
1.520972e+002, 6.734100e+001
1.540257e+002, 8.148389e+001
1.559541e+002, 1.016369e+002
1.578826e+002, 1.253612e+002
1.598111e+002, 1.502650e+002
1.617395e+002, 1.793008e+002
1.636680e+002, 2.146354e+002
1.655965e+002, 2.544642e+002
1.675249e+002, 3.038232e+002
1.694534e+002, 3.639933e+002
1.713819e+002, 4.398759e+002
1.733103e+002, 5.176261e+002
1.752388e+002, 5.984208e+002
1.771673e+002, 6.555774e+002
1.790957e+002, 7.046405e+002
1.810242e+002, 7.490302e+002
1.829527e+002, 7.934894e+002
1.848811e+002, 8.397302e+002
1.868096e+002, 8.879894e+002
1.887381e+002, 9.373664e+002
1.906665e+002, 9.907943e+002
1.925950e+002, 1.046539e+003
1.945235e+002, 1.096262e+003
1.964519e+002, 1.143568e+003
1.983804e+002, 1.184405e+003
2.003089e+002, 1.214927e+003
2.022373e+002, 1.234841e+003
2.041658e+002, 1.251570e+003
2.060943e+002, 1.267719e+003
2.080227e+002, 1.283127e+003
2.099512e+002, 1.294066e+003
2.118797e+002, 1.300445e+003
2.138081e+002, 1.302662e+003
2.157366e+002, 1.301384e+003
2.176651e+002, 1.295788e+003
2.195935e+002, 1.287907e+003
2.215220e+002, 1.277360e+003
2.234505e+002, 1.263936e+003
2.253789e+002, 1.251779e+003
2.273074e+002, 1.241860e+003
2.292359e+002, 1.232424e+003
2.311643e+002, 1.221997e+003
2.330928e+002, 1.208579e+003
2.350213e+002, 1.196030e+003
2.369497e+002, 1.184972e+003
2.388782e+002, 1.175313e+003
2.408067e+002, 1.166463e+003
2.427351e+002, 1.157982e+003
2.446636e+002, 1.150623e+003
2.465921e+002, 1.145402e+003
2.485205e+002, 1.144576e+003
2.504490e+002, 1.143877e+003
2.523775e+002, 1.141886e+003
2.543059e+002, 1.139009e+003
2.562344e+002, 1.138744e+003
2.581629e+002, 1.142697e+003
2.600913e+002, 1.149217e+003
2.620198e+002, 1.157038e+003
2.639483e+002, 1.166576e+003
2.658767e+002, 1.176660e+003
2.678052e+002, 1.186472e+003
2.697337e+002, 1.195733e+003
2.716621e+002, 1.206819e+003
2.735906e+002, 1.220371e+003
2.755191e+002, 1.234971e+003
2.774475e+002, 1.248988e+003
2.793760e+002, 1.262158e+003
2.813045e+002, 1.274544e+003
2.832329e+002, 1.285856e+003
2.851614e+002, 1.295744e+003
2.870899e+002, 1.306611e+003
2.890183e+002, 1.319342e+003
2.909468e+002, 1.333074e+003
2.928753e+002, 1.347160e+003
2.948037e+002, 1.362205e+003
2.967322e+002, 1.377115e+003
2.986607e+002, 1.392592e+003
3.005891e+002, 1.409012e+003
3.025176e+002, 1.421314e+003
3.044461e+002, 1.428346e+003
3.063745e+002, 1.431473e+003
3.083030e+002, 1.432523e+003
3.102315e+002, 1.431751e+003
3.121599e+002, 1.427488e+003
3.140884e+002, 1.419066e+003
3.160169e+002, 1.406349e+003
3.179453e+002, 1.392947e+003
3.198738e+002, 1.377697e+003
3.218023e+002, 1.363106e+003
3.237307e+002, 1.350673e+003
3.256592e+002, 1.340908e+003
3.275877e+002, 1.332994e+003
3.295161e+002, 1.325714e+003
3.314446e+002, 1.319850e+003
3.333731e+002, 1.318027e+003
3.353015e+002, 1.323320e+003
3.372300e+002, 1.329744e+003
3.391585e+002, 1.334079e+003
3.410869e+002, 1.336847e+003
3.430154e+002, 1.336195e+003
3.449439e+002, 1.332846e+003
3.468723e+002, 1.325911e+003
3.488008e+002, 1.314392e+003
3.507293e+002, 1.296018e+003
3.526578e+002, 1.275305e+003
3.545862e+002, 1.254072e+003
3.565147e+002, 1.231671e+003
3.584432e+002, 1.209938e+003
3.603716e+002, 1.187992e+003
3.623001e+002, 1.166901e+003
3.642286e+002, 1.148000e+003
3.661570e+002, 1.131432e+003
3.680855e+002, 1.117160e+003
3.700140e+002, 1.105227e+003
3.719424e+002, 1.096008e+003
3.738709e+002, 1.088842e+003
3.757994e+002, 1.084296e+003
3.777278e+002, 1.081838e+003
3.796563e+002, 1.080871e+003
3.815848e+002, 1.082535e+003
3.835132e+002, 1.084237e+003
3.854417e+002, 1.084972e+003
3.873702e+002, 1.084969e+003
3.892986e+002, 1.086420e+003
3.912271e+002, 1.090512e+003
3.931556e+002, 1.095149e+003
3.950840e+002, 1.099289e+003
3.970125e+002, 1.104441e+003
3.989410e+002, 1.106528e+003
4.008694e+002, 1.103926e+003
4.027979e+002, 1.098075e+003
4.047264e+002, 1.092869e+003
4.066548e+002, 1.089100e+003
4.085833e+002, 1.084896e+003
4.105118e+002, 1.079465e+003
4.124402e+002, 1.072340e+003
4.143687e+002, 1.064905e+003
4.162972e+002, 1.056661e+003
4.182256e+002, 1.048356e+003
4.201541e+002, 1.040926e+003
4.220826e+002, 1.035205e+003
4.240110e+002, 1.029008e+003
4.259395e+002, 1.021240e+003
4.278680e+002, 1.012035e+003
4.297964e+002, 1.004686e+003
4.317249e+002, 1.000089e+003
4.336534e+002, 9.965570e+002
4.355818e+002, 9.928167e+002
4.375103e+002, 9.882863e+002
4.394388e+002, 9.851049e+002
4.413672e+002, 9.834150e+002
4.432957e+002, 9.830375e+002
4.452242e+002, 9.838304e+002
4.471526e+002, 9.874999e+002
4.490811e+002, 9.897676e+002
4.510096e+002, 9.884608e+002
4.529380e+002, 9.834349e+002
4.548665e+002, 9.794512e+002
4.567950e+002, 9.783851e+002
4.587234e+002, 9.777143e+002
4.606519e+002, 9.752313e+002
4.625804e+002, 9.711967e+002
4.645089e+002, 9.654632e+002
4.664373e+002, 9.573864e+002
4.683658e+002, 9.474542e+002
4.702943e+002, 9.369684e+002
4.722227e+002, 9.248427e+002
4.741512e+002, 9.129952e+002
4.760797e+002, 9.020422e+002
4.780081e+002, 8.919655e+002
4.799366e+002, 8.829133e+002
4.818651e+002, 8.739521e+002
4.837935e+002, 8.668389e+002
4.857220e+002, 8.633014e+002
4.876505e+002, 8.647612e+002
4.895789e+002, 8.686591e+002
4.915074e+002, 8.746359e+002
4.934359e+002, 8.831415e+002
4.953643e+002, 8.948139e+002
4.972928e+002, 9.109201e+002
4.992213e+002, 9.288287e+002
5.011497e+002, 9.475132e+002
5.030782e+002, 9.672542e+002
5.050067e+002, 9.867992e+002
5.069351e+002, 1.007151e+003
5.088636e+002, 1.026824e+003
5.107921e+002, 1.044728e+003
5.127205e+002, 1.060769e+003
5.146490e+002, 1.075608e+003
5.165775e+002, 1.089287e+003
5.185059e+002, 1.101971e+003
5.204344e+002, 1.114391e+003
5.223629e+002, 1.126483e+003
5.242913e+002, 1.138113e+003
5.262198e+002, 1.148740e+003
5.281483e+002, 1.158302e+003
5.300767e+002, 1.168916e+003
5.320052e+002, 1.178707e+003
5.339337e+002, 1.190995e+003
5.358621e+002, 1.209338e+003
5.377906e+002, 1.235332e+003
5.397191e+002, 1.263260e+003
5.416475e+002, 1.292291e+003
5.435760e+002, 1.322632e+003
5.455045e+002, 1.354552e+003
5.474329e+002, 1.390083e+003
5.493614e+002, 1.424504e+003
5.512899e+002, 1.457716e+003
5.532183e+002, 1.489216e+003
5.551468e+002, 1.514928e+003
5.570753e+002, 1.536914e+003
5.590037e+002, 1.550671e+003
5.609322e+002, 1.555345e+003
5.628607e+002, 1.550479e+003
5.647891e+002, 1.537535e+003
5.667176e+002, 1.519578e+003
5.686461e+002, 1.493806e+003
5.705745e+002, 1.454775e+003
5.725030e+002, 1.399625e+003
5.744315e+002, 1.340686e+003
5.763599e+002, 1.278254e+003
5.782884e+002, 1.213711e+003
5.802169e+002, 1.155254e+003
5.821453e+002, 1.102969e+003
5.840738e+002, 1.056230e+003
5.860023e+002, 1.015587e+003
5.879307e+002, 9.811728e+002
5.898592e+002, 9.511713e+002
5.917877e+002, 9.260839e+002
5.937161e+002, 9.054543e+002
5.956447e+002, 8.887697e+002
5.975731e+002, 8.769992e+002
5.995016e+002, 8.681379e+002
6.014301e+002, 8.624584e+002
6.033585e+002, 8.595856e+002
6.052870e+002, 8.587975e+002
6.072155e+002, 8.601182e+002
6.091439e+002, 8.633614e+002
6.110724e+002, 8.692708e+002
6.130009e+002, 8.771609e+002
6.149293e+002, 8.841956e+002
6.168578e+002, 8.896258e+002
6.187863e+002, 8.947181e+002
6.207147e+002, 8.994719e+002
6.226432e+002, 9.039543e+002
6.245717e+002, 9.091367e+002
6.265001e+002, 9.160049e+002
6.284286e+002, 9.230072e+002
6.303571e+002, 9.293383e+002
6.322855e+002, 9.350247e+002
6.342140e+002, 9.403239e+002
6.361425e+002, 9.439329e+002
6.380709e+002, 9.479631e+002
6.399994e+002, 9.548749e+002
6.419279e+002, 9.652383e+002
6.438563e+002, 9.755884e+002
6.457848e+002, 9.844091e+002
6.477133e+002, 9.923718e+002
6.496417e+002, 1.001023e+003
6.515702e+002, 1.010026e+003
6.534987e+002, 1.019850e+003
6.554271e+002, 1.031248e+003
6.573556e+002, 1.043711e+003
6.592841e+002, 1.055522e+003
6.612125e+002, 1.067535e+003
6.631410e+002, 1.077847e+003
6.650695e+002, 1.085708e+003
6.669979e+002, 1.090927e+003
6.689264e+002, 1.095626e+003
6.708549e+002, 1.100331e+003
6.727833e+002, 1.104298e+003
6.747118e+002, 1.106621e+003
6.766403e+002, 1.107232e+003
6.785687e+002, 1.108027e+003
6.804972e+002, 1.109502e+003
6.824257e+002, 1.111083e+003
6.843541e+002, 1.112270e+003
6.862826e+002, 1.110489e+003
6.882111e+002, 1.111999e+003
6.901395e+002, 1.119016e+003
6.920680e+002, 1.128687e+003
6.939965e+002, 1.136904e+003
6.959249e+002, 1.143238e+003
6.978534e+002, 1.149292e+003
6.997819e+002, 1.157066e+003
7.017103e+002, 1.164991e+003
7.036388e+002, 1.168508e+003
7.055673e+002, 1.166676e+003
7.074957e+002, 1.161706e+003
7.094242e+002, 1.154664e+003
7.113527e+002, 1.144701e+003
7.132811e+002, 1.129551e+003
7.152096e+002, 1.106908e+003
7.171381e+002, 1.081599e+003
7.190665e+002, 1.054761e+003
7.209950e+002, 1.026183e+003
7.229235e+002, 9.993738e+002
7.248519e+002, 9.710871e+002
7.267804e+002, 9.469495e+002
7.287089e+002, 9.314732e+002
7.306373e+002, 9.240120e+002
7.325658e+002, 9.179437e+002
7.344943e+002, 9.122468e+002
7.364227e+002, 9.079901e+002
7.383512e+002, 9.059025e+002
7.402797e+002, 9.067734e+002
7.422081e+002, 9.077841e+002
7.441366e+002, 9.085838e+002
7.460651e+002, 9.095280e+002
7.479935e+002, 9.115599e+002
7.499220e+002, 9.151397e+002
7.518505e+002, 9.165333e+002
7.537789e+002, 9.138929e+002
7.557074e+002, 9.092177e+002
7.576359e+002, 9.042067e+002
7.595643e+002, 8.989058e+002
7.614928e+002, 8.932823e+002
7.634213e+002, 8.873701e+002
7.653497e+002, 8.811781e+002
7.672782e+002, 8.744957e+002
7.692067e+002, 8.668045e+002
7.711351e+002, 8.603105e+002
7.730636e+002, 8.556498e+002
7.749921e+002, 8.526091e+002
7.769205e+002, 8.511249e+002
7.788490e+002, 8.517935e+002
7.807775e+002, 8.532275e+002
7.827059e+002, 8.556213e+002
7.846344e+002, 8.584955e+002
7.865629e+002, 8.609212e+002
7.884913e+002, 8.631111e+002
7.904198e+002, 8.644150e+002
7.923483e+002, 8.645599e+002
7.942767e+002, 8.638019e+002
7.962052e+002, 8.625321e+002
7.981337e+002, 8.622294e+002
8.000621e+002, 8.597335e+002
8.019906e+002, 8.527158e+002
8.039191e+002, 8.426771e+002
8.058475e+002, 8.354651e+002
8.077760e+002, 8.322463e+002
8.097045e+002, 8.295150e+002
8.116329e+002, 8.253878e+002
8.135614e+002, 8.205380e+002
8.154899e+002, 8.173054e+002
8.174183e+002, 8.167723e+002
8.193468e+002, 8.167982e+002
8.212753e+002, 8.166462e+002
8.232037e+002, 8.165745e+002
8.251322e+002, 8.179230e+002
8.270607e+002, 8.216838e+002
8.289891e+002, 8.256261e+002
8.309176e+002, 8.286271e+002
8.328461e+002, 8.312582e+002
8.347745e+002, 8.350675e+002
8.367030e+002, 8.396926e+002
8.386315e+002, 8.464567e+002
8.405599e+002, 8.562078e+002
8.424884e+002, 8.686418e+002
8.444169e+002, 8.814705e+002
8.463453e+002, 8.938782e+002
8.482738e+002, 9.070973e+002
8.502023e+002, 9.208250e+002
8.521307e+002, 9.354064e+002
8.540592e+002, 9.526423e+002
8.559877e+002, 9.745032e+002
8.579161e+002, 9.962349e+002
8.598446e+002, 1.016963e+003
8.617731e+002, 1.036554e+003
8.637015e+002, 1.053605e+003
8.656300e+002, 1.067329e+003
8.675585e+002, 1.079920e+003
8.694869e+002, 1.092354e+003
8.714154e+002, 1.104125e+003
8.733439e+002, 1.113442e+003
8.752723e+002, 1.118684e+003
8.772008e+002, 1.124546e+003
8.791293e+002, 1.132364e+003
8.810577e+002, 1.142123e+003
8.829862e+002, 1.153778e+003
8.849147e+002, 1.167691e+003
8.868431e+002, 1.183184e+003
8.887716e+002, 1.200266e+003
8.907001e+002, 1.218918e+003
8.926285e+002, 1.239021e+003
8.945570e+002, 1.261605e+003
8.964855e+002, 1.283255e+003
8.984139e+002, 1.302642e+003
9.003424e+002, 1.320269e+003
9.022709e+002, 1.336924e+003
9.041993e+002, 1.352451e+003
9.061278e+002, 1.367040e+003
9.080563e+002, 1.380648e+003
9.099847e+002, 1.393243e+003
9.119132e+002, 1.404631e+003
9.138417e+002, 1.414487e+003
9.157701e+002, 1.423878e+003
9.176986e+002, 1.433135e+003
9.196271e+002, 1.441990e+003
9.215555e+002, 1.450509e+003
9.234840e+002, 1.459482e+003
9.254125e+002, 1.466493e+003
9.273410e+002, 1.471687e+003
9.292695e+002, 1.475147e+003
9.311979e+002, 1.476939e+003
9.331264e+002, 1.477553e+003
9.350549e+002, 1.475245e+003
9.369833e+002, 1.468258e+003
9.389118e+002, 1.458853e+003
9.408403e+002, 1.449125e+003
9.427687e+002, 1.439001e+003
9.446972e+002, 1.426547e+003
9.466257e+002, 1.410279e+003
9.485541e+002, 1.392237e+003
9.504826e+002, 1.373371e+003
9.524111e+002, 1.353496e+003
9.543395e+002, 1.334574e+003
9.562680e+002, 1.317075e+003
9.581965e+002, 1.300332e+003
9.601249e+002, 1.283498e+003
9.620534e+002, 1.266732e+003
9.639819e+002, 1.251786e+003
9.659103e+002, 1.238396e+003
9.678388e+002, 1.226987e+003
9.697673e+002, 1.218426e+003
9.716957e+002, 1.212148e+003
9.736242e+002, 1.204915e+003
9.755527e+002, 1.195297e+003
9.774811e+002, 1.186697e+003
9.794096e+002, 1.180222e+003
9.813381e+002, 1.175706e+003
9.832665e+002, 1.172449e+003
9.851950e+002, 1.171617e+003
9.871235e+002, 1.169971e+003
9.890519e+002, 1.165089e+003
9.909804e+002, 1.159453e+003
9.929089e+002, 1.156734e+003
9.948373e+002, 1.158231e+003
9.967658e+002, 1.157875e+003
9.986943e+002, 1.152174e+003
1.000623e+003, 1.145180e+003
1.002551e+003, 1.140746e+003
1.004480e+003, 1.139980e+003
1.006408e+003, 1.139635e+003
1.008337e+003, 1.140045e+003
1.010265e+003, 1.140828e+003
1.012194e+003, 1.141349e+003
1.014122e+003, 1.141754e+003
1.016050e+003, 1.144110e+003
1.017979e+003, 1.149643e+003
1.019907e+003, 1.155967e+003
1.021836e+003, 1.162109e+003
1.023764e+003, 1.167975e+003
1.025693e+003, 1.173179e+003
1.027621e+003, 1.176603e+003
1.029550e+003, 1.180454e+003
1.031478e+003, 1.186213e+003
1.033407e+003, 1.192727e+003
1.035335e+003, 1.196687e+003
1.037264e+003, 1.197449e+003
1.039192e+003, 1.197677e+003
1.041120e+003, 1.197657e+003
1.043049e+003, 1.197637e+003
1.044977e+003, 1.197687e+003
1.046906e+003, 1.197615e+003
1.048834e+003, 1.198551e+003
1.050763e+003, 1.199964e+003
1.052691e+003, 1.203078e+003
1.054620e+003, 1.208922e+003
1.056548e+003, 1.217926e+003
1.058477e+003, 1.228150e+003
1.060405e+003, 1.239563e+003
1.062334e+003, 1.252210e+003
1.064262e+003, 1.267990e+003
1.066191e+003, 1.285404e+003
1.068119e+003, 1.298579e+003
1.070047e+003, 1.307064e+003
1.071976e+003, 1.311556e+003
1.073904e+003, 1.312510e+003
1.075833e+003, 1.309481e+003
1.077761e+003, 1.301122e+003
1.079690e+003, 1.286199e+003
1.081618e+003, 1.268338e+003
1.083547e+003, 1.247889e+003
1.085475e+003, 1.225365e+003
1.087404e+003, 1.201047e+003
1.089332e+003, 1.174507e+003
1.091261e+003, 1.147674e+003
1.093189e+003, 1.119674e+003
1.095118e+003, 1.092170e+003
1.097046e+003, 1.066210e+003
1.098975e+003, 1.041395e+003
1.100903e+003, 1.016286e+003
1.102832e+003, 9.898608e+002
1.104760e+003, 9.649228e+002
1.106688e+003, 9.420652e+002
1.108617e+003, 9.213269e+002
1.110545e+003, 9.028158e+002
1.112474e+003, 8.877393e+002
1.114402e+003, 8.731090e+002
1.116331e+003, 8.574229e+002
1.118259e+003, 8.430266e+002
1.120188e+003, 8.327853e+002
1.122116e+003, 8.271133e+002
1.124045e+003, 8.205478e+002
1.125973e+003, 8.114543e+002
1.127902e+003, 8.027257e+002
1.129830e+003, 7.958811e+002
1.131759e+003, 7.904398e+002
1.133687e+003, 7.853474e+002
1.135615e+003, 7.809761e+002
1.137544e+003, 7.760081e+002
1.139472e+003, 7.692402e+002
1.141401e+003, 7.621592e+002
1.143329e+003, 7.568582e+002
1.145258e+003, 7.544410e+002
1.147186e+003, 7.519199e+002
1.149115e+003, 7.492049e+002
1.151043e+003, 7.464725e+002
1.152972e+003, 7.435798e+002
1.154900e+003, 7.405786e+002
1.156829e+003, 7.384360e+002
1.158757e+003, 7.379307e+002
1.160686e+003, 7.369954e+002
1.162614e+003, 7.342003e+002
1.164542e+003, 7.306591e+002
1.166471e+003, 7.283161e+002
1.168399e+003, 7.277748e+002
1.170328e+003, 7.268672e+002
1.172256e+003, 7.246105e+002
1.174185e+003, 7.223450e+002
1.176113e+003, 7.211730e+002
1.178042e+003, 7.212923e+002
1.179970e+003, 7.207739e+002
1.181899e+003, 7.192453e+002
1.183827e+003, 7.174238e+002
1.185756e+003, 7.148947e+002
1.187684e+003, 7.123120e+002
1.189613e+003, 7.115696e+002
1.191541e+003, 7.135265e+002
1.193469e+003, 7.144203e+002
1.195398e+003, 7.122014e+002
1.197326e+003, 7.095474e+002
1.199255e+003, 7.085019e+002
1.201183e+003, 7.090741e+002
1.203112e+003, 7.099643e+002
1.205040e+003, 7.115331e+002
1.206969e+003, 7.125961e+002
1.208897e+003, 7.125897e+002
1.210826e+003, 7.117080e+002
1.212754e+003, 7.105848e+002
1.214683e+003, 7.085048e+002
1.216611e+003, 7.073045e+002
1.218540e+003, 7.078000e+002
1.220468e+003, 7.088461e+002
1.222396e+003, 7.094744e+002
1.224325e+003, 7.098011e+002
1.226253e+003, 7.107610e+002
1.228182e+003, 7.128057e+002
1.230110e+003, 7.147443e+002
1.232039e+003, 7.155471e+002
1.233967e+003, 7.158605e+002
1.235896e+003, 7.168965e+002
1.237824e+003, 7.188210e+002
1.239753e+003, 7.202752e+002
1.241681e+003, 7.209083e+002
1.243610e+003, 7.210494e+002
1.245538e+003, 7.209847e+002
1.247467e+003, 7.207970e+002
1.249395e+003, 7.201031e+002
1.251323e+003, 7.181135e+002
1.253252e+003, 7.169398e+002
1.255180e+003, 7.177116e+002
1.257109e+003, 7.192455e+002
1.259037e+003, 7.196731e+002
1.260966e+003, 7.187132e+002
1.262894e+003, 7.185851e+002
1.264823e+003, 7.204083e+002
1.266751e+003, 7.220011e+002
1.268680e+003, 7.212134e+002
1.270608e+003, 7.194235e+002
1.272537e+003, 7.205536e+002
1.274465e+003, 7.263627e+002
1.276394e+003, 7.301437e+002
1.278322e+003, 7.283750e+002
1.280250e+003, 7.252519e+002
1.282179e+003, 7.235878e+002
1.284107e+003, 7.234811e+002
1.286036e+003, 7.240476e+002
1.287964e+003, 7.260413e+002
1.289893e+003, 7.277608e+002
1.291821e+003, 7.284452e+002
1.293750e+003, 7.286840e+002
1.295678e+003, 7.293490e+002
1.297607e+003, 7.302722e+002
1.299535e+003, 7.319945e+002
1.301464e+003, 7.355672e+002
1.303392e+003, 7.388403e+002
1.305321e+003, 7.407772e+002
1.307249e+003, 7.415663e+002
1.309177e+003, 7.417491e+002
1.311106e+003, 7.412211e+002
1.313034e+003, 7.405947e+002
1.314963e+003, 7.380797e+002
1.316891e+003, 7.374937e+002
1.318820e+003, 7.432027e+002
1.320748e+003, 7.543480e+002
1.322677e+003, 7.611061e+002
1.324605e+003, 7.615197e+002
1.326534e+003, 7.598009e+002
1.328462e+003, 7.553690e+002
1.330391e+003, 7.504315e+002
1.332319e+003, 7.475667e+002
1.334248e+003, 7.472239e+002
1.336176e+003, 7.471642e+002
1.338104e+003, 7.470057e+002
1.340033e+003, 7.476634e+002
1.341961e+003, 7.503004e+002
1.343890e+003, 7.537922e+002
1.345818e+003, 7.557997e+002
1.347747e+003, 7.560306e+002
1.349675e+003, 7.563324e+002
1.351604e+003, 7.563798e+002
1.353532e+003, 7.568889e+002
1.355461e+003, 7.586591e+002
1.357389e+003, 7.609844e+002
1.359318e+003, 7.623309e+002
1.361246e+003, 7.625367e+002
1.363175e+003, 7.626154e+002
1.365103e+003, 7.631092e+002
1.367031e+003, 7.634695e+002
1.368960e+003, 7.632693e+002
1.370888e+003, 7.626613e+002
1.372817e+003, 7.623389e+002
1.374745e+003, 7.622639e+002
1.376674e+003, 7.623598e+002
1.378602e+003, 7.626342e+002
1.380531e+003, 7.627986e+002
1.382459e+003, 7.628852e+002
1.384388e+003, 7.629015e+002
1.386316e+003, 7.616381e+002
1.388245e+003, 7.569963e+002
1.390173e+003, 7.541550e+002
1.392102e+003, 7.555537e+002
1.394030e+003, 7.580299e+002
1.395958e+003, 7.582447e+002
1.397887e+003, 7.560223e+002
1.399815e+003, 7.547291e+002
1.401744e+003, 7.548376e+002
1.403672e+003, 7.550001e+002
1.405601e+003, 7.546666e+002
1.407529e+003, 7.543176e+002
1.409458e+003, 7.549838e+002
1.411386e+003, 7.565693e+002
1.413315e+003, 7.563310e+002
1.415243e+003, 7.522830e+002
1.417172e+003, 7.497867e+002
1.419100e+003, 7.528177e+002
1.421029e+003, 7.573743e+002
1.422957e+003, 7.586882e+002
1.424885e+003, 7.566367e+002
1.426814e+003, 7.553887e+002
1.428742e+003, 7.556210e+002
1.430671e+003, 7.562966e+002
1.432599e+003, 7.574675e+002
1.434528e+003, 7.587026e+002
1.436456e+003, 7.593586e+002
1.438385e+003, 7.592599e+002
1.440313e+003, 7.596790e+002
1.442242e+003, 7.618098e+002
1.444170e+003, 7.629756e+002
1.446099e+003, 7.616221e+002
1.448027e+003, 7.593920e+002
1.449956e+003, 7.584405e+002
1.451884e+003, 7.590087e+002
1.453813e+003, 7.596454e+002
1.455741e+003, 7.602811e+002
1.457669e+003, 7.611340e+002
1.459598e+003, 7.627278e+002
1.461526e+003, 7.643406e+002
1.463455e+003, 7.649999e+002
1.465383e+003, 7.646642e+002
1.467312e+003, 7.642228e+002
1.469240e+003, 7.634044e+002
1.471169e+003, 7.628820e+002
1.473097e+003, 7.629222e+002
1.475026e+003, 7.632547e+002
1.476954e+003, 7.637708e+002
1.478883e+003, 7.644102e+002
1.480811e+003, 7.646250e+002
1.482740e+003, 7.644434e+002
1.484668e+003, 7.639115e+002
1.486596e+003, 7.620335e+002
1.488525e+003, 7.608765e+002
1.490453e+003, 7.627383e+002
1.492382e+003, 7.670689e+002
1.494310e+003, 7.700053e+002
1.496239e+003, 7.704491e+002
1.498167e+003, 7.712115e+002
1.500096e+003, 7.735675e+002
1.502024e+003, 7.756927e+002
1.503953e+003, 7.760869e+002
1.505881e+003, 7.750020e+002
1.507810e+003, 7.747443e+002
1.509738e+003, 7.764114e+002
1.511667e+003, 7.767656e+002
1.513595e+003, 7.738669e+002
1.515523e+003, 7.714600e+002
1.517452e+003, 7.721913e+002
1.519380e+003, 7.750829e+002
1.521309e+003, 7.767029e+002
1.523237e+003, 7.761320e+002
1.525166e+003, 7.759288e+002
1.527094e+003, 7.759694e+002
1.529023e+003, 7.763265e+002
1.530951e+003, 7.772714e+002
1.532880e+003, 7.784798e+002
1.534808e+003, 7.794816e+002
1.536737e+003, 7.805499e+002
1.538665e+003, 7.806749e+002
1.540594e+003, 7.785806e+002
1.542522e+003, 7.773584e+002
1.544450e+003, 7.784090e+002
1.546379e+003, 7.804764e+002
1.548307e+003, 7.823196e+002
1.550236e+003, 7.838969e+002
1.552164e+003, 7.844802e+002
1.554093e+003, 7.834108e+002
1.556021e+003, 7.824264e+002
1.557950e+003, 7.817988e+002
1.559878e+003, 7.814587e+002
1.561807e+003, 7.814014e+002
1.563735e+003, 7.815927e+002
1.565664e+003, 7.818499e+002
1.567592e+003, 7.821108e+002
1.569521e+003, 7.827722e+002
1.571449e+003, 7.849074e+002
1.573377e+003, 7.863441e+002
1.575306e+003, 7.849361e+002
1.577234e+003, 7.824826e+002
1.579163e+003, 7.823670e+002
1.581091e+003, 7.847264e+002
1.583020e+003, 7.862116e+002
1.584948e+003, 7.857785e+002
1.586877e+003, 7.856741e+002
1.588805e+003, 7.873652e+002
1.590734e+003, 7.894466e+002
1.592662e+003, 7.904974e+002
1.594591e+003, 7.907067e+002
1.596519e+003, 7.911005e+002
1.598448e+003, 7.915792e+002
1.600376e+003, 7.925872e+002
1.602304e+003, 7.948342e+002
1.604233e+003, 7.967610e+002
1.606161e+003, 7.973030e+002
1.608090e+003, 7.968062e+002
1.610018e+003, 7.959750e+002
1.611947e+003, 7.947393e+002
1.613875e+003, 7.940208e+002
1.615804e+003, 7.944999e+002
1.617732e+003, 7.949063e+002
1.619661e+003, 7.944594e+002
1.621589e+003, 7.941594e+002
1.623518e+003, 7.952852e+002
1.625446e+003, 7.977137e+002
1.627375e+003, 7.994341e+002
1.629303e+003, 7.998687e+002
1.631231e+003, 8.006635e+002
1.633160e+003, 8.024308e+002
1.635088e+003, 8.040348e+002
1.637017e+003, 8.049725e+002
1.638945e+003, 8.052083e+002
1.640874e+003, 8.045389e+002
1.642802e+003, 8.027632e+002
1.644731e+003, 8.018514e+002
1.646659e+003, 8.026660e+002
1.648588e+003, 8.035213e+002
1.650516e+003, 8.042740e+002
1.652445e+003, 8.047400e+002
1.654373e+003, 8.044259e+002
1.656302e+003, 8.034850e+002
1.658230e+003, 8.033538e+002
1.660158e+003, 8.041809e+002
1.662087e+003, 8.051391e+002
1.664015e+003, 8.063546e+002
1.665944e+003, 8.073396e+002
1.667872e+003, 8.081617e+002
1.669801e+003, 8.085252e+002
1.671729e+003, 8.077625e+002
1.673658e+003, 8.057370e+002
1.675586e+003, 8.048166e+002
1.677515e+003, 8.054185e+002
1.679443e+003, 8.064600e+002
1.681372e+003, 8.081644e+002
1.683300e+003, 8.098620e+002
1.685229e+003, 8.115914e+002
1.687157e+003, 8.128829e+002
1.689085e+003, 8.123109e+002
1.691014e+003, 8.090453e+002
1.692942e+003, 8.077078e+002
1.694871e+003, 8.098889e+002
1.696799e+003, 8.115398e+002
1.698728e+003, 8.116862e+002
1.700656e+003, 8.112588e+002
1.702585e+003, 8.108182e+002
1.704513e+003, 8.104548e+002
1.706442e+003, 8.103071e+002
1.708370e+003, 8.104473e+002
1.710299e+003, 8.107559e+002
1.712227e+003, 8.111520e+002
1.714156e+003, 8.117791e+002
1.716084e+003, 8.128733e+002
1.718012e+003, 8.139164e+002
1.719941e+003, 8.144015e+002
1.721869e+003, 8.144152e+002
1.723798e+003, 8.145463e+002
1.725726e+003, 8.150157e+002
1.727655e+003, 8.149326e+002
1.729583e+003, 8.137243e+002
1.731512e+003, 8.127135e+002
1.733440e+003, 8.123500e+002
1.735369e+003, 8.123176e+002
1.737297e+003, 8.122450e+002
1.739226e+003, 8.122465e+002
1.741154e+003, 8.129571e+002
1.743083e+003, 8.145648e+002
1.745011e+003, 8.162430e+002
1.746939e+003, 8.185029e+002
1.748868e+003, 8.198698e+002
1.750797e+003, 8.188935e+002
1.752725e+003, 8.175457e+002
1.754653e+003, 8.176015e+002
1.756582e+003, 8.188007e+002
1.758510e+003, 8.202303e+002
1.760439e+003, 8.222884e+002
1.762367e+003, 8.226602e+002
1.764296e+003, 8.197454e+002
1.766224e+003, 8.174886e+002
1.768153e+003, 8.179813e+002
1.770081e+003, 8.190733e+002
1.772010e+003, 8.191506e+002
1.773938e+003, 8.184274e+002
1.775867e+003, 8.173849e+002
1.777795e+003, 8.158747e+002
1.779724e+003, 8.152444e+002
1.781652e+003, 8.159847e+002
1.783580e+003, 8.168326e+002
1.785509e+003, 8.170829e+002
1.787437e+003, 8.174394e+002
1.789366e+003, 8.183777e+002
1.791294e+003, 8.197247e+002
1.793223e+003, 8.214583e+002
1.795151e+003, 8.235955e+002
1.797080e+003, 8.241854e+002
1.799008e+003, 8.223520e+002
1.800937e+003, 8.208912e+002
1.802865e+003, 8.207286e+002
1.804794e+003, 8.212247e+002
1.806722e+003, 8.226885e+002
1.808651e+003, 8.242361e+002
1.810579e+003, 8.239721e+002
1.812507e+003, 8.221950e+002
1.814436e+003, 8.222427e+002
1.816364e+003, 8.249371e+002
1.818293e+003, 8.268922e+002
1.820221e+003, 8.272151e+002
1.822150e+003, 8.266473e+002
1.824078e+003, 8.249620e+002
1.826007e+003, 8.230559e+002
1.827935e+003, 8.218802e+002
1.829864e+003, 8.214352e+002
1.831792e+003, 8.215744e+002
1.833721e+003, 8.223588e+002
1.835649e+003, 8.237193e+002
1.837578e+003, 8.263735e+002
1.839506e+003, 8.283665e+002
1.841434e+003, 8.289827e+002
1.843363e+003, 8.286443e+002
1.845291e+003, 8.265731e+002
1.847220e+003, 8.240213e+002
1.849148e+003, 8.244933e+002
1.851077e+003, 8.285615e+002
1.853005e+003, 8.303919e+002
1.854934e+003, 8.285509e+002
1.856862e+003, 8.270687e+002
1.858791e+003, 8.263754e+002
1.860719e+003, 8.262687e+002
1.862648e+003, 8.269210e+002
1.864576e+003, 8.279362e+002
1.866505e+003, 8.289539e+002
1.868433e+003, 8.299403e+002
1.870361e+003, 8.306317e+002
1.872290e+003, 8.311755e+002
1.874218e+003, 8.310868e+002
1.876147e+003, 8.293745e+002
1.878075e+003, 8.285340e+002
1.880004e+003, 8.301707e+002
1.881932e+003, 8.316908e+002
1.883861e+003, 8.309384e+002
1.885789e+003, 8.291946e+002
1.887718e+003, 8.288011e+002
1.889646e+003, 8.296897e+002
1.891575e+003, 8.298312e+002
1.893503e+003, 8.286850e+002
1.895432e+003, 8.282803e+002
1.897360e+003, 8.295338e+002
1.899288e+003, 8.305759e+002
1.901217e+003, 8.312537e+002
1.903145e+003, 8.312050e+002
1.905074e+003, 8.294424e+002
1.907002e+003, 8.272016e+002
1.908931e+003, 8.272458e+002
1.910859e+003, 8.294062e+002
1.912788e+003, 8.306021e+002
1.914716e+003, 8.300392e+002
1.916645e+003, 8.302761e+002
1.918573e+003, 8.325780e+002
1.920502e+003, 8.343071e+002
1.922430e+003, 8.336329e+002
1.924359e+003, 8.324299e+002
1.926287e+003, 8.326356e+002
1.928215e+003, 8.336330e+002
1.930144e+003, 8.338660e+002
1.932072e+003, 8.333942e+002
1.934001e+003, 8.326774e+002
1.935929e+003, 8.314081e+002
1.937858e+003, 8.307000e+002
1.939786e+003, 8.308289e+002
1.941715e+003, 8.313334e+002
1.943643e+003, 8.319670e+002
1.945572e+003, 8.329250e+002
1.947500e+003, 8.347542e+002
1.949429e+003, 8.368953e+002
1.951357e+003, 8.379230e+002
1.953286e+003, 8.376843e+002
1.955214e+003, 8.375209e+002
1.957142e+003, 8.373383e+002
1.959071e+003, 8.374385e+002
1.960999e+003, 8.388859e+002
1.962928e+003, 8.392141e+002
1.964856e+003, 8.368304e+002
1.966785e+003, 8.341339e+002
1.968713e+003, 8.325021e+002
1.970642e+003, 8.319340e+002
1.972570e+003, 8.327973e+002
1.974499e+003, 8.348310e+002
1.976427e+003, 8.358448e+002
1.978356e+003, 8.354028e+002
1.980284e+003, 8.363719e+002
1.982213e+003, 8.400704e+002
1.984141e+003, 8.430594e+002
1.986069e+003, 8.437004e+002
1.987998e+003, 8.436720e+002
1.989926e+003, 8.438558e+002
1.991855e+003, 8.439910e+002
1.993783e+003, 8.435698e+002
1.995712e+003, 8.428038e+002
1.997640e+003, 8.427874e+002
1.999569e+003, 8.438710e+002
2.001497e+003, 8.441740e+002
2.003426e+003, 8.430540e+002
2.005354e+003, 8.422443e+002
2.007283e+003, 8.416711e+002
2.009211e+003, 8.416916e+002
2.011140e+003, 8.430104e+002
2.013068e+003, 8.443856e+002
2.014996e+003, 8.451445e+002
2.016925e+003, 8.450875e+002
2.018853e+003, 8.430117e+002
2.020782e+003, 8.391558e+002
2.022710e+003, 8.388909e+002
2.024639e+003, 8.431024e+002
2.026567e+003, 8.461399e+002
2.028496e+003, 8.469846e+002
2.030424e+003, 8.472885e+002
2.032353e+003, 8.470624e+002
2.034281e+003, 8.470093e+002
2.036210e+003, 8.483807e+002
2.038138e+003, 8.493430e+002
2.040067e+003, 8.470211e+002
2.041995e+003, 8.431478e+002
2.043923e+003, 8.423634e+002
2.045852e+003, 8.446200e+002
2.047780e+003, 8.454158e+002
2.049709e+003, 8.435656e+002
2.051637e+003, 8.433131e+002
2.053566e+003, 8.471663e+002
2.055494e+003, 8.492772e+002
2.057423e+003, 8.471528e+002
2.059351e+003, 8.445831e+002
2.061280e+003, 8.435240e+002
2.063208e+003, 8.432565e+002
2.065136e+003, 8.431464e+002
2.067065e+003, 8.432481e+002
2.068993e+003, 8.435760e+002
2.070922e+003, 8.441214e+002
2.072850e+003, 8.449054e+002
2.074779e+003, 8.458873e+002
2.076708e+003, 8.464500e+002
2.078636e+003, 8.460803e+002
2.080564e+003, 8.458361e+002
2.082493e+003, 8.458774e+002
2.084421e+003, 8.462767e+002
2.086350e+003, 8.481711e+002
2.088278e+003, 8.496230e+002
2.090207e+003, 8.481476e+002
2.092135e+003, 8.453849e+002
2.094064e+003, 8.448008e+002
2.095992e+003, 8.462174e+002
2.097921e+003, 8.462717e+002
2.099849e+003, 8.440212e+002
2.101778e+003, 8.429934e+002
2.103706e+003, 8.438409e+002
2.105635e+003, 8.444193e+002
2.107563e+003, 8.445833e+002
2.109491e+003, 8.442712e+002
2.111420e+003, 8.437146e+002
2.113348e+003, 8.426042e+002
2.115277e+003, 8.396350e+002
2.117205e+003, 8.369642e+002
2.119134e+003, 8.380667e+002
2.121062e+003, 8.415236e+002
2.122991e+003, 8.433176e+002
2.124919e+003, 8.434015e+002
2.126848e+003, 8.434426e+002
2.128776e+003, 8.433675e+002
2.130705e+003, 8.435262e+002
2.132633e+003, 8.442339e+002
2.134562e+003, 8.446335e+002
2.136490e+003, 8.441086e+002
2.138418e+003, 8.439095e+002
2.140347e+003, 8.456589e+002
2.142275e+003, 8.469330e+002
2.144204e+003, 8.448516e+002
2.146132e+003, 8.417034e+002
2.148061e+003, 8.410223e+002
2.149989e+003, 8.424366e+002
2.151918e+003, 8.446660e+002
2.153846e+003, 8.476224e+002
2.155775e+003, 8.487914e+002
2.157703e+003, 8.475667e+002
2.159632e+003, 8.472021e+002
2.161560e+003, 8.484579e+002
2.163489e+003, 8.497604e+002
2.165417e+003, 8.510192e+002
2.167345e+003, 8.516062e+002
2.169274e+003, 8.511492e+002
2.171202e+003, 8.500810e+002
2.173131e+003, 8.483348e+002
2.175059e+003, 8.465951e+002
2.176988e+003, 8.460192e+002
2.178916e+003, 8.462634e+002
2.180845e+003, 8.460516e+002
2.182773e+003, 8.454235e+002
2.184702e+003, 8.448201e+002
2.186630e+003, 8.441570e+002
2.188559e+003, 8.439461e+002
2.190487e+003, 8.440238e+002
2.192416e+003, 8.451898e+002
2.194344e+003, 8.488965e+002
2.196272e+003, 8.510941e+002
2.198201e+003, 8.487473e+002
2.200129e+003, 8.464077e+002
2.202058e+003, 8.472531e+002
2.203986e+003, 8.487557e+002
2.205915e+003, 8.482452e+002
2.207843e+003, 8.468997e+002
2.209772e+003, 8.469545e+002
2.211700e+003, 8.480129e+002
2.213629e+003, 8.480068e+002
2.215557e+003, 8.469496e+002
2.217486e+003, 8.463619e+002
2.219414e+003, 8.463713e+002
2.221343e+003, 8.465597e+002
2.223271e+003, 8.468727e+002
2.225199e+003, 8.473934e+002
2.227128e+003, 8.482707e+002
2.229056e+003, 8.489730e+002
2.230985e+003, 8.488880e+002
2.232913e+003, 8.489933e+002
2.234842e+003, 8.507077e+002
2.236770e+003, 8.519734e+002
2.238699e+003, 8.497579e+002
2.240627e+003, 8.467341e+002
2.242556e+003, 8.476636e+002
2.244484e+003, 8.512562e+002
2.246413e+003, 8.528527e+002
2.248341e+003, 8.526435e+002
2.250270e+003, 8.528802e+002
2.252198e+003, 8.536198e+002
2.254126e+003, 8.544713e+002
2.256055e+003, 8.553559e+002
2.257983e+003, 8.563887e+002
2.259912e+003, 8.584858e+002
2.261840e+003, 8.589036e+002
2.263769e+003, 8.544863e+002
2.265697e+003, 8.517382e+002
2.267626e+003, 8.550558e+002
2.269554e+003, 8.585390e+002
2.271483e+003, 8.585942e+002
2.273411e+003, 8.570628e+002
2.275340e+003, 8.552285e+002
2.277268e+003, 8.535090e+002
2.279197e+003, 8.525457e+002
2.281125e+003, 8.522275e+002
2.283053e+003, 8.521580e+002
2.284982e+003, 8.522906e+002
2.286910e+003, 8.525029e+002
2.288839e+003, 8.526218e+002
2.290767e+003, 8.532784e+002
2.292696e+003, 8.549670e+002
2.294624e+003, 8.559882e+002
2.296553e+003, 8.559102e+002
2.298481e+003, 8.558250e+002
2.300410e+003, 8.557884e+002
2.302338e+003, 8.560345e+002
2.304267e+003, 8.571028e+002
2.306195e+003, 8.579344e+002
2.308124e+003, 8.581417e+002
2.310052e+003, 8.578192e+002
2.311980e+003, 8.559017e+002
2.313909e+003, 8.544593e+002
2.315837e+003, 8.569545e+002
2.317766e+003, 8.611121e+002
2.319694e+003, 8.618469e+002
2.321623e+003, 8.601641e+002
2.323551e+003, 8.610323e+002
2.325480e+003, 8.644544e+002
2.327408e+003, 8.666696e+002
2.329337e+003, 8.676447e+002
2.331265e+003, 8.674161e+002
2.333194e+003, 8.656785e+002
2.335122e+003, 8.650732e+002
2.337051e+003, 8.669706e+002
2.338979e+003, 8.672574e+002
2.340907e+003, 8.634286e+002
2.342836e+003, 8.605587e+002
2.344764e+003, 8.600527e+002
2.346693e+003, 8.607614e+002
2.348621e+003, 8.630742e+002
2.350550e+003, 8.652698e+002
2.352478e+003, 8.659897e+002
2.354407e+003, 8.660938e+002
2.356335e+003, 8.657052e+002
2.358264e+003, 8.654645e+002
2.360192e+003, 8.667146e+002
2.362121e+003, 8.685656e+002
2.364049e+003, 8.695728e+002
2.365978e+003, 8.698582e+002
2.367906e+003, 8.690499e+002
2.369834e+003, 8.673497e+002
2.371763e+003, 8.674694e+002
2.373691e+003, 8.697914e+002
2.375620e+003, 8.708573e+002
2.377548e+003, 8.700748e+002
2.379477e+003, 8.707955e+002
2.381405e+003, 8.737141e+002
2.383334e+003, 8.757258e+002
2.385262e+003, 8.758586e+002
2.387191e+003, 8.761045e+002
2.389119e+003, 8.769908e+002
2.391048e+003, 8.783361e+002
2.392976e+003, 8.810126e+002
2.394905e+003, 8.830494e+002
2.396833e+003, 8.826082e+002
2.398761e+003, 8.824532e+002
2.400690e+003, 8.846487e+002
2.402618e+003, 8.871866e+002
2.404547e+003, 8.884669e+002
2.406475e+003, 8.891547e+002
2.408404e+003, 8.899487e+002
2.410332e+003, 8.906911e+002
2.412261e+003, 8.912182e+002
2.414189e+003, 8.915400e+002
2.416118e+003, 8.913778e+002
2.418046e+003, 8.909850e+002
2.419975e+003, 8.917775e+002
2.421903e+003, 8.936575e+002
2.423832e+003, 8.945822e+002
2.425760e+003, 8.945168e+002
2.427688e+003, 8.946844e+002
2.429617e+003, 8.952211e+002
2.431545e+003, 8.947740e+002
2.433474e+003, 8.926528e+002
2.435402e+003, 8.912123e+002
2.437331e+003, 8.916600e+002
2.439259e+003, 8.911447e+002
2.441188e+003, 8.888595e+002
2.443116e+003, 8.869796e+002
2.445045e+003, 8.861854e+002
2.446973e+003, 8.853301e+002
2.448902e+003, 8.834871e+002
2.450830e+003, 8.823710e+002
2.452759e+003, 8.835875e+002
2.454687e+003, 8.845305e+002
2.456615e+003, 8.835472e+002
2.458544e+003, 8.819127e+002
2.460472e+003, 8.799831e+002
2.462401e+003, 8.785438e+002
2.464329e+003, 8.789724e+002
2.466258e+003, 8.798471e+002
2.468186e+003, 8.792828e+002
2.470115e+003, 8.782089e+002
2.472043e+003, 8.774811e+002
2.473972e+003, 8.773480e+002
2.475900e+003, 8.790304e+002
2.477829e+003, 8.815595e+002
2.479757e+003, 8.817980e+002
2.481686e+003, 8.800391e+002
2.483614e+003, 8.781386e+002
2.485542e+003, 8.762554e+002
2.487471e+003, 8.758029e+002
2.489399e+003, 8.767766e+002
2.491328e+003, 8.768260e+002
2.493256e+003, 8.757856e+002
2.495185e+003, 8.747928e+002
2.497113e+003, 8.733098e+002
2.499042e+003, 8.737432e+002
2.500970e+003, 8.771980e+002
2.502899e+003, 8.790089e+002
2.504827e+003, 8.779600e+002
2.506756e+003, 8.786188e+002
2.508684e+003, 8.829085e+002
2.510613e+003, 8.846682e+002
2.512541e+003, 8.807330e+002
2.514469e+003, 8.780152e+002
2.516398e+003, 8.797809e+002
2.518326e+003, 8.810389e+002
2.520255e+003, 8.796765e+002
2.522183e+003, 8.787056e+002
2.524112e+003, 8.792018e+002
2.526040e+003, 8.800491e+002
2.527969e+003, 8.811074e+002
2.529897e+003, 8.817912e+002
2.531826e+003, 8.812654e+002
2.533754e+003, 8.809489e+002
2.535683e+003, 8.817621e+002
2.537611e+003, 8.832733e+002
2.539540e+003, 8.857950e+002
2.541468e+003, 8.881434e+002
2.543396e+003, 8.884542e+002
2.545325e+003, 8.886233e+002
2.547253e+003, 8.914066e+002
2.549182e+003, 8.943691e+002
2.551110e+003, 8.938631e+002
2.553039e+003, 8.921558e+002
2.554967e+003, 8.931965e+002
2.556896e+003, 8.954696e+002
2.558824e+003, 8.958658e+002
2.560753e+003, 8.952907e+002
2.562681e+003, 8.958701e+002
2.564610e+003, 8.972118e+002
2.566538e+003, 8.980413e+002
2.568467e+003, 8.985394e+002
2.570395e+003, 8.995500e+002
2.572323e+003, 9.008542e+002
2.574252e+003, 9.016640e+002
2.576180e+003, 9.019598e+002
2.578109e+003, 9.024182e+002
2.580037e+003, 9.030559e+002
2.581966e+003, 9.038444e+002
2.583894e+003, 9.048347e+002
2.585823e+003, 9.054274e+002
2.587751e+003, 9.056627e+002
2.589680e+003, 9.053844e+002
2.591608e+003, 9.044444e+002
2.593537e+003, 9.038588e+002
2.595465e+003, 9.036600e+002
2.597394e+003, 9.026543e+002
2.599322e+003, 9.006118e+002
2.601250e+003, 8.987395e+002
2.603179e+003, 8.970028e+002
2.605107e+003, 8.963496e+002
2.607036e+003, 8.976066e+002
2.608964e+003, 8.980076e+002
2.610893e+003, 8.972933e+002
2.612821e+003, 8.965068e+002
2.614750e+003, 8.956105e+002
2.616678e+003, 8.954928e+002
2.618607e+003, 8.965759e+002
2.620535e+003, 8.970596e+002
2.622464e+003, 8.966580e+002
2.624392e+003, 8.953383e+002
2.626321e+003, 8.912977e+002
2.628249e+003, 8.897861e+002
2.630177e+003, 8.927167e+002
2.632106e+003, 8.941921e+002
2.634034e+003, 8.927756e+002
2.635963e+003, 8.912390e+002
2.637891e+003, 8.896815e+002
2.639820e+003, 8.895292e+002
2.641748e+003, 8.919893e+002
2.643677e+003, 8.944420e+002
2.645605e+003, 8.973778e+002
2.647534e+003, 8.980388e+002
2.649462e+003, 8.942484e+002
2.651391e+003, 8.919846e+002
2.653319e+003, 8.941981e+002
2.655248e+003, 8.958502e+002
2.657176e+003, 8.947169e+002
2.659104e+003, 8.936881e+002
2.661033e+003, 8.943850e+002
2.662961e+003, 8.939641e+002
2.664890e+003, 8.907969e+002
2.666818e+003, 8.887360e+002
2.668747e+003, 8.898237e+002
2.670675e+003, 8.911503e+002
2.672604e+003, 8.915971e+002
2.674532e+003, 8.921601e+002
2.676461e+003, 8.937379e+002
2.678389e+003, 8.943572e+002
2.680318e+003, 8.920684e+002
2.682246e+003, 8.912217e+002
2.684175e+003, 8.952040e+002
2.686103e+003, 8.974918e+002
2.688031e+003, 8.934072e+002
2.689960e+003, 8.902779e+002
2.691888e+003, 8.925745e+002
2.693817e+003, 8.937772e+002
2.695745e+003, 8.908315e+002
2.697674e+003, 8.886508e+002
2.699602e+003, 8.895629e+002
2.701531e+003, 8.907830e+002
2.703459e+003, 8.907802e+002
2.705388e+003, 8.912881e+002
2.707316e+003, 8.941038e+002
2.709245e+003, 8.954869e+002
2.711173e+003, 8.930936e+002
2.713102e+003, 8.913400e+002
2.715030e+003, 8.923172e+002
2.716958e+003, 8.932922e+002
2.718887e+003, 8.933994e+002
2.720815e+003, 8.929335e+002
2.722744e+003, 8.909824e+002
2.724672e+003, 8.903317e+002
2.726601e+003, 8.926440e+002
2.728529e+003, 8.945721e+002
2.730458e+003, 8.948994e+002
2.732386e+003, 8.948428e+002
2.734315e+003, 8.939590e+002
2.736243e+003, 8.940651e+002
2.738172e+003, 8.970578e+002
2.740100e+003, 8.984414e+002
2.742029e+003, 8.962763e+002
2.743957e+003, 8.950491e+002
2.745885e+003, 8.973040e+002
2.747814e+003, 8.982761e+002
2.749742e+003, 8.953533e+002
2.751671e+003, 8.934186e+002
2.753599e+003, 8.933751e+002
2.755528e+003, 8.944182e+002
2.757456e+003, 8.966456e+002
2.759385e+003, 8.989039e+002
2.761313e+003, 9.009575e+002
2.763242e+003, 9.024772e+002
2.765170e+003, 9.032230e+002
2.767099e+003, 9.034502e+002
2.769027e+003, 9.030675e+002
2.770956e+003, 9.024843e+002
2.772884e+003, 9.017871e+002
2.774813e+003, 9.011151e+002
2.776741e+003, 9.006909e+002
2.778669e+003, 9.001740e+002
2.780598e+003, 8.998116e+002
2.782526e+003, 8.988492e+002
2.784455e+003, 8.970567e+002
2.786383e+003, 8.959710e+002
2.788312e+003, 8.955683e+002
2.790240e+003, 8.970790e+002
2.792169e+003, 9.013105e+002
2.794097e+003, 9.046317e+002
2.796026e+003, 9.072143e+002
2.797954e+003, 9.066766e+002
2.799883e+003, 9.029687e+002
2.801811e+003, 9.012233e+002
2.803740e+003, 9.018742e+002
2.805668e+003, 9.014122e+002
2.807596e+003, 8.997332e+002
2.809525e+003, 8.999983e+002
2.811453e+003, 9.020190e+002
2.813382e+003, 9.024794e+002
2.815310e+003, 9.016744e+002
2.817239e+003, 9.021406e+002
2.819167e+003, 9.034797e+002
2.821096e+003, 9.026425e+002
2.823024e+003, 9.005388e+002
2.824953e+003, 9.019156e+002
2.826881e+003, 9.053473e+002
2.828810e+003, 9.067815e+002
2.830738e+003, 9.066780e+002
2.832667e+003, 9.054013e+002
2.834595e+003, 9.039944e+002
2.836523e+003, 9.049623e+002
2.838452e+003, 9.071339e+002
2.840380e+003, 9.087377e+002
2.842309e+003, 9.101338e+002
2.844237e+003, 9.123586e+002
2.846166e+003, 9.139719e+002
2.848094e+003, 9.123194e+002
2.850023e+003, 9.101705e+002
2.851951e+003, 9.104377e+002
2.853880e+003, 9.112958e+002
2.855808e+003, 9.112537e+002
2.857737e+003, 9.113926e+002
2.859665e+003, 9.131779e+002
2.861594e+003, 9.145350e+002
2.863522e+003, 9.137432e+002
2.865450e+003, 9.129347e+002
2.867379e+003, 9.130195e+002
2.869307e+003, 9.132142e+002
2.871236e+003, 9.127138e+002
2.873164e+003, 9.129091e+002
2.875093e+003, 9.149114e+002
2.877021e+003, 9.163807e+002
2.878950e+003, 9.167993e+002
2.880878e+003, 9.169085e+002
2.882807e+003, 9.166710e+002
2.884735e+003, 9.168979e+002
2.886664e+003, 9.185549e+002
2.888592e+003, 9.189185e+002
2.890521e+003, 9.175664e+002
2.892449e+003, 9.169409e+002
2.894377e+003, 9.172517e+002
2.896306e+003, 9.177716e+002
2.898234e+003, 9.184031e+002
2.900163e+003, 9.197900e+002
2.902091e+003, 9.220137e+002
2.904020e+003, 9.221014e+002
2.905948e+003, 9.205245e+002
2.907877e+003, 9.198459e+002
2.909805e+003, 9.200915e+002
2.911734e+003, 9.213500e+002
2.913662e+003, 9.231126e+002
2.915591e+003, 9.237732e+002
2.917519e+003, 9.237940e+002
2.919448e+003, 9.245389e+002
2.921376e+003, 9.249008e+002
2.923304e+003, 9.224990e+002
2.925233e+003, 9.197303e+002
2.927161e+003, 9.199297e+002
2.929090e+003, 9.206376e+002
2.931018e+003, 9.200320e+002
2.932947e+003, 9.188143e+002
2.934875e+003, 9.163655e+002
2.936804e+003, 9.150997e+002
2.938732e+003, 9.176171e+002
2.940661e+003, 9.195256e+002
2.942589e+003, 9.194020e+002
2.944518e+003, 9.183128e+002
2.946446e+003, 9.156395e+002
2.948375e+003, 9.141596e+002
2.950303e+003, 9.153055e+002
2.952231e+003, 9.155919e+002
2.954160e+003, 9.145950e+002
2.956088e+003, 9.133199e+002
2.958017e+003, 9.115668e+002
2.959945e+003, 9.118585e+002
2.961874e+003, 9.148458e+002
2.963802e+003, 9.140307e+002
2.965731e+003, 9.100342e+002
2.967659e+003, 9.096770e+002
2.969588e+003, 9.121581e+002
2.971516e+003, 9.121911e+002
2.973445e+003, 9.107340e+002
2.975373e+003, 9.100478e+002
2.977302e+003, 9.103000e+002
2.979230e+003, 9.128914e+002
2.981158e+003, 9.153963e+002
2.983087e+003, 9.144181e+002
2.985015e+003, 9.123786e+002
2.986944e+003, 9.116732e+002
2.988872e+003, 9.110406e+002
2.990801e+003, 9.094641e+002
2.992729e+003, 9.083082e+002
2.994658e+003, 9.086823e+002
2.996586e+003, 9.089393e+002
2.998515e+003, 9.078637e+002
3.000443e+003, 9.079579e+002
3.002372e+003, 9.104547e+002
3.004300e+003, 9.107015e+002
3.006229e+003, 9.058652e+002
3.008157e+003, 9.052131e+002
3.010085e+003, 9.102972e+002
3.012014e+003, 9.106105e+002
3.013942e+003, 9.062365e+002
3.015871e+003, 9.047142e+002
3.017799e+003, 9.057948e+002
3.019728e+003, 9.055312e+002
3.021656e+003, 9.045657e+002
3.023585e+003, 9.056229e+002
3.025513e+003, 9.073398e+002
3.027442e+003, 9.068121e+002
3.029370e+003, 9.060538e+002
3.031299e+003, 9.078895e+002
3.033227e+003, 9.103040e+002
3.035156e+003, 9.122281e+002
3.037084e+003, 9.130199e+002
3.039012e+003, 9.114628e+002
3.040941e+003, 9.100800e+002
3.042869e+003, 9.102730e+002
3.044798e+003, 9.103552e+002
3.046726e+003, 9.101000e+002
3.048655e+003, 9.095018e+002
3.050583e+003, 9.082054e+002
3.052512e+003, 9.079615e+002
3.054440e+003, 9.090460e+002
3.056369e+003, 9.100456e+002
3.058297e+003, 9.108710e+002
3.060226e+003, 9.103385e+002
3.062154e+003, 9.089603e+002
3.064083e+003, 9.091207e+002
3.066011e+003, 9.101866e+002
3.067939e+003, 9.110919e+002
3.069868e+003, 9.113631e+002
3.071796e+003, 9.096766e+002
3.073725e+003, 9.081068e+002
3.075653e+003, 9.091995e+002
3.077582e+003, 9.104252e+002
3.079510e+003, 9.106794e+002
3.081439e+003, 9.105071e+002
3.083367e+003, 9.094368e+002
3.085296e+003, 9.095519e+002
3.087224e+003, 9.121275e+002
3.089153e+003, 9.127668e+002
3.091081e+003, 9.106638e+002
3.093010e+003, 9.100114e+002
3.094938e+003, 9.112650e+002
3.096866e+003, 9.127549e+002
3.098795e+003, 9.143326e+002
3.100723e+003, 9.145752e+002
3.102652e+003, 9.138332e+002
3.104580e+003, 9.126160e+002
3.106509e+003, 9.114280e+002
3.108437e+003, 9.108273e+002
3.110366e+003, 9.108996e+002
3.112294e+003, 9.129940e+002
3.114223e+003, 9.137289e+002
3.116151e+003, 9.087427e+002
3.118080e+003, 9.063028e+002
3.120008e+003, 9.109322e+002
3.121937e+003, 9.134216e+002
3.123865e+003, 9.114196e+002
3.125793e+003, 9.102617e+002
3.127722e+003, 9.108510e+002
3.129650e+003, 9.108945e+002
3.131579e+003, 9.104582e+002
3.133507e+003, 9.116064e+002
3.135436e+003, 9.135233e+002
3.137364e+003, 9.132934e+002
3.139293e+003, 9.118361e+002
3.141221e+003, 9.098919e+002
3.143150e+003, 9.089891e+002
3.145078e+003, 9.116631e+002
3.147007e+003, 9.142607e+002
3.148935e+003, 9.136544e+002
3.150864e+003, 9.133539e+002
3.152792e+003, 9.146173e+002
3.154720e+003, 9.155687e+002
3.156649e+003, 9.156619e+002
3.158577e+003, 9.156615e+002
3.160506e+003, 9.157234e+002
3.162434e+003, 9.155661e+002
3.164363e+003, 9.151783e+002
3.166291e+003, 9.136318e+002
3.168220e+003, 9.117728e+002
3.170148e+003, 9.126141e+002
3.172077e+003, 9.143860e+002
3.174005e+003, 9.141617e+002
3.175934e+003, 9.139159e+002
3.177862e+003, 9.157967e+002
3.179791e+003, 9.176132e+002
3.181719e+003, 9.183363e+002
3.183647e+003, 9.190367e+002
3.185576e+003, 9.204440e+002
3.187504e+003, 9.200154e+002
3.189433e+003, 9.161185e+002
3.191361e+003, 9.157756e+002
3.193290e+003, 9.185586e+002
3.195218e+003, 9.197064e+002
3.197147e+003, 9.193913e+002
3.199075e+003, 9.188148e+002
3.201004e+003, 9.178027e+002
3.202932e+003, 9.152214e+002
3.204861e+003, 9.133684e+002
3.206789e+003, 9.150437e+002
3.208718e+003, 9.168588e+002
3.210646e+003, 9.169559e+002
3.212574e+003, 9.166945e+002
3.214503e+003, 9.159900e+002
3.216431e+003, 9.154720e+002
3.218360e+003, 9.148571e+002
3.220288e+003, 9.156456e+002
3.222217e+003, 9.175980e+002
3.224145e+003, 9.189527e+002
3.226074e+003, 9.195260e+002
3.228002e+003, 9.179605e+002
3.229931e+003, 9.160956e+002
3.231859e+003, 9.166951e+002
3.233788e+003, 9.177690e+002
3.235716e+003, 9.179415e+002
3.237645e+003, 9.180569e+002
3.239573e+003, 9.183547e+002
3.241501e+003, 9.186144e+002
3.243430e+003, 9.186194e+002
3.245358e+003, 9.196531e+002
3.247287e+003, 9.219828e+002
3.249215e+003, 9.215248e+002
3.251144e+003, 9.191459e+002
3.253072e+003, 9.177474e+002
3.255001e+003, 9.173568e+002
3.256929e+003, 9.182943e+002
3.258858e+003, 9.199864e+002
3.260786e+003, 9.228215e+002
3.262715e+003, 9.245771e+002
3.264643e+003, 9.230128e+002
3.266572e+003, 9.225870e+002
3.268500e+003, 9.244836e+002
3.270428e+003, 9.241165e+002
3.272357e+003, 9.208982e+002
3.274285e+003, 9.203898e+002
3.276214e+003, 9.220263e+002
3.278142e+003, 9.225263e+002
3.280071e+003, 9.225826e+002
3.281999e+003, 9.230175e+002
3.283928e+003, 9.238781e+002
3.285856e+003, 9.264000e+002
3.287785e+003, 9.272404e+002
3.289713e+003, 9.239651e+002
3.291642e+003, 9.224987e+002
3.293570e+003, 9.252365e+002
3.295499e+003, 9.269661e+002
3.297427e+003, 9.275859e+002
3.299355e+003, 9.269799e+002
3.301284e+003, 9.256528e+002
3.303212e+003, 9.254170e+002
3.305141e+003, 9.254454e+002
3.307069e+003, 9.244948e+002
3.308998e+003, 9.236257e+002
3.310926e+003, 9.240377e+002
3.312855e+003, 9.239650e+002
3.314783e+003, 9.226193e+002
3.316712e+003, 9.228409e+002
3.318640e+003, 9.256149e+002
3.320569e+003, 9.263678e+002
3.322497e+003, 9.252216e+002
3.324426e+003, 9.234428e+002
3.326354e+003, 9.223087e+002
3.328282e+003, 9.253909e+002
3.330211e+003, 9.287903e+002
3.332139e+003, 9.288316e+002
3.334068e+003, 9.279108e+002
3.335996e+003, 9.266630e+002
3.337925e+003, 9.257006e+002
3.339853e+003, 9.252027e+002
3.341782e+003, 9.248253e+002
3.343710e+003, 9.246719e+002
3.345639e+003, 9.261680e+002
3.347567e+003, 9.282961e+002
3.349496e+003, 9.278542e+002
3.351424e+003, 9.270148e+002
3.353353e+003, 9.286303e+002
3.355281e+003, 9.295994e+002
3.357209e+003, 9.274879e+002
3.359138e+003, 9.262786e+002
3.361066e+003, 9.270348e+002
3.362995e+003, 9.263054e+002
3.364923e+003, 9.239375e+002
3.366852e+003, 9.252871e+002
3.368780e+003, 9.285942e+002
3.370709e+003, 9.293523e+002
3.372637e+003, 9.290328e+002
3.374566e+003, 9.285167e+002
3.376494e+003, 9.288336e+002
3.378423e+003, 9.314376e+002
3.380351e+003, 9.319373e+002
3.382280e+003, 9.276468e+002
3.384208e+003, 9.271710e+002
3.386136e+003, 9.301868e+002
3.388065e+003, 9.316959e+002
3.389993e+003, 9.322317e+002
3.391922e+003, 9.336066e+002
3.393851e+003, 9.345952e+002
3.395779e+003, 9.335625e+002
3.397708e+003, 9.328441e+002
3.399636e+003, 9.339324e+002
3.401564e+003, 9.349865e+002
3.403493e+003, 9.358738e+002
3.405421e+003, 9.369005e+002
3.407350e+003, 9.379459e+002
3.409278e+003, 9.370246e+002
3.411207e+003, 9.361087e+002
3.413135e+003, 9.390891e+002
3.415064e+003, 9.426906e+002
3.416992e+003, 9.455499e+002
3.418921e+003, 9.457067e+002
3.420849e+003, 9.417401e+002
3.422778e+003, 9.390292e+002
3.424706e+003, 9.381309e+002
3.426635e+003, 9.400051e+002
3.428563e+003, 9.434037e+002
3.430491e+003, 9.446730e+002
3.432420e+003, 9.449961e+002
3.434348e+003, 9.460900e+002
3.436277e+003, 9.463531e+002
3.438205e+003, 9.447383e+002
3.440134e+003, 9.429815e+002
3.442062e+003, 9.411169e+002
3.443991e+003, 9.415280e+002
3.445919e+003, 9.435659e+002
3.447848e+003, 9.424691e+002
3.449776e+003, 9.403381e+002
3.451705e+003, 9.412113e+002
3.453633e+003, 9.426054e+002
3.455562e+003, 9.431495e+002
3.457490e+003, 9.433807e+002
3.459418e+003, 9.437034e+002
3.461347e+003, 9.422956e+002
3.463275e+003, 9.392421e+002
3.465204e+003, 9.388564e+002
3.467132e+003, 9.401093e+002
3.469061e+003, 9.406808e+002
3.470989e+003, 9.410895e+002
3.472918e+003, 9.417903e+002
3.474846e+003, 9.422571e+002
3.476775e+003, 9.420626e+002
3.478703e+003, 9.426017e+002
3.480632e+003, 9.440256e+002
3.482560e+003, 9.447586e+002
3.484489e+003, 9.448005e+002
3.486417e+003, 9.439025e+002
3.488345e+003, 9.431231e+002
3.490274e+003, 9.438850e+002
3.492202e+003, 9.447357e+002
3.494131e+003, 9.452346e+002
3.496059e+003, 9.455239e+002
3.497988e+003, 9.454456e+002
3.499916e+003, 9.452444e+002
3.501845e+003, 9.452294e+002
3.503773e+003, 9.470057e+002
3.505702e+003, 9.488495e+002
3.507630e+003, 9.497679e+002
3.509559e+003, 9.485859e+002
3.511487e+003, 9.431075e+002
3.513416e+003, 9.413791e+002
3.515344e+003, 9.441628e+002
3.517272e+003, 9.435712e+002
3.519201e+003, 9.413622e+002
3.521129e+003, 9.437149e+002
3.523058e+003, 9.462512e+002
3.524986e+003, 9.446662e+002
3.526915e+003, 9.424750e+002
3.528843e+003, 9.403336e+002
3.530772e+003, 9.397904e+002
3.532700e+003, 9.407607e+002
3.534629e+003, 9.412629e+002
3.536557e+003, 9.412720e+002
3.538486e+003, 9.410432e+002
3.540414e+003, 9.402322e+002
3.542343e+003, 9.383996e+002
3.544271e+003, 9.365263e+002
3.546199e+003, 9.348919e+002
3.548128e+003, 9.333546e+002
3.550056e+003, 9.320045e+002
3.551985e+003, 9.314985e+002
3.553913e+003, 9.317428e+002
3.555842e+003, 9.333697e+002
3.557770e+003, 9.344513e+002
3.559699e+003, 9.332611e+002
3.561627e+003, 9.325515e+002
3.563556e+003, 9.328396e+002
3.565484e+003, 9.316068e+002
3.567413e+003, 9.294366e+002
3.569341e+003, 9.303267e+002
3.571270e+003, 9.322476e+002
3.573198e+003, 9.334177e+002
3.575126e+003, 9.337757e+002
3.577055e+003, 9.332321e+002
3.578983e+003, 9.327507e+002
3.580912e+003, 9.325466e+002
3.582840e+003, 9.310518e+002
3.584769e+003, 9.293203e+002
3.586697e+003, 9.307619e+002
3.588626e+003, 9.320187e+002
3.590554e+003, 9.301379e+002
3.592483e+003, 9.275582e+002
3.594411e+003, 9.245623e+002
3.596340e+003, 9.221598e+002
3.598268e+003, 9.202947e+002
3.600197e+003, 9.188127e+002
3.602125e+003, 9.173409e+002
3.604053e+003, 9.153895e+002
3.605982e+003, 9.134332e+002
3.607910e+003, 9.113600e+002
3.609839e+003, 9.114086e+002
3.611767e+003, 9.141155e+002
3.613696e+003, 9.130276e+002
3.615624e+003, 9.107691e+002
3.617553e+003, 9.138657e+002
3.619481e+003, 9.172042e+002
3.621410e+003, 9.162199e+002
3.623338e+003, 9.166713e+002
3.625267e+003, 9.200541e+002
3.627195e+003, 9.218739e+002
3.629124e+003, 9.222549e+002
3.631052e+003, 9.223780e+002
3.632980e+003, 9.218400e+002
3.634909e+003, 9.202341e+002
3.636837e+003, 9.175056e+002
3.638766e+003, 9.137032e+002
3.640694e+003, 9.083153e+002
3.642623e+003, 9.016923e+002
3.644551e+003, 8.965762e+002
3.646480e+003, 8.928120e+002
3.648408e+003, 8.911672e+002
3.650337e+003, 8.885957e+002
3.652265e+003, 8.832736e+002
3.654194e+003, 8.796151e+002
3.656122e+003, 8.782715e+002
3.658051e+003, 8.764209e+002
3.659979e+003, 8.740449e+002
3.661907e+003, 8.711124e+002
3.663836e+003, 8.678367e+002
3.665764e+003, 8.638643e+002
3.667693e+003, 8.614999e+002
3.669621e+003, 8.614872e+002
3.671550e+003, 8.605497e+002
3.673478e+003, 8.592921e+002
3.675407e+003, 8.592308e+002
3.677335e+003, 8.594854e+002
3.679264e+003, 8.595068e+002
3.681192e+003, 8.592191e+002
3.683121e+003, 8.585424e+002
3.685049e+003, 8.582120e+002
3.686978e+003, 8.579082e+002
3.688906e+003, 8.558448e+002
3.690834e+003, 8.541943e+002
3.692763e+003, 8.558824e+002
3.694691e+003, 8.560710e+002
3.696620e+003, 8.535735e+002
3.698548e+003, 8.522406e+002
3.700477e+003, 8.521654e+002
3.702405e+003, 8.545145e+002
3.704334e+003, 8.560302e+002
3.706262e+003, 8.525043e+002
3.708191e+003, 8.500176e+002
3.710119e+003, 8.497928e+002
3.712048e+003, 8.507386e+002
3.713976e+003, 8.518287e+002
3.715905e+003, 8.484719e+002
3.717833e+003, 8.448315e+002
3.719761e+003, 8.448885e+002
3.721690e+003, 8.450631e+002
3.723618e+003, 8.447443e+002
3.725547e+003, 8.431085e+002
3.727475e+003, 8.408561e+002
3.729404e+003, 8.405807e+002
3.731332e+003, 8.409269e+002
3.733261e+003, 8.408005e+002
3.735189e+003, 8.412751e+002
3.737118e+003, 8.426187e+002
3.739046e+003, 8.418519e+002
3.740975e+003, 8.398777e+002
3.742903e+003, 8.397747e+002
3.744832e+003, 8.393277e+002
3.746760e+003, 8.359271e+002
3.748688e+003, 8.343005e+002
3.750617e+003, 8.350246e+002
3.752545e+003, 8.344329e+002
3.754474e+003, 8.332014e+002
3.756402e+003, 8.331766e+002
3.758331e+003, 8.334293e+002
3.760259e+003, 8.331607e+002
3.762188e+003, 8.339355e+002
3.764116e+003, 8.355891e+002
3.766045e+003, 8.345687e+002
3.767973e+003, 8.323582e+002
3.769902e+003, 8.314306e+002
3.771830e+003, 8.311382e+002
3.773759e+003, 8.321865e+002
3.775687e+003, 8.313339e+002
3.777615e+003, 8.289503e+002
3.779544e+003, 8.277057e+002
3.781472e+003, 8.273046e+002
3.783401e+003, 8.279473e+002
3.785329e+003, 8.277083e+002
3.787258e+003, 8.248773e+002
3.789186e+003, 8.238518e+002
3.791115e+003, 8.240927e+002
3.793043e+003, 8.233041e+002
3.794972e+003, 8.229504e+002
3.796900e+003, 8.250740e+002
3.798829e+003, 8.256744e+002
3.800757e+003, 8.233774e+002
3.802686e+003, 8.221680e+002
3.804614e+003, 8.218098e+002
3.806542e+003, 8.216065e+002
3.808471e+003, 8.220005e+002
3.810399e+003, 8.235823e+002
3.812328e+003, 8.233422e+002
3.814256e+003, 8.209730e+002
3.816185e+003, 8.197270e+002
3.818113e+003, 8.189827e+002
3.820042e+003, 8.180492e+002
3.821970e+003, 8.172519e+002
3.823899e+003, 8.167039e+002
3.825827e+003, 8.169312e+002
3.827756e+003, 8.175677e+002
3.829684e+003, 8.170781e+002
3.831613e+003, 8.161073e+002
3.833541e+003, 8.147036e+002
3.835469e+003, 8.138874e+002
3.837398e+003, 8.137813e+002
3.839326e+003, 8.139115e+002
3.841255e+003, 8.138943e+002
3.843183e+003, 8.126036e+002
3.845112e+003, 8.118317e+002
3.847040e+003, 8.130521e+002
3.848969e+003, 8.126581e+002
3.850897e+003, 8.109180e+002
3.852826e+003, 8.097791e+002
3.854754e+003, 8.096945e+002
3.856683e+003, 8.117027e+002
3.858611e+003, 8.126656e+002
3.860540e+003, 8.118626e+002
3.862468e+003, 8.117289e+002
3.864396e+003, 8.115610e+002
3.866325e+003, 8.095501e+002
3.868253e+003, 8.075244e+002
3.870182e+003, 8.059981e+002
3.872110e+003, 8.061005e+002
3.874039e+003, 8.074299e+002
3.875967e+003, 8.079398e+002
3.877896e+003, 8.076954e+002
3.879824e+003, 8.060017e+002
3.881753e+003, 8.055477e+002
3.883681e+003, 8.070066e+002
3.885610e+003, 8.068775e+002
3.887538e+003, 8.059611e+002
3.889467e+003, 8.053455e+002
3.891395e+003, 8.050004e+002
3.893323e+003, 8.047931e+002
3.895252e+003, 8.065293e+002
3.897180e+003, 8.089482e+002
3.899109e+003, 8.051563e+002
3.901037e+003, 8.019695e+002
3.902966e+003, 8.056794e+002
3.904894e+003, 8.076589e+002
3.906823e+003, 8.072684e+002
3.908751e+003, 8.072236e+002
3.910680e+003, 8.067331e+002
3.912608e+003, 8.042111e+002
3.914537e+003, 8.022832e+002
3.916465e+003, 8.016757e+002
3.918394e+003, 8.022838e+002
3.920322e+003, 8.029416e+002
3.922250e+003, 8.003278e+002
3.924179e+003, 7.989039e+002
3.926107e+003, 8.011837e+002
3.928036e+003, 8.008170e+002
3.929964e+003, 7.983449e+002
3.931893e+003, 7.984620e+002
3.933821e+003, 7.993503e+002
3.935750e+003, 8.001334e+002
3.937678e+003, 8.000612e+002
3.939607e+003, 7.991073e+002
3.941535e+003, 7.987125e+002
3.943464e+003, 7.980439e+002
3.945392e+003, 7.947541e+002
3.947321e+003, 7.948015e+002
3.949249e+003, 7.991478e+002
3.951177e+003, 7.981038e+002
3.953106e+003, 7.947990e+002
3.955034e+003, 7.952394e+002
3.956963e+003, 7.963252e+002
3.958891e+003, 7.976541e+002
3.960820e+003, 7.957255e+002
3.962748e+003, 7.926174e+002
3.964677e+003, 7.944808e+002
3.966605e+003, 7.965624e+002
3.968534e+003, 7.966949e+002
3.970462e+003, 7.946022e+002
3.972391e+003, 7.911937e+002
3.974319e+003, 7.910840e+002
3.976248e+003, 7.919568e+002
3.978176e+003, 7.931055e+002
3.980104e+003, 7.911613e+002
3.982033e+003, 7.863925e+002
3.983961e+003, 7.870767e+002
3.985890e+003, 7.889706e+002
3.987818e+003, 7.874171e+002
3.989747e+003, 7.870604e+002
3.991675e+003, 7.883627e+002
3.993604e+003, 7.880455e+002
3.995532e+003, 7.869529e+002
3.997461e+003, 7.857883e+002
3.999389e+003, 7.857159e+002
4.001318e+003, 7.873438e+002
4.003246e+003, 7.869612e+002
4.005175e+003, 7.856968e+002
4.007103e+003, 7.850533e+002
4.009031e+003, 7.853456e+002
4.010960e+003, 7.870390e+002
4.012888e+003, 7.847324e+002
4.014817e+003, 7.811435e+002
4.016745e+003, 7.822562e+002
4.018674e+003, 7.836350e+002
4.020602e+003, 7.838276e+002
4.022531e+003, 7.818664e+002
4.024459e+003, 7.791902e+002
4.026388e+003, 7.798368e+002
4.028316e+003, 7.805953e+002
4.030245e+003, 7.798163e+002
4.032173e+003, 7.795686e+002
4.034102e+003, 7.795529e+002
4.036030e+003, 7.788427e+002
4.037958e+003, 7.778585e+002
4.039887e+003, 7.766844e+002
4.041815e+003, 7.766385e+002
4.043744e+003, 7.771367e+002
4.045672e+003, 7.753055e+002
4.047601e+003, 7.742953e+002
4.049529e+003, 7.760261e+002
4.051458e+003, 7.756924e+002
4.053386e+003, 7.738317e+002
4.055315e+003, 7.744352e+002
4.057243e+003, 7.752542e+002
4.059172e+003, 7.751186e+002
4.061100e+003, 7.750671e+002
4.063029e+003, 7.748069e+002
4.064957e+003, 7.716101e+002
4.066885e+003, 7.702958e+002
4.068814e+003, 7.746953e+002
4.070742e+003, 7.750473e+002
4.072671e+003, 7.724985e+002
4.074599e+003, 7.740710e+002
4.076528e+003, 7.751976e+002
4.078456e+003, 7.735753e+002
4.080385e+003, 7.711191e+002
4.082313e+003, 7.686730e+002
4.084242e+003, 7.688163e+002
4.086170e+003, 7.687809e+002
4.088099e+003, 7.664167e+002
4.090027e+003, 7.668194e+002
4.091956e+003, 7.689450e+002
4.093884e+003, 7.691246e+002
4.095813e+003, 7.685880e+002
4.097741e+003, 7.679667e+002
4.099669e+003, 7.666290e+002
4.101598e+003, 7.650789e+002
4.103526e+003, 7.641663e+002
4.105455e+003, 7.644448e+002
4.107383e+003, 7.662039e+002
4.109312e+003, 7.667590e+002
4.111240e+003, 7.664241e+002
4.113169e+003, 7.664339e+002
4.115097e+003, 7.655150e+002
4.117026e+003, 7.631396e+002
4.118954e+003, 7.620891e+002
4.120883e+003, 7.619335e+002
4.122811e+003, 7.620613e+002
4.124740e+003, 7.620092e+002
4.126668e+003, 7.615958e+002
4.128597e+003, 7.605766e+002
4.130525e+003, 7.600112e+002
4.132454e+003, 7.625068e+002
4.134382e+003, 7.628376e+002
4.136311e+003, 7.599528e+002
4.138239e+003, 7.620773e+002
4.140167e+003, 7.645129e+002
4.142096e+003, 7.610579e+002
4.144024e+003, 7.599095e+002
4.145953e+003, 7.615077e+002
4.147881e+003, 7.606207e+002
4.149810e+003, 7.593967e+002
4.151738e+003, 7.597961e+002
4.153667e+003, 7.590528e+002
4.155595e+003, 7.573782e+002
4.157523e+003, 7.574480e+002
4.159452e+003, 7.574931e+002
4.161380e+003, 7.563616e+002
4.163309e+003, 7.567518e+002
4.165237e+003, 7.579316e+002
4.167166e+003, 7.567565e+002
4.169094e+003, 7.557869e+002
4.171023e+003, 7.561289e+002
4.172951e+003, 7.562122e+002
4.174880e+003, 7.558783e+002
4.176808e+003, 7.549850e+002
4.178737e+003, 7.533993e+002
4.180665e+003, 7.508989e+002
4.182594e+003, 7.511405e+002
4.184522e+003, 7.531730e+002
4.186451e+003, 7.576735e+002
4.188379e+003, 7.580823e+002
4.190308e+003, 7.540840e+002
4.192236e+003, 7.528195e+002
4.194165e+003, 7.525020e+002
4.196093e+003, 7.518854e+002
4.198021e+003, 7.511275e+002
4.199950e+003, 7.504608e+002
4.201878e+003, 7.507789e+002
4.203807e+003, 7.509652e+002
4.205735e+003, 7.505947e+002
4.207664e+003, 7.495071e+002
4.209592e+003, 7.484930e+002
4.211521e+003, 7.492643e+002
4.213449e+003, 7.494720e+002
4.215377e+003, 7.485639e+002
4.217306e+003, 7.487512e+002
4.219234e+003, 7.487880e+002
4.221163e+003, 7.472025e+002
4.223091e+003, 7.462220e+002
4.225020e+003, 7.460890e+002
4.226948e+003, 7.453187e+002
4.228877e+003, 7.449205e+002
4.230805e+003, 7.453886e+002
4.232734e+003, 7.467296e+002
4.234662e+003, 7.481459e+002
4.236591e+003, 7.477587e+002
4.238519e+003, 7.466329e+002
4.240448e+003, 7.449592e+002
4.242376e+003, 7.437626e+002
##END=



