##NAMES=Felsobanyaite
##RRUFFID=R060239
##IDEAL CHEMISTRY=Al_4_(SO_4_)(OH)_10_·4H_2_O
##LOCALITY=El Dragon mine, Potosi, Bolivia
##OWNER=RRUFF
##SOURCE=Michael Scott
##DESCRIPTION=White, massive powder associated with light blue chalcomenite.
##STATUS=The identification of this mineral has been confirmed by X-ray diffraction
##URL=https://www.rruff.net/odr/rruff_sample/R060239
##DIFFRACTION SAMPLE DESCRIPTION=Powder, using Mo radiation
##CELL PARAMETERS=a: 13.05 b: 10.124 c: 11.103 alpha: 90 beta: 103.9 gamma: 90 volume: 1424 crystal system: monoclinic
##FILETYPE=Raman RAW
##RAMAN WAVELENGTH=532

86.91748, 300.7307
88.84595, 303.5127
90.77441, 309.0407
92.70288, 315.5096
94.63135, 316.2087
96.55981, 320.2151
98.48828, 335.7446
100.4167, 352.4657
102.3452, 395.2321
104.2737, 470.1392
106.2021, 572.8341
108.1306, 726.4623
110.0591, 949.8519
111.9875, 1229.282
113.9160, 1548.626
115.8445, 1914.978
117.7729, 2312.671
119.7014, 2742.410
121.6299, 3206.490
123.5583, 3678.746
125.4868, 4155.951
127.4153, 4636.642
129.3438, 5112.154
131.2722, 5422.655
133.2007, 5570.912
135.1292, 5717.668
137.0576, 5871.057
138.9861, 6018.190
140.9146, 6165.935
142.8430, 6311.935
144.7715, 6441.324
146.7000, 6539.023
148.6284, 6632.782
150.5569, 6740.621
152.4854, 6876.423
154.4138, 7000.541
156.3423, 7104.028
158.2708, 7190.767
160.1992, 7267.124
162.1277, 7325.715
164.0562, 7379.928
165.9846, 7442.230
167.9131, 7517.026
169.8416, 7586.462
171.7700, 7645.709
173.6985, 7694.548
175.6270, 7743.560
177.5554, 7789.814
179.4839, 7838.530
181.4124, 7891.848
183.3408, 7950.294
185.2693, 8011.974
187.1978, 8077.319
189.1262, 8144.462
191.0547, 8206.936
192.9832, 8260.299
194.9116, 8309.354
196.8401, 8357.525
198.7686, 8409.666
200.6970, 8454.592
202.6255, 8488.795
204.5540, 8513.768
206.4824, 8534.932
208.4109, 8546.326
210.3394, 8558.990
212.2678, 8584.224
214.1963, 8626.725
216.1248, 8670.264
218.0532, 8710.017
219.9817, 8746.117
221.9102, 8781.896
223.8386, 8816.844
225.7671, 8849.837
227.6956, 8880.675
229.6240, 8910.416
231.5525, 8934.357
233.4810, 8948.510
235.4094, 8954.707
237.3379, 8967.439
239.2664, 8993.155
241.1948, 9020.811
243.1233, 9044.143
245.0518, 9058.836
246.9802, 9078.415
248.9087, 9104.830
250.8372, 9138.561
252.7656, 9176.335
254.6941, 9222.143
256.6226, 9266.761
258.5510, 9306.256
260.4795, 9335.075
262.4080, 9369.932
264.3364, 9411.509
266.2649, 9458.964
268.1934, 9510.330
270.1218, 9568.920
272.0503, 9625.808
273.9788, 9676.964
275.9072, 9720.512
277.8357, 9762.816
279.7642, 9804.260
281.6926, 9844.186
283.6211, 9881.416
285.5496, 9921.662
287.4780, 9955.456
289.4065, 9978.166
291.3350, 9993.232
293.2634, 10013.16
295.1919, 10046.59
297.1204, 10083.06
299.0488, 10115.17
300.9773, 10136.75
302.9058, 10163.59
304.8342, 10203.96
306.7627, 10253.88
308.6912, 10298.38
310.6196, 10325.65
312.5481, 10349.92
314.4766, 10381.75
316.4050, 10422.61
318.3335, 10455.13
320.2620, 10475.96
322.1904, 10489.86
324.1189, 10498.53
326.0474, 10490.13
327.9758, 10486.89
329.9043, 10502.33
331.8328, 10534.16
333.7612, 10562.77
335.6897, 10582.99
337.6182, 10599.77
339.5467, 10617.79
341.4751, 10638.17
343.4036, 10657.40
345.3321, 10669.33
347.2605, 10676.85
349.1890, 10696.29
351.1175, 10739.56
353.0459, 10783.11
354.9744, 10813.95
356.9029, 10832.28
358.8313, 10850.58
360.7598, 10870.97
362.6883, 10897.24
364.6167, 10933.11
366.5452, 10988.60
368.4737, 11037.15
370.4021, 11070.08
372.3306, 11092.07
374.2591, 11123.31
376.1875, 11170.78
378.1160, 11224.92
380.0445, 11278.17
381.9729, 11328.49
383.9014, 11376.60
385.8299, 11422.43
387.7583, 11464.37
389.6868, 11501.06
391.6153, 11533.19
393.5437, 11567.21
395.4722, 11599.87
397.4007, 11629.96
399.3291, 11660.34
401.2576, 11698.72
403.1861, 11744.60
405.1145, 11796.23
407.0430, 11853.44
408.9715, 11908.45
410.8999, 11959.69
412.8284, 12008.16
414.7569, 12055.62
416.6853, 12095.62
418.6138, 12139.17
420.5423, 12191.46
422.4707, 12253.81
424.3992, 12318.64
426.3277, 12390.06
428.2561, 12463.06
430.1846, 12533.17
432.1131, 12596.91
434.0415, 12660.36
435.9700, 12723.24
437.8985, 12783.72
439.8269, 12839.43
441.7554, 12887.59
443.6839, 12936.24
445.6123, 12989.63
447.5408, 13048.59
449.4693, 13101.58
451.3977, 13150.57
453.3262, 13195.12
455.2547, 13233.35
457.1831, 13260.41
459.1116, 13275.01
461.0401, 13280.99
462.9685, 13282.50
464.8970, 13283.35
466.8255, 13283.22
468.7539, 13283.22
470.6824, 13284.36
472.6109, 13289.14
474.5393, 13306.72
476.4678, 13338.25
478.3963, 13372.18
480.3247, 13403.00
482.2532, 13430.37
484.1817, 13456.22
486.1101, 13483.28
488.0386, 13512.98
489.9671, 13545.81
491.8955, 13576.51
493.8240, 13609.85
495.7525, 13648.79
497.6809, 13689.60
499.6094, 13727.55
501.5379, 13765.51
503.4663, 13800.16
505.3948, 13830.68
507.3233, 13855.18
509.2517, 13876.28
511.1802, 13890.50
513.1086, 13908.45
515.0371, 13934.12
516.9656, 13968.90
518.8940, 14004.20
520.8225, 14044.22
522.7510, 14083.58
524.6794, 14113.72
526.6079, 14131.84
528.5364, 14156.31
530.4648, 14194.65
532.3933, 14243.63
534.3218, 14297.91
536.2502, 14352.61
538.1787, 14405.49
540.1072, 14456.43
542.0356, 14509.65
543.9641, 14562.43
545.8926, 14602.70
547.8210, 14643.90
549.7495, 14695.31
551.6780, 14768.97
553.6064, 14834.23
555.5349, 14875.27
557.4634, 14908.25
559.3918, 14947.24
561.3203, 14999.45
563.2488, 15056.42
565.1772, 15120.94
567.1057, 15190.46
569.0342, 15258.33
570.9626, 15316.19
572.8911, 15374.38
574.8196, 15436.78
576.7480, 15503.91
578.6765, 15573.21
580.6050, 15649.63
582.5335, 15727.02
584.4620, 15802.78
586.3904, 15875.27
588.3189, 15950.09
590.2474, 16031.40
592.1758, 16111.37
594.1043, 16185.02
596.0328, 16252.61
597.9612, 16320.31
599.8897, 16391.45
601.8182, 16450.43
603.7466, 16486.51
605.6751, 16506.03
607.6036, 16533.54
609.5320, 16583.56
611.4605, 16637.06
613.3890, 16672.02
615.3174, 16678.57
617.2459, 16689.90
619.1744, 16716.79
621.1028, 16748.41
623.0313, 16769.41
624.9598, 16772.61
626.8882, 16777.22
628.8167, 16787.96
630.7452, 16804.52
632.6736, 16823.29
634.6021, 16845.73
636.5306, 16863.92
638.4590, 16870.75
640.3875, 16873.38
642.3160, 16881.79
644.2444, 16891.26
646.1729, 16901.52
648.1014, 16915.81
650.0298, 16939.71
651.9583, 16963.81
653.8868, 16985.15
655.8152, 17008.58
657.7437, 17037.23
659.6722, 17075.22
661.6006, 17117.94
663.5291, 17166.75
665.4576, 17211.89
667.3860, 17242.24
669.3145, 17258.01
671.2430, 17280.93
673.1714, 17330.19
675.0999, 17378.03
677.0284, 17404.85
678.9568, 17403.29
680.8853, 17412.89
682.8138, 17443.93
684.7422, 17480.75
686.6707, 17511.86
688.5992, 17534.20
690.5276, 17564.16
692.4561, 17602.77
694.3846, 17650.57
696.3130, 17701.96
698.2415, 17753.23
700.1700, 17795.47
702.0984, 17821.72
704.0269, 17841.79
705.9554, 17862.69
707.8839, 17886.15
709.8123, 17906.87
711.7408, 17926.60
713.6693, 17949.89
715.5977, 17977.59
717.5262, 18009.17
719.4547, 18047.89
721.3831, 18098.00
723.3116, 18155.05
725.2401, 18209.47
727.1685, 18253.40
729.0970, 18299.14
731.0255, 18352.30
732.9539, 18409.96
734.8824, 18458.07
736.8109, 18491.34
738.7393, 18525.97
740.6678, 18571.43
742.5963, 18623.75
744.5247, 18669.57
746.4532, 18699.76
748.3817, 18733.33
750.3101, 18780.03
752.2386, 18835.51
754.1671, 18878.85
756.0955, 18902.20
758.0240, 18930.62
759.9525, 18978.19
761.8809, 19041.05
763.8094, 19100.06
765.7379, 19145.21
767.6663, 19197.09
769.5948, 19262.91
771.5233, 19337.53
773.4517, 19405.11
775.3802, 19457.79
777.3087, 19509.11
779.2371, 19568.55
781.1656, 19633.24
783.0941, 19680.47
785.0225, 19699.85
786.9510, 19719.45
788.8795, 19748.82
790.8079, 19787.96
792.7364, 19832.33
794.6649, 19888.82
796.5933, 19943.87
798.5218, 19987.39
800.4503, 20015.88
802.3787, 20054.85
804.3072, 20108.14
806.2357, 20168.04
808.1641, 20232.87
810.0926, 20298.98
812.0211, 20359.24
813.9495, 20405.01
815.8780, 20460.14
817.8065, 20539.67
819.7349, 20635.83
821.6634, 20717.92
823.5919, 20772.46
825.5203, 20823.35
827.4488, 20876.75
829.3773, 20932.24
831.3057, 20974.62
833.2342, 20995.92
835.1627, 21013.46
837.0911, 21039.04
839.0196, 21073.53
840.9481, 21105.11
842.8765, 21138.20
844.8050, 21165.19
846.7335, 21179.27
848.6619, 21183.58
850.5904, 21204.58
852.5189, 21253.46
854.4473, 21307.22
856.3758, 21352.84
858.3043, 21389.09
860.2327, 21429.02
862.1612, 21475.40
864.0897, 21527.04
866.0181, 21585.30
867.9466, 21634.21
869.8751, 21672.99
871.8035, 21709.45
873.7320, 21748.50
875.6605, 21792.32
877.5889, 21829.88
879.5174, 21864.35
881.4459, 21899.95
883.3743, 21946.22
885.3028, 22008.92
887.2313, 22060.01
889.1597, 22093.55
891.0882, 22121.72
893.0167, 22157.31
894.9451, 22203.80
896.8736, 22251.51
898.8021, 22297.84
900.7305, 22334.10
902.6590, 22369.94
904.5875, 22410.66
906.5159, 22469.82
908.4444, 22533.29
910.3729, 22593.47
912.3013, 22655.32
914.2298, 22711.89
916.1583, 22770.43
918.0867, 22846.23
920.0152, 22937.38
921.9437, 23020.43
923.8721, 23083.08
925.8006, 23147.00
927.7291, 23222.77
929.6575, 23301.35
931.5860, 23380.90
933.5145, 23462.92
935.4429, 23557.51
937.3714, 23665.70
939.2999, 23791.84
941.2283, 23924.10
943.1568, 24064.43
945.0853, 24208.39
947.0137, 24353.41
948.9422, 24491.11
950.8707, 24625.88
952.7991, 24751.07
954.7276, 24885.88
956.6561, 25038.18
958.5845, 25203.79
960.5130, 25394.30
962.4415, 25610.10
964.3699, 25838.34
966.2984, 26067.99
968.2269, 26326.40
970.1553, 26620.63
972.0838, 26931.21
974.0123, 27228.99
975.9407, 27527.20
977.8692, 27800.08
979.7977, 28010.95
981.7261, 28161.64
983.6546, 28175.81
985.5831, 28010.85
987.5115, 27755.59
989.4400, 27479.00
991.3685, 27173.40
993.2969, 26874.47
995.2254, 26599.62
997.1539, 26373.17
999.0823, 26199.61
1001.011, 26074.90
1002.939, 26010.27
1004.868, 25982.95
1006.796, 25949.67
1008.725, 25898.24
1010.653, 25868.49
1012.582, 25830.47
1014.510, 25786.49
1016.439, 25752.97
1018.367, 25735.07
1020.295, 25731.11
1022.224, 25750.39
1024.152, 25785.22
1026.081, 25819.11
1028.009, 25848.71
1029.938, 25876.23
1031.866, 25902.26
1033.795, 25936.59
1035.723, 25983.21
1037.652, 26035.73
1039.580, 26084.87
1041.509, 26127.89
1043.437, 26161.22
1045.365, 26189.79
1047.294, 26221.38
1049.222, 26247.97
1051.151, 26265.61
1053.079, 26283.88
1055.008, 26320.30
1056.936, 26356.11
1058.865, 26386.74
1060.793, 26422.05
1062.722, 26472.84
1064.650, 26525.18
1066.579, 26568.71
1068.507, 26621.17
1070.436, 26680.72
1072.364, 26733.33
1074.292, 26772.53
1076.221, 26817.02
1078.150, 26883.46
1080.078, 26955.38
1082.006, 27018.87
1083.935, 27073.21
1085.863, 27130.92
1087.792, 27184.46
1089.720, 27216.87
1091.649, 27256.92
1093.577, 27318.91
1095.506, 27387.03
1097.434, 27416.21
1099.363, 27409.48
1101.291, 27397.81
1103.220, 27398.90
1105.148, 27414.55
1107.077, 27436.73
1109.005, 27452.17
1110.933, 27476.84
1112.862, 27529.28
1114.790, 27581.99
1116.719, 27606.09
1118.647, 27586.31
1120.576, 27586.83
1122.504, 27643.97
1124.433, 27702.86
1126.361, 27735.98
1128.290, 27756.29
1130.218, 27792.13
1132.147, 27833.17
1134.075, 27866.55
1136.004, 27907.97
1137.932, 27957.64
1139.860, 28006.38
1141.789, 28047.80
1143.717, 28083.46
1145.646, 28112.18
1147.574, 28140.32
1149.503, 28169.39
1151.431, 28199.93
1153.360, 28235.95
1155.288, 28289.71
1157.217, 28326.64
1159.145, 28335.25
1161.074, 28341.94
1163.002, 28372.84
1164.931, 28424.46
1166.859, 28468.86
1168.787, 28518.37
1170.716, 28569.01
1172.644, 28598.53
1174.573, 28599.16
1176.501, 28620.43
1178.430, 28696.62
1180.358, 28766.24
1182.287, 28802.29
1184.215, 28817.79
1186.144, 28848.30
1188.072, 28903.74
1190.001, 28954.55
1191.929, 28990.72
1193.858, 29018.97
1195.786, 29050.00
1197.714, 29086.09
1199.643, 29118.82
1201.571, 29142.88
1203.500, 29161.67
1205.428, 29180.98
1207.357, 29206.55
1209.285, 29248.62
1211.214, 29312.60
1213.142, 29374.80
1215.071, 29431.12
1216.999, 29493.40
1218.928, 29554.02
1220.856, 29603.76
1222.785, 29640.07
1224.713, 29668.23
1226.641, 29690.37
1228.570, 29707.63
1230.498, 29731.95
1232.427, 29765.63
1234.355, 29808.22
1236.284, 29843.63
1238.212, 29863.06
1240.141, 29900.83
1242.069, 29970.68
1243.998, 30067.38
1245.926, 30145.41
1247.855, 30183.86
1249.783, 30223.99
1251.712, 30283.89
1253.640, 30347.14
1255.568, 30395.69
1257.497, 30429.57
1259.425, 30459.23
1261.354, 30478.27
1263.282, 30483.34
1265.211, 30490.70
1267.139, 30513.12
1269.068, 30540.70
1270.996, 30571.09
1272.925, 30606.56
1274.853, 30667.72
1276.782, 30730.76
1278.710, 30763.16
1280.639, 30771.82
1282.567, 30811.12
1284.495, 30896.86
1286.424, 30975.75
1288.352, 31037.77
1290.281, 31086.56
1292.209, 31120.51
1294.138, 31130.41
1296.066, 31157.13
1297.995, 31228.20
1299.923, 31299.59
1301.852, 31344.45
1303.780, 31369.00
1305.709, 31406.28
1307.637, 31461.25
1309.566, 31513.99
1311.494, 31552.04
1313.422, 31577.80
1315.351, 31600.15
1317.279, 31623.53
1319.208, 31639.03
1321.136, 31639.54
1323.065, 31647.01
1324.993, 31684.74
1326.922, 31736.78
1328.850, 31787.17
1330.779, 31836.39
1332.707, 31882.57
1334.636, 31909.00
1336.564, 31946.97
1338.493, 32005.59
1340.421, 32073.70
1342.349, 32139.91
1344.278, 32207.40
1346.206, 32252.22
1348.135, 32257.26
1350.063, 32260.43
1351.992, 32280.63
1353.920, 32307.66
1355.849, 32322.24
1357.777, 32320.65
1359.706, 32331.94
1361.634, 32370.29
1363.563, 32415.56
1365.491, 32455.55
1367.420, 32488.16
1369.348, 32514.68
1371.276, 32534.00
1373.205, 32558.83
1375.133, 32596.54
1377.062, 32630.48
1378.990, 32652.46
1380.919, 32665.36
1382.847, 32684.05
1384.776, 32711.77
1386.704, 32740.82
1388.633, 32771.82
1390.561, 32802.43
1392.490, 32831.43
1394.418, 32857.11
1396.347, 32876.86
1398.275, 32891.45
1400.203, 32896.91
1402.132, 32878.34
1404.060, 32861.97
1405.989, 32879.19
1407.917, 32924.91
1409.846, 32949.55
1411.774, 32942.70
1413.703, 32940.94
1415.631, 32958.22
1417.560, 32984.71
1419.488, 33012.47
1421.417, 33041.70
1423.345, 33073.28
1425.274, 33102.79
1427.202, 33139.84
1429.130, 33194.18
1431.059, 33247.67
1432.987, 33282.59
1434.916, 33298.05
1436.844, 33317.23
1438.773, 33356.61
1440.701, 33372.89
1442.630, 33349.53
1444.558, 33313.71
1446.487, 33289.02
1448.415, 33280.31
1450.344, 33285.38
1452.272, 33303.06
1454.201, 33337.74
1456.129, 33397.37
1458.057, 33462.34
1459.986, 33519.64
1461.914, 33566.77
1463.843, 33589.50
1465.771, 33568.09
1467.700, 33555.91
1469.628, 33566.24
1471.557, 33587.23
1473.485, 33621.10
1475.414, 33661.19
1477.342, 33682.10
1479.271, 33685.27
1481.199, 33686.32
1483.128, 33682.57
1485.056, 33679.09
1486.984, 33679.59
1488.913, 33687.26
1490.841, 33707.19
1492.770, 33742.55
1494.698, 33778.48
1496.627, 33806.09
1498.555, 33831.40
1500.484, 33866.73
1502.412, 33904.60
1504.341, 33912.87
1506.269, 33881.52
1508.198, 33866.18
1510.126, 33895.67
1512.055, 33924.37
1513.983, 33932.32
1515.911, 33930.23
1517.840, 33938.26
1519.768, 33957.36
1521.697, 33981.23
1523.625, 34015.55
1525.554, 34046.39
1527.482, 34065.57
1529.411, 34080.52
1531.339, 34101.47
1533.268, 34130.36
1535.196, 34162.66
1537.125, 34193.90
1539.053, 34237.16
1540.982, 34304.46
1542.910, 34369.98
1544.839, 34402.98
1546.767, 34462.24
1548.695, 34514.29
1550.624, 34541.20
1552.552, 34576.73
1554.481, 34614.85
1556.409, 34613.12
1558.338, 34608.18
1560.266, 34608.88
1562.195, 34626.75
1564.123, 34659.14
1566.052, 34699.30
1567.980, 34752.12
1569.909, 34802.09
1571.837, 34838.20
1573.766, 34862.31
1575.694, 34878.12
1577.622, 34885.78
1579.551, 34893.85
1581.479, 34907.63
1583.408, 34926.65
1585.336, 34961.36
1587.265, 35002.04
1589.193, 35039.36
1591.122, 35075.29
1593.050, 35115.80
1594.979, 35157.41
1596.907, 35208.20
1598.836, 35276.58
1600.764, 35331.68
1602.693, 35345.52
1604.621, 35340.92
1606.549, 35354.21
1608.478, 35385.65
1610.406, 35392.22
1612.335, 35371.36
1614.263, 35331.33
1616.192, 35253.93
1618.120, 35190.03
1620.049, 35183.06
1621.977, 35217.53
1623.906, 35236.02
1625.834, 35228.43
1627.763, 35231.48
1629.691, 35241.45
1631.620, 35263.88
1633.548, 35323.27
1635.476, 35375.84
1637.405, 35358.10
1639.333, 35274.50
1641.262, 35233.47
1643.190, 35268.58
1645.119, 35286.73
1647.047, 35246.26
1648.976, 35204.59
1650.904, 35194.75
1652.833, 35201.73
1654.761, 35190.35
1656.690, 35155.18
1658.618, 35133.74
1660.547, 35141.32
1662.475, 35150.68
1664.403, 35160.18
1666.332, 35172.52
1668.260, 35191.33
1670.189, 35216.02
1672.117, 35234.03
1674.046, 35229.39
1675.974, 35252.60
1677.903, 35323.57
1679.831, 35390.02
1681.760, 35432.93
1683.688, 35456.54
1685.617, 35469.79
1687.545, 35474.09
1689.474, 35456.02
1691.402, 35407.74
1693.330, 35374.41
1695.259, 35368.87
1697.187, 35384.64
1699.116, 35437.61
1701.044, 35502.94
1702.973, 35533.94
1704.901, 35522.03
1706.830, 35535.40
1708.758, 35579.37
1710.687, 35623.32
1712.615, 35657.27
1714.544, 35687.85
1716.472, 35725.41
1718.401, 35760.77
1720.329, 35774.77
1722.257, 35767.17
1724.186, 35769.93
1726.114, 35800.46
1728.043, 35814.49
1729.971, 35783.44
1731.900, 35752.63
1733.828, 35749.84
1735.757, 35761.26
1737.685, 35764.69
1739.614, 35762.31
1741.542, 35738.62
1743.471, 35668.91
1745.399, 35641.75
1747.328, 35723.55
1749.256, 35810.69
1751.184, 35826.04
1753.113, 35811.00
1755.041, 35852.82
1756.970, 35949.82
1758.898, 36024.04
1760.827, 36061.17
1762.755, 36082.82
1764.684, 36090.29
1766.612, 36091.77
1768.541, 36101.88
1770.469, 36114.04
1772.398, 36110.54
1774.326, 36095.50
1776.255, 36094.31
1778.183, 36104.44
1780.111, 36136.55
1782.040, 36199.99
1783.968, 36266.97
1785.897, 36325.27
1787.825, 36371.85
1789.754, 36404.76
1791.682, 36422.86
1793.611, 36421.11
1795.539, 36395.07
1797.468, 36376.88
1799.396, 36381.43
1801.325, 36385.57
1803.253, 36386.18
1805.182, 36379.20
1807.110, 36352.96
1809.038, 36318.04
1810.967, 36305.35
1812.895, 36316.54
1814.824, 36338.90
1816.752, 36374.91
1818.681, 36410.24
1820.609, 36445.96
1822.538, 36472.63
1824.466, 36471.69
1826.395, 36461.88
1828.323, 36485.43
1830.252, 36541.91
1832.180, 36583.80
1834.109, 36599.22
1836.037, 36617.73
1837.965, 36648.70
1839.894, 36677.13
1841.822, 36697.60
1843.751, 36710.30
1845.679, 36706.49
1847.608, 36693.41
1849.536, 36723.63
1851.465, 36823.59
1853.393, 36890.95
1855.322, 36895.14
1857.250, 36899.16
1859.179, 36918.07
1861.107, 36936.99
1863.036, 36937.74
1864.964, 36952.72
1866.892, 36962.71
1868.821, 36965.07
1870.749, 36978.57
1872.678, 36978.36
1874.606, 36974.84
1876.535, 36963.05
1878.463, 36966.72
1880.392, 37003.15
1882.320, 37050.47
1884.249, 37077.78
1886.177, 37112.28
1888.106, 37120.82
1890.034, 37171.46
1891.963, 37210.61
1893.891, 37243.09
1895.819, 37249.18
1897.748, 37213.63
1899.676, 37177.11
1901.605, 37161.86
1903.533, 37164.04
1905.462, 37185.11
1907.390, 37218.82
1909.319, 37231.59
1911.247, 37216.29
1913.176, 37223.80
1915.104, 37265.46
1917.033, 37310.45
1918.961, 37358.76
1920.890, 37393.98
1922.818, 37389.70
1924.746, 37377.52
1926.675, 37408.14
1928.603, 37472.05
1930.532, 37510.80
1932.460, 37521.43
1934.389, 37521.49
1936.317, 37498.88
1938.246, 37488.48
1940.174, 37504.20
1942.103, 37529.71
1944.031, 37560.00
1945.960, 37592.46
1947.888, 37621.16
1949.817, 37646.08
1951.745, 37673.36
1953.673, 37698.85
1955.602, 37729.95
1957.530, 37779.22
1959.459, 37807.07
1961.387, 37785.17
1963.316, 37769.73
1965.244, 37805.48
1967.173, 37850.02
1969.101, 37849.92
1971.030, 37825.50
1972.958, 37837.29
1974.887, 37886.04
1976.815, 37937.88
1978.744, 37986.37
1980.672, 38039.30
1982.600, 38106.63
1984.529, 38153.90
1986.457, 38138.63
1988.386, 38118.55
1990.314, 38154.55
1992.243, 38214.66
1994.171, 38239.26
1996.100, 38231.28
1998.028, 38214.57
1999.957, 38179.81
2001.885, 38171.79
2003.814, 38218.99
2005.742, 38255.56
2007.671, 38262.92
2009.599, 38263.26
2011.527, 38260.72
2013.456, 38262.95
2015.384, 38275.29
2017.313, 38298.98
2019.241, 38347.09
2021.170, 38420.52
2023.098, 38476.48
2025.027, 38513.01
2026.955, 38521.46
2028.884, 38480.48
2030.812, 38453.54
2032.741, 38475.96
2034.669, 38514.86
2036.598, 38560.80
2038.526, 38603.05
2040.454, 38615.09
2042.383, 38607.77
2044.311, 38633.79
2046.240, 38695.99
2048.168, 38742.35
2050.097, 38756.32
2052.025, 38769.79
2053.954, 38788.77
2055.882, 38800.84
2057.811, 38799.34
2059.739, 38799.30
2061.667, 38824.95
2063.596, 38829.59
2065.525, 38870.16
2067.453, 38864.97
2069.382, 38877.90
2071.310, 38905.93
2073.239, 38949.66
2075.167, 39008.39
2077.095, 39050.30
2079.024, 39055.16
2080.952, 39057.52
2082.881, 39103.71
2084.809, 39123.93
2086.738, 39044.38
2088.666, 38950.48
2090.595, 38958.02
2092.523, 39039.23
2094.452, 39090.50
2096.380, 39103.88
2098.309, 39144.43
2100.237, 39221.59
2102.166, 39280.25
2104.094, 39309.04
2106.022, 39324.62
2107.951, 39326.00
2109.879, 39329.08
2111.808, 39362.06
2113.736, 39388.99
2115.665, 39356.48
2117.593, 39309.50
2119.522, 39330.04
2121.450, 39399.55
2123.379, 39447.81
2125.307, 39470.04
2127.236, 39479.52
2129.164, 39481.93
2131.093, 39469.38
2133.021, 39421.21
2134.949, 39397.27
2136.878, 39431.62
2138.806, 39473.40
2140.735, 39490.96
2142.663, 39497.32
2144.592, 39500.01
2146.520, 39501.02
2148.449, 39511.89
2150.377, 39522.89
2152.306, 39546.46
2154.234, 39558.40
2156.163, 39577.87
2158.091, 39606.11
2160.020, 39648.80
2161.948, 39719.97
2163.876, 39771.41
2165.805, 39767.94
2167.733, 39756.48
2169.662, 39761.55
2171.590, 39773.84
2173.519, 39788.19
2175.447, 39807.72
2177.376, 39833.78
2179.304, 39868.02
2181.233, 39918.56
2183.161, 39983.23
2185.090, 40011.54
2187.018, 39985.99
2188.947, 39987.74
2190.875, 40044.66
2192.803, 40083.35
2194.732, 40086.96
2196.660, 40073.67
2198.589, 40041.02
2200.517, 40014.52
2202.446, 40011.33
2204.374, 40023.20
2206.303, 40047.42
2208.231, 40073.10
2210.160, 40065.48
2212.088, 40104.22
2214.017, 40055.52
2215.945, 40146.68
2217.874, 40195.91
2219.802, 40187.42
2221.730, 40191.96
2223.659, 40222.63
2225.587, 40256.04
2227.516, 40296.29
2229.444, 40315.75
2231.373, 40268.68
2233.301, 40238.30
2235.230, 40317.98
2237.158, 40413.86
2239.087, 40406.79
2241.015, 40353.45
2242.944, 40365.37
2244.872, 40430.00
2246.801, 40480.24
2248.729, 40514.35
2250.657, 40526.99
2252.586, 40513.39
2254.514, 40512.62
2256.443, 40535.02
2258.371, 40554.50
2260.300, 40564.57
2262.228, 40574.23
2264.157, 40583.71
2266.085, 40596.92
2268.014, 40623.59
2269.942, 40647.98
2271.871, 40660.01
2273.799, 40665.24
2275.728, 40664.38
2277.656, 40664.62
2279.584, 40678.41
2281.513, 40703.23
2283.441, 40732.84
2285.370, 40764.77
2287.298, 40793.84
2289.227, 40812.54
2291.155, 40846.46
2293.084, 40930.94
2295.012, 40970.38
2296.941, 40934.20
2298.869, 40903.48
2300.798, 40899.31
2302.726, 40895.42
2304.655, 40874.95
2306.583, 40862.30
2308.511, 40882.48
2310.440, 40907.67
2312.368, 40904.19
2314.297, 40898.57
2316.225, 40941.42
2318.154, 40953.83
2320.082, 40977.12
2322.011, 41020.96
2323.939, 41034.54
2325.868, 41073.60
2327.796, 41116.24
2329.725, 41160.59
2331.653, 41201.40
2333.582, 41239.03
2335.510, 41267.64
2337.438, 41308.83
2339.367, 41342.88
2341.295, 41372.67
2343.224, 41386.59
2345.152, 41376.79
2347.081, 41361.82
2349.009, 41346.30
2350.938, 41339.98
2352.866, 41356.15
2354.795, 41379.28
2356.723, 41391.36
2358.652, 41400.68
2360.580, 41423.19
2362.509, 41450.59
2364.437, 41453.45
2366.365, 41440.08
2368.294, 41474.02
2370.222, 41558.48
2372.151, 41603.38
2374.079, 41604.31
2376.008, 41582.77
2377.936, 41529.31
2379.865, 41532.26
2381.793, 41635.13
2383.722, 41686.95
2385.650, 41611.98
2387.579, 41572.16
2389.507, 41635.04
2391.436, 41703.86
2393.364, 41729.49
2395.292, 41765.72
2397.221, 41865.94
2399.149, 41946.80
2401.078, 41929.73
2403.006, 41885.57
2404.935, 41875.69
2406.863, 41880.85
2408.792, 41882.09
2410.720, 41880.99
2412.649, 41870.46
2414.577, 41860.18
2416.506, 41891.66
2418.434, 41955.60
2420.363, 41962.39
2422.291, 41913.23
2424.219, 41865.72
2426.148, 41822.08
2428.076, 41818.07
2430.005, 41874.03
2431.933, 41892.56
2433.862, 41827.24
2435.790, 41811.72
2437.719, 41898.71
2439.647, 41958.22
2441.576, 41953.30
2443.504, 41956.32
2445.433, 41985.50
2447.361, 42016.28
2449.290, 42041.63
2451.218, 42057.66
2453.146, 42058.37
2455.075, 42055.66
2457.003, 42046.96
2458.932, 42051.00
2460.860, 42097.04
2462.789, 42151.45
2464.717, 42188.58
2466.646, 42205.74
2468.574, 42184.65
2470.503, 42150.16
2472.431, 42147.99
2474.360, 42165.62
2476.288, 42164.84
2478.217, 42183.75
2480.145, 42172.59
2482.073, 42217.13
2484.002, 42242.74
2485.930, 42250.68
2487.859, 42289.41
2489.787, 42358.41
2491.716, 42360.29
2493.644, 42267.10
2495.573, 42225.60
2497.501, 42277.32
2499.430, 42318.56
2501.358, 42352.48
2503.287, 42382.83
2505.215, 42408.89
2507.144, 42432.64
2509.072, 42448.91
2511.000, 42458.50
2512.929, 42434.74
2514.857, 42433.43
2516.786, 42488.27
2518.714, 42541.14
2520.643, 42599.91
2522.571, 42625.87
2524.500, 42577.64
2526.428, 42543.91
2528.357, 42584.47
2530.285, 42635.05
2532.214, 42650.06
2534.142, 42654.89
2536.071, 42671.95
2537.999, 42682.63
2539.927, 42664.41
2541.856, 42679.34
2543.784, 42657.20
2545.713, 42679.80
2547.641, 42676.07
2549.570, 42665.37
2551.498, 42677.70
2553.427, 42697.48
2555.355, 42690.05
2557.284, 42671.45
2559.212, 42698.72
2561.141, 42747.25
2563.069, 42737.21
2564.998, 42687.69
2566.926, 42649.85
2568.854, 42624.66
2570.783, 42612.47
2572.711, 42612.45
2574.640, 42640.44
2576.568, 42693.48
2578.497, 42740.49
2580.425, 42780.19
2582.354, 42795.40
2584.282, 42786.16
2586.211, 42769.54
2588.139, 42740.88
2590.068, 42746.71
2591.996, 42799.45
2593.925, 42828.59
2595.853, 42831.79
2597.781, 42815.45
2599.710, 42774.19
2601.638, 42755.16
2603.567, 42770.74
2605.495, 42773.10
2607.424, 42746.83
2609.352, 42729.45
2611.281, 42731.42
2613.209, 42722.05
2615.138, 42696.57
2617.066, 42694.15
2618.995, 42736.42
2620.923, 42774.17
2622.852, 42787.92
2624.780, 42805.93
2626.708, 42818.96
2628.637, 42845.90
2630.565, 42893.13
2632.494, 42935.56
2634.422, 42967.85
2636.351, 42995.96
2638.279, 43024.97
2640.208, 43049.72
2642.136, 43070.23
2644.065, 43080.80
2645.993, 43071.81
2647.922, 43062.02
2649.850, 43056.72
2651.779, 43050.80
2653.707, 43048.92
2655.635, 43040.63
2657.564, 43008.12
2659.492, 42999.41
2661.421, 43064.07
2663.349, 43094.15
2665.278, 43028.75
2667.206, 42964.52
2669.135, 42933.58
2671.063, 42927.16
2672.992, 42956.88
2674.920, 42984.08
2676.849, 42997.09
2678.777, 42993.22
2680.706, 42956.74
2682.634, 42930.25
2684.563, 42946.93
2686.491, 42965.67
2688.419, 42964.07
2690.348, 42971.55
2692.276, 43016.29
2694.205, 43047.15
2696.133, 43027.11
2698.062, 43008.25
2699.990, 43016.88
2701.919, 43026.02
2703.847, 43022.20
2705.776, 43021.31
2707.704, 43061.46
2709.633, 43067.14
2711.561, 42977.23
2713.490, 42909.99
2715.418, 42928.16
2717.346, 42968.93
2719.275, 43020.51
2721.203, 43051.72
2723.132, 43029.87
2725.060, 43011.39
2726.989, 43030.79
2728.917, 43036.07
2730.846, 43004.45
2732.774, 42966.31
2734.703, 42919.67
2736.631, 42902.84
2738.560, 42942.89
2740.488, 42982.28
2742.417, 43004.91
2744.345, 43006.09
2746.273, 42955.28
2748.202, 42921.82
2750.130, 42942.06
2752.059, 42954.25
2753.987, 42936.95
2755.916, 42935.70
2757.844, 42982.83
2759.773, 43008.31
2761.701, 42974.74
2763.630, 42945.74
2765.558, 42934.38
2767.487, 42923.87
2769.415, 42912.61
2771.344, 42893.66
2773.272, 42884.18
2775.200, 42874.70
2777.129, 42854.33
2779.057, 42855.68
2780.986, 42830.77
2782.914, 42810.37
2784.843, 42799.71
2786.771, 42805.90
2788.700, 42834.60
2790.628, 42863.91
2792.557, 42880.46
2794.485, 42913.63
2796.414, 42962.56
2798.342, 42983.91
2800.271, 42968.30
2802.199, 42946.02
2804.127, 42922.88
2806.056, 42887.65
2807.984, 42844.47
2809.913, 42805.36
2811.841, 42773.94
2813.770, 42735.46
2815.698, 42692.74
2817.627, 42686.26
2819.555, 42714.61
2821.484, 42717.22
2823.412, 42697.12
2825.341, 42677.07
2827.269, 42658.80
2829.198, 42646.57
2831.126, 42644.60
2833.054, 42688.28
2834.983, 42682.44
2836.911, 42752.31
2838.840, 42723.09
2840.768, 42755.07
2842.697, 42803.94
2844.625, 42792.36
2846.554, 42750.14
2848.482, 42715.21
2850.411, 42694.64
2852.339, 42710.86
2854.268, 42737.68
2856.196, 42758.15
2858.125, 42767.77
2860.053, 42736.95
2861.981, 42718.20
2863.910, 42740.32
2865.838, 42790.43
2867.767, 42882.74
2869.695, 42959.24
2871.624, 42980.77
2873.552, 42985.45
2875.481, 42994.09
2877.409, 42981.92
2879.338, 42931.77
2881.266, 42890.51
2883.195, 42884.77
2885.123, 42878.30
2887.052, 42865.14
2888.980, 42855.79
2890.908, 42850.91
2892.837, 42844.34
2894.765, 42835.49
2896.694, 42813.92
2898.622, 42816.39
2900.551, 42764.22
2902.479, 42799.61
2904.408, 42800.29
2906.336, 42762.77
2908.265, 42756.11
2910.193, 42779.08
2912.122, 42811.61
2914.050, 42846.30
2915.979, 42838.98
2917.907, 42805.85
2919.835, 42791.20
2921.764, 42786.98
2923.692, 42771.59
2925.621, 42754.34
2927.549, 42746.26
2929.478, 42747.55
2931.406, 42780.79
2933.335, 42795.77
2935.263, 42725.20
2937.192, 42646.02
2939.120, 42615.09
2941.049, 42597.52
2942.977, 42589.63
2944.906, 42571.15
2946.834, 42527.94
2948.762, 42476.47
2950.691, 42407.41
2952.619, 42353.31
2954.548, 42321.12
2956.476, 42301.40
2958.405, 42311.48
2960.333, 42303.27
2962.262, 42280.26
2964.190, 42237.27
2966.119, 42173.60
2968.047, 42176.16
2969.976, 42241.16
2971.904, 42250.96
2973.833, 42211.93
2975.761, 42186.90
2977.689, 42168.68
2979.618, 42138.77
2981.546, 42105.34
2983.475, 42082.69
2985.403, 42068.16
2987.332, 42058.76
2989.260, 42051.89
2991.189, 42043.15
2993.117, 42034.38
2995.046, 42015.89
2996.974, 42009.98
2998.903, 42029.22
3000.831, 42049.29
3002.760, 42073.99
3004.688, 42068.31
3006.616, 42018.10
3008.545, 41962.64
3010.473, 41909.27
3012.402, 41858.62
3014.330, 41805.10
3016.259, 41820.76
3018.187, 41911.87
3020.116, 41934.49
3022.044, 41900.26
3023.973, 41908.82
3025.901, 41939.55
3027.830, 41927.30
3029.758, 41890.95
3031.687, 41874.19
3033.615, 41854.48
3035.543, 41793.43
3037.472, 41735.23
3039.400, 41732.29
3041.329, 41736.09
3043.257, 41726.71
3045.186, 41713.47
3047.114, 41681.98
3049.043, 41684.72
3050.971, 41684.70
3052.900, 41695.68
3054.828, 41734.64
3056.757, 41735.18
3058.685, 41821.04
3060.614, 41834.61
3062.542, 41774.52
3064.470, 41724.35
3066.399, 41684.65
3068.327, 41641.36
3070.256, 41603.68
3072.184, 41591.77
3074.113, 41589.69
3076.041, 41566.84
3077.970, 41544.14
3079.898, 41531.63
3081.827, 41531.84
3083.755, 41555.93
3085.684, 41571.38
3087.612, 41568.52
3089.541, 41552.24
3091.469, 41540.24
3093.397, 41511.88
3095.326, 41478.09
3097.254, 41440.94
3099.183, 41379.39
3101.111, 41329.89
3103.040, 41295.96
3104.968, 41330.09
3106.897, 41268.88
3108.825, 41319.59
3110.754, 41207.30
3112.682, 41167.93
3114.611, 41151.54
3116.539, 41126.68
3118.468, 41086.38
3120.396, 41066.46
3122.324, 41045.80
3124.253, 41000.92
3126.181, 41014.45
3128.110, 40964.00
3130.038, 40945.83
3131.967, 40977.78
3133.895, 40974.21
3135.824, 40930.01
3137.752, 40971.13
3139.681, 40942.74
3141.609, 41020.70
3143.538, 40938.75
3145.466, 40952.61
3147.395, 40979.67
3149.323, 40928.83
3151.251, 40864.74
3153.180, 40828.20
3155.108, 40794.16
3157.037, 40731.25
3158.965, 40723.49
3160.894, 40799.84
3162.822, 40845.86
3164.751, 40840.45
3166.679, 40820.63
3168.608, 40789.08
3170.536, 40759.20
3172.465, 40745.66
3174.393, 40815.35
3176.322, 40900.78
3178.250, 40880.11
3180.178, 40833.96
3182.107, 40829.35
3184.035, 40826.96
3185.964, 40818.35
3187.892, 40783.85
3189.821, 40785.59
3191.749, 40792.94
3193.678, 40775.07
3195.606, 40830.01
3197.535, 40844.32
3199.463, 40867.32
3201.392, 40895.27
3203.320, 40912.97
3205.249, 40923.26
3207.177, 40947.53
3209.105, 40945.54
3211.034, 40853.22
3212.962, 40776.64
3214.891, 40786.74
3216.819, 40814.99
3218.748, 40852.84
3220.676, 40883.75
3222.605, 40894.08
3224.533, 40924.57
3226.462, 40927.52
3228.390, 40960.27
3230.319, 40917.32
3232.247, 40881.33
3234.176, 40839.78
3236.104, 40768.44
3238.032, 40704.86
3239.961, 40661.46
3241.889, 40666.15
3243.818, 40767.00
3245.746, 40839.02
3247.675, 40858.97
3249.603, 40834.89
3251.532, 40873.93
3253.460, 40874.38
3255.389, 40882.16
3257.317, 40905.66
3259.246, 40895.23
3261.174, 40923.48
3263.103, 40953.13
3265.031, 40941.46
3266.959, 40926.63
3268.888, 40923.81
3270.816, 40920.67
3272.745, 40916.96
3274.673, 40910.31
3276.602, 40903.63
3278.530, 40896.41
3280.459, 40889.35
3282.387, 40865.48
3284.316, 40849.54
3286.244, 40892.85
3288.173, 40946.37
3290.101, 40974.94
3292.030, 40981.66
3293.958, 40969.42
3295.886, 40942.35
3297.815, 40892.65
3299.743, 40859.02
3301.672, 40845.03
3303.600, 40892.69
3305.529, 40977.89
3307.457, 41015.84
3309.386, 41024.52
3311.314, 41023.37
3313.243, 41013.88
3315.171, 40987.45
3317.100, 40978.20
3319.028, 41019.30
3320.957, 41020.89
3322.885, 40965.84
3324.813, 40968.24
3326.742, 41026.06
3328.670, 41061.38
3330.599, 41077.42
3332.527, 41064.16
3334.456, 41060.77
3336.384, 41135.95
3338.313, 41190.66
3340.241, 41175.54
3342.170, 41154.79
3344.098, 41143.63
3346.027, 41144.30
3347.955, 41157.79
3349.884, 41165.99
3351.812, 41167.56
3353.740, 41152.28
3355.669, 41132.14
3357.597, 41105.49
3359.526, 41099.27
3361.454, 41148.30
3363.383, 41184.42
3365.311, 41195.12
3367.240, 41192.29
3369.168, 41175.88
3371.097, 41165.20
3373.025, 41160.45
3374.954, 41174.16
3376.882, 41184.13
3378.811, 41160.14
3380.739, 41133.11
3382.667, 41119.70
3384.596, 41116.62
3386.524, 41124.05
3388.453, 41144.09
3390.381, 41174.91
3392.310, 41206.40
3394.238, 41234.75
3396.167, 41252.81
3398.095, 41264.72
3400.024, 41278.02
3401.952, 41279.93
3403.881, 41294.18
3405.809, 41309.80
3407.738, 41304.20
3409.666, 41303.96
3411.594, 41312.51
3413.523, 41285.73
3415.451, 41261.31
3417.380, 41253.14
3419.308, 41261.96
3421.237, 41310.97
3423.165, 41319.38
3425.094, 41315.86
3427.022, 41316.70
3428.951, 41276.74
3430.879, 41278.36
3432.808, 41226.63
3434.736, 41199.84
3436.665, 41186.04
3438.593, 41164.18
3440.521, 41158.09
3442.450, 41151.77
3444.378, 41148.73
3446.307, 41159.13
3448.235, 41145.37
3450.164, 41168.82
3452.092, 41150.84
3454.021, 41117.72
3455.949, 41140.59
3457.878, 41171.67
3459.806, 41203.27
3461.735, 41182.64
3463.663, 41172.80
3465.592, 41044.77
3467.520, 41107.02
3469.448, 41109.16
3471.377, 41085.01
3473.305, 41162.12
3475.234, 41253.60
3477.162, 41277.58
3479.091, 41279.41
3481.019, 41279.00
3482.948, 41254.55
3484.876, 41199.11
3486.805, 41175.05
3488.733, 41175.96
3490.662, 41171.53
3492.590, 41169.08
3494.519, 41173.87
3496.447, 41185.23
3498.375, 41196.87
3500.304, 41221.63
3502.232, 41257.85
3504.161, 41284.31
3506.089, 41299.51
3508.018, 41328.55
3509.946, 41334.73
3511.875, 41247.22
3513.803, 41171.38
3515.732, 41178.05
3517.660, 41175.37
3519.589, 41152.62
3521.517, 41174.78
3523.446, 41228.53
3525.374, 41269.36
3527.302, 41290.40
3529.231, 41270.96
3531.159, 41257.57
3533.088, 41270.73
3535.016, 41313.35
3536.945, 41388.22
3538.873, 41442.93
3540.802, 41474.09
3542.730, 41445.46
3544.659, 41429.91
3546.587, 41545.82
3548.516, 41595.11
3550.444, 41491.17
3552.373, 41457.95
3554.301, 41530.06
3556.229, 41609.36
3558.158, 41689.99
3560.086, 41766.09
3562.015, 41818.03
3563.943, 41788.84
3565.872, 41803.99
3567.800, 41900.18
3569.729, 41970.46
3571.657, 42011.28
3573.586, 42092.66
3575.514, 42155.71
3577.443, 42062.16
3579.371, 42007.78
3581.300, 42116.09
3583.228, 42184.18
3585.156, 42154.41
3587.085, 42143.09
3589.013, 42129.94
3590.942, 42040.29
3592.870, 41940.99
3594.799, 41915.04
3596.727, 41885.03
3598.656, 41842.80
3600.584, 41718.99
3602.513, 41621.46
3604.441, 41411.00
3606.370, 41322.51
3608.298, 41130.35
3610.227, 40930.50
3612.155, 40804.84
3614.083, 40582.65
3616.012, 40207.91
3617.940, 39968.69
3619.869, 39828.93
3621.797, 39649.80
3623.726, 39468.83
3625.654, 39313.82
3627.583, 39177.58
3629.511, 39054.06
3631.440, 38951.80
3633.368, 38871.87
3635.297, 38830.99
3637.225, 38803.59
3639.154, 38758.02
3641.082, 38698.21
3643.010, 38660.18
3644.939, 38550.18
3646.867, 38544.71
3648.796, 38471.32
3650.724, 38371.38
3652.653, 38332.45
3654.581, 38313.37
3656.510, 38298.36
3658.438, 38262.78
3660.367, 38241.67
3662.295, 38176.26
3664.224, 38174.78
3666.152, 38141.48
3668.081, 38084.78
3670.009, 37998.77
3671.938, 37926.18
3673.866, 37873.31
3675.794, 37851.30
3677.723, 37845.75
3679.651, 37806.80
3681.580, 37748.91
3683.508, 37681.16
3685.437, 37621.10
3687.365, 37572.57
3689.294, 37551.12
3691.222, 37548.61
3693.151, 37519.27
3695.079, 37482.27
3697.008, 37471.69
3698.936, 37442.48
3700.865, 37358.71
3702.793, 37307.62
3704.721, 37285.22
3706.650, 37252.12
3708.578, 37210.52
3710.507, 37150.15
3712.435, 37114.15
3714.364, 37151.78
3716.292, 37121.05
3718.221, 37041.49
3720.149, 37104.62
3722.078, 37187.36
3724.006, 37112.03
3725.935, 37014.57
3727.863, 36939.18
3729.792, 36906.63
3731.720, 36858.39
3733.648, 36870.76
3735.577, 36830.99
3737.505, 36848.71
3739.434, 36871.99
3741.362, 36867.20
3743.291, 36896.02
3745.219, 36893.37
3747.148, 36925.86
3749.076, 36883.38
3751.005, 36857.98
3752.933, 36826.32
3754.862, 36769.24
3756.790, 36742.32
3758.719, 36738.23
3760.647, 36731.98
3762.575, 36724.79
3764.504, 36731.62
3766.432, 36703.71
3768.361, 36600.37
3770.289, 36584.49
3772.218, 36628.24
3774.146, 36659.98
3776.075, 36679.73
3778.003, 36695.74
3779.932, 36678.89
3781.860, 36615.19
3783.789, 36599.66
3785.717, 36609.09
3787.646, 36590.83
3789.574, 36577.68
3791.502, 36591.42
3793.431, 36575.46
3795.359, 36525.02
3797.288, 36564.01
3799.216, 36621.71
3801.145, 36594.21
3803.073, 36554.75
3805.002, 36527.10
3806.930, 36495.82
3808.859, 36462.54
3810.787, 36472.35
3812.716, 36478.86
3814.644, 36420.95
3816.573, 36399.10
3818.501, 36438.31
3820.429, 36431.22
3822.358, 36401.22
3824.286, 36422.13
3826.215, 36454.00
3828.143, 36483.39
3830.072, 36467.99
3832.000, 36406.87
3833.929, 36358.46
3835.857, 36328.64
3837.786, 36300.23
3839.714, 36288.10
3841.643, 36284.55
3843.571, 36272.92
3845.500, 36294.91
3847.428, 36270.43
3849.356, 36249.12
3851.285, 36267.88
3853.213, 36288.38
3855.142, 36302.25
3857.070, 36319.99
3858.999, 36339.35
3860.927, 36368.73
3862.856, 36372.36
3864.784, 36328.13
3866.713, 36288.52
3868.641, 36259.41
3870.570, 36261.83
3872.498, 36260.81
3874.427, 36209.09
3876.355, 36188.66
3878.283, 36219.15
3880.212, 36247.32
3882.140, 36252.93
3884.069, 36178.41
3885.997, 36113.76
3887.926, 36096.10
3889.854, 36084.53
3891.783, 36072.72
3893.711, 36043.55
3895.640, 36035.82
3897.568, 36099.63
3899.497, 36119.36
3901.425, 36086.01
3903.354, 36038.51
3905.282, 36008.92
3907.210, 36040.54
3909.139, 36050.63
3911.067, 36020.13
3912.996, 36003.42
3914.924, 35980.71
3916.853, 35935.14
3918.781, 35905.14
3920.710, 35906.96
3922.638, 35885.01
3924.567, 35843.98
3926.495, 35816.13
3928.424, 35807.49
3930.352, 35834.20
3932.281, 35833.41
3934.209, 35793.77
3936.137, 35761.51
3938.066, 35734.00
3939.994, 35709.46
3941.923, 35698.20
3943.851, 35677.21
3945.780, 35661.88
3947.708, 35659.73
3949.637, 35639.17
3951.565, 35625.98
3953.494, 35621.11
3955.422, 35615.71
3957.351, 35605.04
3959.279, 35560.57
3961.208, 35517.69
3963.136, 35458.82
3965.064, 35432.81
3966.993, 35408.40
3968.921, 35376.40
3970.850, 35382.41
3972.778, 35361.64
3974.707, 35348.90
3976.635, 35305.04
3978.564, 35286.83
3980.492, 35291.17
3982.421, 35258.71
3984.349, 35245.74
3986.278, 35283.60
3988.206, 35268.68
3990.135, 35203.39
3992.063, 35141.60
3993.991, 35116.27
3995.920, 35141.62
3997.848, 35148.60
3999.777, 35138.64
4001.705, 35138.03
4003.634, 35140.81
4005.562, 35129.67
4007.491, 35119.48
4009.419, 35112.32
4011.348, 35093.02
4013.276, 35080.79
4015.205, 35078.99
4017.133, 35081.04
4019.062, 35081.73
4020.990, 35057.01
4022.918, 35011.12
4024.847, 34962.01
4026.775, 34964.36
4028.704, 34975.68
4030.632, 34927.15
4032.561, 34899.40
4034.489, 34938.16
4036.418, 34930.37
4038.346, 34878.41
4040.275, 34852.37
4042.203, 34826.20
4044.132, 34784.07
4046.060, 34766.59
4047.989, 34777.15
4049.917, 34754.20
4051.845, 34721.89
4053.774, 34686.32
4055.702, 34666.41
4057.631, 34664.85
4059.559, 34665.67
4061.488, 34663.88
4063.416, 34648.75
4065.345, 34639.38
4067.273, 34634.91
4069.202, 34593.54
4071.130, 34540.96
4073.059, 34510.59
4074.987, 34500.02
4076.916, 34510.86
4078.844, 34468.16
4080.772, 34410.86
4082.701, 34394.82
4084.629, 34418.61
4086.558, 34391.46
4088.486, 34476.11
4090.415, 34393.48
4092.343, 34416.30
4094.272, 34423.79
4096.200, 34358.39
4098.129, 34325.99
4100.057, 34317.48
4101.986, 34317.02
4103.914, 34302.61
4105.843, 34251.04
4107.771, 34222.08
4109.700, 34217.27
4111.628, 34216.55
4113.557, 34200.36
4115.485, 34151.30
4117.414, 34115.61
4119.342, 34120.98
4121.271, 34139.02
4123.199, 34124.23
4125.127, 34075.70
4127.056, 34042.25
4128.984, 34046.21
4130.913, 34029.19
4132.841, 34013.73
4134.770, 34045.82
4136.698, 34024.88
4138.626, 33973.55
4140.555, 33981.43
4142.483, 33991.47
4144.412, 33939.56
4146.340, 33894.47
4148.269, 33854.77
4150.197, 33844.24
4152.126, 33860.23
4154.054, 33832.32
4155.983, 33797.03
4157.911, 33784.21
4159.840, 33752.61
4161.768, 33703.80
4163.697, 33625.68
4165.625, 33622.01
4167.554, 33583.48
4169.482, 33618.60
4171.411, 33559.52
4173.339, 33584.37
4175.268, 33591.78
4177.196, 33566.64
4179.125, 33529.88
4181.053, 33513.13
4182.981, 33533.44
4184.910, 33485.30
4186.838, 33393.33
4188.767, 33399.88
4190.695, 33398.57
4192.624, 33324.23
4194.552, 33317.55
4196.480, 33357.86
4198.409, 33386.17
4200.337, 33369.03
4202.266, 33279.76
4204.194, 33237.30
4206.123, 33233.88
4208.051, 33236.96
4209.980, 33217.95
4211.908, 33195.86
4213.837, 33130.62
4215.765, 33131.43
4217.694, 33084.73
4219.622, 33047.17
4221.551, 33067.66
4223.479, 33038.19
4225.408, 32972.55
4227.336, 32893.19
4229.265, 32900.24
4231.193, 33003.86
4233.122, 32979.87
4235.050, 32915.10
4236.979, 32903.11
4238.907, 32874.36
4240.835, 32830.76
4242.764, 32850.94
4244.692, 32871.49
4246.621, 32841.79
4248.549, 32801.19
4250.478, 32754.32
4252.406, 32697.15
4254.334, 32665.31
4256.263, 32684.03
4258.191, 32716.75
4260.120, 32735.38
4262.048, 32659.59
4263.977, 32602.83
4265.905, 32607.70
4267.834, 32625.63
4269.762, 32628.96
4271.691, 32573.13
4273.619, 32525.18
4275.548, 32504.32
4277.476, 32521.70
4279.405, 32544.07
4281.333, 32519.99
4283.262, 32528.60
4285.190, 32557.89
4287.119, 32513.43
4289.047, 32464.90
4290.976, 32467.22
4292.904, 32470.55
4294.833, 32461.27
4296.761, 32411.97
4298.689, 32334.01
4300.618, 32224.06
4302.546, 32179.43
4304.475, 32187.53
4306.403, 32259.89
4308.332, 32267.61
4310.260, 32190.30
4312.188, 32135.64
4314.117, 32101.46
4316.045, 32094.76
4317.974, 32096.95
4319.902, 32095.75
4321.831, 32083.90
4323.759, 31984.37
4325.688, 32038.06
4327.616, 31991.97
4329.545, 31919.01
4331.473, 31962.85
4333.402, 31971.89
4335.330, 31916.03
4337.259, 31907.35
4339.187, 31908.96
4341.116, 31889.55
4343.044, 31876.10
4344.973, 31870.14
4346.901, 31872.16
4348.830, 31860.73
4350.758, 31858.27
4352.687, 31822.35
4354.615, 31837.75
4356.543, 31825.53
4358.472, 31793.55
4360.400, 31746.34
4362.329, 31723.06
4364.257, 31718.87
4366.186, 31688.94
4368.114, 31674.21
4370.042, 31655.98
4371.971, 31632.57
4373.899, 31612.13
4375.828, 31584.33
4377.756, 31591.59
4379.685, 31593.22
4381.613, 31540.83
4383.542, 31527.50
4385.470, 31547.66
4387.399, 31555.61
4389.327, 31535.78
4391.256, 31530.44
4393.184, 31499.97
4395.113, 31477.11
4397.041, 31426.73
4398.970, 31374.86
4400.898, 31332.95
4402.827, 31324.53
4404.755, 31302.18
4406.684, 31287.06
4408.612, 31271.78
4410.541, 31259.15
4412.469, 31235.23
4414.397, 31202.94
4416.326, 31175.02
4418.254, 31160.83
4420.183, 31191.99
4422.111, 31142.14
4424.040, 31137.18
4425.968, 31144.47
4427.896, 31072.05
4429.825, 31054.95
4431.753, 31098.95
4433.682, 31077.43
4435.610, 31018.89
4437.539, 30928.49
4439.467, 30927.56
4441.396, 30957.49
4443.324, 30869.95
4445.253, 30875.14
4447.181, 30843.46
4449.110, 30817.43
4451.038, 30797.47
4452.967, 30795.41
4454.895, 30802.30
4456.824, 30800.22
4458.752, 30761.47
4460.681, 30730.36
4462.609, 30715.82
4464.538, 30721.44
4466.466, 30715.65
4468.395, 30683.09
4470.323, 30676.43
4472.251, 30654.42
4474.180, 30620.03
4476.108, 30613.25
4478.037, 30553.15
4479.965, 30526.67
4481.894, 30513.47
4483.822, 30515.18
4485.750, 30495.05
4487.679, 30463.01
4489.607, 30478.99
4491.536, 30428.41
4493.464, 30489.75
4495.393, 30468.17
4497.321, 30455.95
4499.250, 30473.17
4501.178, 30437.72
4503.107, 30411.48
4505.035, 30454.13
4506.964, 30443.18
4508.892, 30383.10
4510.821, 30375.44
4512.749, 30345.61
4514.678, 30286.41
4516.606, 30277.49
4518.535, 30230.59
4520.463, 30221.73
4522.392, 30203.22
4524.320, 30205.34
4526.249, 30176.75
4528.177, 30157.82
4530.105, 30145.17
4532.034, 30126.57
4533.962, 30121.24
4535.891, 30098.34
4537.819, 30101.34
4539.748, 30083.79
4541.676, 30049.42
4543.604, 30018.51
4545.533, 30002.29
4547.461, 30032.42
4549.390, 30007.48
4551.318, 29934.15
4553.247, 29874.13
4555.175, 29827.77
4557.104, 29796.68
4559.032, 29780.83
4560.961, 29798.42
4562.889, 29787.64
4564.818, 29870.10
4566.746, 29796.24
4568.675, 29821.69
4570.603, 29814.57
4572.532, 29774.13
4574.460, 29776.53
4576.389, 29776.38
4578.317, 29758.19
4580.246, 29645.97
4582.174, 29560.59
4584.103, 29599.13
4586.031, 29587.28
4587.959, 29546.24
4589.888, 29494.80
4591.816, 29478.31
4593.745, 29483.51
4595.673, 29470.74
4597.602, 29441.47
4599.530, 29404.68
4601.458, 29399.05
4603.387, 29418.39
4605.315, 29465.54
4607.244, 29441.61
4609.172, 29398.33
4611.101, 29387.40
4613.029, 29343.87
4614.958, 29292.86
4616.886, 29298.96
4618.815, 29260.39
4620.743, 29194.06
4622.672, 29226.98
4624.600, 29210.19
4626.529, 29104.46
4628.457, 29097.57
4630.386, 29114.70
4632.314, 29115.01
4634.243, 29122.13
4636.171, 29113.97
4638.100, 29060.93
4640.028, 29060.33
4641.957, 29071.37
4643.885, 28987.52
4645.813, 28963.87
4647.742, 28999.65
4649.670, 29027.47
4651.599, 29005.50
4653.527, 28934.51
4655.456, 28924.15
4657.384, 28897.75
4659.313, 28820.25
4661.241, 28832.44
4663.169, 28843.84
4665.098, 28760.41
4667.026, 28728.78
4668.955, 28711.07
4670.883, 28644.48
4672.812, 28611.05
4674.740, 28603.40
4676.669, 28593.22
4678.597, 28567.83
4680.526, 28530.61
4682.454, 28489.40
4684.383, 28483.18
4686.311, 28517.70
4688.240, 28566.32
4690.168, 28563.09
4692.097, 28484.14
4694.025, 28417.12
4695.954, 28383.90
4697.882, 28415.56
4699.811, 28409.74
4701.739, 28387.27
4703.667, 28370.11
4705.596, 28370.18
4707.524, 28371.48
4709.453, 28338.20
4711.381, 28324.71
4713.310, 28330.32
4715.238, 28335.26
4717.167, 28333.41
4719.095, 28317.08
4721.023, 28285.63
4722.952, 28257.73
4724.880, 28194.27
4726.809, 28162.04
4728.737, 28104.91
4730.666, 28101.72
4732.594, 28043.30
4734.523, 28093.90
4736.451, 28125.72
4738.380, 28100.32
4740.308, 28054.18
4742.237, 28022.52
4744.165, 27982.30
4746.094, 27942.68
4748.022, 27916.68
4749.951, 27903.63
4751.879, 27896.43
4753.808, 27898.64
4755.736, 27826.63
4757.665, 27835.90
4759.593, 27773.24
4761.521, 27798.30
4763.450, 27785.09
4765.378, 27746.41
4767.307, 27715.82
4769.235, 27692.54
4771.164, 27617.64
4773.092, 27565.46
4775.021, 27553.89
4776.949, 27536.48
4778.877, 27524.31
4780.806, 27521.50
4782.734, 27539.71
4784.663, 27561.91
4786.591, 27580.00
4788.520, 27531.85
4790.448, 27479.07
4792.377, 27457.46
4794.305, 27428.05
4796.234, 27403.04
4798.162, 27391.77
4800.091, 27391.97
4802.019, 27389.62
4803.948, 27373.07
4805.876, 27345.83
4807.805, 27316.71
4809.733, 27295.62
4811.662, 27261.86
4813.590, 27244.86
4815.519, 27232.92
4817.447, 27209.56
4819.375, 27216.55
4821.304, 27178.11
4823.232, 27163.01
4825.161, 27151.59
4827.089, 27105.34
4829.018, 27083.21
4830.946, 27090.09
4832.875, 27072.00
4834.803, 27123.67
4836.731, 27062.35
4838.660, 27091.85
4840.588, 27063.56
4842.517, 26987.41
4844.445, 26911.60
4846.374, 26905.62
4848.302, 26933.83
4850.231, 26872.25
4852.159, 26868.04
4854.088, 26905.95
4856.016, 26892.87
4857.945, 26833.03
4859.873, 26755.80
4861.802, 26742.76
4863.730, 26728.27
4865.659, 26708.81
4867.587, 26683.08
4869.516, 26666.63
4871.444, 26628.50
4873.373, 26621.87
4875.301, 26605.79
4877.229, 26573.71
4879.158, 26543.59
4881.086, 26509.85
4883.015, 26474.20
4884.943, 26451.05
4886.872, 26406.40
4888.800, 26367.21
4890.729, 26466.07
4892.657, 26482.63
4894.585, 26423.15
4896.514, 26395.30
4898.442, 26359.13
4900.371, 26324.18
4902.299, 26355.46
4904.228, 26311.60
4906.156, 26224.73
4908.085, 26212.20
4910.013, 26245.54
4911.942, 26276.06
4913.870, 26189.43
4915.799, 26188.44
4917.727, 26220.10
4919.656, 26104.22
4921.584, 26089.71
4923.513, 26134.62
4925.441, 26131.39
4927.370, 26079.57
4929.298, 26021.94
4931.227, 26024.16
4933.155, 25981.48
4935.083, 25957.31
4937.012, 25946.30
4938.940, 25908.58
4940.869, 25902.26
4942.797, 25878.55
4944.726, 25870.87
4946.654, 25855.46
4948.583, 25802.05
4950.511, 25787.88
4952.439, 25770.78
4954.368, 25716.76
4956.296, 25694.23
4958.225, 25696.17
4960.153, 25722.15
4962.082, 25676.79
4964.010, 25626.04
4965.939, 25600.66
4967.867, 25549.99
4969.796, 25524.92
4971.724, 25548.98
4973.653, 25529.46
4975.581, 25497.82
4977.510, 25466.21
4979.438, 25446.62
4981.367, 25406.71
4983.295, 25353.97
4985.224, 25380.47
4987.152, 25368.49
4989.081, 25314.02
4991.009, 25276.47
4992.938, 25250.73
4994.866, 25234.42
4996.794, 25225.90
4998.723, 25222.38
5000.651, 25211.26
5002.580, 25175.31
5004.508, 25139.52
5006.437, 25108.94
5008.365, 25085.30
5010.293, 25063.21
5012.222, 25035.77
5014.150, 24992.34
5016.079, 24991.83
5018.007, 25017.22
5019.936, 25051.91
5021.864, 24982.05
5023.793, 24931.97
5025.721, 24949.28
5027.650, 24922.67
5029.578, 24913.97
5031.507, 24923.91
5033.435, 24869.36
5035.364, 24809.24
5037.292, 24771.08
5039.221, 24811.06
5041.149, 24801.43
5043.078, 24758.78
5045.006, 24732.70
5046.935, 24733.62
5048.863, 24720.04
5050.792, 24697.60
5052.720, 24676.05
5054.648, 24646.46
5056.577, 24611.23
5058.505, 24568.19
5060.434, 24527.21
5062.362, 24493.58
5064.291, 24457.39
5066.219, 24421.91
5068.147, 24397.32
5070.076, 24362.01
5072.004, 24340.86
5073.933, 24330.20
5075.861, 24329.40
5077.790, 24331.59
5079.718, 24315.23
5081.647, 24239.96
5083.575, 24181.41
5085.504, 24160.92
5087.432, 24191.17
5089.361, 24191.67
5091.289, 24165.02
5093.218, 24121.32
5095.146, 24112.78
5097.075, 24098.57
5099.003, 24070.41
5100.932, 24048.26
5102.860, 24036.44
5104.789, 24025.72
5106.717, 24001.31
5108.646, 23947.51
5110.574, 23892.69
5112.502, 23862.78
5114.431, 23876.14
5116.359, 23891.82
5118.288, 23884.50
5120.216, 23858.23
5122.145, 23831.07
5124.073, 23813.32
5126.001, 23802.86
5127.930, 23811.61
5129.858, 23792.65
5131.787, 23798.16
5133.715, 23794.19
5135.644, 23792.09
5137.572, 23787.24
5139.501, 23772.32
5141.429, 23769.35
5143.358, 23730.63
5145.286, 23712.54
5147.215, 23674.76
5149.143, 23646.83
5151.072, 23607.88
5153.000, 23596.22
5154.929, 23566.97
5156.857, 23560.02
5158.786, 23537.28
5160.714, 23541.85
5162.643, 23498.23
5164.571, 23504.15
5166.500, 23486.75
5168.428, 23422.12
5170.356, 23441.39
5172.285, 23426.34
5174.213, 23380.21
5176.142, 23396.13
5178.070, 23387.07
5179.999, 23355.92
5181.927, 23316.50
5183.855, 23311.04
5185.784, 23284.56
5187.712, 23206.76
5189.641, 23183.92
5191.569, 23185.39
5193.498, 23193.01
5195.426, 23179.50
5197.355, 23172.16
5199.283, 23171.04
5201.212, 23136.57
5203.140, 23126.82
5205.069, 23068.15
5206.997, 23031.89
5208.926, 22994.59
5210.854, 22963.00
5212.783, 22884.84
5214.711, 22914.53
5216.640, 22900.38
5218.568, 22875.60
5220.497, 22911.80
5222.425, 22870.70
5224.354, 22815.99
5226.282, 22779.22
5228.210, 22712.43
5230.139, 22722.05
5232.067, 22767.59
5233.996, 22689.41
5235.924, 22653.54
5237.853, 22627.50
5239.781, 22566.25
5241.709, 22555.35
5243.638, 22551.40
5245.566, 22532.96
5247.495, 22474.79
5249.423, 22458.62
5251.352, 22474.24
5253.280, 22503.20
5255.209, 22441.95
5257.137, 22354.00
5259.066, 22287.77
5260.994, 22288.25
5262.923, 22303.99
5264.851, 22314.65
5266.780, 22303.55
5268.708, 22302.35
5270.637, 22294.60
5272.565, 22265.51
5274.494, 22231.66
5276.422, 22185.00
5278.351, 22129.25
5280.279, 22074.38
5282.208, 22043.11
5284.136, 22002.00
5286.064, 21990.31
5287.993, 21965.01
5289.921, 21958.25
5291.850, 21992.40
5293.778, 21967.76
5295.707, 21945.08
5297.635, 21920.65
5299.563, 21864.12
5301.492, 21872.10
5303.420, 21859.71
5305.349, 21780.52
5307.277, 21744.73
5309.206, 21732.86
5311.134, 21721.03
5313.063, 21704.87
5314.991, 21675.95
5316.920, 21690.27
5318.848, 21681.49
5320.777, 21680.18
5322.705, 21618.79
5324.634, 21615.08
5326.562, 21563.01
5328.491, 21552.33
5330.419, 21505.51
5332.348, 21479.68
5334.276, 21427.54
5336.205, 21419.57
5338.133, 21398.50
5340.062, 21357.23
5341.990, 21315.14
5343.918, 21284.90
5345.847, 21260.59
5347.775, 21248.53
5349.704, 21230.94
5351.632, 21219.06
5353.561, 21218.09
5355.489, 21164.19
5357.417, 21097.24
5359.346, 21047.54
5361.274, 21058.93
5363.203, 21029.49
5365.131, 20979.53
5367.060, 20975.18
5368.988, 20950.89
5370.917, 20931.02
5372.845, 20921.86
5374.774, 20881.41
5376.702, 20822.71
5378.631, 20766.68
5380.559, 20733.83
5382.488, 20736.09
5384.416, 20710.55
5386.345, 20657.35
5388.273, 20664.10
5390.202, 20625.22
5392.130, 20579.97
5394.059, 20573.73
5395.987, 20593.85
5397.916, 20542.08
5399.844, 20455.09
5401.772, 20494.01
5403.701, 20448.59
5405.629, 20407.53
5407.558, 20420.27
5409.486, 20394.17
5411.415, 20343.10
5413.343, 20299.52
5415.271, 20307.44
5417.200, 20267.58
5419.128, 20222.67
5421.057, 20196.65
5422.985, 20202.68
5424.914, 20211.87
5426.842, 20193.21
5428.771, 20128.22
5430.699, 20110.42
5432.628, 20061.04
5434.556, 20012.91
5436.485, 19982.51
5438.413, 19915.03
5440.342, 19900.04
5442.270, 19947.33
5444.199, 19924.70
5446.127, 19874.41
5448.056, 19821.77
5449.984, 19782.96
5451.913, 19773.18
5453.841, 19764.17
5455.770, 19737.43
5457.698, 19668.22
5459.626, 19647.34
5461.555, 19611.99
5463.483, 19553.80
5465.412, 19561.93
5467.340, 19525.88
5469.269, 19508.63
5471.197, 19491.47
5473.125, 19474.71
5475.054, 19453.65
5476.982, 19426.41
5478.911, 19414.56
5480.839, 19389.80
5482.768, 19346.73
5484.696, 19302.25
5486.625, 19315.33
5488.553, 19297.60
5490.482, 19257.47
5492.410, 19216.62
5494.339, 19247.10
5496.267, 19174.65
5498.196, 19104.68
5500.124, 19150.20
5502.053, 19122.35
5503.981, 19080.29
5505.910, 19037.49
5507.838, 19014.13
5509.767, 18969.86
5511.695, 18963.58
5513.624, 18945.13
5515.552, 18923.58
5517.480, 18887.30
5519.409, 18866.85
5521.337, 18831.35
5523.266, 18792.24
5525.194, 18775.11
5527.123, 18744.74
5529.051, 18728.17
5530.979, 18694.84
5532.908, 18660.45
5534.836, 18623.18
5536.765, 18596.35
5538.693, 18525.69
5540.622, 18462.21
5542.550, 18422.17
5544.479, 18407.19
5546.407, 18412.25
5548.336, 18399.63
5550.264, 18364.24
5552.193, 18321.13
5554.121, 18328.31
5556.050, 18324.67
5557.978, 18282.43
5559.907, 18224.39
5561.835, 18159.59
5563.764, 18137.52
5565.692, 18172.85
5567.621, 18182.45
5569.549, 18142.38
5571.478, 18099.70
5573.406, 18091.36
5575.334, 18087.04
5577.263, 18022.96
5579.191, 17956.65
5581.120, 17963.77
5583.048, 17936.63
5584.977, 17882.15
5586.905, 17844.18
5588.833, 17870.12
5590.762, 17815.94
5592.690, 17806.77
5594.619, 17814.38
5596.547, 17741.89
5598.476, 17701.29
5600.404, 17694.21
5602.333, 17697.79
5604.261, 17686.73
5606.190, 17651.78
5608.118, 17542.63
5610.047, 17576.42
5611.975, 17476.87
5613.904, 17451.43
5615.832, 17455.51
5617.761, 17460.18
5619.689, 17465.88
5621.618, 17412.22
5623.546, 17348.17
5625.475, 17298.71
5627.403, 17261.24
5629.332, 17222.71
5631.260, 17199.54
5633.188, 17189.71
5635.117, 17166.84
5637.045, 17143.15
5638.974, 17098.10
5640.902, 17053.97
5642.831, 17101.10
5644.759, 17098.86
5646.688, 17046.38
5648.616, 16978.50
5650.544, 16963.47
5652.473, 16972.64
5654.401, 16953.89
5656.330, 16901.07
5658.258, 16859.36
5660.187, 16800.44
5662.115, 16763.93
5664.044, 16757.21
5665.972, 16760.36
5667.901, 16738.87
5669.829, 16687.99
5671.758, 16632.91
5673.686, 16624.79
5675.615, 16654.33
5677.543, 16627.61
5679.472, 16556.10
5681.400, 16525.13
5683.329, 16464.74
5685.257, 16446.81
5687.186, 16455.82
5689.114, 16416.39
5691.042, 16414.06
5692.971, 16373.26
5694.899, 16320.47
5696.828, 16334.13
5698.756, 16274.93
5700.685, 16223.90
5702.613, 16190.55
5704.542, 16159.73
5706.470, 16123.13
5708.398, 16106.39
5710.327, 16077.95
5712.255, 16017.27
5714.184, 16043.52
5716.112, 16039.21
5718.041, 15983.88
5719.969, 15981.46
5721.898, 15950.11
5723.826, 15921.43
5725.755, 15873.43
5727.683, 15847.22
5729.612, 15794.42
5731.540, 15783.27
5733.469, 15785.33
5735.397, 15773.65
5737.326, 15725.50
5739.254, 15674.96
5741.183, 15670.32
5743.111, 15661.12
5745.040, 15552.24
5746.968, 15539.36
5748.896, 15530.33
5750.825, 15512.37
5752.753, 15501.81
5754.682, 15451.81
5756.610, 15374.75
5758.539, 15335.60
5760.467, 15362.82
5762.396, 15285.66
5764.324, 15286.18
5766.252, 15285.88
5768.181, 15245.35
5770.109, 15227.36
5772.038, 15228.84
5773.966, 15224.64
5775.895, 15207.69
5777.823, 15182.72
5779.752, 15158.66
5781.680, 15114.05
5783.609, 15068.25
5785.537, 15042.11
5787.466, 14982.03
5789.394, 14935.75
5791.323, 14912.19
5793.251, 14905.29
5795.180, 14893.57
5797.108, 14866.78
5799.037, 14829.46
5800.965, 14784.54
5802.894, 14718.10
5804.822, 14755.90
5806.750, 14748.52
5808.679, 14698.62
5810.607, 14666.95
5812.536, 14652.66
5814.464, 14639.62
5816.393, 14601.96
5818.321, 14544.13
5820.250, 14540.53
5822.178, 14572.85
5824.106, 14530.40
5826.035, 14449.97
5827.963, 14468.06
5829.892, 14381.10
5831.820, 14349.03
5833.749, 14339.77
5835.677, 14292.47
5837.606, 14298.76
5839.534, 14296.06
5841.463, 14266.73
5843.391, 14223.87
5845.320, 14222.31
5847.248, 14184.36
5849.177, 14131.98
5851.105, 14098.52
5853.034, 14110.69
5854.962, 14052.73
5856.891, 14067.73
5858.819, 14062.75
5860.748, 14001.64
5862.676, 14003.33
5864.604, 13966.15
5866.533, 13914.88
5868.461, 13890.74
5870.390, 13854.32
5872.318, 13878.68
5874.247, 13807.82
5876.175, 13760.22
5878.104, 13760.83
5880.032, 13793.60
5881.960, 13754.30
5883.889, 13731.51
5885.817, 13706.54
5887.746, 13629.59
5889.674, 13663.35
5891.603, 13670.05
5893.531, 13624.30
5895.460, 13564.19
5897.388, 13612.05
5899.317, 13582.10
5901.245, 13577.44
5903.174, 13565.11
5905.102, 13486.54
5907.031, 13472.01
5908.959, 13390.55
5910.888, 13345.59
5912.816, 13358.63
5914.745, 13359.06
5916.673, 13388.71
5918.602, 13333.57
5920.530, 13263.71
5922.458, 13245.88
5924.387, 13232.43
5926.315, 13182.58
5928.244, 13136.64
5930.172, 13122.89
5932.101, 13143.82
5934.029, 13102.85
5935.958, 13103.04
5937.886, 13064.73
5939.814, 13043.62
5941.743, 13022.06
5943.671, 12988.19
5945.600, 12967.62
5947.528, 12925.74
5949.457, 12891.53
5951.385, 12863.75
5953.314, 12853.23
5955.242, 12863.07
5957.171, 12832.43
5959.099, 12806.11
5961.028, 12779.43
5962.956, 12720.55
5964.885, 12699.98
5966.813, 12642.95
5968.742, 12594.55
5970.670, 12618.48
5972.599, 12598.43
5974.527, 12557.90
5976.456, 12534.29
5978.384, 12555.85
5980.313, 12554.98
5982.241, 12499.08
5984.169, 12452.73
5986.098, 12443.76
5988.026, 12379.82
5989.955, 12358.15
5991.883, 12328.73
5993.812, 12292.40
5995.740, 12264.65
5997.668, 12236.07
5999.597, 12206.27
6001.525, 12232.12
6003.454, 12244.15
6005.382, 12166.00
6007.311, 12128.37
6009.239, 12104.36
6011.168, 12069.23
6013.096, 12035.25
6015.025, 12023.73
6016.953, 12004.49
6018.882, 11978.12
6020.810, 11968.32
6022.739, 11961.48
6024.667, 11930.41
6026.596, 11909.51
6028.524, 11893.90
6030.453, 11847.75
6032.381, 11823.79
6034.310, 11792.51
6036.238, 11768.79
6038.167, 11712.87
6040.095, 11712.50
6042.023, 11747.28
6043.952, 11717.92
6045.880, 11682.87
6047.809, 11628.01
6049.737, 11589.99
6051.666, 11579.59
6053.594, 11579.28
6055.522, 11569.68
6057.451, 11525.49
6059.379, 11488.07
6061.308, 11469.00
6063.236, 11449.75
6065.165, 11398.75
6067.093, 11414.10
6069.022, 11398.11
6070.950, 11334.87
6072.879, 11276.56
6074.807, 11251.58
6076.736, 11211.30
6078.664, 11206.31
6080.593, 11218.27
6082.521, 11199.52
6084.450, 11171.06
6086.378, 11142.09
6088.307, 11118.86
6090.235, 11095.93
6092.164, 11067.88
6094.092, 11053.67
6096.021, 11031.34
6097.949, 11006.04
6099.877, 10980.89
6101.806, 10956.63
6103.734, 10931.32
6105.663, 10970.02
6107.591, 10965.59
6109.520, 10902.91
6111.448, 10829.66
6113.376, 10846.64
6115.305, 10787.83
6117.233, 10768.21
6119.162, 10740.86
6121.090, 10695.49
6123.019, 10678.52
6124.947, 10664.93
6126.876, 10646.53
6128.804, 10585.74
6130.733, 10521.90
6132.661, 10509.60
6134.590, 10510.63
6136.518, 10483.64
6138.447, 10518.76
6140.375, 10484.08
6142.304, 10485.20
6144.232, 10515.89
6146.161, 10423.80
6148.089, 10357.24
6150.018, 10340.41
6151.946, 10349.63
6153.875, 10357.22
6155.803, 10316.88
6157.731, 10264.58
6159.660, 10276.01
6161.588, 10267.93
6163.517, 10167.65
6165.445, 10168.18
6167.374, 10164.00
6169.302, 10140.87
6171.230, 10112.08
6173.159, 10095.41
6175.087, 10074.06
6177.016, 10064.97
6178.944, 10037.55
6180.873, 10023.26
6182.801, 10003.36
6184.730, 9966.238
6186.658, 9963.909
6188.587, 9941.343
6190.515, 9937.126
6192.444, 9893.975
6194.372, 9856.018
6196.301, 9837.072
6198.229, 9811.625
6200.158, 9812.244
6202.086, 9800.948
6204.015, 9780.827
6205.943, 9765.722
6207.872, 9724.102
6209.800, 9696.882
6211.729, 9666.692
6213.657, 9649.920
6215.585, 9648.756
6217.514, 9644.216
6219.442, 9596.586
6221.371, 9578.603
6223.299, 9543.454
6225.228, 9510.720
6227.156, 9505.068
6229.084, 9513.438
6231.013, 9483.462
6232.941, 9459.208
6234.870, 9457.686
6236.798, 9437.817
6238.727, 9379.501
6240.655, 9355.396
6242.584, 9335.178
6244.512, 9324.601
6246.441, 9284.537
6248.369, 9234.501
6250.298, 9214.718
6252.226, 9177.936
6254.155, 9161.771
6256.083, 9217.404
6258.012, 9155.211
6259.940, 9157.229
6261.869, 9192.080
6263.797, 9079.299
6265.726, 9030.572
6267.654, 9022.771
6269.583, 9008.474
6271.511, 8977.209
6273.439, 8953.499
6275.368, 8933.244
6277.296, 8938.850
6279.225, 8903.530
6281.153, 8904.025
6283.082, 8920.432
6285.010, 8912.453
6286.938, 8852.561
6288.867, 8814.584
6290.795, 8821.104
6292.724, 8822.943
6294.652, 8798.312
6296.581, 8782.533
6298.509, 8765.861
6300.438, 8754.664
6302.366, 8730.170
6304.295, 8705.524
6306.223, 8701.785
6308.152, 8641.912
6310.080, 8631.479
6312.009, 8580.980
6313.937, 8575.477
6315.866, 8576.149
6317.794, 8540.301
6319.723, 8537.272
6321.651, 8493.617
6323.580, 8501.411
6325.508, 8494.338
6327.437, 8464.301
6329.365, 8437.252
6331.293, 8438.989
6333.222, 8413.459
6335.150, 8353.237
6337.079, 8330.365
6339.007, 8330.760
6340.936, 8320.953
6342.864, 8292.830
6344.792, 8282.275
6346.721, 8263.606
6348.649, 8234.571
6350.578, 8216.229
6352.506, 8187.913
6354.435, 8141.081
6356.363, 8116.449
6358.292, 8113.854
6360.220, 8115.155
6362.149, 8089.501
6364.077, 8071.545
6366.006, 8060.689
6367.934, 8019.232
6369.863, 8028.974
6371.791, 8028.327
6373.720, 7976.288
6375.648, 7931.470
6377.577, 7910.183
6379.505, 7899.670
6381.434, 7869.518
6383.362, 7829.425
6385.291, 7831.504
6387.219, 7816.065
6389.147, 7799.249
6391.076, 7803.647
6393.004, 7791.896
6394.933, 7762.388
6396.861, 7730.642
6398.790, 7723.120
6400.718, 7725.009
6402.646, 7698.989
6404.575, 7696.269
6406.503, 7672.862
6408.432, 7670.314
6410.360, 7626.481
6412.289, 7600.036
6414.217, 7579.029
6416.146, 7548.962
6418.074, 7531.744
6420.003, 7530.998
6421.931, 7522.402
6423.860, 7506.755
6425.788, 7470.957
6427.717, 7480.124
6429.645, 7458.712
6431.574, 7451.819
6433.502, 7439.505
6435.431, 7388.868
6437.359, 7394.269
6439.288, 7358.677
6441.216, 7305.970
6443.145, 7280.815
6445.073, 7296.609
6447.001, 7284.349
6448.930, 7273.091
6450.858, 7250.127
6452.787, 7242.253
6454.715, 7222.931
6456.644, 7196.114
6458.572, 7194.628
6460.500, 7199.624
6462.429, 7175.562
6464.357, 7171.136
6466.286, 7145.791
6468.214, 7106.296
6470.143, 7077.909
6472.071, 7063.707
6474.000, 7048.870
6475.928, 7021.103
6477.857, 7028.229
6479.785, 7028.222
6481.714, 7003.446
6483.642, 6989.419
6485.571, 6978.890
6487.499, 6954.710
6489.428, 6948.358
6491.356, 6917.772
6493.285, 6891.333
6495.213, 6879.106
6497.142, 6863.128
6499.070, 6837.167
6500.999, 6825.812
6502.927, 6802.668
6504.855, 6800.005
6506.784, 6768.060
6508.712, 6765.803
6510.641, 6764.634
6512.569, 6744.454
6514.498, 6731.665
6516.426, 6724.609
6518.354, 6705.080
6520.283, 6700.258
6522.211, 6676.975
6524.140, 6649.969
6526.068, 6642.423
6527.997, 6601.466
6529.925, 6608.323
6531.854, 6575.872
6533.782, 6544.259
6535.711, 6506.878
6537.639, 6502.259
6539.568, 6510.724
6541.496, 6495.140
6543.425, 6483.212
6545.353, 6486.480
6547.282, 6459.933
6549.210, 6446.641
6551.139, 6449.072
6553.067, 6406.617
6554.996, 6383.101
6556.924, 6368.652
6558.853, 6361.411
6560.781, 6377.919
6562.709, 6358.878
6564.638, 6377.332
6566.566, 6331.530
6568.495, 6290.713
6570.423, 6306.746
6572.352, 6303.197
6574.280, 6262.408
6576.208, 6274.055
6578.137, 6209.486
6580.065, 6231.755
6581.994, 6227.083
6583.922, 6197.069
6585.851, 6194.388
6587.779, 6190.900
6589.708, 6143.375
6591.636, 6142.771
6593.565, 6101.234
6595.493, 6108.563
6597.422, 6080.977
6599.350, 6070.781
6601.279, 6062.646
6603.207, 6054.148
6605.136, 6037.694
6607.064, 6050.622
6608.993, 6033.294
6610.921, 6030.038
6612.850, 5999.426
6614.778, 5950.572
6616.707, 5920.643
6618.635, 5925.157
6620.563, 5949.041
6622.492, 5912.056
6624.420, 5913.436
6626.349, 5895.981
6628.277, 5892.824
6630.206, 5900.506
##END=



