##NAMES=Ferrostrunzite
##RRUFFID=R100079
##IDEAL CHEMISTRY=Fe^2+^Fe^3+^_2_(PO_4_)_2_(OH)_2_·6H_2_O
##LOCALITY=Hornerstown, Monmouth County, New Jersey, USA
##OWNER=RRUFF
##SOURCE=Jeff Weissman
##DESCRIPTION=Radial sprays of colorless acicular crystals
##STATUS=The identification of this mineral has been confirmed only by single crystal X-ray diffraction
##URL=https://www.rruff.net/odr/rruff_sample/R100079
##DIFFRACTION SAMPLE DESCRIPTION=Single crystal, powder profile is calculated
##CELL PARAMETERS=a: 10.051 b: 9.816 c: 7.31 alpha: 91.03 beta: 96.68 gamma: 115.7 volume: 643.6 crystal system: triclinic
##FILETYPE=Raman Processed
##RAMAN WAVELENGTH=532

182.8647, 861.2094
184.7932, 859.8713
186.7217, 860.0964
188.6501, 861.8066
190.5786, 864.7556
192.5071, 869.0687
194.4355, 875.6532
196.3640, 882.7961
198.2925, 888.5199
200.2209, 893.3488
202.1494, 895.2292
204.0779, 893.2007
206.0063, 886.0958
207.9348, 879.5729
209.8633, 873.5196
211.7918, 868.2917
213.7202, 864.1039
215.6487, 860.6979
217.5772, 858.7408
219.5056, 858.5189
221.4341, 860.2225
223.3626, 864.2372
225.2910, 873.2084
227.2195, 883.2914
229.1480, 890.6594
231.0764, 891.1226
233.0049, 892.9933
234.9334, 898.0881
236.8618, 905.6321
238.7903, 912.7845
240.7188, 918.5579
242.6472, 924.2964
244.5757, 931.5325
246.5042, 940.7644
248.4326, 950.6140
250.3611, 961.8774
252.2896, 974.4028
254.2180, 981.0668
256.1465, 979.0780
258.0750, 974.3154
260.0034, 970.1647
261.9319, 966.2953
263.8604, 963.8469
265.7888, 964.3856
267.7173, 967.3970
269.6458, 969.4989
271.5742, 970.3885
273.5027, 970.0880
275.4312, 968.8905
277.3596, 967.0631
279.2881, 963.7614
281.2166, 957.8120
283.1450, 949.4792
285.0735, 940.3171
287.0020, 930.9431
288.9304, 922.1027
290.8589, 913.3069
292.7874, 903.7942
294.7158, 894.4816
296.6443, 887.1138
298.5728, 881.2235
300.5012, 875.7087
302.4297, 869.6897
304.3582, 864.2736
306.2866, 859.7617
308.2151, 856.1884
310.1436, 852.6762
312.0720, 849.4106
314.0005, 846.0870
315.9290, 842.5222
317.8574, 838.5032
319.7859, 834.7321
321.7144, 831.1357
323.6428, 827.3203
325.5713, 822.7851
327.4998, 817.2922
329.4282, 812.3926
331.3567, 808.5164
333.2852, 805.4662
335.2137, 803.5580
337.1421, 803.8537
339.0706, 805.3920
340.9991, 806.8557
342.9275, 807.5240
344.8560, 808.3695
346.7845, 809.6136
348.7129, 811.2628
350.6414, 813.2735
352.5699, 816.0709
354.4983, 818.7076
356.4268, 820.6464
358.3553, 822.0228
360.2837, 822.6573
362.2122, 821.2970
364.1407, 819.0132
366.0691, 818.1066
367.9976, 821.3461
369.9261, 824.9890
371.8545, 827.1920
373.7830, 826.4527
375.7115, 826.3059
377.6399, 826.9460
379.5684, 828.5657
381.4969, 831.2462
383.4253, 836.4044
385.3538, 840.4561
387.2823, 842.1334
389.2107, 841.6878
391.1392, 841.8298
393.0677, 844.5440
394.9961, 846.9367
396.9246, 847.4485
398.8531, 843.6535
400.7815, 840.2255
402.7100, 837.2865
404.6385, 835.7031
406.5669, 835.7599
408.4954, 838.5856
410.4239, 840.7034
412.3523, 840.4771
414.2808, 838.1992
416.2093, 837.4320
418.1377, 839.4697
420.0662, 842.9465
421.9947, 846.9706
423.9231, 850.6391
425.8516, 854.9995
427.7801, 860.1921
429.7085, 866.3242
431.6370, 873.5823
433.5655, 882.4318
435.4939, 890.6217
437.4224, 897.0275
439.3509, 901.9814
441.2793, 908.3616
443.2078, 916.1677
445.1363, 924.1503
447.0647, 932.0737
448.9932, 940.7137
450.9217, 948.1688
452.8501, 953.0322
454.7786, 956.5611
456.7071, 960.5011
458.6355, 965.1340
460.5640, 969.6777
462.4925, 974.2865
464.4209, 979.1208
466.3494, 982.8883
468.2779, 983.5089
470.2063, 984.3588
472.1348, 986.7250
474.0633, 990.8679
475.9917, 995.4310
477.9202, 1000.016
479.8487, 1005.154
481.7771, 1011.340
483.7056, 1019.928
485.6341, 1027.988
487.5625, 1034.716
489.4910, 1041.275
491.4195, 1049.230
493.3479, 1058.887
495.2764, 1068.638
497.2049, 1078.865
499.1333, 1089.040
501.0618, 1096.447
502.9903, 1100.412
504.9187, 1101.755
506.8472, 1100.709
508.7757, 1097.752
510.7041, 1094.040
512.6326, 1089.125
514.5610, 1083.862
516.4895, 1079.208
518.4180, 1075.982
520.3464, 1071.795
522.2749, 1065.714
524.2034, 1058.448
526.1318, 1050.791
528.0603, 1041.619
529.9888, 1033.036
531.9172, 1026.140
533.8457, 1020.333
535.7742, 1013.628
537.7026, 1004.512
539.6311, 996.5000
541.5596, 991.4434
543.4880, 989.4240
545.4165, 986.5385
547.3450, 982.5146
549.2734, 978.4133
551.2019, 974.6804
553.1304, 971.0355
555.0588, 967.7996
556.9873, 964.0300
558.9158, 960.9018
560.8442, 961.2061
562.7727, 967.1970
564.7012, 972.2285
566.6296, 973.2391
568.5581, 971.0807
570.4866, 970.1720
572.4150, 972.3572
574.3435, 974.5056
576.2720, 976.1640
578.2004, 976.6634
580.1289, 975.3122
582.0574, 970.3392
583.9859, 965.5721
585.9144, 962.8625
587.8428, 963.2570
589.7713, 962.9442
591.6998, 961.4868
593.6282, 959.4753
595.5567, 957.4045
597.4852, 955.2109
599.4136, 952.4206
601.3421, 948.4492
603.2706, 944.1981
605.1990, 940.7129
607.1275, 938.5387
609.0560, 936.4069
610.9844, 933.7238
612.9129, 931.2004
614.8414, 929.9838
616.7698, 930.9246
618.6983, 932.1632
620.6268, 933.4467
622.5552, 934.3997
624.4837, 934.3874
626.4122, 932.4102
628.3406, 930.8447
630.2691, 931.0574
632.1976, 932.6844
634.1260, 933.5787
636.0545, 933.7138
637.9830, 933.2482
639.9114, 931.8052
641.8399, 929.2074
643.7684, 926.7978
645.6968, 924.5530
647.6253, 922.7702
649.5538, 921.6017
651.4822, 921.4374
653.4107, 921.2491
655.3392, 920.8976
657.2676, 920.2347
659.1961, 919.4501
661.1246, 918.4979
663.0530, 917.8293
664.9815, 917.8254
666.9100, 918.1735
668.8384, 918.2966
670.7669, 917.3317
672.6954, 917.2692
674.6238, 919.2911
676.5523, 922.2482
678.4808, 923.6960
680.4092, 922.4996
682.3377, 921.8127
684.2662, 922.9173
686.1946, 925.4080
688.1231, 927.1596
690.0516, 926.5991
691.9800, 927.0919
693.9085, 931.1390
695.8370, 937.2668
697.7654, 940.7188
699.6939, 938.9507
701.6224, 936.8988
703.5508, 936.1790
705.4793, 936.4525
707.4078, 937.0159
709.3362, 937.9825
711.2647, 939.3026
713.1932, 940.9756
715.1216, 943.0018
717.0501, 944.7801
718.9786, 946.0462
720.9070, 947.1956
722.8355, 948.5450
724.7640, 950.4557
726.6924, 952.1990
728.6209, 953.4918
730.5494, 954.6586
732.4778, 955.8980
734.4063, 957.1905
736.3348, 959.5701
738.2632, 964.5894
740.1917, 969.3874
742.1202, 971.8578
744.0486, 971.6016
745.9771, 971.7057
747.9056, 972.5481
749.8340, 973.7357
751.7625, 975.1968
753.6910, 977.0986
755.6194, 978.6543
757.5479, 979.0328
759.4764, 979.9034
761.4048, 982.5800
763.3333, 986.5365
765.2618, 990.0964
767.1902, 992.9621
769.1187, 995.7496
771.0472, 998.0212
772.9756, 999.4625
774.9041, 1000.806
776.8326, 1001.908
778.7610, 1002.756
780.6895, 1004.646
782.6180, 1009.035
784.5464, 1012.567
786.4749, 1013.399
788.4034, 1012.801
790.3318, 1013.650
792.2603, 1016.959
794.1888, 1020.276
796.1172, 1023.389
798.0457, 1025.530
799.9742, 1025.960
801.9026, 1024.712
803.8311, 1025.093
805.7596, 1028.989
807.6880, 1033.593
809.6165, 1036.939
811.5450, 1038.385
813.4734, 1040.140
815.4019, 1042.724
817.3304, 1045.815
819.2589, 1048.555
821.1873, 1051.029
823.1158, 1053.072
825.0443, 1053.932
826.9727, 1054.677
828.9012, 1056.968
830.8297, 1061.347
832.7581, 1064.892
834.6866, 1067.279
836.6151, 1069.046
838.5435, 1068.901
840.4720, 1066.602
842.4005, 1065.683
844.3289, 1068.094
846.2574, 1070.700
848.1859, 1071.692
850.1143, 1071.926
852.0428, 1073.786
853.9713, 1078.628
855.8997, 1081.828
857.8282, 1082.543
859.7567, 1082.519
861.6851, 1084.187
863.6136, 1088.268
865.5421, 1092.128
867.4705, 1094.178
869.3990, 1094.134
871.3275, 1093.960
873.2559, 1094.111
875.1844, 1094.914
877.1129, 1096.733
879.0413, 1100.009
880.9698, 1101.952
882.8983, 1101.021
884.8267, 1099.105
886.7552, 1100.603
888.6837, 1106.247
890.6121, 1110.647
892.5406, 1110.703
894.4691, 1109.975
896.3975, 1111.339
898.3260, 1114.589
900.2545, 1118.570
902.1829, 1123.533
904.1114, 1128.298
906.0399, 1130.796
907.9683, 1131.658
909.8968, 1132.875
911.8253, 1134.037
913.7537, 1135.184
915.6822, 1137.847
917.6107, 1143.370
919.5391, 1148.213
921.4676, 1150.581
923.3961, 1152.079
925.3245, 1154.714
927.2530, 1158.563
929.1815, 1162.413
931.1099, 1165.708
933.0384, 1169.059
934.9669, 1173.238
936.8953, 1179.922
938.8238, 1187.028
940.7523, 1192.610
942.6807, 1197.392
944.6092, 1202.464
946.5377, 1209.788
948.4661, 1218.399
950.3946, 1226.820
952.3231, 1235.566
954.2515, 1245.291
956.1800, 1255.727
958.1085, 1265.992
960.0369, 1277.262
961.9654, 1290.105
963.8939, 1304.097
965.8223, 1318.793
967.7508, 1335.531
969.6793, 1354.715
971.6077, 1374.959
973.5362, 1396.714
975.4647, 1419.615
977.3931, 1442.488
979.3216, 1461.596
981.2501, 1477.703
983.1785, 1492.842
985.1070, 1507.461
987.0355, 1520.389
988.9639, 1530.141
990.8924, 1535.242
992.8209, 1535.524
994.7493, 1534.197
996.6778, 1533.331
998.6063, 1531.824
1000.535, 1532.609
1002.463, 1535.856
1004.392, 1537.611
1006.320, 1535.286
1008.249, 1532.836
1010.177, 1536.300
1012.106, 1544.063
1014.034, 1552.707
1015.962, 1562.192
1017.891, 1573.293
1019.819, 1584.246
1021.748, 1592.913
1023.676, 1599.124
1025.605, 1603.727
1027.533, 1605.046
1029.462, 1598.251
1031.390, 1581.619
1033.319, 1560.541
1035.247, 1537.846
1037.176, 1516.152
1039.104, 1496.685
1041.032, 1479.278
1042.961, 1465.519
1044.889, 1457.279
1046.818, 1453.166
1048.746, 1452.389
1050.675, 1455.030
1052.603, 1458.659
1054.532, 1461.169
1056.460, 1464.515
1058.389, 1469.377
1060.317, 1475.420
1062.246, 1482.587
1064.174, 1492.947
1066.103, 1505.994
1068.031, 1520.027
1069.959, 1534.284
1071.888, 1548.493
1073.816, 1562.759
1075.745, 1577.364
1077.673, 1592.850
1079.602, 1607.527
1081.530, 1617.333
1083.459, 1618.853
1085.387, 1614.641
1087.316, 1609.420
1089.244, 1603.504
1091.173, 1593.737
1093.101, 1580.489
1095.030, 1568.021
1096.958, 1558.078
1098.887, 1546.200
1100.815, 1531.710
1102.744, 1516.928
1104.672, 1504.601
1106.600, 1495.229
1108.529, 1484.433
1110.457, 1473.129
1112.386, 1462.547
1114.314, 1452.378
1116.243, 1441.833
1118.171, 1432.947
1120.100, 1428.613
1122.028, 1426.341
1123.957, 1422.498
1125.885, 1417.020
1127.814, 1412.896
1129.742, 1412.004
1131.671, 1411.576
1133.599, 1409.559
1135.527, 1406.639
1137.456, 1403.773
1139.384, 1400.722
1141.313, 1398.599
1143.241, 1399.042
1145.170, 1400.164
1147.098, 1399.614
1149.027, 1397.170
1150.955, 1395.417
1152.884, 1395.899
1154.812, 1398.172
1156.741, 1399.179
1158.669, 1398.887
1160.598, 1399.390
1162.526, 1401.430
1164.454, 1404.219
1166.383, 1408.847
1168.311, 1414.497
1170.240, 1418.903
1172.168, 1421.639
1174.097, 1423.772
1176.025, 1424.500
1177.954, 1424.095
1179.882, 1424.714
1181.811, 1427.064
1183.739, 1428.650
1185.668, 1428.206
1187.596, 1428.424
1189.525, 1432.467
1191.453, 1437.299
1193.381, 1440.795
1195.310, 1443.126
1197.238, 1446.265
1199.167, 1450.426
1201.095, 1453.399
1203.024, 1454.399
1204.952, 1454.382
1206.881, 1455.668
1208.809, 1458.910
1210.738, 1461.770
1212.666, 1463.894
1214.595, 1465.618
1216.523, 1467.633
1218.452, 1469.951
1220.380, 1471.621
1222.308, 1471.838
1224.237, 1473.189
1226.165, 1476.707
1228.094, 1480.746
1230.022, 1484.217
1231.951, 1486.957
1233.879, 1489.886
1235.808, 1493.425
1237.736, 1497.332
1239.665, 1499.094
1241.593, 1497.791
1243.522, 1498.983
1245.450, 1506.564
1247.379, 1513.547
1249.307, 1515.922
1251.235, 1515.010
1253.164, 1515.331
1255.092, 1517.437
1257.021, 1520.704
1258.949, 1525.402
1260.878, 1529.057
1262.806, 1530.936
1264.735, 1531.924
1266.663, 1534.370
1268.592, 1539.283
1270.520, 1543.622
1272.449, 1546.233
1274.377, 1548.503
1276.306, 1551.493
1278.234, 1554.723
1280.162, 1557.392
1282.091, 1558.685
1284.019, 1561.750
1285.948, 1567.914
1287.876, 1574.632
1289.805, 1578.060
1291.733, 1577.236
1293.662, 1577.912
1295.590, 1581.780
1297.519, 1586.893
1299.447, 1591.755
1301.376, 1595.784
1303.304, 1598.580
1305.233, 1599.853
1307.161, 1601.539
1309.089, 1604.878
1311.018, 1608.188
1312.946, 1610.514
1314.875, 1612.226
1316.803, 1615.220
1318.732, 1620.856
1320.660, 1625.500
1322.589, 1627.611
1324.517, 1629.041
1326.446, 1631.936
1328.374, 1636.290
1330.303, 1640.037
1332.231, 1642.646
1334.160, 1645.414
1336.088, 1648.957
1338.016, 1652.857
1339.945, 1656.862
1341.873, 1661.120
1343.802, 1664.582
1345.730, 1666.943
1347.659, 1668.676
1349.587, 1668.728
1351.516, 1668.430
1353.444, 1671.986
1355.373, 1681.264
1357.301, 1688.740
1359.230, 1692.164
1361.158, 1694.383
1363.087, 1696.902
1365.015, 1699.660
1366.943, 1701.702
1368.872, 1701.622
1370.800, 1703.008
1372.729, 1707.721
1374.657, 1712.834
1376.586, 1715.745
1378.514, 1716.733
1380.443, 1718.990
1382.371, 1723.062
1384.300, 1727.033
1386.228, 1730.619
1388.157, 1733.534
1390.085, 1735.275
1392.014, 1736.167
1393.942, 1737.571
1395.870, 1739.831
1397.799, 1741.700
1399.727, 1741.941
1401.656, 1742.593
1403.584, 1746.263
1405.513, 1753.204
1407.441, 1757.321
1409.370, 1755.853
1411.298, 1755.199
1413.227, 1756.894
1415.155, 1760.754
1417.084, 1766.574
1419.012, 1774.609
1420.941, 1779.821
1422.869, 1779.172
1424.797, 1779.572
1426.726, 1783.760
1428.654, 1789.198
1430.583, 1792.463
1432.511, 1793.072
1434.440, 1795.959
1436.368, 1804.177
1438.297, 1810.682
1440.225, 1811.546
1442.154, 1810.533
1444.082, 1812.490
1446.011, 1817.145
1447.939, 1821.188
1449.868, 1824.397
1451.796, 1827.020
1453.724, 1827.992
1455.653, 1828.870
1457.581, 1832.568
1459.510, 1838.949
1461.438, 1842.655
1463.367, 1841.688
1465.295, 1841.935
1467.224, 1846.061
1469.152, 1851.196
1471.081, 1855.605
1473.009, 1859.281
1474.938, 1861.489
1476.866, 1860.422
1478.795, 1860.913
1480.723, 1865.400
1482.651, 1870.349
1484.580, 1872.608
1486.508, 1872.360
1488.437, 1874.498
1490.365, 1881.300
1492.294, 1888.251
1494.222, 1896.099
1496.151, 1902.676
1498.079, 1905.244
1500.008, 1904.519
1501.936, 1905.672
1503.865, 1908.931
1505.793, 1912.164
1507.722, 1916.589
1509.650, 1920.243
1511.578, 1920.915
1513.507, 1919.837
1515.435, 1921.428
1517.364, 1926.678
1519.292, 1932.123
1521.221, 1937.340
1523.149, 1941.933
1525.078, 1945.083
1527.006, 1947.848
1528.935, 1951.968
1530.863, 1957.314
1532.792, 1960.463
1534.720, 1959.517
1536.649, 1958.962
1538.577, 1960.856
1540.505, 1964.313
1542.434, 1968.500
1544.362, 1973.336
1546.291, 1978.537
1548.219, 1983.875
1550.148, 1990.220
1552.076, 1999.559
1554.005, 2008.088
1555.933, 2013.040
1557.862, 2014.848
1559.790, 2015.384
1561.719, 2013.601
1563.647, 2013.549
1565.576, 2017.954
1567.504, 2022.146
1569.432, 2023.622
1571.361, 2024.058
1573.289, 2026.630
1575.218, 2031.852
1577.146, 2037.006
1579.075, 2041.975
1581.003, 2047.657
1582.932, 2054.470
1584.860, 2060.787
1586.789, 2065.486
1588.717, 2068.821
1590.646, 2071.051
1592.574, 2071.036
1594.503, 2071.115
1596.431, 2069.764
1598.359, 2070.720
1600.288, 2079.123
1602.216, 2091.066
1604.145, 2095.899
1606.073, 2090.224
1608.002, 2088.379
1609.930, 2092.325
1611.859, 2097.206
1613.787, 2102.979
1615.716, 2107.956
1617.644, 2108.918
1619.573, 2105.989
1621.501, 2107.036
1623.430, 2114.766
1625.358, 2120.875
1627.286, 2123.364
1629.215, 2124.919
1631.143, 2126.747
1633.072, 2128.844
1635.000, 2131.385
1636.929, 2134.510
1638.857, 2137.298
1640.786, 2139.185
1642.714, 2141.448
1644.643, 2144.953
1646.571, 2148.353
1648.500, 2149.751
1650.428, 2149.622
1652.357, 2151.328
1654.285, 2155.848
1656.214, 2158.426
1658.142, 2156.981
1660.070, 2155.233
1661.999, 2155.054
1663.927, 2155.708
1665.856, 2156.194
1667.784, 2156.594
1669.713, 2156.972
1671.641, 2156.889
1673.570, 2158.106
1675.498, 2161.567
1677.427, 2166.033
1679.355, 2170.775
1681.284, 2175.897
1683.212, 2182.138
1685.141, 2189.479
1687.069, 2193.838
1688.997, 2191.949
1690.926, 2192.493
1692.854, 2201.317
1694.783, 2210.984
1696.711, 2215.316
1698.640, 2216.099
1700.568, 2218.341
1702.497, 2222.582
1704.425, 2223.938
1706.354, 2219.070
1708.282, 2215.960
1710.211, 2220.871
1712.139, 2226.496
1714.068, 2224.402
1715.996, 2217.691
1717.924, 2216.706
1719.853, 2222.707
1721.781, 2229.252
1723.710, 2235.797
1725.638, 2241.695
1727.567, 2246.353
1729.495, 2249.756
1731.424, 2250.241
1733.352, 2248.915
1735.281, 2251.920
1737.209, 2260.509
1739.138, 2267.606
1741.066, 2273.076
1742.995, 2276.094
1744.923, 2275.246
1746.851, 2273.261
1748.780, 2272.258
1750.708, 2272.489
1752.637, 2274.804
1754.565, 2279.298
1756.494, 2284.668
1758.422, 2292.636
1760.351, 2298.136
1762.279, 2296.970
1764.208, 2294.124
1766.136, 2295.031
1768.065, 2298.736
1769.993, 2300.560
1771.922, 2300.139
1773.850, 2300.338
1775.778, 2300.602
1777.707, 2302.942
1779.635, 2309.513
1781.564, 2316.953
1783.492, 2322.624
1785.421, 2326.642
1787.349, 2329.330
1789.278, 2330.141
1791.206, 2331.962
1793.135, 2336.439
1795.063, 2339.751
1796.992, 2340.565
1798.920, 2340.678
1800.849, 2340.541
1802.777, 2340.980
1804.705, 2344.121
1806.634, 2350.557
1808.562, 2355.969
1810.491, 2358.875
1812.419, 2363.052
1814.348, 2369.822
1816.276, 2376.475
1818.205, 2381.159
1820.133, 2384.833
1822.062, 2389.288
1823.990, 2391.751
1825.919, 2397.218
1827.847, 2396.358
1829.776, 2396.689
1831.704, 2399.006
1833.632, 2402.410
1835.561, 2408.448
1837.489, 2414.176
1839.418, 2415.381
1841.346, 2421.146
1843.275, 2425.648
1845.203, 2427.823
1847.132, 2434.684
1849.060, 2435.466
1850.989, 2437.120
1852.917, 2444.018
1854.846, 2449.123
1856.774, 2446.805
1858.703, 2441.760
1860.631, 2441.125
1862.559, 2444.448
1864.488, 2447.838
1866.416, 2451.549
1868.345, 2453.565
1870.273, 2452.961
1872.202, 2452.077
1874.130, 2450.439
1876.059, 2450.541
1877.987, 2455.052
1879.916, 2462.429
1881.844, 2470.598
1883.773, 2479.234
1885.701, 2483.261
1887.630, 2480.453
1889.558, 2477.916
1891.486, 2476.426
1893.415, 2476.623
1895.343, 2480.053
1897.272, 2484.590
1899.200, 2488.358
1901.129, 2491.651
1903.057, 2495.085
1904.986, 2499.080
1906.914, 2502.467
1908.843, 2503.061
1910.771, 2506.431
1912.700, 2516.869
1914.628, 2525.564
1916.557, 2524.573
1918.485, 2521.367
1920.413, 2526.043
1922.342, 2536.959
1924.270, 2545.435
1926.199, 2551.255
1928.127, 2555.759
1930.056, 2558.232
1931.984, 2561.158
1933.913, 2565.827
1935.841, 2570.059
1937.770, 2572.813
1939.698, 2574.381
1941.627, 2574.520
1943.555, 2573.662
1945.484, 2574.390
1947.412, 2576.983
1949.340, 2577.941
1951.269, 2575.820
1953.197, 2576.089
1955.126, 2582.428
1957.054, 2588.713
1958.983, 2591.213
1960.911, 2592.469
1962.840, 2595.168
1964.768, 2598.597
1966.697, 2600.016
1968.625, 2603.883
1970.554, 2608.400
1972.482, 2610.543
1974.411, 2617.550
1976.339, 2620.778
1978.267, 2622.746
1980.196, 2625.103
1982.124, 2626.465
1984.053, 2623.718
1985.981, 2620.105
1987.910, 2623.668
1989.838, 2634.736
1991.767, 2640.815
1993.695, 2638.907
1995.624, 2639.513
1997.552, 2645.000
1999.481, 2649.970
2001.409, 2652.461
2003.338, 2654.750
2005.266, 2659.670
2007.194, 2664.166
2009.123, 2663.110
2011.051, 2658.360
2012.980, 2655.867
2014.908, 2655.726
2016.837, 2659.358
2018.765, 2669.128
2020.694, 2675.046
2022.622, 2671.247
2024.551, 2668.841
2026.479, 2673.528
2028.408, 2680.488
2030.336, 2686.896
2032.265, 2692.219
2034.193, 2694.188
2036.121, 2693.177
2038.050, 2696.877
2039.978, 2709.136
2041.907, 2714.846
2043.835, 2708.927
2045.764, 2705.521
2047.692, 2707.482
2049.621, 2711.890
2051.549, 2720.606
2053.478, 2728.632
2055.406, 2729.592
2057.334, 2727.438
2059.263, 2729.800
2061.191, 2735.908
2063.120, 2743.435
2065.049, 2752.452
2066.977, 2758.769
2068.906, 2762.302
2070.834, 2762.358
2072.762, 2756.729
2074.691, 2750.994
2076.619, 2746.915
2078.548, 2744.632
2080.476, 2743.660
2082.405, 2744.931
2084.333, 2751.329
2086.262, 2762.073
2088.190, 2769.924
2090.119, 2774.299
2092.047, 2778.466
2093.976, 2782.573
2095.904, 2785.656
2097.833, 2785.776
2099.761, 2787.050
2101.689, 2792.746
2103.618, 2797.323
2105.546, 2795.530
2107.475, 2791.997
2109.403, 2792.739
2111.332, 2796.583
2113.260, 2799.621
2115.189, 2802.128
2117.117, 2806.669
2119.046, 2813.906
2120.974, 2821.146
2122.903, 2829.604
2124.831, 2835.012
2126.760, 2833.387
2128.688, 2832.423
2130.616, 2836.590
2132.545, 2841.766
2134.473, 2844.731
2136.402, 2846.707
2138.330, 2849.463
2140.259, 2852.721
2142.187, 2855.309
2144.116, 2857.067
2146.044, 2859.847
2147.973, 2864.678
2149.901, 2865.652
2151.830, 2858.399
2153.758, 2854.928
2155.687, 2862.216
2157.615, 2869.766
2159.543, 2872.359
2161.472, 2873.105
2163.400, 2872.273
2165.329, 2871.889
2167.257, 2876.632
2169.186, 2884.759
2171.114, 2889.638
2173.043, 2891.590
2174.971, 2890.810
2176.900, 2887.199
2178.828, 2887.024
2180.757, 2892.708
2182.685, 2898.227
2184.614, 2900.157
2186.542, 2903.408
2188.470, 2911.637
2190.399, 2918.933
2192.327, 2919.947
2194.256, 2918.926
2196.184, 2921.618
2198.113, 2926.414
2200.041, 2928.548
2201.970, 2928.443
2203.898, 2931.626
2205.827, 2933.389
2207.755, 2934.832
2209.684, 2939.429
2211.612, 2939.681
2213.541, 2944.870
2215.469, 2950.274
2217.397, 2957.322
2219.326, 2960.625
2221.254, 2951.494
2223.183, 2944.840
2225.111, 2956.044
2227.040, 2972.315
2228.968, 2976.516
2230.897, 2973.367
2232.825, 2975.401
2234.754, 2981.870
2236.682, 2983.167
2238.611, 2979.102
2240.539, 2978.668
2242.468, 2982.711
2244.396, 2989.452
2246.324, 3001.156
2248.253, 3008.637
2250.181, 3006.151
2252.110, 3004.022
2254.038, 3006.872
2255.967, 3010.484
2257.895, 3012.738
2259.824, 3014.297
2261.752, 3015.466
2263.681, 3016.363
2265.609, 3016.163
2267.538, 3015.872
2269.466, 3019.435
2271.395, 3026.370
2273.323, 3034.225
2275.251, 3043.073
2277.180, 3049.279
2279.108, 3051.895
2281.037, 3054.018
2282.965, 3055.627
2284.894, 3057.425
2286.822, 3059.082
2288.751, 3061.542
2290.679, 3065.441
2292.608, 3069.610
2294.536, 3073.763
2296.465, 3077.499
2298.393, 3080.101
2300.322, 3082.433
2302.250, 3086.294
2304.178, 3087.847
2306.107, 3092.042
2308.035, 3091.395
2309.964, 3091.562
2311.892, 3092.509
2313.821, 3094.910
2315.749, 3099.547
2317.678, 3102.080
2319.606, 3101.785
2321.535, 3100.871
2323.463, 3099.511
2325.392, 3098.200
2327.320, 3095.829
2329.249, 3096.401
2331.177, 3103.670
2333.105, 3112.190
2335.034, 3118.165
2336.962, 3124.454
2338.891, 3134.977
2340.819, 3145.525
2342.748, 3150.983
2344.676, 3152.070
2346.605, 3148.404
2348.533, 3142.413
2350.462, 3143.406
2352.390, 3150.685
2354.319, 3155.675
2356.247, 3158.057
2358.176, 3160.093
2360.104, 3161.266
2362.032, 3163.025
2363.961, 3164.817
2365.889, 3167.793
2367.818, 3174.664
2369.746, 3176.806
2371.675, 3167.286
2373.603, 3163.225
2375.532, 3177.663
2377.460, 3191.276
2379.389, 3191.091
2381.317, 3188.307
2383.246, 3188.653
2385.174, 3192.322
2387.103, 3202.663
2389.031, 3213.863
2390.959, 3216.885
2392.888, 3214.212
2394.816, 3210.557
2396.745, 3207.237
2398.673, 3208.820
2400.602, 3215.006
2402.530, 3219.798
2404.459, 3223.173
2406.387, 3222.349
2408.316, 3224.623
2410.244, 3226.443
2412.173, 3223.418
2414.101, 3230.228
2416.030, 3227.138
2417.958, 3228.566
2419.886, 3241.836
2421.815, 3250.288
2423.743, 3242.745
2425.672, 3237.869
2427.600, 3245.702
2429.529, 3254.256
2431.457, 3257.341
2433.386, 3259.222
2435.314, 3260.203
2437.243, 3263.933
2439.171, 3278.354
2441.100, 3292.404
2443.028, 3289.271
2444.957, 3279.837
2446.885, 3283.441
2448.813, 3294.113
2450.742, 3298.105
2452.670, 3296.753
2454.599, 3293.872
2456.527, 3290.413
2458.456, 3291.464
2460.384, 3297.222
2462.313, 3303.595
2464.241, 3310.368
2466.170, 3312.975
2468.098, 3308.083
2470.027, 3308.169
2471.955, 3315.760
2473.884, 3323.036
2475.812, 3330.110
2477.740, 3335.102
2479.669, 3337.997
2481.597, 3339.223
2483.526, 3339.188
2485.454, 3339.013
2487.383, 3339.417
2489.311, 3340.726
2491.240, 3341.889
2493.168, 3345.984
2495.097, 3357.839
2497.025, 3368.064
2498.954, 3368.007
2500.882, 3366.272
2502.811, 3367.174
2504.739, 3370.116
2506.667, 3376.482
2508.596, 3382.939
2510.524, 3386.475
2512.453, 3387.695
2514.381, 3386.719
2516.310, 3385.031
2518.238, 3384.604
2520.167, 3385.727
2522.095, 3388.687
2524.024, 3393.072
2525.952, 3398.405
2527.881, 3403.894
2529.809, 3406.464
2531.738, 3406.221
2533.666, 3410.183
2535.594, 3412.008
2537.523, 3413.106
2539.451, 3417.217
2541.380, 3415.944
2543.308, 3417.776
2545.237, 3419.534
2547.165, 3420.699
2549.094, 3421.883
2551.022, 3421.647
2552.951, 3425.427
2554.879, 3435.461
2556.808, 3440.802
2558.736, 3438.338
2560.665, 3438.346
2562.593, 3443.964
2564.521, 3450.001
2566.450, 3456.194
2568.378, 3460.932
2570.307, 3462.181
2572.235, 3464.452
2574.164, 3468.576
2576.092, 3474.022
2578.021, 3482.261
2579.949, 3488.906
2581.878, 3491.517
2583.806, 3493.343
2585.735, 3494.778
2587.663, 3497.307
2589.592, 3500.517
2591.520, 3506.536
2593.448, 3520.542
2595.377, 3531.356
2597.305, 3528.955
2599.234, 3524.247
2601.162, 3524.456
2603.091, 3525.897
2605.019, 3524.937
2606.948, 3525.288
2608.876, 3532.108
2610.805, 3540.328
2612.733, 3545.554
2614.662, 3550.189
2616.590, 3556.822
2618.519, 3563.671
2620.447, 3567.860
2622.375, 3570.952
2624.304, 3574.613
2626.232, 3578.536
2628.161, 3583.848
2630.089, 3588.218
2632.018, 3587.219
2633.946, 3584.329
2635.875, 3585.448
2637.803, 3588.926
2639.732, 3591.294
2641.660, 3593.547
2643.589, 3598.120
2645.517, 3603.804
2647.446, 3609.099
2649.374, 3613.155
2651.302, 3612.811
2653.231, 3610.094
2655.159, 3609.897
2657.088, 3612.132
2659.016, 3618.232
2660.945, 3626.032
2662.873, 3627.538
2664.802, 3626.360
2666.730, 3637.036
2668.659, 3654.346
2670.587, 3655.974
2672.516, 3645.890
2674.444, 3639.753
2676.373, 3637.799
2678.301, 3644.163
2680.229, 3642.727
2682.158, 3657.305
2684.086, 3652.488
2686.015, 3657.436
2687.943, 3670.091
2689.872, 3677.595
2691.800, 3680.636
2693.729, 3681.336
2695.657, 3679.923
2697.586, 3676.623
2699.514, 3672.467
2701.443, 3673.163
2703.371, 3678.394
2705.300, 3684.676
2707.228, 3692.147
2709.156, 3702.804
2711.085, 3706.086
2713.013, 3717.688
2714.942, 3713.515
2716.870, 3711.766
2718.799, 3712.341
2720.727, 3716.328
2722.656, 3722.646
2724.584, 3724.815
2726.513, 3725.206
2728.441, 3735.735
2730.370, 3752.508
2732.298, 3756.522
2734.227, 3750.700
2736.155, 3747.645
2738.083, 3746.841
2740.012, 3747.517
2741.940, 3749.294
2743.869, 3749.759
2745.797, 3750.832
2747.726, 3761.238
2749.654, 3776.589
2751.583, 3782.331
2753.511, 3782.067
2755.440, 3784.079
2757.368, 3787.212
2759.297, 3787.630
2761.225, 3787.700
2763.154, 3794.945
2765.082, 3805.163
2767.010, 3810.774
2768.939, 3812.203
2770.867, 3807.327
2772.796, 3801.044
2774.724, 3802.197
2776.653, 3807.261
2778.581, 3810.628
2780.510, 3814.018
2782.438, 3820.067
2784.367, 3827.105
2786.295, 3834.917
2788.224, 3840.722
2790.152, 3837.955
2792.081, 3834.917
2794.009, 3843.777
2795.938, 3853.272
2797.866, 3849.983
2799.794, 3846.206
2801.723, 3855.093
2803.651, 3865.049
2805.580, 3867.043
2807.508, 3865.729
2809.437, 3863.492
2811.365, 3861.048
2813.294, 3857.499
2815.222, 3857.175
2817.151, 3865.750
2819.079, 3874.097
2821.008, 3877.476
2822.936, 3880.280
2824.865, 3883.680
2826.793, 3886.876
2828.721, 3887.758
2830.650, 3890.152
2832.578, 3897.047
2834.507, 3900.661
2836.435, 3897.020
2838.364, 3896.191
2840.292, 3906.116
2842.221, 3910.862
2844.149, 3905.296
2846.078, 3902.503
2848.006, 3904.033
2849.935, 3908.074
2851.863, 3915.393
2853.792, 3919.401
2855.720, 3916.212
2857.648, 3917.758
2859.577, 3924.625
2861.505, 3930.946
2863.434, 3936.390
2865.362, 3939.652
2867.291, 3940.386
2869.219, 3937.766
2871.148, 3943.836
2873.076, 3936.925
2875.005, 3950.735
2876.933, 3955.712
2878.862, 3953.994
2880.790, 3953.663
2882.719, 3955.618
2884.647, 3965.157
2886.575, 3977.175
2888.504, 3978.358
2890.432, 3974.743
2892.361, 3975.420
2894.289, 3978.460
2896.218, 3981.422
2898.146, 3985.165
2900.075, 3990.902
2902.003, 3997.260
2903.932, 4003.598
2905.860, 4008.483
2907.789, 4008.873
2909.717, 4009.746
2911.646, 4015.878
2913.574, 4020.176
2915.502, 4016.584
2917.431, 4016.279
2919.359, 4027.209
2921.288, 4035.921
2923.216, 4039.348
2925.145, 4040.129
2927.073, 4036.545
2929.002, 4036.403
2930.930, 4042.802
2932.859, 4049.325
2934.787, 4056.633
2936.716, 4058.103
2938.644, 4066.349
2940.573, 4070.453
2942.501, 4074.869
2944.429, 4079.920
2946.358, 4082.247
2948.286, 4083.968
2950.215, 4085.026
2952.143, 4085.632
2954.072, 4086.770
2956.000, 4084.458
2957.929, 4089.122
2959.857, 4091.266
2961.786, 4094.331
2963.714, 4104.710
2965.643, 4115.005
2967.571, 4117.289
2969.500, 4117.109
2971.428, 4116.431
2973.356, 4118.404
2975.285, 4128.293
2977.213, 4135.871
2979.142, 4135.591
2981.070, 4134.917
2982.999, 4134.986
2984.927, 4136.586
2986.856, 4140.484
2988.784, 4143.018
2990.713, 4141.118
2992.641, 4144.488
2994.570, 4153.747
2996.498, 4158.053
2998.427, 4157.242
3000.355, 4159.879
3002.283, 4165.517
3004.212, 4170.052
3006.140, 4173.165
3008.069, 4173.729
3009.997, 4172.002
3011.926, 4164.844
3013.854, 4159.667
3015.783, 4170.689
3017.711, 4184.510
3019.640, 4187.333
3021.568, 4189.618
3023.497, 4199.417
3025.425, 4208.347
3027.354, 4211.686
3029.282, 4214.033
3031.210, 4217.600
3033.139, 4218.092
3035.067, 4211.967
3036.996, 4209.563
3038.924, 4211.915
3040.853, 4217.264
3042.781, 4225.387
3044.710, 4229.492
3046.638, 4229.367
3048.567, 4228.022
3050.495, 4226.909
3052.424, 4235.386
3054.352, 4238.214
3056.281, 4251.660
3058.209, 4253.166
3060.137, 4262.340
3062.066, 4272.230
3063.994, 4276.474
3065.923, 4277.897
3067.851, 4277.163
3069.780, 4275.609
3071.708, 4275.162
3073.637, 4272.365
3075.565, 4266.019
3077.494, 4261.712
3079.422, 4259.875
3081.351, 4263.318
3083.279, 4272.053
3085.208, 4280.412
3087.136, 4287.689
3089.064, 4291.908
3090.993, 4293.429
3092.921, 4292.708
3094.850, 4290.635
3096.778, 4287.032
3098.707, 4284.710
3100.635, 4287.495
3102.564, 4291.879
3104.492, 4294.770
3106.421, 4298.767
3108.349, 4307.205
3110.278, 4313.184
3112.206, 4311.285
3114.135, 4313.288
3116.063, 4321.346
3117.991, 4324.824
3119.920, 4321.319
3121.848, 4322.248
3123.777, 4327.772
3125.705, 4330.829
3127.634, 4332.354
3129.562, 4335.073
3131.491, 4337.798
3133.419, 4337.409
3135.348, 4336.504
3137.276, 4337.264
3139.205, 4339.532
3141.133, 4344.844
3143.062, 4349.567
3144.990, 4353.388
3146.918, 4353.514
3148.847, 4346.827
3150.775, 4348.033
3152.704, 4362.025
3154.632, 4373.583
3156.561, 4382.312
3158.489, 4383.351
3160.418, 4379.170
3162.346, 4379.261
3164.275, 4381.818
3166.203, 4384.641
3168.132, 4386.642
3170.060, 4385.337
3171.989, 4385.692
3173.917, 4395.640
3175.845, 4400.850
3177.774, 4394.780
3179.702, 4392.681
3181.631, 4401.585
3183.559, 4403.540
3185.488, 4396.399
3187.416, 4397.899
3189.345, 4407.212
3191.273, 4419.646
3193.202, 4431.229
3195.130, 4429.516
3197.059, 4423.672
3198.987, 4427.539
3200.916, 4430.476
3202.844, 4420.810
3204.772, 4415.231
3206.701, 4423.578
3208.629, 4426.282
3210.558, 4426.825
3212.486, 4431.475
3214.415, 4430.504
3216.343, 4439.979
3218.272, 4441.284
3220.200, 4454.167
3222.129, 4456.094
3224.057, 4470.228
3225.986, 4463.963
3227.914, 4469.897
3229.843, 4475.597
3231.771, 4468.624
3233.699, 4466.334
3235.628, 4477.388
3237.556, 4484.124
3239.485, 4479.938
3241.413, 4480.506
3243.342, 4486.549
3245.270, 4484.314
3247.199, 4488.090
3249.127, 4492.441
3251.056, 4494.003
3252.984, 4502.589
3254.913, 4509.096
3256.841, 4516.134
3258.770, 4518.878
3260.698, 4522.219
3262.626, 4524.063
3264.555, 4519.923
3266.483, 4523.463
3268.412, 4511.313
3270.340, 4506.425
3272.269, 4507.454
3274.197, 4505.180
3276.126, 4503.747
3278.054, 4516.265
3279.983, 4529.875
3281.911, 4527.940
3283.840, 4527.108
3285.768, 4539.253
3287.697, 4548.166
3289.625, 4547.839
3291.553, 4550.142
3293.482, 4555.867
3295.410, 4566.819
3297.339, 4570.817
3299.267, 4578.194
3301.196, 4583.919
3303.124, 4588.272
3305.053, 4593.312
3306.981, 4593.732
3308.910, 4593.651
3310.838, 4593.094
3312.767, 4597.224
3314.695, 4597.175
3316.624, 4616.484
3318.552, 4606.856
3320.480, 4613.360
3322.409, 4632.527
3324.337, 4650.616
3326.266, 4667.281
3328.194, 4680.653
3330.123, 4694.183
3332.051, 4711.635
3333.980, 4727.064
3335.908, 4737.908
3337.837, 4750.863
3339.765, 4768.205
3341.694, 4783.093
3343.622, 4795.751
3345.551, 4803.567
3347.479, 4811.727
3349.407, 4830.219
3351.336, 4853.441
3353.264, 4877.144
3355.193, 4900.768
3357.121, 4925.835
3359.050, 4944.713
3360.978, 4955.832
3362.907, 4961.953
3364.835, 4964.350
3366.764, 4979.570
3368.692, 4997.346
3370.621, 4983.850
3372.549, 4964.686
3374.478, 4964.361
3376.406, 4968.023
3378.334, 4971.882
3380.263, 4967.283
3382.191, 4949.740
3384.120, 4935.945
3386.048, 4926.600
3387.977, 4919.266
3389.905, 4911.936
3391.834, 4899.407
3393.762, 4885.781
3395.691, 4874.818
3397.619, 4865.838
3399.548, 4856.197
3401.476, 4848.585
3403.405, 4842.038
3405.333, 4834.797
3407.261, 4831.053
3409.190, 4824.973
3411.118, 4818.825
3413.047, 4821.151
3414.975, 4821.740
3416.904, 4810.406
3418.832, 4798.692
3420.761, 4789.523
3422.689, 4786.837
3424.618, 4792.638
3426.546, 4792.139
3428.475, 4786.592
3430.403, 4781.777
3432.332, 4780.431
3434.260, 4791.445
3436.188, 4798.817
3438.117, 4789.626
3440.045, 4785.250
3441.974, 4797.704
3443.902, 4798.334
3445.831, 4788.020
3447.759, 4787.587
3449.688, 4793.999
3451.616, 4801.487
3453.545, 4807.795
3455.473, 4810.812
3457.402, 4812.077
3459.330, 4818.326
3461.259, 4813.897
3463.187, 4828.072
3465.115, 4838.040
3467.044, 4843.162
3468.972, 4838.591
3470.901, 4833.125
3472.829, 4839.584
3474.758, 4843.950
3476.686, 4837.144
3478.615, 4828.647
3480.543, 4819.922
3482.472, 4807.307
3484.400, 4792.776
3486.329, 4794.734
3488.257, 4801.275
3490.186, 4794.173
3492.114, 4784.391
3494.042, 4779.733
3495.971, 4770.765
3497.899, 4765.431
3499.828, 4745.224
3501.756, 4753.794
3503.685, 4754.539
3505.613, 4747.026
3507.542, 4724.695
3509.470, 4704.894
3511.399, 4700.969
3513.327, 4697.862
3515.256, 4690.132
3517.184, 4690.680
3519.113, 4697.572
3521.041, 4687.926
3522.969, 4694.979
3524.898, 4685.433
3526.826, 4697.857
3528.755, 4695.218
3530.683, 4689.177
3532.612, 4680.721
3534.540, 4681.959
3536.469, 4673.364
3538.397, 4681.092
3540.326, 4664.694
3542.254, 4665.068
3544.183, 4667.647
3546.111, 4663.819
3548.040, 4658.663
3549.968, 4652.216
3551.896, 4653.218
3553.825, 4659.628
3555.753, 4658.143
3557.682, 4653.573
3559.610, 4650.802
3561.539, 4651.633
3563.467, 4650.278
3565.396, 4650.410
3567.324, 4652.975
3569.253, 4651.318
3571.181, 4654.979
3573.110, 4655.771
3575.038, 4656.212
3576.967, 4659.704
3578.895, 4662.939
3580.823, 4665.290
3582.752, 4667.850
3584.680, 4671.239
3586.609, 4659.313
3588.537, 4643.813
3590.466, 4649.675
3592.394, 4660.569
3594.323, 4665.632
3596.251, 4671.055
3598.180, 4681.016
3600.108, 4682.267
3602.037, 4677.135
3603.965, 4676.041
3605.894, 4678.192
3607.822, 4683.774
3609.750, 4690.127
3611.679, 4699.242
3613.607, 4698.898
3615.536, 4701.219
3617.464, 4690.463
3619.393, 4697.691
3621.321, 4693.499
3623.250, 4688.700
3625.178, 4689.733
3627.107, 4694.204
3629.035, 4702.479
3630.964, 4706.053
3632.892, 4705.720
3634.821, 4707.023
3636.749, 4709.014
3638.677, 4711.571
3640.606, 4712.817
3642.534, 4707.948
3644.463, 4713.862
3646.391, 4712.945
3648.320, 4726.419
3650.248, 4717.746
3652.177, 4724.690
3654.105, 4731.235
3656.034, 4727.111
3657.962, 4726.370
3659.891, 4730.549
3661.819, 4720.386
3663.748, 4728.362
3665.676, 4719.412
3667.604, 4735.164
3669.533, 4733.859
3671.461, 4730.795
3673.390, 4728.766
3675.318, 4732.223
3677.247, 4738.634
3679.175, 4734.994
3681.104, 4731.272
3683.032, 4739.410
3684.961, 4742.471
3686.889, 4733.907
3688.818, 4735.496
3690.746, 4734.351
3692.675, 4732.909
3694.603, 4734.750
3696.531, 4735.053
3698.460, 4737.548
3700.388, 4738.941
3702.317, 4740.789
3704.245, 4742.947
3706.174, 4745.014
3708.102, 4747.768
3710.031, 4750.034
3711.959, 4751.700
3713.888, 4754.806
3715.816, 4749.414
3717.745, 4748.036
3719.673, 4736.506
3721.602, 4738.823
3723.530, 4728.984
3725.458, 4723.951
3727.387, 4732.710
3729.315, 4742.476
3731.244, 4751.345
3733.172, 4754.597
3735.101, 4755.182
3737.029, 4756.445
3738.958, 4759.178
3740.886, 4765.721
3742.815, 4772.123
3744.743, 4776.861
3746.672, 4761.365
3748.600, 4746.641
3750.529, 4764.933
3752.457, 4780.823
3754.385, 4777.467
3756.314, 4773.613
3758.242, 4770.704
3760.171, 4775.312
3762.099, 4781.111
3764.028, 4782.494
3765.956, 4780.335
3767.885, 4773.524
3769.813, 4768.944
3771.742, 4767.444
3773.670, 4771.081
3775.599, 4778.077
3777.527, 4790.992
3779.456, 4795.302
3781.384, 4785.445
3783.313, 4776.816
3785.241, 4771.929
3787.169, 4777.905
3789.098, 4786.450
3791.026, 4793.665
3792.955, 4794.271
3794.883, 4787.006
3796.812, 4783.900
3798.740, 4784.319
3800.669, 4787.656
3802.597, 4790.598
3804.526, 4790.828
3806.454, 4792.315
3808.383, 4795.080
3810.311, 4794.894
3812.240, 4796.553
3814.168, 4812.606
3816.096, 4820.846
3818.025, 4811.346
3819.953, 4805.850
3821.882, 4804.690
3823.810, 4802.374
3825.739, 4801.449
3827.667, 4806.174
3829.596, 4811.870
3831.524, 4819.267
3833.453, 4809.576
3835.381, 4793.516
3837.310, 4795.183
3839.238, 4802.788
3841.167, 4811.374
3843.095, 4814.778
3845.023, 4812.250
3846.952, 4814.052
3848.880, 4814.970
3850.809, 4803.616
3852.737, 4804.514
3854.666, 4805.364
3856.594, 4827.419
3858.523, 4814.823
3860.451, 4826.101
3862.380, 4839.642
3864.308, 4839.180
3866.237, 4837.931
3868.165, 4837.208
3870.094, 4831.330
3872.022, 4826.666
3873.950, 4834.945
3875.879, 4842.427
3877.807, 4842.533
3879.736, 4847.954
3881.664, 4854.820
3883.593, 4845.350
3885.521, 4834.034
3887.450, 4832.875
3889.378, 4833.075
3891.307, 4832.209
3893.235, 4833.577
3895.164, 4835.959
3897.092, 4835.032
3899.021, 4832.662
3900.949, 4834.988
3902.877, 4835.163
3904.806, 4837.438
3906.734, 4840.163
3908.663, 4842.045
3910.591, 4843.854
3912.520, 4849.272
3914.448, 4847.154
3916.377, 4850.933
3918.305, 4853.282
3920.234, 4846.085
3922.162, 4841.081
3924.091, 4841.544
3926.019, 4842.909
3927.948, 4842.373
3929.876, 4843.398
3931.804, 4847.068
3933.733, 4842.048
3935.661, 4841.174
3937.590, 4849.617
3939.518, 4850.912
3941.447, 4848.744
3943.375, 4846.602
3945.304, 4838.532
3947.232, 4840.958
3949.161, 4829.024
3951.089, 4840.507
3953.018, 4840.077
3954.946, 4835.273
3956.875, 4837.948
3958.803, 4838.448
3960.731, 4850.251
3962.660, 4844.427
3964.588, 4844.283
3966.517, 4849.216
3968.445, 4845.614
3970.374, 4838.752
3972.302, 4836.973
3974.231, 4839.313
3976.159, 4840.506
3978.088, 4838.460
3980.016, 4836.923
3981.945, 4843.511
3983.873, 4847.837
3985.802, 4847.990
3987.730, 4849.127
3989.658, 4847.119
3991.587, 4847.430
3993.515, 4845.589
3995.444, 4844.999
3997.372, 4842.599
3999.301, 4843.550
4001.229, 4844.500
4003.158, 4843.927
4005.086, 4846.502
4007.015, 4843.505
4008.943, 4845.539
4010.872, 4848.047
4012.800, 4850.071
4014.729, 4843.175
4016.657, 4838.538
4018.585, 4840.216
4020.514, 4843.373
4022.442, 4847.838
4024.371, 4857.687
4026.299, 4863.291
4028.228, 4863.138
4030.156, 4856.743
4032.085, 4860.714
4034.013, 4851.432
4035.942, 4859.440
4037.870, 4859.415
4039.799, 4854.881
4041.727, 4851.938
4043.656, 4851.053
4045.584, 4849.233
4047.512, 4849.162
4049.441, 4847.770
4051.369, 4851.308
4053.298, 4855.238
4055.226, 4859.613
4057.155, 4861.208
4059.083, 4856.727
4061.012, 4850.606
4062.940, 4852.523
4064.869, 4854.422
4066.797, 4850.236
4068.726, 4849.889
4070.654, 4854.351
4072.583, 4851.370
4074.511, 4847.155
4076.439, 4851.837
4078.368, 4850.181
4080.296, 4841.965
4082.225, 4838.154
4084.153, 4837.504
4086.082, 4843.735
4088.010, 4840.046
4089.939, 4829.217
4091.867, 4843.294
4093.796, 4855.673
4095.724, 4845.429
4097.653, 4837.812
4099.581, 4835.957
4101.510, 4834.914
4103.438, 4834.144
4105.367, 4832.519
4107.295, 4831.478
4109.224, 4837.927
4111.152, 4829.422
4113.081, 4825.969
4115.009, 4825.921
4116.938, 4838.467
4118.866, 4825.647
4120.794, 4827.987
4122.723, 4832.209
4124.651, 4827.804
4126.580, 4827.196
4128.508, 4830.768
4130.437, 4830.555
4132.365, 4830.563
4134.293, 4833.584
4136.222, 4836.334
4138.150, 4838.098
4140.079, 4838.794
4142.007, 4836.382
4143.936, 4826.482
4145.864, 4822.426
4147.793, 4824.214
4149.721, 4822.965
4151.650, 4823.952
4153.578, 4822.876
4155.507, 4823.757
4157.435, 4822.768
4159.364, 4825.466
4161.292, 4830.817
4163.221, 4832.067
4165.149, 4821.036
4167.078, 4806.240
4169.006, 4824.456
4170.935, 4838.441
4172.863, 4823.009
4174.792, 4816.334
4176.720, 4818.689
4178.648, 4823.769
4180.577, 4829.894
4182.505, 4827.128
4184.434, 4832.694
4186.362, 4821.264
4188.291, 4813.276
4190.219, 4807.860
4192.147, 4812.112
4194.076, 4811.524
4196.004, 4805.443
4197.933, 4803.643
4199.861, 4805.882
4201.790, 4809.580
4203.718, 4810.586
4205.647, 4811.468
4207.575, 4814.807
4209.504, 4815.022
4211.432, 4812.256
4213.361, 4803.864
4215.289, 4797.737
4217.218, 4808.009
4219.146, 4815.011
4221.075, 4816.708
4223.003, 4811.391
4224.932, 4803.159
4226.860, 4798.961
4228.789, 4800.132
4230.717, 4793.447
4232.646, 4798.099
4234.574, 4788.253
4236.502, 4792.099
4238.431, 4794.708
4240.359, 4794.097
4242.288, 4792.150
4244.216, 4788.102
4246.145, 4780.571
4248.073, 4776.495
4250.001, 4775.838
4251.930, 4778.478
4253.858, 4783.152
4255.787, 4789.787
4257.715, 4789.468
4259.644, 4784.807
4261.572, 4786.523
4263.501, 4784.250
4265.429, 4774.454
4267.358, 4776.063
4269.286, 4781.672
4271.215, 4773.668
4273.143, 4774.067
4275.072, 4786.121
4277.000, 4794.342
4278.929, 4796.313
4280.857, 4788.080
4282.786, 4781.206
4284.714, 4777.934
4286.643, 4783.898
4288.571, 4788.348
4290.500, 4783.654
4292.428, 4784.101
4294.356, 4788.214
4296.285, 4789.162
4298.213, 4786.453
4300.142, 4779.792
4302.070, 4775.888
4303.999, 4774.626
4305.927, 4776.757
4307.855, 4777.900
4309.784, 4777.354
4311.712, 4777.655
4313.641, 4773.494
4315.569, 4774.784
4317.498, 4771.406
4319.426, 4766.835
4321.355, 4782.154
4323.283, 4788.709
4325.212, 4769.915
4327.140, 4775.797
4329.069, 4790.143
4330.997, 4777.531
4332.926, 4769.445
4334.854, 4773.473
4336.783, 4787.190
4338.711, 4796.962
4340.640, 4788.494
4342.568, 4774.406
4344.497, 4760.769
4346.425, 4769.775
4348.354, 4775.890
4350.282, 4761.722
4352.210, 4764.160
4354.139, 4770.216
4356.067, 4751.192
4357.996, 4743.084
4359.924, 4752.621
4361.853, 4775.431
4363.781, 4787.632
4365.709, 4762.468
4367.638, 4756.035
4369.566, 4764.968
4371.495, 4768.146
4373.423, 4772.669
4375.352, 4781.244
4377.280, 4772.382
4379.209, 4759.454
4381.137, 4756.173
4383.066, 4759.177
4384.994, 4765.759
4386.923, 4764.742
4388.851, 4761.475
4390.780, 4758.608
4392.708, 4748.354
4394.637, 4737.445
4396.565, 4737.329
4398.494, 4737.909
4400.422, 4737.165
4402.351, 4738.482
4404.279, 4741.379
4406.208, 4740.686
4408.136, 4746.195
4410.064, 4747.439
4411.993, 4744.180
4413.921, 4738.592
4415.850, 4731.754
4417.778, 4737.285
4419.707, 4743.686
4421.635, 4741.823
4423.563, 4735.566
4425.492, 4729.042
4427.420, 4735.502
4429.349, 4734.638
4431.277, 4721.984
4433.206, 4720.195
4435.134, 4726.511
4437.063, 4741.872
4438.991, 4741.353
4440.920, 4729.930
4442.848, 4719.592
4444.777, 4719.410
4446.705, 4714.019
4448.634, 4712.196
4450.562, 4712.898
4452.491, 4711.991
4454.419, 4711.769
4456.348, 4713.696
4458.276, 4724.552
4460.205, 4729.805
4462.133, 4725.661
4464.062, 4721.828
4465.990, 4718.626
4467.918, 4717.450
4469.847, 4709.597
4471.775, 4699.736
4473.704, 4698.126
4475.632, 4693.948
4477.561, 4686.909
4479.489, 4689.343
4481.417, 4694.924
4483.346, 4700.579
4485.274, 4703.173
4487.203, 4703.093
4489.131, 4701.338
4491.060, 4695.970
4492.988, 4689.100
4494.917, 4693.656
4496.845, 4696.014
4498.774, 4689.286
4500.702, 4688.902
4502.631, 4690.920
4504.559, 4692.818
4506.488, 4688.666
4508.416, 4680.835
4510.345, 4674.839
4512.273, 4671.347
4514.202, 4670.690
4516.130, 4672.042
4518.059, 4683.984
4519.987, 4680.828
4521.916, 4686.510
4523.844, 4693.383
4525.772, 4687.976
4527.701, 4681.321
4529.629, 4675.192
4531.558, 4667.936
4533.486, 4661.887
4535.415, 4657.869
4537.343, 4666.590
4539.271, 4673.750
4541.200, 4664.975
4543.128, 4663.922
4545.057, 4668.542
4546.985, 4671.507
4548.914, 4675.503
4550.842, 4679.530
4552.771, 4669.364
4554.699, 4660.364
4556.628, 4659.717
4558.556, 4657.720
4560.485, 4653.567
4562.413, 4647.170
4564.342, 4630.963
4566.270, 4617.088
4568.199, 4637.319
4570.127, 4650.155
4572.056, 4647.733
4573.984, 4635.637
4575.913, 4629.304
4577.841, 4636.615
4579.770, 4642.003
4581.698, 4645.608
4583.626, 4647.725
4585.555, 4650.003
4587.483, 4650.839
4589.412, 4647.972
4591.340, 4638.644
4593.269, 4638.361
4595.197, 4629.625
4597.125, 4633.188
4599.054, 4629.983
4600.982, 4631.678
4602.911, 4629.030
4604.839, 4629.273
4606.768, 4620.938
4608.696, 4618.002
4610.625, 4609.567
4612.553, 4606.790
4614.482, 4610.166
4616.410, 4618.687
4618.339, 4622.694
4620.267, 4620.141
4622.196, 4620.768
4624.124, 4619.688
4626.053, 4614.906
4627.981, 4601.999
4629.910, 4591.937
4631.838, 4595.803
4633.767, 4598.110
4635.695, 4597.089
4637.624, 4597.148
4639.552, 4597.576
4641.480, 4592.462
4643.409, 4594.401
4645.337, 4590.812
4647.266, 4582.546
4649.194, 4576.525
4651.123, 4575.466
4653.051, 4582.023
4654.979, 4577.426
4656.908, 4572.854
4658.836, 4577.876
4660.765, 4574.534
4662.693, 4568.130
4664.622, 4567.688
4666.550, 4558.307
4668.479, 4549.826
4670.407, 4553.446
4672.336, 4578.415
4674.264, 4558.044
4676.193, 4577.414
4678.121, 4579.748
4680.050, 4553.235
4681.978, 4545.705
4683.907, 4544.832
4685.835, 4544.499
4687.764, 4543.092
4689.692, 4545.054
4691.621, 4556.359
4693.549, 4547.638
4695.478, 4536.693
4697.406, 4549.139
4699.334, 4552.639
4701.263, 4546.769
4703.191, 4537.686
4705.120, 4530.263
4707.048, 4524.519
4708.977, 4512.862
4710.905, 4509.640
4712.833, 4504.832
4714.762, 4505.188
4716.690, 4500.045
4718.619, 4506.150
4720.547, 4506.203
4722.476, 4503.420
4724.404, 4499.447
4726.333, 4497.613
4728.261, 4493.106
4730.190, 4490.859
4732.118, 4484.628
4734.047, 4479.782
4735.975, 4475.230
4737.904, 4473.749
4739.832, 4472.416
4741.761, 4472.418
4743.689, 4471.876
4745.618, 4470.428
4747.546, 4463.126
4749.475, 4459.274
4751.403, 4461.524
4753.332, 4456.215
4755.260, 4455.524
4757.188, 4454.719
4759.117, 4453.604
4761.045, 4458.655
4762.974, 4461.975
4764.902, 4453.692
4766.831, 4449.200
4768.759, 4454.222
4770.688, 4454.656
4772.616, 4452.989
4774.544, 4450.386
4776.473, 4452.146
4778.401, 4454.878
4780.330, 4456.838
4782.258, 4445.837
4784.187, 4436.149
4786.115, 4442.507
4788.044, 4444.070
4789.972, 4443.030
4791.901, 4442.254
4793.829, 4440.721
4795.758, 4438.167
4797.686, 4436.161
4799.615, 4430.673
4801.543, 4428.479
4803.472, 4421.466
4805.400, 4418.525
4807.329, 4414.540
4809.257, 4409.850
4811.186, 4409.776
4813.114, 4403.096
4815.042, 4406.099
4816.971, 4403.702
4818.899, 4397.597
4820.828, 4405.274
4822.756, 4411.442
4824.685, 4410.886
4826.613, 4414.834
4828.542, 4411.413
4830.470, 4411.728
4832.398, 4402.521
4834.327, 4390.576
4836.255, 4385.112
4838.184, 4377.470
4840.112, 4391.417
4842.041, 4371.004
4843.969, 4382.012
4845.898, 4390.366
4847.826, 4386.776
4849.755, 4380.011
4851.683, 4378.180
4853.612, 4383.463
4855.540, 4382.715
4857.469, 4374.785
4859.397, 4360.835
4861.326, 4352.837
4863.254, 4353.643
4865.183, 4363.521
4867.111, 4357.469
4869.040, 4351.954
4870.968, 4352.445
4872.896, 4340.956
4874.825, 4337.973
4876.753, 4350.591
4878.682, 4347.829
4880.610, 4341.419
4882.539, 4336.579
4884.467, 4328.805
4886.396, 4324.419
4888.324, 4325.174
4890.252, 4319.645
4892.181, 4314.453
4894.109, 4312.006
4896.038, 4317.032
4897.966, 4308.153
4899.895, 4306.680
4901.823, 4302.848
4903.752, 4296.093
4905.680, 4293.090
4907.609, 4286.482
4909.537, 4282.360
4911.466, 4281.768
4913.394, 4283.003
4915.323, 4284.832
4917.251, 4285.983
4919.180, 4275.813
4921.108, 4265.933
4923.037, 4259.417
4924.965, 4253.298
4926.894, 4248.564
4928.822, 4245.267
4930.750, 4241.640
4932.679, 4242.866
4934.607, 4248.997
4936.536, 4260.752
4938.464, 4254.877
4940.393, 4258.004
4942.321, 4254.869
4944.250, 4251.402
4946.178, 4230.598
4948.106, 4222.814
4950.035, 4220.454
4951.963, 4220.023
4953.892, 4215.356
4955.820, 4218.112
4957.749, 4224.515
4959.677, 4227.261
4961.606, 4222.684
4963.534, 4215.122
4965.463, 4210.144
4967.391, 4206.673
4969.320, 4205.218
4971.248, 4207.041
4973.177, 4205.426
4975.105, 4198.735
4977.034, 4185.646
4978.962, 4175.004
4980.891, 4168.099
4982.819, 4165.454
4984.748, 4159.457
4986.676, 4160.136
4988.604, 4171.392
4990.533, 4170.853
4992.461, 4161.577
4994.390, 4146.600
4996.318, 4142.682
4998.247, 4145.922
5000.175, 4152.206
5002.104, 4148.632
5004.032, 4143.644
5005.960, 4140.415
5007.889, 4136.366
5009.817, 4133.085
5011.746, 4127.400
5013.674, 4124.896
5015.603, 4117.370
5017.531, 4108.215
5019.460, 4105.773
5021.388, 4107.286
5023.317, 4107.086
5025.245, 4108.942
5027.174, 4103.698
5029.102, 4111.752
5031.031, 4111.936
5032.959, 4108.078
5034.888, 4098.939
5036.816, 4083.535
5038.745, 4082.714
5040.673, 4077.916
5042.602, 4066.387
5044.530, 4080.819
5046.458, 4084.155
5048.387, 4072.195
5050.315, 4075.508
5052.244, 4066.936
5054.172, 4052.534
5056.101, 4060.329
5058.029, 4056.189
5059.958, 4045.493
5061.886, 4039.609
5063.814, 4044.716
5065.743, 4049.787
5067.671, 4044.869
5069.600, 4044.635
5071.528, 4039.812
5073.457, 4036.471
5075.385, 4026.579
5077.314, 4026.991
5079.242, 4020.847
5081.171, 4012.186
5083.099, 4014.651
5085.028, 4008.623
5086.956, 4011.580
5088.885, 4005.906
5090.813, 4005.934
5092.742, 4009.309
5094.670, 4000.808
5096.599, 3990.493
5098.527, 3988.758
5100.456, 3982.057
5102.384, 3975.522
5104.313, 3972.937
5106.241, 3969.015
5108.169, 3970.752
5110.098, 3978.504
5112.026, 3985.667
5113.955, 3981.142
5115.883, 3986.010
5117.812, 3985.565
5119.740, 3984.051
5121.668, 3974.195
5123.597, 3967.933
5125.525, 3964.165
5127.454, 3961.322
5129.382, 3953.945
5131.311, 3956.039
5133.239, 3948.641
5135.168, 3935.313
5137.096, 3936.427
5139.025, 3929.188
5140.953, 3918.950
5142.882, 3928.638
5144.810, 3947.156
5146.739, 3958.797
5148.667, 3943.972
5150.596, 3933.734
5152.524, 3925.221
5154.453, 3916.493
5156.381, 3904.281
5158.310, 3900.503
5160.238, 3903.636
5162.167, 3887.426
5164.095, 3896.664
5166.023, 3887.651
5167.952, 3889.979
5169.880, 3880.398
5171.809, 3880.935
5173.737, 3884.222
5175.666, 3885.940
5177.594, 3882.031
5179.522, 3872.234
5181.451, 3868.711
5183.379, 3864.143
5185.308, 3858.886
5187.236, 3857.322
5189.165, 3858.658
5191.093, 3861.897
5193.022, 3867.057
5194.950, 3851.834
5196.879, 3842.177
5198.807, 3849.013
5200.736, 3838.899
5202.664, 3833.745
5204.593, 3836.720
5206.521, 3826.410
5208.450, 3832.679
5210.378, 3814.490
5212.307, 3816.286
5214.235, 3812.464
5216.164, 3812.741
5218.092, 3819.195
5220.021, 3807.824
5221.949, 3806.072
5223.877, 3809.257
5225.806, 3789.040
5227.734, 3788.656
5229.663, 3795.599
5231.591, 3795.802
5233.520, 3784.150
5235.448, 3775.634
5237.376, 3775.673
5239.305, 3784.053
5241.233, 3781.405
5243.162, 3771.267
5245.090, 3764.301
5247.019, 3764.825
5248.947, 3761.891
5250.876, 3749.556
5252.804, 3750.660
5254.733, 3749.729
5256.661, 3744.930
5258.590, 3746.199
5260.518, 3745.155
5262.447, 3740.899
5264.375, 3732.725
5266.304, 3735.539
5268.232, 3735.827
5270.161, 3728.642
5272.089, 3718.017
5274.018, 3715.557
5275.946, 3716.933
5277.875, 3713.666
5279.803, 3699.002
5281.731, 3687.116
5283.660, 3686.506
5285.588, 3683.540
5287.517, 3682.355
5289.445, 3682.385
5291.374, 3678.445
5293.302, 3681.945
5295.230, 3684.385
5297.159, 3677.289
5299.087, 3678.052
5301.016, 3669.681
5302.944, 3653.454
5304.873, 3648.998
5306.801, 3649.658
5308.730, 3650.883
5310.658, 3649.440
5312.587, 3647.649
5314.515, 3642.129
5316.444, 3633.974
5318.372, 3631.710
5320.301, 3634.865
5322.229, 3636.521
5324.158, 3629.553
5326.086, 3623.879
5328.015, 3612.793
5329.943, 3595.949
5331.872, 3581.982
5333.800, 3587.049
5335.729, 3596.792
5337.657, 3592.200
5339.585, 3582.009
5341.514, 3569.388
5343.442, 3558.411
5345.371, 3563.873
5347.299, 3549.186
5349.228, 3532.438
5351.156, 3541.446
5353.084, 3546.417
5355.013, 3547.397
5356.941, 3545.536
5358.870, 3545.693
5360.798, 3536.944
5362.727, 3527.748
5364.655, 3527.493
5366.584, 3519.110
5368.512, 3516.163
5370.441, 3518.635
5372.369, 3508.730
5374.298, 3509.380
5376.226, 3510.295
5378.155, 3501.832
5380.083, 3495.175
5382.012, 3487.618
5383.940, 3480.273
5385.869, 3477.692
5387.797, 3477.457
5389.726, 3478.773
5391.654, 3480.118
5393.583, 3459.511
5395.511, 3457.248
5397.439, 3465.179
5399.368, 3458.751
5401.296, 3463.471
5403.225, 3453.736
5405.153, 3447.812
5407.082, 3432.367
5409.010, 3430.966
5410.938, 3424.078
5412.867, 3417.876
5414.795, 3424.905
5416.724, 3430.124
5418.652, 3427.267
5420.581, 3412.705
5422.509, 3399.577
5424.438, 3395.596
5426.366, 3401.737
5428.295, 3391.021
5430.223, 3386.469
5432.152, 3384.551
5434.080, 3372.623
5436.009, 3376.031
5437.937, 3367.333
5439.866, 3361.085
5441.794, 3357.160
5443.723, 3348.544
5445.651, 3346.929
5447.580, 3343.523
5449.508, 3342.104
5451.437, 3334.919
5453.365, 3330.238
5455.293, 3327.405
5457.222, 3329.593
5459.150, 3318.566
5461.079, 3320.256
5463.007, 3311.362
5464.936, 3304.148
5466.864, 3298.781
5468.792, 3293.781
5470.721, 3289.867
5472.649, 3285.531
5474.578, 3284.821
5476.506, 3278.711
5478.435, 3277.866
5480.363, 3270.080
5482.292, 3266.805
5484.220, 3262.146
5486.149, 3258.321
5488.077, 3252.276
5490.006, 3251.974
5491.934, 3241.425
5493.863, 3236.443
5495.791, 3235.188
5497.720, 3231.816
5499.648, 3224.091
5501.577, 3218.175
5503.505, 3213.854
5505.434, 3208.048
5507.362, 3203.821
5509.291, 3201.641
5511.219, 3196.655
5513.147, 3198.565
5515.076, 3198.274
5517.004, 3197.250
5518.933, 3196.721
5520.861, 3192.349
5522.790, 3198.790
5524.718, 3195.098
5526.646, 3164.289
5528.575, 3158.044
5530.503, 3161.757
5532.432, 3163.469
5534.360, 3153.356
5536.289, 3147.896
5538.217, 3140.587
5540.146, 3130.081
5542.074, 3118.039
5544.003, 3114.047
5545.931, 3110.384
5547.860, 3106.978
5549.788, 3116.980
5551.717, 3112.027
5553.645, 3105.253
5555.574, 3104.342
5557.502, 3095.796
5559.431, 3089.734
5561.359, 3082.629
5563.288, 3071.900
5565.216, 3069.117
5567.145, 3073.458
5569.073, 3058.809
5571.001, 3060.724
5572.930, 3050.791
5574.858, 3048.882
5576.787, 3049.597
5578.715, 3039.070
5580.644, 3029.897
5582.572, 3034.552
5584.500, 3041.511
5586.429, 3025.443
5588.357, 3017.792
5590.286, 3008.275
5592.214, 2999.405
5594.143, 2997.702
5596.071, 2993.071
5598.000, 2995.278
5599.928, 2991.195
5601.857, 2989.236
5603.785, 2989.465
5605.714, 2984.324
5607.642, 2972.110
5609.571, 2958.535
5611.499, 2949.302
5613.428, 2948.448
5615.356, 2954.897
5617.285, 2959.237
5619.213, 2943.446
5621.142, 2929.906
5623.070, 2931.883
5624.999, 2946.208
5626.927, 2938.240
5628.855, 2921.849
5630.784, 2910.616
5632.712, 2906.744
5634.641, 2901.259
5636.569, 2895.949
5638.498, 2892.386
5640.426, 2886.786
5642.354, 2882.573
5644.283, 2880.103
5646.211, 2878.395
5648.140, 2868.996
5650.068, 2860.471
5651.997, 2858.040
5653.925, 2862.355
5655.854, 2860.684
5657.782, 2855.589
5659.711, 2846.745
5661.639, 2834.948
5663.568, 2826.590
5665.496, 2821.432
5667.425, 2819.383
5669.353, 2818.822
5671.282, 2811.201
5673.210, 2811.255
5675.139, 2807.712
5677.067, 2795.468
5678.996, 2792.294
5680.924, 2778.909
5682.853, 2774.032
5684.781, 2782.938
5686.709, 2779.266
5688.638, 2783.483
5690.566, 2778.367
5692.495, 2760.974
5694.423, 2751.526
5696.352, 2757.409
5698.280, 2756.658
5700.208, 2745.269
5702.137, 2739.487
5704.065, 2737.945
5705.994, 2734.033
5707.922, 2727.166
5709.851, 2721.177
5711.779, 2719.542
5713.708, 2711.904
5715.636, 2703.248
5717.565, 2708.311
5719.493, 2702.622
5721.422, 2705.250
5723.350, 2708.664
5725.279, 2697.722
5727.207, 2683.522
5729.136, 2679.629
5731.064, 2675.199
5732.993, 2660.794
5734.921, 2660.120
5736.850, 2662.538
5738.778, 2660.873
5740.707, 2653.867
5742.635, 2659.067
5744.563, 2641.112
5746.492, 2631.133
5748.420, 2639.508
5750.349, 2637.285
5752.277, 2620.305
5754.206, 2608.598
5756.134, 2606.300
5758.063, 2604.472
5759.991, 2613.142
5761.919, 2610.163
5763.848, 2599.364
5765.776, 2594.308
5767.705, 2587.511
5769.633, 2583.839
5771.562, 2579.437
5773.490, 2570.822
5775.419, 2565.345
5777.347, 2556.521
5779.276, 2550.742
5781.204, 2549.942
5783.133, 2542.248
5785.061, 2540.239
5786.990, 2538.790
5788.918, 2533.246
5790.847, 2531.382
5792.775, 2526.294
5794.704, 2526.698
5796.632, 2520.317
5798.561, 2521.575
5800.489, 2511.692
5802.417, 2510.318
5804.346, 2505.976
5806.274, 2491.994
5808.203, 2486.931
5810.131, 2487.819
5812.060, 2487.525
5813.988, 2481.826
5815.917, 2468.860
5817.845, 2462.584
5819.773, 2464.874
5821.702, 2466.311
5823.630, 2457.359
5825.559, 2455.299
5827.487, 2452.800
5829.416, 2448.419
5831.344, 2441.446
5833.273, 2425.984
5835.201, 2422.045
5837.130, 2416.949
5839.058, 2413.059
5840.987, 2409.804
5842.915, 2405.951
5844.844, 2404.722
5846.772, 2395.898
5848.701, 2394.657
5850.629, 2389.655
5852.558, 2382.010
5854.486, 2381.063
5856.415, 2374.343
5858.343, 2369.614
5860.271, 2360.188
5862.200, 2367.235
5864.128, 2374.028
5866.057, 2361.806
5867.985, 2355.539
5869.914, 2346.586
5871.842, 2342.374
5873.771, 2337.835
5875.699, 2340.007
5877.627, 2332.606
5879.556, 2332.955
5881.484, 2332.796
5883.413, 2321.327
5885.341, 2314.102
5887.270, 2319.860
5889.198, 2319.372
5891.127, 2307.019
5893.055, 2294.328
5894.984, 2289.040
5896.912, 2284.776
5898.841, 2281.129
5900.769, 2279.523
5902.698, 2280.514
5904.626, 2272.782
5906.555, 2265.812
5908.483, 2264.202
5910.412, 2266.006
5912.340, 2267.553
5914.269, 2261.113
5916.197, 2259.721
5918.125, 2265.416
5920.054, 2239.989
5921.982, 2233.879
5923.911, 2232.560
5925.839, 2230.011
5927.768, 2228.333
5929.696, 2228.876
5931.625, 2227.577
5933.553, 2219.517
5935.481, 2207.822
5937.410, 2208.780
5939.338, 2195.578
5941.267, 2193.457
5943.195, 2196.616
5945.124, 2193.939
5947.052, 2186.856
5948.981, 2191.326
5950.909, 2184.489
5952.838, 2171.276
5954.766, 2170.949
5956.695, 2151.750
5958.623, 2147.539
5960.552, 2148.085
5962.480, 2144.043
5964.409, 2134.794
5966.337, 2136.537
5968.266, 2145.336
5970.194, 2135.260
5972.123, 2132.843
5974.051, 2133.546
5975.979, 2126.853
5977.908, 2126.281
5979.836, 2123.616
5981.765, 2111.708
5983.693, 2116.874
5985.622, 2119.038
5987.550, 2105.244
5989.479, 2087.878
5991.407, 2084.725
5993.335, 2075.180
5995.264, 2081.354
5997.192, 2079.325
5999.121, 2062.716
6001.049, 2044.920
6002.978, 2043.725
6004.906, 2050.971
6006.835, 2045.945
6008.763, 2046.892
6010.692, 2049.304
6012.620, 2041.302
6014.549, 2030.662
6016.477, 2021.885
6018.406, 2018.446
6020.334, 2033.216
6022.263, 2032.855
6024.191, 2019.188
6026.120, 2005.324
6028.048, 2000.088
6029.977, 2006.047
6031.905, 2001.211
6033.833, 1994.263
6035.762, 1988.824
6037.690, 1984.655
6039.619, 1979.597
6041.547, 1963.241
6043.476, 1968.934
6045.404, 1971.726
6047.333, 1953.758
6049.261, 1956.253
6051.189, 1956.298
6053.118, 1955.703
6055.046, 1950.004
6056.975, 1938.662
6058.903, 1937.925
6060.832, 1922.695
6062.760, 1911.054
6064.689, 1911.022
6066.617, 1919.120
6068.546, 1919.362
6070.474, 1916.070
6072.403, 1908.718
6074.331, 1905.116
6076.260, 1905.056
6078.188, 1888.644
6080.117, 1890.888
6082.045, 1884.686
6083.974, 1877.946
6085.902, 1876.326
6087.831, 1867.639
6089.759, 1870.537
6091.688, 1863.695
6093.616, 1859.231
6095.544, 1858.991
6097.473, 1846.774
6099.401, 1848.142
6101.330, 1848.191
6103.258, 1842.940
6105.187, 1836.258
6107.115, 1833.961
6109.043, 1824.102
6110.972, 1820.378
6112.900, 1817.785
6114.829, 1814.833
6116.757, 1813.531
6118.686, 1807.654
6120.614, 1807.590
6122.543, 1796.900
6124.471, 1787.805
6126.400, 1783.773
6128.328, 1780.942
6130.257, 1780.696
6132.185, 1780.736
6134.114, 1771.751
6136.042, 1758.540
6137.971, 1764.993
6139.899, 1765.662
6141.828, 1774.236
6143.756, 1766.716
6145.685, 1766.341
6147.613, 1758.287
6149.542, 1755.926
6151.470, 1742.320
6153.398, 1734.747
6155.327, 1730.952
6157.255, 1724.437
6159.184, 1727.359
6161.112, 1718.694
6163.041, 1708.703
6164.969, 1710.114
6166.897, 1719.517
6168.826, 1717.137
6170.754, 1713.115
6172.683, 1706.582
6174.611, 1694.567
6176.540, 1687.824
6178.468, 1680.669
6180.397, 1673.579
6182.325, 1671.238
6184.254, 1665.473
6186.182, 1668.088
6188.111, 1671.040
6190.039, 1670.715
6191.968, 1666.523
6193.896, 1663.098
6195.825, 1653.644
6197.753, 1649.763
6199.682, 1642.471
6201.610, 1634.320
6203.539, 1636.799
6205.467, 1627.046
6207.396, 1620.288
6209.324, 1624.283
6211.252, 1622.116
6213.181, 1613.875
6215.109, 1620.385
6217.038, 1618.933
6218.966, 1609.010
6220.895, 1601.969
6222.823, 1599.767
6224.751, 1597.536
6226.680, 1590.973
6228.608, 1588.216
6230.537, 1587.585
6232.465, 1579.689
6234.394, 1571.034
6236.322, 1570.133
6238.251, 1562.474
6240.179, 1565.945
6242.108, 1552.733
6244.036, 1551.829
6245.965, 1547.492
6247.893, 1554.250
6249.822, 1553.034
6251.750, 1545.017
6253.679, 1538.417
6255.607, 1529.917
6257.536, 1532.037
6259.464, 1539.212
6261.393, 1540.209
6263.321, 1535.531
6265.250, 1529.158
6267.178, 1525.877
6269.106, 1521.265
6271.035, 1517.195
6272.963, 1516.917
6274.892, 1518.515
6276.820, 1504.660
6278.749, 1487.752
6280.677, 1488.146
6282.605, 1487.877
6284.534, 1482.600
6286.462, 1476.061
6288.391, 1472.916
6290.319, 1473.434
6292.248, 1467.342
6294.176, 1468.123
6296.105, 1468.656
6298.033, 1461.194
6299.962, 1460.854
6301.890, 1449.546
6303.819, 1452.413
6305.747, 1447.534
6307.676, 1440.068
6309.604, 1438.438
6311.533, 1432.103
6313.461, 1429.976
6315.390, 1423.924
6317.318, 1421.045
6319.247, 1420.571
6321.175, 1419.905
6323.104, 1415.093
6325.032, 1409.955
6326.960, 1405.373
6328.889, 1403.930
6330.817, 1400.598
6332.746, 1394.820
6334.674, 1391.514
6336.603, 1386.795
6338.531, 1383.189
6340.459, 1377.669
6342.388, 1378.020
6344.316, 1373.531
6346.245, 1366.458
6348.173, 1365.899
6350.102, 1360.894
6352.030, 1361.316
6353.959, 1355.442
6355.887, 1354.326
6357.816, 1353.778
6359.744, 1347.112
6361.673, 1350.495
6363.601, 1358.203
6365.530, 1349.717
6367.458, 1343.746
6369.387, 1333.299
6371.315, 1332.812
6373.244, 1320.134
6375.172, 1331.719
6377.101, 1317.010
6379.029, 1314.063
6380.958, 1318.444
6382.886, 1311.415
6384.814, 1313.611
6386.743, 1302.820
6388.671, 1299.668
6390.600, 1298.148
6392.528, 1295.344
6394.457, 1293.400
6396.385, 1293.860
6398.313, 1290.468
6400.242, 1286.186
6402.170, 1271.760
6404.099, 1274.004
6406.027, 1271.425
6407.956, 1263.077
6409.884, 1265.358
6411.813, 1265.772
6413.741, 1259.503
6415.670, 1250.463
6417.598, 1242.763
6419.527, 1239.839
6421.455, 1242.456
6423.384, 1244.292
6425.312, 1238.289
6427.241, 1236.446
6429.169, 1231.944
6431.098, 1230.888
6433.026, 1226.495
6434.955, 1225.080
6436.883, 1218.613
6438.812, 1220.631
6440.740, 1217.409
6442.668, 1212.133
6444.597, 1213.645
6446.525, 1213.967
6448.454, 1209.904
6450.382, 1202.313
6452.311, 1201.696
6454.239, 1203.256
6456.167, 1194.574
6458.096, 1182.696
6460.024, 1179.430
6461.953, 1181.905
6463.881, 1171.993
6465.810, 1180.896
6467.738, 1177.371
6469.667, 1174.291
6471.595, 1171.888
6473.524, 1163.879
6475.452, 1157.417
6477.381, 1157.371
6479.309, 1149.468
6481.238, 1151.973
6483.166, 1153.715
6485.095, 1153.705
6487.023, 1150.301
6488.952, 1149.299
6490.880, 1141.999
6492.809, 1142.271
6494.737, 1132.624
6496.666, 1126.201
6498.594, 1130.463
6500.522, 1134.102
6502.451, 1120.428
6504.379, 1120.544
6506.308, 1120.505
6508.236, 1116.678
6510.165, 1108.718
6512.093, 1105.660
6514.021, 1110.214
6515.950, 1113.505
6517.878, 1104.214
6519.807, 1097.121
6521.735, 1089.891
6523.664, 1095.696
6525.592, 1095.039
6527.521, 1087.438
6529.449, 1083.699
6531.378, 1082.782
6533.306, 1083.790
6535.235, 1081.330
6537.163, 1083.127
6539.092, 1079.892
6541.020, 1072.230
6542.949, 1065.189
6544.877, 1061.910
6546.806, 1055.565
6548.734, 1053.606
6550.663, 1050.151
6552.591, 1049.294
6554.520, 1055.257
6556.448, 1051.677
6558.376, 1043.064
6560.305, 1045.603
6562.233, 1038.369
6564.162, 1046.125
6566.090, 1038.391
6568.019, 1036.969
6569.947, 1038.344
6571.875, 1033.319
6573.804, 1025.020
6575.732, 1022.916
6577.661, 1020.240
6579.589, 1016.689
6581.518, 1017.041
6583.446, 1014.042
6585.375, 1009.607
6587.303, 1010.453
6589.232, 1007.107
6591.160, 1002.578
6593.089, 996.1324
6595.017, 996.5014
6596.946, 993.5867
6598.874, 988.1520
6600.803, 988.0126
6602.731, 990.2626
6604.660, 988.3018
6606.588, 985.0922
6608.517, 986.3705
6610.445, 982.1917
6612.374, 980.4213
6614.302, 981.3392
6616.230, 974.8201
6618.159, 967.5765
6620.087, 969.5779
6622.016, 975.9240
6623.944, 961.8974
6625.873, 956.0628
6627.801, 956.9244
6629.729, 964.3497
##END=



