##NAMES=Ferrimolybdite
##RRUFFID=R050542
##IDEAL CHEMISTRY=Fe^3+^_2_(Mo^6+^O_4_)_3_·7H_2_O
##LOCALITY=Alicante mine, Colorado, USA
##OWNER=RRUFF
##SOURCE=University of Arizona Mineral Museum
##DESCRIPTION=Mat of parallel fibrous yellow-green crystals
##STATUS=The identification of this mineral has been confirmed only by chemical analysis
##URL=https://www.rruff.net/odr/rruff_sample/R050542
##MEASURED CHEMISTRY=Fe^3+^_2.00_(Mo_1.00_O_4_)_3_·11H_2_O ; H2O estimated by difference
##DIFFRACTION SAMPLE DESCRIPTION=Powder
##FILETYPE=Raman Processed
##RAMAN WAVELENGTH=532

164.3577, 736.5421
166.2862, 750.0992
168.2147, 761.5860
170.1431, 770.1699
172.0716, 775.3680
174.0001, 781.7214
175.9285, 789.5740
177.8570, 798.4834
179.7855, 807.9493
181.7139, 818.6111
183.6424, 829.2648
185.5709, 839.3653
187.4993, 848.9492
189.4278, 859.2460
191.3563, 870.5855
193.2847, 882.4846
195.2132, 894.5727
197.1417, 906.7601
199.0701, 919.1938
200.9986, 931.7567
202.9271, 944.4266
204.8555, 957.8838
206.7840, 972.2052
208.7125, 987.3005
210.6409, 1003.084
212.5694, 1019.409
214.4979, 1036.557
216.4263, 1054.670
218.3548, 1073.562
220.2833, 1092.812
222.2117, 1113.995
224.1402, 1134.421
226.0687, 1152.351
227.9971, 1168.398
229.9256, 1180.201
231.8541, 1186.814
233.7825, 1187.893
235.7110, 1188.035
237.6395, 1189.851
239.5679, 1188.777
241.4964, 1181.976
243.4249, 1164.960
245.3533, 1147.097
247.2818, 1128.636
249.2103, 1109.823
251.1387, 1091.417
253.0672, 1074.807
254.9957, 1057.571
256.9242, 1037.853
258.8526, 1013.129
260.7811, 990.3567
262.7096, 972.0173
264.6380, 956.3567
266.5665, 939.2661
268.4950, 918.0226
270.4234, 897.2863
272.3519, 879.4838
274.2804, 864.8275
276.2088, 850.7006
278.1373, 836.7695
280.0658, 823.1865
281.9942, 810.2043
283.9227, 796.4756
285.8512, 784.5720
287.7796, 775.7706
289.7081, 769.7645
291.6366, 764.8926
293.5650, 760.7658
295.4935, 757.5712
297.4220, 755.6953
299.3504, 755.2800
301.2789, 755.4316
303.2074, 755.5071
305.1358, 755.4274
307.0643, 757.7376
308.9928, 763.8204
310.9212, 770.9872
312.8497, 777.2269
314.7782, 781.9160
316.7066, 788.0898
318.6351, 796.7545
320.5636, 807.4312
322.4920, 817.8917
324.4205, 827.6722
326.3490, 837.4549
328.2774, 847.6942
330.2059, 858.5790
332.1344, 869.7623
334.0628, 882.4482
335.9913, 895.2039
337.9198, 905.2368
339.8482, 911.6253
341.7767, 917.5518
343.7052, 924.5879
345.6336, 933.0901
347.5621, 939.3936
349.4906, 943.3111
351.4190, 945.2332
353.3475, 944.9601
355.2760, 941.7819
357.2044, 937.9779
359.1329, 934.5600
361.0614, 931.0414
362.9898, 926.3956
364.9183, 920.7783
366.8468, 914.3066
368.7752, 906.7372
370.7037, 897.8851
372.6322, 889.5924
374.5606, 882.6210
376.4891, 875.8511
378.4176, 867.9272
380.3460, 858.0234
382.2745, 849.7081
384.2030, 844.0333
386.1314, 840.4514
388.0599, 836.8222
389.9884, 832.5495
391.9168, 829.3632
393.8453, 827.6121
395.7738, 827.2190
397.7022, 827.9404
399.6307, 830.0572
401.5592, 833.2721
403.4876, 836.2336
405.4161, 837.7185
407.3446, 839.8482
409.2730, 845.3912
411.2015, 854.4979
413.1300, 863.8646
415.0584, 872.7087
416.9869, 881.6241
418.9154, 890.9211
420.8438, 900.7723
422.7723, 911.6120
424.7008, 924.3063
426.6292, 936.8096
428.5577, 946.4026
430.4862, 953.7628
432.4146, 958.1615
434.3431, 957.2625
436.2716, 951.5930
438.2000, 945.3245
440.1285, 940.3894
442.0570, 935.2821
443.9854, 928.3544
445.9139, 918.9739
447.8424, 908.0306
449.7708, 896.5466
451.6993, 884.1755
453.6278, 870.3397
455.5562, 854.0858
457.4847, 837.1017
459.4132, 819.6874
461.3416, 802.0031
463.2701, 784.7981
465.1986, 768.4454
467.1270, 752.4293
469.0555, 736.0111
470.9840, 718.5481
472.9124, 702.4690
474.8409, 688.7219
476.7694, 676.0646
478.6978, 663.1331
480.6263, 649.5659
482.5548, 636.6222
484.4832, 625.1873
486.4117, 615.3249
488.3402, 606.0652
490.2686, 596.1246
492.1971, 587.1123
494.1256, 580.6915
496.0540, 576.8348
497.9825, 573.3790
499.9110, 569.3510
501.8394, 565.0515
503.7679, 560.6451
505.6964, 556.0364
507.6248, 552.0471
509.5533, 548.8242
511.4818, 546.7623
513.4103, 546.1603
515.3387, 548.1595
517.2672, 549.8409
519.1957, 551.2546
521.1241, 553.0556
523.0526, 555.8855
524.9811, 559.3674
526.9095, 562.5798
528.8380, 565.7859
530.7665, 569.2411
532.6949, 573.7023
534.6234, 578.6627
536.5519, 583.7422
538.4803, 589.0590
540.4088, 594.8898
542.3373, 600.7537
544.2657, 606.4598
546.1942, 611.7742
548.1227, 616.3816
550.0511, 620.3075
551.9796, 624.1869
553.9081, 627.7202
555.8365, 630.6279
557.7650, 632.5352
559.6935, 632.9504
561.6219, 632.8019
563.5504, 633.2746
565.4789, 634.3538
567.4073, 633.7767
569.3358, 629.5781
571.2643, 624.5244
573.1927, 620.5682
575.1212, 618.8287
577.0497, 618.5706
578.9781, 619.4128
580.9066, 619.8372
582.8351, 618.5862
584.7635, 615.5732
586.6920, 612.5175
588.6205, 610.2685
590.5490, 608.9791
592.4774, 608.8621
594.4059, 609.4812
596.3344, 608.7674
598.2628, 606.8661
600.1913, 604.3049
602.1198, 601.2729
604.0482, 596.4866
605.9767, 592.3802
607.9052, 590.0579
609.8336, 589.4892
611.7621, 588.9385
613.6906, 588.0125
615.6190, 586.2928
617.5475, 583.8370
619.4760, 581.4020
621.4044, 580.1003
623.3329, 579.5084
625.2614, 579.6375
627.1898, 580.8622
629.1183, 583.2140
631.0468, 585.4244
632.9752, 586.6083
634.9037, 587.7079
636.8322, 589.5245
638.7606, 592.6533
640.6891, 595.7282
642.6176, 598.2632
644.5460, 600.8586
646.4745, 604.1024
648.4030, 608.2471
650.3314, 613.6833
652.2599, 620.9415
654.1884, 629.0139
656.1168, 636.6511
658.0453, 642.7053
659.9738, 649.0369
661.9022, 655.6643
663.8307, 662.8392
665.7592, 670.3584
667.6876, 680.4540
669.6161, 691.2122
671.5446, 701.0453
673.4730, 708.6574
675.4015, 716.4155
677.3300, 726.9166
679.2584, 738.9167
681.1869, 752.1367
683.1154, 764.6550
685.0438, 777.2702
686.9723, 790.9577
688.9008, 805.0004
690.8292, 819.0419
692.7577, 833.7411
694.6862, 848.8203
696.6146, 862.8604
698.5431, 876.5160
700.4716, 890.2282
702.4000, 905.2241
704.3285, 921.3125
706.2570, 938.8409
708.1854, 956.5579
710.1139, 973.3075
712.0424, 989.6866
713.9708, 1008.363
715.8993, 1030.667
717.8278, 1051.463
719.7562, 1067.394
721.6847, 1080.588
723.6132, 1095.516
725.5416, 1112.087
727.4701, 1127.833
729.3986, 1141.586
731.3270, 1155.447
733.2555, 1169.267
735.1840, 1182.294
737.1124, 1194.837
739.0409, 1208.462
740.9694, 1224.206
742.8978, 1238.051
744.8263, 1249.118
746.7548, 1258.445
748.6832, 1266.705
750.6117, 1274.749
752.5402, 1283.126
754.4686, 1293.183
756.3971, 1301.969
758.3256, 1307.698
760.2540, 1309.962
762.1825, 1311.978
764.1110, 1314.384
766.0394, 1316.146
767.9679, 1316.128
769.8964, 1313.609
771.8248, 1311.300
773.7533, 1310.984
775.6818, 1311.099
777.6102, 1309.034
779.5387, 1303.343
781.4672, 1298.513
783.3956, 1295.340
785.3241, 1292.267
787.2526, 1287.932
789.1810, 1282.299
791.1095, 1276.819
793.0380, 1271.893
794.9664, 1266.829
796.8949, 1261.348
798.8234, 1256.342
800.7518, 1250.945
802.6803, 1244.865
804.6088, 1238.399
806.5372, 1232.174
808.4657, 1226.266
810.3942, 1220.357
812.3226, 1214.001
814.2511, 1208.095
816.1796, 1202.712
818.1080, 1197.291
820.0365, 1193.400
821.9650, 1191.915
823.8934, 1191.553
825.8219, 1190.992
827.7504, 1189.767
829.6788, 1189.307
831.6073, 1191.458
833.5358, 1193.495
835.4642, 1193.744
837.3927, 1192.253
839.3212, 1191.250
841.2496, 1191.691
843.1781, 1191.344
845.1066, 1188.820
847.0350, 1184.748
848.9635, 1180.766
850.8920, 1177.693
852.8204, 1173.458
854.7489, 1167.071
856.6774, 1158.745
858.6058, 1150.994
860.5343, 1144.133
862.4628, 1137.283
864.3912, 1129.506
866.3197, 1121.653
868.2482, 1115.699
870.1766, 1113.035
872.1051, 1110.717
874.0336, 1107.283
875.9620, 1103.419
877.8905, 1102.023
879.8190, 1103.886
881.7474, 1106.850
883.6759, 1110.006
885.6044, 1114.002
887.5328, 1120.063
889.4613, 1128.774
891.3898, 1137.877
893.3182, 1146.364
895.2467, 1154.981
897.1752, 1164.793
899.1036, 1175.871
901.0321, 1187.898
902.9606, 1201.190
904.8890, 1215.914
906.8175, 1231.247
908.7460, 1246.847
910.6744, 1263.124
912.6029, 1279.773
914.5314, 1297.911
916.4598, 1318.088
918.3883, 1341.257
920.3168, 1363.715
922.2452, 1385.399
924.1737, 1406.351
926.1022, 1426.195
928.0306, 1444.557
929.9591, 1463.045
931.8876, 1482.223
933.8160, 1501.503
935.7445, 1520.615
937.6730, 1539.703
939.6014, 1558.568
941.5299, 1577.938
943.4584, 1596.760
945.3868, 1615.342
947.3153, 1632.103
949.2438, 1644.734
951.1722, 1655.357
953.1007, 1659.102
955.0292, 1655.027
956.9576, 1642.779
958.8861, 1617.467
960.8146, 1574.846
962.7430, 1523.563
964.6715, 1464.691
966.6000, 1399.797
968.5284, 1332.397
970.4569, 1261.498
972.3854, 1191.426
974.3138, 1121.429
976.2423, 1054.147
978.1708, 991.7629
980.0992, 934.4698
982.0277, 881.6309
983.9562, 833.8271
985.8846, 790.1679
987.8131, 749.7117
989.7416, 712.4921
991.6700, 678.8959
993.5985, 649.1023
995.5270, 623.1647
997.4554, 601.1784
999.3839, 582.0297
1001.312, 564.4283
1003.241, 548.0029
1005.169, 534.6339
1007.098, 525.2665
1009.026, 518.6285
1010.955, 512.9621
1012.883, 508.1730
1014.812, 503.4397
1016.740, 498.5711
1018.669, 494.0286
1020.597, 490.0609
1022.526, 486.1473
1024.454, 482.8221
1026.382, 480.5495
1028.311, 479.1637
1030.239, 477.8920
1032.168, 476.0211
1034.096, 473.9912
1036.025, 471.8299
1037.953, 470.4588
1039.882, 470.3504
1041.810, 471.3307
1043.739, 471.9207
1045.667, 472.0125
1047.596, 471.5592
1049.524, 470.2199
1051.453, 468.5865
1053.381, 467.5898
1055.309, 467.1753
1057.238, 466.8073
1059.166, 466.6092
1061.095, 466.2574
1063.023, 465.1140
1064.952, 463.6543
1066.880, 462.7326
1068.809, 462.2886
1070.737, 461.7673
1072.666, 461.3381
1074.594, 461.6041
1076.523, 461.7179
1078.451, 461.1216
1080.380, 460.3212
1082.308, 460.2355
1084.236, 461.4389
1086.165, 462.0708
1088.093, 460.9840
1090.022, 459.5644
1091.950, 458.7025
1093.879, 459.0753
1095.807, 460.3138
1097.736, 461.5624
1099.664, 462.1051
1101.593, 461.7937
1103.521, 461.3254
1105.450, 461.1150
1107.378, 461.6909
1109.307, 462.6049
1111.235, 463.0684
1113.163, 462.4210
1115.092, 460.5140
1117.020, 458.6718
1118.949, 457.6827
1120.877, 459.1900
1122.806, 461.5157
1124.734, 463.0107
1126.663, 462.3188
1128.591, 461.2244
1130.520, 461.5834
1132.448, 462.4849
1134.377, 462.9709
1136.305, 462.9982
1138.234, 463.7648
1140.162, 466.1919
1142.090, 467.9057
1144.019, 467.8329
1145.947, 466.9235
1147.876, 466.2489
1149.804, 466.3536
1151.733, 466.6266
1153.661, 465.4579
1155.590, 463.2539
1157.518, 461.1382
1159.447, 460.2471
1161.375, 459.7054
1163.304, 460.5402
1165.232, 460.4303
1167.161, 461.4651
1169.089, 462.8546
1171.017, 463.3876
1172.946, 462.9472
1174.874, 462.9552
1176.803, 462.7019
1178.731, 461.7254
1180.660, 460.9697
1182.588, 461.0247
1184.517, 461.1281
1186.445, 460.0328
1188.374, 459.3823
1190.302, 459.9482
1192.231, 460.9893
1194.159, 461.9066
1196.088, 463.1643
1198.016, 464.2886
1199.944, 464.0179
1201.873, 462.8990
1203.801, 461.7284
1205.730, 461.2662
1207.658, 462.1188
1209.587, 464.2807
1211.515, 466.0290
1213.444, 466.4853
1215.372, 466.2872
1217.301, 466.4240
1219.229, 467.1535
1221.158, 467.5238
1223.086, 467.2683
1225.015, 467.4362
1226.943, 467.2319
1228.871, 466.2608
1230.800, 465.5089
1232.728, 467.4326
1234.657, 469.3322
1236.585, 468.6032
1238.514, 466.9662
1240.442, 466.9785
1242.371, 469.0859
1244.299, 470.5995
1246.228, 471.6037
1248.156, 472.8804
1250.085, 473.5146
1252.013, 473.3506
1253.942, 473.2784
1255.870, 473.9909
1257.798, 474.8539
1259.727, 474.6708
1261.655, 473.8922
1263.584, 473.6913
1265.512, 474.4710
1267.441, 475.2874
1269.369, 475.1807
1271.298, 474.8228
1273.226, 474.6450
1275.155, 474.7943
1277.083, 475.9896
1279.012, 479.0343
1280.940, 480.9880
1282.869, 480.0328
1284.797, 478.7921
1286.725, 478.7911
1288.654, 479.9794
1290.582, 481.5797
1292.511, 483.7400
1294.439, 484.8432
1296.368, 483.3288
1298.296, 480.9296
1300.225, 480.2980
1302.153, 481.8665
1304.082, 483.7113
1306.010, 485.2109
1307.939, 485.5092
1309.867, 485.0728
1311.796, 484.6642
1313.724, 485.0109
1315.652, 486.6620
1317.581, 487.4019
1319.509, 485.2225
1321.438, 483.3950
1323.366, 484.8310
1325.295, 488.4069
1327.223, 490.1825
1329.152, 489.4780
1331.080, 489.0301
1333.009, 489.3083
1334.937, 490.0117
1336.866, 490.8885
1338.794, 491.6026
1340.723, 492.3517
1342.651, 493.6219
1344.579, 494.2473
1346.508, 492.5490
1348.436, 490.7545
1350.365, 491.2915
1352.293, 494.3662
1354.222, 496.1454
1356.150, 495.3430
1358.079, 494.4908
1360.007, 494.4378
1361.936, 495.0115
1363.864, 495.6810
1365.793, 496.3640
1367.721, 497.5011
1369.650, 499.7964
1371.578, 501.3914
1373.506, 501.1698
1375.435, 499.8457
1377.363, 499.3240
1379.292, 499.8185
1381.220, 501.2360
1383.149, 504.3151
1385.077, 506.9596
1387.006, 508.4557
1388.934, 509.2613
1390.863, 508.9788
1392.791, 506.9229
1394.720, 506.0278
1396.648, 507.6527
1398.577, 510.8219
1400.505, 514.5480
1402.433, 517.6729
1404.362, 518.8058
1406.290, 517.2807
1408.219, 516.5654
1410.147, 517.8996
1412.076, 519.5091
1414.004, 520.2198
1415.933, 520.2526
1417.861, 520.7001
1419.790, 522.5435
1421.718, 523.3355
1423.647, 521.3353
1425.575, 519.5543
1427.504, 520.3937
1429.432, 523.2444
1431.360, 525.4999
1433.289, 527.1376
1435.217, 528.3131
1437.146, 528.9728
1439.074, 529.1851
1441.003, 528.8996
1442.931, 528.4012
1444.860, 528.0477
1446.788, 527.8494
1448.717, 527.8334
1450.645, 528.0138
1452.574, 528.3470
1454.502, 528.8571
1456.431, 529.5364
1458.359, 530.4190
1460.287, 531.6404
1462.216, 532.2848
1464.144, 531.4057
1466.073, 530.8076
1468.001, 531.6783
1469.930, 533.5804
1471.858, 535.3134
1473.787, 537.0671
1475.715, 538.1682
1477.644, 537.1980
1479.572, 536.9619
1481.501, 539.4313
1483.429, 543.2016
1485.358, 545.1233
1487.286, 543.5410
1489.214, 543.7398
1491.143, 547.8139
1493.071, 551.0401
1495.000, 551.2311
1496.928, 549.7266
1498.857, 548.5493
1500.785, 547.5873
1502.714, 547.9524
1504.642, 550.7288
1506.571, 553.5318
1508.499, 555.8824
1510.428, 557.7482
1512.356, 558.6197
1514.285, 558.3572
1516.213, 558.8454
1518.141, 560.7836
1520.070, 562.2816
1521.998, 561.9229
1523.927, 561.5828
1525.855, 563.8065
1527.784, 567.7534
1529.712, 569.1014
1531.641, 566.7271
1533.569, 564.7664
1535.498, 564.0425
1537.426, 564.4252
1539.355, 566.3558
1541.283, 569.2751
1543.212, 571.4284
1545.140, 572.4846
1547.068, 574.1644
1548.997, 578.2660
1550.925, 581.1883
1552.854, 579.6874
1554.782, 576.2538
1556.711, 576.0771
1558.639, 579.6106
1560.568, 582.7115
1562.496, 585.0588
1564.425, 586.7302
1566.353, 588.0848
1568.282, 588.7552
1570.210, 587.4883
1572.139, 584.1401
1574.067, 584.3619
1575.995, 590.9523
1577.924, 595.9456
1579.852, 597.0662
1581.781, 597.0585
1583.709, 597.1222
1585.638, 597.4543
1587.566, 598.9382
1589.495, 602.6779
1591.423, 604.7368
1593.352, 603.2838
1595.280, 602.6146
1597.209, 604.8553
1599.137, 608.5910
1601.066, 612.0566
1602.994, 615.4182
1604.922, 616.8651
1606.851, 614.5045
1608.779, 612.7813
1610.708, 612.8900
1612.636, 613.5671
1614.565, 614.0392
1616.493, 614.3765
1618.422, 614.5734
1620.350, 615.1017
1622.279, 614.7043
1624.207, 611.9327
1626.136, 609.8273
1628.064, 609.8675
1629.993, 611.1470
1631.921, 612.5388
1633.849, 614.0061
1635.778, 614.5514
1637.706, 613.6794
1639.635, 612.7604
1641.563, 612.1658
1643.492, 611.6790
1645.420, 610.9963
1647.349, 610.3258
1649.277, 610.7584
1651.206, 612.7111
1653.134, 613.6664
1655.063, 612.2743
1656.991, 611.1709
1658.920, 611.3072
1660.848, 612.1424
1662.776, 613.4272
1664.705, 615.0825
1666.633, 615.8107
1668.562, 614.9995
1670.490, 614.9804
1672.419, 616.2158
1674.347, 618.1683
1676.276, 620.6711
1678.204, 623.5137
1680.133, 626.9860
1682.061, 631.0870
1683.990, 632.4416
1685.918, 629.4520
1687.847, 626.9504
1689.775, 626.7502
1691.703, 627.0289
1693.632, 626.0611
1695.560, 627.2247
1697.489, 625.7917
1699.417, 629.2716
1701.346, 631.9248
1703.274, 633.3009
1705.203, 634.0264
1707.131, 633.8215
1709.060, 633.4799
1710.988, 633.3086
1712.917, 633.5521
1714.845, 635.1909
1716.774, 638.5139
1718.702, 641.2079
1720.630, 643.0903
1722.559, 644.0333
1724.487, 642.7989
1726.416, 641.5579
1728.344, 643.2001
1730.273, 646.7735
1732.201, 647.6201
1734.130, 644.8685
1736.058, 643.6140
1737.987, 645.8978
1739.915, 647.8934
1741.844, 647.4056
1743.772, 646.7266
1745.701, 648.5949
1747.629, 652.3987
1749.557, 654.8467
1751.486, 655.5580
1753.414, 656.4230
1755.343, 657.7820
1757.271, 659.0613
1759.200, 659.8020
1761.128, 660.5167
1763.057, 661.8387
1764.985, 663.5858
1766.914, 664.8913
1768.842, 665.6544
1770.771, 666.5300
1772.699, 668.4670
1774.628, 669.4281
1776.556, 667.4424
1778.484, 665.4564
1780.413, 666.0648
1782.341, 668.6974
1784.270, 671.7255
1786.198, 675.7015
1788.127, 678.0153
1790.055, 677.7052
1791.984, 677.2754
1793.912, 677.1267
1795.841, 677.4169
1797.769, 678.5176
1799.698, 680.1697
1801.626, 681.5383
1803.555, 682.3934
1805.483, 683.8523
1807.411, 686.9694
1809.340, 688.7656
1811.268, 687.5161
1813.197, 686.2306
1815.125, 686.4333
1817.054, 687.6766
1818.982, 689.7332
1820.911, 692.7310
1822.839, 693.9830
1824.768, 692.4589
1826.696, 691.9926
1828.625, 694.0054
1830.553, 695.9354
1832.482, 697.0801
1834.410, 697.4955
1836.339, 696.8080
1838.267, 695.3426
1840.195, 695.0580
1842.124, 696.2825
1844.052, 696.3186
1845.981, 694.2344
1847.909, 692.4241
1849.838, 691.2225
1851.766, 691.0305
1853.695, 692.8676
1855.623, 695.3990
1857.552, 696.3105
1859.480, 695.6945
1861.409, 694.7276
1863.337, 693.1660
1865.266, 692.7181
1867.194, 694.2230
1869.122, 696.2055
1871.051, 699.4426
1872.979, 701.6340
1874.908, 699.3694
1876.836, 694.4666
1878.765, 692.4133
1880.693, 693.5181
1882.622, 693.3148
1884.550, 690.5566
1886.479, 688.2992
1888.407, 686.8787
1890.336, 686.6271
1892.264, 688.8765
1894.193, 691.6760
1896.121, 692.4551
1898.049, 691.3923
1899.978, 689.6093
1901.906, 685.9474
1903.835, 684.4870
1905.763, 687.5853
1907.692, 689.3572
1909.620, 687.2073
1911.549, 684.7865
1913.477, 684.9376
1915.406, 686.0237
1917.334, 685.2141
1919.263, 682.5836
1921.191, 680.5148
1923.120, 678.7391
1925.048, 678.6362
1926.976, 681.8936
1928.905, 684.1122
1930.833, 683.2389
1932.762, 681.5969
1934.690, 680.4453
1936.619, 679.4891
1938.547, 677.8665
1940.476, 675.8955
1942.404, 675.9230
1944.333, 678.5062
1946.261, 679.9737
1948.190, 679.2436
1950.118, 678.5383
1952.047, 678.3512
1953.975, 678.8347
1955.904, 680.8937
1957.832, 683.1510
1959.760, 683.0457
1961.689, 680.9795
1963.617, 680.6441
1965.546, 682.7639
1967.474, 683.7513
1969.403, 681.8688
1971.331, 681.2388
1973.260, 684.1335
1975.188, 686.6832
1977.117, 686.2593
1979.045, 684.7867
1980.974, 684.6052
1982.902, 685.3953
1984.831, 685.6095
1986.759, 685.0120
1988.688, 685.8054
1990.616, 689.4196
1992.544, 690.8748
1994.473, 687.1044
1996.401, 684.3635
1998.330, 686.1898
2000.258, 689.2740
2002.187, 690.9908
2004.115, 692.0446
2006.044, 694.2732
2007.972, 697.2645
2009.901, 697.5742
2011.829, 694.2712
2013.758, 692.7299
2015.686, 695.0411
2017.615, 696.9854
2019.543, 697.4077
2021.471, 697.2769
2023.400, 696.2225
2025.328, 695.6563
2027.257, 698.1978
2029.185, 702.5441
2031.114, 703.6677
2033.042, 700.7306
2034.971, 699.2943
2036.899, 699.9083
2038.828, 700.5390
2040.756, 701.5184
2042.685, 701.6928
2044.613, 699.9713
2046.542, 698.3837
2048.470, 698.6629
2050.398, 699.5350
2052.327, 698.7747
2054.255, 697.2441
2056.184, 697.8902
2058.112, 700.7334
2060.041, 703.5197
2061.969, 706.4122
2063.898, 707.7044
2065.826, 705.4844
2067.755, 703.8214
2069.683, 704.4019
2071.612, 705.5477
2073.540, 705.9655
2075.469, 706.4481
2077.397, 708.7563
2079.325, 708.7010
2081.254, 708.7703
2083.182, 709.7509
2085.111, 708.2712
2087.039, 708.4122
2088.968, 709.2016
2090.896, 711.2057
2092.825, 712.3632
2094.753, 711.6204
2096.682, 710.3350
2098.610, 708.3343
2100.539, 706.9748
2102.467, 708.4379
2104.396, 711.3242
2106.324, 712.4236
2108.252, 711.8242
2110.181, 711.3402
2112.109, 710.9252
2114.038, 710.9374
2115.966, 711.6351
2117.895, 712.4805
2119.823, 714.1547
2121.752, 715.0057
2123.680, 712.2844
2125.609, 710.7951
2127.537, 716.1832
2129.466, 723.2861
2131.394, 723.7493
2133.323, 726.1049
2135.251, 726.8928
2137.179, 724.3001
2139.108, 724.9598
2141.036, 720.8174
2142.965, 718.3472
2144.893, 719.3423
2146.822, 720.6638
2148.750, 721.9122
2150.679, 722.9464
2152.607, 723.5655
2154.536, 724.1356
2156.464, 725.2679
2158.393, 726.3386
2160.321, 725.9617
2162.250, 724.6591
2164.178, 724.7581
2166.106, 726.2086
2168.035, 728.0883
2169.963, 730.3867
2171.892, 732.7900
2173.820, 735.5842
2175.749, 737.4460
2177.677, 737.3799
2179.606, 737.2112
2181.534, 737.4186
2183.463, 738.0569
2185.391, 739.5079
2187.320, 741.1025
2189.248, 742.2093
2191.177, 742.7443
2193.105, 742.3177
2195.033, 740.9627
2196.962, 739.8396
2198.890, 738.9627
2200.819, 738.5252
2202.747, 738.8219
2204.676, 738.5244
2206.604, 736.3235
2208.533, 736.2192
2210.461, 742.3251
2212.390, 747.2402
2214.318, 745.7030
2216.247, 743.3087
2218.175, 744.5605
2220.104, 747.5486
2222.032, 750.1498
2223.960, 752.1789
2225.889, 753.3073
2227.817, 753.5458
2229.746, 751.8516
2231.674, 748.0926
2233.603, 745.8372
2235.531, 745.4454
2237.460, 746.7805
2239.388, 750.6625
2241.317, 754.2245
2243.245, 756.8953
2245.174, 758.4915
2247.102, 757.8969
2249.031, 757.3652
2250.959, 759.1628
2252.887, 758.6870
2254.816, 761.2302
2256.744, 760.0698
2258.673, 760.6786
2260.601, 762.5725
2262.530, 763.7230
2264.458, 764.0615
2266.387, 763.2811
2268.315, 761.0524
2270.244, 760.4933
2272.172, 762.8157
2274.101, 764.9857
2276.029, 767.5546
2277.958, 768.4665
2279.886, 764.8730
2281.814, 762.6548
2283.743, 765.4285
2285.671, 769.1508
2287.600, 771.3859
2289.528, 772.7478
2291.457, 773.4824
2293.385, 774.0422
2295.314, 775.3640
2297.242, 777.1780
2299.171, 778.1991
2301.099, 778.4601
2303.028, 780.7450
2304.956, 786.4661
2306.885, 788.6705
2308.813, 785.9356
2310.741, 783.5483
2312.670, 781.5461
2314.598, 780.9441
2316.527, 782.4842
2318.455, 784.3581
2320.384, 786.1777
2322.312, 787.6263
2324.241, 787.7801
2326.169, 788.3088
2328.098, 791.7429
2330.026, 795.1660
2331.955, 794.4806
2333.883, 791.7003
2335.812, 790.0416
2337.740, 789.6774
2339.668, 792.6461
2341.597, 791.0923
2343.525, 797.9335
2345.454, 792.2306
2347.382, 790.0992
2349.311, 793.0975
2351.239, 795.4916
2353.168, 796.7579
2355.096, 797.1771
2357.025, 795.9135
2358.953, 795.0900
2360.882, 795.2802
2362.810, 795.6154
2364.739, 795.2323
2366.667, 795.7828
2368.595, 799.3604
2370.524, 802.7753
2372.452, 803.7549
2374.381, 803.1468
2376.309, 800.6669
2378.238, 798.0832
2380.166, 798.9671
2382.095, 801.9945
2384.023, 803.2679
2385.952, 803.1975
2387.880, 804.4916
2389.809, 806.9482
2391.737, 808.3143
2393.666, 808.3956
2395.594, 808.0236
2397.522, 806.7148
2399.451, 806.8914
2401.379, 810.2686
2403.308, 812.3992
2405.236, 812.3725
2407.165, 812.3632
2409.093, 812.8544
2411.022, 813.2584
2412.950, 813.1984
2414.879, 813.4565
2416.807, 814.7752
2418.736, 816.1263
2420.664, 816.8931
2422.593, 817.4092
2424.521, 817.2953
2426.449, 817.6258
2428.378, 820.3537
2430.306, 820.7666
2432.235, 824.6721
2434.163, 824.4443
2436.092, 826.7604
2438.020, 830.2979
2439.949, 829.8572
2441.877, 831.8964
2443.806, 832.8181
2445.734, 832.0654
2447.663, 833.6614
2449.591, 830.8148
2451.520, 829.8073
2453.448, 830.8785
2455.376, 832.8548
2457.305, 835.9193
2459.233, 837.5955
2461.162, 837.0010
2463.090, 836.1411
2465.019, 834.6703
2466.947, 834.5466
2468.876, 837.3397
2470.804, 840.0798
2472.733, 842.8804
2474.661, 843.9891
2476.590, 841.3056
2478.518, 838.5131
2480.447, 837.2292
2482.375, 836.9399
2484.303, 837.6713
2486.232, 838.8909
2488.160, 840.3230
2490.089, 842.0206
2492.017, 845.0607
2493.946, 847.6767
2495.874, 845.8698
2497.803, 842.8632
2499.731, 844.3143
2501.660, 848.4101
2503.588, 851.6691
2505.517, 853.8239
2507.445, 853.5268
2509.374, 851.1924
2511.302, 850.5888
2513.230, 851.5091
2515.159, 851.1496
2517.087, 849.7628
2519.016, 852.4496
2520.944, 860.1840
2522.873, 863.6486
2524.801, 860.8458
2526.730, 859.7941
2528.658, 861.2831
2530.587, 861.2125
2532.515, 858.4390
2534.444, 858.1810
2536.372, 862.3669
2538.301, 863.8938
2540.229, 858.7194
2542.157, 856.3553
2544.086, 861.5116
2546.014, 865.0472
2547.943, 863.6603
2549.871, 863.7571
2551.800, 868.4357
2553.728, 871.5994
2555.657, 869.6066
2557.585, 867.5770
2559.514, 867.4802
2561.442, 868.1876
2563.371, 869.1152
2565.299, 870.7198
2567.228, 874.8495
2569.156, 877.7801
2571.084, 876.6348
2573.013, 874.4341
2574.941, 872.5295
2576.870, 871.5143
2578.798, 872.1416
2580.727, 873.6682
2582.655, 876.3122
2584.584, 878.5655
2586.512, 878.0101
2588.441, 876.6829
2590.369, 876.8080
2592.298, 877.8406
2594.226, 879.5096
2596.155, 881.1791
2598.083, 881.7270
2600.011, 881.5804
2601.940, 881.8076
2603.868, 881.9915
2605.797, 880.3085
2607.725, 878.1530
2609.654, 879.4216
2611.582, 879.2736
2613.511, 883.3048
2615.439, 882.1857
2617.368, 883.2184
2619.296, 885.6855
2621.225, 885.6310
2623.153, 883.7980
2625.082, 883.5735
2627.010, 884.8174
2628.938, 886.3848
2630.867, 888.1913
2632.795, 887.6975
2634.724, 889.1586
2636.652, 889.5609
2638.581, 889.6324
2640.509, 890.7444
2642.438, 889.2680
2644.366, 890.2044
2646.295, 893.7939
2648.223, 895.0580
2650.152, 893.6581
2652.080, 892.3168
2654.009, 891.0685
2655.937, 891.7468
2657.865, 894.4984
2659.794, 894.3875
2661.722, 895.7374
2663.651, 898.0443
2665.579, 897.2553
2667.508, 901.0214
2669.436, 901.8340
2671.365, 900.1601
2673.293, 895.7844
2675.222, 895.0176
2677.150, 899.3157
2679.079, 901.8710
2681.007, 901.7720
2682.936, 903.1480
2684.864, 906.3068
2686.792, 908.5610
2688.721, 909.6833
2690.649, 910.2584
2692.578, 910.4732
2694.506, 908.9247
2696.435, 904.2856
2698.363, 902.1659
2700.292, 902.6647
2702.220, 905.9530
2704.149, 912.4503
2706.077, 915.7820
2708.006, 914.7994
2709.934, 913.2942
2711.863, 911.0720
2713.791, 909.5375
2715.719, 908.7103
2717.648, 907.8965
2719.576, 906.9433
2721.505, 908.0549
2723.433, 912.1390
2725.362, 914.0279
2727.290, 913.0004
2729.219, 912.5558
2731.147, 912.7693
2733.076, 913.3040
2735.004, 914.1477
2736.933, 915.1378
2738.861, 916.3450
2740.790, 916.6317
2742.718, 915.6945
2744.646, 915.4615
2746.575, 915.9599
2748.503, 918.2068
2750.432, 922.1287
2752.360, 921.6163
2754.289, 916.0349
2756.217, 914.5599
2758.146, 917.3665
2760.074, 919.6201
2762.003, 921.1812
2763.931, 920.3587
2765.860, 917.5193
2767.788, 916.9921
2769.717, 918.6494
2771.645, 919.2048
2773.573, 918.7819
2775.502, 918.2028
2777.430, 917.5635
2779.359, 917.3368
2781.287, 917.5404
2783.216, 918.9714
2785.144, 918.3857
2787.073, 920.4400
2789.001, 918.3019
2790.930, 916.9551
2792.858, 917.0036
2794.787, 921.7906
2796.715, 927.6257
2798.644, 923.8215
2800.572, 915.8713
2802.500, 915.8835
2804.429, 919.8346
2806.357, 922.0443
2808.286, 922.7371
2810.214, 921.0060
2812.143, 919.1644
2814.071, 921.2729
2816.000, 920.3109
2817.928, 923.2661
2819.857, 921.8070
2821.785, 923.2767
2823.714, 924.8424
2825.642, 922.4738
2827.571, 920.7747
2829.499, 926.0966
2831.427, 930.1724
2833.356, 925.8904
2835.284, 921.5327
2837.213, 922.3736
2839.141, 924.2386
2841.070, 925.6193
2842.998, 926.3764
2844.927, 925.8165
2846.855, 925.7746
2848.784, 927.5583
2850.712, 928.9274
2852.641, 928.4547
2854.569, 928.8793
2856.498, 931.4653
2858.426, 932.6768
2860.354, 931.2307
2862.283, 930.1979
2864.211, 931.2000
2866.140, 930.7059
2868.068, 928.1464
2869.997, 925.8900
2871.925, 924.0593
2873.854, 923.8309
2875.782, 923.1163
2877.711, 926.0970
2879.639, 924.3192
2881.568, 924.8534
2883.496, 927.3676
2885.425, 927.5515
2887.353, 925.6882
2889.281, 925.1200
2891.210, 925.9210
2893.138, 929.0353
2895.067, 933.2167
2896.995, 933.3204
2898.924, 933.9860
2900.852, 930.8663
2902.781, 930.7135
2904.709, 925.7913
2906.638, 927.3430
2908.566, 923.9070
2910.495, 928.9377
2912.423, 930.6131
2914.352, 930.6346
2916.280, 928.2736
2918.208, 927.7830
2920.137, 935.0817
2922.065, 940.0018
2923.994, 934.8262
2925.922, 930.3851
2927.851, 932.8372
2929.779, 934.0081
2931.708, 930.6805
2933.636, 929.3227
2935.565, 932.1405
2937.493, 934.4875
2939.422, 935.5263
2941.350, 935.1769
2943.279, 936.4019
2945.207, 936.6220
2947.135, 936.2856
2949.064, 937.4352
2950.992, 935.9183
2952.921, 936.1364
2954.849, 937.8698
2956.778, 935.3715
2958.706, 934.8620
2960.635, 929.3434
2962.563, 930.2879
2964.492, 926.5284
2966.420, 922.2239
2968.349, 926.4231
2970.277, 933.0508
2972.206, 935.4937
2974.134, 936.4012
2976.063, 939.7574
2977.991, 940.7356
2979.919, 932.1175
2981.848, 926.6054
2983.776, 932.6689
2985.705, 938.2493
2987.633, 937.5289
2989.562, 937.6487
2991.490, 940.8209
2993.419, 940.9854
2995.347, 936.1189
2997.276, 933.1396
2999.204, 933.3358
3001.133, 935.3122
3003.061, 939.2266
3004.990, 941.7287
3006.918, 942.8958
3008.846, 944.7123
3010.775, 946.5202
3012.703, 944.7565
3014.632, 941.1612
3016.560, 940.2643
3018.489, 940.5642
3020.417, 939.8090
3022.346, 939.4319
3024.274, 941.0695
3026.203, 943.7418
3028.131, 947.7802
3030.060, 950.7672
3031.988, 951.0633
3033.917, 950.4200
3035.845, 948.5004
3037.773, 947.9515
3039.702, 950.2093
3041.630, 949.5926
3043.559, 948.6995
3045.487, 949.0272
3047.416, 948.0597
3049.344, 947.9590
3051.273, 947.2002
3053.201, 946.9899
3055.130, 947.3948
3057.058, 948.7432
3058.987, 950.5507
3060.915, 952.0314
3062.844, 953.0443
3064.772, 953.1374
3066.700, 953.0616
3068.629, 953.7885
3070.557, 954.1182
3072.486, 952.8338
3074.414, 951.9812
3076.343, 953.2498
3078.271, 953.2107
3080.200, 950.0327
3082.128, 950.6837
3084.057, 951.3167
3085.985, 951.1070
3087.914, 952.5641
3089.842, 953.4084
3091.771, 955.2527
3093.699, 957.3315
3095.627, 959.1744
3097.556, 959.6191
3099.484, 959.1522
3101.413, 958.0148
3103.341, 957.2340
3105.270, 958.7780
3107.198, 959.5760
3109.127, 955.0102
3111.055, 953.6765
3112.984, 961.1016
3114.912, 966.1850
3116.841, 965.7968
3118.769, 963.5925
3120.698, 959.0397
3122.626, 956.9139
3124.554, 957.2226
3126.483, 958.4898
3128.411, 960.5477
3130.340, 963.4814
3132.268, 966.7248
3134.197, 969.2676
3136.125, 970.5878
3138.054, 969.1931
3139.982, 967.4221
3141.911, 967.3790
3143.839, 967.4810
3145.768, 966.9080
3147.696, 966.7139
3149.625, 966.1051
3151.553, 968.2233
3153.481, 965.3993
3155.410, 964.3701
3157.338, 965.4651
3159.267, 968.6072
3161.195, 968.0421
3163.124, 972.5442
3165.052, 969.7822
3166.981, 970.4911
3168.909, 972.1309
3170.838, 970.9861
3172.766, 970.4482
3174.695, 974.5421
3176.623, 977.1003
3178.552, 973.6907
3180.480, 971.5016
3182.408, 972.7292
3184.337, 971.9766
3186.265, 968.4730
3188.194, 970.8368
3190.122, 978.8524
3192.051, 980.9340
3193.979, 978.9984
3195.908, 979.5894
3197.836, 980.3212
3199.765, 975.9142
3201.693, 972.4775
3203.622, 976.3791
3205.550, 981.0199
3207.479, 983.4788
3209.407, 985.6143
3211.335, 988.8316
3213.264, 988.2874
3215.192, 983.5375
3217.121, 980.4069
3219.049, 979.3613
3220.978, 979.4297
3222.906, 980.1370
3224.835, 980.0198
3226.763, 978.8806
3228.692, 973.8625
3230.620, 971.0233
3232.549, 976.2789
3234.477, 982.4781
3236.406, 988.9410
3238.334, 990.9651
3240.262, 986.3325
3242.191, 982.2990
3244.119, 979.3142
3246.048, 981.5183
3247.976, 979.3253
3249.905, 985.4152
3251.833, 981.6964
3253.762, 986.2086
3255.690, 992.0773
3257.619, 994.4568
3259.547, 993.5829
3261.476, 987.5298
3263.404, 984.6553
3265.333, 989.1941
3267.261, 990.5905
3269.189, 987.6503
3271.118, 987.9461
3273.046, 990.6132
3274.975, 990.8129
3276.903, 989.2051
3278.832, 985.4601
3280.760, 983.0726
3282.689, 986.6926
3284.617, 990.1895
3286.546, 989.2664
3288.474, 989.4836
3290.403, 992.0362
3292.331, 993.8900
3294.260, 994.6395
3296.188, 993.5230
3298.116, 991.3053
3300.045, 992.0670
3301.973, 994.1393
3303.902, 994.6591
3305.830, 995.4141
3307.759, 999.5319
3309.687, 1001.037
3311.616, 993.7478
3313.544, 991.1951
3315.473, 995.8030
3317.401, 999.7925
3319.330, 1002.429
3321.258, 1001.794
3323.187, 999.3240
3325.115, 999.8712
3327.043, 1001.018
3328.972, 999.5497
3330.900, 998.4094
3332.829, 1000.114
3334.757, 1001.270
3336.686, 1000.780
3338.614, 1001.234
3340.543, 1003.039
3342.471, 1004.828
3344.400, 1005.977
3346.328, 1003.175
3348.257, 1004.477
3350.185, 1001.499
3352.114, 1003.543
3354.042, 1001.209
3355.970, 1000.093
3357.899, 1002.943
3359.827, 1006.031
3361.756, 1009.148
3363.684, 1009.843
3365.613, 1011.555
3367.541, 1010.246
3369.470, 1012.689
3371.398, 1013.086
3373.327, 1013.289
3375.255, 1015.223
3377.184, 1016.601
3379.112, 1016.936
3381.041, 1016.246
3382.969, 1014.409
3384.897, 1012.175
3386.826, 1010.155
3388.754, 1012.219
3390.683, 1015.360
3392.611, 1014.528
3394.540, 1013.134
3396.468, 1012.587
3398.397, 1014.122
3400.325, 1021.480
3402.254, 1022.867
3404.182, 1017.946
3406.111, 1014.997
3408.039, 1014.076
3409.968, 1014.767
3411.896, 1016.415
3413.824, 1020.440
3415.753, 1021.511
3417.681, 1012.836
3419.610, 1008.419
3421.538, 1011.430
3423.467, 1011.712
3425.395, 1008.600
3427.324, 1010.965
3429.252, 1007.905
3431.181, 1010.306
3433.109, 1004.490
3435.038, 1004.042
3436.966, 1004.406
3438.895, 1004.599
3440.823, 1003.254
3442.751, 999.7455
3444.680, 998.6183
3446.608, 999.2150
3448.537, 999.4990
3450.465, 998.6627
3452.394, 993.1590
3454.322, 989.7721
3456.251, 994.0369
3458.179, 996.6796
3460.108, 995.5604
3462.036, 995.7994
3463.965, 997.4626
3465.893, 999.7307
3467.822, 1000.474
3469.750, 993.2836
3471.678, 985.7112
3473.607, 981.5585
3475.535, 981.7101
3477.464, 979.0605
3479.392, 978.3103
3481.321, 980.3163
3483.249, 978.7239
3485.178, 980.7106
3487.106, 984.0040
3489.035, 985.1696
3490.963, 978.6207
3492.892, 974.2245
3494.820, 975.3204
3496.749, 975.2680
3498.677, 973.1258
3500.605, 975.6573
3502.534, 974.0739
3504.462, 977.3245
3506.391, 973.4445
3508.319, 972.1027
3510.248, 972.4197
3512.176, 975.4899
3514.105, 975.2377
3516.033, 971.2960
3517.962, 967.1532
3519.890, 964.1249
3521.819, 965.5471
3523.747, 968.7261
3525.676, 973.3509
3527.604, 974.2740
3529.532, 965.7655
3531.461, 962.4653
3533.389, 964.3403
3535.318, 965.5193
3537.246, 965.9313
3539.175, 965.9373
3541.103, 965.1287
3543.032, 962.6242
3544.960, 960.6360
3546.889, 959.7069
3548.817, 959.2726
3550.746, 959.1607
3552.674, 958.0418
3554.603, 957.3394
3556.531, 961.6388
3558.459, 964.2823
3560.388, 958.7884
3562.316, 956.1774
3564.245, 958.3108
3566.173, 959.3844
3568.102, 959.2142
3570.030, 958.5997
3571.959, 957.8363
3573.887, 957.6271
3575.816, 956.7628
3577.744, 954.4462
3579.673, 953.3533
3581.601, 954.0462
3583.530, 951.3135
3585.458, 952.8189
3587.386, 950.3584
3589.315, 953.8131
3591.243, 953.0865
3593.172, 951.5623
3595.100, 949.5051
3597.029, 950.8357
3598.957, 949.9031
3600.886, 953.7270
3602.814, 950.6973
3604.743, 948.5575
3606.671, 949.2244
3608.600, 954.6901
3610.528, 958.1066
3612.457, 958.3663
3614.385, 956.6096
3616.313, 953.4736
3618.242, 949.1487
3620.170, 946.2245
3622.099, 947.1993
3624.027, 949.2314
3625.956, 951.7643
3627.884, 954.7295
3629.813, 957.3812
3631.741, 954.0203
3633.670, 949.6106
3635.598, 950.3697
3637.527, 951.2870
3639.455, 950.7663
3641.384, 949.4664
3643.312, 947.5125
3645.240, 947.9692
3647.169, 949.0900
3649.097, 948.1804
3651.026, 946.2806
3652.954, 948.0063
3654.883, 943.4180
3656.811, 949.6056
3658.740, 952.3812
3660.668, 952.3997
3662.597, 950.2706
3664.525, 948.6239
3666.454, 950.0925
3668.382, 950.0585
3670.311, 946.5496
3672.239, 946.0491
3674.167, 947.3025
3676.096, 944.9610
3678.024, 943.5837
3679.953, 949.4043
3681.881, 952.7722
3683.810, 950.1768
3685.738, 948.2008
3687.667, 947.3752
3689.595, 950.9656
3691.524, 954.1680
3693.452, 949.9355
3695.381, 947.5690
3697.309, 950.5736
3699.238, 951.0593
3701.166, 949.3925
3703.094, 951.0667
3705.023, 953.6901
3706.951, 955.2036
3708.880, 955.5668
3710.808, 955.0165
3712.737, 950.2906
3714.665, 952.3173
3716.594, 946.3111
3718.522, 952.8389
3720.451, 953.6135
3722.379, 952.8571
3724.308, 951.3441
3726.236, 952.5830
3728.165, 951.7513
3730.093, 954.6763
3732.021, 952.2255
3733.950, 951.8604
3735.878, 952.9891
3737.807, 951.2684
3739.735, 954.9554
3741.664, 950.8406
3743.592, 950.4961
3745.521, 952.1467
3747.449, 955.6618
3749.378, 957.4443
3751.306, 956.5743
3753.235, 954.3162
3755.163, 951.2942
3757.092, 948.9960
3759.020, 947.9766
3760.948, 946.9464
3762.877, 946.9886
3764.805, 947.6757
3766.734, 948.1752
3768.662, 950.8186
3770.591, 951.5590
3772.519, 951.6248
3774.448, 951.9667
3776.376, 951.5798
3778.305, 950.4026
3780.233, 948.2894
3782.162, 946.7532
3784.090, 950.4221
3786.019, 953.3478
3787.947, 950.8219
3789.875, 949.6404
3791.804, 950.3453
3793.732, 954.8025
3795.661, 958.6757
3797.589, 954.3200
3799.518, 950.6176
3801.446, 951.3105
3803.375, 952.7628
3805.303, 954.8756
3807.232, 957.9890
3809.160, 961.3232
3811.089, 965.2352
3813.017, 965.5782
3814.946, 966.8330
3816.874, 967.2010
3818.802, 965.7197
3820.731, 965.3292
3822.659, 963.2672
3824.588, 963.1700
3826.516, 962.8860
3828.445, 962.7942
3830.373, 963.8828
3832.302, 964.3556
3834.230, 966.5433
3836.159, 966.7833
3838.087, 962.9511
3840.016, 963.8596
3841.944, 967.8038
3843.873, 963.6497
3845.801, 960.5507
3847.729, 968.3211
3849.658, 973.5354
3851.586, 973.7054
3853.515, 968.7221
3855.443, 962.5616
3857.372, 960.6783
3859.300, 963.0320
3861.229, 970.5208
3863.157, 975.0657
3865.086, 976.1783
3867.014, 975.0837
3868.943, 971.7394
3870.871, 963.5320
3872.800, 959.9710
3874.728, 962.1882
3876.656, 965.3236
3878.585, 968.0076
3880.513, 967.0569
3882.442, 966.3888
3884.370, 967.2097
3886.299, 970.9990
3888.227, 975.9928
3890.156, 974.8470
3892.084, 971.7669
3894.013, 968.9304
3895.941, 970.1778
3897.870, 976.0821
3899.798, 977.7581
3901.727, 977.2777
3903.655, 977.5309
3905.583, 976.7313
3907.512, 973.4523
3909.440, 974.7626
3911.369, 979.0872
3913.297, 977.8951
3915.226, 974.6872
3917.154, 972.7693
3919.083, 970.2194
3921.011, 967.5668
3922.940, 971.4755
3924.868, 975.2250
3926.797, 972.6249
3928.725, 969.6387
3930.654, 967.4498
3932.582, 967.3301
3934.510, 968.7184
3936.439, 970.2911
3938.367, 972.6163
3940.296, 976.8037
3942.224, 973.9301
3944.153, 976.5256
3946.081, 972.8236
3948.010, 976.0351
3949.938, 973.7028
3951.867, 970.4535
3953.795, 967.4138
3955.724, 968.9196
3957.652, 970.2020
3959.581, 966.2116
3961.509, 966.2165
3963.438, 970.9834
3965.366, 972.3945
3967.294, 972.0372
3969.223, 971.9454
3971.151, 972.7427
3973.080, 974.1246
3975.008, 974.5237
3976.937, 974.2951
3978.865, 972.9064
3980.794, 972.9129
3982.722, 975.9676
3984.651, 977.9781
3986.579, 978.4918
3988.508, 976.2767
3990.436, 975.5955
3992.365, 974.8996
3994.293, 972.5151
3996.221, 973.4387
3998.150, 970.3877
4000.078, 969.9621
4002.007, 973.4517
4003.935, 974.8655
4005.864, 973.4289
4007.792, 971.2655
4009.721, 971.3558
4011.649, 978.3920
4013.578, 983.1504
4015.506, 984.5527
4017.435, 977.3320
4019.363, 969.0225
4021.292, 968.7805
4023.220, 971.5392
4025.148, 975.9174
4027.077, 976.1848
4029.005, 975.2326
4030.934, 976.6942
4032.862, 977.6816
4034.791, 979.5531
4036.719, 978.2495
4038.648, 973.9871
4040.576, 974.1387
4042.505, 976.7324
4044.433, 974.7724
4046.362, 980.1260
4048.290, 975.4318
4050.219, 977.5767
4052.147, 978.8508
4054.075, 973.8821
4056.004, 973.6151
4057.932, 978.0880
4059.861, 981.4861
4061.789, 983.0805
4063.718, 982.3291
4065.646, 978.9496
4067.575, 976.4969
4069.503, 975.8397
4071.432, 975.6749
4073.360, 976.5419
4075.289, 983.2355
4077.217, 980.6378
4079.146, 981.6080
4081.074, 984.4687
4083.002, 980.8879
4084.931, 975.9557
4086.859, 975.9664
4088.788, 978.0246
4090.716, 979.7740
4092.645, 981.0576
4094.573, 981.1982
4096.502, 980.2421
4098.430, 981.0776
4100.359, 981.7023
4102.287, 981.0400
4104.216, 977.6726
4106.144, 980.6524
4108.073, 979.1909
4110.001, 979.4942
4111.930, 983.2463
4113.858, 984.4988
4115.787, 982.9571
4117.715, 982.0999
4119.644, 982.6506
4121.572, 983.2390
4123.500, 984.6822
4125.429, 989.6335
4127.357, 992.1419
4129.286, 990.2759
4131.214, 987.2545
4133.143, 985.3480
4135.071, 985.6320
4137.000, 992.1142
4138.928, 988.2582
4140.856, 991.4589
4142.785, 995.4769
4144.713, 993.8880
4146.642, 993.7715
4148.570, 994.7780
4150.499, 994.7398
4152.427, 994.4963
4154.356, 993.4684
4156.284, 994.5638
4158.213, 995.0130
4160.141, 999.4212
4162.070, 997.7843
4163.998, 999.0427
4165.927, 1001.399
4167.855, 1001.408
4169.784, 998.5155
4171.712, 994.9174
4173.641, 998.7768
4175.569, 1004.952
4177.498, 1007.707
4179.426, 1004.571
4181.354, 1001.420
4183.283, 1004.973
4185.211, 1005.808
4187.140, 1002.839
4189.068, 1006.042
4190.997, 1010.427
4192.925, 1007.716
4194.854, 1006.572
4196.782, 1008.668
4198.710, 1008.290
4200.639, 1006.705
4202.567, 1007.831
4204.496, 1006.448
4206.424, 1002.602
4208.353, 1002.430
4210.281, 1004.014
4212.210, 1006.093
4214.138, 1006.798
4216.067, 1007.136
4217.995, 1008.674
4219.924, 1009.162
4221.852, 1010.869
4223.781, 1010.623
4225.709, 1011.818
4227.638, 1012.159
4229.566, 1011.194
4231.495, 1008.343
4233.423, 1011.962
4235.352, 1009.453
4237.280, 1013.196
4239.208, 1009.865
4241.137, 1009.802
4243.065, 1013.937
4244.994, 1018.189
4246.922, 1017.350
4248.851, 1015.463
4250.779, 1013.323
4252.708, 1013.262
4254.636, 1012.031
4256.564, 1004.962
4258.493, 1003.585
4260.421, 1007.823
4262.350, 1010.898
4264.278, 1013.308
4266.207, 1015.412
4268.135, 1015.978
4270.064, 1016.003
4271.992, 1018.337
4273.921, 1021.771
4275.849, 1026.881
4277.778, 1021.872
4279.706, 1013.478
4281.635, 1011.762
4283.563, 1013.017
4285.492, 1016.608
4287.420, 1016.891
4289.349, 1015.279
4291.277, 1018.958
4293.206, 1013.825
4295.134, 1022.265
4297.063, 1023.300
4298.991, 1022.052
4300.919, 1020.778
4302.848, 1018.861
4304.776, 1017.964
4306.705, 1024.519
4308.633, 1027.442
4310.562, 1023.216
4312.490, 1018.657
4314.418, 1014.980
4316.347, 1012.516
4318.275, 1015.382
4320.204, 1023.171
4322.132, 1027.253
4324.061, 1029.263
4325.989, 1029.704
4327.918, 1031.723
4329.846, 1033.933
4331.775, 1032.143
4333.703, 1028.921
4335.632, 1025.190
4337.560, 1027.778
4339.489, 1031.882
4341.417, 1031.148
4343.346, 1033.132
4345.274, 1037.294
4347.203, 1033.011
4349.131, 1030.023
4351.060, 1033.717
4352.988, 1039.740
4354.917, 1043.967
4356.845, 1036.821
4358.773, 1032.175
4360.702, 1033.740
4362.630, 1041.247
4364.559, 1047.498
4366.487, 1043.697
4368.416, 1043.044
4370.344, 1045.358
4372.272, 1044.513
4374.201, 1045.732
4376.129, 1052.687
4378.058, 1057.680
4379.986, 1057.493
4381.915, 1057.416
4383.843, 1054.108
4385.772, 1050.449
4387.700, 1047.032
4389.629, 1042.710
4391.557, 1047.185
4393.486, 1045.761
4395.414, 1043.317
4397.343, 1052.561
4399.271, 1058.354
4401.200, 1057.711
4403.128, 1059.800
4405.057, 1060.716
4406.985, 1057.198
4408.914, 1056.429
4410.842, 1056.872
4412.771, 1052.006
4414.699, 1050.168
4416.627, 1053.128
4418.556, 1056.418
4420.484, 1060.235
4422.413, 1066.496
4424.341, 1065.683
4426.270, 1062.022
4428.198, 1071.373
4430.126, 1074.694
4432.055, 1065.411
4433.983, 1057.103
4435.912, 1053.503
4437.840, 1061.126
4439.769, 1062.499
4441.697, 1059.531
4443.626, 1061.115
4445.554, 1064.525
4447.483, 1068.880
4449.411, 1063.762
4451.340, 1062.090
4453.268, 1063.430
4455.197, 1063.233
4457.125, 1065.071
4459.054, 1067.321
4460.982, 1070.645
4462.911, 1071.881
4464.839, 1073.885
4466.768, 1074.950
4468.696, 1075.401
4470.625, 1075.888
4472.553, 1073.723
4474.481, 1073.254
4476.410, 1071.897
4478.338, 1069.468
4480.267, 1070.252
4482.195, 1071.016
4484.124, 1070.036
4486.052, 1067.704
4487.980, 1065.649
4489.909, 1066.352
4491.837, 1067.856
4493.766, 1069.178
4495.694, 1066.530
4497.623, 1065.168
4499.551, 1067.390
4501.480, 1072.139
4503.408, 1077.013
4505.337, 1079.606
4507.265, 1080.676
4509.194, 1079.423
4511.122, 1070.604
4513.051, 1067.468
4514.979, 1072.864
4516.908, 1078.853
4518.836, 1080.471
4520.765, 1074.302
4522.693, 1069.252
4524.622, 1068.113
4526.550, 1075.704
4528.479, 1081.033
4530.407, 1082.761
4532.335, 1082.647
4534.264, 1081.713
4536.192, 1080.516
4538.121, 1073.374
4540.049, 1069.517
4541.978, 1077.620
4543.906, 1081.861
4545.834, 1082.961
4547.763, 1084.860
4549.691, 1084.917
4551.620, 1083.745
4553.548, 1088.886
4555.477, 1089.561
4557.405, 1078.776
4559.334, 1079.796
4561.262, 1083.543
4563.191, 1081.176
4565.119, 1083.092
4567.048, 1086.826
4568.976, 1085.068
4570.905, 1084.900
4572.833, 1087.426
4574.762, 1092.656
4576.690, 1097.484
4578.619, 1100.863
4580.547, 1095.844
4582.476, 1089.825
4584.404, 1089.401
4586.333, 1088.443
4588.261, 1088.911
4590.189, 1095.616
4592.118, 1102.278
4594.046, 1106.590
4595.975, 1102.258
4597.903, 1100.707
4599.832, 1105.465
4601.760, 1104.941
4603.688, 1103.005
4605.617, 1102.204
4607.545, 1101.295
4609.474, 1101.903
4611.402, 1102.947
4613.331, 1107.866
4615.259, 1106.230
4617.188, 1108.380
4619.116, 1109.299
4621.045, 1108.290
4622.973, 1109.135
4624.902, 1108.248
4626.830, 1103.928
4628.759, 1106.620
4630.687, 1109.095
4632.616, 1106.070
4634.544, 1108.469
4636.473, 1112.774
4638.401, 1114.880
4640.330, 1109.900
4642.258, 1113.511
4644.187, 1110.680
4646.115, 1114.787
4648.043, 1113.110
4649.972, 1114.386
4651.900, 1116.869
4653.829, 1119.713
4655.757, 1122.640
4657.686, 1123.237
4659.614, 1118.929
4661.542, 1114.296
4663.471, 1113.098
4665.399, 1110.925
4667.328, 1112.334
4669.256, 1111.257
4671.185, 1117.000
4673.113, 1121.414
4675.042, 1123.086
4676.970, 1125.488
4678.899, 1123.964
4680.827, 1126.419
4682.756, 1124.205
4684.684, 1129.460
4686.613, 1130.580
4688.541, 1133.240
4690.470, 1134.961
4692.398, 1133.533
4694.327, 1133.296
4696.255, 1130.155
4698.184, 1118.398
4700.112, 1116.799
4702.041, 1120.580
4703.969, 1120.656
4705.897, 1122.097
4707.826, 1125.145
4709.754, 1130.214
4711.683, 1131.739
4713.611, 1130.330
4715.540, 1134.488
4717.468, 1135.050
4719.396, 1130.828
4721.325, 1128.631
4723.253, 1131.003
4725.182, 1130.037
4727.110, 1129.469
4729.039, 1133.051
4730.967, 1129.533
4732.896, 1130.399
4734.824, 1133.490
4736.753, 1138.442
4738.681, 1136.240
4740.610, 1132.886
4742.538, 1136.450
4744.467, 1137.393
4746.395, 1135.234
4748.324, 1135.857
4750.252, 1128.608
4752.181, 1134.177
4754.109, 1133.259
4756.038, 1135.024
4757.966, 1138.906
4759.895, 1136.883
4761.823, 1133.841
4763.751, 1132.158
4765.680, 1138.491
4767.608, 1142.053
4769.537, 1139.750
4771.465, 1137.868
4773.394, 1138.237
4775.322, 1141.182
4777.250, 1143.616
4779.179, 1145.246
4781.107, 1145.999
4783.036, 1146.025
4784.964, 1146.492
4786.893, 1148.109
4788.821, 1146.075
4790.750, 1145.080
4792.678, 1151.461
4794.607, 1148.757
4796.535, 1146.451
4798.464, 1154.571
4800.392, 1154.043
4802.321, 1149.908
4804.249, 1148.829
4806.178, 1152.331
4808.106, 1155.701
4810.035, 1152.072
4811.963, 1147.078
4813.892, 1143.267
4815.820, 1143.563
4817.749, 1144.940
4819.677, 1148.402
4821.605, 1159.318
4823.534, 1160.339
4825.462, 1153.818
4827.391, 1147.553
4829.319, 1146.697
4831.248, 1149.438
4833.176, 1148.160
4835.104, 1152.117
4837.033, 1158.447
4838.961, 1152.202
4840.890, 1150.596
4842.818, 1154.073
4844.747, 1150.910
4846.675, 1152.416
4848.604, 1158.232
4850.532, 1159.623
4852.461, 1156.766
4854.389, 1151.557
4856.318, 1150.497
4858.246, 1153.786
4860.175, 1159.358
4862.103, 1159.595
4864.032, 1156.517
4865.960, 1151.994
4867.889, 1152.333
4869.817, 1154.164
4871.746, 1155.877
4873.674, 1152.434
4875.603, 1154.556
4877.531, 1162.377
4879.459, 1162.109
4881.388, 1155.518
4883.316, 1146.887
4885.245, 1152.352
4887.173, 1157.450
4889.102, 1158.595
4891.030, 1159.281
4892.958, 1154.532
4894.887, 1146.773
4896.815, 1148.937
4898.744, 1152.881
4900.672, 1156.370
4902.601, 1159.541
4904.529, 1161.250
4906.458, 1160.959
4908.386, 1162.503
4910.315, 1163.925
4912.243, 1161.871
4914.172, 1164.686
4916.100, 1161.965
4918.029, 1156.529
4919.957, 1158.556
4921.886, 1157.665
4923.814, 1155.730
4925.743, 1164.215
4927.671, 1168.442
4929.600, 1167.145
4931.528, 1160.918
4933.457, 1160.364
4935.385, 1163.039
4937.313, 1162.731
4939.242, 1162.591
4941.170, 1154.255
4943.099, 1160.693
4945.027, 1159.231
4946.956, 1156.377
4948.884, 1165.801
4950.813, 1171.420
4952.741, 1172.158
4954.669, 1167.521
4956.598, 1162.770
4958.526, 1160.418
4960.455, 1163.152
4962.383, 1160.391
4964.312, 1159.334
4966.240, 1166.198
4968.169, 1168.609
4970.097, 1168.280
4972.026, 1166.614
4973.954, 1160.349
4975.883, 1157.560
4977.811, 1162.502
4979.740, 1167.396
4981.668, 1168.650
4983.597, 1165.205
4985.525, 1166.164
4987.454, 1155.566
4989.382, 1163.649
4991.311, 1159.627
4993.239, 1161.510
4995.167, 1169.432
4997.096, 1167.426
4999.024, 1164.071
5000.953, 1162.969
5002.881, 1162.111
5004.810, 1162.429
5006.738, 1162.266
5008.667, 1164.906
5010.595, 1166.224
5012.523, 1167.026
5014.452, 1171.618
5016.380, 1166.205
5018.309, 1162.193
5020.237, 1170.328
5022.166, 1165.655
5024.094, 1160.339
5026.023, 1162.413
5027.951, 1160.112
5029.880, 1160.961
5031.808, 1162.389
5033.737, 1164.517
5035.665, 1168.082
5037.594, 1171.052
5039.522, 1172.056
5041.451, 1170.687
5043.379, 1167.001
5045.308, 1167.466
5047.236, 1167.382
5049.165, 1166.596
5051.093, 1168.796
5053.021, 1170.832
5054.950, 1169.779
5056.878, 1158.475
5058.807, 1159.339
5060.735, 1165.861
5062.664, 1173.230
5064.592, 1169.113
5066.521, 1163.265
5068.449, 1160.564
5070.377, 1160.583
5072.306, 1163.202
5074.234, 1167.116
5076.163, 1167.167
5078.091, 1166.159
5080.020, 1164.755
5081.948, 1162.214
5083.877, 1161.867
5085.805, 1163.618
5087.734, 1168.601
5089.662, 1166.218
5091.591, 1163.166
5093.519, 1164.742
5095.448, 1162.191
5097.376, 1163.171
5099.305, 1170.453
5101.233, 1161.347
5103.162, 1161.374
5105.090, 1170.847
5107.019, 1158.555
5108.947, 1159.223
5110.875, 1167.895
5112.804, 1163.289
5114.732, 1165.936
5116.661, 1168.936
5118.589, 1163.016
5120.518, 1166.943
5122.446, 1171.035
5124.375, 1169.422
5126.303, 1164.321
5128.231, 1162.309
5130.160, 1164.932
5132.088, 1170.610
5134.017, 1172.551
5135.945, 1170.648
5137.874, 1174.118
5139.802, 1168.997
5141.731, 1174.292
5143.659, 1174.914
5145.588, 1171.076
5147.516, 1169.595
5149.445, 1173.632
5151.373, 1174.027
5153.302, 1168.334
5155.230, 1160.949
5157.159, 1170.276
5159.087, 1173.645
5161.016, 1172.998
5162.944, 1178.558
5164.873, 1177.446
5166.801, 1174.417
5168.729, 1173.763
5170.658, 1173.137
5172.586, 1174.331
5174.515, 1177.624
5176.443, 1179.918
5178.372, 1178.413
5180.300, 1176.675
5182.229, 1177.006
5184.157, 1175.895
5186.085, 1175.177
5188.014, 1175.664
5189.942, 1174.316
5191.871, 1175.092
5193.799, 1179.208
5195.728, 1175.035
5197.656, 1174.345
5199.585, 1178.045
5201.513, 1183.048
5203.442, 1181.002
5205.370, 1176.834
5207.299, 1176.178
5209.227, 1180.237
5211.156, 1181.790
5213.084, 1177.956
5215.013, 1172.621
5216.941, 1168.686
5218.870, 1167.402
5220.798, 1171.900
5222.727, 1169.463
5224.655, 1168.005
5226.583, 1176.705
5228.512, 1175.491
5230.440, 1173.075
5232.369, 1173.715
5234.297, 1173.679
5236.226, 1180.905
5238.154, 1175.000
5240.083, 1176.155
5242.011, 1175.392
5243.939, 1172.515
5245.868, 1173.768
5247.796, 1171.342
5249.725, 1174.968
5251.653, 1174.750
5253.582, 1177.523
5255.510, 1177.446
5257.439, 1181.429
5259.367, 1176.405
5261.296, 1180.148
5263.224, 1178.733
5265.153, 1168.500
5267.081, 1170.647
5269.010, 1170.705
5270.938, 1168.023
5272.867, 1166.725
5274.795, 1166.926
5276.724, 1168.342
5278.652, 1170.815
5280.581, 1180.115
5282.509, 1178.208
5284.438, 1169.201
5286.366, 1179.503
5288.294, 1175.476
5290.223, 1168.596
5292.151, 1173.926
5294.080, 1170.429
5296.008, 1168.641
5297.937, 1170.665
5299.865, 1169.480
5301.793, 1169.822
5303.722, 1170.793
5305.650, 1170.531
5307.579, 1169.879
5309.507, 1169.290
5311.436, 1166.935
5313.364, 1166.227
5315.293, 1163.211
5317.221, 1160.036
5319.150, 1160.763
5321.078, 1161.260
5323.007, 1161.472
5324.935, 1166.868
5326.864, 1164.878
5328.792, 1169.250
5330.721, 1172.665
5332.649, 1164.505
5334.578, 1159.732
5336.506, 1159.684
5338.435, 1162.661
5340.363, 1158.810
5342.292, 1160.786
5344.220, 1164.780
5346.148, 1161.340
5348.077, 1159.072
5350.005, 1159.388
5351.934, 1161.556
5353.862, 1157.506
5355.791, 1164.341
5357.719, 1170.229
5359.647, 1156.868
5361.576, 1153.532
5363.504, 1155.830
5365.433, 1159.883
5367.361, 1162.008
5369.290, 1159.518
5371.218, 1155.976
5373.147, 1155.314
5375.075, 1157.718
5377.004, 1159.252
5378.932, 1158.430
5380.861, 1155.406
5382.789, 1148.751
5384.718, 1143.668
5386.646, 1144.391
5388.575, 1142.677
5390.503, 1142.880
5392.432, 1144.604
5394.360, 1144.611
5396.289, 1147.877
5398.217, 1149.377
5400.146, 1146.368
5402.074, 1141.817
5404.002, 1140.997
5405.931, 1143.820
5407.859, 1149.309
5409.788, 1148.593
5411.716, 1147.582
5413.645, 1148.242
5415.573, 1148.135
5417.501, 1147.896
5419.430, 1144.747
5421.358, 1136.482
5423.287, 1133.769
5425.215, 1134.397
5427.144, 1135.762
5429.072, 1133.703
5431.001, 1140.663
5432.929, 1139.750
5434.858, 1127.762
5436.786, 1139.155
5438.715, 1136.858
5440.643, 1130.039
5442.572, 1134.406
5444.500, 1129.488
5446.429, 1130.891
5448.357, 1135.555
5450.286, 1122.103
5452.214, 1125.279
5454.143, 1131.353
5456.071, 1130.982
5458.000, 1125.994
5459.928, 1121.664
5461.856, 1122.618
5463.785, 1132.832
5465.713, 1132.218
5467.642, 1130.913
5469.570, 1129.717
5471.499, 1127.678
5473.427, 1121.183
5475.355, 1123.302
5477.284, 1125.785
5479.212, 1124.577
5481.141, 1131.321
5483.069, 1124.244
5484.998, 1120.959
5486.926, 1122.367
5488.855, 1127.800
5490.783, 1132.188
5492.712, 1128.616
5494.640, 1115.721
5496.569, 1112.415
5498.497, 1119.531
5500.426, 1120.847
5502.354, 1116.612
5504.283, 1113.258
5506.211, 1114.933
5508.140, 1125.685
5510.068, 1126.478
5511.997, 1120.189
5513.925, 1112.199
5515.854, 1113.720
5517.782, 1121.686
5519.710, 1128.012
5521.639, 1122.583
5523.567, 1117.531
5525.496, 1116.290
5527.424, 1116.359
5529.353, 1108.118
5531.281, 1112.902
5533.209, 1118.187
5535.138, 1116.677
5537.066, 1109.021
5538.995, 1105.429
5540.923, 1107.427
5542.852, 1114.163
5544.780, 1116.547
5546.709, 1116.598
5548.637, 1114.020
5550.566, 1115.207
5552.494, 1109.689
5554.423, 1113.122
5556.351, 1114.999
5558.280, 1111.480
5560.208, 1105.247
5562.137, 1106.006
5564.065, 1111.335
5565.994, 1109.448
5567.922, 1111.042
5569.851, 1108.456
5571.779, 1103.893
5573.708, 1112.960
5575.636, 1114.819
5577.564, 1108.265
5579.493, 1097.586
5581.421, 1095.139
5583.350, 1097.494
5585.278, 1101.273
5587.207, 1104.376
5589.135, 1105.743
5591.063, 1099.818
5592.992, 1097.235
5594.920, 1104.053
5596.849, 1092.775
5598.777, 1093.833
5600.706, 1099.197
5602.634, 1097.047
5604.563, 1092.241
5606.491, 1089.718
5608.420, 1090.441
5610.348, 1094.107
5612.277, 1085.459
5614.205, 1085.756
5616.134, 1091.071
5618.062, 1090.461
5619.991, 1083.100
5621.919, 1084.286
5623.848, 1088.433
5625.776, 1083.636
5627.705, 1074.151
5629.633, 1071.637
5631.562, 1075.559
5633.490, 1081.129
5635.418, 1086.142
5637.347, 1081.641
5639.275, 1072.915
5641.204, 1071.392
5643.132, 1074.405
5645.061, 1074.381
5646.989, 1074.035
5648.917, 1081.408
5650.846, 1077.463
5652.774, 1068.532
5654.703, 1064.722
5656.631, 1076.092
5658.560, 1078.643
5660.488, 1075.597
5662.417, 1068.682
5664.345, 1070.537
5666.274, 1064.502
5668.202, 1067.524
5670.131, 1064.481
5672.059, 1059.854
5673.988, 1060.751
5675.916, 1058.248
5677.845, 1055.200
5679.773, 1057.908
5681.702, 1054.451
5683.630, 1055.064
5685.559, 1056.210
5687.487, 1052.360
5689.416, 1056.427
5691.344, 1049.855
5693.272, 1051.094
5695.201, 1044.003
5697.129, 1050.140
5699.058, 1051.303
5700.986, 1050.701
5702.915, 1051.469
5704.843, 1048.696
5706.771, 1046.496
5708.700, 1042.633
5710.628, 1040.361
5712.557, 1037.819
5714.485, 1036.369
5716.414, 1035.216
5718.342, 1034.101
5720.271, 1034.015
5722.199, 1032.319
5724.128, 1030.362
5726.056, 1029.697
5727.985, 1032.373
5729.913, 1030.285
5731.842, 1028.856
5733.770, 1028.144
5735.699, 1023.605
5737.627, 1019.656
5739.556, 1017.623
5741.484, 1017.256
5743.413, 1017.924
5745.341, 1016.510
5747.270, 1018.637
5749.198, 1020.118
5751.126, 1016.880
5753.055, 1020.744
5754.983, 1019.184
5756.912, 1012.342
5758.840, 1005.353
5760.769, 1012.492
5762.697, 1010.070
5764.625, 1011.174
5766.554, 1016.045
5768.482, 1003.023
5770.411, 1003.435
5772.339, 1009.137
5774.268, 1012.842
5776.196, 1008.738
5778.125, 1007.008
5780.053, 1008.084
5781.982, 1006.462
5783.910, 997.5839
5785.839, 999.3085
5787.767, 995.6031
5789.696, 993.1392
5791.624, 995.3824
5793.553, 990.0626
5795.481, 992.3568
5797.410, 994.4264
5799.338, 993.1253
5801.267, 991.2117
5803.195, 992.0468
5805.124, 990.7366
5807.052, 990.4442
5808.980, 988.1000
5810.909, 984.7353
5812.837, 979.3232
5814.766, 976.5773
5816.694, 978.3304
5818.623, 976.4071
5820.551, 981.5857
5822.479, 981.6320
5824.408, 975.0569
5826.336, 970.3713
5828.265, 968.9996
5830.193, 968.0397
5832.122, 967.0382
5834.050, 966.5906
5835.979, 969.0111
5837.907, 970.8730
5839.836, 969.3417
5841.764, 964.4557
5843.693, 959.9020
5845.621, 958.8231
5847.550, 963.2512
5849.478, 965.6453
5851.407, 957.5237
5853.335, 962.6418
5855.264, 958.2173
5857.192, 950.4633
5859.121, 947.7330
5861.049, 953.3038
5862.978, 956.0141
5864.906, 953.5588
5866.834, 950.3649
5868.763, 954.7535
5870.691, 956.5853
5872.620, 953.6478
5874.548, 951.9119
5876.477, 954.0231
5878.405, 947.7214
5880.333, 947.3040
5882.262, 944.1698
5884.190, 938.6838
5886.119, 938.0212
5888.047, 935.7520
5889.976, 941.0889
5891.904, 935.8437
5893.833, 937.3090
5895.761, 941.4336
5897.690, 938.5099
5899.618, 935.2363
5901.547, 933.3289
5903.475, 931.2159
5905.404, 933.6932
5907.332, 928.7375
5909.261, 925.4641
5911.189, 927.6427
5913.118, 924.5107
5915.046, 926.4026
5916.975, 925.8743
5918.903, 923.3789
5920.832, 921.6565
5922.760, 923.5071
5924.688, 921.7216
5926.617, 927.6048
5928.545, 920.2169
5930.474, 921.5447
5932.402, 927.6000
5934.331, 921.2361
5936.259, 912.7137
5938.188, 911.9807
5940.116, 915.6544
5942.044, 915.3916
5943.973, 906.8405
5945.901, 899.5657
5947.830, 905.7568
5949.758, 906.2532
5951.687, 909.6823
5953.615, 909.9967
5955.544, 906.8997
5957.472, 906.4220
5959.401, 905.5158
5961.329, 902.4779
5963.258, 899.9461
5965.186, 898.8609
5967.115, 895.5764
5969.043, 898.9519
5970.972, 897.5065
5972.900, 891.3482
5974.829, 886.6064
5976.757, 895.4619
5978.686, 889.2403
5980.614, 893.1516
5982.542, 899.6776
5984.471, 888.0728
5986.399, 885.3799
5988.328, 884.4796
5990.256, 885.6316
5992.185, 883.4775
5994.113, 869.4040
5996.042, 868.5303
5997.970, 869.3610
5999.898, 868.9114
6001.827, 867.6602
6003.755, 867.1196
6005.684, 869.4348
6007.612, 870.6174
6009.541, 872.3506
6011.469, 874.5325
6013.398, 869.9866
6015.326, 864.8196
6017.255, 862.2172
6019.183, 860.8054
6021.112, 859.8592
6023.040, 866.0363
6024.969, 864.1641
6026.897, 865.4703
6028.826, 866.5377
6030.754, 862.4694
6032.683, 865.2026
6034.611, 857.1323
6036.540, 853.2186
6038.468, 851.7533
6040.396, 848.2489
6042.325, 848.1012
6044.253, 848.8665
6046.182, 845.7685
6048.110, 847.4798
6050.039, 841.1078
6051.967, 842.3022
6053.896, 843.0760
6055.824, 844.6780
6057.752, 845.2381
6059.681, 842.7216
6061.609, 840.1960
6063.538, 841.7581
6065.466, 841.8604
6067.395, 837.0807
6069.323, 829.7917
6071.252, 838.3913
6073.180, 839.8759
6075.109, 835.9924
6077.037, 830.2083
6078.966, 825.9266
6080.894, 824.2125
6082.823, 827.2669
6084.751, 823.7476
6086.680, 824.7751
6088.608, 829.2084
6090.537, 819.3934
6092.465, 820.9697
6094.394, 825.3625
6096.322, 828.1438
6098.250, 827.3297
6100.179, 821.2687
6102.107, 816.6795
6104.036, 809.1942
6105.964, 812.4656
6107.893, 820.5132
6109.821, 809.1647
6111.750, 815.2740
6113.678, 820.8422
6115.606, 814.4854
6117.535, 806.6439
6119.463, 813.3096
6121.392, 806.5203
6123.320, 804.6118
6125.249, 801.0994
6127.177, 798.6727
6129.106, 802.4605
6131.034, 804.4192
6132.963, 806.6113
6134.891, 801.6716
6136.820, 803.6327
6138.748, 800.9101
6140.677, 801.3546
6142.605, 796.7572
6144.534, 793.0992
6146.462, 791.7128
6148.391, 791.9081
6150.319, 789.0463
6152.248, 790.9429
6154.176, 786.4836
6156.104, 787.3135
6158.033, 788.0648
6159.961, 783.0980
6161.890, 789.8149
6163.818, 782.4951
6165.747, 782.9302
6167.675, 786.7563
6169.604, 784.6290
6171.532, 783.8108
6173.460, 776.2057
6175.389, 778.1826
6177.317, 775.4241
6179.246, 771.1482
6181.174, 771.5306
6183.103, 765.6037
6185.031, 767.1340
6186.960, 769.2433
6188.888, 766.7299
6190.817, 759.1669
6192.745, 749.8063
6194.674, 753.7844
6196.602, 760.1620
6198.531, 759.4067
6200.459, 751.4824
6202.388, 742.6258
6204.316, 750.0892
6206.245, 748.1250
6208.173, 747.9401
6210.102, 750.3688
6212.030, 751.9615
6213.958, 750.9827
6215.887, 743.9099
6217.815, 745.1532
6219.744, 746.5539
6221.672, 746.3052
6223.601, 746.7657
6225.529, 742.7981
6227.458, 744.2810
6229.386, 741.3067
6231.314, 738.2746
6233.243, 737.0060
6235.171, 733.9915
6237.100, 733.3680
6239.028, 730.7250
6240.957, 724.4116
6242.885, 722.0827
6244.814, 724.0320
6246.742, 717.8702
6248.671, 723.1837
6250.599, 722.5692
6252.528, 723.6769
6254.456, 725.4689
6256.385, 723.1826
6258.313, 718.4904
6260.242, 718.2802
6262.170, 716.7549
6264.099, 717.3804
6266.027, 719.3432
6267.956, 717.1101
6269.884, 716.7955
6271.813, 710.1124
6273.741, 713.5746
6275.669, 710.8285
6277.598, 709.5543
6279.526, 714.1769
6281.455, 705.7712
6283.383, 710.2338
6285.312, 708.8455
6287.240, 708.8694
6289.168, 710.9330
6291.097, 705.3488
6293.025, 706.5433
6294.954, 706.4358
6296.882, 705.0391
6298.811, 700.3254
6300.739, 700.6071
6302.668, 701.2986
6304.596, 694.8295
6306.525, 689.3222
6308.453, 691.0358
6310.382, 693.2519
6312.310, 691.7410
6314.239, 688.3176
6316.167, 690.0064
6318.096, 684.1454
6320.024, 680.7164
6321.953, 680.2493
6323.881, 680.7006
6325.810, 680.9579
6327.738, 680.0077
6329.667, 677.8976
6331.595, 677.3503
6333.523, 675.5435
6335.452, 675.8141
6337.380, 672.9742
6339.309, 674.4755
6341.237, 674.6989
6343.166, 670.2529
6345.094, 665.1194
6347.022, 661.0795
6348.951, 658.9464
6350.879, 657.0834
6352.808, 656.5096
6354.736, 657.3011
6356.665, 655.5211
6358.593, 658.2021
6360.522, 654.2487
6362.450, 656.5208
6364.379, 659.3073
6366.307, 660.1419
6368.236, 653.7592
6370.164, 649.8224
6372.093, 650.8783
6374.021, 650.9557
6375.950, 646.3444
6377.878, 644.9865
6379.807, 645.6296
6381.735, 643.7070
6383.664, 638.8719
6385.592, 634.1374
6387.521, 632.8112
6389.449, 632.9959
6391.377, 636.7732
6393.306, 638.0777
6395.234, 635.5546
6397.163, 633.9212
6399.091, 635.9355
6401.020, 628.4134
6402.948, 632.4612
6404.876, 629.2881
6406.805, 623.3963
6408.733, 619.1234
6410.662, 617.8364
6412.590, 621.3306
6414.519, 617.2224
6416.447, 617.2122
6418.376, 613.2964
6420.304, 611.8182
6422.233, 612.0046
6424.161, 608.9775
6426.090, 610.4772
6428.018, 609.1082
6429.947, 612.2701
6431.875, 608.9336
6433.804, 606.4743
6435.732, 607.4163
6437.661, 604.4319
6439.589, 600.6992
6441.518, 604.8605
6443.446, 601.9825
6445.375, 601.1370
6447.303, 603.3724
6449.231, 602.4532
6451.160, 601.0618
6453.088, 599.8290
6455.017, 597.1827
6456.945, 595.6783
6458.874, 593.9984
6460.802, 593.8046
6462.730, 589.9221
6464.659, 591.3796
6466.587, 585.7139
6468.516, 590.8867
6470.444, 586.8141
6472.373, 581.6871
6474.301, 580.7204
6476.230, 580.7659
6478.158, 576.8392
6480.087, 578.8708
6482.015, 574.4512
6483.944, 583.5108
6485.872, 576.8171
6487.801, 574.5107
6489.729, 585.7438
6491.658, 580.2225
6493.586, 577.8291
6495.515, 567.3790
6497.443, 569.5289
6499.372, 572.7772
6501.300, 573.0937
6503.229, 568.8234
6505.157, 570.8454
6507.085, 562.3101
6509.014, 567.1298
6510.942, 568.5692
6512.871, 560.7833
6514.799, 558.9182
6516.728, 560.4174
6518.656, 557.4637
6520.584, 566.0819
6522.513, 562.1674
6524.441, 563.5079
6526.370, 562.0474
6528.298, 558.4152
6530.227, 544.7109
6532.155, 550.1783
6534.084, 549.8227
6536.012, 543.5234
6537.941, 548.4296
6539.869, 541.8829
6541.798, 544.7288
6543.726, 546.0292
6545.655, 541.8854
6547.583, 541.3766
6549.512, 541.7697
6551.440, 545.8645
6553.369, 543.0485
6555.297, 539.9887
6557.226, 532.6462
6559.154, 534.2808
6561.083, 542.1052
6563.011, 536.8249
6564.939, 532.0799
6566.868, 524.4544
6568.796, 531.2059
6570.725, 536.4854
6572.653, 534.2659
6574.582, 531.4855
6576.510, 531.4833
6578.438, 529.2693
6580.367, 528.6330
6582.295, 523.1521
6584.224, 523.5084
6586.152, 521.9266
6588.081, 519.1011
6590.009, 520.1058
6591.938, 523.4510
6593.866, 522.0521
6595.795, 519.8766
6597.723, 522.9910
6599.652, 520.7228
6601.580, 520.9091
6603.509, 513.2780
6605.437, 517.5348
6607.366, 509.6326
6609.294, 501.8555
6611.223, 506.6151
6613.151, 508.8373
6615.080, 505.4604
6617.008, 508.6694
6618.937, 504.6180
6620.865, 503.3397
6622.793, 505.8355
6624.722, 498.7549
6626.650, 498.0691
6628.579, 500.7596
6630.507, 499.6377
##END=



