##NAMES=Ferronigerite-2N1S
##RRUFFID=R120083
##IDEAL CHEMISTRY=(Al,Fe,Zn)_2_(Al,Sn)_6_O_11_(OH)
##LOCALITY=Seixoso quarry, Lixa, Portugal
##OWNER=RRUFF
##SOURCE=Robert Jenkins
##DESCRIPTION=Dark reddish-brown hexagonal tablets, frozen in matrix
##STATUS=The identification of this mineral has been confirmed only by single crystal X-ray diffraction
##URL=https://www.rruff.net/odr/rruff_sample/R120083
##DIFFRACTION SAMPLE DESCRIPTION=Single crystal, powder profile is calculated
##CELL PARAMETERS=a: 5.703 b: 5.703 c: 13.781 alpha: 90 beta: 90 gamma: 120 volume: 388.23 crystal system: hexagonal
##FILETYPE=Raman Processed
##RAMAN WAVELENGTH=532

204.1661, 277.5265
206.0946, 283.2309
208.0230, 288.1530
209.9515, 291.9024
211.8800, 294.6360
213.8084, 297.1683
215.7369, 299.3309
217.6654, 301.4626
219.5938, 303.9712
221.5223, 307.0813
223.4508, 309.7811
225.3792, 311.6431
227.3077, 312.6572
229.2362, 314.4180
231.1646, 317.1810
233.0931, 320.3554
235.0216, 323.5095
236.9500, 326.7964
238.8785, 329.5873
240.8070, 331.6530
242.7354, 332.9650
244.6639, 334.1701
246.5924, 334.9612
248.5208, 336.1837
250.4493, 338.0587
252.3778, 340.8644
254.3062, 343.9306
256.2347, 347.6397
258.1632, 351.7122
260.0916, 355.5745
262.0201, 359.3370
263.9486, 362.9445
265.8770, 366.0908
267.8055, 368.8576
269.7340, 370.4917
271.6624, 370.1899
273.5909, 368.5966
275.5194, 367.0370
277.4478, 366.0062
279.3763, 364.8828
281.3048, 363.2472
283.2332, 361.0767
285.1617, 359.2327
287.0902, 358.5080
289.0186, 358.4077
290.9471, 358.1623
292.8756, 357.0088
294.8040, 356.3453
296.7325, 356.8472
298.6610, 358.2109
300.5894, 358.9509
302.5179, 358.6976
304.4464, 358.3485
306.3748, 358.5029
308.3033, 359.1275
310.2318, 360.1108
312.1602, 361.3034
314.0887, 362.5512
316.0172, 363.6262
317.9456, 364.8484
319.8741, 366.1234
321.8026, 367.1794
323.7310, 367.9160
325.6595, 368.9916
327.5880, 370.7900
329.5164, 373.0136
331.4449, 375.2298
333.3734, 377.7272
335.3018, 379.8653
337.2303, 380.9635
339.1588, 380.9111
341.0872, 380.6474
343.0157, 380.6272
344.9442, 380.8802
346.8727, 381.6416
348.8011, 383.1781
350.7296, 384.4164
352.6581, 384.3087
354.5865, 383.1811
356.5150, 382.7280
358.4435, 384.0498
360.3719, 385.7846
362.3004, 387.2458
364.2289, 388.2562
366.1573, 389.0566
368.0858, 389.7030
370.0143, 390.2042
371.9427, 390.4682
373.8712, 390.2849
375.7997, 390.4308
377.7281, 391.3903
379.6566, 393.1682
381.5851, 395.2113
383.5135, 397.7340
385.4420, 400.0425
387.3705, 401.5959
389.2989, 402.3538
391.2274, 403.0505
393.1559, 403.7319
395.0843, 404.9389
397.0128, 407.6205
398.9413, 412.1223
400.8697, 416.5047
402.7982, 420.2667
404.7267, 423.6463
406.6551, 427.2394
408.5836, 430.8712
410.5121, 434.5084
412.4405, 438.0504
414.3690, 441.9757
416.2975, 446.6212
418.2259, 451.6234
420.1544, 456.5917
422.0829, 461.4143
424.0113, 466.5195
425.9398, 472.0392
427.8683, 478.1017
429.7967, 484.5304
431.7252, 490.8145
433.6537, 497.1927
435.5821, 503.9883
437.5106, 511.3019
439.4391, 518.8997
441.3675, 526.6654
443.2960, 533.9989
445.2245, 541.7106
447.1529, 550.4075
449.0814, 560.5358
451.0099, 572.3580
452.9383, 585.9653
454.8668, 601.3561
456.7953, 618.1400
458.7237, 637.6464
460.6522, 656.5522
462.5807, 673.8118
464.5091, 689.2576
466.4376, 701.6440
468.3661, 709.8627
470.2945, 714.5301
472.2230, 716.7598
474.1515, 716.3209
476.0799, 715.1251
478.0084, 713.9568
479.9369, 714.2209
481.8653, 715.4395
483.7938, 718.2999
485.7223, 720.9373
487.6507, 724.1901
489.5792, 726.9113
491.5077, 726.3343
493.4361, 719.2789
495.3646, 708.0056
497.2931, 693.8411
499.2215, 678.2852
501.1500, 660.6841
503.0785, 638.4942
505.0069, 616.4382
506.9354, 597.4573
508.8639, 583.2024
510.7923, 570.9396
512.7208, 560.3333
514.6493, 551.3182
516.5778, 544.3831
518.5062, 539.9727
520.4347, 536.5248
522.3632, 533.6090
524.2916, 531.2569
526.2201, 529.1592
528.1486, 526.9366
530.0770, 524.9044
532.0055, 523.3701
533.9340, 522.5688
535.8624, 522.3563
537.7909, 523.0546
539.7194, 523.9879
541.6478, 524.5475
543.5763, 524.5392
545.5048, 524.2151
547.4332, 523.3587
549.3617, 522.3394
551.2902, 521.4962
553.2186, 521.0913
555.1471, 519.9610
557.0756, 517.4059
559.0040, 514.1403
560.9325, 511.4873
562.8610, 509.7034
564.7894, 508.4749
566.7179, 507.6027
568.6464, 506.6747
570.5748, 506.6637
572.5033, 508.0288
574.4318, 510.0504
576.3602, 511.9905
578.2887, 513.6996
580.2172, 515.4213
582.1456, 517.5201
584.0741, 519.5552
586.0026, 520.8910
587.9310, 520.8581
589.8595, 521.0919
591.7880, 522.2135
593.7164, 523.5966
595.6449, 524.3922
597.5734, 524.1896
599.5018, 524.0412
601.4303, 523.8860
603.3588, 524.1265
605.2872, 525.1560
607.2157, 527.1329
609.1442, 529.4010
611.0726, 531.6670
613.0011, 533.8795
614.9296, 536.5912
616.8580, 540.3181
618.7865, 544.1403
620.7150, 547.5024
622.6434, 550.5554
624.5719, 553.1261
626.5004, 554.5134
628.4288, 555.8176
630.3573, 558.0911
632.2858, 561.3023
634.2142, 565.8107
636.1427, 573.0691
638.0712, 580.9915
639.9996, 586.2296
641.9281, 587.7970
643.8566, 589.6339
645.7850, 593.1270
647.7135, 597.6512
649.6420, 601.9396
651.5704, 605.3537
653.4989, 609.3510
655.4274, 614.5799
657.3558, 620.7444
659.2843, 626.7687
661.2128, 632.3091
663.1412, 638.1649
665.0697, 644.5706
666.9982, 651.6050
668.9266, 658.9506
670.8551, 666.7382
672.7836, 674.5001
674.7120, 682.3588
676.6405, 690.3424
678.5690, 697.4631
680.4974, 702.9628
682.4259, 707.8238
684.3544, 712.7078
686.2828, 718.3029
688.2113, 723.1937
690.1398, 726.7372
692.0682, 729.8841
693.9967, 733.7906
695.9252, 738.6502
697.8536, 743.0873
699.7821, 746.7181
701.7106, 749.9409
703.6390, 753.0197
705.5675, 756.0712
707.4960, 758.5795
709.4244, 760.3502
711.3529, 761.5961
713.2814, 762.5266
715.2098, 762.8494
717.1383, 763.4982
719.0668, 764.8859
720.9952, 767.0226
722.9237, 768.6099
724.8522, 769.1889
726.7806, 769.4077
728.7091, 769.5579
730.6376, 769.9209
732.5660, 770.1733
734.4945, 770.1296
736.4230, 769.8418
738.3514, 769.2338
740.2799, 768.4996
742.2084, 768.6037
744.1368, 769.2661
746.0653, 771.3630
747.9938, 775.6990
749.9222, 781.7330
751.8507, 788.4998
753.7792, 797.1067
755.7076, 805.0297
757.6361, 812.0862
759.5646, 818.9566
761.4930, 823.5247
763.4215, 825.8193
765.3500, 825.1022
767.2784, 820.4881
769.2069, 813.1234
771.1354, 805.0324
773.0638, 795.2675
774.9923, 785.6008
776.9208, 777.5051
778.8492, 770.8147
780.7777, 764.4210
782.7062, 757.6603
784.6346, 752.1622
786.5631, 749.4710
788.4916, 749.2940
790.4200, 749.5076
792.3485, 749.6537
794.2770, 750.0429
796.2054, 751.1096
798.1339, 753.1883
800.0624, 755.3306
801.9908, 757.1464
803.9193, 758.5713
805.8478, 760.5084
807.7762, 763.7587
809.7047, 766.8422
811.6332, 768.8050
813.5616, 770.0979
815.4901, 771.7877
817.4186, 773.5563
819.3470, 774.8107
821.2755, 775.5582
823.2040, 776.4081
825.1324, 777.3231
827.0609, 777.9471
828.9894, 778.4159
830.9178, 778.8412
832.8463, 779.3478
834.7748, 779.6539
836.7032, 780.0507
838.6317, 781.4558
840.5602, 783.9318
842.4886, 787.2972
844.4171, 791.5469
846.3456, 796.7489
848.2740, 802.9604
850.2025, 810.4945
852.1310, 817.9264
854.0594, 824.9813
855.9879, 831.3061
857.9164, 836.3464
859.8448, 840.5865
861.7733, 843.6550
863.7018, 843.9542
865.6302, 840.0748
867.5587, 833.2515
869.4872, 823.9752
871.4156, 813.1793
873.3441, 799.9782
875.2726, 785.0707
877.2010, 770.3770
879.1295, 756.1818
881.0580, 742.5680
882.9865, 730.0467
884.9149, 718.0399
886.8434, 706.7563
888.7719, 696.3788
890.7003, 686.8889
892.6288, 677.6293
894.5573, 670.3480
896.4857, 664.8948
898.4142, 659.9988
900.3427, 654.6564
902.2711, 648.9727
904.1996, 643.5319
906.1281, 638.6908
908.0565, 634.8907
909.9850, 632.1036
911.9135, 630.0421
913.8419, 627.2094
915.7704, 624.2489
917.6989, 622.0457
919.6273, 620.6542
921.5558, 619.7810
923.4843, 619.3262
925.4127, 618.4882
927.3412, 617.2347
929.2697, 616.6077
931.1981, 617.5272
933.1266, 620.2625
935.0551, 623.2601
936.9835, 625.4565
938.9120, 627.1298
940.8405, 628.9410
942.7689, 631.1895
944.6974, 633.3870
946.6259, 635.9853
948.5543, 638.6650
950.4828, 640.9889
952.4113, 643.6335
954.3397, 645.5097
956.2682, 648.8531
958.1967, 651.6271
960.1251, 654.5728
962.0536, 658.3542
963.9821, 662.0085
965.9105, 664.0049
967.8390, 665.4798
969.7675, 667.0896
971.6959, 668.4270
973.6244, 668.0538
975.5529, 665.9937
977.4813, 663.7681
979.4098, 662.1696
981.3383, 661.0613
983.2667, 658.9199
985.1952, 654.7209
987.1237, 649.9160
989.0521, 645.4363
990.9806, 641.3809
992.9091, 637.6994
994.8375, 634.3593
996.7660, 632.0325
998.6945, 630.6757
1000.623, 629.2022
1002.551, 627.3799
1004.480, 625.2929
1006.408, 624.1347
1008.337, 623.6114
1010.265, 623.4759
1012.194, 623.4072
1014.122, 623.2534
1016.051, 623.0311
1017.979, 623.2269
1019.908, 623.9530
1021.836, 624.6619
1023.765, 625.1689
1025.693, 625.5325
1027.621, 625.6891
1029.550, 626.3639
1031.478, 627.6970
1033.407, 629.1877
1035.335, 629.9043
1037.264, 629.6685
1039.192, 629.7180
1041.121, 630.2069
1043.049, 630.6198
1044.978, 631.1174
1046.906, 631.9411
1048.835, 633.2733
1050.763, 634.9919
1052.692, 636.0833
1054.620, 636.3943
1056.548, 635.8066
1058.477, 635.7119
1060.405, 636.1720
1062.334, 637.3659
1064.262, 638.9020
1066.191, 640.2715
1068.119, 641.1801
1070.048, 641.4910
1071.976, 641.7859
1073.905, 643.0385
1075.833, 645.5685
1077.762, 647.7870
1079.690, 649.3005
1081.619, 650.3666
1083.547, 651.2427
1085.475, 651.7047
1087.404, 651.9908
1089.332, 652.1867
1091.261, 652.7654
1093.189, 653.9504
1095.118, 654.8127
1097.046, 655.2559
1098.975, 655.8567
1100.903, 656.8776
1102.832, 658.4270
1104.760, 659.3162
1106.689, 659.2335
1108.617, 658.9450
1110.546, 659.6680
1112.474, 662.5355
1114.402, 664.6839
1116.331, 665.0027
1118.259, 664.1873
1120.188, 664.3727
1122.116, 666.2660
1124.045, 668.0706
1125.973, 669.2354
1127.902, 669.7838
1129.830, 669.9244
1131.759, 669.8134
1133.687, 670.3627
1135.616, 672.1756
1137.544, 673.6470
1139.473, 674.1432
1141.401, 674.2984
1143.329, 674.6271
1145.258, 674.9407
1147.186, 675.7823
1149.115, 677.8969
1151.043, 679.9008
1152.972, 680.7688
1154.900, 681.1169
1156.829, 682.1248
1158.757, 684.5429
1160.686, 686.2783
1162.614, 685.8939
1164.543, 684.4944
1166.471, 684.4659
1168.400, 686.4799
1170.328, 688.5343
1172.256, 690.0252
1174.185, 691.4037
1176.113, 692.9583
1178.042, 694.5879
1179.970, 695.8146
1181.899, 696.2665
1183.827, 696.7115
1185.756, 697.3213
1187.684, 698.1852
1189.613, 699.1962
1191.541, 700.3693
1193.470, 701.6115
1195.398, 703.2711
1197.327, 704.9466
1199.255, 705.9620
1201.183, 706.2372
1203.112, 707.0115
1205.040, 708.9699
1206.969, 710.6329
1208.897, 710.9773
1210.826, 710.5159
1212.754, 710.9090
1214.683, 712.7047
1216.611, 714.7423
1218.540, 717.7372
1220.468, 720.6234
1222.397, 722.1684
1224.325, 722.5493
1226.254, 724.0355
1228.182, 727.4972
1230.110, 730.7516
1232.039, 732.5485
1233.967, 733.4485
1235.896, 734.2030
1237.824, 734.6047
1239.753, 735.2799
1241.681, 736.6627
1243.610, 738.0955
1245.538, 739.3207
1247.467, 740.4081
1249.395, 741.5399
1251.324, 743.0984
1253.252, 744.4926
1255.181, 745.5912
1257.109, 746.4199
1259.037, 747.2233
1260.966, 748.0986
1262.894, 748.8465
1264.823, 748.9401
1266.751, 749.5648
1268.680, 751.7502
1270.608, 754.5510
1272.537, 756.6302
1274.465, 757.7665
1276.394, 759.1797
1278.322, 761.3836
1280.251, 763.6720
1282.179, 765.8491
1284.108, 768.2394
1286.036, 769.9899
1287.964, 769.8357
1289.893, 770.4261
1291.821, 772.9656
1293.750, 776.2654
1295.678, 778.6246
1297.607, 780.0811
1299.535, 781.9943
1301.464, 784.5929
1303.392, 786.9608
1305.321, 788.8155
1307.249, 790.5276
1309.178, 791.8744
1311.106, 792.4030
1313.035, 793.7443
1314.963, 797.2307
1316.891, 800.9072
1318.820, 803.2631
1320.748, 804.7786
1322.677, 806.9113
1324.605, 809.9352
1326.534, 812.5673
1328.462, 814.4286
1330.391, 816.1315
1332.319, 818.0848
1334.248, 819.7650
1336.176, 820.7288
1338.105, 820.8821
1340.033, 821.5265
1341.962, 823.1610
1343.890, 825.2929
1345.818, 827.2969
1347.747, 829.2077
1349.675, 831.6261
1351.604, 834.9609
1353.532, 837.8689
1355.461, 839.5056
1357.389, 840.3584
1359.318, 841.2418
1361.246, 842.2139
1363.175, 843.6848
1365.103, 846.7289
1367.032, 849.7165
1368.960, 851.4592
1370.889, 851.7287
1372.817, 852.0104
1374.745, 852.6002
1376.674, 854.6210
1378.602, 858.7499
1380.531, 862.3739
1382.459, 863.7406
1384.388, 863.8996
1386.316, 865.2958
1388.245, 867.6620
1390.173, 869.7023
1392.102, 871.9896
1394.030, 874.4181
1395.959, 876.1638
1397.887, 876.0929
1399.816, 876.0364
1401.744, 876.7468
1403.672, 878.0372
1405.601, 880.0391
1407.529, 882.0945
1409.458, 883.6744
1411.386, 884.7282
1413.315, 886.0544
1415.243, 888.0014
1417.172, 890.2332
1419.100, 893.0094
1421.029, 895.5283
1422.957, 896.7103
1424.886, 896.4118
1426.814, 896.6119
1428.743, 897.4053
1430.671, 899.2886
1432.599, 903.7499
1434.528, 908.6335
1436.456, 910.8372
1438.385, 909.6722
1440.313, 910.2401
1442.242, 913.9907
1444.170, 916.7598
1446.099, 916.8824
1448.027, 916.1869
1449.956, 917.0356
1451.884, 920.0002
1453.813, 921.7917
1455.741, 921.6038
1457.670, 921.7667
1459.598, 922.3715
1461.526, 923.2700
1463.455, 924.9529
1465.383, 928.0562
1467.312, 930.4532
1469.240, 931.4205
1471.169, 932.3669
1473.097, 933.3021
1475.026, 934.0820
1476.954, 934.8640
1478.883, 935.8030
1480.811, 936.5877
1482.740, 937.2357
1484.668, 938.5706
1486.597, 941.0668
1488.525, 943.6578
1490.453, 945.6120
1492.382, 947.3595
1494.310, 949.8311
1496.239, 952.6373
1498.167, 955.3248
1500.096, 958.2536
1502.024, 960.9807
1503.953, 963.0049
1505.881, 964.2895
1507.810, 965.3439
1509.738, 966.3485
1511.667, 966.3375
1513.595, 964.9692
1515.524, 964.0566
1517.452, 964.8412
1519.380, 966.7115
1521.309, 967.7161
1523.237, 967.1228
1525.166, 967.1425
1527.094, 967.6818
1529.023, 968.4068
1530.951, 969.1601
1532.880, 970.0166
1534.808, 971.4178
1536.737, 974.0663
1538.665, 975.4617
1540.594, 974.3119
1542.522, 973.1953
1544.451, 972.6786
1546.379, 973.0853
1548.307, 975.0023
1550.236, 978.5342
1552.164, 981.9691
1554.093, 985.8775
1556.021, 987.8271
1557.950, 986.0457
1559.878, 983.6722
1561.807, 982.9236
1563.735, 983.4307
1565.664, 983.9099
1567.592, 984.3563
1569.521, 985.1212
1571.449, 986.9752
1573.378, 988.4620
1575.306, 988.0419
1577.234, 986.6841
1579.163, 986.6510
1581.091, 988.2158
1583.020, 989.3788
1584.948, 989.3380
1586.877, 989.2936
1588.805, 989.9584
1590.734, 991.1214
1592.662, 992.7602
1594.591, 994.7549
1596.519, 996.1151
1598.448, 996.3486
1600.376, 996.8934
1602.305, 998.2745
1604.233, 999.7113
1606.161, 1000.273
1608.090, 1000.550
1610.018, 1002.390
1611.947, 1006.148
1613.875, 1008.384
1615.804, 1008.250
1617.732, 1007.632
1619.661, 1007.227
1621.589, 1006.990
1623.518, 1006.719
1625.446, 1006.516
1627.375, 1007.150
1629.303, 1008.798
1631.232, 1010.527
1633.160, 1010.978
1635.089, 1012.258
1637.017, 1016.457
1638.945, 1021.899
1640.874, 1024.827
1642.802, 1024.971
1644.731, 1024.930
1646.659, 1025.368
1648.588, 1025.236
1650.516, 1023.263
1652.445, 1021.648
1654.373, 1022.338
1656.302, 1025.064
1658.230, 1028.274
1660.159, 1032.402
1662.087, 1035.430
1664.016, 1036.763
1665.944, 1037.233
1667.872, 1036.132
1669.801, 1034.944
1671.729, 1036.190
1673.658, 1040.274
1675.586, 1042.246
1677.515, 1040.942
1679.443, 1039.953
1681.372, 1039.602
1683.300, 1040.026
1685.229, 1041.556
1687.157, 1043.782
1689.086, 1045.901
1691.014, 1047.839
1692.943, 1049.416
1694.871, 1050.170
1696.799, 1051.060
1698.728, 1052.733
1700.656, 1054.230
1702.585, 1054.760
1704.513, 1054.721
1706.442, 1055.259
1708.370, 1056.689
1710.299, 1057.823
1712.227, 1058.109
1714.156, 1058.724
1716.084, 1060.208
1718.013, 1061.755
1719.941, 1062.492
1721.870, 1063.684
1723.798, 1064.733
1725.726, 1065.211
1727.655, 1066.522
1729.583, 1066.869
1731.512, 1067.308
1733.440, 1067.938
1735.369, 1069.016
1737.297, 1071.189
1739.226, 1074.175
1741.154, 1075.979
1743.083, 1076.142
1745.011, 1076.810
1746.940, 1078.117
1748.868, 1079.988
1750.797, 1082.850
1752.725, 1085.673
1754.653, 1087.417
1756.582, 1088.173
1758.510, 1088.889
1760.439, 1089.727
1762.367, 1089.723
1764.296, 1087.974
1766.224, 1086.922
1768.153, 1086.937
1770.081, 1088.579
1772.010, 1093.804
1773.938, 1101.155
1775.867, 1104.508
1777.795, 1103.313
1779.724, 1102.237
1781.652, 1101.512
1783.580, 1101.418
1785.509, 1102.168
1787.437, 1103.305
1789.366, 1104.522
1791.294, 1105.805
1793.223, 1107.119
1795.151, 1108.437
1797.080, 1110.457
1799.008, 1113.981
1800.937, 1116.323
1802.865, 1115.756
1804.794, 1115.058
1806.722, 1116.620
1808.651, 1118.904
1810.579, 1119.064
1812.507, 1117.426
1814.436, 1117.647
1816.364, 1120.419
1818.293, 1122.999
1820.221, 1124.641
1822.150, 1125.931
1824.078, 1127.326
1826.007, 1128.464
1827.935, 1128.663
1829.864, 1128.346
1831.792, 1129.116
1833.721, 1131.313
1835.649, 1133.204
1837.578, 1134.483
1839.506, 1135.503
1841.434, 1135.783
1843.363, 1136.229
1845.291, 1137.320
1847.220, 1139.055
1849.148, 1141.984
1851.077, 1146.411
1853.005, 1148.796
1854.934, 1147.684
1856.862, 1147.152
1858.791, 1148.456
1860.719, 1149.592
1862.648, 1149.041
1864.576, 1148.275
1866.505, 1149.299
1868.433, 1151.819
1870.361, 1153.818
1872.290, 1155.263
1874.218, 1156.304
1876.147, 1156.613
1878.075, 1157.091
1880.004, 1157.627
1881.932, 1158.788
1883.861, 1161.592
1885.789, 1164.900
1887.718, 1166.099
1889.646, 1165.098
1891.575, 1166.841
1893.503, 1172.337
1895.432, 1176.609
1897.360, 1178.846
1899.288, 1179.949
1901.217, 1179.661
1903.145, 1179.364
1905.074, 1180.578
1907.002, 1180.814
1908.931, 1181.516
1910.859, 1182.944
1912.788, 1183.668
1914.716, 1185.594
1916.645, 1188.038
1918.573, 1191.180
1920.502, 1193.783
1922.430, 1195.576
1924.359, 1196.304
1926.287, 1194.541
1928.215, 1192.008
1930.144, 1193.567
1932.072, 1199.505
1934.001, 1202.971
1935.929, 1202.578
1937.858, 1202.546
1939.786, 1203.390
1941.715, 1204.666
1943.643, 1206.917
1945.572, 1208.798
1947.500, 1208.278
1949.429, 1206.645
1951.357, 1207.324
1953.286, 1210.548
1955.214, 1213.137
1957.143, 1214.834
1959.071, 1216.467
1961.000, 1218.868
1962.928, 1220.275
1964.856, 1219.291
1966.785, 1218.279
1968.713, 1218.740
1970.642, 1220.489
1972.570, 1223.569
1974.499, 1227.718
1976.427, 1231.042
1978.356, 1233.387
1980.284, 1234.969
1982.213, 1235.513
1984.141, 1235.769
1986.070, 1234.825
1987.998, 1234.865
1989.927, 1237.986
1991.855, 1242.225
1993.783, 1245.089
1995.712, 1246.896
1997.640, 1249.104
1999.569, 1251.993
2001.497, 1254.238
2003.426, 1256.032
2005.354, 1256.947
2007.283, 1256.141
2009.211, 1255.437
2011.140, 1254.998
2013.068, 1255.404
2014.997, 1257.972
2016.925, 1261.437
2018.854, 1263.031
2020.782, 1262.922
2022.710, 1263.383
2024.639, 1264.616
2026.567, 1265.671
2028.496, 1265.979
2030.424, 1267.141
2032.353, 1269.796
2034.281, 1273.042
2036.210, 1277.724
2038.138, 1281.537
2040.067, 1281.106
2041.995, 1278.311
2043.924, 1277.764
2045.852, 1279.441
2047.781, 1281.071
2049.709, 1282.391
2051.637, 1284.224
2053.566, 1287.662
2055.494, 1290.022
2057.423, 1290.168
2059.351, 1289.923
2061.280, 1290.603
2063.208, 1291.334
2065.137, 1290.572
2067.065, 1289.348
2068.994, 1290.658
2070.922, 1294.381
2072.851, 1297.719
2074.779, 1300.383
2076.708, 1302.340
2078.636, 1302.695
2080.564, 1303.882
2082.493, 1307.708
2084.421, 1310.936
2086.350, 1311.817
2088.278, 1311.663
2090.207, 1311.705
2092.135, 1311.893
2094.064, 1311.908
2095.992, 1311.824
2097.921, 1311.594
2099.849, 1310.324
2101.778, 1311.217
2103.706, 1315.870
2105.635, 1319.295
2107.563, 1319.892
2109.491, 1320.546
2111.420, 1323.589
2113.348, 1325.738
2115.277, 1323.285
2117.205, 1320.140
2119.134, 1321.903
2121.062, 1326.827
2122.991, 1329.925
2124.919, 1331.127
2126.848, 1332.779
2128.776, 1334.969
2130.705, 1337.086
2132.633, 1339.293
2134.562, 1340.848
2136.490, 1340.812
2138.418, 1341.248
2140.347, 1344.479
2142.275, 1347.218
2144.204, 1345.501
2146.132, 1342.554
2148.061, 1343.969
2149.989, 1344.659
2151.918, 1346.616
2153.846, 1350.824
2155.775, 1353.488
2157.703, 1359.711
2159.632, 1364.364
2161.560, 1366.120
2163.489, 1366.934
2165.417, 1366.796
2167.345, 1366.377
2169.274, 1366.266
2171.202, 1365.709
2173.131, 1363.057
2175.059, 1360.613
2176.988, 1362.586
2178.916, 1362.062
2180.845, 1363.662
2182.773, 1366.621
2184.702, 1368.277
2186.630, 1374.240
2188.559, 1377.754
2190.487, 1377.249
2192.416, 1376.938
2194.344, 1377.295
2196.272, 1378.766
2198.201, 1383.356
2200.129, 1386.867
2202.058, 1385.797
2203.986, 1383.809
2205.915, 1384.433
2207.843, 1386.499
2209.772, 1388.511
2211.700, 1390.186
2213.629, 1389.387
2215.557, 1386.122
2217.486, 1386.452
2219.414, 1391.231
2221.343, 1394.779
2223.271, 1396.140
2225.199, 1397.213
2227.128, 1398.586
2229.056, 1399.279
2230.985, 1397.549
2232.913, 1396.617
2234.842, 1398.844
2236.770, 1402.089
2238.699, 1404.732
2240.627, 1407.052
2242.556, 1409.613
2244.484, 1412.184
2246.413, 1413.849
2248.341, 1414.606
2250.270, 1414.286
2252.198, 1412.713
2254.126, 1413.833
2256.055, 1418.945
2257.983, 1422.297
2259.912, 1421.093
2261.840, 1421.209
2263.769, 1425.607
2265.697, 1429.271
2267.626, 1429.991
2269.554, 1429.759
2271.483, 1429.953
2273.411, 1429.958
2275.340, 1429.034
2277.268, 1427.853
2279.197, 1427.124
2281.125, 1427.076
2283.053, 1428.588
2284.982, 1431.331
2286.910, 1432.722
2288.839, 1432.226
2290.767, 1432.364
2292.696, 1433.218
2294.624, 1434.337
2296.553, 1435.913
2298.481, 1437.425
2300.410, 1439.115
2302.338, 1440.474
2304.267, 1441.943
2306.195, 1442.424
2308.124, 1440.047
2310.052, 1438.097
2311.980, 1439.073
2313.909, 1441.842
2315.837, 1445.670
2317.766, 1449.908
2319.694, 1453.458
2321.623, 1456.194
2323.551, 1457.728
2325.480, 1457.970
2327.408, 1458.077
2329.337, 1458.033
2331.265, 1457.889
2333.194, 1457.665
2335.122, 1457.273
2337.051, 1456.729
2338.979, 1456.291
2340.907, 1456.368
2342.836, 1456.470
2344.764, 1456.483
2346.693, 1456.748
2348.621, 1457.251
2350.550, 1458.045
2352.478, 1458.905
2354.407, 1459.781
2356.335, 1460.057
2358.264, 1460.478
2360.192, 1463.403
2362.121, 1462.214
2364.049, 1465.554
2365.978, 1461.518
2367.906, 1459.309
2369.834, 1459.106
2371.763, 1460.941
2373.691, 1465.518
2375.620, 1466.149
2377.548, 1461.330
2379.477, 1460.721
2381.405, 1466.270
2383.334, 1470.117
2385.262, 1469.789
2387.191, 1470.310
2389.119, 1475.876
2391.048, 1478.495
2392.976, 1472.101
2394.905, 1467.817
2396.833, 1472.528
2398.761, 1478.160
2400.690, 1479.480
2402.618, 1479.859
2404.547, 1482.256
2406.475, 1482.511
2408.404, 1484.850
2410.332, 1483.880
2412.261, 1483.970
2414.189, 1484.655
2416.118, 1484.152
2418.046, 1483.045
2419.975, 1485.073
2421.903, 1483.719
2423.832, 1489.775
2425.760, 1484.809
2427.688, 1484.144
2429.617, 1488.823
2431.545, 1492.144
2433.474, 1493.096
2435.402, 1493.603
2437.331, 1493.414
2439.259, 1493.770
2441.188, 1495.329
2443.116, 1496.548
2445.045, 1496.450
2446.973, 1497.635
2448.902, 1502.056
2450.830, 1505.896
2452.759, 1506.907
2454.687, 1507.119
2456.615, 1506.857
2458.544, 1507.091
2460.472, 1509.412
2462.401, 1511.804
2464.329, 1512.322
2466.258, 1512.136
2468.186, 1511.965
2470.115, 1512.431
2472.043, 1514.731
2473.972, 1517.873
2475.900, 1519.783
2477.829, 1520.752
2479.757, 1522.488
2481.686, 1524.632
2483.614, 1524.889
2485.542, 1523.505
2487.471, 1521.524
2489.399, 1519.251
2491.328, 1518.443
2493.256, 1519.280
2495.185, 1521.879
2497.113, 1527.617
2499.042, 1530.135
2500.970, 1527.366
2502.899, 1526.180
2504.827, 1527.324
2506.756, 1528.057
2508.684, 1527.965
2510.613, 1527.415
2512.541, 1525.938
2514.469, 1525.661
2516.398, 1528.421
2518.326, 1530.814
2520.255, 1531.632
2522.183, 1532.398
2524.112, 1533.062
2526.040, 1534.422
2527.969, 1537.524
2529.897, 1540.180
2531.826, 1540.564
2533.754, 1540.897
2535.683, 1542.476
2537.611, 1544.953
2539.540, 1549.531
2541.468, 1553.287
2543.396, 1551.827
2545.325, 1549.506
2547.253, 1551.221
2549.182, 1554.178
2551.110, 1554.903
2553.039, 1556.814
2554.967, 1556.586
2556.896, 1559.057
2558.824, 1560.053
2560.753, 1560.086
2562.681, 1559.982
2564.610, 1559.891
2566.538, 1559.604
2568.467, 1559.384
2570.395, 1560.570
2572.323, 1562.649
2574.252, 1563.129
2576.180, 1565.278
2578.109, 1567.344
2580.037, 1568.692
2581.966, 1571.428
2583.894, 1572.531
2585.823, 1573.138
2587.751, 1573.407
2589.680, 1573.482
2591.608, 1572.927
2593.537, 1575.062
2595.465, 1580.295
2597.394, 1583.586
2599.322, 1584.456
2601.250, 1584.241
2603.179, 1582.491
2605.107, 1583.792
2607.036, 1591.338
2608.964, 1594.317
2610.893, 1590.263
2612.821, 1588.747
2614.750, 1590.798
2616.678, 1594.119
2618.607, 1599.242
2620.535, 1601.352
2622.464, 1604.522
2624.392, 1607.930
2626.321, 1606.616
2628.249, 1611.736
2630.177, 1607.179
2632.106, 1603.917
2634.034, 1604.030
2635.963, 1605.728
2637.891, 1610.291
2639.820, 1612.715
2641.748, 1609.494
2643.677, 1607.960
2645.605, 1610.737
2647.534, 1612.474
2649.462, 1611.142
2651.391, 1610.633
2653.319, 1612.466
2655.248, 1614.389
2657.176, 1613.978
2659.104, 1616.186
2661.033, 1627.851
2662.961, 1633.178
2664.890, 1624.545
2666.818, 1617.841
2668.747, 1620.381
2670.675, 1622.892
2672.604, 1621.042
2674.532, 1619.932
2676.461, 1621.329
2678.389, 1623.438
2680.318, 1625.474
2682.246, 1628.112
2684.175, 1632.636
2686.103, 1635.583
2688.031, 1634.034
2689.960, 1633.095
2691.888, 1635.715
2693.817, 1638.108
2695.745, 1639.075
2697.674, 1640.099
2699.602, 1641.819
2701.531, 1643.612
2703.459, 1645.736
2705.388, 1646.845
2707.316, 1644.501
2709.245, 1643.879
2711.173, 1647.674
2713.102, 1650.896
2715.030, 1651.007
2716.958, 1651.381
2718.887, 1653.372
2720.815, 1655.846
2722.744, 1659.312
2724.672, 1661.976
2726.601, 1663.597
2728.529, 1664.188
2730.458, 1662.868
2732.386, 1662.374
2734.315, 1664.645
2736.243, 1666.057
2738.172, 1664.033
2740.100, 1663.443
2742.029, 1665.951
2743.957, 1668.409
2745.885, 1670.153
2747.814, 1671.635
2749.742, 1672.748
2751.671, 1674.471
2753.599, 1676.834
2755.528, 1680.388
2757.456, 1686.054
2759.385, 1689.498
2761.313, 1687.704
2763.242, 1687.688
2765.170, 1692.593
2767.099, 1695.628
2769.027, 1696.011
2770.956, 1694.921
2772.884, 1691.908
2774.813, 1691.245
2776.741, 1695.833
2778.669, 1697.131
2780.598, 1692.659
2782.526, 1690.529
2784.455, 1691.447
2786.383, 1692.500
2788.312, 1693.154
2790.240, 1695.033
2792.169, 1698.759
2794.097, 1700.879
2796.026, 1700.936
2797.954, 1701.595
2799.883, 1702.971
2801.811, 1703.400
2803.740, 1702.875
2805.668, 1704.097
2807.596, 1704.304
2809.525, 1705.329
2811.453, 1706.416
2813.382, 1707.412
2815.310, 1710.330
2817.239, 1710.801
2819.167, 1709.253
2821.096, 1707.580
2823.024, 1706.283
2824.953, 1708.086
2826.881, 1711.990
2828.810, 1715.337
2830.738, 1718.202
2832.667, 1721.409
2834.595, 1724.022
2836.523, 1723.691
2838.452, 1722.020
2840.380, 1720.729
2842.309, 1720.900
2844.237, 1725.529
2846.166, 1730.464
2848.094, 1729.911
2850.023, 1728.016
2851.951, 1728.995
2853.880, 1730.382
2855.808, 1729.807
2857.737, 1729.615
2859.665, 1731.841
2861.594, 1734.713
2863.522, 1737.981
2865.450, 1740.455
2867.379, 1741.467
2869.307, 1741.844
2871.236, 1739.893
2873.164, 1740.608
2875.093, 1748.594
2877.021, 1753.785
2878.950, 1753.433
2880.878, 1753.004
2882.807, 1753.723
2884.735, 1754.652
2886.664, 1756.168
2888.592, 1756.495
2890.521, 1758.828
2892.449, 1761.056
2894.377, 1762.533
2896.306, 1766.173
2898.234, 1766.686
2900.163, 1767.954
2902.091, 1770.099
2904.020, 1768.350
2905.948, 1763.746
2907.877, 1762.104
2909.805, 1763.293
2911.734, 1766.673
2913.662, 1771.430
2915.591, 1775.507
2917.519, 1778.807
2919.448, 1781.152
2921.376, 1782.629
2923.304, 1783.434
2925.233, 1783.464
2927.161, 1781.903
2929.090, 1780.538
2931.018, 1781.277
2932.947, 1782.278
2934.875, 1781.888
2936.804, 1781.986
2938.732, 1784.738
2940.661, 1786.134
2942.589, 1783.757
2944.518, 1782.438
2946.446, 1784.898
2948.375, 1786.776
2950.303, 1787.005
2952.231, 1787.314
2954.160, 1787.818
2956.088, 1788.424
2958.017, 1788.955
2959.945, 1790.043
2961.874, 1791.732
2963.802, 1793.151
2965.731, 1794.224
2967.659, 1792.965
2969.588, 1794.135
2971.516, 1794.229
2973.445, 1794.296
2975.373, 1795.063
2977.302, 1794.654
2979.230, 1795.137
2981.158, 1795.562
2983.087, 1794.675
2985.015, 1793.353
2986.944, 1792.316
2988.872, 1791.776
2990.801, 1791.488
2992.729, 1792.717
2994.658, 1798.014
2996.586, 1801.726
2998.515, 1800.649
3000.443, 1800.054
3002.372, 1801.203
3004.300, 1801.164
3006.229, 1798.649
3008.157, 1797.155
3010.085, 1796.763
3012.014, 1799.239
3013.942, 1804.527
3015.871, 1810.325
3017.799, 1815.763
3019.728, 1813.951
3021.656, 1807.777
3023.585, 1807.641
3025.513, 1810.600
3027.442, 1810.736
3029.370, 1811.383
3031.299, 1818.918
3033.227, 1826.071
3035.156, 1826.692
3037.084, 1824.568
3039.012, 1820.057
3040.941, 1816.374
3042.869, 1815.634
3044.798, 1814.753
3046.726, 1812.678
3048.655, 1812.871
3050.583, 1816.931
3052.512, 1819.744
3054.440, 1820.841
3056.369, 1822.216
3058.297, 1823.895
3060.226, 1825.909
3062.154, 1827.689
3064.083, 1825.398
3066.011, 1821.580
3067.939, 1822.659
3069.868, 1825.982
3071.796, 1830.048
3073.725, 1832.221
3075.653, 1828.917
3077.582, 1824.807
3079.510, 1821.688
3081.439, 1820.466
3083.367, 1822.172
3085.296, 1825.048
3087.224, 1829.618
3089.153, 1831.961
3091.081, 1831.205
3093.010, 1832.123
3094.938, 1835.271
3096.866, 1836.424
3098.795, 1835.814
3100.723, 1835.428
3102.652, 1835.246
3104.580, 1835.447
3106.509, 1835.385
3108.437, 1832.212
3110.366, 1830.543
3112.294, 1836.611
3114.223, 1842.013
3116.151, 1840.721
3118.080, 1839.747
3120.008, 1842.583
3121.937, 1843.038
3123.865, 1839.199
3125.793, 1836.701
3127.722, 1836.253
3129.650, 1836.758
3131.579, 1838.037
3133.507, 1839.786
3135.436, 1841.679
3137.364, 1842.477
3139.293, 1843.223
3141.221, 1845.932
3143.150, 1849.802
3145.078, 1855.710
3147.007, 1859.787
3148.935, 1857.651
3150.864, 1855.672
3152.792, 1855.986
3154.720, 1855.755
3156.649, 1853.935
3158.577, 1852.706
3160.506, 1852.503
3162.434, 1851.383
3164.363, 1849.533
3166.291, 1846.871
3168.220, 1844.800
3170.148, 1848.753
3172.077, 1854.854
3174.005, 1858.172
3175.934, 1859.631
3177.862, 1859.594
3179.791, 1858.716
3181.719, 1855.872
3183.647, 1856.409
3185.576, 1858.651
3187.504, 1868.015
3189.433, 1866.626
3191.361, 1869.461
3193.290, 1875.561
3195.218, 1873.448
3197.147, 1866.063
3199.075, 1864.515
3201.004, 1866.042
3202.932, 1867.518
3204.861, 1868.018
3206.789, 1865.543
3208.718, 1863.763
3210.646, 1864.703
3212.574, 1865.125
3214.503, 1865.868
3216.431, 1867.920
3218.360, 1868.937
3220.288, 1872.606
3222.217, 1874.757
3224.145, 1877.686
3226.074, 1880.236
3228.002, 1877.642
3229.931, 1873.520
3231.859, 1872.802
3233.788, 1872.771
3235.716, 1870.354
3237.645, 1870.055
3239.573, 1874.619
3241.501, 1877.770
3243.430, 1877.876
3245.358, 1879.143
3247.287, 1881.950
3249.215, 1884.437
3251.144, 1886.250
3253.072, 1885.920
3255.001, 1884.440
3256.929, 1882.483
3258.858, 1881.618
3260.786, 1883.701
3262.715, 1885.999
3264.643, 1887.692
3266.572, 1887.969
3268.500, 1888.473
3270.428, 1885.841
3272.357, 1887.045
3274.285, 1885.745
3276.214, 1883.490
3278.142, 1890.262
3280.071, 1900.074
3281.999, 1904.906
3283.928, 1906.063
3285.856, 1903.357
3287.785, 1899.482
3289.713, 1894.226
3291.642, 1892.129
3293.570, 1896.029
3295.499, 1897.650
3297.427, 1897.080
3299.355, 1899.461
3301.284, 1898.777
3303.212, 1901.611
3305.141, 1898.403
3307.069, 1897.619
3308.998, 1898.030
3310.926, 1899.698
3312.855, 1901.440
3314.783, 1903.673
3316.712, 1903.527
3318.640, 1899.844
3320.569, 1899.136
3322.497, 1901.076
3324.426, 1902.386
3326.354, 1903.747
3328.282, 1907.619
3330.211, 1910.783
3332.139, 1910.098
3334.068, 1907.951
3335.996, 1904.182
3337.925, 1902.436
3339.853, 1903.905
3341.782, 1904.199
3343.710, 1903.414
3345.639, 1904.960
3347.567, 1907.707
3349.496, 1907.820
3351.424, 1908.273
3353.353, 1914.439
3355.281, 1918.020
3357.209, 1912.265
3359.138, 1908.070
3361.066, 1907.522
3362.995, 1907.925
3364.923, 1909.212
3366.852, 1912.332
3368.780, 1912.994
3370.709, 1916.426
3372.637, 1916.011
3374.566, 1917.849
3376.494, 1919.179
3378.423, 1918.097
3380.351, 1917.800
3382.280, 1919.894
3384.208, 1919.462
3386.136, 1916.775
3388.065, 1915.379
3389.993, 1915.244
3391.922, 1916.506
3393.850, 1918.610
3395.779, 1922.080
3397.707, 1924.432
3399.636, 1923.957
3401.564, 1923.773
3403.493, 1924.342
3405.421, 1924.625
3407.350, 1924.818
3409.278, 1927.623
3411.207, 1927.853
3413.135, 1930.901
3415.063, 1930.738
3416.992, 1933.821
3418.920, 1936.585
3420.849, 1938.101
3422.777, 1938.949
3424.706, 1942.064
3426.634, 1942.025
3428.563, 1946.937
3430.491, 1949.823
3432.420, 1951.337
3434.348, 1950.904
3436.277, 1951.929
3438.205, 1957.053
3440.134, 1961.399
3442.062, 1963.816
3443.990, 1967.662
3445.919, 1972.809
3447.847, 1977.216
3449.776, 1981.931
3451.704, 1989.459
3453.633, 1997.322
3455.561, 2003.615
3457.490, 2010.424
3459.418, 2018.199
3461.347, 2027.244
3463.275, 2037.705
3465.204, 2049.313
3467.132, 2060.992
3469.061, 2068.317
3470.989, 2076.502
3472.917, 2091.406
3474.846, 2105.348
3476.774, 2115.323
3478.703, 2127.924
3480.631, 2133.315
3482.560, 2147.448
3484.488, 2142.642
3486.417, 2145.352
3488.345, 2150.730
3490.274, 2157.468
3492.202, 2159.528
3494.131, 2154.348
3496.059, 2146.613
3497.988, 2136.187
3499.916, 2129.111
3501.844, 2123.846
3503.773, 2118.144
3505.701, 2110.050
3507.630, 2096.631
3509.558, 2081.841
3511.487, 2066.023
3513.415, 2052.805
3515.344, 2042.483
3517.272, 2034.956
3519.201, 2028.722
3521.129, 2019.027
3523.058, 2009.638
3524.986, 2003.824
3526.915, 1999.747
3528.843, 1997.257
3530.771, 1995.174
3532.700, 1993.331
3534.628, 1990.538
3536.557, 1987.397
3538.485, 1986.138
3540.414, 1984.502
3542.342, 1985.196
3544.271, 1986.574
3546.199, 1986.629
3548.128, 1990.565
3550.056, 1988.440
3551.985, 1987.895
3553.913, 1987.563
3555.842, 1983.967
3557.770, 1981.170
3559.698, 1982.457
3561.627, 1984.038
3563.555, 1985.379
3565.484, 1986.152
3567.412, 1986.750
3569.341, 1990.070
3571.269, 1993.908
3573.198, 1998.064
3575.126, 1997.387
3577.055, 1987.416
3578.983, 1982.579
3580.912, 1985.162
3582.840, 1990.958
3584.769, 1997.962
3586.697, 2001.764
3588.625, 2003.017
3590.554, 1999.189
3592.482, 1998.674
3594.411, 2003.490
3596.339, 2007.078
3598.268, 2009.096
3600.196, 2010.988
3602.125, 2012.553
3604.053, 2013.809
3605.982, 2014.647
3607.910, 2015.203
3609.839, 2015.631
3611.767, 2016.028
3613.696, 2016.257
3615.624, 2016.299
3617.552, 2016.147
3619.481, 2015.717
3621.409, 2014.356
3623.338, 2014.182
3625.266, 2015.646
3627.195, 2019.980
3629.123, 2026.175
3631.052, 2029.908
3632.980, 2031.939
3634.909, 2031.884
3636.837, 2032.047
3638.766, 2033.373
3640.694, 2033.546
3642.623, 2032.589
3644.551, 2030.356
3646.479, 2027.665
3648.408, 2024.457
3650.336, 2023.293
3652.265, 2025.413
3654.193, 2027.370
3656.122, 2028.564
3658.050, 2030.270
3659.979, 2028.287
3661.907, 2033.349
3663.836, 2036.268
3665.764, 2037.160
3667.693, 2029.952
3669.621, 2033.203
3671.550, 2032.263
3673.478, 2031.151
3675.406, 2035.875
3677.335, 2029.845
3679.263, 2034.476
3681.192, 2034.851
3683.120, 2037.174
3685.049, 2035.280
3686.977, 2034.688
3688.906, 2038.315
3690.834, 2039.606
3692.763, 2037.226
3694.691, 2039.672
3696.620, 2033.495
3698.548, 2034.886
3700.477, 2039.541
3702.405, 2037.374
3704.333, 2039.897
3706.262, 2040.634
3708.190, 2033.251
3710.119, 2039.990
3712.047, 2040.621
3713.976, 2034.981
3715.904, 2041.236
3717.833, 2036.461
3719.761, 2035.623
3721.690, 2037.748
3723.618, 2036.784
3725.547, 2040.690
3727.475, 2039.905
3729.404, 2038.700
3731.332, 2039.324
3733.260, 2038.261
3735.189, 2039.823
3737.117, 2038.312
3739.046, 2040.065
3740.974, 2042.559
3742.903, 2039.386
3744.831, 2042.213
3746.760, 2035.736
3748.688, 2037.043
3750.617, 2037.512
3752.545, 2042.958
3754.474, 2036.526
3756.402, 2037.617
3758.331, 2041.911
3760.259, 2041.724
3762.188, 2043.410
3764.116, 2039.549
3766.044, 2040.899
3767.973, 2040.813
3769.901, 2045.691
3771.830, 2046.650
3773.758, 2042.882
3775.687, 2039.135
3777.615, 2044.370
3779.544, 2041.092
3781.472, 2042.406
3783.401, 2038.977
3785.329, 2039.644
3787.258, 2040.246
3789.186, 2042.947
3791.115, 2042.688
3793.043, 2043.875
3794.971, 2043.695
3796.900, 2044.921
3798.828, 2045.990
3800.757, 2046.726
3802.685, 2045.933
3804.614, 2047.999
3806.542, 2043.969
3808.471, 2042.252
3810.399, 2042.179
3812.328, 2049.865
3814.256, 2050.339
3816.185, 2042.193
3818.113, 2049.536
3820.042, 2047.351
3821.970, 2047.997
3823.898, 2047.609
3825.827, 2047.528
3827.755, 2048.086
3829.684, 2044.712
3831.612, 2050.035
3833.541, 2048.252
3835.469, 2051.298
3837.398, 2045.543
3839.326, 2045.013
3841.255, 2045.868
3843.183, 2047.230
3845.112, 2044.551
3847.040, 2045.749
3848.969, 2045.637
3850.897, 2045.332
3852.825, 2045.748
3854.754, 2045.325
3856.682, 2044.265
3858.611, 2049.944
3860.539, 2045.392
3862.468, 2051.164
3864.396, 2054.063
3866.325, 2056.327
3868.253, 2055.134
3870.182, 2047.937
3872.110, 2043.478
3874.039, 2042.086
3875.967, 2043.008
3877.896, 2044.432
3879.824, 2044.472
3881.752, 2046.042
3883.681, 2049.723
3885.609, 2052.824
3887.538, 2054.288
3889.466, 2050.449
3891.395, 2048.380
3893.323, 2051.226
3895.252, 2051.679
3897.180, 2050.222
3899.109, 2049.952
3901.037, 2050.619
3902.966, 2052.497
3904.894, 2057.155
3906.823, 2054.151
3908.751, 2058.038
3910.679, 2050.142
3912.608, 2045.714
3914.536, 2044.305
3916.465, 2047.156
3918.393, 2049.084
3920.322, 2049.593
3922.250, 2047.474
3924.179, 2045.208
3926.107, 2043.470
3928.036, 2045.294
3929.964, 2043.887
3931.893, 2046.661
3933.821, 2044.373
3935.750, 2045.819
3937.678, 2046.658
3939.606, 2047.018
3941.535, 2048.490
3943.463, 2049.945
3945.392, 2050.053
3947.320, 2047.837
3949.249, 2043.456
3951.177, 2049.204
3953.106, 2045.444
3955.034, 2049.331
3956.963, 2043.471
3958.891, 2047.412
3960.820, 2045.390
3962.748, 2040.669
3964.677, 2042.009
3966.605, 2044.972
3968.533, 2047.904
3970.462, 2047.437
3972.390, 2044.125
3974.319, 2041.826
3976.247, 2041.084
3978.176, 2043.086
3980.104, 2042.339
3982.033, 2038.907
3983.961, 2041.463
3985.890, 2046.786
3987.818, 2056.032
3989.747, 2054.657
3991.675, 2055.131
3993.604, 2042.711
3995.532, 2049.050
3997.460, 2045.891
3999.389, 2043.786
4001.317, 2046.945
4003.246, 2045.699
4005.174, 2041.883
4007.103, 2040.687
4009.031, 2041.786
4010.960, 2043.814
4012.888, 2044.029
4014.817, 2043.406
4016.745, 2041.681
4018.674, 2041.636
4020.602, 2045.349
4022.531, 2050.981
4024.459, 2056.786
4026.387, 2054.124
4028.316, 2049.427
4030.244, 2049.641
4032.173, 2049.847
4034.101, 2048.567
4036.030, 2048.260
4037.958, 2046.966
4039.887, 2047.457
4041.815, 2050.547
4043.744, 2050.615
4045.672, 2048.143
4047.601, 2045.535
4049.529, 2044.197
4051.458, 2041.471
4053.386, 2037.184
4055.314, 2039.631
4057.243, 2042.734
4059.171, 2040.055
4061.100, 2039.871
4063.028, 2040.127
4064.957, 2041.335
4066.885, 2044.057
4068.814, 2042.623
4070.742, 2043.626
4072.671, 2046.887
4074.599, 2045.075
4076.528, 2041.737
4078.456, 2041.583
4080.385, 2043.719
4082.313, 2042.368
4084.241, 2042.777
4086.170, 2045.687
4088.098, 2042.080
4090.027, 2038.915
4091.955, 2041.814
4093.884, 2044.469
4095.812, 2042.717
4097.741, 2039.279
4099.669, 2035.767
4101.598, 2036.068
4103.526, 2034.973
4105.455, 2036.625
4107.383, 2037.022
4109.312, 2040.389
4111.240, 2043.474
4113.168, 2046.672
4115.097, 2042.426
4117.025, 2038.690
4118.954, 2043.313
4120.882, 2046.219
4122.811, 2045.041
4124.739, 2041.514
4126.668, 2040.743
4128.596, 2044.010
4130.525, 2046.995
4132.453, 2049.858
4134.382, 2047.865
4136.310, 2045.486
4138.239, 2046.760
4140.167, 2046.574
4142.096, 2045.852
4144.024, 2047.665
4145.953, 2048.743
4147.881, 2048.996
4149.810, 2048.993
4151.738, 2047.592
4153.667, 2044.341
4155.595, 2041.875
4157.523, 2041.997
4159.452, 2045.016
4161.380, 2049.463
4163.309, 2053.537
4165.237, 2054.541
4167.166, 2050.224
4169.094, 2049.262
4171.022, 2049.580
4172.951, 2051.227
4174.879, 2052.462
4176.808, 2052.190
4178.736, 2050.853
4180.665, 2049.550
4182.593, 2049.768
4184.522, 2049.273
4186.450, 2045.650
4188.379, 2048.904
4190.307, 2054.354
4192.236, 2053.860
4194.164, 2050.497
4196.093, 2045.653
4198.021, 2041.322
4199.950, 2039.675
4201.878, 2045.944
4203.807, 2048.009
4205.735, 2044.340
4207.664, 2043.043
4209.592, 2042.860
4211.521, 2043.139
4213.449, 2040.623
4215.377, 2040.900
4217.306, 2040.979
4219.234, 2039.864
4221.163, 2041.435
4223.091, 2041.463
4225.020, 2040.445
4226.948, 2040.322
4228.876, 2041.344
4230.805, 2044.086
4232.733, 2044.052
4234.662, 2043.073
4236.590, 2045.113
4238.519, 2054.787
4240.447, 2048.357
4242.376, 2049.340
4244.304, 2053.502
4246.233, 2049.107
4248.161, 2045.538
4250.090, 2045.783
4252.018, 2045.306
4253.947, 2045.968
4255.875, 2053.534
4257.804, 2053.393
4259.732, 2054.119
4261.661, 2046.990
4263.589, 2053.358
4265.518, 2047.819
4267.446, 2048.354
4269.375, 2055.505
4271.303, 2058.636
4273.231, 2058.107
4275.160, 2052.700
4277.088, 2051.733
4279.017, 2053.413
4280.945, 2048.843
4282.874, 2046.670
4284.802, 2050.644
4286.730, 2053.120
4288.659, 2053.409
4290.587, 2049.388
4292.516, 2047.601
4294.444, 2049.646
4296.373, 2050.738
4298.301, 2050.509
4300.230, 2051.979
4302.158, 2052.755
4304.087, 2052.764
4306.015, 2053.675
4307.944, 2052.719
4309.872, 2050.295
4311.801, 2051.172
4313.729, 2053.703
4315.658, 2055.050
4317.586, 2052.602
4319.515, 2045.884
4321.443, 2045.574
4323.372, 2047.826
4325.300, 2047.501
4327.229, 2051.025
4329.157, 2057.595
4331.085, 2056.693
4333.014, 2056.630
4334.942, 2063.277
4336.871, 2062.136
4338.799, 2055.030
4340.728, 2045.376
4342.656, 2041.878
4344.584, 2046.516
4346.513, 2050.875
4348.441, 2053.556
4350.370, 2053.212
4352.298, 2051.088
4354.227, 2048.027
4356.155, 2047.117
4358.084, 2047.939
4360.012, 2051.340
4361.941, 2050.803
4363.869, 2047.755
4365.798, 2050.777
4367.726, 2043.599
4369.655, 2052.990
4371.583, 2057.037
4373.512, 2057.848
4375.440, 2057.072
4377.369, 2053.753
4379.297, 2048.979
4381.226, 2046.103
4383.154, 2043.394
4385.083, 2039.564
4387.011, 2043.454
4388.939, 2049.354
4390.868, 2052.474
4392.796, 2047.630
4394.725, 2037.052
4396.653, 2034.878
4398.582, 2036.916
4400.510, 2041.660
4402.438, 2041.432
4404.367, 2043.900
4406.295, 2043.887
4408.224, 2046.276
4410.152, 2046.356
4412.081, 2047.210
4414.009, 2047.821
4415.938, 2047.628
4417.866, 2047.421
4419.795, 2046.628
4421.723, 2043.753
4423.652, 2041.014
4425.580, 2039.287
4427.509, 2043.208
4429.437, 2047.229
4431.366, 2046.422
4433.294, 2049.142
4435.223, 2052.571
4437.151, 2049.568
4439.080, 2048.509
4441.008, 2051.039
4442.937, 2050.662
4444.865, 2049.782
4446.793, 2049.596
4448.722, 2049.575
4450.650, 2049.421
4452.579, 2048.511
4454.507, 2049.043
4456.436, 2050.849
4458.364, 2050.088
4460.292, 2046.663
4462.221, 2049.726
4464.149, 2042.325
4466.078, 2052.043
4468.006, 2053.745
4469.935, 2052.552
4471.863, 2049.724
4473.792, 2050.212
4475.720, 2050.292
4477.649, 2048.324
4479.577, 2045.485
4481.506, 2043.283
4483.434, 2042.292
4485.363, 2047.963
4487.291, 2057.027
4489.220, 2056.019
4491.148, 2051.976
4493.077, 2047.800
4495.005, 2043.319
4496.934, 2040.666
4498.862, 2042.522
4500.791, 2045.559
4502.719, 2048.112
4504.647, 2045.533
4506.576, 2043.309
4508.504, 2042.754
4510.433, 2043.077
4512.361, 2045.633
4514.290, 2051.897
4516.218, 2053.743
4518.146, 2053.289
4520.075, 2053.960
4522.003, 2054.393
4523.932, 2054.843
4525.860, 2059.031
4527.789, 2061.268
4529.717, 2058.939
4531.646, 2055.716
4533.574, 2053.099
4535.503, 2051.657
4537.431, 2058.841
4539.360, 2068.321
4541.288, 2064.353
4543.217, 2060.878
4545.145, 2059.651
4547.074, 2054.027
4549.002, 2049.633
4550.931, 2049.319
4552.859, 2048.370
4554.788, 2048.823
4556.716, 2052.480
4558.645, 2051.541
4560.573, 2056.169
4562.501, 2056.418
4564.430, 2055.024
4566.358, 2053.014
4568.287, 2051.554
4570.215, 2052.598
4572.144, 2050.650
4574.072, 2054.740
4576.000, 2050.813
4577.929, 2052.548
4579.857, 2057.049
4581.786, 2062.288
4583.714, 2065.271
4585.643, 2064.618
4587.571, 2060.965
4589.500, 2056.265
4591.428, 2057.001
4593.357, 2065.595
4595.285, 2068.350
4597.214, 2068.688
4599.142, 2070.195
4601.071, 2068.677
4602.999, 2065.704
4604.928, 2063.690
4606.856, 2064.192
4608.785, 2066.667
4610.713, 2069.998
4612.642, 2069.191
4614.570, 2063.557
4616.499, 2059.062
4618.427, 2058.181
4620.355, 2064.531
4622.284, 2063.252
4624.212, 2058.783
4626.141, 2055.015
4628.069, 2054.204
4629.998, 2055.947
4631.926, 2060.099
4633.854, 2063.236
4635.783, 2064.801
4637.711, 2066.696
4639.640, 2065.583
4641.568, 2060.511
4643.497, 2058.828
4645.425, 2059.538
4647.354, 2062.287
4649.282, 2058.768
4651.211, 2056.876
4653.139, 2068.224
4655.068, 2068.393
4656.996, 2062.125
4658.925, 2060.921
4660.853, 2058.395
4662.782, 2056.070
4664.710, 2056.824
4666.639, 2055.500
4668.567, 2058.612
4670.496, 2056.585
4672.424, 2057.623
4674.353, 2060.535
4676.281, 2058.671
4678.209, 2057.681
4680.138, 2061.825
4682.066, 2060.766
4683.995, 2059.431
4685.923, 2064.687
4687.852, 2068.340
4689.780, 2070.324
4691.708, 2072.845
4693.637, 2071.328
4695.565, 2071.631
4697.494, 2070.362
4699.422, 2067.741
4701.351, 2067.145
4703.279, 2066.542
4705.208, 2065.958
4707.136, 2066.308
4709.065, 2066.807
4710.993, 2066.434
4712.922, 2064.531
4714.850, 2070.320
4716.779, 2075.794
4718.707, 2073.163
4720.636, 2072.729
4722.564, 2073.243
4724.493, 2072.666
4726.421, 2071.933
4728.350, 2070.489
4730.278, 2069.931
4732.207, 2069.447
4734.135, 2068.887
4736.063, 2069.616
4737.992, 2070.630
4739.920, 2072.346
4741.849, 2074.936
4743.777, 2072.747
4745.706, 2075.440
4747.634, 2073.906
4749.563, 2079.115
4751.491, 2075.755
4753.419, 2079.807
4755.348, 2082.275
4757.276, 2078.690
4759.205, 2079.094
4761.133, 2081.718
4763.062, 2086.452
4764.990, 2084.747
4766.919, 2080.134
4768.847, 2075.077
4770.776, 2078.103
4772.704, 2082.486
4774.633, 2076.626
4776.561, 2081.530
4778.490, 2092.173
4780.418, 2100.216
4782.347, 2097.355
4784.275, 2105.318
4786.204, 2102.789
4788.132, 2108.947
4790.061, 2108.345
4791.989, 2104.552
4793.917, 2105.011
4795.846, 2108.152
4797.774, 2101.263
4799.703, 2096.988
4801.631, 2097.949
4803.560, 2102.338
4805.488, 2103.824
4807.417, 2101.002
4809.345, 2099.322
4811.273, 2097.613
4813.202, 2096.542
4815.130, 2103.355
4817.059, 2110.254
4818.987, 2113.964
4820.916, 2121.190
4822.844, 2123.066
4824.773, 2116.695
4826.701, 2113.431
4828.630, 2115.632
4830.558, 2112.989
4832.487, 2114.138
4834.415, 2114.614
4836.344, 2116.416
4838.272, 2118.703
4840.201, 2120.347
4842.129, 2120.534
4844.058, 2125.362
4845.986, 2129.433
4847.915, 2129.182
4849.843, 2127.436
4851.771, 2126.384
4853.700, 2127.820
4855.628, 2129.099
4857.557, 2130.147
4859.485, 2130.868
4861.414, 2131.585
4863.342, 2133.855
4865.271, 2139.620
4867.199, 2141.791
4869.127, 2138.883
4871.056, 2128.658
4872.984, 2131.693
4874.913, 2138.203
4876.841, 2138.674
4878.770, 2141.726
4880.698, 2144.140
4882.627, 2142.601
4884.555, 2142.140
4886.484, 2143.458
4888.412, 2147.556
4890.341, 2144.602
4892.269, 2142.654
4894.198, 2150.046
4896.126, 2147.173
4898.055, 2143.581
4899.983, 2147.134
4901.912, 2147.020
4903.840, 2147.664
4905.769, 2153.989
4907.697, 2158.970
4909.625, 2161.043
4911.554, 2159.212
4913.482, 2160.644
4915.411, 2163.207
4917.339, 2165.789
4919.268, 2162.428
4921.196, 2158.729
4923.125, 2157.857
4925.053, 2164.376
4926.981, 2169.585
4928.910, 2168.534
4930.838, 2172.075
4932.767, 2172.692
4934.695, 2167.789
4936.624, 2166.785
4938.552, 2169.101
4940.481, 2173.615
4942.409, 2169.543
4944.338, 2172.956
4946.266, 2186.944
4948.195, 2183.254
4950.123, 2180.774
4952.052, 2183.575
4953.980, 2182.565
4955.909, 2182.415
4957.837, 2183.780
4959.766, 2183.020
4961.694, 2185.165
4963.623, 2188.637
4965.551, 2185.337
4967.479, 2183.341
4969.408, 2183.885
4971.336, 2185.771
4973.265, 2193.017
4975.193, 2199.945
4977.122, 2193.596
4979.050, 2192.905
4980.979, 2195.839
4982.907, 2196.785
4984.835, 2200.815
4986.764, 2203.537
4988.692, 2199.532
4990.621, 2198.599
4992.549, 2200.182
4994.478, 2202.998
4996.406, 2208.286
4998.335, 2212.485
5000.263, 2213.476
5002.192, 2210.251
5004.120, 2209.405
5006.049, 2213.526
5007.977, 2209.800
5009.906, 2210.094
5011.834, 2217.170
5013.763, 2217.094
5015.691, 2217.264
5017.620, 2219.605
5019.548, 2225.590
5021.477, 2228.059
5023.405, 2227.512
5025.333, 2227.870
5027.262, 2231.316
5029.190, 2232.906
5031.119, 2222.335
5033.047, 2220.625
5034.976, 2223.077
5036.904, 2222.138
5038.833, 2226.366
5040.761, 2230.421
5042.689, 2230.264
5044.618, 2226.349
5046.546, 2222.814
5048.475, 2221.714
5050.403, 2223.685
5052.332, 2221.654
5054.260, 2215.140
5056.189, 2216.168
5058.117, 2217.395
5060.046, 2217.204
5061.974, 2215.468
5063.903, 2214.517
5065.831, 2215.880
5067.760, 2223.160
5069.688, 2223.200
5071.617, 2218.843
5073.545, 2214.049
5075.474, 2215.606
5077.402, 2221.236
5079.331, 2230.364
5081.259, 2224.574
5083.188, 2221.012
5085.116, 2224.733
5087.044, 2222.968
5088.973, 2221.096
5090.901, 2220.506
5092.830, 2221.174
5094.758, 2220.842
5096.687, 2219.578
5098.615, 2217.800
5100.543, 2216.972
5102.472, 2217.245
5104.400, 2218.656
5106.329, 2216.111
5108.257, 2217.224
5110.186, 2226.833
5112.114, 2222.257
5114.043, 2221.314
5115.971, 2226.075
5117.900, 2214.814
5119.828, 2206.974
5121.757, 2205.425
5123.685, 2206.047
5125.614, 2210.124
5127.542, 2215.399
5129.471, 2219.618
5131.399, 2212.666
5133.328, 2206.865
5135.256, 2211.189
5137.185, 2207.589
5139.113, 2203.821
5141.042, 2202.255
5142.970, 2196.760
5144.898, 2196.675
5146.827, 2200.899
5148.755, 2204.643
5150.684, 2202.582
5152.612, 2198.612
5154.541, 2196.468
5156.469, 2200.091
5158.397, 2203.240
5160.326, 2202.238
5162.254, 2194.508
5164.183, 2188.995
5166.111, 2187.341
5168.040, 2182.175
5169.968, 2187.481
5171.897, 2194.670
5173.825, 2186.768
5175.754, 2188.579
5177.682, 2192.524
5179.611, 2191.336
5181.539, 2179.783
5183.468, 2176.657
5185.396, 2185.115
5187.325, 2178.791
5189.253, 2183.295
5191.182, 2191.754
5193.110, 2182.651
5195.039, 2171.092
5196.967, 2163.953
5198.896, 2166.384
5200.824, 2168.340
5202.752, 2167.411
5204.681, 2163.712
5206.609, 2164.257
5208.538, 2164.028
5210.466, 2163.146
5212.395, 2165.625
5214.323, 2157.138
5216.251, 2149.510
5218.180, 2153.538
5220.108, 2147.640
5222.037, 2142.115
5223.965, 2140.503
5225.894, 2141.726
5227.822, 2138.235
5229.751, 2133.708
5231.679, 2138.535
5233.608, 2129.138
5235.536, 2121.583
5237.465, 2126.161
5239.393, 2119.059
5241.322, 2114.423
5243.250, 2115.213
5245.179, 2116.674
5247.107, 2120.586
5249.036, 2121.891
5250.964, 2113.048
5252.893, 2110.978
5254.821, 2109.315
5256.750, 2105.745
5258.678, 2107.598
5260.606, 2109.938
5262.535, 2110.254
5264.463, 2103.846
5266.392, 2105.301
5268.320, 2106.551
5270.249, 2101.201
5272.177, 2094.915
5274.105, 2095.371
5276.034, 2099.323
5277.962, 2090.420
5279.891, 2081.867
5281.819, 2075.942
5283.748, 2072.965
5285.676, 2076.009
5287.605, 2075.290
5289.533, 2069.050
5291.462, 2066.300
5293.390, 2067.210
5295.319, 2067.881
5297.247, 2062.789
5299.176, 2059.263
5301.104, 2056.555
5303.033, 2054.384
5304.961, 2056.290
5306.890, 2059.856
5308.818, 2061.241
5310.747, 2055.031
5312.675, 2054.146
5314.604, 2050.840
5316.532, 2041.032
5318.460, 2040.526
5320.389, 2036.558
5322.317, 2030.129
5324.246, 2029.121
5326.174, 2022.190
5328.103, 2017.369
5330.031, 2018.808
5331.959, 2012.751
5333.888, 2010.691
5335.816, 2011.271
5337.745, 2003.916
5339.673, 2007.332
5341.602, 2008.347
5343.530, 1999.558
5345.459, 1998.668
5347.387, 1996.611
5349.316, 1994.035
5351.244, 1996.686
5353.173, 1994.278
5355.101, 1992.035
5357.030, 1992.905
5358.958, 1991.525
5360.887, 1984.767
5362.815, 1977.588
5364.744, 1978.199
5366.672, 1982.270
5368.601, 1982.134
5370.529, 1975.770
5372.458, 1972.714
5374.386, 1970.796
5376.314, 1967.043
5378.243, 1957.476
5380.171, 1955.879
5382.100, 1954.543
5384.028, 1950.342
5385.957, 1942.177
5387.885, 1947.738
5389.813, 1954.696
5391.742, 1949.316
5393.670, 1946.178
5395.599, 1942.785
5397.527, 1938.792
5399.456, 1935.968
5401.384, 1933.789
5403.313, 1929.324
5405.241, 1921.477
5407.170, 1914.887
5409.098, 1913.518
5411.027, 1914.464
5412.955, 1912.482
5414.884, 1906.849
5416.812, 1904.695
5418.741, 1906.048
5420.669, 1896.598
5422.598, 1889.187
5424.526, 1885.379
5426.455, 1884.603
5428.383, 1886.797
5430.312, 1887.548
5432.240, 1885.399
5434.168, 1878.096
5436.097, 1878.472
5438.025, 1879.763
5439.954, 1878.211
5441.882, 1877.862
5443.811, 1873.482
5445.739, 1864.944
5447.667, 1853.955
5449.596, 1862.664
5451.524, 1865.807
5453.453, 1858.606
5455.381, 1845.740
5457.310, 1856.917
5459.238, 1861.262
5461.167, 1847.232
5463.095, 1858.057
5465.024, 1847.130
5466.952, 1831.345
5468.881, 1834.058
5470.809, 1829.191
5472.738, 1828.778
5474.666, 1830.256
5476.595, 1818.877
5478.523, 1814.876
5480.452, 1812.429
5482.380, 1808.805
5484.309, 1808.232
5486.237, 1800.969
5488.166, 1795.766
5490.094, 1799.457
5492.022, 1801.736
5493.951, 1799.166
5495.879, 1795.836
5497.808, 1798.411
5499.736, 1790.552
##END=



