##NAMES=Ferroselite
##RRUFFID=R070461
##IDEAL CHEMISTRY=FeSe_2_
##LOCALITY=Virgin No. 3 mine, Paradox Valley, Uravan District,  Montrose County, Colorado, USA
##OWNER=RRUFF
##SOURCE=Michael Scott
##DESCRIPTION=Yellowish silver metallic prismatic crystals. Used in the Lavina et al (2018) study
##STATUS=The identification of this mineral is confirmed by single-crystal X-ray diffraction and chemical analysis
##URL=https://www.rruff.net/odr/rruff_sample/R070461
##MEASURED CHEMISTRY=Fe_1.00_Se_2.00_
##DIFFRACTION SAMPLE DESCRIPTION=Single crystal, powder profile is calculated
##CELL PARAMETERS=a: 4.795 b: 5.777 c: 3.584 alpha: 90 beta: 90 gamma: 90 volume: 99.31 crystal system: orthorhombic
##FILETYPE=Raman Processed
##RAMAN WAVELENGTH=785

156.8335, 10238.81
158.7619, 10173.28
160.6904, 10120.63
162.6189, 10073.74
164.5473, 9990.203
166.4758, 9834.893
168.4043, 9722.475
170.3327, 9703.838
172.2612, 9701.386
174.1897, 9647.269
176.1181, 9557.643
178.0466, 9462.477
179.9751, 9354.587
181.9035, 9244.805
183.8320, 9143.927
185.7605, 9044.778
187.6889, 8933.621
189.6174, 8831.129
191.5459, 8762.915
193.4743, 8725.204
195.4028, 8700.723
197.3313, 8687.321
199.2598, 8660.981
201.1882, 8624.973
203.1167, 8591.696
205.0451, 8545.995
206.9736, 8504.685
208.9021, 8498.642
210.8305, 8532.397
212.7590, 8553.423
214.6875, 8554.591
216.6159, 8558.219
218.5444, 8573.357
220.4729, 8571.336
222.4013, 8524.450
224.3298, 8458.497
226.2583, 8401.095
228.1867, 8356.299
230.1152, 8343.806
232.0437, 8368.018
233.9721, 8390.826
235.9006, 8408.936
237.8291, 8417.853
239.7575, 8415.263
241.6860, 8406.621
243.6145, 8393.327
245.5429, 8368.624
247.4714, 8341.864
249.3999, 8324.053
251.3283, 8330.461
253.2568, 8374.952
255.1853, 8407.228
257.1137, 8404.741
259.0422, 8386.624
260.9707, 8364.222
262.8991, 8345.970
264.8276, 8352.656
266.7561, 8382.138
268.6845, 8395.367
270.6130, 8378.349
272.5415, 8363.539
274.4699, 8354.583
276.3984, 8350.082
278.3269, 8352.301
280.2553, 8364.264
282.1838, 8384.610
284.1123, 8408.735
286.0407, 8411.613
287.9692, 8355.172
289.8977, 8323.674
291.8261, 8353.867
293.7546, 8385.110
295.6831, 8387.366
297.6115, 8374.530
299.5400, 8349.524
301.4685, 8318.006
303.3969, 8321.912
305.3254, 8381.235
307.2539, 8415.312
309.1823, 8407.082
311.1108, 8409.424
313.0393, 8457.864
314.9677, 8495.837
316.8962, 8471.529
318.8247, 8419.256
320.7531, 8405.778
322.6816, 8433.716
324.6101, 8450.892
326.5385, 8455.387
328.4670, 8451.463
330.3955, 8438.590
332.3239, 8427.500
334.2524, 8416.716
336.1809, 8407.294
338.1093, 8405.663
340.0378, 8415.954
341.9663, 8441.422
343.8947, 8479.972
345.8232, 8494.707
347.7517, 8476.580
349.6801, 8469.387
351.6086, 8495.303
353.5371, 8512.295
355.4655, 8509.184
357.3940, 8498.029
359.3225, 8470.907
361.2509, 8441.325
363.1794, 8451.959
365.1079, 8499.321
367.0363, 8522.717
368.9648, 8504.180
370.8933, 8490.980
372.8217, 8501.098
374.7502, 8503.027
376.6787, 8473.604
378.6071, 8447.185
380.5356, 8455.475
382.4641, 8478.712
384.3925, 8489.132
386.3210, 8485.865
388.2495, 8489.479
390.1779, 8512.012
392.1064, 8520.214
394.0349, 8506.305
395.9633, 8490.960
397.8918, 8469.821
399.8203, 8461.250
401.7487, 8494.665
403.6772, 8535.107
405.6057, 8531.784
407.5341, 8495.695
409.4626, 8485.459
411.3911, 8506.414
413.3195, 8522.750
415.2480, 8536.866
417.1765, 8534.901
419.1049, 8496.474
421.0334, 8471.675
422.9619, 8504.443
424.8904, 8540.168
426.8188, 8522.011
428.7473, 8479.938
430.6758, 8486.570
432.6042, 8535.835
434.5327, 8550.112
436.4612, 8525.472
438.3896, 8510.674
440.3181, 8518.124
442.2466, 8525.448
444.1750, 8522.979
446.1035, 8521.851
448.0320, 8528.832
449.9604, 8535.448
451.8889, 8532.450
453.8174, 8521.377
455.7458, 8516.445
457.6743, 8516.614
459.6028, 8513.884
461.5312, 8509.926
463.4597, 8503.922
465.3882, 8494.350
467.3166, 8478.175
469.2451, 8443.813
471.1736, 8423.943
473.1020, 8450.606
475.0305, 8482.722
476.9590, 8478.201
478.8874, 8457.341
480.8159, 8440.232
482.7444, 8423.372
484.6728, 8413.149
486.6013, 8415.847
488.5298, 8415.373
490.4582, 8401.647
492.3867, 8402.742
494.3152, 8440.652
496.2436, 8457.449
498.1721, 8411.171
500.1006, 8368.506
502.0290, 8383.585
503.9575, 8420.801
505.8860, 8429.884
507.8144, 8418.367
509.7429, 8415.412
511.6714, 8421.429
513.5998, 8417.354
515.5283, 8398.718
517.4567, 8384.951
519.3852, 8384.782
521.3137, 8383.249
523.2421, 8370.759
525.1706, 8359.705
527.0991, 8348.077
529.0275, 8353.631
530.9560, 8400.190
532.8845, 8451.177
534.8129, 8461.246
536.7414, 8441.067
538.6699, 8409.316
540.5983, 8368.020
542.5268, 8355.459
544.4553, 8382.955
546.3837, 8399.910
548.3122, 8384.533
550.2407, 8368.434
552.1691, 8370.449
554.0976, 8369.952
556.0261, 8361.014
557.9545, 8354.802
559.8830, 8338.793
561.8115, 8319.448
563.7399, 8320.983
565.6684, 8328.228
567.5969, 8330.923
569.5253, 8334.984
571.4538, 8340.015
573.3823, 8346.522
575.3107, 8349.438
577.2392, 8339.531
579.1677, 8327.001
581.0961, 8322.829
583.0246, 8322.804
584.9531, 8324.910
586.8815, 8312.764
588.8100, 8283.181
590.7385, 8279.970
592.6669, 8311.869
594.5954, 8339.844
596.5239, 8335.068
598.4523, 8300.063
600.3808, 8270.570
602.3093, 8263.307
604.2377, 8256.953
606.1662, 8230.973
608.0947, 8204.177
610.0231, 8202.896
611.9516, 8224.953
613.8801, 8248.529
615.8085, 8266.552
617.7370, 8281.585
619.6655, 8272.708
621.5939, 8245.749
623.5224, 8225.779
625.4509, 8204.431
627.3793, 8195.826
629.3078, 8215.516
631.2363, 8235.777
633.1647, 8228.830
635.0932, 8206.261
637.0217, 8192.070
638.9501, 8199.117
640.8786, 8217.277
642.8071, 8218.359
644.7355, 8194.846
646.6640, 8173.816
648.5925, 8169.408
650.5209, 8168.367
652.4494, 8182.451
654.3779, 8221.176
656.3063, 8248.043
658.2348, 8227.299
660.1633, 8171.826
662.0917, 8139.319
664.0202, 8132.418
665.9487, 8123.582
667.8771, 8132.102
669.8056, 8159.790
671.7341, 8165.094
673.6625, 8129.111
675.5910, 8094.922
677.5195, 8085.179
679.4479, 8095.846
681.3764, 8130.222
683.3049, 8158.783
685.2333, 8145.738
687.1618, 8117.847
689.0903, 8113.502
691.0187, 8120.549
692.9472, 8131.235
694.8757, 8141.629
696.8041, 8125.006
698.7326, 8089.620
700.6611, 8072.139
702.5895, 8068.713
704.5180, 8072.039
706.4465, 8097.323
708.3749, 8118.405
710.3034, 8110.916
712.2319, 8083.269
714.1603, 8052.441
716.0888, 8048.084
718.0173, 8056.079
719.9457, 8050.678
721.8742, 8044.862
723.8027, 8039.741
725.7311, 8027.981
727.6596, 8017.265
729.5881, 8001.784
731.5165, 7986.966
733.4450, 7991.530
735.3735, 8006.992
737.3019, 8022.287
739.2304, 8027.207
741.1589, 8012.048
743.0873, 7995.455
745.0158, 7996.129
746.9443, 8004.568
748.8727, 7995.215
750.8012, 7971.190
752.7297, 7981.300
754.6581, 8006.792
756.5866, 7970.597
758.5151, 7923.067
760.4435, 7953.488
762.3720, 8005.624
764.3005, 7995.279
766.2289, 7959.164
768.1574, 7952.843
770.0859, 7962.957
772.0143, 7955.293
773.9428, 7929.470
775.8713, 7905.973
777.7997, 7884.343
779.7282, 7879.118
781.6567, 7902.017
783.5851, 7917.480
785.5136, 7916.077
787.4421, 7907.234
789.3705, 7895.970
791.2990, 7901.135
793.2275, 7922.090
795.1559, 7920.766
797.0844, 7890.370
799.0129, 7870.372
800.9413, 7871.499
802.8698, 7877.042
804.7983, 7878.466
806.7267, 7877.108
808.6552, 7878.846
810.5837, 7882.545
812.5121, 7895.116
814.4406, 7906.088
816.3691, 7890.045
818.2975, 7860.519
820.2260, 7844.409
822.1545, 7843.860
824.0829, 7838.300
826.0114, 7827.571
827.9399, 7844.957
829.8683, 7877.230
831.7968, 7878.833
833.7253, 7858.628
835.6537, 7836.037
837.5822, 7813.204
839.5107, 7810.423
841.4391, 7822.772
843.3676, 7822.838
845.2961, 7814.749
847.2245, 7806.287
849.1530, 7796.995
851.0815, 7798.742
853.0099, 7810.393
854.9384, 7817.122
856.8669, 7817.549
858.7953, 7803.764
860.7238, 7776.526
862.6523, 7776.063
864.5807, 7806.799
866.5092, 7800.265
868.4377, 7745.052
870.3661, 7722.129
872.2946, 7744.474
874.2231, 7757.861
876.1516, 7755.983
878.0800, 7755.339
880.0085, 7757.925
881.9370, 7756.110
883.8654, 7746.130
885.7939, 7744.950
887.7224, 7759.306
889.6508, 7772.438
891.5793, 7783.927
893.5078, 7780.735
895.4362, 7756.726
897.3647, 7738.176
899.2932, 7726.146
901.2216, 7718.693
903.1501, 7715.906
905.0786, 7722.446
907.0070, 7750.424
908.9355, 7767.810
910.8640, 7759.361
912.7924, 7744.514
914.7209, 7722.263
916.6494, 7710.676
918.5778, 7721.965
920.5063, 7731.243
922.4348, 7732.334
924.3632, 7726.677
926.2917, 7709.463
928.2202, 7700.281
930.1486, 7708.158
932.0771, 7712.935
934.0056, 7708.655
935.9340, 7702.566
937.8625, 7702.715
939.7910, 7701.049
941.7194, 7675.042
943.6479, 7646.912
945.5764, 7650.098
947.5048, 7666.168
949.4333, 7667.218
951.3618, 7659.105
953.2902, 7662.386
955.2187, 7670.757
957.1472, 7656.402
959.0756, 7641.805
961.0041, 7669.951
962.9326, 7696.699
964.8610, 7676.305
966.7895, 7644.396
968.7180, 7638.165
970.6464, 7648.858
972.5749, 7645.551
974.5034, 7627.884
976.4318, 7621.426
978.3603, 7624.094
980.2888, 7621.169
982.2172, 7618.331
984.1457, 7616.975
986.0742, 7617.116
988.0026, 7625.179
989.9311, 7642.610
991.8596, 7676.985
993.7880, 7696.166
995.7165, 7670.358
997.6450, 7633.294
999.5734, 7599.767
1001.502, 7589.140
1003.430, 7630.417
1005.359, 7665.508
1007.287, 7640.234
1009.216, 7605.146
1011.144, 7610.457
1013.073, 7626.936
1015.001, 7627.320
1016.930, 7623.099
1018.858, 7610.405
1020.787, 7611.745
1022.715, 7657.734
1024.643, 7684.464
1026.572, 7658.250
1028.500, 7628.709
1030.429, 7599.564
1032.357, 7584.585
1034.286, 7605.569
1036.214, 7617.375
1038.143, 7597.832
1040.071, 7576.699
1042.000, 7566.895
1043.928, 7567.500
1045.857, 7575.035
1047.785, 7575.788
1049.714, 7572.905
1051.642, 7569.613
1053.570, 7563.188
1055.499, 7568.146
1057.427, 7588.020
1059.356, 7602.085
1061.284, 7592.488
1063.213, 7567.867
1065.141, 7557.062
1067.070, 7564.646
1068.998, 7570.863
1070.927, 7576.287
1072.855, 7582.963
1074.784, 7577.655
1076.712, 7569.079
1078.641, 7571.436
1080.569, 7574.380
1082.497, 7571.088
1084.426, 7568.289
1086.354, 7569.633
1088.283, 7570.737
1090.211, 7520.362
1092.140, 7564.962
1094.068, 7590.411
1095.997, 7597.738
1097.925, 7532.664
1099.854, 7561.080
1101.782, 7552.030
1103.711, 7541.443
1105.639, 7583.018
1107.568, 7528.475
1109.496, 7569.222
1111.424, 7571.931
1113.353, 7592.050
1115.281, 7574.470
1117.210, 7568.534
1119.138, 7600.309
1121.067, 7611.203
1122.995, 7589.283
1124.924, 7610.509
1126.852, 7554.648
1128.781, 7566.432
1130.709, 7607.400
1132.638, 7587.376
1134.566, 7609.291
1136.495, 7615.233
1138.423, 7591.744
1140.351, 7604.664
1142.280, 7604.404
1144.208, 7565.781
1146.137, 7533.208
1148.065, 7532.976
1149.994, 7544.045
1151.922, 7542.088
1153.851, 7550.820
1155.779, 7607.057
1157.708, 7621.899
1159.636, 7570.343
1161.565, 7560.806
1163.493, 7607.637
1165.422, 7616.970
1167.350, 7580.093
1169.278, 7581.790
1171.207, 7618.539
1173.135, 7629.252
1175.064, 7620.215
1176.992, 7605.264
1178.921, 7593.695
1180.849, 7601.280
1182.778, 7614.755
1184.706, 7625.836
1186.635, 7634.996
1188.563, 7629.835
1190.492, 7628.358
1192.420, 7663.020
1194.349, 7679.520
1196.277, 7633.860
1198.205, 7596.751
1200.134, 7598.680
1202.062, 7616.391
1203.991, 7643.719
1205.919, 7650.686
1207.848, 7641.143
1209.776, 7624.389
1211.705, 7586.682
1213.633, 7584.868
1215.562, 7623.929
1217.490, 7653.273
1219.419, 7669.377
1221.347, 7659.299
1223.276, 7633.704
1225.204, 7613.054
1227.132, 7598.677
1229.061, 7601.680
1230.989, 7617.197
1232.918, 7638.227
1234.846, 7655.086
1236.775, 7663.504
1238.703, 7666.672
1240.632, 7664.796
1242.560, 7662.746
1244.489, 7660.584
1246.417, 7667.201
1248.346, 7684.810
1250.274, 7693.478
1252.203, 7690.081
1254.131, 7700.062
1256.059, 7723.204
1257.988, 7721.075
1259.916, 7699.582
1261.845, 7693.592
1263.773, 7696.668
1265.702, 7698.892
1267.630, 7700.228
1269.559, 7690.763
1271.487, 7691.922
1273.416, 7740.925
1275.344, 7779.251
1277.273, 7757.132
1279.201, 7741.714
1281.130, 7765.655
1283.058, 7768.511
1284.986, 7729.863
1286.915, 7725.151
1288.843, 7765.047
1290.772, 7775.536
1292.700, 7756.032
1294.629, 7735.842
1296.557, 7720.484
1298.486, 7728.517
1300.414, 7748.508
1302.343, 7761.452
1304.271, 7772.847
1306.200, 7803.982
1308.128, 7814.052
1310.057, 7747.802
1311.985, 7700.238
1313.913, 7723.364
1315.842, 7745.398
1317.770, 7764.787
1319.699, 7746.766
1321.627, 7679.083
1323.556, 7676.481
1325.484, 7732.463
1327.413, 7739.205
1329.341, 7716.082
1331.270, 7726.000
1333.198, 7745.997
1335.127, 7746.436
1337.055, 7737.577
1338.984, 7718.910
1340.912, 7709.059
1342.840, 7725.397
1344.769, 7738.723
1346.697, 7740.736
1348.626, 7743.343
1350.554, 7750.879
1352.483, 7748.101
1354.411, 7733.558
1356.340, 7692.192
1358.268, 7639.304
1360.197, 7626.291
1362.125, 7628.215
1364.054, 7604.707
1365.982, 7590.024
1367.911, 7621.924
1369.839, 7636.248
1371.767, 7598.325
1373.696, 7563.273
1375.624, 7540.034
1377.553, 7539.412
1379.481, 7564.947
1381.410, 7567.819
1383.338, 7552.650
1385.267, 7540.796
1387.195, 7531.807
1389.124, 7541.725
1391.052, 7531.224
1392.981, 7429.710
1394.909, 7361.127
1396.838, 7392.688
1398.766, 7417.883
1400.694, 7411.151
1402.623, 7390.853
1404.551, 7359.263
1406.480, 7322.131
1408.408, 7285.940
1410.337, 7286.281
1412.265, 7302.313
1414.194, 7299.924
1416.122, 7290.473
1418.051, 7275.885
1419.979, 7273.100
1421.908, 7295.437
1423.836, 7305.749
1425.765, 7295.566
1427.693, 7304.224
1429.621, 7328.805
1431.550, 7272.533
1433.478, 7180.484
1435.407, 7194.498
1437.335, 7236.499
1439.264, 7197.529
1441.192, 7160.436
1443.121, 7201.442
1445.049, 7205.812
1446.978, 7132.781
1448.906, 7104.946
1450.835, 7132.965
1452.763, 7145.996
1454.692, 7142.529
1456.620, 7133.171
1458.548, 7117.988
1460.477, 7082.648
1462.405, 7063.559
1464.334, 7109.486
1466.262, 7138.320
1468.191, 7119.003
1470.119, 7099.353
1472.048, 7082.813
1473.976, 7066.879
1475.905, 7053.961
1477.833, 7055.326
1479.762, 7065.995
1481.690, 7092.062
1483.619, 7103.983
1485.547, 7068.015
1487.475, 7037.020
1489.404, 7028.396
1491.332, 7023.888
1493.261, 7023.117
1495.189, 7037.854
1497.118, 7055.602
1499.046, 7026.705
1500.975, 6982.006
1502.903, 6943.099
1504.832, 6923.637
1506.760, 6942.729
1508.689, 6957.138
1510.617, 6952.589
1512.546, 6961.851
1514.474, 6982.258
1516.402, 6952.083
1518.331, 6903.078
1520.259, 6905.056
1522.188, 6917.250
1524.116, 6904.600
1526.045, 6907.581
1527.973, 6951.156
1529.902, 6971.972
1531.830, 6960.706
1533.759, 6959.698
1535.687, 6962.288
1537.616, 6935.784
1539.544, 6915.228
1541.473, 6954.669
1543.401, 6977.462
1545.329, 6942.744
1547.258, 6930.961
1549.186, 6961.626
1551.115, 6962.126
1553.043, 6938.289
1554.972, 6912.738
1556.900, 6898.083
1558.829, 6918.426
1560.757, 6944.860
1562.686, 6967.291
1564.614, 6986.658
1566.543, 7004.561
1568.471, 6987.503
1570.400, 6945.745
1572.328, 6934.767
1574.256, 6931.596
1576.185, 6886.587
1578.113, 6869.026
1580.042, 6926.409
1581.970, 6953.155
1583.899, 6931.450
1585.827, 6892.211
1587.756, 6850.072
1589.684, 6859.289
1591.613, 6876.794
1593.541, 6848.829
1595.470, 6808.702
1597.398, 6760.525
1599.327, 6740.119
1601.255, 6750.031
1603.183, 6739.450
1605.112, 6716.727
1607.040, 6721.149
1608.969, 6717.986
1610.897, 6657.543
1612.826, 6610.588
1614.754, 6605.118
1616.683, 6584.638
1618.611, 6548.019
1620.540, 6531.580
1622.468, 6520.354
1624.397, 6485.186
1626.325, 6445.554
1628.254, 6411.935
1630.182, 6382.630
1632.110, 6354.451
1634.039, 6355.015
1635.967, 6374.565
1637.896, 6377.134
1639.824, 6361.863
1641.753, 6316.760
1643.681, 6274.594
1645.610, 6251.343
1647.538, 6230.463
1649.467, 6211.455
1651.395, 6168.829
1653.324, 6130.396
1655.252, 6162.295
1657.181, 6193.286
1659.109, 6180.292
1661.037, 6154.430
1662.966, 6115.356
1664.894, 6103.492
1666.823, 6103.430
1668.751, 6052.691
1670.680, 6003.306
1672.608, 5998.899
1674.537, 6002.248
1676.465, 6001.335
1678.394, 6027.755
1680.322, 6068.433
1682.251, 6024.309
1684.179, 5958.605
1686.108, 5937.690
1688.036, 5933.359
1689.964, 5936.131
1691.893, 5961.282
1693.821, 6003.802
1695.750, 6001.256
1697.678, 5968.839
1699.607, 5900.576
1701.535, 5868.430
1703.464, 5910.713
1705.392, 5921.201
1707.321, 5887.609
1709.249, 5866.466
1711.178, 5854.611
1713.106, 5851.815
1715.035, 5846.022
1716.963, 5829.004
1718.891, 5830.924
1720.820, 5852.448
1722.748, 5850.721
1724.677, 5834.414
1726.605, 5819.961
1728.534, 5792.816
1730.462, 5737.735
1732.391, 5709.735
1734.319, 5710.945
1736.248, 5708.620
1738.176, 5696.757
1740.105, 5650.896
1742.033, 5626.529
1743.962, 5658.160
1745.890, 5671.840
1747.818, 5665.747
1749.747, 5683.786
1751.675, 5701.425
1753.604, 5684.474
1755.532, 5656.195
1757.461, 5619.697
1759.389, 5606.089
1761.318, 5609.837
1763.246, 5586.649
1765.175, 5558.316
1767.103, 5542.754
1769.032, 5539.597
1770.960, 5552.299
1772.889, 5552.225
1774.817, 5543.578
1776.745, 5551.118
1778.674, 5552.001
1780.602, 5521.105
1782.531, 5493.730
1784.459, 5473.709
1786.388, 5495.106
1788.316, 5521.435
1790.245, 5458.940
1792.173, 5393.894
1794.102, 5366.811
1796.030, 5370.959
1797.959, 5400.987
1799.887, 5387.761
1801.816, 5357.735
1803.744, 5337.613
1805.672, 5329.726
1807.601, 5336.471
1809.529, 5350.637
1811.458, 5363.763
1813.386, 5330.663
1815.315, 5302.979
1817.243, 5323.060
1819.172, 5329.803
1821.100, 5309.502
1823.029, 5275.292
1824.957, 5243.075
1826.886, 5246.238
1828.814, 5252.765
1830.743, 5253.574
1832.671, 5243.196
1834.599, 5223.649
1836.528, 5188.984
1838.456, 5174.527
1840.385, 5225.035
1842.313, 5236.790
1844.242, 5195.076
1846.170, 5182.622
1848.099, 5180.828
1850.027, 5154.603
1851.956, 5130.399
1853.884, 5116.805
1855.813, 5112.180
1857.741, 5108.747
1859.670, 5070.470
1861.598, 5043.959
1863.526, 5076.037
1865.455, 5080.059
1867.383, 5052.018
1869.312, 5042.092
1871.240, 5035.272
1873.169, 5010.169
1875.097, 4986.647
1877.026, 4969.967
1878.954, 4955.119
1880.883, 4942.200
1882.811, 4929.840
1884.740, 4924.023
1886.668, 4928.036
1888.597, 4938.674
1890.525, 4948.825
1892.453, 4917.834
1894.382, 4892.290
1896.310, 4929.888
1898.239, 4915.200
1900.167, 4847.243
1902.096, 4835.180
1904.024, 4843.764
1905.953, 4852.026
1907.881, 4823.726
1909.810, 4747.460
1911.738, 4743.854
1913.667, 4776.395
1915.595, 4801.068
1917.524, 4807.079
1919.452, 4788.616
1921.380, 4759.087
1923.309, 4730.607
1925.237, 4727.658
1927.166, 4723.240
1929.094, 4702.234
1931.023, 4710.147
1932.951, 4726.563
1934.880, 4670.517
1936.808, 4627.638
1938.737, 4638.094
1940.665, 4637.377
1942.594, 4623.184
1944.522, 4602.815
1946.451, 4583.498
1948.379, 4577.162
1950.307, 4575.932
1952.236, 4572.273
1954.164, 4553.630
1956.093, 4533.158
1958.021, 4515.378
1959.950, 4508.156
1961.878, 4508.188
1963.807, 4507.569
1965.735, 4496.418
1967.664, 4454.083
1969.592, 4433.288
1971.521, 4435.338
1973.449, 4415.448
1975.378, 4402.266
1977.306, 4429.083
1979.234, 4429.860
1981.163, 4405.668
1983.091, 4398.629
1985.020, 4398.243
1986.948, 4416.327
1988.877, 4399.490
1990.805, 4348.370
1992.734, 4330.620
1994.662, 4322.044
1996.591, 4304.588
1998.519, 4286.302
2000.448, 4273.014
2002.376, 4277.238
2004.305, 4276.395
2006.233, 4248.975
2008.161, 4228.188
2010.090, 4220.142
2012.018, 4187.774
2013.947, 4160.457
2015.875, 4161.441
2017.804, 4145.658
2019.732, 4129.434
2021.661, 4106.194
2023.589, 4090.300
2025.518, 4114.282
2027.446, 4140.367
2029.375, 4147.744
2031.303, 4093.399
2033.232, 4047.951
2035.160, 4032.369
2037.089, 4026.674
2039.017, 4037.864
2040.945, 4026.211
2042.874, 4002.797
2044.802, 3984.259
2046.731, 3990.649
2048.659, 3997.258
2050.588, 3949.009
2052.516, 3931.276
2054.445, 3966.796
2056.373, 3951.865
2058.302, 3913.597
2060.230, 3895.984
2062.158, 3886.292
2064.087, 3870.806
2066.015, 3869.209
2067.944, 3866.493
2069.872, 3834.156
2071.801, 3815.051
2073.729, 3814.330
2075.658, 3818.347
2077.586, 3805.310
2079.515, 3765.988
2081.443, 3768.564
2083.372, 3785.891
2085.300, 3789.464
2087.229, 3789.486
2089.157, 3775.272
2091.085, 3738.047
2093.014, 3697.150
2094.942, 3699.354
2096.871, 3690.677
2098.799, 3653.096
2100.728, 3642.922
2102.656, 3649.617
2104.585, 3619.564
2106.513, 3596.281
2108.442, 3601.476
2110.370, 3624.755
2112.299, 3619.532
2114.227, 3587.774
2116.156, 3573.626
2118.084, 3561.637
2120.012, 3564.233
2121.941, 3547.569
2123.869, 3498.053
2125.798, 3493.264
2127.726, 3507.545
2129.655, 3506.114
2131.583, 3484.077
2133.512, 3459.349
2135.440, 3478.293
2137.369, 3481.350
2139.297, 3436.976
2141.226, 3413.713
2143.154, 3404.788
2145.083, 3384.558
2147.011, 3382.557
2148.939, 3396.026
2150.868, 3379.754
2152.796, 3360.988
2154.725, 3350.557
2156.653, 3333.967
2158.582, 3324.692
2160.510, 3332.969
2162.439, 3319.356
2164.367, 3285.802
2166.296, 3286.901
2168.224, 3289.205
2170.153, 3268.938
2172.081, 3247.763
2174.010, 3235.896
2175.938, 3235.849
2177.866, 3219.803
2179.795, 3192.633
2181.723, 3183.363
2183.652, 3176.588
2185.580, 3174.657
2187.509, 3178.670
2189.437, 3178.067
2191.366, 3159.332
2193.294, 3141.888
2195.223, 3131.575
2197.151, 3123.397
2199.080, 3108.001
2201.008, 3064.447
2202.937, 3056.223
2204.865, 3071.706
2206.793, 3078.086
2208.722, 3078.366
2210.650, 3073.704
2212.579, 3057.661
2214.507, 3042.459
2216.436, 3045.823
2218.364, 3046.096
2220.293, 3039.232
2222.221, 3019.361
2224.150, 2999.291
2226.078, 2980.939
2228.007, 2961.691
2229.935, 2947.167
2231.864, 2944.817
2233.792, 2924.283
2235.720, 2903.742
2237.649, 2925.846
2239.577, 2934.589
2241.506, 2917.382
2243.434, 2895.406
2245.363, 2874.479
2247.291, 2854.388
2249.220, 2860.576
2251.148, 2862.512
2253.077, 2811.791
2255.005, 2802.620
2256.934, 2837.855
2258.862, 2825.693
2260.791, 2806.922
2262.719, 2801.089
2264.647, 2797.393
2266.576, 2785.988
2268.504, 2754.902
2270.433, 2744.473
2272.361, 2742.149
2274.290, 2721.640
2276.218, 2711.188
2278.147, 2702.010
2280.075, 2683.988
2282.004, 2669.696
2283.932, 2661.272
2285.861, 2666.234
2287.789, 2666.447
2289.718, 2648.718
2291.646, 2637.722
2293.574, 2629.157
2295.503, 2611.739
2297.431, 2602.021
2299.360, 2611.320
2301.288, 2574.913
2303.217, 2554.134
2305.145, 2577.041
2307.074, 2545.830
2309.002, 2518.625
2310.931, 2530.563
2312.859, 2539.167
2314.788, 2531.035
2316.716, 2504.425
2318.645, 2493.503
2320.573, 2482.185
2322.501, 2477.645
2324.430, 2463.996
2326.358, 2426.380
2328.287, 2443.865
2330.215, 2453.525
2332.144, 2419.413
2334.072, 2416.598
2336.001, 2427.583
2337.929, 2419.903
2339.858, 2390.895
2341.786, 2361.857
2343.715, 2355.596
2345.643, 2352.017
2347.572, 2349.021
2349.500, 2359.908
2351.428, 2367.995
2353.357, 2346.268
2355.285, 2303.343
2357.214, 2274.519
2359.142, 2284.655
2361.071, 2256.000
2362.999, 2224.257
2364.928, 2245.788
2366.856, 2264.893
2368.785, 2259.901
2370.713, 2217.999
2372.642, 2210.496
2374.570, 2249.406
2376.499, 2243.659
2378.427, 2214.837
2380.355, 2211.975
2382.284, 2216.668
2384.212, 2183.469
2386.141, 2174.063
2388.069, 2191.368
2389.998, 2188.290
2391.926, 2146.756
2393.855, 2143.404
2395.783, 2155.323
2397.712, 2120.943
2399.640, 2106.949
2401.569, 2099.570
2403.497, 2081.388
2405.426, 2084.148
2407.354, 2072.626
2409.282, 2073.957
2411.211, 2065.928
2413.139, 2048.839
2415.068, 2063.518
2416.996, 2055.320
2418.925, 2028.287
2420.853, 2024.924
2422.782, 2025.904
2424.710, 2004.311
2426.639, 1975.851
2428.567, 1968.185
2430.496, 1986.083
2432.424, 1994.307
2434.353, 1970.013
2436.281, 1942.662
2438.209, 1938.022
2440.138, 1933.337
2442.066, 1924.031
2443.995, 1918.803
2445.923, 1927.329
2447.852, 1914.287
2449.780, 1877.883
2451.709, 1870.897
2453.637, 1867.681
2455.566, 1864.758
2457.494, 1870.011
2459.423, 1856.109
2461.351, 1851.593
2463.280, 1840.039
2465.208, 1814.902
2467.136, 1812.193
2469.065, 1817.639
2470.993, 1818.571
2472.922, 1815.796
2474.850, 1795.831
2476.779, 1767.851
2478.707, 1769.502
2480.636, 1785.183
2482.564, 1757.306
2484.493, 1724.583
2486.421, 1718.066
2488.350, 1718.480
2490.278, 1726.591
2492.207, 1726.476
2494.135, 1690.897
2496.063, 1674.633
2497.992, 1689.225
2499.920, 1681.209
2501.849, 1676.366
2503.777, 1674.754
2505.706, 1657.375
2507.634, 1650.516
2509.563, 1651.015
2511.491, 1637.846
2513.420, 1633.562
2515.348, 1628.817
2517.277, 1596.199
2519.205, 1579.316
2521.134, 1583.369
2523.062, 1578.563
2524.990, 1572.867
2526.919, 1578.138
2528.847, 1573.750
2530.776, 1565.598
2532.704, 1561.433
2534.633, 1545.062
2536.561, 1526.201
2538.490, 1514.214
2540.418, 1503.257
2542.347, 1497.105
2544.275, 1502.885
2546.204, 1510.544
2548.132, 1501.562
2550.061, 1487.581
2551.989, 1486.387
2553.917, 1481.522
2555.846, 1477.151
2557.774, 1454.767
2559.703, 1436.244
2561.631, 1425.910
2563.560, 1425.242
2565.488, 1429.234
2567.417, 1428.948
2569.345, 1403.395
2571.274, 1387.063
2573.202, 1384.784
2575.131, 1425.181
2577.059, 1419.028
2578.988, 1377.451
2580.916, 1355.287
2582.844, 1355.526
2584.773, 1363.745
2586.701, 1354.230
2588.630, 1334.641
2590.558, 1317.365
2592.487, 1316.602
2594.415, 1316.627
2596.344, 1321.084
2598.272, 1342.836
2600.201, 1315.743
2602.129, 1282.075
2604.058, 1296.114
2605.986, 1293.437
2607.915, 1277.292
2609.843, 1257.989
2611.771, 1253.313
2613.700, 1252.276
2615.628, 1248.369
2617.557, 1230.339
2619.485, 1221.580
2621.414, 1231.618
2623.342, 1224.273
2625.271, 1214.487
2627.199, 1208.610
2629.128, 1190.584
2631.056, 1176.939
2632.985, 1168.735
2634.913, 1182.705
2636.842, 1191.142
2638.770, 1184.947
2640.698, 1184.127
2642.627, 1167.511
2644.555, 1147.489
2646.484, 1183.734
2648.412, 1168.030
2650.341, 1123.378
2652.269, 1109.651
2654.198, 1112.931
2656.126, 1115.635
2658.055, 1106.983
2659.983, 1110.295
2661.912, 1114.992
2663.840, 1102.275
2665.769, 1089.626
2667.697, 1085.347
2669.625, 1073.970
2671.554, 1062.293
2673.482, 1057.348
2675.411, 1050.492
2677.339, 1044.876
2679.268, 1040.773
2681.196, 1021.512
2683.125, 1028.044
2685.053, 1031.537
2686.982, 1031.627
2688.910, 1030.295
2690.839, 1007.445
2692.767, 991.0227
2694.696, 974.5270
2696.624, 974.5781
2698.552, 976.9910
2700.481, 965.1151
2702.409, 974.4531
2704.338, 977.9970
2706.266, 966.6943
2708.195, 956.9319
2710.123, 952.2161
2712.052, 944.2741
2713.980, 931.4954
2715.909, 926.7484
2717.837, 944.2758
2719.766, 953.4040
2721.694, 938.4990
2723.623, 911.5160
2725.551, 911.0614
2727.479, 899.1022
2729.408, 873.5615
2731.336, 868.9962
2733.265, 882.3896
2735.193, 871.9693
2737.122, 843.3810
2739.050, 860.8697
2740.979, 868.1096
2742.907, 858.0390
2744.836, 857.5768
2746.764, 847.3138
2748.693, 848.7830
2750.621, 843.5953
2752.550, 827.3744
2754.478, 816.7416
2756.406, 825.2488
2758.335, 820.5400
2760.263, 813.4539
2762.192, 808.6644
2764.120, 817.4982
2766.049, 801.4070
2767.977, 771.9467
2769.906, 785.9762
2771.834, 783.1484
2773.763, 764.9551
2775.691, 774.8995
2777.620, 769.0819
2779.548, 768.8122
2781.477, 765.2723
2783.405, 760.4670
2785.333, 743.8484
2787.262, 728.1482
2789.190, 733.8917
2791.119, 741.7454
2793.047, 719.7499
2794.976, 715.3571
2796.904, 717.3493
2798.833, 711.0809
2800.761, 714.3848
2802.690, 704.1532
2804.618, 708.7454
2806.547, 702.5664
2808.475, 681.7693
2810.404, 682.8326
2812.332, 680.9421
2814.260, 668.6676
2816.189, 663.2534
2818.117, 665.0248
2820.046, 659.9805
2821.974, 657.7833
2823.903, 655.6940
2825.831, 635.5778
2827.760, 640.0779
2829.688, 643.2353
2831.617, 627.8214
2833.545, 636.2458
2835.474, 631.9866
2837.402, 622.0790
2839.331, 613.1545
2841.259, 611.7762
2843.188, 618.1384
2845.116, 609.6913
2847.044, 603.0872
2848.973, 591.2266
2850.901, 585.1516
2852.830, 601.1538
2854.758, 589.9128
2856.687, 573.5219
2858.615, 575.4608
2860.544, 568.4041
2862.472, 566.5839
2864.401, 563.0384
2866.329, 546.4949
2868.258, 543.2477
2870.186, 552.5844
2872.115, 537.4852
2874.043, 529.6389
2875.971, 535.8621
2877.900, 546.8012
2879.828, 532.2160
2881.757, 524.1907
2883.685, 521.9795
2885.614, 516.2288
2887.542, 509.5503
2889.471, 505.9799
2891.399, 511.2381
2893.328, 510.1144
2895.256, 497.2304
2897.185, 488.0386
2899.113, 496.2061
2901.042, 481.8892
2902.970, 473.3863
2904.898, 472.7151
2906.827, 467.6861
2908.755, 468.4306
2910.684, 469.3674
2912.612, 467.4280
2914.541, 464.6678
2916.469, 451.3508
2918.398, 434.0746
2920.326, 442.1136
2922.255, 445.1111
2924.183, 441.8831
2926.112, 442.2480
2928.040, 440.7311
2929.969, 431.0173
2931.897, 424.2749
2933.825, 445.0933
2935.754, 442.8047
2937.682, 427.2544
2939.611, 418.9039
2941.539, 416.5286
2943.468, 413.3198
2945.396, 406.7022
2947.325, 410.3545
2949.253, 413.2223
2951.182, 409.3174
2953.110, 396.6417
2955.039, 394.8647
2956.967, 389.2623
2958.896, 382.0213
2960.824, 386.0002
2962.752, 393.5956
2964.681, 387.9756
2966.609, 368.0251
2968.538, 381.6334
2970.466, 373.5253
2972.395, 358.2684
2974.323, 365.2716
2976.252, 361.6260
2978.180, 352.8546
2980.109, 344.5054
2982.037, 343.7710
2983.966, 336.6368
2985.894, 341.5891
2987.823, 364.1193
2989.751, 348.6820
2991.679, 338.6551
2993.608, 335.7727
2995.536, 332.3739
2997.465, 326.6279
2999.393, 320.2402
3001.322, 314.3937
3003.250, 292.8412
3005.179, 300.3697
3007.107, 305.3792
3009.036, 293.9141
3010.964, 300.5462
3012.893, 302.2362
3014.821, 298.8593
3016.750, 297.0453
3018.678, 279.8536
3020.606, 286.3027
3022.535, 298.4297
3024.463, 285.5137
3026.392, 275.6086
3028.320, 277.1526
3030.249, 282.0453
3032.177, 270.6994
3034.106, 269.7596
3036.034, 272.2432
3037.963, 271.7064
3039.891, 264.0059
3041.820, 255.5792
3043.748, 253.0430
3045.677, 258.1795
3047.605, 259.6247
3049.533, 269.5151
3051.462, 272.4821
3053.390, 249.8709
3055.319, 245.5972
3057.247, 239.5311
3059.176, 238.6898
3061.104, 253.4635
3063.033, 245.4474
3064.961, 239.5642
3066.890, 240.6920
3068.818, 237.9337
3070.747, 220.6390
3072.675, 212.5489
3074.604, 219.0805
3076.532, 219.5398
3078.460, 214.6384
3080.389, 220.0284
3082.317, 225.8888
3084.246, 204.6035
3086.174, 206.5818
3088.103, 208.2302
3090.031, 192.6007
3091.960, 192.1369
3093.888, 201.8327
3095.817, 202.0161
3097.745, 187.5725
3099.674, 179.8233
3101.602, 191.9452
3103.531, 199.3675
3105.459, 183.3844
3107.387, 188.1023
3109.316, 191.1044
3111.244, 191.1700
3113.173, 184.0702
3115.101, 181.9321
3117.030, 176.4974
3118.958, 174.5506
3120.887, 179.5322
3122.815, 174.1597
3124.744, 176.8189
3126.672, 180.9209
3128.601, 168.7235
3130.529, 167.2231
3132.458, 162.6693
3134.386, 160.5277
3136.314, 170.8652
3138.243, 162.4308
3140.171, 161.4408
3142.100, 167.7819
3144.028, 161.1293
3145.957, 148.8845
3147.885, 155.5284
3149.814, 160.8320
3151.742, 147.1964
3153.671, 147.9712
3155.599, 155.2188
3157.528, 160.3160
3159.456, 152.8079
3161.385, 151.5806
3163.313, 141.8895
3165.241, 131.3313
3167.170, 126.2102
3169.098, 138.6520
3171.027, 136.8230
3172.955, 131.6021
3174.884, 139.8135
3176.812, 126.7930
3178.741, 120.7426
3180.669, 119.9491
3182.598, 120.0029
3184.526, 128.6814
3186.455, 134.1034
3188.383, 132.2448
3190.312, 120.8666
3192.240, 113.9741
3194.168, 125.3950
3196.097, 122.2362
3198.025, 117.9434
3199.954, 116.3873
3201.882, 120.2561
3203.811, 120.0726
3205.739, 115.3895
3207.668, 108.7881
3209.596, 102.5841
3211.525, 108.8170
3213.453, 109.7478
3215.382, 97.16476
3217.310, 104.5435
3219.239, 109.2836
3221.167, 114.2630
3223.095, 115.6091
3225.024, 101.9487
3226.952, 97.54292
3228.881, 103.9600
3230.809, 113.2522
3232.738, 111.8487
3234.666, 102.2689
3236.595, 103.3568
3238.523, 113.2433
3240.452, 110.9939
3242.380, 112.5314
3244.309, 101.5903
3246.237, 93.48485
3248.166, 100.6880
3250.094, 111.6982
3252.022, 102.7212
3253.951, 92.14988
3255.879, 92.86311
3257.808, 101.9283
3259.736, 96.62232
3261.665, 98.19787
3263.593, 102.2111
3265.522, 92.34662
3267.450, 82.62884
3269.379, 85.68382
3271.307, 94.44947
3273.236, 102.8500
3275.164, 88.87589
3277.093, 87.10630
3279.021, 93.28385
3280.949, 97.20072
3282.878, 84.71173
3284.806, 92.37997
3286.735, 73.73151
3288.663, 88.08858
3290.592, 96.06175
3292.520, 97.99426
3294.449, 75.79316
3296.377, 84.75559
3298.306, 81.22903
3300.234, 77.19046
3302.163, 90.53886
3304.091, 71.84805
3306.020, 84.92075
3307.948, 85.31411
3309.876, 91.51054
3311.805, 85.14085
3313.733, 82.65251
3315.662, 92.73408
3317.590, 95.85565
3319.519, 88.03941
3321.447, 73.00962
3323.376, 65.67574
3325.304, 71.75434
3327.233, 69.53020
3329.161, 73.34718
3331.090, 71.25327
3333.018, 64.24442
3334.947, 61.55177
3336.875, 73.68370
3338.803, 66.82770
3340.732, 68.76636
3342.660, 83.21561
3344.589, 71.91833
3346.517, 67.98450
3348.446, 62.60300
3350.374, 60.91855
3352.303, 65.74633
3354.231, 56.67192
3356.160, 65.64507
3358.088, 61.81078
3360.017, 53.84786
3361.945, 66.71593
3363.874, 50.17465
3365.802, 59.12964
3367.730, 64.23052
3369.659, 57.78002
3371.587, 70.17631
3373.516, 58.74077
3375.444, 50.03850
3377.373, 58.90292
3379.301, 76.20928
3381.230, 59.86254
3383.158, 62.05172
3385.087, 54.02419
3387.015, 44.29905
3388.944, 46.37471
3390.872, 57.90575
3392.801, 38.48675
3394.729, 50.62482
3396.657, 69.38409
3398.586, 55.84143
3400.514, 62.69975
3402.443, 53.93303
3404.371, 54.57822
3406.300, 62.12037
3408.228, 60.02134
3410.157, 53.65120
3412.085, 47.47516
3414.014, 39.97859
3415.942, 41.16479
3417.871, 58.32867
3419.799, 51.23903
3421.728, 59.82626
3423.656, 56.33642
3425.584, 43.73316
3427.513, 43.30990
3429.441, 42.99121
3431.370, 46.81758
3433.298, 41.92339
3435.227, 37.93737
3437.155, 50.50877
3439.084, 60.58777
3441.012, 54.86197
3442.941, 43.49393
3444.869, 42.93701
3446.798, 59.08384
3448.726, 43.89283
3450.655, 41.22126
3452.583, 49.04208
3454.511, 50.27214
3456.440, 37.25321
3458.368, 50.00649
3460.297, 42.36363
3462.225, 43.12676
3464.154, 48.19426
3466.082, 44.86369
3468.011, 31.88484
3469.939, 45.20886
3471.868, 53.42845
3473.796, 48.11182
3475.725, 37.22955
3477.653, 39.02530
3479.582, 48.52108
3481.510, 51.70854
3483.438, 47.59444
3485.367, 40.14951
3487.295, 34.95979
3489.224, 43.07825
3491.152, 35.84106
3493.081, 40.01451
3495.009, 47.94607
3496.938, 39.33672
3498.866, 40.78164
3500.795, 34.06816
3502.723, 41.70227
3504.652, 43.14542
3506.580, 30.89830
3508.509, 44.07525
3510.437, 44.82689
3512.365, 45.99937
3514.294, 45.85575
3516.222, 43.14765
3518.151, 38.99819
3520.079, 22.19662
3522.008, 21.10725
3523.936, 28.19602
3525.865, 34.15654
3527.793, 33.70393
3529.722, 23.10242
3531.650, 28.65359
3533.579, 32.57509
3535.507, 28.60921
3537.436, 22.69837
3539.364, 24.33633
3541.292, 24.19831
3543.221, 26.77047
3545.149, 29.18514
3547.078, 30.49092
3549.006, 29.88513
3550.935, 23.51748
3552.863, 40.27264
3554.792, 40.09167
3556.720, 41.31562
3558.649, 45.13784
3560.577, 39.09244
3562.506, 31.71536
3564.434, 18.42344
3566.363, 18.67801
3568.291, 27.78311
3570.219, 40.17765
3572.148, 51.61838
3574.076, 25.13365
3576.005, 36.08669
3577.933, 31.26538
3579.862, 35.51663
3581.790, 53.77946
3583.719, 35.54049
3585.647, 41.63085
3587.576, 40.85185
3589.504, 32.42901
3591.433, 25.82914
3593.361, 26.17588
3595.290, 28.23639
3597.218, 19.71771
3599.146, 12.66072
3601.075, 19.45057
3603.003, 27.24123
3604.932, 24.27556
3606.860, 20.71106
3608.789, 23.63542
3610.717, 37.09403
3612.646, 32.62507
3614.574, 19.90823
3616.503, 19.29190
3618.431, 35.36581
3620.360, 35.11796
3622.288, 16.74063
3624.217, 6.443949
3626.145, 15.56510
3628.073, 30.67814
3630.002, 17.46379
3631.930, 13.19599
3633.859, 19.67919
3635.787, 24.35965
3637.716, 24.59797
3639.644, 26.56804
3641.573, 36.67138
3643.501, 30.48588
3645.430, 36.34739
3647.358, 31.26116
3649.287, 31.27896
3651.215, 43.65754
3653.144, 52.93696
3655.072, 41.60710
3657.000, 18.44094
3658.929, 21.80317
3660.857, 30.15953
3662.786, 33.46316
3664.714, 37.06971
3666.643, 41.22400
3668.571, 30.23677
3670.500, 27.36435
3672.428, 26.87401
3674.357, 24.71477
3676.285, 17.99175
3678.214, 6.283471
3680.142, 16.61558
3682.071, 10.32636
3683.999, 10.20765
3685.927, 11.09660
3687.856, 8.700630
3689.784, 7.701446
3691.713, 18.56850
3693.641, 7.629423
3695.570, 10.99541
3697.498, 19.53162
3699.427, 22.50246
3701.355, 18.68267
3703.284, 14.11349
3705.212, 18.59981
3707.141, 26.12697
3709.069, 15.00060
3710.998, 13.14324
3712.926, 23.77917
3714.854, 30.56371
3716.783, 22.47437
3718.711, 19.84230
3720.640, 24.00883
3722.568, 17.42528
3724.497, 17.55632
3726.425, 18.09781
3728.354, 12.79460
3730.282, 14.37055
3732.211, 9.274136
3734.139, 24.70545
3736.068, 20.32021
3737.996, 19.62334
3739.925, 18.74396
3741.853, 12.85647
3743.781, 19.68971
3745.710, 23.37603
3747.638, 10.47172
3749.567, 18.12506
3751.495, 18.95205
3753.424, 14.69920
3755.352, 13.36223
3757.281, 10.32400
3759.209, 30.46070
3761.138, 5.697070
3763.066, -2.292532
3764.995, -4.217510
3766.923, 11.49119
3768.852, 24.82992
3770.780, 9.835886
3772.708, 21.98213
3774.637, 15.39147
3776.565, 5.697647
3778.494, -2.148073
3780.422, 5.080754
3782.351, 13.43263
3784.279, 10.16029
3786.208, 8.373954
3788.136, 6.768330
3790.065, 1.167360
3791.993, 13.01616
3793.922, 15.76613
3795.850, 18.20620
3797.779, 16.22648
3799.707, 2.933748
3801.635, 13.20332
3803.564, 17.61243
3805.492, 21.95355
3807.421, 7.462249
3809.349, 9.303750
3811.278, 13.61355
3813.206, 11.56249
3815.135, 18.40605
3817.063, 14.98688
3818.992, 14.59105
3820.920, 17.21877
3822.849, 13.87666
3824.777, 7.831696
3826.706, 9.223600
3828.634, 14.19494
3830.563, 12.93909
3832.491, 18.32234
3834.419, 17.75791
3836.348, 8.892771
3838.276, 18.77717
3840.205, 16.85083
3842.133, 9.858044
3844.062, 12.56870
3845.990, 14.80476
3847.919, -1.131390
3849.847, 0.6309366
3851.776, 8.156518
3853.704, 23.08571
3855.633, 30.55318
3857.561, 33.14029
3859.490, 21.77035
3861.418, 3.320625
3863.346, 8.328930
3865.275, 3.743985
3867.203, 17.88293
3869.132, 5.928504
3871.060, 5.656629
3872.989, 16.08440
3874.917, 26.17739
3876.846, 23.58527
3878.774, 11.05195
3880.703, 16.16779
3882.631, 4.025834
3884.560, 22.27507
3886.488, 13.23961
3888.417, 8.584172
3890.345, 8.544358
3892.273, 1.273548
3894.202, -0.4828800
3896.130, 10.89627
3898.059, 6.680383
3899.987, 24.15383
3901.916, 7.034612
3903.844, -4.636455
3905.773, 9.512826
3907.701, 9.693226
3909.630, 13.82544
3911.558, 15.01436
3913.487, -1.096190
3915.415, 4.001961
3917.344, 5.650101
3919.272, 11.90900
3921.200, 5.978482
3923.129, 2.312638
3925.057, 13.01929
3926.986, 13.24424
3928.914, 3.243466
3930.843, 2.084003
3932.771, 9.674269
3934.700, 4.441199
3936.628, 9.669062
3938.557, 10.63223
3940.485, 10.64525
3942.414, -3.575016
3944.342, 6.030988
3946.271, 10.11079
3948.199, 8.181057
3950.127, 15.86009
3952.056, 19.09724
3953.984, 10.64212
3955.913, 10.12946
3957.841, 12.82295
3959.770, 5.294600
3961.698, 9.079021
3963.627, 17.49845
3965.555, 14.02615
3967.484, 16.94947
3969.412, 20.32079
3971.341, 8.490897
3973.269, 8.458778
3975.198, 16.63086
3977.126, 5.983435
3979.054, 23.76627
3980.983, 20.03038
3982.911, 13.24634
3984.840, 4.542454
3986.768, 16.03076
3988.697, 15.59749
3990.625, -2.845619
3992.554, -3.254696
3994.482, 1.529228
3996.411, -1.904111
3998.339, 1.585681
4000.268, 1.696990
4002.196, 4.946263
4004.125, 5.899463
4006.053, 18.59910
4007.981, 14.72298
4009.910, 5.231949
4011.838, 9.305717
4013.767, 17.15932
4015.695, 13.26996
4017.624, -1.860967
4019.552, 7.066830
4021.481, -19.16402
4023.409, 13.89175
4025.338, 3.903466
4027.266, 6.821225
4029.195, 22.56081
4031.123, 26.27382
4033.052, 27.73556
4034.980, 17.64321
4036.908, 8.219626
4038.837, 24.07036
4040.765, 0.9021340
4042.694, 1.860225
4044.622, 14.50282
4046.551, 9.213689
4048.479, 16.30754
4050.408, 15.87831
4052.336, 6.025954
4054.265, 12.36575
4056.193, 28.09907
4058.122, 18.26294
4060.050, 8.9432483E-08
4061.979, -0.4190705
4063.907, 0.8776619
4065.835, 6.643237
4067.764, 4.523330
4069.692, 8.904416
4071.621, 4.767797
4073.549, 8.291729
4075.478, 6.278983
4077.406, 12.96196
4079.335, 13.14225
4081.263, 20.90037
4083.192, 9.979653
4085.120, 7.284066
4087.049, 24.21323
4088.977, 24.13999
4090.906, 13.10386
4092.834, 17.17044
4094.762, 7.816556
4096.691, 14.10725
4098.619, 0.1973864
4100.548, 20.90915
4102.476, -16.81809
4104.405, 12.52600
4106.333, 29.17833
4108.262, 9.636206
4110.190, 12.77625
4112.119, 16.79825
4114.047, 12.14769
4115.976, 15.68363
4117.904, 29.66628
4119.833, 32.53170
4121.761, 7.283947
4123.689, 10.77480
4125.618, 2.707958
4127.546, 4.212533
4129.475, 6.438337
4131.403, 7.028677
4133.332, 2.884413
4135.260, 3.380368
4137.188, 7.491584
4139.117, 8.255148
4141.045, 11.35030
4142.974, 14.16117
4144.902, 8.469509
4146.831, 6.764461
4148.759, 6.827590
4150.688, 0.4417607
4152.616, -1.154544
4154.545, 5.208920
4156.473, 10.92895
4158.402, 10.90914
4160.330, 4.445721
4162.259, 13.36597
4164.187, -11.67170
4166.116, 5.707213
4168.044, 12.25232
4169.973, -4.764881
4171.901, 8.089057
4173.830, 11.53533
4175.758, 20.94333
4177.687, 32.82801
4179.615, 21.94733
4181.543, 4.329142
4183.472, 3.273140
4185.400, 11.56448
4187.329, 14.34591
4189.257, 14.05912
4191.186, 12.83174
4193.114, 16.72901
4195.042, 24.02933
4196.971, -8.621537
4198.899, 8.442879
4200.828, -10.62654
4202.756, 5.112783
4204.685, 19.10642
4206.613, 10.14156
4208.542, 6.498659
4210.470, 10.97760
4212.399, 6.058632
4214.327, -16.36925
4216.256, -8.272902
4218.184, 6.507004
4220.113, 14.85874
4222.041, 10.87819
4223.970, -1.678128
4225.898, 13.95011
4227.827, 16.27249
4229.755, 16.23036
4231.684, 13.13555
4233.612, 17.47793
4235.541, 16.87941
4237.469, 8.207799
4239.397, 28.87629
4241.326, 31.25614
4243.254, 5.384356
4245.183, 11.65275
4247.111, 11.82802
4249.040, 0.2750752
4250.968, 3.987747
4252.896, 9.460611
4254.825, 26.56682
4256.753, 7.731660
4258.682, 14.21240
4260.610, 21.90746
4262.539, 5.731256
4264.467, 9.525563
4266.396, 15.03645
4268.324, 7.898286
4270.253, 5.602297
4272.181, 15.57630
4274.110, -1.965743
4276.038, -4.164321
4277.967, 4.542377
4279.895, 3.898435
4281.824, -1.037328
4283.752, -0.9790351
4285.681, 1.382484
4287.609, 1.633657
4289.538, 3.945763
4291.466, 10.86146
4293.395, 8.326399
4295.323, 12.91517
4297.251, 5.735293
4299.180, -1.033604
4301.108, 5.686308
4303.037, 13.12210
4304.965, 14.14137
4306.894, 7.116225
4308.822, 2.364622
4310.750, 8.231149
4312.679, 3.493858
4314.607, -2.700906
4316.536, 14.43040
4318.464, 15.26233
4320.393, 0.5703130
4322.321, 0.8786747
4324.250, 6.857844
4326.178, 21.73157
4328.107, 13.48349
4330.035, 1.341640
4331.964, 8.875395
4333.892, 15.56606
4335.821, 20.78435
4337.749, 9.464653
4339.678, 10.18125
4341.606, -13.25500
4343.535, 1.916946
4345.463, 10.64544
4347.392, -3.234950
4349.320, 6.909719
4351.249, 10.37605
4353.177, 1.896079
4355.105, 0.6659850
4357.034, 18.48375
4358.962, -4.799629
4360.891, 22.70364
4362.819, 6.322126
4364.748, -1.103548
4366.676, 10.18368
4368.604, 6.636880
4370.533, 6.407547
4372.461, 9.141621
4374.390, 17.20780
4376.318, 12.44299
4378.247, -1.372115
4380.175, 4.046465
4382.104, -6.5570469E-03
##END=



