##NAMES=Fillowite
##RRUFFID=R110143
##IDEAL CHEMISTRY=Na_3_CaMn^2+^_11_(PO_4_)_9_
##LOCALITY=Gottcha claim, Cross Lake, Manitoba, Canada
##OWNER=RRUFF
##SOURCE=Donald M Doell 
##DESCRIPTION=Reddish-brown, greasy, massive
##STATUS=The identification of this mineral has been confirmed by single-crystal X-ray diffraction
##URL=https://www.rruff.net/odr/rruff_sample/R110143
##DIFFRACTION SAMPLE DESCRIPTION=Single crystal, powder profile is calculated
##CELL PARAMETERS=a: 15.245 b: 15.245 c: 43.491 alpha: 90 beta: 90 gamma: 120 volume: 8754 crystal system: hexagonal
##FILETYPE=Raman Processed
##RAMAN WAVELENGTH=532

179.0960, 55.87820
181.0245, 58.93459
182.9530, 61.48885
184.8814, 63.63031
186.8099, 65.37911
188.7384, 66.72395
190.6668, 67.45389
192.5953, 68.08985
194.5238, 68.68678
196.4522, 69.23723
198.3807, 69.85899
200.3092, 70.64571
202.2376, 71.51826
204.1661, 72.38293
206.0946, 73.53638
208.0230, 74.22518
209.9515, 74.12743
211.8800, 73.32481
213.8084, 72.39436
215.7369, 71.16951
217.6654, 69.97696
219.5938, 69.11297
221.5223, 68.59776
223.4508, 68.20980
225.3792, 67.83630
227.3077, 67.45536
229.2362, 67.40498
231.1646, 67.70958
233.0931, 68.36741
235.0216, 69.19611
236.9500, 70.14639
238.8785, 71.35339
240.8070, 73.28234
242.7354, 75.61696
244.6639, 76.77690
246.5924, 76.08805
248.5208, 74.84408
250.4493, 73.70963
252.3778, 72.76031
254.3062, 71.73970
256.2347, 70.69409
258.1632, 69.75443
260.0916, 69.00446
262.0201, 68.52741
263.9486, 68.02926
265.8770, 67.46658
267.8055, 66.85268
269.7340, 66.22861
271.6624, 65.61596
273.5909, 64.91065
275.5194, 63.99281
277.4478, 62.59069
279.3763, 61.30387
281.3048, 60.27328
283.2332, 59.48158
285.1617, 58.99397
287.0902, 59.05598
289.0186, 59.29854
290.9471, 59.31808
292.8756, 58.99390
294.8040, 58.58088
296.7325, 58.13442
298.6610, 57.69305
300.5894, 57.37548
302.5179, 57.17690
304.4464, 56.91975
306.3748, 56.56355
308.3033, 56.11417
310.2318, 55.87077
312.1602, 55.92198
314.0887, 56.17059
316.0172, 56.28689
317.9456, 56.15261
319.8741, 56.01282
321.8026, 55.98676
323.7310, 56.07615
325.6595, 56.19880
327.5880, 56.35844
329.5164, 56.53688
331.4449, 56.68790
333.3734, 56.77898
335.3018, 56.85516
337.2303, 56.91396
339.1588, 56.95041
341.0872, 57.00316
343.0157, 57.25041
344.9442, 57.37705
346.8727, 57.12740
348.8011, 56.51073
350.7296, 56.02287
352.6581, 55.65718
354.5865, 55.36158
356.5150, 55.11509
358.4435, 54.89714
360.3719, 54.80618
362.3004, 55.00309
364.2289, 55.53270
366.1573, 55.95573
368.0858, 55.97182
370.0143, 55.73526
371.9427, 55.46387
373.8712, 55.31339
375.7997, 55.21997
377.7281, 55.15032
379.6566, 55.06698
381.5851, 54.83199
383.5135, 54.42158
385.4420, 54.09135
387.3705, 53.89364
389.2989, 53.69933
391.2274, 53.83769
393.1559, 54.76386
395.0843, 56.04573
397.0128, 56.98754
398.9413, 57.15003
400.8697, 57.55879
402.7982, 58.48882
404.7267, 59.80367
406.6551, 61.29865
408.5836, 63.06872
410.5121, 64.90270
412.4405, 66.70018
414.3690, 68.61770
416.2975, 70.54039
418.2259, 72.20391
420.1544, 73.60049
422.0829, 74.81470
424.0113, 76.15771
425.9398, 77.60921
427.8683, 79.15627
429.7967, 80.44096
431.7252, 81.27458
433.6537, 81.94724
435.5821, 82.48848
437.5106, 82.85049
439.4391, 82.71826
441.3675, 82.43089
443.2960, 81.93217
445.2245, 81.50149
447.1529, 81.34421
449.0814, 81.54103
451.0099, 81.68087
452.9383, 81.51468
454.8668, 81.28687
456.7953, 81.70707
458.7237, 82.94397
460.6522, 84.41200
462.5807, 85.84585
464.5091, 87.34889
466.4376, 88.89594
468.3661, 90.13323
470.2945, 91.34466
472.2230, 93.09890
474.1515, 95.91915
476.0799, 98.23856
478.0084, 99.50130
479.9369, 99.67908
481.8653, 99.42699
483.7938, 99.02345
485.7223, 98.12264
487.6507, 96.36919
489.5792, 94.02692
491.5077, 91.50642
493.4361, 88.78316
495.3646, 86.14005
497.2931, 83.78549
499.2215, 81.61940
501.1500, 79.35755
503.0785, 76.81300
505.0069, 74.44347
506.9354, 72.53032
508.8639, 70.93246
510.7923, 69.28818
512.7208, 67.37920
514.6493, 65.75130
516.5778, 64.78678
518.5062, 64.48672
520.4347, 64.32941
522.3632, 64.07087
524.2916, 63.94736
526.2201, 64.27563
528.1486, 64.84116
530.0770, 66.05241
532.0055, 68.25626
533.9340, 71.36931
535.8624, 74.91237
537.7909, 79.34687
539.7194, 83.70757
541.6478, 87.19263
543.5763, 89.75285
545.5048, 91.45385
547.4332, 91.72799
549.3617, 91.37556
551.2902, 91.19013
553.2186, 91.24474
555.1471, 91.26653
557.0756, 91.18652
559.0040, 91.21876
560.9325, 91.20129
562.8610, 90.96643
564.7894, 90.75426
566.7179, 90.74651
568.6464, 91.01321
570.5748, 91.49909
572.5033, 91.98205
574.4318, 92.93906
576.3602, 94.88192
578.2887, 97.82412
580.2172, 100.4023
582.1456, 102.7782
584.0741, 104.5006
586.0026, 104.9868
587.9310, 103.6276
589.8595, 101.6687
591.7880, 98.81343
593.7164, 95.65093
595.6449, 92.75972
597.5734, 89.97549
599.5018, 87.85210
601.4303, 86.54256
603.3588, 86.09066
605.2872, 86.14766
607.2157, 86.76853
609.1442, 87.64370
611.0726, 88.88293
613.0011, 90.51131
614.9296, 91.60564
616.8580, 92.07487
618.7865, 91.98258
620.7150, 91.34133
622.6434, 90.15971
624.5719, 88.61872
626.5004, 86.69300
628.4288, 84.43616
630.3573, 81.81789
632.2858, 78.42323
634.2142, 75.53901
636.1427, 73.26194
638.0712, 71.50467
639.9996, 70.22036
641.9281, 69.53584
643.8566, 68.84870
645.7850, 67.88596
647.7135, 66.79471
649.6420, 65.90442
651.5704, 65.43623
653.4989, 64.92471
655.4274, 64.15803
657.3558, 63.28796
659.2843, 62.72063
661.2128, 62.58545
663.1412, 62.62785
665.0697, 62.77518
666.9982, 63.03065
668.9266, 63.27972
670.8551, 63.69479
672.7836, 63.95402
674.7120, 63.71363
676.6405, 63.01007
678.5690, 62.57455
680.4974, 62.75381
682.4259, 63.12285
684.3544, 63.48523
686.2828, 63.83482
688.2113, 63.90768
690.1398, 63.38400
692.0682, 62.85176
693.9967, 62.68374
695.9252, 62.90829
697.8536, 63.08023
699.7821, 63.09262
701.7106, 63.06145
703.6390, 63.15091
705.5675, 63.48531
707.4960, 63.68417
709.4244, 63.48580
711.3529, 63.26133
713.2814, 63.32013
715.2098, 63.78246
717.1383, 64.15926
719.0668, 64.35884
720.9952, 64.55215
722.9237, 64.79423
724.8522, 64.97623
726.7806, 65.13866
728.7091, 65.40132
730.6376, 65.77578
732.5660, 66.06654
734.4945, 66.28319
736.4230, 66.33612
738.3514, 66.05396
740.2799, 65.52312
742.2084, 65.34578
744.1368, 65.68687
746.0653, 66.07953
747.9938, 66.23501
749.9222, 66.19528
751.8507, 66.22707
753.7792, 66.47932
755.7076, 66.73000
757.6361, 66.85075
759.5646, 66.84933
761.4930, 66.92915
763.4215, 67.16087
765.3500, 67.37306
767.2784, 67.36937
769.2069, 67.16365
771.1354, 67.14853
773.0638, 67.63166
774.9923, 68.16055
776.9208, 68.46833
778.8492, 68.65364
780.7777, 68.80825
782.7062, 68.89673
784.6346, 68.84631
786.5631, 68.64342
788.4916, 68.55025
790.4200, 68.66320
792.3485, 69.12010
794.2770, 69.35691
796.2054, 69.45692
798.1339, 69.60567
800.0624, 69.84863
801.9908, 70.24612
803.9193, 70.74613
805.8478, 71.14835
807.7762, 71.28687
809.7047, 71.34167
811.6332, 71.36708
813.5616, 71.46916
815.4901, 71.54933
817.4186, 71.49562
819.3470, 71.49442
821.2755, 71.63391
823.2040, 71.93344
825.1324, 72.35906
827.0609, 72.66068
828.9894, 72.68073
830.9178, 72.23683
832.8463, 71.91261
834.7748, 71.86064
836.7032, 72.24284
838.6317, 72.77348
840.5602, 73.35883
842.4886, 73.79736
844.4171, 74.15041
846.3456, 74.19263
848.2740, 74.18010
850.2025, 74.21057
852.1310, 74.39761
854.0594, 74.59643
855.9879, 74.89299
857.9164, 75.25937
859.8448, 75.71651
861.7733, 76.22918
863.7018, 76.71853
865.6302, 76.89573
867.5587, 76.82957
869.4872, 76.57858
871.4156, 76.68998
873.3441, 77.54980
875.2726, 78.45157
877.2010, 78.93000
879.1295, 79.77099
881.0580, 79.97986
882.9865, 81.11839
884.9149, 81.78807
886.8434, 82.38732
888.7719, 83.46817
890.7003, 85.44117
892.6288, 88.10280
894.5573, 89.97788
896.4857, 91.02399
898.4142, 92.35236
900.3427, 94.71558
902.2711, 97.92065
904.1996, 100.5120
906.1281, 102.6516
908.0565, 105.1003
909.9850, 108.1090
911.9135, 111.2710
913.8419, 114.2024
915.7704, 117.7520
917.6989, 122.1962
919.6273, 127.2555
921.5558, 132.5669
923.4843, 138.3369
925.4127, 145.9387
927.3412, 156.4632
929.2697, 170.3233
931.1981, 188.0291
933.1266, 211.4077
935.0551, 242.9910
936.9835, 278.9984
938.9120, 314.6869
940.8405, 347.3621
942.7689, 376.4091
944.6974, 399.8614
946.6259, 422.3718
948.5543, 451.3966
950.4828, 489.2749
952.4113, 535.8528
954.3397, 590.7428
956.2682, 644.2523
958.1967, 684.4977
960.1251, 707.2227
962.0536, 713.0486
963.9821, 708.3822
965.9105, 699.5060
967.8390, 696.7135
969.7675, 695.6862
971.6959, 692.0341
973.6244, 676.9673
975.5529, 645.5056
977.4813, 591.9396
979.4098, 523.8480
981.3383, 447.6830
983.2667, 379.4678
985.1952, 322.0100
987.1237, 276.8108
989.0521, 243.4176
990.9806, 219.0403
992.9091, 199.4057
994.8375, 183.8871
996.7660, 172.1851
998.6945, 163.3874
1000.623, 157.1461
1002.551, 152.5612
1004.480, 149.8704
1006.408, 147.6805
1008.337, 145.7183
1010.265, 143.5305
1012.194, 140.5835
1014.122, 136.8260
1016.051, 133.0281
1017.979, 129.4495
1019.908, 126.2735
1021.836, 124.2246
1023.765, 123.4829
1025.693, 123.7322
1027.621, 124.8327
1029.550, 126.6593
1031.478, 129.0906
1033.407, 132.0120
1035.335, 135.0130
1037.264, 138.4348
1039.192, 141.1868
1041.121, 142.3830
1043.049, 142.7382
1044.978, 142.3788
1046.906, 140.9536
1048.835, 137.9211
1050.763, 133.7072
1052.692, 129.2828
1054.620, 125.3818
1056.548, 122.0565
1058.477, 119.7972
1060.405, 118.8323
1062.334, 118.3554
1064.262, 118.0187
1066.191, 117.6554
1068.119, 116.9545
1070.048, 115.5833
1071.976, 114.7296
1073.905, 115.1318
1075.833, 116.0361
1077.762, 116.2606
1079.690, 115.4093
1081.619, 114.8805
1083.547, 115.0290
1085.475, 115.3001
1087.404, 115.2197
1089.332, 114.6222
1091.261, 114.2898
1093.189, 114.6550
1095.118, 115.0690
1097.046, 114.7402
1098.975, 113.8099
1100.903, 113.0128
1102.832, 112.4190
1104.760, 111.8483
1106.689, 111.4279
1108.617, 111.3049
1110.546, 111.4003
1112.474, 111.8534
1114.402, 112.1287
1116.331, 111.9027
1118.259, 111.8055
1120.188, 112.5915
1122.116, 114.4150
1124.045, 115.1354
1125.973, 113.5821
1127.902, 112.0227
1129.830, 112.0771
1131.759, 113.2465
1133.687, 113.3014
1135.616, 111.5777
1137.544, 109.6512
1139.473, 108.1090
1141.401, 106.5210
1143.329, 104.5807
1145.258, 101.8250
1147.186, 99.66099
1149.115, 98.43154
1151.043, 97.61738
1152.972, 96.57690
1154.900, 95.11869
1156.829, 94.06752
1158.757, 93.66748
1160.686, 93.51174
1162.614, 93.33425
1164.543, 93.00910
1166.471, 92.87827
1168.400, 93.29192
1170.328, 93.38854
1172.256, 92.45168
1174.185, 91.23294
1176.113, 90.56223
1178.042, 90.50911
1179.970, 90.52321
1181.899, 90.69643
1183.827, 90.81493
1185.756, 90.66746
1187.684, 90.38017
1189.613, 90.30818
1191.541, 90.54292
1193.470, 90.73625
1195.398, 90.65276
1197.327, 90.61481
1199.255, 90.97729
1201.183, 91.75443
1203.112, 92.36272
1205.040, 92.73814
1206.969, 92.88363
1208.897, 92.65121
1210.826, 92.17870
1212.754, 91.88503
1214.683, 92.03856
1216.611, 92.01092
1218.540, 91.65170
1220.468, 91.23499
1222.397, 90.96471
1224.325, 90.85011
1226.254, 90.87547
1228.182, 91.09148
1230.110, 91.38323
1232.039, 91.72855
1233.967, 92.04585
1235.896, 92.28289
1237.824, 92.44347
1239.753, 92.53472
1241.681, 92.52604
1243.610, 92.43494
1245.538, 92.27429
1247.467, 92.06071
1249.395, 91.95346
1251.324, 92.24525
1253.252, 92.28157
1255.181, 91.61195
1257.109, 90.81735
1259.037, 90.68380
1260.966, 91.21953
1262.894, 91.63319
1264.823, 91.92892
1266.751, 91.97447
1268.680, 91.96973
1270.608, 91.62066
1272.537, 91.19798
1274.465, 90.60033
1276.394, 90.43039
1278.322, 91.37019
1280.251, 92.33430
1282.179, 92.54701
1284.108, 91.79723
1286.036, 91.29238
1287.964, 91.36790
1289.893, 91.46227
1291.821, 91.29981
1293.750, 91.04344
1295.678, 91.06087
1297.607, 91.49104
1299.535, 91.88604
1301.464, 92.15305
1303.392, 92.34521
1305.321, 92.56374
1307.249, 92.85760
1309.178, 92.93488
1311.106, 92.59182
1313.035, 92.37564
1314.963, 92.62351
1316.891, 92.98240
1318.820, 93.09160
1320.748, 93.06165
1322.677, 93.16026
1324.605, 93.39518
1326.534, 93.48377
1328.462, 93.17912
1330.391, 92.87579
1332.319, 93.08522
1334.248, 94.06165
1336.176, 94.41637
1338.105, 93.82104
1340.033, 93.39211
1341.962, 93.40677
1343.890, 93.61258
1345.818, 94.07272
1347.747, 94.96397
1349.675, 95.47297
1351.604, 95.40889
1353.532, 95.28732
1355.461, 95.28410
1357.389, 95.07058
1359.318, 94.70042
1361.246, 94.34708
1363.175, 94.18604
1365.103, 94.30850
1367.032, 94.46378
1368.960, 94.61163
1370.889, 94.73127
1372.817, 94.59528
1374.745, 94.11317
1376.674, 93.97226
1378.602, 94.24406
1380.531, 94.61523
1382.459, 95.09781
1384.388, 95.83483
1386.316, 96.16663
1388.245, 95.68251
1390.173, 95.35882
1392.102, 95.45747
1394.030, 95.70979
1395.959, 95.90392
1397.887, 95.90340
1399.816, 95.68315
1401.744, 95.28279
1403.672, 95.09926
1405.601, 95.30864
1407.529, 95.58548
1409.458, 95.64674
1411.386, 95.51114
1413.315, 95.53894
1415.243, 95.93472
1417.172, 96.30944
1419.100, 96.34319
1421.029, 96.25984
1422.957, 96.41502
1424.886, 96.94547
1426.814, 97.39727
1428.743, 97.47182
1430.671, 97.57735
1432.599, 98.03758
1434.528, 98.47044
1436.456, 98.29427
1438.385, 97.44875
1440.313, 97.46172
1442.242, 98.61996
1444.170, 99.44153
1446.099, 99.85719
1448.027, 100.1857
1449.956, 100.4573
1451.884, 100.3212
1453.813, 100.0371
1455.741, 99.80221
1457.670, 99.45387
1459.598, 98.57819
1461.526, 97.66209
1463.455, 97.48734
1465.383, 98.24535
1467.312, 98.87466
1469.240, 99.07932
1471.169, 99.22255
1473.097, 99.48074
1475.026, 99.75996
1476.954, 99.95564
1478.883, 100.0387
1480.811, 99.92707
1482.740, 99.47457
1484.668, 99.20403
1486.597, 99.53733
1488.525, 99.97627
1490.453, 100.0901
1492.382, 99.97066
1494.310, 99.98010
1496.239, 100.0622
1498.167, 100.1738
1500.096, 100.3099
1502.024, 100.4369
1503.953, 100.6026
1505.881, 100.8218
1507.810, 100.9087
1509.738, 100.6776
1511.667, 100.5934
1513.595, 101.1798
1515.524, 101.6401
1517.452, 101.2998
1519.380, 100.3931
1521.309, 99.86391
1523.237, 99.87331
1525.166, 100.3271
1527.094, 101.3685
1529.023, 102.1208
1530.951, 102.2293
1532.880, 101.9383
1534.808, 101.5729
1536.737, 100.9542
1538.665, 101.1799
1540.594, 103.1338
1542.522, 104.5599
1544.451, 104.5697
1546.379, 104.0090
1548.307, 103.8229
1550.236, 104.0159
1552.164, 104.0540
1554.093, 103.6781
1556.021, 103.5333
1557.950, 104.1148
1559.878, 104.7144
1561.807, 104.6964
1563.735, 104.1781
1565.664, 103.7561
1567.592, 103.4589
1569.521, 103.4087
1571.449, 103.7649
1573.378, 103.9936
1575.306, 103.7564
1577.234, 103.3702
1579.163, 103.4146
1581.091, 103.9261
1583.020, 104.2086
1584.948, 103.9779
1586.877, 103.7337
1588.805, 103.7208
1590.734, 103.8547
1592.662, 104.0376
1594.591, 104.2898
1596.519, 104.7309
1598.448, 105.4735
1600.376, 105.9451
1602.305, 105.7770
1604.233, 105.5279
1606.161, 105.5674
1608.090, 105.7898
1610.018, 105.8967
1611.947, 105.8482
1613.875, 105.8259
1615.804, 105.9725
1617.732, 106.0813
1619.661, 105.9555
1621.589, 105.8108
1623.518, 105.9499
1625.446, 106.3395
1627.375, 106.4693
1629.303, 106.1563
1631.232, 105.9930
1633.160, 106.2345
1635.089, 106.4714
1637.017, 106.3018
1638.945, 106.0233
1640.874, 106.4625
1642.802, 107.8064
1644.731, 108.5805
1646.659, 108.4596
1648.588, 108.1353
1650.516, 107.6050
1652.445, 107.1480
1654.373, 106.9888
1656.302, 107.1086
1658.230, 107.4511
1660.159, 108.1842
1662.087, 108.6259
1664.016, 108.4615
1665.944, 108.2476
1667.872, 108.1423
1669.801, 108.1298
1671.729, 108.2733
1673.658, 108.6209
1675.586, 108.5360
1677.515, 107.6006
1679.443, 107.0632
1681.372, 107.2679
1683.300, 107.7461
1685.229, 108.3831
1687.157, 109.0638
1689.086, 109.5347
1691.014, 109.7482
1692.943, 109.9186
1694.871, 109.9303
1696.799, 110.0676
1698.728, 110.7030
1700.656, 111.1809
1702.585, 110.8108
1704.513, 109.9333
1706.442, 109.7066
1708.370, 110.3974
1710.299, 110.7822
1712.227, 110.6166
1714.156, 110.3823
1716.084, 109.9444
1718.013, 109.6900
1719.941, 110.2935
1721.870, 109.6832
1723.798, 111.3190
1725.726, 109.3880
1727.655, 108.2742
1729.583, 108.6084
1731.512, 109.2334
1733.440, 110.1412
1735.369, 110.9446
1737.297, 111.2370
1739.226, 111.0988
1741.154, 109.6877
1743.083, 111.4426
1745.011, 112.4694
1746.940, 112.8073
1748.868, 110.3927
1750.797, 111.5323
1752.725, 111.2476
1754.653, 110.9044
1756.582, 112.5443
1758.510, 110.5300
1760.439, 112.1385
1762.367, 112.3008
1764.296, 113.1250
1766.224, 112.5160
1768.153, 112.3497
1770.081, 113.6170
1772.010, 114.0905
1773.938, 113.3165
1775.867, 114.1827
1777.795, 112.1184
1779.724, 112.6257
1781.652, 114.2425
1783.580, 113.5406
1785.509, 114.4331
1787.437, 113.1453
1789.366, 112.7121
1791.294, 112.0921
1793.223, 112.0812
1795.151, 112.7029
1797.080, 112.9011
1799.008, 112.3078
1800.937, 112.0157
1802.865, 112.7330
1804.794, 113.4126
1806.722, 113.3557
1808.651, 112.8692
1810.579, 112.1891
1812.507, 111.3897
1814.436, 111.3070
1816.364, 112.2244
1818.293, 112.9318
1820.221, 113.0359
1822.150, 113.0075
1824.078, 112.8376
1826.007, 112.8386
1827.935, 113.6730
1829.864, 115.0285
1831.792, 115.5043
1833.721, 114.9187
1835.649, 114.4419
1837.578, 114.1264
1839.506, 114.1010
1841.434, 114.6937
1843.363, 115.2955
1845.291, 115.4437
1847.220, 115.2397
1849.148, 114.7831
1851.077, 113.9824
1853.005, 113.8638
1854.934, 115.1885
1856.862, 115.8689
1858.791, 114.9560
1860.719, 114.2069
1862.648, 114.6333
1864.576, 115.5258
1866.505, 116.1796
1868.433, 116.5683
1870.361, 116.4353
1872.290, 115.3112
1874.218, 114.8118
1876.147, 115.2762
1878.075, 115.8855
1880.004, 117.0608
1881.932, 117.7211
1883.861, 116.5020
1885.789, 114.6322
1887.718, 114.5261
1889.646, 116.1690
1891.575, 116.6737
1893.503, 115.5303
1895.432, 114.9185
1897.360, 115.5557
1899.288, 116.1113
1901.217, 115.8903
1903.145, 115.6354
1905.074, 116.1419
1907.002, 116.9375
1908.931, 116.8169
1910.859, 115.8682
1912.788, 115.6307
1914.716, 116.3712
1916.645, 117.1296
1918.573, 117.8772
1920.502, 118.2495
1922.430, 117.7458
1924.359, 117.0970
1926.287, 116.8552
1928.215, 117.0040
1930.144, 117.6461
1932.072, 118.8203
1934.001, 119.5742
1935.929, 119.9368
1937.858, 119.7685
1939.786, 118.3458
1941.715, 117.3202
1943.643, 117.6361
1945.572, 118.2963
1947.500, 118.4635
1949.429, 118.2863
1951.357, 118.1152
1953.286, 117.9445
1955.214, 117.7833
1957.143, 117.5777
1959.071, 117.5004
1961.000, 117.3551
1962.928, 117.6696
1964.856, 119.4601
1966.785, 120.8920
1968.713, 120.2634
1970.642, 118.5995
1972.570, 117.6695
1974.499, 117.4129
1976.427, 117.4492
1978.356, 117.7886
1980.284, 118.1786
1982.213, 118.5853
1984.141, 119.0020
1986.070, 119.5942
1987.998, 119.9861
1989.927, 119.8133
1991.855, 119.4045
1993.783, 119.0616
1995.712, 118.8391
1997.640, 119.0433
1999.569, 119.8006
2001.497, 120.3793
2003.426, 120.9438
2005.354, 121.0634
2007.283, 120.3558
2009.211, 119.6459
2011.140, 118.9822
2013.068, 118.6915
2014.997, 119.4243
2016.925, 120.5725
2018.854, 120.7925
2020.782, 120.1429
2022.710, 119.7424
2024.639, 119.6214
2026.567, 119.7258
2028.496, 120.1530
2030.424, 120.5322
2032.353, 120.8092
2034.281, 120.9110
2036.210, 120.4598
2038.138, 120.0957
2040.067, 120.7870
2041.995, 121.9712
2043.924, 122.2112
2045.852, 121.5169
2047.781, 120.9060
2049.709, 120.2760
2051.637, 120.0428
2053.566, 120.6228
2055.494, 121.0112
2057.423, 120.7497
2059.351, 120.5533
2061.280, 121.0068
2063.208, 121.5656
2065.137, 121.6032
2067.065, 121.2976
2068.994, 121.1678
2070.922, 121.1964
2072.851, 120.8270
2074.779, 119.8496
2076.708, 119.6427
2078.636, 120.7864
2080.564, 121.6595
2082.493, 121.5825
2084.421, 121.3226
2086.350, 121.0854
2088.278, 121.0657
2090.207, 121.6847
2092.135, 122.5755
2094.064, 122.9698
2095.992, 122.9035
2097.921, 122.7871
2099.849, 122.5688
2101.778, 122.4083
2103.706, 122.1806
2105.635, 122.1946
2107.563, 122.7935
2109.491, 123.2084
2111.420, 123.2682
2113.348, 123.0175
2115.277, 122.1615
2117.205, 121.2727
2119.134, 121.1877
2121.062, 121.6353
2122.991, 121.8599
2124.919, 121.8541
2126.848, 121.9280
2128.776, 122.1148
2130.705, 122.2495
2132.633, 121.9561
2134.562, 122.1555
2136.490, 123.7802
2138.418, 124.9238
2140.347, 124.4076
2142.275, 123.4699
2144.204, 122.8829
2146.132, 122.6710
2148.061, 123.0982
2149.989, 123.9484
2151.918, 124.2099
2153.846, 123.8992
2155.775, 123.5025
2157.703, 122.9788
2159.632, 122.8550
2161.560, 123.3864
2163.489, 123.8651
2165.417, 124.1760
2167.345, 124.2551
2169.274, 123.8612
2171.202, 123.4660
2173.131, 123.6056
2175.059, 123.8431
2176.988, 123.4224
2178.916, 122.6375
2180.845, 122.4285
2182.773, 121.4508
2184.702, 123.2070
2186.630, 124.2343
2188.559, 124.5719
2190.487, 122.1563
2192.416, 123.2941
2194.344, 123.0067
2196.272, 122.6602
2198.201, 124.2959
2200.129, 122.2767
2202.058, 123.8795
2203.986, 124.0353
2205.915, 124.8523
2207.843, 124.2352
2209.772, 124.0601
2211.700, 125.3178
2213.629, 125.7809
2215.557, 124.9958
2217.486, 125.8502
2219.414, 123.7732
2221.343, 124.2670
2223.271, 125.8696
2225.199, 125.1527
2227.128, 126.0293
2229.056, 126.2980
2230.985, 123.8064
2232.913, 126.1131
2234.842, 126.3435
2236.770, 124.4422
2238.699, 126.5821
2240.627, 124.9730
2242.556, 124.7010
2244.484, 125.4351
2246.413, 125.1188
2248.341, 126.4566
2250.270, 126.1994
2252.198, 125.7989
2254.126, 126.0193
2256.055, 124.4775
2257.983, 126.2027
2259.912, 125.6950
2261.840, 126.2960
2263.769, 127.1478
2265.697, 126.0731
2267.626, 127.0363
2269.554, 124.8372
2271.483, 125.2827
2273.411, 125.4425
2275.340, 127.2926
2277.268, 125.1057
2279.197, 125.4746
2281.125, 126.9313
2283.053, 126.8641
2284.982, 127.4329
2286.910, 126.1157
2288.839, 126.5688
2290.767, 126.5329
2292.696, 128.1832
2294.624, 128.5009
2296.553, 127.2119
2298.481, 125.9288
2300.410, 127.6974
2302.338, 126.5721
2304.267, 127.0068
2306.195, 125.8288
2308.124, 126.0418
2310.052, 126.2320
2311.980, 127.1348
2313.909, 125.8735
2315.837, 127.4177
2317.766, 127.3392
2319.694, 127.7376
2321.623, 128.0822
2323.551, 126.2493
2325.480, 126.2000
2327.408, 128.7030
2329.337, 127.3117
2331.265, 126.7054
2333.194, 126.6570
2335.122, 129.2443
2337.051, 129.3802
2338.979, 126.5862
2340.907, 129.0550
2342.836, 128.2847
2344.764, 128.4760
2346.693, 128.3154
2348.621, 128.2580
2350.550, 126.8778
2352.478, 127.2390
2354.407, 129.0159
2356.335, 128.3771
2358.264, 129.3784
2360.192, 127.3885
2362.121, 127.1729
2364.049, 127.4277
2365.978, 127.8536
2367.906, 126.9056
2369.834, 128.7028
2371.763, 128.6709
2373.691, 127.0538
2375.620, 127.1547
2377.548, 126.9695
2379.477, 129.7543
2381.405, 128.4538
2383.334, 126.8632
2385.262, 128.5100
2387.191, 129.1181
2389.119, 128.3223
2391.048, 128.2713
2392.976, 126.8051
2394.905, 127.5072
2396.833, 127.4626
2398.761, 128.6464
2400.690, 127.1827
2402.618, 128.7652
2404.547, 127.3709
2406.475, 129.0752
2408.404, 127.6165
2410.332, 128.9739
2412.261, 126.9682
2414.189, 128.6103
2416.118, 128.5781
2418.046, 128.4110
2419.975, 128.4738
2421.903, 128.4107
2423.832, 128.2954
2425.760, 128.3822
2427.688, 128.1834
2429.617, 128.1343
2431.545, 128.3047
2433.474, 128.8012
2435.402, 129.1951
2437.331, 129.4977
2439.259, 129.6181
2441.188, 129.5281
2443.116, 129.3072
2445.045, 128.7436
2446.973, 128.5584
2448.902, 129.4353
2450.830, 129.9529
2452.759, 128.9763
2454.687, 128.0419
2456.615, 128.0092
2458.544, 128.3359
2460.472, 128.9633
2462.401, 129.4248
2464.329, 129.0578
2466.258, 128.5060
2468.186, 128.5603
2470.115, 128.8930
2472.043, 129.0553
2473.972, 129.1046
2475.900, 129.0737
2477.829, 129.0416
2479.757, 129.4281
2481.686, 129.4776
2483.614, 130.2685
2485.542, 129.9524
2487.471, 129.9591
2489.399, 130.2776
2491.328, 130.0226
2493.256, 130.1781
2495.185, 130.3982
2497.113, 130.0856
2499.042, 130.6417
2500.970, 130.3283
2502.899, 129.8921
2504.827, 129.1559
2506.756, 129.0783
2508.684, 130.1275
2510.613, 130.7368
2512.541, 130.2884
2514.469, 129.9139
2516.398, 130.0257
2518.326, 130.1164
2520.255, 130.1681
2522.183, 129.9867
2524.112, 129.0845
2526.040, 128.5961
2527.969, 129.4328
2529.897, 130.1596
2531.826, 129.7284
2533.754, 129.1942
2535.683, 129.2204
2537.611, 129.4884
2539.540, 130.0648
2541.468, 130.4179
2543.396, 129.6804
2545.325, 128.7996
2547.253, 128.8857
2549.182, 128.4402
2551.110, 129.0192
2553.039, 128.6534
2554.967, 129.2812
2556.896, 129.2306
2558.824, 130.1279
2560.753, 129.4260
2562.681, 129.3232
2564.610, 129.6469
2566.538, 130.0144
2568.467, 130.3629
2570.395, 130.5380
2572.323, 130.5195
2574.252, 130.1566
2576.180, 130.1560
2578.109, 129.3498
2580.037, 129.6517
2581.966, 129.5105
2583.894, 128.9975
2585.823, 129.1622
2587.751, 130.1054
2589.680, 130.7807
2591.608, 131.1786
2593.537, 131.1333
2595.465, 130.4685
2597.394, 130.8320
2599.322, 132.4160
2601.250, 132.9397
2603.179, 131.9715
2605.107, 131.4734
2607.036, 131.9223
2608.964, 132.1148
2610.893, 131.9330
2612.821, 131.7456
2614.750, 131.4742
2616.678, 131.7923
2618.607, 133.0448
2620.535, 133.7590
2622.464, 133.5442
2624.392, 133.0186
2626.321, 131.6082
2628.249, 131.1759
2630.177, 132.4197
2632.106, 133.1502
2634.034, 132.8455
2635.963, 132.4533
2637.891, 132.2408
2639.820, 131.9330
2641.748, 132.0478
2643.677, 130.7773
2645.605, 132.3028
2647.534, 133.3272
2649.462, 133.2971
2651.391, 132.9125
2653.319, 132.1687
2655.248, 131.5315
2657.176, 130.7722
2659.104, 130.7403
2661.033, 132.4199
2662.961, 133.6655
2664.890, 134.0373
2666.818, 133.7514
2668.747, 132.3611
2670.675, 131.3645
2672.604, 131.5299
2674.532, 131.8781
2676.461, 132.2839
2678.389, 132.4471
2680.318, 131.9785
2682.246, 131.8195
2684.175, 132.5231
2686.103, 133.2066
2688.031, 133.9370
2689.960, 133.9172
2691.888, 131.9881
2693.817, 130.6589
2695.745, 130.9073
2697.674, 131.5691
2699.602, 132.5891
2701.531, 133.2227
2703.459, 132.8239
2705.388, 132.4791
2707.316, 132.5945
2709.245, 132.8124
2711.173, 133.0255
2713.102, 133.2921
2715.030, 133.7779
2716.958, 134.0334
2718.887, 133.6427
2720.815, 133.3627
2722.744, 133.9158
2724.672, 133.8221
2726.601, 132.0353
2728.529, 131.0177
2730.458, 131.9837
2732.386, 133.1147
2734.315, 134.1683
2736.243, 134.6056
2738.172, 133.6229
2740.100, 133.1187
2742.029, 133.7840
2743.957, 134.2221
2745.885, 134.0313
2747.814, 133.5600
2749.742, 132.4562
2751.671, 131.9283
2753.599, 132.3892
2755.528, 133.0213
2757.456, 133.8085
2759.385, 134.2716
2761.313, 134.0086
2763.242, 134.0583
2765.170, 135.1320
2767.099, 135.4951
2769.027, 134.7343
2770.956, 134.1195
2772.884, 133.7707
2774.813, 133.9675
2776.741, 135.1920
2778.669, 135.7147
2780.598, 135.1129
2782.526, 134.5818
2784.455, 134.1314
2786.383, 134.0948
2788.312, 133.9096
2790.240, 133.8377
2792.169, 134.1247
2794.097, 134.0146
2796.026, 134.4490
2797.954, 134.9238
2799.883, 135.4288
2801.811, 134.8721
2803.740, 135.6690
2805.668, 135.9456
2807.596, 135.9949
2809.525, 136.6502
2811.453, 135.5964
2813.382, 135.0575
2815.310, 134.9466
2817.239, 134.4435
2819.167, 133.6489
2821.096, 133.1290
2823.024, 132.8674
2824.953, 132.7444
2826.881, 132.8324
2828.810, 133.6111
2830.738, 134.6346
2832.667, 134.9224
2834.595, 134.7041
2836.523, 134.3100
2838.452, 133.8657
2840.380, 133.2969
2842.309, 133.1012
2844.237, 134.3371
2846.166, 135.8169
2848.094, 136.2391
2850.023, 136.0714
2851.951, 135.4816
2853.880, 134.8825
2855.808, 134.4960
2857.737, 134.3539
2859.665, 134.5784
2861.594, 134.9341
2863.522, 135.2818
2865.450, 135.7465
2867.379, 136.6316
2869.307, 137.1403
2871.236, 136.6030
2873.164, 136.1324
2875.093, 136.1004
2877.021, 136.1394
2878.950, 136.1776
2880.878, 136.3015
2882.807, 136.5808
2884.735, 136.8007
2886.664, 136.6252
2888.592, 137.1923
2890.521, 136.9301
2892.449, 136.6089
2894.377, 136.9590
2896.306, 136.0416
2898.234, 136.6089
2900.163, 137.3105
2902.091, 138.1759
2904.020, 137.5750
2905.948, 138.3689
2907.877, 138.4620
2909.805, 138.4963
2911.734, 138.7082
2913.662, 137.7658
2915.591, 137.4265
2917.519, 137.5054
2919.448, 137.9159
2921.376, 138.2220
2923.304, 137.2909
2925.233, 136.4583
2927.161, 138.0110
2929.090, 139.5776
2931.018, 138.9382
2932.947, 137.9055
2934.875, 137.1861
2936.804, 137.2400
2938.732, 139.0926
2940.661, 140.5226
2942.589, 140.7974
2944.518, 140.5107
2946.446, 139.1382
2948.375, 138.7355
2950.303, 140.4945
2952.231, 141.3417
2954.160, 140.9249
2956.088, 140.0859
2958.017, 138.7681
2959.945, 138.2452
2961.874, 137.6179
2963.802, 137.3229
2965.731, 137.2541
2967.659, 137.2386
2969.588, 137.2640
2971.516, 138.0654
2973.445, 137.6308
2975.373, 137.8479
2977.302, 138.2563
2979.230, 137.8116
2981.158, 137.8513
2983.087, 137.1632
2985.015, 137.2193
2986.944, 136.4697
2988.872, 135.8675
2990.801, 136.2441
2992.729, 136.5529
2994.658, 136.0957
2996.586, 135.7059
2998.515, 135.6912
3000.443, 135.6612
3002.372, 135.4596
3004.300, 135.5752
3006.229, 135.4817
3008.157, 135.2344
3010.085, 135.4916
3012.014, 134.9946
3013.942, 135.0642
3015.871, 135.5934
3017.799, 136.3891
3019.728, 136.0686
3021.656, 134.9634
3023.585, 133.8563
3025.513, 133.1624
3027.442, 133.9677
3029.370, 135.0884
3031.299, 134.6736
3033.227, 134.2915
3035.156, 135.7870
3037.084, 136.9637
3039.012, 136.2352
3040.941, 135.3797
3042.869, 135.1369
3044.798, 134.8536
3046.726, 134.2642
3048.655, 134.3205
3050.583, 133.8435
3052.512, 133.8831
3054.440, 133.9352
3056.369, 133.9862
3058.297, 134.2452
3060.226, 134.4769
3062.154, 134.8724
3064.083, 134.8313
3066.011, 135.2222
3067.939, 134.7447
3069.868, 134.0645
3071.796, 133.9548
3073.725, 134.1847
3075.653, 135.0094
3077.582, 135.3853
3079.510, 134.3005
3081.439, 133.6924
3083.367, 134.9505
3085.296, 135.7337
3087.224, 135.4086
3089.153, 135.0814
3091.081, 134.8197
3093.010, 134.8433
3094.938, 135.1930
3096.866, 135.3852
3098.795, 135.4316
3100.723, 135.4881
3102.652, 135.4631
3104.580, 135.0738
3106.509, 134.5399
3108.437, 134.0590
3110.366, 133.7818
3112.294, 133.8932
3114.223, 134.1437
3116.151, 134.7420
3118.080, 134.8139
3120.008, 133.8109
3121.937, 133.0201
3123.865, 132.6365
3125.793, 132.8004
3127.722, 133.7717
3129.650, 134.0350
3131.579, 133.6456
3133.507, 133.3017
3135.436, 133.0282
3137.364, 132.8654
3139.293, 132.7657
3141.221, 132.5654
3143.150, 132.4778
3145.078, 132.7686
3147.007, 133.1502
3148.935, 133.5218
3150.864, 133.7509
3152.792, 133.8253
3154.720, 133.6174
3156.649, 132.8507
3158.577, 132.6004
3160.506, 133.0032
3162.434, 133.2790
3164.363, 133.3880
3166.291, 133.0079
3168.220, 132.4486
3170.148, 132.9001
3172.077, 132.4137
3174.005, 132.9533
3175.934, 132.2399
3177.862, 132.4088
3179.791, 132.6747
3181.719, 132.4834
3183.647, 132.8492
3185.576, 132.8587
3187.504, 132.9294
3189.433, 133.3897
3191.361, 133.1102
3193.290, 134.1012
3195.218, 134.2815
3197.147, 133.8672
3199.075, 133.8622
3201.004, 133.9395
3202.932, 133.5755
3204.861, 132.9896
3206.789, 131.8728
3208.718, 131.3976
3210.646, 132.5451
3212.574, 133.5110
3214.503, 133.8831
3216.431, 133.7370
3218.360, 134.0612
3220.288, 134.1184
3222.217, 133.8874
3224.145, 134.2527
3226.074, 134.1366
3228.002, 134.1133
3229.931, 133.9612
3231.859, 133.0910
3233.788, 132.3519
3235.716, 132.5975
3237.645, 132.6774
3239.573, 132.0097
3241.501, 131.5579
3243.430, 131.4938
3245.358, 131.6645
3247.287, 132.0770
3249.215, 132.0670
3251.144, 132.4937
3253.072, 132.3512
3255.001, 133.1422
3256.929, 133.7743
3258.858, 133.9996
3260.786, 133.3671
3262.715, 132.7943
3264.643, 132.6834
3266.572, 132.8318
3268.500, 133.2652
3270.428, 133.6503
3272.357, 133.9537
3274.285, 132.8810
3276.214, 130.9450
3278.142, 130.9583
3280.071, 131.9201
3281.999, 132.4634
3283.928, 132.8008
3285.856, 133.3385
3287.785, 133.3038
3289.713, 132.0181
3291.642, 131.2601
3293.570, 131.6488
3295.499, 132.0177
3297.427, 132.3189
3299.355, 132.1048
3301.284, 131.5613
3303.212, 131.1646
3305.141, 131.0184
3307.069, 131.4267
3308.998, 131.8956
3310.926, 132.4438
3312.855, 132.2291
3314.783, 130.6715
3316.712, 130.1394
3318.640, 131.2372
3320.569, 132.2090
3322.497, 132.9310
3324.426, 132.1440
3326.354, 130.7772
3328.282, 130.2576
3330.211, 130.5137
3332.139, 132.2467
3334.068, 133.3850
3335.996, 132.8598
3337.925, 131.9469
3339.853, 130.6266
3341.782, 130.3747
3343.710, 131.1906
3345.639, 132.5462
3347.567, 133.7825
3349.496, 132.7189
3351.424, 131.0838
3353.353, 130.3656
3355.281, 130.2185
3357.209, 131.1373
3359.138, 130.9539
3361.066, 131.2747
3362.995, 131.2138
3364.923, 131.2173
3366.852, 131.3107
3368.780, 130.3261
3370.709, 131.4866
3372.637, 132.8938
3374.566, 132.1935
3376.494, 131.1843
3378.423, 130.4261
3380.351, 130.2626
3382.280, 131.0650
3384.208, 131.4960
3386.136, 131.5380
3388.065, 131.2585
3389.993, 130.8250
3391.922, 130.3359
3393.850, 130.2853
3395.779, 131.5473
3397.707, 132.5713
3399.636, 132.5682
3401.564, 132.2669
3403.493, 131.7080
3405.421, 131.5037
3407.350, 131.6133
3409.278, 131.4280
3411.207, 131.1962
3413.135, 131.4812
3415.063, 131.6948
3416.992, 131.2671
3418.920, 130.8042
3420.849, 130.3699
3422.777, 130.4531
3424.706, 131.2253
3426.634, 130.7129
3428.563, 129.5914
3430.491, 129.8402
3432.420, 130.8020
3434.348, 132.3012
3436.277, 133.1621
3438.205, 132.7669
3440.134, 131.7598
3442.062, 130.0106
3443.990, 129.2886
3445.919, 129.5412
3447.847, 130.2741
3449.776, 130.9664
3451.704, 130.5456
3453.633, 129.8653
3455.561, 129.4023
3457.490, 128.9931
3459.418, 128.5633
3461.347, 128.3857
3463.275, 128.5152
3465.204, 129.2121
3467.132, 130.1397
3469.061, 130.6415
3470.989, 130.6538
3472.917, 129.5105
3474.846, 129.0226
3476.774, 129.8924
3478.703, 130.3088
3480.631, 129.9705
3482.560, 129.4588
3484.488, 129.0035
3486.417, 129.5258
3488.345, 130.1853
3490.274, 130.3528
3492.202, 129.9631
3494.131, 128.6565
3496.059, 128.3529
3497.988, 129.4536
3499.916, 130.0649
3501.844, 130.1951
3503.773, 129.7027
3505.701, 129.1935
3507.630, 129.4531
3509.558, 129.7301
3511.487, 129.7874
3513.415, 129.7081
3515.344, 129.4945
3517.272, 130.2952
3519.201, 131.5046
3521.129, 131.4411
3523.058, 130.7911
3524.986, 129.8310
3526.915, 129.3268
3528.843, 129.8374
3530.771, 130.3828
3532.700, 130.8896
3534.628, 130.9349
3536.557, 130.6530
3538.485, 130.2804
3540.414, 129.8564
3542.342, 129.0937
3544.271, 129.0192
3546.199, 130.0887
3548.128, 131.0329
3550.056, 131.6356
3551.985, 130.5701
3553.913, 131.2331
3555.842, 130.1060
3557.770, 131.0823
3559.698, 130.1143
3561.627, 129.8983
3563.555, 130.9274
3565.484, 131.0901
3567.412, 130.4841
3569.341, 129.8868
3571.269, 129.5997
3573.198, 130.2529
3575.126, 130.7631
3577.055, 130.7971
3578.983, 130.1280
3580.912, 128.7153
3582.840, 128.0517
3584.769, 128.0851
3586.697, 128.9750
3588.625, 129.9241
3590.554, 130.1849
3592.482, 130.6100
3594.411, 131.4355
3596.339, 131.7763
3598.268, 131.6008
3600.196, 130.4710
3602.125, 129.5642
3604.053, 131.0063
3605.982, 131.9053
3607.910, 130.8957
3609.839, 130.2314
3611.767, 130.2661
3613.696, 130.5864
3615.624, 130.8932
3617.552, 130.3137
3619.481, 129.7999
3621.409, 130.1835
3623.338, 130.5661
3625.266, 130.8319
3627.195, 130.5760
3629.123, 129.8765
3631.052, 128.5775
3632.980, 127.7671
3634.909, 127.7645
3636.837, 127.7774
3638.766, 128.7428
3640.694, 129.0312
3642.623, 131.0173
3644.551, 131.9683
3646.479, 131.9501
3648.408, 130.1284
3650.336, 129.2409
3652.265, 130.7269
3654.193, 131.4913
3656.122, 131.0664
3658.050, 130.1693
3659.979, 129.4302
3661.907, 130.4010
3663.836, 131.1086
3665.764, 130.1807
3667.693, 129.5348
3669.621, 129.5506
3671.550, 129.7297
3673.478, 130.2162
3675.406, 131.9328
3677.335, 133.1076
3679.263, 131.9621
3681.192, 130.9709
3683.120, 130.5926
3685.049, 130.5082
3686.977, 130.4545
3688.906, 129.0596
3690.834, 128.1208
3692.763, 130.0251
3694.691, 130.9084
3696.620, 129.8974
3698.548, 129.1506
3700.477, 128.8728
3702.405, 130.0108
3704.333, 131.0551
3706.262, 130.4151
3708.190, 129.8413
3710.119, 129.6479
3712.047, 130.2021
3713.976, 131.1886
3715.904, 131.5569
3717.833, 131.4821
3719.761, 131.1536
3721.690, 130.0283
3723.618, 130.3539
3725.547, 128.2658
3727.475, 130.3481
3729.404, 131.0847
3731.332, 131.0049
3733.260, 129.8419
3735.189, 129.5216
3737.117, 130.3972
3739.046, 130.8564
3740.974, 130.9361
3742.903, 130.7446
3744.831, 130.6511
3746.760, 131.0730
3748.688, 131.3226
3750.617, 131.3048
3752.545, 130.5490
3754.474, 129.6369
3756.402, 130.3263
3758.331, 130.8117
3760.259, 129.4984
3762.188, 129.0783
3764.116, 129.7018
3766.044, 130.0831
3767.973, 130.2390
3769.901, 130.2280
3771.830, 130.1304
3773.758, 130.0872
3775.687, 129.4341
3777.615, 128.4879
3779.544, 129.9107
3781.472, 131.7310
3783.401, 131.1233
3785.329, 130.6998
3787.258, 131.9089
3789.186, 131.7023
3791.115, 130.5485
3793.043, 130.0152
3794.971, 130.0879
3796.900, 131.1497
3798.828, 131.5284
3800.757, 130.6084
3802.685, 130.4250
3804.614, 130.6864
3806.542, 130.8020
3808.471, 130.8801
3810.399, 131.0231
3812.328, 130.7797
3814.256, 130.9667
3816.185, 130.4431
3818.113, 130.9598
3820.042, 130.6848
3821.970, 130.3316
3823.898, 130.0874
3825.827, 130.2890
3827.755, 130.7504
3829.684, 130.7087
3831.612, 130.4459
3833.541, 130.0009
3835.469, 129.7405
3837.398, 129.7315
3839.326, 130.5368
3841.255, 131.4436
3843.183, 131.0666
3845.112, 130.4237
3847.040, 129.7888
3848.969, 129.5365
3850.897, 129.7124
3852.825, 130.6452
3854.754, 131.3687
3856.682, 130.7541
3858.611, 130.7618
3860.539, 131.9199
3862.468, 131.0500
3864.396, 129.4238
3866.325, 129.1442
3868.253, 130.0858
3870.182, 129.8315
3872.110, 130.4616
3874.039, 131.1512
3875.967, 131.2955
3877.896, 131.9560
3879.824, 131.7897
3881.752, 132.0192
3883.681, 132.9436
3885.609, 132.9474
3887.538, 132.7229
3889.466, 133.3830
3891.395, 133.9576
3893.323, 134.2584
3895.252, 133.9619
3897.180, 133.2696
3899.109, 132.5169
3901.037, 131.9784
3902.966, 132.2981
3904.894, 132.5291
3906.823, 132.5335
3908.751, 132.5103
3910.679, 132.7139
3912.608, 133.6391
3914.536, 134.4028
3916.465, 134.7155
3918.393, 134.7737
3920.322, 134.6476
3922.250, 134.5293
3924.179, 134.8161
3926.107, 135.5326
3928.036, 135.0737
3929.964, 134.1452
3931.893, 135.2028
3933.821, 135.7839
3935.750, 133.7951
3937.678, 133.1155
3939.606, 133.9000
3941.535, 134.9680
3943.463, 136.2130
3945.392, 137.7797
3947.320, 137.7186
3949.249, 135.7518
3951.177, 135.0378
3953.106, 135.4297
3955.034, 136.8951
3956.963, 137.7458
3958.891, 137.1560
3960.820, 136.5630
3962.748, 136.2465
3964.677, 137.1441
3966.605, 137.9172
3968.533, 137.9380
3970.462, 137.6779
3972.390, 137.2702
3974.319, 137.6338
3976.247, 138.1186
3978.176, 138.0544
3980.104, 138.1188
3982.033, 138.3652
3983.961, 138.2615
3985.890, 138.2443
3987.818, 139.3148
3989.747, 139.4912
3991.675, 139.8654
3993.604, 140.1790
3995.532, 140.2928
3997.460, 140.3305
3999.389, 140.0746
4001.317, 139.9892
4003.246, 139.6899
4005.174, 139.2387
4007.103, 139.3139
4009.031, 139.4251
4010.960, 139.6080
4012.888, 141.0889
4014.817, 142.6028
4016.745, 142.3597
4018.674, 141.7387
4020.602, 140.9316
4022.531, 140.9702
4024.459, 141.7919
4026.387, 143.4960
4028.316, 144.9076
4030.244, 143.6778
4032.173, 143.0596
4034.101, 144.0879
4036.030, 144.7380
4037.958, 144.8189
4039.887, 144.2856
4041.815, 143.7970
4043.744, 143.9892
4045.672, 144.4883
4047.601, 144.6339
4049.529, 144.2890
4051.458, 143.5720
4053.386, 142.9130
4055.314, 143.6657
4057.243, 144.7777
4059.171, 144.7439
4061.100, 144.6354
4063.028, 144.2784
4064.957, 144.1350
4066.885, 145.5022
4068.814, 146.2743
4070.742, 146.3567
4072.671, 146.8681
4074.599, 147.1682
4076.528, 147.2512
4078.456, 146.0870
4080.385, 145.0532
4082.313, 146.0471
4084.241, 146.9311
4086.170, 146.7752
4088.098, 146.8711
4090.027, 147.3540
4091.955, 147.2508
4093.884, 147.6660
4095.812, 147.9223
4097.741, 148.3323
4099.669, 148.6562
4101.598, 149.1159
4103.526, 149.7904
4105.455, 149.6316
4107.383, 149.6463
4109.312, 149.9747
4111.240, 150.6887
4113.168, 151.3811
4115.097, 151.3276
4117.025, 151.2258
4118.954, 151.1521
4120.882, 151.0306
4122.811, 151.8770
4124.739, 153.0080
4126.668, 152.8889
4128.596, 152.6404
4130.525, 152.2221
4132.453, 152.2359
4134.382, 152.6000
4136.310, 154.1300
4138.239, 154.1795
4140.167, 155.2790
4142.096, 157.0703
4144.024, 156.3567
4145.953, 155.0907
4147.881, 155.5528
4149.810, 156.5461
4151.738, 157.3931
4153.667, 157.7952
4155.595, 157.9402
4157.523, 158.6620
4159.452, 158.7553
4161.380, 158.6730
4163.309, 159.0782
4165.237, 159.2207
4167.166, 159.8871
4169.094, 160.0675
4171.022, 161.4760
4172.951, 162.5526
4174.879, 163.5186
4176.808, 163.9400
4178.736, 163.2027
4180.665, 162.7530
4182.593, 163.6197
4184.522, 164.5352
4186.450, 165.5484
4188.379, 166.9704
4190.307, 168.0152
4192.236, 167.4458
4194.164, 167.2323
4196.093, 167.4879
4198.021, 167.8372
4199.950, 168.3278
4201.878, 168.7645
4203.807, 168.8581
4205.735, 169.9380
4207.664, 170.6989
4209.592, 171.5422
4211.521, 171.7238
4213.449, 173.5934
4215.377, 172.1614
4217.306, 171.7767
4219.234, 172.7583
4221.163, 176.0176
4223.091, 176.9192
4225.020, 175.6943
4226.948, 175.8558
4228.876, 176.4651
4230.805, 177.0161
4232.733, 178.0152
4234.662, 179.2216
4236.590, 179.3249
4238.519, 180.2952
4240.447, 183.3766
4242.376, 182.9931
4244.304, 184.6295
4246.233, 183.5546
4248.161, 185.8394
4250.090, 186.9797
4252.018, 186.4502
4253.947, 185.4985
4255.875, 185.5515
4257.804, 186.7888
4259.732, 186.4731
4261.661, 188.3333
4263.589, 187.1099
4265.518, 188.9209
4267.446, 188.9613
4269.375, 187.2549
4271.303, 189.1349
4273.231, 191.2974
4275.160, 191.5808
4277.088, 193.1905
4279.017, 195.5233
4280.945, 196.3368
4282.874, 195.8761
4284.802, 193.8892
4286.730, 194.2274
4288.659, 195.7584
4290.587, 196.7898
4292.516, 197.6314
4294.444, 198.3710
4296.373, 198.0860
4298.301, 197.4517
4300.230, 196.7529
4302.158, 197.3584
4304.087, 199.0031
4306.015, 199.2148
4307.944, 199.4055
4309.872, 200.3620
4311.801, 200.9899
4313.729, 201.4460
4315.658, 202.5274
4317.586, 202.9682
4319.515, 202.4505
4321.443, 201.7706
4323.372, 201.7140
4325.300, 201.6482
4327.229, 202.2338
4329.157, 202.4638
4331.085, 203.7292
4333.014, 205.1664
4334.942, 205.4318
4336.871, 203.7277
4338.799, 201.5862
4340.728, 202.9210
4342.656, 204.1062
4344.584, 204.1414
4346.513, 203.2798
4348.441, 202.8422
4350.370, 204.6153
4352.298, 205.7074
4354.227, 205.9455
4356.155, 206.5933
4358.084, 206.4941
4360.012, 207.3440
4361.941, 207.9228
4363.869, 208.4379
4365.798, 208.9338
4367.726, 208.6522
4369.655, 207.9495
4371.583, 208.2718
4373.512, 208.4263
4375.440, 206.9148
4377.369, 206.3396
4379.297, 206.5705
4381.226, 206.8252
4383.154, 206.8965
4385.083, 206.7012
4387.011, 206.0086
4388.939, 205.4639
4390.868, 205.8412
4392.796, 206.7702
4394.725, 207.8392
4396.653, 206.5926
4398.582, 205.8546
4400.510, 206.9472
4402.438, 207.2355
4404.367, 207.0259
4406.295, 207.0087
4408.224, 206.6717
4410.152, 206.0346
4412.081, 205.5444
4414.009, 205.4446
4415.938, 205.9217
4417.866, 206.5479
4419.795, 206.9278
4421.723, 206.3539
4423.652, 205.5004
4425.580, 204.6693
4427.509, 205.8861
4429.437, 207.1138
4431.366, 206.7886
4433.294, 206.4228
4435.223, 206.2106
4437.151, 206.5520
4439.080, 206.9563
4441.008, 207.2514
4442.937, 204.7676
4444.865, 203.3726
4446.793, 205.7029
4448.722, 206.7358
4450.650, 206.4129
4452.579, 204.7785
4454.507, 203.9774
4456.436, 204.2807
4458.364, 204.8427
4460.292, 204.9219
4462.221, 205.2188
4464.149, 205.3973
4466.078, 205.3502
4468.006, 205.3471
4469.935, 204.9471
4471.863, 204.2968
4473.792, 204.2604
4475.720, 202.9253
4477.649, 203.8936
4479.577, 203.6420
4481.506, 203.5919
4483.434, 206.4682
4485.363, 206.0281
4487.291, 206.6253
4489.220, 205.1380
4491.148, 206.1662
4493.077, 204.1453
4495.005, 202.5134
4496.934, 201.1694
4498.862, 199.7299
4500.791, 198.9405
4502.719, 198.9363
4504.647, 200.6045
4506.576, 201.4407
4508.504, 200.8496
4510.433, 200.0024
4512.361, 198.9647
4514.290, 197.6934
4516.218, 197.4544
4518.146, 198.0119
4520.075, 197.2181
4522.003, 197.4906
4523.932, 196.9918
4525.860, 197.2717
4527.789, 197.6801
4529.717, 197.1281
4531.646, 198.4112
4533.574, 199.2518
4535.503, 197.1487
4537.431, 197.0022
4539.360, 197.9474
4541.288, 197.3911
4543.217, 196.3404
4545.145, 195.2310
4547.074, 195.1008
4549.002, 195.8968
4550.931, 195.3567
4552.859, 197.3129
4554.788, 195.8418
4556.716, 195.2277
4558.645, 196.1196
4560.573, 197.2127
4562.501, 194.4097
4564.430, 193.0368
4566.358, 193.8629
4568.287, 194.5643
4570.215, 194.5686
4572.144, 193.5875
4574.072, 192.7234
4576.000, 192.1513
4577.929, 191.9866
4579.857, 192.3866
4581.786, 192.9259
4583.714, 192.6345
4585.643, 192.0550
4587.571, 191.4857
4589.500, 192.3655
4591.428, 192.5394
4593.357, 191.1762
4595.285, 189.4960
4597.214, 188.7905
4599.142, 191.0391
4601.071, 191.3319
4602.999, 190.6110
4604.928, 190.7812
4606.856, 190.7155
4608.785, 190.3027
4610.713, 189.8609
4612.642, 188.9755
4614.570, 187.6951
4616.499, 187.9342
4618.427, 188.2148
4620.355, 187.5748
4622.284, 186.4606
4624.212, 185.3742
4626.141, 184.6322
4628.069, 185.5735
4629.998, 187.3017
4631.926, 187.9297
4633.854, 188.9370
4635.783, 189.7082
4637.711, 189.3954
4639.640, 183.5581
4641.568, 188.0572
4643.497, 186.0117
4645.425, 184.2290
4647.354, 186.3858
4649.282, 186.0432
4651.211, 184.6871
4653.139, 184.0527
4655.068, 183.3771
4656.996, 183.0975
4658.925, 183.2216
4660.853, 184.8598
4662.782, 183.6297
4664.710, 184.0003
4666.639, 183.5453
4668.567, 182.0915
4670.496, 182.5486
4672.424, 183.1629
4674.353, 183.0593
4676.281, 183.3610
4678.209, 183.1281
4680.138, 182.7514
4682.066, 181.5184
4683.995, 181.7544
4685.923, 180.4592
4687.852, 180.0099
4689.780, 180.4156
4691.708, 181.5780
4693.637, 182.9647
4695.565, 183.9717
4697.494, 182.3106
4699.422, 181.1942
4701.351, 181.0937
4703.279, 180.6181
4705.208, 179.4322
4707.136, 177.3486
4709.065, 179.6416
4710.993, 181.4332
4712.922, 180.1265
4714.850, 178.3908
4716.779, 177.6033
4718.707, 179.1759
4720.636, 179.8251
4722.564, 179.5486
4724.493, 178.1821
4726.421, 177.8186
4728.350, 178.0529
4730.278, 178.0425
4732.207, 177.2964
4734.135, 176.3719
4736.063, 177.3542
4737.992, 177.0186
4739.920, 175.4159
4741.849, 176.2235
4743.777, 177.1692
4745.706, 177.6617
4747.634, 178.5365
4749.563, 178.1314
4751.491, 175.6611
4753.419, 175.2883
4755.348, 175.1480
4757.276, 174.3222
4759.205, 174.5880
4761.133, 175.1080
4763.062, 175.1211
4764.990, 175.9864
4766.919, 176.3183
4768.847, 174.5918
4770.776, 173.8679
4772.704, 173.8212
4774.633, 174.2737
4776.561, 172.4801
4778.490, 170.5049
4780.418, 172.4068
4782.347, 173.7411
4784.275, 174.1087
4786.204, 173.6066
4788.132, 172.7198
4790.061, 171.9714
4791.989, 173.1182
4793.917, 172.7455
4795.846, 171.2231
4797.774, 172.6850
4799.703, 173.1749
4801.631, 172.1814
4803.560, 171.3224
4805.488, 171.9059
4807.417, 173.7317
4809.345, 171.6705
4811.273, 170.0411
4813.202, 170.1223
4815.130, 170.5966
4817.059, 171.3801
4818.987, 172.4143
4820.916, 172.1113
4822.844, 171.7487
4824.773, 171.8124
4826.701, 171.5671
4828.630, 170.9813
4830.558, 170.0223
4832.487, 170.1280
4834.415, 169.9463
4836.344, 168.7944
4838.272, 169.5122
4840.201, 170.3677
4842.129, 170.1721
4844.058, 169.3250
4845.986, 168.8750
4847.915, 169.4912
4849.843, 169.4859
4851.771, 169.3945
4853.700, 169.7410
4855.628, 169.6327
4857.557, 169.5909
4859.485, 170.0659
4861.414, 169.4245
4863.342, 168.5708
4865.271, 168.3280
4867.199, 168.1067
4869.127, 167.8425
4871.056, 167.4500
4872.984, 167.8929
4874.913, 168.6271
4876.841, 169.2461
4878.770, 168.5509
4880.698, 167.7693
4882.627, 168.0573
4884.555, 167.2648
4886.484, 166.2776
4888.412, 165.8659
4890.341, 166.8203
4892.269, 167.8977
4894.198, 168.2527
4896.126, 166.6057
4898.055, 164.9364
4899.983, 164.7623
4901.912, 165.8508
4903.840, 166.9648
4905.769, 167.2710
4907.697, 166.0536
4909.625, 165.6797
4911.554, 167.7157
4913.482, 167.5667
4915.411, 166.0730
4917.339, 163.6464
4919.268, 162.6186
4921.196, 162.4860
4923.125, 162.9509
4925.053, 164.0837
4926.981, 164.4403
4928.910, 163.1704
4930.838, 164.0036
4932.767, 164.0263
4934.695, 162.1950
4936.624, 162.2564
4938.552, 163.6874
4940.481, 165.9215
4942.409, 165.4090
4944.338, 164.1499
4946.266, 163.0559
4948.195, 163.6126
4950.123, 163.4766
4952.052, 162.3775
4953.980, 162.6560
4955.909, 162.1054
4957.837, 160.8589
4959.766, 162.7267
4961.694, 163.3873
4963.623, 162.5982
4965.551, 162.2610
4967.479, 162.1665
4969.408, 161.8005
4971.336, 158.8822
4973.265, 160.5278
4975.193, 163.8496
4977.122, 161.3280
4979.050, 160.4510
4980.979, 160.8532
4982.907, 161.2723
4984.835, 160.0673
4986.764, 159.4599
4988.692, 162.1234
4990.621, 162.2074
4992.549, 161.1272
4994.478, 160.3354
4996.406, 159.8760
4998.335, 161.0147
5000.263, 164.3482
5002.192, 163.0699
5004.120, 160.9894
5006.049, 160.0437
5007.977, 158.7732
5009.906, 158.3442
5011.834, 159.0786
5013.763, 160.4884
5015.691, 160.6810
5017.620, 160.0115
5019.548, 161.7868
5021.477, 161.9815
5023.405, 160.5417
5025.333, 159.0191
5027.262, 157.3728
5029.190, 157.0397
5031.119, 161.1610
5033.047, 161.0617
5034.976, 159.4052
5036.904, 160.3062
5038.833, 159.6185
5040.761, 158.0331
5042.689, 156.1943
5044.618, 157.0043
5046.546, 157.3406
5048.475, 155.6051
5050.403, 155.7241
5052.332, 157.1597
5054.260, 159.1301
5056.189, 158.1097
5058.117, 156.9779
5060.046, 156.5510
5061.974, 157.6443
5063.903, 157.0488
5065.831, 156.3077
5067.760, 159.7295
5069.688, 158.5959
5071.617, 156.0571
5073.545, 156.4220
5075.474, 155.8770
5077.402, 155.8824
5079.331, 157.9665
5081.259, 156.5289
5083.188, 155.5010
5085.116, 156.2259
5087.044, 157.3190
5088.973, 156.8576
5090.901, 155.3021
5092.830, 156.3555
5094.758, 156.5940
5096.687, 156.1425
5098.615, 156.2385
5100.543, 156.7938
5102.472, 156.6657
5104.400, 154.3757
5106.329, 154.6033
5108.257, 155.3432
5110.186, 155.2379
5112.114, 155.7977
5114.043, 155.8081
5115.971, 155.2189
5117.900, 155.5315
5119.828, 156.8138
5121.757, 157.8884
5123.685, 155.2595
5125.614, 154.7115
5127.542, 155.4932
5129.471, 155.9375
5131.399, 156.4537
5133.328, 156.3084
5135.256, 154.9936
5137.185, 154.7979
5139.113, 155.9144
5141.042, 157.5415
5142.970, 153.9659
5144.898, 153.2060
5146.827, 155.3177
5148.755, 157.9461
5150.684, 156.3129
5152.612, 154.1462
5154.541, 156.2539
5156.469, 157.0323
5158.397, 155.4567
5160.326, 151.7839
5162.254, 152.4680
5164.183, 153.2208
5166.111, 153.0085
5168.040, 153.4796
5169.968, 153.3716
5171.897, 153.4527
5173.825, 155.3351
5175.754, 155.6528
5177.682, 155.4520
5179.611, 155.7524
5181.539, 156.9250
5183.468, 156.4290
5185.396, 153.9886
5187.325, 153.7312
5189.253, 152.8434
5191.182, 151.8708
5193.110, 152.9903
5195.039, 153.2348
5196.967, 153.2138
5198.896, 153.7688
5200.824, 153.7849
5202.752, 152.9388
5204.681, 151.7219
5206.609, 154.3778
5208.538, 154.9653
5210.466, 153.5215
5212.395, 151.5988
5214.323, 151.8509
5216.251, 152.9400
5218.180, 153.7371
5220.108, 153.3148
5222.037, 152.5031
5223.965, 151.8009
5225.894, 152.0797
5227.822, 151.5576
5229.751, 150.8044
5231.679, 151.2587
5233.608, 151.9683
5235.536, 152.2272
5237.465, 151.6491
5239.393, 150.6802
5241.322, 150.5574
5243.250, 151.2966
5245.179, 152.3050
5247.107, 151.2687
5249.036, 150.0714
5250.964, 151.4130
5252.893, 151.6567
5254.821, 151.7825
5256.750, 152.1913
5258.678, 151.9199
5260.606, 152.0016
5262.535, 152.2485
5264.463, 151.9643
5266.392, 150.8470
5268.320, 149.6602
5270.249, 148.9884
5272.177, 151.4041
5274.105, 151.3394
5276.034, 149.0276
5277.962, 150.0359
5279.891, 151.1814
5281.819, 151.1835
5283.748, 148.1991
5285.676, 150.2584
5287.605, 151.6575
5289.533, 150.6447
5291.462, 149.6957
5293.390, 149.2335
5295.319, 149.4051
5297.247, 150.3709
5299.176, 152.1601
5301.104, 151.5192
5303.033, 147.7092
5304.961, 148.6043
5306.890, 149.6214
5308.818, 150.3311
5310.747, 151.8324
5312.675, 151.1463
5314.604, 149.6921
5316.532, 148.4959
5318.460, 146.9046
5320.389, 147.7140
5322.317, 149.9815
5324.246, 150.9981
5326.174, 149.9707
5328.103, 148.7093
5330.031, 148.2916
5331.959, 147.7256
5333.888, 147.2560
5335.816, 146.8826
5337.745, 145.9965
5339.673, 147.9146
5341.602, 150.0827
5343.530, 150.6016
5345.459, 147.0845
5347.387, 146.1617
5349.316, 147.5180
5351.244, 148.4185
5353.173, 146.8422
5355.101, 145.3981
5357.030, 145.6372
5358.958, 147.3266
5360.887, 147.4474
5362.815, 146.5334
5364.744, 146.3400
5366.672, 147.4273
5368.601, 147.4323
5370.529, 145.7160
5372.458, 145.4987
5374.386, 146.3572
5376.314, 147.1409
5378.243, 146.5034
5380.171, 145.5210
5382.100, 145.7634
5384.028, 147.0786
5385.957, 146.7047
5387.885, 146.3906
5389.813, 146.2784
5391.742, 146.2552
5393.670, 146.2529
5395.599, 146.4871
5397.527, 146.4453
5399.456, 144.2459
5401.384, 145.7169
5403.313, 147.1003
5405.241, 145.8746
5407.170, 145.1647
5409.098, 144.6844
5411.027, 144.0915
5412.955, 142.3733
5414.884, 145.1371
5416.812, 145.9523
5418.741, 143.3079
5420.669, 143.4881
5422.598, 144.2167
5424.526, 144.4944
5426.455, 143.8882
5428.383, 144.1163
5430.312, 144.9603
5432.240, 145.7370
5434.168, 145.2341
5436.097, 144.2198
5438.025, 142.8613
5439.954, 141.6048
5441.882, 143.2602
5443.811, 143.4227
5445.739, 143.0408
5447.667, 143.8368
5449.596, 143.5577
5451.524, 143.1275
5453.453, 142.7758
5455.381, 141.9486
5457.310, 142.9443
5459.238, 142.9738
5461.167, 141.2835
5463.095, 143.3768
5465.024, 144.7717
5466.952, 144.4458
5468.881, 142.4017
5470.809, 141.2981
5472.738, 140.6734
5474.666, 140.7010
5476.595, 142.5958
5478.523, 142.3165
5480.452, 142.0247
5482.380, 142.3838
5484.309, 141.2991
5486.237, 140.4039
5488.166, 140.4359
5490.094, 141.4350
5492.022, 140.2205
5493.951, 139.3516
5495.879, 139.7957
5497.808, 142.2120
5499.736, 142.7012
##END=



