##NAMES=Finnemanite
##RRUFFID=R140329
##IDEAL CHEMISTRY=Pb_5_(As^3+^O_3_)_3_Cl
##LOCALITY=Långban, Varmland, Sweden
##OWNER=RRUFF
##SOURCE=Benjamin N. Schumer
##DESCRIPTION=Dark grey prismatic crystals, associated with hematite
##STATUS=The identification of this mineral has been confirmed by single-crystal X-ray diffraction
##URL=https://www.rruff.net/odr/rruff_sample/R140329
##DIFFRACTION SAMPLE DESCRIPTION=Single crystal, powder profile is calculated
##CELL PARAMETERS=a: 10.31 b: 10.31 c: 7.071 alpha: 90 beta: 90 gamma: 120 volume: 650.86 crystal system: hexagonal
##FILETYPE=Raman RAW
##RAMAN WAVELENGTH=532

1.036855e+002, 3.872852e+001
1.056140e+002, 3.962423e+001
1.075425e+002, 4.001403e+001
1.094709e+002, 3.977020e+001
1.113994e+002, 3.881221e+001
1.133279e+002, 3.800360e+001
1.152563e+002, 3.749943e+001
1.171848e+002, 3.709053e+001
1.191133e+002, 3.655513e+001
1.210417e+002, 3.566812e+001
1.229702e+002, 3.484945e+001
1.248987e+002, 3.421603e+001
1.268271e+002, 3.375347e+001
1.287556e+002, 3.340016e+001
1.306841e+002, 3.320597e+001
1.326125e+002, 3.311290e+001
1.345410e+002, 3.298019e+001
1.364695e+002, 3.280748e+001
1.383979e+002, 3.260222e+001
1.403264e+002, 3.232226e+001
1.422549e+002, 3.185147e+001
1.441833e+002, 3.162343e+001
1.461118e+002, 3.181771e+001
1.480403e+002, 3.237567e+001
1.499687e+002, 3.277563e+001
1.518972e+002, 3.276762e+001
1.538257e+002, 3.277553e+001
1.557541e+002, 3.308059e+001
1.576826e+002, 3.353560e+001
1.596111e+002, 3.449171e+001
1.615395e+002, 3.587122e+001
1.634680e+002, 3.772300e+001
1.653965e+002, 4.056479e+001
1.673249e+002, 4.262986e+001
1.692534e+002, 4.635064e+001
1.711819e+002, 5.464764e+001
1.731103e+002, 6.197254e+001
1.750388e+002, 7.979060e+001
1.769673e+002, 1.101765e+002
1.788957e+002, 1.510176e+002
1.808242e+002, 2.109104e+002
1.827527e+002, 2.843755e+002
1.846811e+002, 3.767334e+002
1.866096e+002, 4.965817e+002
1.885381e+002, 6.563456e+002
1.904665e+002, 8.250320e+002
1.923950e+002, 9.938367e+002
1.943235e+002, 1.163272e+003
1.962519e+002, 1.260027e+003
1.981804e+002, 1.305235e+003
2.001089e+002, 1.324531e+003
2.020373e+002, 1.349927e+003
2.039658e+002, 1.388761e+003
2.058943e+002, 1.426707e+003
2.078227e+002, 1.460104e+003
2.097512e+002, 1.493219e+003
2.116797e+002, 1.512208e+003
2.136081e+002, 1.508297e+003
2.155366e+002, 1.489907e+003
2.174651e+002, 1.473166e+003
2.193935e+002, 1.455874e+003
2.213220e+002, 1.441875e+003
2.232505e+002, 1.433744e+003
2.251789e+002, 1.431119e+003
2.271074e+002, 1.431871e+003
2.290359e+002, 1.435408e+003
2.309643e+002, 1.441522e+003
2.328928e+002, 1.451475e+003
2.348213e+002, 1.465523e+003
2.367497e+002, 1.482396e+003
2.386782e+002, 1.502316e+003
2.406067e+002, 1.526323e+003
2.425351e+002, 1.547970e+003
2.444636e+002, 1.569885e+003
2.463921e+002, 1.589786e+003
2.483205e+002, 1.595435e+003
2.502490e+002, 1.589942e+003
2.521775e+002, 1.568027e+003
2.541059e+002, 1.528881e+003
2.560344e+002, 1.468618e+003
2.579629e+002, 1.398724e+003
2.598913e+002, 1.317372e+003
2.618198e+002, 1.227079e+003
2.637483e+002, 1.140666e+003
2.656767e+002, 1.056255e+003
2.676052e+002, 9.780438e+002
2.695337e+002, 9.073132e+002
2.714621e+002, 8.445548e+002
2.733906e+002, 7.899011e+002
2.753191e+002, 7.445958e+002
2.772475e+002, 7.079545e+002
2.791760e+002, 6.765929e+002
2.811045e+002, 6.519410e+002
2.830329e+002, 6.316593e+002
2.849614e+002, 6.147219e+002
2.868899e+002, 6.018068e+002
2.888183e+002, 5.914162e+002
2.907468e+002, 5.837897e+002
2.926753e+002, 5.787804e+002
2.946037e+002, 5.762047e+002
2.965322e+002, 5.769114e+002
2.984607e+002, 5.796176e+002
3.003891e+002, 5.839016e+002
3.023176e+002, 5.894409e+002
3.042461e+002, 5.977825e+002
3.061745e+002, 6.104652e+002
3.081030e+002, 6.262106e+002
3.100315e+002, 6.430290e+002
3.119599e+002, 6.620421e+002
3.138884e+002, 6.812804e+002
3.158169e+002, 7.002303e+002
3.177453e+002, 7.190394e+002
3.196738e+002, 7.371895e+002
3.216023e+002, 7.551086e+002
3.235307e+002, 7.721894e+002
3.254592e+002, 7.871777e+002
3.273877e+002, 7.993116e+002
3.293161e+002, 8.100106e+002
3.312446e+002, 8.188586e+002
3.331731e+002, 8.260135e+002
3.351015e+002, 8.334349e+002
3.370300e+002, 8.418173e+002
3.389585e+002, 8.505715e+002
3.408869e+002, 8.590823e+002
3.428154e+002, 8.670518e+002
3.447439e+002, 8.756968e+002
3.466723e+002, 8.853705e+002
3.486008e+002, 8.960594e+002
3.505292e+002, 9.081564e+002
3.524577e+002, 9.230490e+002
3.543862e+002, 9.384694e+002
3.563146e+002, 9.529782e+002
3.582431e+002, 9.671148e+002
3.601716e+002, 9.789775e+002
3.621000e+002, 9.868627e+002
3.640285e+002, 9.915447e+002
3.659570e+002, 9.963848e+002
3.678854e+002, 1.001434e+003
3.698139e+002, 1.006374e+003
3.717424e+002, 1.011750e+003
3.736708e+002, 1.017993e+003
3.755993e+002, 1.021112e+003
3.775278e+002, 1.021971e+003
3.794562e+002, 1.019226e+003
3.813847e+002, 1.009049e+003
3.833132e+002, 9.888401e+002
3.852416e+002, 9.650894e+002
3.871701e+002, 9.375623e+002
3.890986e+002, 9.067813e+002
3.910270e+002, 8.784263e+002
3.929555e+002, 8.528215e+002
3.948840e+002, 8.301285e+002
3.968124e+002, 8.111430e+002
3.987409e+002, 7.957684e+002
4.006694e+002, 7.833450e+002
4.025978e+002, 7.747166e+002
4.045263e+002, 7.690467e+002
4.064548e+002, 7.647258e+002
4.083832e+002, 7.616869e+002
4.103117e+002, 7.599094e+002
4.122402e+002, 7.599998e+002
4.141686e+002, 7.623749e+002
4.160971e+002, 7.642487e+002
4.180256e+002, 7.647336e+002
4.199540e+002, 7.644880e+002
4.218825e+002, 7.644524e+002
4.238110e+002, 7.630023e+002
4.257394e+002, 7.633780e+002
4.276679e+002, 7.659774e+002
4.295964e+002, 7.709469e+002
4.315248e+002, 7.792969e+002
4.334533e+002, 7.913820e+002
4.353818e+002, 8.072266e+002
4.373102e+002, 8.269171e+002
4.392387e+002, 8.511485e+002
4.411672e+002, 8.791136e+002
4.430956e+002, 9.098710e+002
4.450241e+002, 9.448329e+002
4.469526e+002, 9.866317e+002
4.488810e+002, 1.042685e+003
4.508095e+002, 1.096975e+003
4.527380e+002, 1.148079e+003
4.546664e+002, 1.200459e+003
4.565949e+002, 1.225246e+003
4.585234e+002, 1.215952e+003
4.604518e+002, 1.180632e+003
4.623803e+002, 1.128361e+003
4.643088e+002, 1.049730e+003
4.662372e+002, 9.723152e+002
4.681657e+002, 8.992336e+002
4.700942e+002, 8.315705e+002
4.720226e+002, 7.727355e+002
4.739511e+002, 7.234890e+002
4.758796e+002, 6.820146e+002
4.778080e+002, 6.476319e+002
4.797365e+002, 6.206672e+002
4.816650e+002, 5.981020e+002
4.835934e+002, 5.805654e+002
4.855219e+002, 5.662793e+002
4.874504e+002, 5.534725e+002
4.893788e+002, 5.419679e+002
4.913073e+002, 5.318762e+002
4.932358e+002, 5.235468e+002
4.951642e+002, 5.166624e+002
4.970927e+002, 5.101021e+002
4.990212e+002, 5.031328e+002
5.009496e+002, 4.970095e+002
5.028781e+002, 4.927274e+002
5.048066e+002, 4.902341e+002
5.067350e+002, 4.875761e+002
5.086635e+002, 4.838872e+002
5.105920e+002, 4.802289e+002
5.125204e+002, 4.775059e+002
5.144489e+002, 4.762511e+002
5.163774e+002, 4.754618e+002
5.183058e+002, 4.748089e+002
5.202343e+002, 4.746756e+002
5.221628e+002, 4.757065e+002
5.240912e+002, 4.782124e+002
5.260197e+002, 4.816745e+002
5.279482e+002, 4.858408e+002
5.298766e+002, 4.907689e+002
5.318051e+002, 4.966162e+002
5.337336e+002, 5.035262e+002
5.356620e+002, 5.112775e+002
5.375905e+002, 5.197525e+002
5.395190e+002, 5.290427e+002
5.414474e+002, 5.384284e+002
5.433759e+002, 5.472453e+002
5.453044e+002, 5.560308e+002
5.472328e+002, 5.659113e+002
5.491613e+002, 5.763007e+002
5.510898e+002, 5.881976e+002
5.530182e+002, 6.016974e+002
5.549467e+002, 6.168093e+002
5.568752e+002, 6.345744e+002
5.588036e+002, 6.553408e+002
5.607321e+002, 6.789034e+002
5.626606e+002, 7.055599e+002
5.645891e+002, 7.356854e+002
5.665175e+002, 7.685800e+002
5.684460e+002, 8.066230e+002
5.703745e+002, 8.463992e+002
5.723029e+002, 8.856243e+002
5.742314e+002, 9.269202e+002
5.761599e+002, 9.614490e+002
5.780883e+002, 9.913917e+002
5.800168e+002, 1.013572e+003
5.819453e+002, 1.020033e+003
5.838737e+002, 1.009059e+003
5.858022e+002, 9.869720e+002
5.877307e+002, 9.524816e+002
5.896591e+002, 9.071130e+002
5.915876e+002, 8.637606e+002
5.935161e+002, 8.209792e+002
5.954445e+002, 7.823352e+002
5.973729e+002, 7.499767e+002
5.993014e+002, 7.241786e+002
6.012299e+002, 7.029308e+002
6.031583e+002, 6.871542e+002
6.050868e+002, 6.754714e+002
6.070153e+002, 6.665701e+002
6.089437e+002, 6.608134e+002
6.108722e+002, 6.576088e+002
6.128007e+002, 6.572424e+002
6.147291e+002, 6.593320e+002
6.166576e+002, 6.628204e+002
6.185861e+002, 6.673752e+002
6.205145e+002, 6.738481e+002
6.224430e+002, 6.828244e+002
6.243715e+002, 6.940231e+002
6.262999e+002, 7.058713e+002
6.282284e+002, 7.180720e+002
6.301569e+002, 7.309453e+002
6.320853e+002, 7.451481e+002
6.340138e+002, 7.604380e+002
6.359423e+002, 7.747093e+002
6.378707e+002, 7.890969e+002
6.397992e+002, 8.008743e+002
6.417277e+002, 8.088624e+002
6.436561e+002, 8.135274e+002
6.455846e+002, 8.127914e+002
6.475131e+002, 8.055612e+002
6.494415e+002, 7.940432e+002
6.513700e+002, 7.800527e+002
6.532985e+002, 7.626486e+002
6.552269e+002, 7.468121e+002
6.571554e+002, 7.335985e+002
6.590839e+002, 7.227689e+002
6.610123e+002, 7.143775e+002
6.629408e+002, 7.085029e+002
6.648693e+002, 7.048478e+002
6.667977e+002, 7.034220e+002
6.687262e+002, 7.042990e+002
6.706547e+002, 7.071114e+002
6.725831e+002, 7.114938e+002
6.745116e+002, 7.185115e+002
6.764401e+002, 7.278582e+002
6.783685e+002, 7.393820e+002
6.802970e+002, 7.553584e+002
6.822255e+002, 7.758398e+002
6.841539e+002, 7.999030e+002
6.860824e+002, 8.274849e+002
6.880109e+002, 8.583530e+002
6.899393e+002, 8.922769e+002
6.918678e+002, 9.313148e+002
6.937963e+002, 9.719352e+002
6.957247e+002, 1.011821e+003
6.976532e+002, 1.050697e+003
6.995817e+002, 1.089203e+003
7.015101e+002, 1.124998e+003
7.034386e+002, 1.161673e+003
7.053671e+002, 1.201735e+003
7.072955e+002, 1.243380e+003
7.092240e+002, 1.294385e+003
7.111525e+002, 1.354605e+003
7.130809e+002, 1.425786e+003
7.150094e+002, 1.511984e+003
7.169379e+002, 1.619560e+003
7.188663e+002, 1.736159e+003
7.207948e+002, 1.862484e+003
7.227233e+002, 1.998067e+003
7.246517e+002, 2.139586e+003
7.265802e+002, 2.293034e+003
7.285087e+002, 2.440496e+003
7.304371e+002, 2.588723e+003
7.323656e+002, 2.731056e+003
7.342941e+002, 2.828529e+003
7.362225e+002, 2.901647e+003
7.381510e+002, 2.911705e+003
7.400795e+002, 2.832836e+003
7.420079e+002, 2.673825e+003
7.439364e+002, 2.479642e+003
7.458649e+002, 2.226117e+003
7.477933e+002, 1.972635e+003
7.497218e+002, 1.736741e+003
7.516503e+002, 1.517423e+003
7.535787e+002, 1.332346e+003
7.555072e+002, 1.182851e+003
7.574357e+002, 1.060635e+003
7.593641e+002, 9.669569e+002
7.612926e+002, 9.001924e+002
7.632211e+002, 8.487485e+002
7.651495e+002, 8.159451e+002
7.670780e+002, 7.950761e+002
7.690065e+002, 7.828106e+002
7.709349e+002, 7.807969e+002
7.728634e+002, 7.824500e+002
7.747919e+002, 7.887029e+002
7.767203e+002, 7.975101e+002
7.786488e+002, 8.079706e+002
7.805773e+002, 8.201014e+002
7.825057e+002, 8.331764e+002
7.844342e+002, 8.457391e+002
7.863627e+002, 8.603694e+002
7.882911e+002, 8.781734e+002
7.902196e+002, 8.980867e+002
7.921481e+002, 9.245128e+002
7.940765e+002, 9.570955e+002
7.960050e+002, 9.955685e+002
7.979335e+002, 1.040167e+003
7.998619e+002, 1.090502e+003
8.017904e+002, 1.146608e+003
8.037189e+002, 1.210712e+003
8.056473e+002, 1.279680e+003
8.075758e+002, 1.352673e+003
8.095043e+002, 1.434366e+003
8.114327e+002, 1.506727e+003
8.133612e+002, 1.577786e+003
8.152897e+002, 1.634682e+003
8.172181e+002, 1.664167e+003
8.191466e+002, 1.668717e+003
8.210751e+002, 1.643626e+003
8.230035e+002, 1.577047e+003
8.249320e+002, 1.485091e+003
8.268605e+002, 1.380421e+003
8.287889e+002, 1.256395e+003
8.307174e+002, 1.139143e+003
8.326459e+002, 1.027781e+003
8.345743e+002, 9.257137e+002
8.365028e+002, 8.382426e+002
8.384313e+002, 7.660774e+002
8.403597e+002, 7.035107e+002
8.422882e+002, 6.521779e+002
8.442167e+002, 6.095618e+002
8.461451e+002, 5.727798e+002
8.480736e+002, 5.426345e+002
8.500021e+002, 5.160327e+002
8.519305e+002, 4.930035e+002
8.538590e+002, 4.725877e+002
8.557875e+002, 4.540209e+002
8.577159e+002, 4.374160e+002
8.596444e+002, 4.225717e+002
8.615729e+002, 4.102039e+002
8.635013e+002, 3.992820e+002
8.654298e+002, 3.887828e+002
8.673583e+002, 3.785884e+002
8.692867e+002, 3.696242e+002
8.712152e+002, 3.625650e+002
8.731437e+002, 3.564801e+002
8.750721e+002, 3.508320e+002
8.770006e+002, 3.457990e+002
8.789291e+002, 3.408039e+002
8.808575e+002, 3.356144e+002
8.827860e+002, 3.306213e+002
8.847145e+002, 3.261157e+002
8.866429e+002, 3.220750e+002
8.885714e+002, 3.183127e+002
8.904999e+002, 3.150097e+002
8.924283e+002, 3.117615e+002
8.943568e+002, 3.083421e+002
8.962853e+002, 3.047091e+002
8.982137e+002, 3.009302e+002
9.001422e+002, 2.969777e+002
9.020707e+002, 2.929137e+002
9.039991e+002, 2.885833e+002
9.059276e+002, 2.840487e+002
9.078561e+002, 2.802220e+002
9.097845e+002, 2.781852e+002
9.117130e+002, 2.757349e+002
9.136415e+002, 2.714645e+002
9.155699e+002, 2.652775e+002
9.174984e+002, 2.602750e+002
9.194269e+002, 2.569977e+002
9.213553e+002, 2.543686e+002
9.232838e+002, 2.523202e+002
9.252123e+002, 2.507367e+002
9.271407e+002, 2.486860e+002
9.290692e+002, 2.459710e+002
9.309976e+002, 2.430617e+002
9.329261e+002, 2.400266e+002
9.348546e+002, 2.369487e+002
9.367830e+002, 2.340929e+002
9.387115e+002, 2.314744e+002
9.406400e+002, 2.291581e+002
9.425684e+002, 2.272477e+002
9.444969e+002, 2.256675e+002
9.464254e+002, 2.242164e+002
9.483538e+002, 2.229956e+002
9.502823e+002, 2.217328e+002
9.522108e+002, 2.204522e+002
9.541392e+002, 2.190484e+002
9.560677e+002, 2.172804e+002
9.579962e+002, 2.149102e+002
9.599246e+002, 2.130089e+002
9.618531e+002, 2.120847e+002
9.637816e+002, 2.115673e+002
9.657100e+002, 2.109435e+002
9.676385e+002, 2.101314e+002
9.695670e+002, 2.093289e+002
9.714954e+002, 2.084666e+002
9.734239e+002, 2.076445e+002
9.753524e+002, 2.070008e+002
9.772808e+002, 2.065266e+002
9.792093e+002, 2.059182e+002
9.811378e+002, 2.049149e+002
9.830662e+002, 2.040547e+002
9.849947e+002, 2.037566e+002
9.869232e+002, 2.040801e+002
9.888516e+002, 2.040024e+002
9.907801e+002, 2.030182e+002
9.927086e+002, 2.022074e+002
9.946370e+002, 2.020501e+002
9.965655e+002, 2.023894e+002
9.984940e+002, 2.024353e+002
1.000422e+003, 2.019838e+002
1.002351e+003, 2.015274e+002
1.004279e+003, 2.011297e+002
1.006208e+003, 2.008137e+002
1.008136e+003, 2.007102e+002
1.010065e+003, 2.010296e+002
1.011993e+003, 2.010372e+002
1.013922e+003, 2.004680e+002
1.015850e+003, 1.996714e+002
1.017779e+003, 1.990190e+002
1.019707e+003, 1.985824e+002
1.021636e+003, 1.982797e+002
1.023564e+003, 1.983065e+002
1.025493e+003, 1.983496e+002
1.027421e+003, 1.980334e+002
1.029349e+003, 1.973945e+002
1.031278e+003, 1.971327e+002
1.033206e+003, 1.975967e+002
1.035135e+003, 1.980757e+002
1.037063e+003, 1.982812e+002
1.038992e+003, 1.982074e+002
1.040920e+003, 1.979045e+002
1.042849e+003, 1.970496e+002
1.044777e+003, 1.963432e+002
1.046706e+003, 1.959993e+002
1.048634e+003, 1.959070e+002
1.050563e+003, 1.958292e+002
1.052491e+003, 1.958209e+002
1.054420e+003, 1.956899e+002
1.056348e+003, 1.953989e+002
1.058276e+003, 1.949538e+002
1.060205e+003, 1.942362e+002
1.062133e+003, 1.931314e+002
1.064062e+003, 1.925709e+002
1.065990e+003, 1.933506e+002
1.067919e+003, 1.941537e+002
1.069847e+003, 1.941264e+002
1.071776e+003, 1.931760e+002
1.073704e+003, 1.928255e+002
1.075633e+003, 1.936128e+002
1.077561e+003, 1.942876e+002
1.079490e+003, 1.942903e+002
1.081418e+003, 1.938473e+002
1.083347e+003, 1.935517e+002
1.085275e+003, 1.934133e+002
1.087203e+003, 1.934236e+002
1.089132e+003, 1.937419e+002
1.091060e+003, 1.941757e+002
1.092989e+003, 1.945474e+002
1.094917e+003, 1.949095e+002
1.096846e+003, 1.951427e+002
1.098774e+003, 1.951042e+002
1.100703e+003, 1.950645e+002
1.102631e+003, 1.951491e+002
1.104560e+003, 1.953367e+002
1.106488e+003, 1.956052e+002
1.108417e+003, 1.961474e+002
1.110345e+003, 1.964335e+002
1.112273e+003, 1.959664e+002
1.114202e+003, 1.951626e+002
1.116130e+003, 1.948709e+002
1.118059e+003, 1.953359e+002
1.119987e+003, 1.957743e+002
1.121916e+003, 1.960870e+002
1.123844e+003, 1.962790e+002
1.125773e+003, 1.962878e+002
1.127701e+003, 1.959277e+002
1.129630e+003, 1.959880e+002
1.131558e+003, 1.967355e+002
1.133487e+003, 1.975718e+002
1.135415e+003, 1.981479e+002
1.137344e+003, 1.985100e+002
1.139272e+003, 1.990553e+002
1.141200e+003, 1.998599e+002
1.143129e+003, 2.006415e+002
1.145057e+003, 2.012851e+002
1.146986e+003, 2.018270e+002
1.148914e+003, 2.022825e+002
1.150843e+003, 2.025927e+002
1.152771e+003, 2.030573e+002
1.154700e+003, 2.041018e+002
1.156628e+003, 2.049925e+002
1.158557e+003, 2.052872e+002
1.160485e+003, 2.049759e+002
1.162414e+003, 2.045137e+002
1.164342e+003, 2.033582e+002
1.166271e+003, 2.027607e+002
1.168199e+003, 2.036421e+002
1.170127e+003, 2.051736e+002
1.172056e+003, 2.056994e+002
1.173984e+003, 2.050543e+002
1.175913e+003, 2.043240e+002
1.177841e+003, 2.036521e+002
1.179770e+003, 2.030777e+002
1.181698e+003, 2.025563e+002
1.183627e+003, 2.020858e+002
1.185555e+003, 2.019435e+002
1.187484e+003, 2.027195e+002
1.189412e+003, 2.030367e+002
1.191341e+003, 2.021736e+002
1.193269e+003, 2.005923e+002
1.195198e+003, 1.993619e+002
1.197126e+003, 1.987416e+002
1.199054e+003, 1.980585e+002
1.200983e+003, 1.971554e+002
1.202911e+003, 1.963120e+002
1.204840e+003, 1.958399e+002
1.206768e+003, 1.956965e+002
1.208697e+003, 1.953940e+002
1.210625e+003, 1.947539e+002
1.212554e+003, 1.942051e+002
1.214482e+003, 1.940281e+002
1.216411e+003, 1.940146e+002
1.218339e+003, 1.938022e+002
1.220268e+003, 1.932951e+002
1.222196e+003, 1.928958e+002
1.224125e+003, 1.926717e+002
1.226053e+003, 1.925764e+002
1.227981e+003, 1.926859e+002
1.229910e+003, 1.930073e+002
1.231838e+003, 1.930492e+002
1.233767e+003, 1.923831e+002
1.235695e+003, 1.920295e+002
1.237624e+003, 1.924912e+002
1.239552e+003, 1.932495e+002
1.241481e+003, 1.934958e+002
1.243409e+003, 1.931753e+002
1.245338e+003, 1.929840e+002
1.247266e+003, 1.930876e+002
1.249195e+003, 1.932726e+002
1.251123e+003, 1.934664e+002
1.253052e+003, 1.936570e+002
1.254980e+003, 1.937791e+002
1.256908e+003, 1.937892e+002
1.258837e+003, 1.938339e+002
1.260765e+003, 1.939695e+002
1.262694e+003, 1.941161e+002
1.264622e+003, 1.941709e+002
1.266551e+003, 1.940814e+002
1.268479e+003, 1.941540e+002
1.270408e+003, 1.944245e+002
1.272336e+003, 1.948137e+002
1.274265e+003, 1.955267e+002
1.276193e+003, 1.963174e+002
1.278122e+003, 1.965511e+002
1.280050e+003, 1.960329e+002
1.281979e+003, 1.960189e+002
1.283907e+003, 1.970552e+002
1.285835e+003, 1.982845e+002
1.287764e+003, 1.992193e+002
1.289692e+003, 1.998982e+002
1.291621e+003, 2.004363e+002
1.293549e+003, 2.007428e+002
1.295478e+003, 2.011044e+002
1.297406e+003, 2.017093e+002
1.299335e+003, 2.023316e+002
1.301263e+003, 2.027880e+002
1.303192e+003, 2.030718e+002
1.305120e+003, 2.033382e+002
1.307049e+003, 2.036839e+002
1.308977e+003, 2.039260e+002
1.310906e+003, 2.038442e+002
1.312834e+003, 2.037085e+002
1.314762e+003, 2.040443e+002
1.316691e+003, 2.051620e+002
1.318619e+003, 2.057452e+002
1.320548e+003, 2.054258e+002
1.322476e+003, 2.048877e+002
1.324405e+003, 2.042543e+002
1.326333e+003, 2.036638e+002
1.328262e+003, 2.034828e+002
1.330190e+003, 2.038097e+002
1.332119e+003, 2.041516e+002
1.334047e+003, 2.044715e+002
1.335976e+003, 2.047023e+002
1.337904e+003, 2.048677e+002
1.339833e+003, 2.049380e+002
1.341761e+003, 2.046499e+002
1.343689e+003, 2.035911e+002
1.345618e+003, 2.029975e+002
1.347546e+003, 2.036174e+002
1.349475e+003, 2.044291e+002
1.351403e+003, 2.044132e+002
1.353332e+003, 2.034290e+002
1.355260e+003, 2.030889e+002
1.357189e+003, 2.040564e+002
1.359117e+003, 2.048390e+002
1.361046e+003, 2.049513e+002
1.362974e+003, 2.048060e+002
1.364903e+003, 2.049570e+002
1.366831e+003, 2.054538e+002
1.368760e+003, 2.056451e+002
1.370688e+003, 2.051787e+002
1.372616e+003, 2.047570e+002
1.374545e+003, 2.046195e+002
1.376473e+003, 2.047057e+002
1.378402e+003, 2.050839e+002
1.380330e+003, 2.058439e+002
1.382259e+003, 2.060049e+002
1.384187e+003, 2.050246e+002
1.386116e+003, 2.040491e+002
1.388044e+003, 2.035233e+002
1.389973e+003, 2.034063e+002
1.391901e+003, 2.037217e+002
1.393830e+003, 2.045675e+002
1.395758e+003, 2.052755e+002
1.397687e+003, 2.056113e+002
1.399615e+003, 2.058873e+002
1.401543e+003, 2.062575e+002
1.403472e+003, 2.066671e+002
1.405400e+003, 2.069428e+002
1.407329e+003, 2.069381e+002
1.409257e+003, 2.071365e+002
1.411186e+003, 2.075447e+002
1.413114e+003, 2.081873e+002
1.415043e+003, 2.092922e+002
1.416971e+003, 2.106553e+002
1.418900e+003, 2.115380e+002
1.420828e+003, 2.116346e+002
1.422757e+003, 2.119982e+002
1.424685e+003, 2.128412e+002
1.426614e+003, 2.138378e+002
1.428542e+003, 2.147796e+002
1.430470e+003, 2.157450e+002
1.432399e+003, 2.169311e+002
1.434327e+003, 2.183553e+002
1.436256e+003, 2.200019e+002
1.438184e+003, 2.221657e+002
1.440113e+003, 2.242327e+002
1.442041e+003, 2.257819e+002
1.443970e+003, 2.269304e+002
1.445898e+003, 2.278661e+002
1.447827e+003, 2.284855e+002
1.449755e+003, 2.292754e+002
1.451684e+003, 2.306448e+002
1.453612e+003, 2.318254e+002
1.455541e+003, 2.324707e+002
1.457469e+003, 2.326615e+002
1.459397e+003, 2.326401e+002
1.461326e+003, 2.325552e+002
1.463254e+003, 2.319306e+002
1.465183e+003, 2.302593e+002
1.467111e+003, 2.285726e+002
1.469040e+003, 2.273104e+002
1.470968e+003, 2.263321e+002
1.472897e+003, 2.253156e+002
1.474825e+003, 2.242216e+002
1.476754e+003, 2.231164e+002
1.478682e+003, 2.219918e+002
1.480611e+003, 2.208575e+002
1.482539e+003, 2.196140e+002
1.484468e+003, 2.184034e+002
1.486396e+003, 2.175534e+002
1.488324e+003, 2.172382e+002
1.490253e+003, 2.165525e+002
1.492181e+003, 2.149100e+002
1.494110e+003, 2.135187e+002
1.496038e+003, 2.128975e+002
1.497967e+003, 2.126798e+002
1.499895e+003, 2.122894e+002
1.501824e+003, 2.117325e+002
1.503752e+003, 2.117615e+002
1.505681e+003, 2.130632e+002
1.507609e+003, 2.139044e+002
1.509538e+003, 2.133855e+002
1.511466e+003, 2.123799e+002
1.513395e+003, 2.115909e+002
1.515323e+003, 2.110458e+002
1.517251e+003, 2.109678e+002
1.519180e+003, 2.114070e+002
1.521108e+003, 2.121399e+002
1.523037e+003, 2.135450e+002
1.524965e+003, 2.146998e+002
1.526894e+003, 2.146894e+002
1.528822e+003, 2.138086e+002
1.530751e+003, 2.134591e+002
1.532679e+003, 2.139462e+002
1.534608e+003, 2.141393e+002
1.536536e+003, 2.134898e+002
1.538465e+003, 2.129583e+002
1.540393e+003, 2.131353e+002
1.542322e+003, 2.138476e+002
1.544250e+003, 2.145748e+002
1.546178e+003, 2.152926e+002
1.548107e+003, 2.160866e+002
1.550035e+003, 2.168801e+002
1.551964e+003, 2.177027e+002
1.553892e+003, 2.185750e+002
1.555821e+003, 2.193784e+002
1.557749e+003, 2.200048e+002
1.559678e+003, 2.204717e+002
1.561606e+003, 2.206544e+002
1.563535e+003, 2.198909e+002
1.565463e+003, 2.198416e+002
1.567392e+003, 2.216194e+002
1.569320e+003, 2.235654e+002
1.571249e+003, 2.240842e+002
1.573177e+003, 2.233453e+002
1.575105e+003, 2.230271e+002
1.577034e+003, 2.232087e+002
1.578962e+003, 2.236621e+002
1.580891e+003, 2.249900e+002
1.582819e+003, 2.259619e+002
1.584748e+003, 2.255472e+002
1.586676e+003, 2.244702e+002
1.588605e+003, 2.242865e+002
1.590533e+003, 2.252490e+002
1.592462e+003, 2.263577e+002
1.594390e+003, 2.280084e+002
1.596319e+003, 2.292543e+002
1.598247e+003, 2.295528e+002
1.600176e+003, 2.294282e+002
1.602104e+003, 2.292347e+002
1.604032e+003, 2.289931e+002
1.605961e+003, 2.293859e+002
1.607889e+003, 2.307901e+002
1.609818e+003, 2.319014e+002
1.611746e+003, 2.325122e+002
1.613675e+003, 2.327778e+002
1.615603e+003, 2.327980e+002
1.617532e+003, 2.325715e+002
1.619460e+003, 2.319838e+002
1.621389e+003, 2.309997e+002
1.623317e+003, 2.302471e+002
1.625246e+003, 2.298708e+002
1.627174e+003, 2.295918e+002
1.629103e+003, 2.293459e+002
1.631031e+003, 2.290886e+002
1.632959e+003, 2.287684e+002
1.634888e+003, 2.283837e+002
1.636816e+003, 2.279765e+002
1.638745e+003, 2.275561e+002
1.640673e+003, 2.270747e+002
1.642602e+003, 2.262504e+002
1.644530e+003, 2.257385e+002
1.646459e+003, 2.261789e+002
1.648387e+003, 2.270493e+002
1.650316e+003, 2.275609e+002
1.652244e+003, 2.277199e+002
1.654173e+003, 2.277886e+002
1.656101e+003, 2.277375e+002
1.658030e+003, 2.276659e+002
1.659958e+003, 2.275258e+002
1.661886e+003, 2.274082e+002
1.663815e+003, 2.275159e+002
1.665743e+003, 2.276775e+002
1.667672e+003, 2.273855e+002
1.669600e+003, 2.265775e+002
1.671529e+003, 2.261520e+002
1.673457e+003, 2.263736e+002
1.675386e+003, 2.268294e+002
1.677314e+003, 2.276574e+002
1.679243e+003, 2.283859e+002
1.681171e+003, 2.282906e+002
1.683100e+003, 2.276619e+002
1.685028e+003, 2.279231e+002
1.686957e+003, 2.293821e+002
1.688885e+003, 2.303149e+002
1.690813e+003, 2.299279e+002
1.692742e+003, 2.295739e+002
1.694670e+003, 2.300078e+002
1.696599e+003, 2.308249e+002
1.698527e+003, 2.316710e+002
1.700456e+003, 2.325135e+002
1.702384e+003, 2.330433e+002
1.704313e+003, 2.331790e+002
1.706241e+003, 2.332715e+002
1.708170e+003, 2.334738e+002
1.710098e+003, 2.336007e+002
1.712027e+003, 2.333968e+002
1.713955e+003, 2.331655e+002
1.715884e+003, 2.333775e+002
1.717812e+003, 2.340016e+002
1.719740e+003, 2.345362e+002
1.721669e+003, 2.348517e+002
1.723597e+003, 2.352887e+002
1.725526e+003, 2.359353e+002
1.727454e+003, 2.366746e+002
1.729383e+003, 2.375959e+002
1.731311e+003, 2.384512e+002
1.733240e+003, 2.388043e+002
1.735168e+003, 2.386918e+002
1.737097e+003, 2.386731e+002
1.739025e+003, 2.388369e+002
1.740954e+003, 2.390867e+002
1.742882e+003, 2.395909e+002
1.744811e+003, 2.399782e+002
1.746739e+003, 2.397486e+002
1.748667e+003, 2.393859e+002
1.750596e+003, 2.396959e+002
1.752524e+003, 2.406407e+002
1.754453e+003, 2.415881e+002
1.756381e+003, 2.425342e+002
1.758310e+003, 2.433392e+002
1.760238e+003, 2.438000e+002
1.762167e+003, 2.442955e+002
1.764095e+003, 2.451610e+002
1.766024e+003, 2.461019e+002
1.767952e+003, 2.465855e+002
1.769880e+003, 2.466476e+002
1.771809e+003, 2.469157e+002
1.773737e+003, 2.474225e+002
1.775666e+003, 2.481378e+002
1.777594e+003, 2.496091e+002
1.779523e+003, 2.506658e+002
1.781451e+003, 2.501925e+002
1.783380e+003, 2.493352e+002
1.785308e+003, 2.499157e+002
1.787237e+003, 2.516809e+002
1.789165e+003, 2.523756e+002
1.791094e+003, 2.515027e+002
1.793022e+003, 2.510765e+002
1.794951e+003, 2.516720e+002
1.796879e+003, 2.524517e+002
1.798807e+003, 2.533520e+002
1.800736e+003, 2.540881e+002
1.802664e+003, 2.541161e+002
1.804593e+003, 2.536583e+002
1.806521e+003, 2.539162e+002
1.808450e+003, 2.550889e+002
1.810378e+003, 2.561456e+002
1.812307e+003, 2.571527e+002
1.814235e+003, 2.578038e+002
1.816164e+003, 2.575406e+002
1.818092e+003, 2.573185e+002
1.820021e+003, 2.581281e+002
1.821949e+003, 2.595122e+002
1.823878e+003, 2.602559e+002
1.825806e+003, 2.602387e+002
1.827734e+003, 2.603855e+002
1.829663e+003, 2.608898e+002
1.831591e+003, 2.613296e+002
1.833520e+003, 2.615539e+002
1.835448e+003, 2.618445e+002
1.837377e+003, 2.623287e+002
1.839305e+003, 2.629475e+002
1.841234e+003, 2.636753e+002
1.843162e+003, 2.644789e+002
1.845091e+003, 2.650194e+002
1.847019e+003, 2.650524e+002
1.848948e+003, 2.653939e+002
1.850876e+003, 2.664319e+002
1.852805e+003, 2.673880e+002
1.854733e+003, 2.683266e+002
1.856661e+003, 2.688968e+002
1.858590e+003, 2.683206e+002
1.860518e+003, 2.672537e+002
1.862447e+003, 2.676992e+002
1.864375e+003, 2.697776e+002
1.866304e+003, 2.713556e+002
1.868232e+003, 2.721929e+002
1.870161e+003, 2.727417e+002
1.872089e+003, 2.727198e+002
1.874018e+003, 2.729467e+002
1.875946e+003, 2.742690e+002
1.877875e+003, 2.757278e+002
1.879803e+003, 2.760132e+002
1.881732e+003, 2.755224e+002
1.883660e+003, 2.759243e+002
1.885589e+003, 2.773849e+002
1.887517e+003, 2.781921e+002
1.889445e+003, 2.776705e+002
1.891374e+003, 2.775242e+002
1.893302e+003, 2.787226e+002
1.895231e+003, 2.800457e+002
1.897159e+003, 2.805504e+002
1.899088e+003, 2.808216e+002
1.901016e+003, 2.819301e+002
1.902945e+003, 2.836968e+002
1.904873e+003, 2.846912e+002
1.906802e+003, 2.846285e+002
1.908730e+003, 2.848285e+002
1.910659e+003, 2.855135e+002
1.912587e+003, 2.863736e+002
1.914516e+003, 2.876044e+002
1.916444e+003, 2.886889e+002
1.918372e+003, 2.890510e+002
1.920301e+003, 2.891252e+002
1.922229e+003, 2.898007e+002
1.924158e+003, 2.910736e+002
1.926086e+003, 2.918586e+002
1.928015e+003, 2.916206e+002
1.929943e+003, 2.918952e+002
1.931872e+003, 2.929745e+002
1.933800e+003, 2.941217e+002
1.935729e+003, 2.955208e+002
1.937657e+003, 2.965294e+002
1.939586e+003, 2.963827e+002
1.941514e+003, 2.957607e+002
1.943443e+003, 2.958597e+002
1.945371e+003, 2.966629e+002
1.947299e+003, 2.976009e+002
1.949228e+003, 2.987244e+002
1.951156e+003, 2.996674e+002
1.953085e+003, 3.003098e+002
1.955013e+003, 3.008704e+002
1.956942e+003, 3.012562e+002
1.958870e+003, 3.017839e+002
1.960799e+003, 3.027255e+002
1.962727e+003, 3.039126e+002
1.964656e+003, 3.052032e+002
1.966584e+003, 3.065417e+002
1.968513e+003, 3.076936e+002
1.970441e+003, 3.086176e+002
1.972370e+003, 3.093783e+002
1.974298e+003, 3.096859e+002
1.976226e+003, 3.103706e+002
1.978155e+003, 3.121610e+002
1.980083e+003, 3.137706e+002
1.982012e+003, 3.143855e+002
1.983940e+003, 3.146392e+002
1.985869e+003, 3.151451e+002
1.987797e+003, 3.159022e+002
1.989726e+003, 3.169153e+002
1.991654e+003, 3.182316e+002
1.993583e+003, 3.194390e+002
1.995511e+003, 3.203493e+002
1.997440e+003, 3.214286e+002
1.999368e+003, 3.230333e+002
2.001297e+003, 3.243686e+002
2.003225e+003, 3.249806e+002
2.005153e+003, 3.254948e+002
2.007082e+003, 3.266451e+002
2.009010e+003, 3.278961e+002
2.010939e+003, 3.278670e+002
2.012867e+003, 3.269693e+002
2.014796e+003, 3.278292e+002
2.016724e+003, 3.307597e+002
2.018653e+003, 3.328722e+002
2.020581e+003, 3.333478e+002
2.022510e+003, 3.340625e+002
2.024438e+003, 3.357067e+002
2.026367e+003, 3.375041e+002
2.028295e+003, 3.392133e+002
2.030224e+003, 3.407492e+002
2.032152e+003, 3.419853e+002
2.034080e+003, 3.430128e+002
2.036009e+003, 3.440641e+002
2.037937e+003, 3.451550e+002
2.039866e+003, 3.460630e+002
2.041794e+003, 3.466836e+002
2.043723e+003, 3.473502e+002
2.045651e+003, 3.481240e+002
2.047580e+003, 3.488609e+002
2.049508e+003, 3.494695e+002
2.051437e+003, 3.501025e+002
2.053365e+003, 3.508874e+002
2.055294e+003, 3.516763e+002
2.057222e+003, 3.522624e+002
2.059151e+003, 3.527409e+002
2.061079e+003, 3.533483e+002
2.063008e+003, 3.540981e+002
2.064936e+003, 3.551592e+002
2.066865e+003, 3.566581e+002
2.068793e+003, 3.577703e+002
2.070721e+003, 3.582887e+002
2.072650e+003, 3.586067e+002
2.074578e+003, 3.586362e+002
2.076507e+003, 3.587187e+002
2.078435e+003, 3.590114e+002
2.080364e+003, 3.593775e+002
2.082292e+003, 3.596385e+002
2.084220e+003, 3.598773e+002
2.086149e+003, 3.603525e+002
2.088077e+003, 3.610749e+002
2.090006e+003, 3.617659e+002
2.091934e+003, 3.626047e+002
2.093863e+003, 3.629433e+002
2.095791e+003, 3.625020e+002
2.097720e+003, 3.621691e+002
2.099648e+003, 3.622504e+002
2.101577e+003, 3.621808e+002
2.103505e+003, 3.612885e+002
2.105434e+003, 3.606178e+002
2.107362e+003, 3.613470e+002
2.109291e+003, 3.625353e+002
2.111219e+003, 3.629387e+002
2.113147e+003, 3.627570e+002
2.115076e+003, 3.624086e+002
2.117004e+003, 3.618599e+002
2.118933e+003, 3.621053e+002
2.120861e+003, 3.637014e+002
2.122790e+003, 3.644668e+002
2.124718e+003, 3.634659e+002
2.126647e+003, 3.625284e+002
2.128575e+003, 3.621147e+002
2.130504e+003, 3.617826e+002
2.132432e+003, 3.615564e+002
2.134361e+003, 3.612462e+002
2.136289e+003, 3.607305e+002
2.138218e+003, 3.600839e+002
2.140146e+003, 3.592344e+002
2.142074e+003, 3.583037e+002
2.144003e+003, 3.577915e+002
2.145931e+003, 3.576757e+002
2.147860e+003, 3.580372e+002
2.149788e+003, 3.590286e+002
2.151717e+003, 3.596023e+002
2.153645e+003, 3.592654e+002
2.155574e+003, 3.590008e+002
2.157502e+003, 3.590280e+002
2.159431e+003, 3.593493e+002
2.161359e+003, 3.602970e+002
2.163288e+003, 3.612544e+002
2.165216e+003, 3.616644e+002
2.167145e+003, 3.616797e+002
2.169073e+003, 3.613444e+002
2.171001e+003, 3.607945e+002
2.172930e+003, 3.610828e+002
2.174858e+003, 3.622034e+002
2.176787e+003, 3.625449e+002
2.178715e+003, 3.618439e+002
2.180644e+003, 3.613013e+002
2.182572e+003, 3.610203e+002
2.184501e+003, 3.611769e+002
2.186429e+003, 3.625072e+002
2.188358e+003, 3.633435e+002
2.190286e+003, 3.625653e+002
2.192215e+003, 3.615653e+002
2.194143e+003, 3.612894e+002
2.196072e+003, 3.614025e+002
2.198000e+003, 3.614345e+002
2.199928e+003, 3.615137e+002
2.201857e+003, 3.622029e+002
2.203785e+003, 3.634315e+002
2.205714e+003, 3.636737e+002
2.207642e+003, 3.628516e+002
2.209571e+003, 3.621190e+002
2.211499e+003, 3.614888e+002
2.213428e+003, 3.614261e+002
2.215356e+003, 3.622333e+002
2.217285e+003, 3.630887e+002
2.219213e+003, 3.638109e+002
2.221142e+003, 3.643400e+002
2.223070e+003, 3.644265e+002
2.224999e+003, 3.644991e+002
2.226927e+003, 3.652246e+002
2.228855e+003, 3.658521e+002
2.230784e+003, 3.650100e+002
2.232712e+003, 3.634945e+002
2.234641e+003, 3.634656e+002
2.236569e+003, 3.647579e+002
2.238498e+003, 3.655153e+002
2.240426e+003, 3.657107e+002
2.242355e+003, 3.659150e+002
2.244283e+003, 3.661529e+002
2.246212e+003, 3.663948e+002
2.248140e+003, 3.667232e+002
2.250069e+003, 3.668101e+002
2.251997e+003, 3.661657e+002
2.253926e+003, 3.658922e+002
2.255854e+003, 3.668545e+002
2.257782e+003, 3.677271e+002
2.259711e+003, 3.675888e+002
2.261639e+003, 3.671084e+002
2.263568e+003, 3.666751e+002
2.265496e+003, 3.664399e+002
2.267425e+003, 3.668417e+002
2.269353e+003, 3.676187e+002
2.271282e+003, 3.680366e+002
2.273210e+003, 3.681414e+002
2.275139e+003, 3.680730e+002
2.277067e+003, 3.678452e+002
2.278996e+003, 3.677189e+002
2.280924e+003, 3.675717e+002
2.282853e+003, 3.679134e+002
2.284781e+003, 3.689579e+002
2.286709e+003, 3.701308e+002
2.288638e+003, 3.717930e+002
2.290566e+003, 3.728705e+002
2.292495e+003, 3.725182e+002
2.294423e+003, 3.721973e+002
2.296352e+003, 3.726700e+002
2.298280e+003, 3.734597e+002
2.300209e+003, 3.744731e+002
2.302137e+003, 3.753906e+002
2.304066e+003, 3.757916e+002
2.305994e+003, 3.757974e+002
2.307923e+003, 3.755380e+002
2.309851e+003, 3.750757e+002
2.311780e+003, 3.748323e+002
2.313708e+003, 3.747870e+002
2.315636e+003, 3.751530e+002
2.317565e+003, 3.761767e+002
2.319493e+003, 3.762558e+002
2.321422e+003, 3.749892e+002
2.323350e+003, 3.743174e+002
2.325279e+003, 3.746431e+002
2.327207e+003, 3.754310e+002
2.329136e+003, 3.771030e+002
2.331064e+003, 3.782131e+002
2.332993e+003, 3.775397e+002
2.334921e+003, 3.770045e+002
2.336850e+003, 3.778548e+002
2.338778e+003, 3.788639e+002
2.340707e+003, 3.792942e+002
2.342635e+003, 3.791702e+002
2.344563e+003, 3.779266e+002
2.346492e+003, 3.765577e+002
2.348420e+003, 3.771592e+002
2.350349e+003, 3.789661e+002
2.352277e+003, 3.800261e+002
2.354206e+003, 3.803801e+002
2.356134e+003, 3.802066e+002
2.358063e+003, 3.794020e+002
2.359991e+003, 3.792659e+002
2.361920e+003, 3.801036e+002
2.363848e+003, 3.804789e+002
2.365777e+003, 3.801388e+002
2.367705e+003, 3.799813e+002
2.369634e+003, 3.802588e+002
2.371562e+003, 3.803575e+002
2.373490e+003, 3.799897e+002
2.375419e+003, 3.799111e+002
2.377347e+003, 3.808191e+002
2.379276e+003, 3.814303e+002
2.381204e+003, 3.809214e+002
2.383133e+003, 3.801611e+002
2.385061e+003, 3.791583e+002
2.386990e+003, 3.787256e+002
2.388918e+003, 3.801641e+002
2.390847e+003, 3.821147e+002
2.392775e+003, 3.829136e+002
2.394704e+003, 3.829948e+002
2.396632e+003, 3.830561e+002
2.398561e+003, 3.830376e+002
2.400489e+003, 3.825373e+002
2.402417e+003, 3.817892e+002
2.404346e+003, 3.824070e+002
2.406274e+003, 3.844640e+002
2.408203e+003, 3.859155e+002
2.410131e+003, 3.865362e+002
2.412060e+003, 3.879793e+002
2.413988e+003, 3.908011e+002
2.415917e+003, 3.918442e+002
2.417845e+003, 3.902784e+002
2.419774e+003, 3.890724e+002
2.421702e+003, 3.885675e+002
2.423631e+003, 3.888800e+002
2.425559e+003, 3.903946e+002
2.427488e+003, 3.921512e+002
2.429416e+003, 3.945259e+002
2.431344e+003, 3.961985e+002
2.433273e+003, 3.964471e+002
2.435201e+003, 3.961104e+002
2.437130e+003, 3.948295e+002
2.439058e+003, 3.940315e+002
2.440987e+003, 3.950490e+002
2.442915e+003, 3.965465e+002
2.444844e+003, 3.977183e+002
2.446772e+003, 3.983903e+002
2.448701e+003, 3.979126e+002
2.450629e+003, 3.971177e+002
2.452558e+003, 3.976443e+002
2.454486e+003, 3.989525e+002
2.456415e+003, 3.994230e+002
2.458343e+003, 3.992860e+002
2.460271e+003, 3.997787e+002
2.462200e+003, 4.007381e+002
2.464128e+003, 4.013943e+002
2.466057e+003, 4.017110e+002
2.467985e+003, 4.023525e+002
2.469914e+003, 4.035303e+002
2.471842e+003, 4.039586e+002
2.473771e+003, 4.033897e+002
2.475699e+003, 4.029783e+002
2.477628e+003, 4.026675e+002
2.479556e+003, 4.029890e+002
2.481485e+003, 4.041236e+002
2.483413e+003, 4.053913e+002
2.485342e+003, 4.067873e+002
2.487270e+003, 4.078109e+002
2.489198e+003, 4.081748e+002
2.491127e+003, 4.083576e+002
2.493055e+003, 4.079687e+002
2.494984e+003, 4.082668e+002
2.496912e+003, 4.104746e+002
2.498841e+003, 4.123423e+002
2.500769e+003, 4.127244e+002
2.502698e+003, 4.129244e+002
2.504626e+003, 4.135465e+002
2.506555e+003, 4.143204e+002
2.508483e+003, 4.153921e+002
2.510412e+003, 4.161365e+002
2.512340e+003, 4.156665e+002
2.514269e+003, 4.150371e+002
2.516197e+003, 4.154455e+002
2.518125e+003, 4.163103e+002
2.520054e+003, 4.168734e+002
2.521982e+003, 4.173766e+002
2.523911e+003, 4.180417e+002
2.525839e+003, 4.189217e+002
2.527768e+003, 4.204764e+002
2.529696e+003, 4.222314e+002
2.531625e+003, 4.228658e+002
2.533553e+003, 4.226791e+002
2.535482e+003, 4.225867e+002
2.537410e+003, 4.226996e+002
2.539339e+003, 4.235448e+002
2.541267e+003, 4.250009e+002
2.543196e+003, 4.264274e+002
2.545124e+003, 4.277234e+002
2.547052e+003, 4.280846e+002
2.548981e+003, 4.272518e+002
2.550909e+003, 4.274700e+002
2.552838e+003, 4.290605e+002
2.554766e+003, 4.292725e+002
2.556695e+003, 4.278609e+002
2.558623e+003, 4.280160e+002
2.560552e+003, 4.303783e+002
2.562480e+003, 4.317988e+002
2.564409e+003, 4.316482e+002
2.566337e+003, 4.314454e+002
2.568266e+003, 4.311644e+002
2.570194e+003, 4.311478e+002
2.572123e+003, 4.312430e+002
2.574051e+003, 4.321211e+002
2.575979e+003, 4.342366e+002
2.577908e+003, 4.358611e+002
2.579836e+003, 4.362933e+002
2.581765e+003, 4.368156e+002
2.583693e+003, 4.378903e+002
2.585622e+003, 4.388492e+002
2.587550e+003, 4.391998e+002
2.589479e+003, 4.399372e+002
2.591407e+003, 4.415974e+002
2.593336e+003, 4.430064e+002
2.595264e+003, 4.436664e+002
2.597193e+003, 4.441328e+002
2.599121e+003, 4.446817e+002
2.601050e+003, 4.450732e+002
2.602978e+003, 4.450491e+002
2.604906e+003, 4.451357e+002
2.606835e+003, 4.454713e+002
2.608763e+003, 4.462440e+002
2.610692e+003, 4.479142e+002
2.612620e+003, 4.495109e+002
2.614549e+003, 4.504935e+002
2.616477e+003, 4.510922e+002
2.618406e+003, 4.510904e+002
2.620334e+003, 4.511789e+002
2.622263e+003, 4.519408e+002
2.624191e+003, 4.529306e+002
2.626120e+003, 4.539831e+002
2.628048e+003, 4.549692e+002
2.629977e+003, 4.557306e+002
2.631905e+003, 4.564435e+002
2.633833e+003, 4.568623e+002
2.635762e+003, 4.576489e+002
2.637690e+003, 4.596919e+002
2.639619e+003, 4.621368e+002
2.641547e+003, 4.651062e+002
2.643476e+003, 4.670056e+002
2.645404e+003, 4.649444e+002
2.647333e+003, 4.622998e+002
2.649261e+003, 4.629667e+002
2.651190e+003, 4.651421e+002
2.653118e+003, 4.670542e+002
2.655047e+003, 4.685518e+002
2.656975e+003, 4.692435e+002
2.658904e+003, 4.694549e+002
2.660832e+003, 4.693013e+002
2.662760e+003, 4.692368e+002
2.664689e+003, 4.701116e+002
2.666617e+003, 4.713145e+002
2.668546e+003, 4.719337e+002
2.670474e+003, 4.722968e+002
2.672403e+003, 4.731630e+002
2.674331e+003, 4.739859e+002
2.676260e+003, 4.730739e+002
2.678188e+003, 4.720901e+002
2.680117e+003, 4.740937e+002
2.682045e+003, 4.773636e+002
2.683974e+003, 4.793216e+002
2.685902e+003, 4.801221e+002
2.687831e+003, 4.791554e+002
2.689759e+003, 4.778138e+002
2.691688e+003, 4.792397e+002
2.693616e+003, 4.817400e+002
2.695544e+003, 4.824190e+002
2.697473e+003, 4.822838e+002
2.699401e+003, 4.831929e+002
2.701330e+003, 4.846148e+002
2.703258e+003, 4.854774e+002
2.705187e+003, 4.861343e+002
2.707115e+003, 4.872940e+002
2.709044e+003, 4.886261e+002
2.710972e+003, 4.895480e+002
2.712901e+003, 4.902471e+002
2.714829e+003, 4.909755e+002
2.716758e+003, 4.917977e+002
2.718686e+003, 4.930394e+002
2.720615e+003, 4.943390e+002
2.722543e+003, 4.946723e+002
2.724471e+003, 4.949313e+002
2.726400e+003, 4.968235e+002
2.728328e+003, 4.992015e+002
2.730257e+003, 4.993739e+002
2.732185e+003, 4.994611e+002
2.734114e+003, 5.042490e+002
2.736042e+003, 5.101205e+002
2.737971e+003, 5.117614e+002
2.739899e+003, 5.110597e+002
2.741828e+003, 5.093574e+002
2.743756e+003, 5.077432e+002
2.745685e+003, 5.076679e+002
2.747613e+003, 5.085427e+002
2.749542e+003, 5.102489e+002
2.751470e+003, 5.117370e+002
2.753398e+003, 5.114312e+002
2.755327e+003, 5.106982e+002
2.757255e+003, 5.109511e+002
2.759184e+003, 5.117372e+002
2.761112e+003, 5.127737e+002
2.763041e+003, 5.139272e+002
2.764969e+003, 5.153353e+002
2.766898e+003, 5.165005e+002
2.768826e+003, 5.163846e+002
2.770755e+003, 5.165235e+002
2.772683e+003, 5.186539e+002
2.774612e+003, 5.210152e+002
2.776540e+003, 5.218091e+002
2.778469e+003, 5.226152e+002
2.780397e+003, 5.250805e+002
2.782325e+003, 5.270971e+002
2.784254e+003, 5.268613e+002
2.786182e+003, 5.262706e+002
2.788111e+003, 5.265192e+002
2.790039e+003, 5.269074e+002
2.791968e+003, 5.267527e+002
2.793896e+003, 5.272278e+002
2.795825e+003, 5.292398e+002
2.797753e+003, 5.314571e+002
2.799682e+003, 5.337833e+002
2.801610e+003, 5.352996e+002
2.803539e+003, 5.346362e+002
2.805467e+003, 5.345966e+002
2.807396e+003, 5.362361e+002
2.809324e+003, 5.378776e+002
2.811252e+003, 5.389606e+002
2.813181e+003, 5.398315e+002
2.815109e+003, 5.404841e+002
2.817038e+003, 5.411954e+002
2.818966e+003, 5.422919e+002
2.820895e+003, 5.428707e+002
2.822823e+003, 5.425439e+002
2.824752e+003, 5.427950e+002
2.826680e+003, 5.442147e+002
2.828609e+003, 5.456384e+002
2.830537e+003, 5.468308e+002
2.832466e+003, 5.482634e+002
2.834394e+003, 5.500544e+002
2.836323e+003, 5.509858e+002
2.838251e+003, 5.506299e+002
2.840179e+003, 5.517502e+002
2.842108e+003, 5.552267e+002
2.844036e+003, 5.574665e+002
2.845965e+003, 5.584226e+002
2.847893e+003, 5.588521e+002
2.849822e+003, 5.588504e+002
2.851750e+003, 5.600107e+002
2.853679e+003, 5.622773e+002
2.855607e+003, 5.632566e+002
2.857536e+003, 5.631408e+002
2.859464e+003, 5.645759e+002
2.861393e+003, 5.670749e+002
2.863321e+003, 5.683852e+002
2.865250e+003, 5.689373e+002
2.867178e+003, 5.698237e+002
2.869106e+003, 5.711058e+002
2.871035e+003, 5.733945e+002
2.872963e+003, 5.757354e+002
2.874892e+003, 5.753069e+002
2.876820e+003, 5.744035e+002
2.878749e+003, 5.766888e+002
2.880677e+003, 5.800184e+002
2.882606e+003, 5.820837e+002
2.884534e+003, 5.834170e+002
2.886463e+003, 5.842220e+002
2.888391e+003, 5.850094e+002
2.890320e+003, 5.863634e+002
2.892248e+003, 5.875475e+002
2.894177e+003, 5.872187e+002
2.896105e+003, 5.877814e+002
2.898033e+003, 5.918928e+002
2.899962e+003, 5.949111e+002
2.901890e+003, 5.942592e+002
2.903819e+003, 5.937042e+002
2.905747e+003, 5.946465e+002
2.907676e+003, 5.959667e+002
2.909604e+003, 5.975469e+002
2.911533e+003, 5.991162e+002
2.913461e+003, 6.007224e+002
2.915390e+003, 6.019636e+002
2.917318e+003, 6.025807e+002
2.919247e+003, 6.035198e+002
2.921175e+003, 6.050001e+002
2.923104e+003, 6.059831e+002
2.925032e+003, 6.063913e+002
2.926960e+003, 6.077130e+002
2.928889e+003, 6.100496e+002
2.930817e+003, 6.132471e+002
2.932746e+003, 6.170784e+002
2.934674e+003, 6.170480e+002
2.936603e+003, 6.143559e+002
2.938531e+003, 6.139158e+002
2.940460e+003, 6.153087e+002
2.942388e+003, 6.177689e+002
2.944317e+003, 6.206406e+002
2.946245e+003, 6.229213e+002
2.948174e+003, 6.244156e+002
2.950102e+003, 6.239182e+002
2.952031e+003, 6.235729e+002
2.953959e+003, 6.260375e+002
2.955887e+003, 6.290164e+002
2.957816e+003, 6.306353e+002
2.959744e+003, 6.319350e+002
2.961673e+003, 6.336865e+002
2.963601e+003, 6.349060e+002
2.965530e+003, 6.343962e+002
2.967458e+003, 6.344905e+002
2.969387e+003, 6.363180e+002
2.971315e+003, 6.383544e+002
2.973244e+003, 6.406043e+002
2.975172e+003, 6.422707e+002
2.977101e+003, 6.429221e+002
2.979029e+003, 6.438713e+002
2.980958e+003, 6.451540e+002
2.982886e+003, 6.468919e+002
2.984814e+003, 6.490194e+002
2.986743e+003, 6.503712e+002
2.988671e+003, 6.509313e+002
2.990600e+003, 6.521274e+002
2.992528e+003, 6.537977e+002
2.994457e+003, 6.546699e+002
2.996385e+003, 6.554037e+002
2.998314e+003, 6.583061e+002
3.000242e+003, 6.616160e+002
3.002171e+003, 6.618643e+002
3.004099e+003, 6.613453e+002
3.006028e+003, 6.631444e+002
3.007956e+003, 6.651511e+002
3.009885e+003, 6.651693e+002
3.011813e+003, 6.655088e+002
3.013741e+003, 6.675851e+002
3.015670e+003, 6.704076e+002
3.017598e+003, 6.742700e+002
3.019527e+003, 6.769766e+002
3.021455e+003, 6.772769e+002
3.023384e+003, 6.779390e+002
3.025312e+003, 6.799291e+002
3.027241e+003, 6.816293e+002
3.029169e+003, 6.830245e+002
3.031098e+003, 6.841918e+002
3.033026e+003, 6.851893e+002
3.034955e+003, 6.864215e+002
3.036883e+003, 6.879310e+002
3.038812e+003, 6.898116e+002
3.040740e+003, 6.919504e+002
3.042668e+003, 6.943206e+002
3.044597e+003, 6.962921e+002
3.046525e+003, 6.956622e+002
3.048454e+003, 6.948845e+002
3.050382e+003, 6.980750e+002
3.052311e+003, 7.018226e+002
3.054239e+003, 7.031748e+002
3.056168e+003, 7.043107e+002
3.058096e+003, 7.067618e+002
3.060025e+003, 7.090143e+002
3.061953e+003, 7.105599e+002
3.063882e+003, 7.117614e+002
3.065810e+003, 7.125214e+002
3.067739e+003, 7.135097e+002
3.069667e+003, 7.146740e+002
3.071595e+003, 7.166370e+002
3.073524e+003, 7.194402e+002
3.075452e+003, 7.225864e+002
3.077381e+003, 7.259836e+002
3.079309e+003, 7.291059e+002
3.081238e+003, 7.316849e+002
3.083166e+003, 7.323526e+002
3.085095e+003, 7.318782e+002
3.087023e+003, 7.310482e+002
3.088952e+003, 7.309048e+002
3.090880e+003, 7.333532e+002
3.092809e+003, 7.364146e+002
3.094737e+003, 7.392069e+002
3.096666e+003, 7.411299e+002
3.098594e+003, 7.409640e+002
3.100522e+003, 7.415002e+002
3.102451e+003, 7.444114e+002
3.104379e+003, 7.462994e+002
3.106308e+003, 7.464465e+002
3.108236e+003, 7.471398e+002
3.110165e+003, 7.486161e+002
3.112093e+003, 7.513966e+002
3.114022e+003, 7.554501e+002
3.115950e+003, 7.571758e+002
3.117879e+003, 7.574167e+002
3.119807e+003, 7.590056e+002
3.121736e+003, 7.612277e+002
3.123664e+003, 7.622565e+002
3.125593e+003, 7.635509e+002
3.127521e+003, 7.671946e+002
3.129449e+003, 7.710123e+002
3.131378e+003, 7.736208e+002
3.133306e+003, 7.756203e+002
3.135235e+003, 7.767804e+002
3.137163e+003, 7.783124e+002
3.139092e+003, 7.805277e+002
3.141020e+003, 7.828205e+002
3.142949e+003, 7.851569e+002
3.144877e+003, 7.873683e+002
3.146806e+003, 7.894326e+002
3.148734e+003, 7.909528e+002
3.150663e+003, 7.919943e+002
3.152591e+003, 7.926202e+002
3.154520e+003, 7.932350e+002
3.156448e+003, 7.945879e+002
3.158376e+003, 7.965969e+002
3.160305e+003, 7.991796e+002
3.162233e+003, 8.023002e+002
3.164162e+003, 8.069359e+002
3.166090e+003, 8.100365e+002
3.168019e+003, 8.094125e+002
3.169947e+003, 8.100833e+002
3.171876e+003, 8.143300e+002
3.173804e+003, 8.175731e+002
3.175733e+003, 8.194569e+002
3.177661e+003, 8.215101e+002
3.179590e+003, 8.237307e+002
3.181518e+003, 8.247750e+002
3.183447e+003, 8.252100e+002
3.185375e+003, 8.268215e+002
3.187303e+003, 8.289109e+002
3.189232e+003, 8.300157e+002
3.191160e+003, 8.314879e+002
3.193089e+003, 8.348445e+002
3.195017e+003, 8.383337e+002
3.196946e+003, 8.410079e+002
3.198874e+003, 8.440560e+002
3.200803e+003, 8.482364e+002
3.202731e+003, 8.519686e+002
3.204660e+003, 8.551216e+002
3.206588e+003, 8.581097e+002
3.208517e+003, 8.607980e+002
3.210445e+003, 8.614135e+002
3.212374e+003, 8.608450e+002
3.214302e+003, 8.621041e+002
3.216230e+003, 8.645729e+002
3.218159e+003, 8.678598e+002
3.220087e+003, 8.710889e+002
3.222016e+003, 8.732595e+002
3.223944e+003, 8.756157e+002
3.225873e+003, 8.789959e+002
3.227801e+003, 8.817380e+002
3.229730e+003, 8.829852e+002
3.231658e+003, 8.849999e+002
3.233587e+003, 8.881591e+002
3.235515e+003, 8.902340e+002
3.237444e+003, 8.914395e+002
3.239372e+003, 8.930524e+002
3.241301e+003, 8.951879e+002
3.243229e+003, 8.978795e+002
3.245157e+003, 9.013612e+002
3.247086e+003, 9.065579e+002
3.249014e+003, 9.112598e+002
3.250943e+003, 9.134669e+002
3.252871e+003, 9.156165e+002
3.254800e+003, 9.184492e+002
3.256728e+003, 9.214470e+002
3.258657e+003, 9.249865e+002
3.260585e+003, 9.273210e+002
3.262514e+003, 9.286484e+002
3.264442e+003, 9.317025e+002
3.266371e+003, 9.354520e+002
3.268299e+003, 9.357827e+002
3.270228e+003, 9.358054e+002
3.272156e+003, 9.405742e+002
3.274084e+003, 9.460847e+002
3.276013e+003, 9.499807e+002
3.277941e+003, 9.534163e+002
3.279870e+003, 9.572555e+002
3.281798e+003, 9.597403e+002
3.283727e+003, 9.605479e+002
3.285655e+003, 9.623970e+002
3.287584e+003, 9.654723e+002
3.289512e+003, 9.678127e+002
3.291441e+003, 9.698036e+002
3.293369e+003, 9.726880e+002
3.295298e+003, 9.757857e+002
3.297226e+003, 9.784792e+002
3.299155e+003, 9.806259e+002
3.301083e+003, 9.818586e+002
3.303011e+003, 9.832430e+002
3.304940e+003, 9.856731e+002
3.306868e+003, 9.870797e+002
3.308797e+003, 9.872338e+002
3.310725e+003, 9.890132e+002
3.312654e+003, 9.923147e+002
3.314582e+003, 9.946651e+002
3.316511e+003, 9.965145e+002
3.318439e+003, 9.985603e+002
3.320368e+003, 1.000958e+003
3.322296e+003, 1.004269e+003
3.324225e+003, 1.007257e+003
3.326153e+003, 1.009502e+003
3.328082e+003, 1.010840e+003
3.330010e+003, 1.010768e+003
3.331938e+003, 1.012787e+003
3.333867e+003, 1.017270e+003
3.335795e+003, 1.019483e+003
3.337724e+003, 1.020354e+003
3.339652e+003, 1.023060e+003
3.341581e+003, 1.025985e+003
3.343509e+003, 1.026700e+003
3.345438e+003, 1.027123e+003
3.347366e+003, 1.027998e+003
3.349295e+003, 1.030025e+003
3.351223e+003, 1.034769e+003
3.353152e+003, 1.036816e+003
3.355080e+003, 1.035898e+003
3.357009e+003, 1.036232e+003
3.358937e+003, 1.037864e+003
3.360865e+003, 1.040618e+003
3.362794e+003, 1.043954e+003
3.364722e+003, 1.047466e+003
3.366651e+003, 1.050485e+003
3.368579e+003, 1.052036e+003
3.370508e+003, 1.053588e+003
3.372436e+003, 1.055203e+003
3.374365e+003, 1.058289e+003
3.376293e+003, 1.063518e+003
3.378222e+003, 1.066832e+003
3.380150e+003, 1.068469e+003
3.382079e+003, 1.068839e+003
3.384007e+003, 1.068900e+003
3.385936e+003, 1.069985e+003
3.387864e+003, 1.071444e+003
3.389792e+003, 1.072580e+003
3.391721e+003, 1.074500e+003
3.393649e+003, 1.078686e+003
3.395578e+003, 1.080486e+003
3.397506e+003, 1.079792e+003
3.399435e+003, 1.081843e+003
3.401363e+003, 1.085891e+003
3.403292e+003, 1.089119e+003
3.405220e+003, 1.091665e+003
3.407148e+003, 1.093264e+003
3.409077e+003, 1.094936e+003
3.411005e+003, 1.097097e+003
3.412934e+003, 1.099818e+003
3.414862e+003, 1.103295e+003
3.416791e+003, 1.105656e+003
3.418719e+003, 1.106840e+003
3.420648e+003, 1.108679e+003
3.422576e+003, 1.110577e+003
3.424505e+003, 1.110441e+003
3.426433e+003, 1.110476e+003
3.428362e+003, 1.112850e+003
3.430290e+003, 1.116287e+003
3.432219e+003, 1.120791e+003
3.434147e+003, 1.124270e+003
3.436075e+003, 1.125965e+003
3.438004e+003, 1.128903e+003
3.439932e+003, 1.132473e+003
3.441861e+003, 1.133713e+003
3.443789e+003, 1.134207e+003
3.445718e+003, 1.136900e+003
3.447646e+003, 1.139488e+003
3.449575e+003, 1.139915e+003
3.451503e+003, 1.141675e+003
3.453432e+003, 1.145673e+003
3.455360e+003, 1.150485e+003
3.457289e+003, 1.155715e+003
3.459217e+003, 1.157863e+003
3.461146e+003, 1.158895e+003
3.463074e+003, 1.164783e+003
3.465002e+003, 1.170565e+003
3.466931e+003, 1.171591e+003
3.468859e+003, 1.172485e+003
3.470788e+003, 1.174324e+003
3.472716e+003, 1.177971e+003
3.474645e+003, 1.183693e+003
3.476573e+003, 1.187125e+003
3.478502e+003, 1.188758e+003
3.480430e+003, 1.190076e+003
3.482359e+003, 1.191364e+003
3.484287e+003, 1.193004e+003
3.486216e+003, 1.194889e+003
3.488144e+003, 1.196923e+003
3.490073e+003, 1.199670e+003
3.492001e+003, 1.203267e+003
3.493929e+003, 1.206596e+003
3.495858e+003, 1.209201e+003
3.497786e+003, 1.209103e+003
3.499715e+003, 1.208886e+003
3.501643e+003, 1.212963e+003
3.503572e+003, 1.216353e+003
3.505500e+003, 1.216418e+003
3.507429e+003, 1.217032e+003
3.509357e+003, 1.218639e+003
3.511286e+003, 1.221694e+003
3.513214e+003, 1.225556e+003
3.515143e+003, 1.228001e+003
3.517071e+003, 1.229797e+003
3.519000e+003, 1.231344e+003
3.520928e+003, 1.233644e+003
3.522856e+003, 1.238061e+003
3.524785e+003, 1.241500e+003
3.526713e+003, 1.243727e+003
3.528642e+003, 1.245690e+003
3.530570e+003, 1.247846e+003
3.532499e+003, 1.252322e+003
3.534427e+003, 1.256828e+003
3.536356e+003, 1.258447e+003
3.538284e+003, 1.260198e+003
3.540213e+003, 1.263597e+003
3.542141e+003, 1.266349e+003
3.544070e+003, 1.268280e+003
3.545998e+003, 1.270608e+003
3.547927e+003, 1.273133e+003
3.549855e+003, 1.274283e+003
3.551783e+003, 1.275948e+003
3.553712e+003, 1.280167e+003
3.555640e+003, 1.284596e+003
3.557569e+003, 1.288611e+003
3.559497e+003, 1.291534e+003
3.561426e+003, 1.293288e+003
3.563354e+003, 1.294559e+003
3.565283e+003, 1.295844e+003
3.567211e+003, 1.298115e+003
3.569140e+003, 1.300764e+003
3.571068e+003, 1.303654e+003
3.572997e+003, 1.306258e+003
3.574925e+003, 1.308452e+003
3.576854e+003, 1.310390e+003
3.578782e+003, 1.312261e+003
3.580710e+003, 1.315068e+003
3.582639e+003, 1.318602e+003
3.584567e+003, 1.323225e+003
3.586496e+003, 1.327240e+003
3.588424e+003, 1.329704e+003
3.590353e+003, 1.332059e+003
3.592281e+003, 1.334480e+003
3.594210e+003, 1.337155e+003
3.596138e+003, 1.340127e+003
3.598067e+003, 1.343895e+003
3.599995e+003, 1.347253e+003
3.601924e+003, 1.348756e+003
3.603852e+003, 1.350575e+003
3.605781e+003, 1.353250e+003
3.607709e+003, 1.357330e+003
3.609637e+003, 1.362503e+003
3.611566e+003, 1.366795e+003
3.613494e+003, 1.370353e+003
3.615423e+003, 1.373253e+003
3.617351e+003, 1.375575e+003
3.619280e+003, 1.377184e+003
3.621208e+003, 1.378229e+003
3.623137e+003, 1.378702e+003
3.625065e+003, 1.382128e+003
3.626994e+003, 1.386917e+003
3.628922e+003, 1.388467e+003
3.630851e+003, 1.390421e+003
3.632779e+003, 1.395663e+003
3.634708e+003, 1.400898e+003
3.636636e+003, 1.405494e+003
3.638564e+003, 1.408156e+003
3.640493e+003, 1.409316e+003
3.642421e+003, 1.411289e+003
3.644350e+003, 1.413277e+003
3.646278e+003, 1.414003e+003
3.648207e+003, 1.415433e+003
3.650135e+003, 1.419117e+003
3.652064e+003, 1.421493e+003
3.653992e+003, 1.422924e+003
3.655921e+003, 1.427460e+003
3.657849e+003, 1.432878e+003
3.659778e+003, 1.435696e+003
3.661706e+003, 1.437662e+003
3.663635e+003, 1.439307e+003
3.665563e+003, 1.440641e+003
3.667491e+003, 1.441754e+003
3.669420e+003, 1.446688e+003
3.671348e+003, 1.452960e+003
3.673277e+003, 1.455008e+003
3.675205e+003, 1.456954e+003
3.677134e+003, 1.462030e+003
3.679062e+003, 1.466267e+003
3.680991e+003, 1.469302e+003
3.682919e+003, 1.471821e+003
3.684848e+003, 1.474302e+003
3.686776e+003, 1.477204e+003
3.688705e+003, 1.481273e+003
3.690633e+003, 1.488388e+003
3.692562e+003, 1.493020e+003
3.694490e+003, 1.493939e+003
3.696418e+003, 1.495071e+003
3.698347e+003, 1.496921e+003
3.700275e+003, 1.500559e+003
3.702204e+003, 1.505575e+003
3.704132e+003, 1.513507e+003
3.706061e+003, 1.517799e+003
3.707989e+003, 1.516355e+003
3.709918e+003, 1.517207e+003
3.711846e+003, 1.520040e+003
3.713775e+003, 1.522807e+003
3.715703e+003, 1.525538e+003
3.717632e+003, 1.527967e+003
3.719560e+003, 1.531224e+003
3.721489e+003, 1.535989e+003
3.723417e+003, 1.538811e+003
3.725345e+003, 1.540641e+003
3.727274e+003, 1.545157e+003
3.729202e+003, 1.550542e+003
3.731131e+003, 1.555911e+003
3.733059e+003, 1.559365e+003
3.734988e+003, 1.559436e+003
3.736916e+003, 1.563354e+003
3.738845e+003, 1.569679e+003
3.740773e+003, 1.573746e+003
3.742702e+003, 1.576988e+003
3.744630e+003, 1.580531e+003
3.746559e+003, 1.584348e+003
3.748487e+003, 1.588607e+003
3.750416e+003, 1.593090e+003
3.752344e+003, 1.597162e+003
3.754272e+003, 1.597343e+003
3.756201e+003, 1.599632e+003
3.758129e+003, 1.609307e+003
3.760058e+003, 1.616838e+003
3.761986e+003, 1.620240e+003
3.763915e+003, 1.621543e+003
3.765843e+003, 1.622546e+003
3.767772e+003, 1.627977e+003
3.769700e+003, 1.632604e+003
3.771629e+003, 1.633091e+003
3.773557e+003, 1.634554e+003
3.775486e+003, 1.637751e+003
3.777414e+003, 1.641874e+003
3.779343e+003, 1.646513e+003
3.781271e+003, 1.651408e+003
3.783199e+003, 1.655779e+003
3.785128e+003, 1.659312e+003
3.787056e+003, 1.662256e+003
3.788985e+003, 1.664852e+003
3.790913e+003, 1.670116e+003
3.792842e+003, 1.676228e+003
3.794770e+003, 1.681180e+003
3.796699e+003, 1.685659e+003
3.798627e+003, 1.689786e+003
3.800556e+003, 1.693888e+003
3.802484e+003, 1.697867e+003
3.804413e+003, 1.700660e+003
3.806341e+003, 1.703394e+003
3.808270e+003, 1.707135e+003
3.810198e+003, 1.711043e+003
3.812126e+003, 1.714965e+003
3.814055e+003, 1.717816e+003
3.815983e+003, 1.720633e+003
3.817912e+003, 1.726468e+003
3.819840e+003, 1.732522e+003
3.821769e+003, 1.737074e+003
3.823697e+003, 1.742344e+003
3.825626e+003, 1.748368e+003
3.827554e+003, 1.752224e+003
3.829483e+003, 1.755081e+003
3.831411e+003, 1.757927e+003
3.833340e+003, 1.761481e+003
3.835268e+003, 1.766259e+003
3.837197e+003, 1.769374e+003
3.839125e+003, 1.771367e+003
3.841053e+003, 1.773695e+003
3.842982e+003, 1.777838e+003
3.844910e+003, 1.786631e+003
3.846839e+003, 1.792941e+003
3.848767e+003, 1.795862e+003
3.850696e+003, 1.799926e+003
3.852624e+003, 1.804451e+003
3.854553e+003, 1.808160e+003
3.856481e+003, 1.812035e+003
3.858410e+003, 1.816830e+003
3.860338e+003, 1.822323e+003
3.862267e+003, 1.827788e+003
3.864195e+003, 1.828121e+003
3.866124e+003, 1.828628e+003
3.868052e+003, 1.834242e+003
3.869980e+003, 1.839426e+003
3.871909e+003, 1.842533e+003
3.873837e+003, 1.846639e+003
3.875766e+003, 1.850955e+003
3.877694e+003, 1.853873e+003
3.879623e+003, 1.857639e+003
3.881551e+003, 1.863656e+003
3.883480e+003, 1.868382e+003
3.885408e+003, 1.871872e+003
3.887337e+003, 1.874856e+003
3.889265e+003, 1.878327e+003
3.891194e+003, 1.883426e+003
3.893122e+003, 1.888473e+003
3.895051e+003, 1.893086e+003
3.896979e+003, 1.895793e+003
3.898907e+003, 1.897886e+003
3.900836e+003, 1.900976e+003
3.902764e+003, 1.905860e+003
3.904693e+003, 1.913413e+003
3.906621e+003, 1.918710e+003
3.908550e+003, 1.922089e+003
3.910478e+003, 1.926144e+003
3.912407e+003, 1.929373e+003
3.914335e+003, 1.929752e+003
3.916264e+003, 1.931855e+003
3.918192e+003, 1.935969e+003
3.920121e+003, 1.940159e+003
3.922049e+003, 1.944662e+003
3.923978e+003, 1.949991e+003
3.925906e+003, 1.955048e+003
3.927834e+003, 1.959542e+003
3.929763e+003, 1.962450e+003
3.931691e+003, 1.965009e+003
3.933620e+003, 1.969912e+003
3.935548e+003, 1.975320e+003
3.937477e+003, 1.980750e+003
3.939405e+003, 1.983868e+003
3.941334e+003, 1.985650e+003
3.943262e+003, 1.992109e+003
3.945191e+003, 1.998583e+003
3.947119e+003, 2.001416e+003
3.949048e+003, 2.004080e+003
3.950976e+003, 2.007264e+003
3.952905e+003, 2.013833e+003
3.954833e+003, 2.020844e+003
3.956761e+003, 2.024336e+003
3.958690e+003, 2.028951e+003
3.960618e+003, 2.035439e+003
3.962547e+003, 2.042304e+003
3.964475e+003, 2.048172e+003
3.966404e+003, 2.048368e+003
3.968332e+003, 2.052241e+003
3.970261e+003, 2.066742e+003
3.972189e+003, 2.071794e+003
3.974118e+003, 2.070993e+003
3.976046e+003, 2.072954e+003
3.977975e+003, 2.077903e+003
3.979903e+003, 2.086872e+003
3.981832e+003, 2.092206e+003
3.983760e+003, 2.094762e+003
3.985688e+003, 2.102653e+003
3.987617e+003, 2.109902e+003
3.989545e+003, 2.111471e+003
3.991474e+003, 2.114302e+003
3.993402e+003, 2.119065e+003
3.995331e+003, 2.123325e+003
3.997259e+003, 2.127446e+003
3.999188e+003, 2.130565e+003
4.001116e+003, 2.137404e+003
4.003045e+003, 2.148138e+003
4.004973e+003, 2.156898e+003
4.006902e+003, 2.162259e+003
4.008830e+003, 2.160209e+003
4.010759e+003, 2.161489e+003
4.012687e+003, 2.168831e+003
4.014615e+003, 2.172871e+003
4.016544e+003, 2.175585e+003
4.018472e+003, 2.180464e+003
4.020401e+003, 2.185587e+003
4.022329e+003, 2.190356e+003
4.024258e+003, 2.195736e+003
4.026186e+003, 2.202250e+003
4.028115e+003, 2.211861e+003
4.030043e+003, 2.219844e+003
4.031972e+003, 2.224540e+003
4.033900e+003, 2.228067e+003
4.035829e+003, 2.231429e+003
4.037757e+003, 2.237079e+003
4.039686e+003, 2.242412e+003
4.041614e+003, 2.246163e+003
4.043542e+003, 2.249620e+003
4.045471e+003, 2.253526e+003
4.047399e+003, 2.259916e+003
4.049328e+003, 2.267707e+003
4.051256e+003, 2.278795e+003
4.053185e+003, 2.282644e+003
4.055113e+003, 2.282229e+003
4.057042e+003, 2.286996e+003
4.058970e+003, 2.292703e+003
4.060899e+003, 2.296831e+003
4.062827e+003, 2.303031e+003
4.064756e+003, 2.310236e+003
4.066684e+003, 2.313276e+003
4.068613e+003, 2.316382e+003
4.070541e+003, 2.322258e+003
4.072469e+003, 2.327157e+003
4.074398e+003, 2.331325e+003
4.076326e+003, 2.337214e+003
4.078255e+003, 2.342147e+003
4.080183e+003, 2.343242e+003
4.082112e+003, 2.346677e+003
4.084040e+003, 2.352396e+003
4.085969e+003, 2.360080e+003
4.087897e+003, 2.366347e+003
4.089826e+003, 2.368366e+003
4.091754e+003, 2.372676e+003
4.093683e+003, 2.379301e+003
4.095611e+003, 2.388904e+003
4.097540e+003, 2.396102e+003
4.099468e+003, 2.397966e+003
4.101396e+003, 2.402505e+003
4.103325e+003, 2.408897e+003
4.105253e+003, 2.410871e+003
4.107182e+003, 2.414162e+003
4.109110e+003, 2.421958e+003
4.111039e+003, 2.429000e+003
4.112967e+003, 2.434249e+003
4.114896e+003, 2.433966e+003
4.116824e+003, 2.435825e+003
4.118752e+003, 2.444933e+003
4.120681e+003, 2.451498e+003
4.122609e+003, 2.457403e+003
4.124538e+003, 2.469026e+003
4.126466e+003, 2.475469e+003
4.128395e+003, 2.472356e+003
4.130323e+003, 2.476526e+003
4.132252e+003, 2.484779e+003
4.134180e+003, 2.490435e+003
4.136109e+003, 2.496507e+003
4.138037e+003, 2.503817e+003
4.139966e+003, 2.511448e+003
4.141894e+003, 2.519246e+003
4.143823e+003, 2.526939e+003
4.145751e+003, 2.534810e+003
4.147680e+003, 2.542847e+003
4.149608e+003, 2.546671e+003
4.151537e+003, 2.549784e+003
4.153465e+003, 2.556134e+003
4.155394e+003, 2.563295e+003
4.157322e+003, 2.570671e+003
4.159250e+003, 2.573724e+003
4.161179e+003, 2.576138e+003
4.163107e+003, 2.581914e+003
4.165036e+003, 2.585623e+003
4.166964e+003, 2.588007e+003
4.168893e+003, 2.595886e+003
4.170821e+003, 2.603599e+003
4.172750e+003, 2.606585e+003
4.174678e+003, 2.612052e+003
4.176606e+003, 2.619976e+003
4.178535e+003, 2.629856e+003
4.180463e+003, 2.638674e+003
4.182392e+003, 2.645082e+003
4.184320e+003, 2.650219e+003
4.186249e+003, 2.654614e+003
4.188177e+003, 2.658434e+003
4.190106e+003, 2.664136e+003
4.192034e+003, 2.672262e+003
4.193963e+003, 2.679257e+003
4.195891e+003, 2.685289e+003
4.197820e+003, 2.690899e+003
4.199748e+003, 2.694864e+003
4.201677e+003, 2.697469e+003
4.203605e+003, 2.703967e+003
4.205534e+003, 2.712145e+003
4.207462e+003, 2.720804e+003
4.209391e+003, 2.726841e+003
4.211319e+003, 2.730778e+003
4.213248e+003, 2.736653e+003
4.215176e+003, 2.743536e+003
4.217104e+003, 2.751339e+003
4.219033e+003, 2.759672e+003
4.220961e+003, 2.767082e+003
4.222890e+003, 2.769325e+003
4.224818e+003, 2.771731e+003
4.226747e+003, 2.775818e+003
4.228675e+003, 2.784044e+003
4.230604e+003, 2.792887e+003
4.232532e+003, 2.795887e+003
4.234460e+003, 2.804150e+003
4.236389e+003, 2.818106e+003
4.238317e+003, 2.828113e+003
4.240246e+003, 2.834923e+003
4.242174e+003, 2.835628e+003
4.244103e+003, 2.839125e+003
##END=



