##NAMES=Fizelyite
##RRUFFID=R060175
##IDEAL CHEMISTRY=Ag_5_Pb_14_Sb_21_S_48_
##LOCALITY=Van Silver mine, Squamish, British Columbia, Canada
##OWNER=RRUFF
##SOURCE=Ty Balacko
##DESCRIPTION=Dark gray deeply-striated single crystals
##STATUS=The identification of this mineral is confirmed by single-crystal X-ray diffraction and chemical analysis
##URL=https://www.rruff.net/odr/rruff_sample/R060175
##MEASURED CHEMISTRY=Pb_13.74_Ag_5.94_Sb_20.87_S_48.00_
##DIFFRACTION SAMPLE DESCRIPTION=Single crystal, powder profile is calculated
##CELL PARAMETERS=a: 19.2779 b: 13.2352 c: 8.7235 alpha: 90 beta: 90.402 gamma: 90 volume: 2225.7 crystal system: monoclinic
##FILETYPE=Raman Processed
##RAMAN WAVELENGTH=780

116.1611, 512.1070
118.0896, 512.4384
120.0180, 514.4151
121.9465, 517.2612
123.8750, 520.1726
125.8034, 523.0687
127.7319, 524.0546
129.6604, 521.9639
131.5889, 518.5910
133.5173, 513.8460
135.4458, 508.3489
137.3743, 503.2721
139.3027, 498.5277
141.2312, 492.7728
143.1597, 485.1759
145.0881, 477.2506
147.0166, 468.8455
148.9450, 460.6764
150.8735, 453.8365
152.8020, 448.1308
154.7304, 442.3226
156.6589, 435.5139
158.5874, 429.7839
160.5158, 425.6469
162.4443, 422.7076
164.3728, 420.4960
166.3012, 419.0560
168.2297, 418.9722
170.1582, 420.5146
172.0866, 423.1898
174.0151, 427.3590
175.9436, 432.1765
177.8720, 436.9157
179.8005, 441.8768
181.7290, 447.9667
183.6574, 455.9415
185.5859, 463.3789
187.5144, 469.6690
189.4428, 475.8541
191.3713, 482.5471
193.2998, 489.4058
195.2282, 495.8663
197.1567, 501.6524
199.0852, 508.1841
201.0136, 515.7530
202.9421, 523.6613
204.8706, 531.6761
206.7990, 539.9395
208.7275, 548.3965
210.6560, 556.9898
212.5844, 566.6597
214.5129, 578.1774
216.4414, 589.4988
218.3698, 600.2586
220.2983, 610.8386
222.2268, 621.6348
224.1552, 632.3478
226.0837, 642.2610
228.0122, 651.9086
229.9406, 659.3700
231.8691, 664.2971
233.7976, 667.4080
235.7260, 668.1696
237.6545, 667.8845
239.5830, 667.4459
241.5114, 666.6718
243.4399, 668.3190
245.3684, 671.4333
247.2968, 678.8855
249.2253, 691.7668
251.1538, 709.2371
253.0822, 731.0823
255.0107, 756.8477
256.9392, 785.7933
258.8676, 818.9026
260.7961, 850.3245
262.7246, 881.4362
264.6530, 906.9745
266.5815, 924.3149
268.5100, 935.7409
270.4384, 942.7592
272.3669, 945.1442
274.2954, 943.1960
276.2238, 936.1352
278.1523, 929.1768
280.0808, 925.3875
282.0092, 919.5022
283.9377, 909.9730
285.8662, 896.4765
287.7946, 877.7709
289.7231, 853.9476
291.6516, 827.3644
293.5800, 797.3743
295.5085, 766.5991
297.4370, 734.1078
299.3654, 703.0289
301.2939, 674.3848
303.2224, 648.7457
305.1508, 627.5837
307.0793, 610.7189
309.0078, 597.7075
310.9362, 588.9988
312.8647, 583.3086
314.7932, 581.5978
316.7216, 581.1718
318.6501, 579.8428
320.5786, 578.3298
322.5070, 578.4187
324.4355, 580.0984
326.3640, 581.5028
328.2924, 583.4298
330.2209, 583.1131
332.1494, 582.0551
334.0778, 576.5441
336.0063, 563.8187
337.9348, 543.9417
339.8632, 517.1501
341.7917, 483.1703
343.7202, 446.6527
345.6486, 406.5182
347.5771, 366.1617
349.5056, 324.3666
351.4340, 284.3045
353.3625, 247.5535
355.2910, 214.6850
357.2194, 186.5986
359.1479, 163.3928
361.0764, 144.4426
363.0048, 131.0229
364.9333, 120.1679
366.8618, 112.4914
368.7902, 106.2475
370.7187, 100.5171
372.6472, 95.44473
374.5756, 91.27928
376.5041, 88.03859
378.4326, 85.15269
380.3610, 82.76903
382.2895, 80.48787
384.2180, 78.13597
386.1464, 76.05061
388.0749, 74.46397
390.0034, 73.19178
391.9318, 72.03817
393.8603, 70.99815
395.7888, 70.09666
397.7172, 69.44494
399.6457, 68.71000
401.5742, 67.88613
403.5026, 66.99972
405.4311, 65.81124
407.3596, 64.78645
409.2880, 64.44035
411.2165, 64.52328
413.1450, 64.24655
415.0734, 63.46286
417.0019, 63.09104
418.9304, 63.40577
420.8588, 63.40302
422.7873, 62.60032
424.7158, 61.79952
426.6442, 61.47570
428.5727, 61.38140
430.5012, 61.30056
432.4296, 61.21275
434.3581, 60.85292
436.2866, 60.14026
438.2150, 59.74792
440.1435, 59.90586
442.0720, 59.93336
444.0004, 59.43869
445.9289, 58.89466
447.8574, 58.47404
449.7858, 58.19612
451.7143, 58.21692
453.6428, 58.48997
455.5712, 58.39207
457.4997, 57.87811
459.4282, 57.44482
461.3566, 57.24518
463.2851, 57.00643
465.2136, 56.52370
467.1420, 56.10181
469.0705, 55.96860
470.9990, 56.00152
472.9274, 56.05448
474.8559, 56.05601
476.7844, 55.76899
478.7128, 55.17038
480.6413, 54.54531
482.5698, 53.84538
484.4982, 53.28745
486.4267, 52.98745
488.3552, 52.77574
490.2836, 52.64288
492.2121, 52.49730
494.1406, 52.10994
496.0690, 51.55619
497.9975, 51.13039
499.9260, 50.86491
501.8544, 50.58968
503.7829, 50.25244
505.7114, 49.93589
507.6398, 49.75631
509.5683, 49.51067
511.4968, 48.91505
513.4252, 48.29073
515.3537, 48.09065
517.2822, 48.11502
519.2106, 47.97977
521.1391, 47.67947
523.0676, 47.23235
524.9960, 46.42428
526.9245, 45.90706
528.8530, 46.02794
530.7814, 46.04541
532.7099, 45.58801
534.6384, 45.05143
536.5668, 44.74442
538.4953, 44.52016
540.4238, 44.17292
542.3522, 43.71905
544.2807, 43.38189
546.2092, 43.24006
548.1376, 43.01719
550.0661, 42.64354
551.9946, 42.29295
553.9230, 42.08901
555.8515, 41.77288
557.7800, 41.09956
559.7084, 40.34469
561.6369, 39.74254
563.5654, 39.31590
565.4938, 39.10966
567.4223, 39.10855
569.3508, 38.89029
571.2792, 38.30476
573.2077, 37.86749
575.1362, 37.61798
577.0646, 37.50893
578.9931, 37.71323
580.9216, 37.70613
582.8500, 36.97081
584.7785, 36.18888
586.7070, 35.91908
588.6354, 35.89655
590.5639, 35.63496
592.4924, 35.20726
594.4208, 35.14067
596.3493, 35.47929
598.2778, 35.56184
600.2062, 35.33754
602.1347, 34.99947
604.0632, 34.47548
605.9916, 34.09872
607.9201, 34.18572
609.8486, 34.22838
611.7770, 33.94059
613.7055, 33.49412
615.6340, 33.03225
617.5624, 32.63446
619.4909, 32.51648
621.4194, 32.60584
623.3478, 32.23515
625.2763, 31.35344
627.2048, 30.73423
629.1332, 30.57770
631.0617, 30.36931
632.9902, 29.85412
634.9186, 29.43391
636.8471, 29.32854
638.7756, 29.27999
640.7040, 29.18379
642.6325, 28.98458
644.5610, 28.54997
646.4894, 28.01995
648.4179, 27.62216
650.3464, 27.33120
652.2748, 27.20385
654.2033, 27.26154
656.1318, 27.08257
658.0602, 26.52785
659.9887, 25.99567
661.9172, 25.46270
663.8456, 25.10585
665.7741, 25.24047
667.7026, 25.21595
669.6310, 24.48551
671.5595, 23.64392
673.4880, 23.24811
675.4164, 23.09200
677.3449, 22.90868
679.2734, 22.71581
681.2018, 22.51108
683.1303, 22.28036
685.0588, 22.03006
686.9872, 21.76089
688.9157, 21.52234
690.8442, 21.27798
692.7726, 21.13476
694.7011, 21.19467
696.6296, 21.17938
698.5580, 20.94428
700.4865, 20.75119
702.4149, 20.79487
704.3434, 20.83181
706.2719, 20.63394
708.2003, 20.35770
710.1288, 20.16142
712.0573, 20.03961
713.9857, 19.99119
715.9142, 20.00071
717.8427, 19.92126
719.7711, 19.72690
721.6996, 19.70045
723.6281, 19.88785
725.5565, 19.99459
727.4850, 20.02041
729.4135, 20.02403
731.3419, 20.00784
733.2704, 19.93604
735.1989, 19.78345
737.1273, 19.59982
739.0558, 19.34416
740.9843, 19.13610
742.9127, 19.10987
744.8412, 19.18658
746.7697, 19.20867
748.6981, 19.21834
750.6266, 19.37553
752.5551, 19.61357
754.4835, 19.65624
756.4120, 19.49441
758.3405, 19.33503
760.2689, 19.18484
762.1974, 19.19320
764.1259, 19.41304
766.0543, 19.45695
767.9828, 19.19876
769.9113, 18.99590
771.8397, 18.95184
773.7682, 18.94391
775.6967, 18.95071
777.6251, 18.95731
779.5536, 19.03901
781.4821, 19.04264
783.4105, 18.68443
785.3390, 18.36716
787.2675, 18.58845
789.1959, 19.00099
791.1244, 19.17099
793.0529, 19.17932
794.9813, 19.12527
796.9098, 18.98817
798.8383, 18.67401
800.7667, 18.26151
802.6952, 18.23921
804.6237, 18.61615
806.5521, 18.85746
808.4806, 18.91629
810.4091, 18.90000
812.3375, 18.74828
814.2660, 18.70209
816.1945, 18.92009
818.1229, 19.04706
820.0514, 18.99395
821.9799, 18.89950
823.9083, 18.73740
825.8368, 18.65422
827.7653, 18.75649
829.6937, 18.84324
831.6222, 18.83889
833.5507, 18.78918
835.4791, 18.70683
837.4076, 18.59034
839.3361, 18.35964
841.2645, 18.16132
843.1930, 18.21600
845.1215, 18.41927
847.0499, 18.62124
848.9784, 18.76797
850.9069, 18.64758
852.8353, 18.32363
854.7638, 18.22269
856.6923, 18.34085
858.6207, 18.34946
860.5492, 18.22406
862.4777, 18.11296
864.4061, 18.02718
866.3346, 17.98944
868.2631, 17.99756
870.1915, 18.02190
872.1200, 18.07464
874.0485, 18.04790
875.9769, 17.91656
877.9054, 17.83828
879.8339, 17.85711
881.7623, 17.83308
883.6908, 17.71836
885.6193, 17.59863
887.5477, 17.53721
889.4762, 17.41426
891.4047, 17.02170
893.3331, 16.75602
895.2616, 16.96825
897.1901, 17.20134
899.1185, 17.11683
901.0470, 16.96398
902.9755, 16.93019
904.9039, 16.97982
906.8324, 17.12249
908.7609, 17.26037
910.6893, 17.28616
912.6178, 17.23254
914.5463, 17.09245
916.4747, 16.93729
918.4032, 16.93025
920.3317, 17.00091
922.2601, 16.98771
924.1886, 16.88342
926.1171, 16.63558
928.0455, 16.35393
929.9740, 16.50129
931.9025, 16.94554
933.8309, 17.02058
935.7594, 16.76877
937.6879, 16.59736
939.6163, 16.52114
941.5448, 16.32363
943.4733, 15.62236
945.4017, 16.13229
947.3302, 16.41214
949.2587, 16.47428
951.1871, 15.66663
953.1156, 15.98213
955.0441, 15.84752
956.9725, 15.69446
958.9010, 16.16804
960.8295, 15.48689
962.7579, 15.95054
964.6864, 15.95720
966.6149, 16.17301
968.5433, 15.93594
970.4718, 15.83874
972.4003, 16.19458
974.3287, 16.29958
976.2572, 16.01036
978.1857, 16.23947
980.1141, 15.54251
982.0426, 15.65819
983.9711, 15.52014
985.8995, 15.47985
987.8280, 15.52348
989.7565, 15.77355
991.6849, 15.90208
993.6134, 15.69998
995.5419, 15.60818
997.4703, 15.83664
999.3988, 15.97908
1001.327, 15.86627
1003.256, 15.78936
1005.184, 15.85862
1007.113, 15.91055
1009.041, 15.92466
1010.970, 15.84474
1012.898, 15.57073
1014.827, 15.39128
1016.755, 15.47831
1018.683, 15.49107
1020.612, 15.19910
1022.540, 15.09009
1024.469, 15.49319
1026.397, 15.78846
1028.326, 15.66310
1030.254, 15.53101
1032.183, 15.53924
1034.111, 15.57200
1036.040, 15.64227
1037.968, 15.67296
1039.897, 15.58295
1041.825, 15.51004
1043.754, 15.58178
1045.682, 15.56011
1047.610, 15.15833
1049.539, 14.97219
1051.467, 15.43718
1053.396, 15.75618
1055.324, 15.56861
1057.253, 15.39705
1059.181, 15.41037
1061.110, 15.42331
1063.038, 15.38497
1064.967, 15.33092
1066.895, 15.25562
1068.824, 15.20634
1070.752, 15.17566
1072.681, 15.21292
1074.609, 15.37679
1076.537, 15.51131
1078.466, 15.66940
1080.394, 15.66404
1082.323, 15.33889
1084.251, 15.03802
1086.180, 14.76579
1088.108, 14.62874
1090.037, 14.70413
1091.965, 14.80187
1093.894, 14.91519
1095.822, 15.02981
1097.751, 15.22379
1099.679, 15.25878
1101.608, 14.97300
1103.536, 14.79882
1105.464, 14.84628
1107.393, 14.84601
1109.321, 14.78570
1111.250, 14.65284
1113.178, 14.34870
1115.107, 14.26647
1117.035, 14.46822
1118.964, 14.74921
1120.892, 15.18630
1122.821, 15.22818
1124.749, 14.81636
1126.678, 14.62695
1128.606, 14.20619
1130.535, 14.75069
1132.463, 15.06510
1134.391, 15.16179
1136.320, 14.38871
1138.248, 14.73877
1140.177, 14.63873
1142.105, 14.52022
1144.034, 15.02837
1145.962, 14.38178
1147.891, 14.87999
1149.819, 14.92121
1151.748, 15.12394
1153.676, 14.97432
1155.605, 14.60692
1157.533, 14.53398
1159.462, 14.59654
1161.390, 14.52460
1163.318, 14.45299
1165.247, 14.53458
1167.175, 14.64041
1169.104, 14.63788
1171.032, 14.59966
1172.961, 14.64053
1174.889, 14.69011
1176.818, 14.64042
1178.746, 14.57218
1180.675, 14.55527
1182.603, 14.57231
1184.532, 14.57209
1186.460, 14.61883
1188.389, 14.87469
1190.317, 14.98961
1192.245, 14.75251
1194.174, 14.51855
1196.102, 14.33280
1198.031, 14.25218
1199.959, 14.26273
1201.888, 14.33342
1203.816, 14.57528
1205.745, 14.65724
1207.673, 14.45414
1209.602, 14.37601
1211.530, 14.48809
1213.459, 14.43475
1215.387, 14.22101
1217.316, 14.28739
1219.244, 14.57631
1221.172, 14.62376
1223.101, 14.48192
1225.029, 14.41714
1226.958, 14.44829
1228.886, 14.67088
1230.815, 14.89069
1232.743, 14.61898
1234.672, 14.24284
1236.600, 14.30613
1238.529, 14.47638
1240.457, 14.49977
1242.386, 14.44675
1244.314, 14.29247
1246.243, 14.27395
1248.171, 14.57467
1250.099, 14.68080
1252.028, 14.37166
1253.956, 14.16253
1255.885, 14.23330
1257.813, 14.30438
1259.742, 14.24857
1261.670, 14.25878
1263.599, 14.41232
1265.527, 14.50813
1267.456, 14.50217
1269.384, 14.58626
1271.313, 14.74427
1273.241, 14.76567
1275.170, 14.71368
1277.098, 14.67424
1279.026, 14.59052
1280.955, 14.33504
1282.883, 14.07859
1284.812, 14.11491
1286.740, 14.28550
1288.669, 14.44883
1290.597, 14.59680
1292.526, 14.72954
1294.454, 14.77538
1296.383, 14.73979
1298.311, 14.63601
1300.240, 14.39201
1302.168, 14.30942
1304.097, 14.45055
1306.025, 14.50323
1307.953, 14.45898
1309.882, 14.45599
1311.810, 14.51271
1313.739, 14.59479
1315.667, 14.62504
1317.596, 14.52589
1319.524, 14.44276
1321.453, 14.60537
1323.381, 14.80478
1325.310, 14.74078
1327.238, 14.62204
1329.167, 14.69184
1331.095, 14.74636
1333.024, 14.66956
1334.952, 14.57041
1336.880, 14.41378
1338.809, 14.37353
1340.737, 14.51949
1342.666, 14.65901
1344.594, 14.77955
1346.523, 14.83807
1348.451, 14.86778
1350.380, 14.82621
1352.308, 14.71925
1354.237, 14.69934
1356.165, 14.69253
1358.094, 14.55348
1360.022, 14.49045
1361.951, 14.75850
1363.879, 14.91605
1365.807, 14.72067
1367.736, 14.56544
1369.664, 14.48256
1371.593, 14.48861
1373.521, 14.68536
1375.450, 14.76011
1377.378, 14.65968
1379.307, 14.53097
1381.235, 14.35919
1383.164, 14.28776
1385.092, 14.30916
1387.021, 14.36959
1388.949, 14.46492
1390.878, 14.59820
1392.806, 14.71333
1394.734, 14.66800
1396.663, 14.56816
1398.591, 14.40078
1400.520, 14.32309
1402.448, 14.56022
1404.377, 14.63312
1406.305, 14.44085
1408.234, 14.45153
1410.162, 14.56350
1412.091, 14.59285
1414.019, 14.59143
1415.948, 14.44987
1417.876, 14.32476
1419.805, 14.42369
1421.733, 14.58096
1423.661, 14.77926
1425.590, 14.95234
1427.518, 14.86563
1429.447, 14.67592
1431.375, 14.59990
1433.304, 14.56462
1435.232, 14.50427
1437.161, 14.50821
1439.089, 14.54738
1441.018, 14.52320
1442.946, 14.49805
1444.875, 14.72655
1446.803, 15.06892
1448.731, 15.12030
1450.660, 14.89235
1452.588, 14.56019
1454.517, 14.38909
1456.445, 14.39709
1458.374, 14.43344
1460.302, 14.64215
1462.231, 14.79896
1464.159, 14.64572
1466.088, 14.36018
1468.016, 14.18494
1469.945, 14.23126
1471.873, 14.28987
1473.802, 14.20854
1475.730, 14.20577
1477.658, 14.38324
1479.587, 14.47330
1481.515, 14.35651
1483.444, 14.32501
1485.372, 14.46521
1487.301, 14.58952
1489.229, 14.70436
1491.158, 14.64207
1493.086, 14.43833
1495.015, 14.35965
1496.943, 14.34038
1498.872, 14.22982
1500.800, 14.22653
1502.729, 14.55659
1504.657, 14.71125
1506.585, 14.61774
1508.514, 14.56761
1510.442, 14.48209
1512.371, 14.23055
1514.299, 13.93243
1516.228, 13.93065
1518.156, 14.11302
1520.085, 14.12849
1522.013, 14.13053
1523.942, 14.44013
1525.870, 14.55779
1527.799, 14.33018
1529.727, 14.20605
1531.656, 14.14294
1533.584, 14.10177
1535.512, 14.14292
1537.441, 14.15412
1539.369, 14.09421
1541.298, 13.94089
1543.226, 13.84846
1545.155, 14.13484
1547.083, 14.34115
1549.012, 14.26098
1550.940, 14.25908
1552.869, 14.22848
1554.797, 14.22480
1556.726, 14.21776
1558.654, 14.00868
1560.583, 13.90102
1562.511, 14.18832
1564.439, 14.32387
1566.368, 14.05397
1568.296, 13.87724
1570.225, 13.86795
1572.153, 13.97668
1574.082, 14.12378
1576.010, 14.07176
1577.939, 14.08596
1579.867, 14.18250
1581.796, 14.11636
1583.724, 13.98575
1585.653, 13.93957
1587.581, 13.95366
1589.510, 13.90865
1591.438, 13.83800
1593.366, 13.96144
1595.295, 14.12938
1597.223, 14.01933
1599.152, 13.86358
1601.080, 13.81528
1603.009, 13.92162
1604.937, 14.16824
1606.866, 14.15246
1608.794, 13.97065
1610.723, 13.84230
1612.651, 13.74194
1614.580, 13.83712
1616.508, 14.02512
1618.437, 14.05132
1620.365, 13.84904
1622.293, 13.48954
1624.222, 13.48826
1626.150, 13.81370
1628.079, 13.81344
1630.007, 13.48894
1631.936, 13.45476
1633.864, 13.69994
1635.793, 13.89908
1637.721, 13.96330
1639.650, 13.85586
1641.578, 13.71127
1643.507, 13.70438
1645.435, 13.82803
1647.364, 13.92585
1649.292, 13.63780
1651.220, 13.37535
1653.149, 13.64641
1655.077, 13.85607
1657.006, 13.85494
1658.934, 13.83958
1660.863, 13.57918
1662.791, 13.48697
1664.720, 13.66807
1666.648, 13.79188
1668.577, 13.76472
1670.505, 13.66559
1672.434, 13.70044
1674.362, 13.78971
1676.291, 13.76225
1678.219, 13.59635
1680.147, 13.55264
1682.076, 13.66260
1684.004, 13.72694
1685.933, 13.70371
1687.861, 13.36487
1689.790, 13.19261
1691.718, 13.56246
1693.647, 13.74318
1695.575, 13.58831
1697.504, 13.46788
1699.432, 13.37110
1701.361, 13.38141
1703.289, 13.47333
1705.218, 13.47527
1707.146, 13.40266
1709.074, 13.44890
1711.003, 13.61022
1712.931, 13.66040
1714.860, 13.61110
1716.788, 13.62078
1718.717, 13.51214
1720.645, 13.49274
1722.574, 13.57589
1724.502, 13.46962
1726.431, 13.28427
1728.359, 13.21268
1730.288, 13.27149
1732.216, 13.49665
1734.145, 13.63903
1736.073, 13.43095
1738.001, 13.35352
1739.930, 13.54510
1741.858, 13.58675
1743.787, 13.49660
1745.715, 13.44168
1747.644, 13.41553
1749.572, 13.62322
1751.501, 13.72816
1753.429, 13.47151
1755.358, 13.17803
1757.286, 12.95971
1759.215, 12.99529
1761.143, 13.21741
1763.072, 13.41362
1765.000, 13.39266
1766.928, 13.29154
1768.857, 13.22536
1770.785, 13.18249
1772.714, 13.14689
1774.642, 12.71890
1776.571, 13.23050
1778.499, 13.51202
1780.428, 13.57583
1782.356, 12.76985
1784.285, 13.08702
1786.213, 12.95409
1788.142, 12.80270
1790.070, 13.27795
1791.999, 12.59848
1793.927, 13.06380
1795.855, 13.07214
1797.784, 13.28962
1799.712, 13.05422
1801.641, 12.95870
1803.569, 13.31621
1805.498, 13.42287
1807.426, 13.13534
1809.355, 13.36611
1811.283, 12.72790
1813.212, 12.70548
1815.140, 12.72388
1817.069, 12.81422
1818.997, 12.89301
1820.926, 12.92243
1822.854, 12.99093
1824.782, 13.01170
1826.711, 12.89902
1828.639, 12.80431
1830.568, 12.70851
1832.496, 12.63644
1834.425, 12.76318
1836.353, 12.85347
1838.282, 12.73451
1840.210, 12.52351
1842.139, 12.55040
1844.067, 12.72268
1845.996, 12.50711
1847.924, 12.20672
1849.853, 12.40866
1851.781, 12.59805
1853.709, 12.45747
1855.638, 12.45802
1857.566, 12.45182
1859.495, 11.83154
1861.423, 12.34940
1863.352, 12.63717
1865.280, 12.70723
1867.209, 11.90751
1869.137, 12.23093
1871.066, 12.10425
1872.994, 11.95911
1874.923, 12.44062
1876.851, 11.76740
1878.780, 12.23897
1880.708, 12.25356
1882.636, 12.47730
1884.565, 12.24814
1886.493, 12.15888
1888.422, 12.52264
1890.350, 12.63556
1892.279, 12.35427
1894.207, 12.59130
1896.136, 11.90226
1898.064, 12.11763
1899.993, 12.28393
1901.921, 12.24104
1903.850, 12.09765
1905.778, 11.98935
1907.707, 11.90222
1909.635, 11.94610
1911.563, 12.03125
1913.492, 11.96062
1915.420, 11.90267
1917.349, 12.00699
1919.277, 12.17076
1921.206, 12.22881
1923.134, 11.96310
1925.063, 11.83305
1926.991, 11.80320
1928.920, 11.83311
1930.848, 12.07981
1932.777, 12.03344
1934.705, 11.87041
1936.634, 11.89590
1938.562, 11.81684
1940.490, 11.62343
1942.419, 11.58358
1944.347, 11.61321
1946.276, 11.85302
1948.204, 12.05666
1950.133, 11.99926
1952.061, 11.78771
1953.990, 11.66666
1955.918, 11.91641
1957.847, 11.99259
1959.775, 11.66260
1961.704, 11.50385
1963.632, 11.54114
1965.561, 11.44329
1967.489, 11.37195
1969.417, 11.50287
1971.346, 11.37667
1973.274, 11.13538
1975.203, 11.25830
1977.131, 11.35119
1979.060, 11.36082
1980.988, 11.54315
1982.917, 11.67898
1984.845, 11.36603
1986.774, 11.12178
1988.702, 11.41028
1990.631, 11.60425
1992.559, 11.37650
1994.488, 11.32329
1996.416, 11.41668
1998.344, 11.35511
2000.273, 11.23032
2002.201, 11.17828
2004.130, 11.16951
2006.058, 11.23592
2007.987, 11.58288
2009.915, 11.54191
2011.844, 11.01270
2013.772, 11.00562
2015.701, 11.25678
2017.629, 11.16069
2019.558, 11.04798
2021.486, 10.96594
2023.415, 11.05964
2025.343, 11.20528
2027.271, 11.05234
2029.200, 10.89399
2031.128, 10.72080
2033.057, 10.77039
2034.985, 10.97728
2036.914, 10.96582
2038.842, 10.88494
2040.771, 10.94094
2042.699, 11.05898
2044.628, 11.01078
2046.556, 10.76753
2048.485, 10.67144
2050.413, 10.70475
2052.342, 10.72405
2054.270, 10.80735
2056.198, 10.79159
2058.127, 10.69881
2060.055, 10.56433
2061.984, 10.47200
2063.912, 10.50123
2065.841, 10.73113
2067.769, 10.83002
2069.698, 10.74536
2071.626, 10.55237
2073.555, 10.35329
2075.483, 10.47634
2077.412, 10.53365
2079.340, 10.43665
2081.269, 10.58006
2083.197, 10.74107
2085.125, 10.57719
2087.054, 10.45216
2088.982, 10.36379
2090.911, 10.40045
2092.839, 10.49551
2094.768, 10.44607
2096.696, 10.31882
2098.625, 10.29675
2100.553, 10.25857
2102.482, 10.27269
2104.410, 10.46455
2106.339, 10.46585
2108.267, 10.34343
2110.196, 10.25532
2112.124, 10.16184
2114.052, 10.13551
2115.981, 10.19882
2117.909, 10.35740
2119.838, 10.22481
2121.766, 10.03055
2123.695, 10.21852
2125.623, 10.19810
2127.552, 9.993867
2129.480, 9.870727
2131.409, 9.867824
2133.337, 9.944990
2135.266, 9.880415
2137.194, 9.835989
2139.123, 9.984242
2141.051, 10.01394
2142.979, 9.942353
2144.908, 10.05970
2146.836, 10.11753
2148.765, 10.09218
2150.693, 10.03610
2152.622, 9.859453
2154.550, 9.715180
2156.479, 9.816810
2158.407, 10.98339
2160.336, 11.27921
2162.264, 10.23110
2164.193, 9.779974
2166.121, 9.643956
2168.050, 9.467098
2169.978, 9.363624
2171.906, 9.385222
2173.835, 9.573957
2175.763, 9.791684
2177.692, 9.906096
2179.620, 9.744884
2181.549, 9.476721
2183.477, 9.316052
2185.406, 9.404288
2187.334, 9.608936
2189.263, 9.556995
2191.191, 9.450283
2193.120, 9.354812
2195.048, 9.408603
2196.977, 9.448880
2198.905, 9.380513
2200.833, 9.335867
2202.762, 9.268909
2204.690, 9.277610
2206.619, 9.307673
2208.547, 9.158871
2210.476, 9.053384
2212.404, 9.051202
2214.333, 8.997890
2216.261, 9.033309
2218.190, 9.253297
2220.118, 9.211395
2222.047, 9.075715
2223.975, 9.186221
2225.904, 9.232417
2227.832, 9.139200
2229.760, 9.050115
2231.689, 9.018889
2233.617, 9.004576
2235.546, 9.034371
2237.474, 9.064008
2239.403, 8.888966
2241.331, 8.725126
2243.260, 8.594303
2245.188, 8.590208
2247.117, 8.685668
2249.045, 8.614364
2250.974, 8.612981
2252.902, 8.704818
2254.831, 8.839924
2256.759, 8.881507
2258.688, 8.764023
2260.616, 8.553313
2262.544, 8.451795
2264.473, 8.598958
2266.401, 8.610822
2268.330, 8.558641
2270.258, 8.677950
2272.187, 8.767894
2274.115, 8.727906
2276.044, 8.677418
2277.972, 8.627767
2279.901, 8.604431
2281.829, 8.534560
2283.758, 8.416132
2285.686, 8.558520
2287.615, 8.645102
2289.543, 8.592153
2291.471, 8.452127
2293.400, 8.272895
2295.328, 8.044042
2297.257, 8.192338
2299.185, 8.626903
2301.114, 8.410734
2303.042, 8.244743
2304.971, 8.491495
2306.899, 8.421716
2308.828, 8.231134
2310.756, 8.233311
2312.685, 7.959116
2314.613, 7.642395
2316.542, 7.879868
2318.470, 8.002112
2320.398, 7.883862
2322.327, 8.004647
2324.255, 8.098956
2326.184, 8.043240
2328.112, 7.990853
2330.041, 7.921328
2331.969, 7.838265
2333.898, 7.870055
2335.826, 7.983419
2337.755, 7.950511
2339.683, 7.874830
2341.612, 7.823342
2343.540, 7.901180
2345.469, 7.931929
2347.397, 7.707016
2349.325, 7.657936
2351.254, 7.748273
2353.182, 7.717758
2355.111, 7.767413
2357.039, 7.888533
2358.968, 7.822242
2360.896, 7.706474
2362.825, 7.604070
2364.753, 7.521166
2366.682, 7.497575
2368.610, 7.634109
2370.539, 7.521828
2372.467, 7.333151
2374.396, 7.485437
2376.324, 7.365282
2378.252, 6.994365
2380.181, 7.105128
2382.109, 7.274877
2384.038, 7.312035
2385.966, 7.126486
2387.895, 6.968785
2389.823, 7.094629
2391.752, 7.203130
2393.680, 7.253685
2395.609, 7.095533
2397.537, 7.067307
2399.466, 7.192947
2401.394, 7.221476
2403.323, 7.246034
2405.251, 7.294641
2407.179, 7.229762
2409.108, 7.146476
2411.036, 7.076942
2412.965, 7.150766
2414.893, 7.255741
2416.822, 7.189881
2418.750, 7.131905
2420.679, 7.091576
2422.607, 6.885359
2424.536, 6.845984
2426.464, 7.011611
2428.393, 7.009400
2430.321, 6.842431
2432.250, 6.547964
2434.178, 6.576318
2436.106, 6.731936
2438.035, 6.881496
2439.963, 6.996394
2441.892, 7.026325
2443.820, 6.867176
2445.749, 6.705221
2447.677, 6.587993
2449.606, 6.506070
2451.534, 6.585724
2453.463, 6.762932
2455.391, 6.795648
2457.320, 6.705102
2459.248, 6.568645
2461.177, 6.640866
2463.105, 6.589363
2465.033, 6.332893
2466.962, 6.315848
2468.890, 6.411169
2470.819, 6.690700
2472.747, 6.682935
2474.676, 6.552560
2476.604, 6.265437
2478.533, 6.490794
2480.461, 6.837228
2482.390, 6.628556
2484.318, 6.400555
2486.247, 6.351024
2488.175, 6.764290
2490.104, 6.761242
2492.032, 6.377455
2493.960, 6.539163
2495.889, 6.492139
2497.817, 6.058969
2499.746, 6.179328
2501.674, 6.393750
2503.603, 6.488768
2505.531, 6.266668
2507.460, 6.070005
2509.388, 6.221177
2511.317, 6.011864
2513.245, 5.802560
2515.174, 6.071884
2517.102, 6.172943
2519.031, 6.077978
2520.959, 5.942225
2522.887, 5.948474
2524.816, 5.978125
2526.744, 5.768020
2528.673, 5.961496
2530.601, 6.286561
2532.530, 6.099554
2534.458, 5.974135
2536.387, 5.870070
2538.315, 5.783585
2540.244, 5.771190
2542.172, 5.766386
2544.101, 5.835185
2546.029, 5.730527
2547.958, 5.529655
2549.886, 5.607521
2551.814, 5.624584
2553.743, 5.495429
2555.671, 5.704082
2557.600, 5.798366
2559.528, 5.668272
2561.457, 5.607122
2563.385, 5.677395
2565.314, 5.819815
2567.242, 5.799861
2569.171, 5.622493
2571.099, 5.232744
2573.028, 5.269713
2574.956, 5.474888
2576.885, 5.642531
2578.813, 5.588476
2580.741, 5.508142
2582.670, 5.599474
2584.598, 5.358206
2586.527, 5.067175
2588.455, 5.194878
2590.384, 5.194933
2592.312, 5.306799
2594.241, 5.574611
2596.169, 5.356176
2598.098, 5.208913
2600.026, 5.367028
2601.955, 5.252097
2603.883, 5.086962
2605.812, 5.120532
2607.740, 5.132951
2609.668, 5.081003
2611.597, 5.019866
2613.525, 5.176219
2615.454, 5.277745
2617.382, 5.096793
2619.311, 5.005524
2621.239, 4.973440
2623.168, 5.080335
2625.096, 5.098509
2627.025, 5.139570
2628.953, 5.368595
2630.882, 5.190515
2632.810, 5.041543
2634.739, 4.970353
2636.667, 5.087742
2638.595, 5.172050
2640.524, 4.860116
2642.452, 4.706778
2644.381, 4.807643
2646.309, 5.143846
2648.238, 4.923035
2650.166, 4.660163
2652.095, 4.667756
2654.023, 4.514350
2655.952, 4.448318
2657.880, 4.561255
2659.809, 4.673640
2661.737, 4.822456
2663.666, 4.830742
2665.594, 4.588768
2667.522, 4.411649
2669.451, 4.627852
2671.379, 4.486115
2673.308, 4.406960
2675.236, 4.507606
2677.165, 4.327325
2679.093, 4.109590
2681.022, 3.987319
2682.950, 4.237492
2684.879, 4.377696
2686.807, 4.418416
2688.736, 4.555789
2690.664, 4.399916
2692.593, 4.212893
2694.521, 4.243752
2696.449, 4.350716
2698.378, 4.548389
2700.306, 4.478426
2702.235, 4.367025
2704.163, 4.276953
2706.092, 4.127024
2708.020, 3.965969
2709.949, 3.818349
2711.877, 4.039006
2713.806, 4.329497
2715.734, 4.288958
2717.663, 3.980077
2719.591, 3.772395
2721.520, 3.822603
2723.448, 3.949354
2725.376, 3.914129
2727.305, 3.767206
2729.233, 3.614335
2731.162, 3.977399
2733.090, 3.991189
2735.019, 3.727842
2736.947, 3.755786
2738.876, 3.862324
2740.804, 4.031589
2742.733, 4.096966
2744.661, 3.907908
2746.590, 3.765164
2748.518, 3.815862
2750.447, 3.618219
2752.375, 3.668599
2754.303, 3.934397
2756.232, 3.841819
2758.160, 3.765567
2760.089, 3.905732
2762.017, 3.841511
2763.946, 3.841157
2765.874, 3.875918
2767.803, 3.810799
2769.731, 3.838323
2771.660, 3.704519
2773.588, 3.511440
2775.517, 3.531752
2777.445, 3.533605
2779.374, 3.460521
2781.302, 3.658678
2783.230, 3.781123
2785.159, 3.770486
2787.087, 3.721795
2789.016, 3.761142
2790.944, 3.597267
2792.873, 3.674036
2794.801, 3.811199
2796.730, 3.932022
2798.658, 3.795380
2800.587, 3.332718
2802.515, 3.200175
2804.444, 3.457606
2806.372, 3.484628
2808.301, 3.509623
2810.229, 3.651860
2812.157, 3.554487
2814.086, 3.338125
2816.014, 3.357290
2817.943, 3.428909
2819.871, 3.431592
2821.800, 3.413011
2823.728, 3.133432
2825.657, 3.051930
2827.585, 2.997870
2829.514, 3.004707
2831.442, 3.129928
2833.371, 3.309291
2835.299, 3.558358
2837.228, 3.673785
2839.156, 3.490541
2841.084, 3.177235
2843.013, 3.012432
2844.941, 3.160348
2846.870, 3.373715
2848.798, 3.166674
2850.727, 3.223813
2852.655, 3.202224
2854.584, 2.852350
2856.512, 3.023027
2858.441, 3.185113
2860.369, 3.266334
2862.298, 2.903408
2864.226, 2.995543
2866.155, 2.969458
2868.083, 2.443313
2870.011, 2.519830
2871.940, 2.821154
2873.868, 3.139530
2875.797, 2.599324
2877.725, 2.343928
2879.654, 2.528467
2881.582, 2.665181
2883.511, 2.695026
2885.439, 2.748214
2887.368, 2.948291
2889.296, 2.737606
2891.225, 2.698219
2893.153, 2.886491
2895.082, 2.706970
2897.010, 2.761847
2898.938, 2.847462
2900.867, 3.036225
2902.795, 2.985970
2904.724, 2.826832
2906.652, 2.846771
2908.581, 2.942085
2910.509, 2.785492
2912.438, 2.636773
2914.366, 2.528506
2916.295, 2.575716
2918.223, 2.734574
2920.152, 2.665609
2922.080, 2.688941
2924.008, 2.751166
2925.937, 2.855564
2927.865, 2.547400
2929.794, 2.534584
2931.722, 2.555328
2933.651, 2.390757
2935.579, 2.569367
2937.508, 2.730867
2939.436, 2.704888
2941.365, 2.548447
2943.293, 2.460423
2945.221, 2.585818
2947.150, 2.771694
2949.078, 2.483849
2951.007, 2.430788
2952.935, 2.571878
2954.864, 2.622402
2956.792, 2.698651
2958.721, 2.783446
2960.649, 2.521446
2962.578, 2.383208
2964.506, 2.201121
2966.435, 2.014075
2968.363, 2.104886
2970.292, 2.214706
2972.220, 2.386356
2974.148, 2.506026
2976.077, 2.394135
2978.005, 2.243642
2979.934, 2.251270
2981.862, 2.115705
2983.791, 1.972367
2985.719, 2.044310
2987.648, 2.286966
2989.576, 2.277148
2991.505, 2.130428
2993.433, 2.056977
2995.362, 2.108874
2997.290, 2.224947
2999.219, 2.247757
3001.147, 2.206841
3003.075, 2.016214
3005.004, 2.009254
3006.932, 2.185166
3008.861, 2.325372
3010.789, 2.067119
3012.718, 1.848519
3014.646, 1.915388
3016.575, 2.033620
3018.503, 2.094174
3020.432, 2.067230
3022.360, 2.042139
3024.289, 1.951637
3026.217, 2.052264
3028.146, 2.178224
3030.074, 1.720214
3032.002, 1.775654
3033.931, 1.974335
3035.859, 2.075547
3037.788, 1.714233
3039.716, 1.750094
3041.645, 1.885139
3043.573, 1.887298
3045.502, 2.118883
3047.430, 2.022843
3049.359, 1.706154
3051.287, 1.810488
3053.216, 1.696718
3055.144, 1.858595
3057.073, 2.424605
3059.001, 2.046646
3060.929, 1.970053
3062.858, 1.978725
3064.786, 1.655384
3066.715, 1.586766
3068.643, 1.755336
3070.572, 2.006329
3072.500, 2.065200
3074.429, 2.084611
3076.357, 1.780212
3078.286, 1.562753
3080.214, 1.857652
3082.143, 1.922909
3084.071, 1.793435
3086.000, 1.572524
3087.928, 1.627929
3089.856, 1.590950
3091.785, 1.468492
3093.713, 1.338475
3095.642, 1.684366
3097.570, 1.805529
3099.499, 1.758289
3101.427, 1.608875
3103.356, 1.781581
3105.284, 1.899061
3107.213, 1.803527
3109.141, 1.374483
3111.070, 1.535348
3112.998, 1.516531
3114.927, 1.115384
3116.855, 1.961632
3118.783, 2.067282
3120.712, 1.620136
3122.640, 1.082941
3124.569, 1.456197
3126.497, 1.758360
3128.426, 1.706528
3130.354, 1.133457
3132.283, 1.431495
3134.211, 1.692030
3136.140, 1.752219
3138.068, 1.628070
3139.997, 1.697598
3141.925, 1.495031
3143.854, 1.199496
3145.782, 1.415205
3147.710, 1.484329
3149.639, 1.451959
3151.567, 1.417395
3153.496, 1.492674
3155.424, 1.588001
3157.353, 1.501935
3159.281, 1.366507
3161.210, 1.685517
3163.138, 1.600880
3165.067, 1.557995
3166.995, 1.550305
3168.924, 1.176447
3170.852, 1.416730
3172.781, 1.581022
3174.709, 1.518062
3176.637, 1.476932
3178.566, 0.8937498
3180.494, 0.7220865
3182.423, 1.183980
3184.351, 1.261125
3186.280, 1.535039
3188.208, 1.621987
3190.137, 1.339059
3192.065, 1.359583
3193.994, 1.294588
3195.922, 1.305616
3197.851, 1.466675
3199.779, 1.443106
3201.708, 1.418675
3203.636, 1.518703
3205.564, 1.592928
3207.493, 1.310461
3209.421, 0.9483721
3211.350, 0.9597351
3213.278, 1.297877
3215.207, 1.383219
3217.135, 1.221969
3219.064, 1.106771
3220.992, 1.044834
3222.921, 0.8012922
3224.849, 0.8399546
3226.778, 1.306147
3228.706, 1.741043
3230.635, 1.112844
3232.563, 1.109227
3234.491, 0.9584318
3236.420, 0.8371270
3238.348, 1.504089
3240.277, 1.391585
3242.205, 1.235638
3244.134, 1.265873
3246.062, 1.325538
3247.991, 1.137145
3249.919, 1.018582
3251.848, 0.9953368
3253.776, 1.133952
3255.705, 1.100988
3257.633, 1.220003
3259.562, 1.145142
3261.490, 0.7395583
3263.418, 1.175558
3265.347, 1.181065
3267.275, 1.068263
3269.204, 1.068775
3271.132, 1.213877
3273.061, 0.9391976
3274.989, 0.9752308
3276.918, 1.208424
3278.846, 0.8626545
3280.775, 0.6396859
3282.703, 0.7240053
3284.632, 0.7623295
3286.560, 0.3492965
3288.489, 0.5596392
3290.417, 0.9021674
3292.345, 0.9730621
3294.274, 0.7395372
3296.202, 0.8793992
3298.131, 1.119142
3300.059, 1.012372
3301.988, 0.6722700
3303.916, 1.011770
3305.845, 1.183302
3307.773, 1.123055
3309.702, 0.9909914
3311.630, 0.9907876
3313.559, 0.9604962
3315.487, 1.296288
3317.416, 1.486549
3319.344, 1.130036
3321.272, 1.004731
3323.201, 1.012173
3325.129, 0.9557778
3327.058, 0.8563135
3328.986, 1.136422
3330.915, 0.6928813
3332.843, 0.5684570
3334.772, 0.8801926
3336.700, 1.202099
3338.629, 0.6485701
3340.557, 0.5857014
3342.486, 0.9615205
3344.414, 1.361382
3346.343, 1.169816
3348.271, 0.8727861
3350.199, 0.8127489
3352.128, 1.007356
3354.056, 1.277556
3355.985, 1.054213
3357.913, 0.9709491
3359.842, 0.9030102
3361.770, 0.7305663
3363.699, 0.7324397
3365.627, 1.016446
3367.556, 1.170529
3369.484, 1.077717
3371.413, 0.7744691
3373.341, 0.9792764
3375.270, 1.135316
3377.198, 1.083270
3379.126, 0.7921473
3381.055, 0.1987006
3382.983, 0.7110812
3384.912, 1.035349
3386.840, 0.9666555
3388.769, 0.9113787
3390.697, 0.8408023
3392.626, 1.163747
3394.554, 1.392825
3396.483, 1.195358
3398.411, 0.5861645
3400.340, 0.6363364
3402.268, 1.046311
3404.197, 1.172984
3406.125, 0.7874271
3408.053, 1.063121
3409.982, 0.7859322
3411.910, 0.8138388
3413.839, 1.132262
3415.767, 1.170502
3417.696, 0.7812970
3419.624, 0.9580734
3421.553, 1.085223
3423.481, 1.009534
3425.410, 1.568604
3427.338, 1.374684
3429.267, 0.9510530
3431.195, 0.7319364
3433.124, 0.8417737
3435.052, 0.7722153
3436.980, 0.8226805
3438.909, 0.9847752
3440.837, 0.9803649
3442.766, 0.6291343
3444.694, 0.8918298
3446.623, 0.9007734
3448.551, 0.7101184
3450.480, 0.5886214
3452.408, 0.7476784
3454.337, 0.6839389
3456.265, 0.6720960
3458.194, 0.7246687
3460.122, 0.7473311
3462.051, 0.6595137
3463.979, 1.092311
3465.907, 1.352158
3467.836, 0.6546335
3469.764, -0.3119251
3471.693, 0.3647963
3473.621, 0.8099286
3475.550, 0.9375998
3477.478, 0.8556560
3479.407, 0.7542143
3481.335, 0.9272996
3483.264, 0.6561245
3485.192, 0.3174193
3487.121, 0.3928436
3489.049, 0.8992460
3490.978, 1.313509
3492.906, 0.9687908
3494.834, 0.6628390
3496.763, 0.6208240
3498.691, 0.7255456
3500.620, 0.6286118
3502.548, 0.8584251
3504.477, 0.9743404
3506.405, 0.9403345
3508.334, 0.7956734
3510.262, 0.5409630
3512.191, 0.5481905
3514.119, 0.9385167
3516.048, 1.114512
3517.976, 0.9293377
3519.905, 0.8170444
3521.833, 0.9254752
3523.761, 1.111926
3525.690, 1.153232
3527.618, 0.9975316
3529.547, 0.7630759
3531.475, 0.8714916
3533.404, 0.5512787
3535.332, 0.2654229
3537.261, 0.2466107
3539.189, 0.4588593
3541.118, 0.9938308
3543.046, 1.245128
3544.975, 1.081680
3546.903, 0.8780281
3548.832, 0.9392616
3550.760, 0.9487216
3552.688, 0.8050285
3554.617, 0.4991727
3556.545, 0.4856142
3558.474, 0.7520570
3560.402, 0.4014595
3562.331, 0.9899225
3564.259, 1.008547
3566.188, 0.7689750
3568.116, 0.7771837
3570.045, 1.144451
3571.973, 0.7320086
3573.902, 0.7905605
3575.830, 0.6370530
3577.759, 0.4637973
3579.687, 0.6476429
3581.615, 0.5017775
3583.544, 0.4889792
3585.472, 0.5617556
3587.401, 0.6285495
3589.329, 0.6255582
3591.258, 0.5450734
3593.186, 0.7661797
3595.115, 0.9267036
3597.043, 0.5882555
3598.972, 0.2605791
3600.900, 0.5157420
3602.829, 0.8297731
3604.757, 0.8590121
3606.686, 0.7086298
3608.614, 0.6329505
3610.542, 0.6567115
3612.471, 0.5463060
3614.399, 1.114227
3616.328, 0.6199730
3618.256, 0.5067321
3620.185, 0.6684894
3622.113, 0.4605199
3624.042, 0.2118005
3625.970, 0.7227440
3627.899, 0.7994066
3629.827, 0.8224288
3631.756, 0.6964086
3633.684, 0.1538433
3635.613, 0.8389258
3637.541, 0.9862203
3639.469, 0.8576663
3641.398, 0.6963963
3643.326, 0.5925730
3645.255, 0.5709909
3647.183, 0.7932191
3649.112, 0.1594191
3651.040, 0.5184561
3652.969, 0.8142956
3654.897, 0.3651886
3656.826, 0.8451577
3658.754, 0.6084328
3660.683, 0.1378463
3662.611, 0.4370016
3664.540, 0.8569058
3666.468, 0.6565659
3668.396, 0.2019655
3670.325, 0.4565870
3672.253, 0.5262601
3674.182, 0.6978813
3676.110, 0.9513040
3678.039, 1.002552
3679.967, 0.6303977
3681.896, 0.2917550
3683.824, 0.6520224
3685.753, 0.6706859
3687.681, 0.4640136
3689.610, 0.5434783
3691.538, 0.7386540
3693.467, 0.9424526
3695.395, 0.3759058
3697.323, -0.2091506
3699.252, -8.0169708E-02
3701.180, 0.4692222
3703.109, 0.1400910
3705.037, 0.3381319
3706.966, 0.7716782
3708.894, 0.9204813
3710.823, 0.7346362
3712.751, 0.3589565
3714.680, -6.5527663E-02
3716.608, 0.2327226
3718.537, 0.6497604
3720.465, 0.6076578
3722.394, 0.6156029
3724.322, 0.7536161
3726.250, 0.6092660
3728.179, 0.4800347
3730.107, 0.5996717
3732.036, 0.6732220
3733.964, 0.3641621
3735.893, 0.2635719
3737.821, 0.5313166
3739.750, -0.1858131
3741.678, 0.8560967
3743.607, 0.6825991
3745.535, 0.3168072
3747.464, 0.3627287
3749.392, 0.5347980
3751.321, 0.4210154
3753.249, 0.6308888
3755.177, 0.5961763
3757.106, 0.6258584
3759.034, 0.6591737
3760.963, 0.7196341
3762.891, 0.8296884
3764.820, 0.7956752
3766.748, 0.8829967
3768.677, 0.6925880
3770.605, 0.2262945
3772.534, 0.1607889
3774.462, 0.3644767
3776.391, 0.2415320
3778.319, 0.5602631
3780.248, 0.7823468
3782.176, 0.6386458
3784.104, 0.5398824
3786.033, 0.5578582
3787.961, 0.5433738
3789.890, 0.4689917
3791.818, 0.7509416
3793.747, 0.5522985
3795.675, 0.3583706
3797.604, 0.7130154
3799.532, 0.7905633
3801.461, 0.4559903
3803.389, 0.7437207
3805.318, 0.9496845
3807.246, 1.118771
3809.175, 1.082370
3811.103, 0.6382598
3813.031, 0.5816639
3814.960, 0.8997700
3816.888, 0.5490446
3818.817, 0.4603410
3820.745, 0.4696677
3822.674, 0.8264023
3824.602, 0.5823196
3826.531, 0.3593969
3828.459, 0.5125214
3830.388, 0.4832465
3832.316, 0.5045570
3834.245, 0.4429682
3836.173, 0.3783598
3838.102, 0.6389704
3840.030, 0.8567010
3841.958, 0.8818061
3843.887, 0.7132956
3845.815, -1.3543520E-02
3847.744, 0.5404432
3849.672, 0.8412083
3851.601, 0.8256940
3853.529, 0.7610327
3855.458, 0.5970721
3857.386, 0.3682580
3859.315, 0.4629359
3861.243, 1.300799
3863.172, 0.4351162
3865.100, 0.4488705
3867.029, 0.7387146
3868.957, 0.5272053
3870.885, 0.2856664
3872.814, 0.6610537
3874.742, 1.190348
3876.671, 6.6856302E-02
3878.599, 0.4773671
3880.528, 0.5144529
3882.456, 0.9046146
3884.385, 1.017085
3886.313, 0.4983923
3888.242, 0.2173531
3890.170, 0.6006294
3892.099, 0.3779516
3894.027, 0.6258927
3895.956, 0.4070464
3897.884, 0.4005736
3899.813, 0.6184670
3901.741, 0.8093426
3903.669, 0.9055021
3905.598, 0.5137784
3907.526, 0.4728051
3909.455, 1.081282
3911.383, 0.8940200
3913.312, 0.5387098
3915.240, 0.6689439
3917.169, 0.8888872
3919.097, 0.5640970
3921.026, -2.9451080E-02
3922.954, 0.5664636
3924.883, 0.4344982
3926.811, 0.6692181
3928.740, 0.9057116
3930.668, 0.6812671
3932.596, 0.3482821
3934.525, 0.2426986
3936.453, 6.2916338E-02
3938.382, 0.3000331
3940.310, 0.2325081
3942.239, 0.5786689
3944.167, 0.3997241
3946.096, 0.4168705
3948.024, 0.8859718
3949.953, 0.9144474
3951.881, 0.3949583
3953.810, 1.110904
3955.738, 0.6333542
3957.667, 0.5339425
3959.595, 0.5317254
3961.523, 0.2686780
3963.452, 0.3988912
3965.380, 0.2768949
3967.309, -1.5556480E-02
3969.237, 0.4309277
3971.166, 0.7087389
3973.094, 0.3060112
3975.023, 0.1232952
3976.951, -3.1196910E-03
3978.880, 0.3973735
3980.808, 0.4955677
3982.737, 0.5939800
3984.665, 0.4436536
3986.594, 0.4535041
3988.522, 0.5363578
3990.450, 0.6659921
3992.379, 0.2484213
3994.307, 0.1872215
3996.236, -0.1623477
3998.164, 0.1314611
4000.093, 0.2941785
4002.021, 0.1531033
4003.950, -6.5916203E-02
4005.878, -9.4926253E-02
4007.807, 0.1761184
4009.735, 0.4345661
4011.664, 7.7578239E-02
4013.592, 0.3049830
4015.521, 0.1285525
4017.449, 0.3121034
4019.377, 4.6853699E-02
4021.306, -0.1905399
4023.234, -0.2389644
4025.163, -0.3165042
4027.091, -0.2505105
4029.020, 0.2931481
4030.948, 2.2669669E-02
4032.877, 2.4161750E-02
4034.805, 0.4014674
4036.734, -0.1372421
4038.662, 0.1017557
4040.591, 0.4416324
4042.519, 0.1967642
4044.448, 0.2348227
4046.376, 0.8300734
4048.304, 0.3654159
4050.233, 9.3332358E-02
4052.161, 9.8511809E-03
4054.090, -8.9999540E-03
4056.018, 4.4132981E-02
4057.947, 0.1484452
4059.875, 0.3056372
4061.804, 0.2333507
4063.732, 0.2491326
4065.661, 0.3955396
4067.589, 6.6818237E-02
4069.518, 0.4519242
4071.446, 0.4362888
4073.375, 0.2246853
4075.303, 0.5275744
4077.231, 0.1639596
4079.160, -2.3867059E-02
4081.088, -6.8221232E-03
4083.017, -0.2931743
4084.945, -0.3106207
4086.874, 0.2128581
4088.802, -2.5386550E-02
4090.731, -7.6302543E-02
4092.659, 0.6525846
4094.588, 9.6157469E-02
4096.516, 0.6392016
4098.444, 0.3750038
4100.373, 0.2395916
4102.301, 0.1232353
4104.230, 4.5074731E-02
4106.158, 0.2645853
4108.087, 0.5432373
4110.015, 0.5441005
4111.944, 0.2274782
4113.872, -0.2348371
4115.801, -1.3627300E-02
4117.729, -3.9350599E-02
4119.658, -0.1150282
4121.586, -0.1347697
4123.515, -3.7011791E-02
4125.443, -2.2887349E-02
4127.372, 0.1232641
4129.300, 0.2976070
4131.229, 0.2728054
4133.157, 0.4379821
4135.085, 0.3337548
4137.014, 7.9248741E-02
4138.942, 0.3189884
4140.871, 8.2826272E-02
4142.799, 3.2626069E-03
4144.728, 0.4401931
4146.656, 0.1197978
4148.584, -0.2829266
4150.513, -0.2995463
4152.441, -0.1062408
4154.370, 0.1708826
4156.298, 0.2565898
4158.227, 2.2119220E-02
4160.155, 0.2541575
4162.084, 0.4661815
4164.012, -0.1155801
4165.941, 0.1259155
4167.869, 0.2297434
4169.798, -0.1116549
4171.726, -9.0187468E-02
4173.655, -9.1034167E-02
4175.583, -9.9698313E-02
4177.512, -4.1052200E-02
4179.440, 3.0568900E-02
4181.369, 0.1414586
4183.297, 0.2200744
4185.226, 0.2680486
4187.154, -0.1404485
4189.083, -0.5000226
4191.011, -0.9059615
4192.939, -0.6243467
4194.868, 0.2237953
4196.796, 3.6636818E-02
4198.725, -0.2214979
4200.653, 5.8872020E-03
4202.582, 0.1046970
4204.510, 0.1334862
4206.438, 4.3902788E-02
4208.367, -6.3826539E-02
4210.295, 1.8658269E-02
4212.224, -0.1426452
4214.152, 0.4286209
4216.081, -0.2529280
4218.009, -0.4589015
4219.938, 0.4014920
4221.866, 0.3260512
4223.795, -0.6241857
4225.723, -0.5596483
4227.652, 0.8181016
4229.580, 0.3576649
4231.509, -8.9357957E-02
4233.437, -9.1767102E-02
4235.366, 0.2166506
4237.294, 0.3798900
4239.223, 2.8261360E-02
4241.151, -0.2105455
4243.080, 7.6434329E-02
4245.008, 0.7478979
4246.937, 0.2432615
4248.865, 0.1030096
4250.793, 0.4942888
4252.722, 7.2972611E-02
4254.650, -0.3965245
4256.579, 0.2980796
4258.507, -7.3368452E-03
4260.436, 0.1742839
4262.364, 0.4697902
4264.292, 0.1925856
4266.221, 0.2790080
4268.149, 0.2992791
4270.078, 0.2656785
4272.006, -0.1025309
4273.935, -0.3890804
4275.863, -2.0971250E-02
4277.792, 3.6650460E-02
4279.720, -3.1114420E-02
4281.649, -6.3784629E-02
4283.577, 8.9041933E-02
4285.506, 1.1550070E-02
4287.434, -0.2876894
4289.363, -0.5217190
4291.291, -0.3540382
4293.220, 0.1328649
4295.148, 0.5445439
4297.077, 8.3146192E-02
4299.005, 0.2419516
4300.934, 0.1964646
4302.862, 0.3158159
4304.791, -0.1587524
4306.719, 0.3957814
4308.647, 0.3656248
4310.576, -0.2081337
4312.504, -0.4611548
4314.433, -0.1107756
4316.361, 0.1709499
4318.290, -0.1337514
4320.218, 2.6060049E-03
4322.146, -8.6043760E-02
4324.075, 0.2715888
4326.003, -0.2224357
4327.932, 0.1287171
4329.860, 0.5821075
4331.789, 2.4462170E-03
4333.717, 0.7262525
4335.646, -5.7594001E-02
4337.574, 7.7221140E-02
4339.503, -8.0875397E-02
4341.431, -0.2218473
4343.360, 0.6192033
4345.288, 0.3608718
4347.217, -0.2694239
4349.145, -8.3544433E-02
4351.074, -9.5216982E-02
4353.002, 0.1663566
4354.931, 3.7382610E-02
4356.859, 0.1216461
4358.788, 0.2437330
4360.716, -9.1113701E-02
4362.645, -2.3485940E-02
4364.573, -0.1140373
4366.501, -4.9097471E-02
4368.430, 0.1752620
4370.358, 0.2285246
4372.287, 0.4339364
4374.215, 0.3052103
4376.144, 0.2163850
4378.072, 0.2658113
4380.000, 0.3860704
4381.929, 5.8655839E-02
##END=



