##NAMES=Fizelyite
##RRUFFID=R090068
##IDEAL CHEMISTRY=Ag_5_Pb_14_Sb_21_S_48_
##LOCALITY=Herja(Kisbanya), Romania
##OWNER=RRUFF
##SOURCE=Mark N. Feinglos
##DESCRIPTION=Dark grey metallic striated prismatic crystals, associated with galena and sphalerite.
##STATUS=The identification of this mineral has been confirmed by single-crystal X-ray diffraction
##URL=https://www.rruff.net/odr/rruff_sample/R090068
##DIFFRACTION SAMPLE DESCRIPTION=Single crystal, powder profile is calculated
##CELL PARAMETERS=a: 19.384 b: 13.242 c: 8.756 alpha: 90 beta: 90.3 gamma: 90 volume: 2247.4 crystal system: monoclinic
##FILETYPE=Raman RAW
##RAMAN WAVELENGTH=532

86.13089, -1.265176
88.05936, 0.6907030
89.98782, 3.479904
91.91629, 5.694847
93.84476, 7.403252
95.77322, 8.292381
97.70169, 7.926627
99.63016, 6.446975
101.5586, 5.435309
103.4871, 5.365070
105.4156, 5.532188
107.3440, 5.407928
109.2725, 3.899974
111.2010, 3.216496
113.1294, 4.362585
115.0579, 7.019009
116.9864, 8.970976
118.9148, 8.646091
120.8433, 8.029125
122.7718, 9.545420
124.7002, 13.55328
126.6287, 18.59770
128.5572, 24.24837
130.4856, 30.73532
132.4141, 37.08183
134.3426, 42.40857
136.2710, 47.94508
138.1995, 55.03212
140.1280, 65.06907
142.0564, 75.22300
143.9849, 84.61173
145.9134, 93.13259
147.8418, 101.2473
149.7703, 108.0987
151.6988, 113.8172
153.6272, 115.1946
155.5557, 118.4999
157.4842, 121.5049
159.4126, 123.6029
161.3411, 125.1264
163.2696, 125.4388
165.1980, 124.0059
167.1265, 121.6245
169.0550, 119.8993
170.9834, 118.9701
172.9119, 118.3408
174.8404, 117.8580
176.7688, 117.6999
178.6973, 117.1341
180.6258, 115.5288
182.5542, 113.5808
184.4827, 112.7014
186.4112, 113.8921
188.3396, 114.9798
190.2681, 114.8860
192.1966, 112.5492
194.1250, 110.9649
196.0535, 110.7897
197.9820, 111.4151
199.9104, 111.6798
201.8389, 110.8845
203.7674, 110.1899
205.6958, 110.1567
207.6243, 110.7821
209.5528, 111.5857
211.4812, 112.5489
213.4097, 113.6608
215.3382, 114.8233
217.2666, 116.3179
219.1951, 117.5745
221.1236, 118.2204
223.0520, 118.1780
224.9805, 118.4979
226.9090, 119.5443
228.8374, 120.8547
230.7659, 121.8856
232.6944, 122.4450
234.6228, 123.1604
236.5513, 124.1888
238.4798, 125.7482
240.4082, 126.7343
242.3367, 126.7901
244.2652, 126.6692
246.1936, 127.0492
248.1221, 128.4646
250.0506, 129.4448
251.9790, 129.5039
253.9075, 128.5529
255.8360, 127.9100
257.7644, 127.5864
259.6929, 127.3990
261.6214, 127.3821
263.5498, 128.0770
265.4783, 128.2706
267.4068, 127.5255
269.3352, 126.0183
271.2637, 124.6279
273.1922, 123.2472
275.1206, 122.1057
277.0491, 121.3947
278.9776, 121.2224
280.9060, 121.3190
282.8345, 121.8521
284.7630, 122.7905
286.6914, 123.6890
288.6199, 123.8987
290.5484, 124.4049
292.4768, 126.3298
294.4053, 130.0987
296.3338, 133.0725
298.2622, 134.2218
300.1907, 134.5452
302.1192, 134.6740
304.0476, 134.7912
305.9761, 133.9896
307.9046, 132.1616
309.8330, 129.4174
311.7615, 127.3606
313.6900, 126.4501
315.6184, 126.3789
317.5469, 126.7003
319.4754, 127.6133
321.4038, 128.2371
323.3323, 128.5020
325.2608, 128.5181
327.1892, 128.4345
329.1177, 128.1668
331.0462, 127.7830
332.9747, 127.3575
334.9031, 126.9310
336.8316, 126.5504
338.7601, 126.0652
340.6885, 125.3976
342.6170, 124.6961
344.5455, 124.1023
346.4739, 123.4516
348.4024, 122.6725
350.3309, 121.7583
352.2593, 120.7187
354.1878, 119.4447
356.1163, 118.2699
358.0447, 117.3764
359.9732, 116.8608
361.9017, 116.0909
363.8301, 114.6126
365.7586, 112.6736
367.6871, 112.0642
369.6155, 114.4911
371.5440, 116.5294
373.4725, 116.0713
375.4009, 113.1554
377.3294, 111.4062
379.2579, 111.9413
381.1863, 113.2136
383.1148, 113.5418
385.0433, 112.0775
386.9717, 111.4187
388.9002, 112.3933
390.8287, 114.4575
392.7571, 115.8863
394.6856, 116.7809
396.6141, 117.6794
398.5425, 118.0555
400.4710, 117.5700
402.3995, 116.5927
404.3279, 115.2277
406.2564, 113.8869
408.1849, 113.2559
410.1133, 114.0822
412.0418, 114.9898
413.9703, 115.5155
415.8987, 115.6171
417.8272, 115.4261
419.7557, 115.0649
421.6841, 114.5378
423.6126, 113.9967
425.5411, 113.3876
427.4695, 113.6808
429.3980, 114.8363
431.3265, 116.1223
433.2549, 116.8034
435.1834, 116.5384
437.1119, 116.3803
439.0403, 116.8835
440.9688, 118.2392
442.8973, 119.8851
444.8257, 121.9223
446.7542, 123.1622
448.6827, 123.1703
450.6111, 121.4146
452.5396, 119.9014
454.4681, 118.9461
456.3965, 118.6724
458.3250, 118.7634
460.2535, 118.6338
462.1819, 118.5451
464.1104, 119.0518
466.0389, 118.8700
467.9673, 120.0590
469.8958, 117.3820
471.8243, 119.9376
473.7527, 121.4673
475.6812, 122.0262
477.6097, 118.7064
479.5381, 120.3951
481.4666, 120.0766
483.3951, 119.6758
485.3235, 122.0693
487.2520, 119.3137
489.1805, 121.6630
491.1089, 121.9744
493.0374, 123.2186
494.9659, 122.4432
496.8943, 122.2915
498.8228, 124.1600
500.7513, 124.9100
502.6797, 123.9021
504.6082, 125.2055
506.5367, 122.3793
508.4651, 123.1769
510.3936, 125.5380
512.3221, 124.6316
514.2505, 125.9719
516.1790, 126.4566
518.1075, 123.0526
520.0359, 126.4114
521.9644, 126.8455
523.8929, 124.2766
525.8214, 127.4036
527.7498, 125.2487
529.6783, 124.9792
531.6068, 126.1284
533.5352, 125.7986
535.4637, 127.8007
537.3922, 127.5563
539.3206, 127.1112
541.2491, 127.5420
543.1776, 125.4907
545.1060, 128.0443
547.0345, 127.4523
548.9630, 128.4239
550.8914, 129.7499
552.8199, 128.3622
554.7484, 129.8475
556.6768, 126.8775
558.6053, 127.6354
560.5338, 127.9919
562.4622, 130.7310
564.3907, 127.7828
566.3192, 128.4371
568.2476, 130.6253
570.1761, 130.6672
572.1046, 131.6065
574.0330, 129.8892
575.9615, 130.6676
577.8900, 130.7581
579.8184, 133.2256
581.7469, 133.8165
583.6754, 132.1443
585.6038, 130.4817
587.5323, 133.1203
589.4608, 131.3912
591.3892, 131.1091
593.3177, 132.4788
595.2462, 134.0982
597.1746, 134.5414
599.1031, 132.8311
601.0316, 131.8931
602.9600, 132.7995
604.8885, 134.4376
606.8170, 134.7498
608.7454, 133.0489
610.6739, 131.8886
612.6024, 132.5430
614.5308, 134.3327
616.4593, 135.2692
618.3878, 134.5738
620.3162, 133.7183
622.2447, 133.0562
624.1732, 132.7977
626.1016, 132.4516
628.0301, 132.0810
629.9586, 131.9275
631.8870, 131.9562
633.8155, 131.8840
635.7440, 132.4481
637.6724, 134.4007
639.6009, 136.0633
641.5294, 136.1843
643.4578, 134.7516
645.3863, 134.0558
647.3148, 135.5048
649.2432, 137.5448
651.1717, 138.7223
653.1002, 138.0017
655.0286, 137.9196
656.9571, 139.7704
658.8856, 141.6245
660.8140, 141.6420
662.7425, 139.5061
664.6710, 138.0345
666.5994, 137.6333
668.5279, 138.0885
670.4564, 139.3529
672.3848, 141.1686
674.3133, 142.4876
676.2418, 142.9257
678.1702, 143.0958
680.0987, 142.6764
682.0272, 141.8148
683.9556, 141.4842
685.8841, 142.0927
687.8126, 142.3529
689.7410, 142.1894
691.6695, 141.8864
693.5980, 141.8040
695.5264, 141.7352
697.4549, 141.4290
699.3834, 141.2950
701.3118, 141.4767
703.2403, 141.6499
705.1688, 141.4684
707.0972, 141.0448
709.0257, 141.3595
710.9542, 143.3879
712.8826, 145.2547
714.8111, 146.0297
716.7396, 144.9166
718.6680, 143.8183
720.5965, 142.5516
722.5250, 141.9961
724.4534, 143.0767
726.3819, 145.2047
728.3104, 146.2161
730.2388, 144.3225
732.1673, 142.9374
734.0958, 143.9671
736.0242, 147.2188
737.9527, 148.8865
739.8812, 148.0098
741.8096, 146.8532
743.7381, 146.3571
745.6666, 146.5107
747.5950, 146.9046
749.5235, 147.8221
751.4520, 148.6210
753.3804, 149.1224
755.3089, 149.2559
757.2374, 149.2947
759.1658, 148.9423
761.0943, 148.8828
763.0228, 149.6912
764.9512, 151.2713
766.8797, 152.1423
768.8082, 151.7420
770.7366, 151.0896
772.6651, 150.3273
774.5936, 149.5100
776.5220, 149.2840
778.4505, 150.1627
780.3790, 151.1177
782.3074, 151.6126
784.2359, 151.6300
786.1644, 151.7048
788.0928, 151.6830
790.0213, 151.8807
791.9498, 152.6457
793.8782, 153.9676
795.8067, 154.8572
797.7352, 155.3362
799.6636, 155.2376
801.5921, 154.2030
803.5206, 152.1696
805.4490, 151.0587
807.3775, 151.4405
809.3060, 152.3105
811.2344, 153.4560
813.1629, 154.7393
815.0914, 155.6708
817.0198, 156.1474
818.9483, 156.6596
820.8768, 157.4565
822.8052, 158.4645
824.7337, 158.7167
826.6622, 157.3545
828.5906, 156.0385
830.5191, 155.4662
832.4476, 155.7986
834.3760, 156.4310
836.3045, 157.8762
838.2330, 159.0000
840.1614, 158.9225
842.0899, 157.7910
844.0184, 157.5089
845.9468, 159.3584
847.8753, 161.0247
849.8038, 161.5322
851.7322, 160.9682
853.6607, 160.4435
855.5892, 159.7619
857.5176, 159.0226
859.4461, 158.2625
861.3746, 157.5947
863.3030, 157.4939
865.2315, 158.4970
867.1600, 159.7802
869.0884, 161.0611
871.0169, 161.4417
872.9454, 161.0972
874.8738, 159.7243
876.8023, 158.9350
878.7308, 159.7834
880.6592, 161.1302
882.5877, 161.6603
884.5162, 160.8810
886.4446, 160.7160
888.3731, 161.4406
890.3016, 162.0893
892.2300, 162.6441
894.1585, 163.7075
896.0870, 164.4390
898.0154, 164.1667
899.9439, 162.6188
901.8724, 161.4583
903.8008, 161.1492
905.7293, 161.7080
907.6578, 163.3089
909.5862, 164.9044
911.5147, 165.6214
913.4432, 164.7869
915.3716, 164.0143
917.3001, 163.5365
919.2286, 163.4632
921.1570, 163.7019
923.0855, 164.3431
925.0140, 164.9702
926.9424, 165.5565
928.8709, 166.0790
930.7994, 166.1858
932.7278, 165.5950
934.6563, 165.4394
936.5848, 166.3846
938.5132, 167.6438
940.4417, 168.0889
942.3702, 166.8264
944.2986, 165.9594
946.2271, 165.8769
948.1556, 166.3633
950.0840, 167.2600
952.0125, 168.5697
953.9410, 169.1552
955.8694, 169.4449
957.7979, 168.5610
959.7264, 169.2790
961.6548, 168.7144
963.5833, 168.0962
965.5118, 168.7470
967.4402, 168.0540
969.3687, 169.3332
971.2972, 167.8997
973.2256, 167.5498
975.1541, 168.2073
977.0826, 168.7153
979.0110, 168.8564
980.9395, 169.7749
982.8680, 170.9156
984.7964, 171.0606
986.7249, 170.7024
988.6534, 169.9021
990.5818, 169.8153
992.5103, 171.3308
994.4388, 173.4223
996.3672, 174.4306
998.2957, 174.2362
1000.224, 174.3446
1002.153, 174.8666
1004.081, 173.6465
1006.010, 172.3025
1007.938, 172.1554
1009.867, 172.8306
1011.795, 173.2543
1013.723, 173.0939
1015.652, 173.4007
1017.580, 174.3347
1019.509, 175.0246
1021.437, 174.6511
1023.366, 173.6767
1025.294, 173.3884
1027.223, 174.4646
1029.151, 175.6265
1031.080, 176.2785
1033.008, 175.9681
1034.937, 174.2314
1036.865, 171.4827
1038.794, 171.0776
1040.722, 173.8759
1042.651, 177.4655
1044.579, 179.3500
1046.507, 179.9043
1048.436, 180.3036
1050.364, 180.7605
1052.293, 180.8993
1054.221, 180.3707
1056.150, 179.4127
1058.078, 179.0082
1060.007, 180.4151
1061.935, 182.1749
1063.864, 183.1789
1065.792, 182.5400
1067.721, 181.6633
1069.649, 181.0450
1071.578, 181.3041
1073.506, 182.6004
1075.434, 183.8295
1077.363, 183.6272
1079.291, 182.6382
1081.220, 182.7527
1083.148, 183.6190
1085.077, 183.9644
1087.005, 183.1868
1088.934, 182.3594
1090.862, 182.4241
1092.791, 183.8569
1094.719, 184.8404
1096.648, 183.7825
1098.576, 180.6335
1100.505, 180.1140
1102.433, 181.8255
1104.361, 182.9295
1106.290, 183.3431
1108.218, 183.7956
1110.147, 184.4322
1112.075, 185.2199
1114.004, 185.8391
1115.932, 185.5883
1117.861, 184.5998
1119.789, 183.5950
1121.718, 183.7895
1123.646, 184.6201
1125.575, 184.1745
1127.503, 183.9147
1129.432, 184.9018
1131.360, 186.7971
1133.288, 187.6469
1135.217, 187.6179
1137.145, 187.5882
1139.074, 187.8346
1141.002, 188.4334
1142.931, 189.5803
1144.859, 191.5426
1146.788, 192.7680
1148.716, 192.1346
1150.645, 190.6296
1152.573, 189.5986
1154.502, 189.6754
1156.430, 190.8869
1158.359, 192.6162
1160.287, 192.2605
1162.215, 190.4456
1164.144, 188.7514
1166.072, 188.3204
1168.001, 187.9431
1169.929, 188.0167
1171.858, 190.0051
1173.786, 189.6089
1175.715, 193.2013
1177.643, 195.3096
1179.572, 196.0139
1181.500, 191.1084
1183.429, 193.4468
1185.357, 192.8821
1187.286, 192.1984
1189.214, 195.5563
1191.142, 191.4666
1193.071, 194.7605
1194.999, 195.1069
1196.928, 196.8024
1198.856, 195.5768
1200.785, 195.2535
1202.713, 197.8520
1204.642, 198.8327
1206.570, 197.2708
1208.499, 199.0520
1210.427, 194.8604
1212.356, 195.9100
1214.284, 199.2208
1216.213, 197.8060
1218.141, 199.6405
1220.069, 200.2374
1221.998, 195.2101
1223.926, 199.9640
1225.855, 200.4879
1227.783, 196.6683
1229.712, 201.0871
1231.640, 197.8663
1233.569, 197.3725
1235.497, 198.9306
1237.426, 198.3497
1239.354, 201.1413
1241.283, 200.6839
1243.211, 199.9360
1245.140, 200.4552
1247.068, 197.3842
1248.996, 200.9734
1250.925, 200.0133
1252.853, 201.3145
1254.782, 203.1283
1256.710, 201.0173
1258.639, 201.0452
1260.567, 202.5200
1262.496, 203.0590
1264.424, 201.5443
1266.353, 199.8508
1268.281, 200.0908
1270.210, 202.3819
1272.138, 203.3268
1274.067, 201.5834
1275.995, 199.7285
1277.923, 199.6777
1279.852, 202.2029
1281.780, 204.5478
1283.709, 206.2243
1285.637, 206.9002
1287.566, 206.3922
1289.494, 205.9494
1291.423, 206.4828
1293.351, 207.7194
1295.280, 207.8101
1297.208, 205.5285
1299.137, 203.8935
1301.065, 203.7702
1302.994, 204.5212
1304.922, 205.7278
1306.850, 207.2103
1308.779, 207.6812
1310.707, 206.0116
1312.636, 205.4583
1314.564, 208.1819
1316.493, 211.2522
1318.421, 211.6759
1320.350, 209.8605
1322.278, 208.8105
1324.207, 209.1909
1326.135, 209.7520
1328.064, 209.8255
1329.992, 209.5704
1331.921, 209.6669
1333.849, 210.2354
1335.777, 211.1939
1337.706, 213.4794
1339.634, 214.8879
1341.563, 213.9793
1343.491, 211.6689
1345.420, 210.2546
1347.348, 209.6018
1349.277, 210.1057
1351.205, 213.8612
1353.134, 217.0273
1355.062, 216.4740
1356.991, 212.8306
1358.919, 210.7174
1360.848, 210.4712
1362.776, 211.3371
1364.704, 214.3166
1366.633, 217.0714
1368.561, 218.2036
1370.490, 218.1682
1372.418, 217.3592
1374.347, 214.9308
1376.275, 213.4626
1378.204, 214.7531
1380.132, 216.9056
1382.061, 218.1498
1383.989, 218.4190
1385.918, 218.7898
1387.846, 219.6705
1389.775, 220.2880
1391.703, 220.3387
1393.631, 220.0344
1395.560, 219.5919
1397.488, 218.9414
1399.417, 218.6594
1401.345, 219.1548
1403.274, 219.4122
1405.202, 218.8866
1407.131, 218.0867
1409.059, 217.5286
1410.988, 217.0922
1412.916, 218.0751
1414.845, 222.8421
1416.773, 226.1470
1418.702, 224.4818
1420.630, 220.9737
1422.558, 220.5923
1424.487, 223.4786
1426.415, 224.8628
1428.344, 222.6638
1430.272, 221.0582
1432.201, 223.4855
1434.129, 226.9187
1436.058, 226.3927
1437.986, 221.3924
1439.915, 219.1194
1441.843, 222.1322
1443.772, 225.6045
1445.700, 228.4853
1447.629, 230.5569
1449.557, 231.0947
1451.485, 229.5947
1453.414, 228.7569
1455.342, 229.3269
1457.271, 229.7726
1459.199, 229.1428
1461.128, 228.3540
1463.056, 228.9851
1464.985, 231.7141
1466.913, 232.9868
1468.842, 231.2346
1470.770, 229.9688
1472.699, 231.0395
1474.627, 232.8663
1476.556, 233.0325
1478.484, 231.1530
1480.412, 229.7098
1482.341, 229.2962
1484.269, 229.0804
1486.198, 227.9503
1488.126, 227.0725
1490.055, 228.7321
1491.983, 232.5583
1493.912, 234.7905
1495.840, 234.6911
1497.769, 234.1424
1499.697, 233.6164
1501.626, 233.1481
1503.554, 232.7167
1505.483, 232.0472
1507.411, 231.1404
1509.339, 229.8581
1511.268, 229.6087
1513.196, 231.1074
1515.125, 233.1407
1517.053, 235.8502
1518.982, 238.8053
1520.910, 239.3091
1522.839, 235.9684
1524.767, 234.0690
1526.696, 236.0627
1528.624, 238.1396
1530.553, 238.0522
1532.481, 236.9276
1534.410, 237.5397
1536.338, 240.9258
1538.266, 242.5755
1540.195, 241.2775
1542.123, 239.5057
1544.052, 237.5882
1545.980, 236.1376
1547.909, 235.7117
1549.837, 236.1061
1551.766, 237.0288
1553.694, 239.2671
1555.623, 241.0853
1557.551, 241.9180
1559.480, 242.3261
1561.408, 243.2052
1563.337, 244.4428
1565.265, 243.7423
1567.193, 239.3212
1569.122, 236.5728
1571.050, 236.8786
1572.979, 238.1919
1574.907, 239.7004
1576.836, 241.3208
1578.764, 242.8399
1580.693, 244.2828
1582.621, 245.1663
1584.550, 245.3631
1586.478, 245.4090
1588.407, 245.1129
1590.335, 244.8607
1592.264, 245.7863
1594.192, 247.5914
1596.120, 247.3923
1598.049, 243.8646
1599.977, 241.8431
1601.906, 243.8893
1603.834, 246.6343
1605.763, 247.7454
1607.691, 247.9509
1609.620, 248.7292
1611.548, 250.0358
1613.477, 251.5551
1615.405, 254.2399
1617.334, 255.7392
1619.262, 253.2923
1621.191, 249.8460
1623.119, 249.2082
1625.047, 251.0972
1626.976, 252.0144
1628.904, 251.1471
1630.833, 250.9409
1632.761, 253.2437
1634.690, 255.2290
1636.618, 254.4276
1638.547, 252.1858
1640.475, 251.7377
1642.404, 253.2982
1644.332, 254.8234
1646.261, 256.4215
1648.189, 257.2207
1650.118, 256.0273
1652.046, 254.5412
1653.974, 254.4085
1655.903, 255.4485
1657.831, 256.5976
1659.760, 258.1998
1661.688, 258.4404
1663.617, 255.3232
1665.545, 252.7885
1667.474, 252.8182
1669.402, 254.4522
1671.331, 256.6790
1673.259, 259.5139
1675.188, 260.8023
1677.116, 259.6769
1679.045, 258.7643
1680.973, 259.2726
1682.901, 259.7643
1684.830, 258.7834
1686.758, 257.2549
1688.687, 258.0822
1690.615, 261.7561
1692.544, 263.3884
1694.472, 260.5872
1696.401, 259.1247
1698.329, 262.6390
1700.258, 266.5319
1702.186, 267.1566
1704.115, 265.1747
1706.043, 263.2136
1707.972, 261.0621
1709.900, 260.2414
1711.828, 262.3642
1713.757, 263.5651
1715.685, 261.2513
1717.614, 258.4035
1719.542, 257.7340
1721.471, 258.9698
1723.399, 260.7498
1725.328, 263.3924
1727.256, 265.1124
1729.185, 264.9348
1731.113, 264.9406
1733.042, 267.1358
1734.970, 269.0046
1736.899, 266.6603
1738.827, 261.2365
1740.755, 260.5753
1742.684, 266.3419
1744.612, 270.1232
1746.541, 269.5786
1748.469, 268.1615
1750.398, 266.4849
1752.326, 265.3319
1754.255, 266.1005
1756.183, 268.2390
1758.112, 268.5071
1760.040, 263.5182
1761.969, 267.0854
1763.897, 269.1686
1765.826, 269.8478
1767.754, 264.9171
1769.682, 267.2302
1771.611, 266.6404
1773.539, 265.9315
1775.468, 269.2643
1777.396, 265.1495
1779.325, 268.4182
1781.253, 268.7394
1783.182, 270.4097
1785.110, 269.1590
1787.039, 268.8105
1788.967, 271.3838
1790.896, 272.3393
1792.824, 270.7523
1794.753, 272.5084
1796.681, 268.2915
1798.609, 269.3159
1800.538, 272.6017
1802.466, 271.1615
1804.395, 272.9709
1806.323, 273.5427
1808.252, 268.4903
1810.180, 273.2189
1812.109, 273.7177
1814.037, 269.8729
1815.966, 274.2665
1817.894, 271.0206
1819.823, 270.5016
1821.751, 272.0346
1823.680, 271.4284
1825.608, 274.1949
1827.536, 273.8623
1829.465, 278.4446
1831.393, 279.6013
1833.322, 275.5856
1835.250, 273.6363
1837.179, 277.0675
1839.107, 279.2919
1841.036, 276.4310
1842.964, 272.9629
1844.893, 273.4544
1846.821, 276.5013
1848.750, 277.6258
1850.678, 276.3029
1852.607, 275.3353
1854.535, 274.4235
1856.464, 274.3691
1858.392, 276.1105
1860.320, 277.8071
1862.249, 278.1247
1864.177, 277.9875
1866.106, 278.9681
1868.034, 280.9420
1869.963, 281.6473
1871.891, 280.3378
1873.820, 279.8760
1875.748, 281.7317
1877.677, 282.6877
1879.605, 280.4983
1881.534, 278.5177
1883.462, 280.0666
1885.391, 283.2863
1887.319, 283.6534
1889.247, 281.1917
1891.176, 279.8283
1893.104, 280.1359
1895.033, 280.1771
1896.961, 278.8250
1898.890, 278.3590
1900.818, 281.0580
1902.747, 284.0967
1904.675, 284.8752
1906.604, 284.0824
1908.532, 282.8914
1910.461, 281.3141
1912.389, 281.9051
1914.318, 286.1304
1916.246, 288.8670
1918.174, 287.7061
1920.103, 286.1298
1922.031, 285.5087
1923.960, 285.4830
1925.888, 286.0621
1927.817, 286.9067
1929.745, 286.5725
1931.674, 284.5778
1933.602, 283.7609
1935.531, 284.8711
1937.459, 286.0069
1939.388, 287.5009
1941.316, 288.3515
1943.245, 287.5216
1945.173, 286.3336
1947.101, 286.3953
1949.030, 287.2645
1950.958, 286.9770
1952.887, 285.0322
1954.815, 285.4058
1956.744, 289.9182
1958.672, 292.3766
1960.601, 290.5602
1962.529, 288.0174
1964.458, 285.1309
1966.386, 283.2234
1968.315, 284.2433
1970.243, 286.8150
1972.172, 287.5453
1974.100, 286.6483
1976.028, 287.6559
1977.957, 291.5509
1979.885, 293.8572
1981.814, 292.6952
1983.742, 291.4670
1985.671, 291.9352
1987.599, 292.2857
1989.528, 290.0262
1991.456, 291.8893
1993.385, 288.8658
1995.313, 293.9286
1997.242, 297.1766
1999.170, 298.2531
2001.099, 298.3593
2003.027, 297.1340
2004.955, 295.4508
2006.884, 292.0249
2008.812, 289.9046
2010.741, 291.9301
2012.669, 294.8575
2014.598, 294.9912
2016.526, 293.3637
2018.455, 293.2618
2020.383, 294.6473
2022.312, 295.3027
2024.240, 294.8520
2026.169, 294.6933
2028.097, 294.9971
2030.026, 295.7331
2031.954, 297.9921
2033.882, 299.4026
2035.811, 297.6519
2037.739, 294.7236
2039.668, 292.3526
2041.596, 291.0119
2043.525, 293.4239
2045.453, 300.8009
2047.382, 304.7261
2049.310, 303.7358
2051.239, 301.7470
2053.167, 297.5169
2055.096, 294.3836
2057.024, 293.9577
2058.953, 294.3537
2060.881, 294.4383
2062.810, 294.4950
2064.738, 294.9981
2066.667, 295.8301
2068.595, 296.1686
2070.523, 295.9838
2072.452, 297.6820
2074.380, 302.4120
2076.309, 304.6935
2078.237, 302.2398
2080.166, 299.3613
2082.094, 296.7608
2084.023, 295.3846
2085.951, 296.6765
2087.880, 298.8865
2089.808, 294.6892
2091.737, 301.3188
2093.665, 305.1289
2095.594, 306.2712
2097.522, 296.7549
2099.450, 301.0019
2101.379, 299.7332
2103.307, 298.2383
2105.236, 304.4226
2107.164, 296.4565
2109.093, 302.5190
2111.021, 302.9814
2112.950, 306.0069
2114.878, 303.4825
2116.807, 302.6723
2118.735, 307.4136
2120.664, 309.0811
2122.592, 305.9178
2124.521, 309.1062
2126.449, 300.9463
2128.377, 302.7446
2130.306, 308.8395
2132.234, 305.9553
2134.163, 309.2451
2136.091, 310.1835
2138.020, 300.4359
2139.948, 309.2723
2141.877, 310.0718
2143.805, 302.6189
2145.734, 310.8187
2147.662, 304.5035
2149.591, 303.3693
2151.519, 306.1340
2153.448, 304.8343
2155.376, 309.9427
2157.304, 308.8775
2159.233, 307.2609
2161.161, 308.0513
2163.090, 302.0208
2165.018, 308.6446
2166.947, 306.6244
2168.875, 308.9009
2170.804, 312.1514
2172.732, 307.9445
2174.661, 311.6326
2176.589, 303.0776
2178.518, 304.7669
2180.446, 305.3529
2182.375, 312.4869
2184.303, 303.9916
2186.231, 305.3961
2188.160, 311.0159
2190.088, 310.7376
2192.017, 312.9254
2193.945, 307.8127
2195.874, 309.5583
2197.802, 309.4134
2199.731, 315.8008
2201.659, 317.0312
2203.588, 312.0425
2205.516, 307.0800
2207.445, 313.9377
2209.373, 309.5920
2211.302, 311.2905
2213.230, 306.7467
2215.158, 307.5925
2217.087, 308.3530
2219.015, 311.8762
2220.944, 307.0218
2222.872, 313.0345
2224.801, 312.7664
2226.729, 314.3483
2228.658, 315.7245
2230.586, 308.6721
2232.515, 308.5292
2234.443, 318.2727
2236.372, 312.9389
2238.300, 310.6480
2240.229, 310.5206
2242.157, 320.6027
2244.085, 321.1951
2246.014, 310.4445
2247.942, 320.0766
2249.871, 317.1690
2251.799, 317.9876
2253.728, 317.4469
2255.656, 317.3084
2257.585, 312.0509
2259.513, 313.5394
2261.442, 320.5133
2263.370, 318.1355
2265.299, 322.1122
2267.227, 314.5082
2269.156, 313.7784
2271.084, 314.8730
2273.012, 316.6331
2274.941, 313.0763
2276.869, 320.1527
2278.798, 320.1493
2280.726, 314.0103
2282.655, 314.5270
2284.583, 313.9386
2286.512, 324.8546
2288.440, 319.9534
2290.369, 313.9322
2292.297, 320.4501
2294.226, 322.9490
2296.154, 320.0143
2298.083, 319.9669
2300.011, 314.4419
2301.939, 317.3169
2303.868, 317.3031
2305.796, 322.0491
2307.725, 316.5462
2309.653, 322.8420
2311.582, 317.6140
2313.510, 324.3875
2315.439, 318.9159
2317.367, 324.3523
2319.296, 316.7683
2321.224, 318.6084
2323.153, 321.1956
2325.081, 326.1954
2327.010, 321.9193
2328.938, 327.4914
2330.866, 324.4208
2332.795, 326.9759
2334.723, 326.4114
2336.652, 321.9428
2338.580, 328.4858
2340.509, 324.9857
2342.437, 328.2671
2344.366, 320.5644
2346.294, 326.2144
2348.223, 328.9899
2350.151, 331.1730
2352.080, 330.8655
2354.008, 329.4480
2355.937, 329.7722
2357.865, 327.1896
2359.793, 320.3623
2361.722, 322.3423
2363.650, 326.9865
2365.579, 330.3101
2367.507, 324.6921
2369.436, 328.6968
2371.364, 328.3689
2373.293, 332.1411
2375.221, 328.0539
2377.150, 333.3235
2379.078, 326.0127
2381.007, 332.2325
2382.935, 334.7810
2384.864, 323.5103
2386.792, 334.9352
2388.720, 325.8682
2390.649, 328.8813
2392.577, 331.1321
2394.506, 327.4525
2396.434, 328.0226
2398.363, 325.9523
2400.291, 326.0374
2402.220, 327.4103
2404.148, 329.9160
2406.077, 332.2368
2408.005, 330.2628
2409.934, 331.8866
2411.862, 332.6765
2413.791, 331.4861
2415.719, 334.1131
2417.647, 333.7802
2419.576, 333.0069
2421.504, 331.7871
2423.433, 330.6451
2425.361, 329.4896
2427.290, 329.5343
2429.218, 331.5099
2431.147, 333.2687
2433.075, 334.5407
2435.004, 335.2702
2436.932, 334.6391
2438.861, 334.5951
2440.789, 336.3997
2442.718, 337.8178
2444.646, 337.0768
2446.574, 336.8983
2448.503, 340.3981
2450.431, 343.4381
2452.360, 342.2779
2454.288, 339.5499
2456.217, 336.8998
2458.145, 335.2703
2460.074, 337.1513
2462.002, 340.3222
2463.931, 340.0220
2465.859, 337.7403
2467.788, 337.3549
2469.716, 338.2848
2471.645, 337.9812
2473.573, 336.5981
2475.501, 335.9785
2477.430, 336.1377
2479.358, 336.6896
2481.287, 337.6108
2483.215, 339.4116
2485.144, 342.3812
2487.072, 343.3263
2489.001, 341.4516
2490.929, 340.1670
2492.858, 340.5301
2494.786, 340.2100
2496.715, 337.8603
2498.643, 336.5374
2500.572, 337.0060
2502.500, 337.8778
2504.428, 339.4598
2506.357, 340.0966
2508.285, 337.5549
2510.214, 336.7618
2512.142, 342.8242
2514.071, 347.3924
2515.999, 344.3908
2517.928, 340.5086
2519.856, 339.2251
2521.785, 339.7022
2523.713, 343.4086
2525.642, 346.2842
2527.570, 343.1582
2529.499, 339.0407
2531.427, 339.9390
2533.355, 342.9034
2535.284, 344.1209
2537.212, 344.3052
2539.141, 344.2618
2541.069, 344.3305
2542.998, 345.5843
2544.926, 347.4040
2546.855, 348.1758
2548.783, 348.1388
2550.712, 348.2484
2552.640, 348.4928
2554.569, 349.0618
2556.497, 349.9235
2558.426, 349.2472
2560.354, 347.2346
2562.282, 346.5680
2564.211, 347.2664
2566.139, 347.3775
2568.068, 346.5775
2569.996, 346.8145
2571.925, 348.2713
2573.853, 350.1690
2575.782, 352.8621
2577.710, 354.1738
2579.639, 353.9113
2581.567, 353.1058
2583.496, 351.8891
2585.424, 350.4469
2587.353, 347.5448
2589.281, 347.2337
2591.209, 351.8607
2593.138, 354.5591
2595.066, 353.7765
2596.995, 353.3326
2598.923, 354.2184
2600.852, 354.7232
2602.780, 353.9372
2604.709, 353.5390
2606.637, 353.9715
2608.566, 354.9732
2610.494, 358.1846
2612.423, 358.8956
2614.351, 353.5781
2616.280, 350.3213
2618.208, 353.9332
2620.136, 357.6853
2622.065, 359.9409
2623.993, 360.0415
2625.922, 354.1568
2627.850, 351.1723
2629.779, 357.4863
2631.707, 363.2687
2633.636, 358.6089
2635.564, 364.9903
2637.493, 368.5523
2639.421, 369.4465
2641.350, 359.6820
2643.278, 363.6810
2645.207, 362.1641
2647.135, 360.4211
2649.063, 366.3572
2650.992, 358.1430
2652.920, 363.9573
2654.849, 364.1716
2656.777, 366.9489
2658.706, 364.1765
2660.634, 363.1181
2662.563, 367.6114
2664.491, 369.0306
2666.420, 365.6193
2668.348, 368.5595
2670.277, 360.1515
2672.205, 361.7017
2674.134, 367.5484
2676.062, 364.4161
2677.990, 367.4578
2679.919, 368.1481
2681.847, 358.1523
2683.776, 366.7407
2685.704, 367.2920
2687.633, 359.5910
2689.561, 367.5427
2691.490, 360.9793
2693.418, 359.5970
2695.347, 362.1136
2697.275, 355.3487
2699.204, 362.0750
2701.132, 365.9818
2703.061, 367.2208
2704.989, 357.8011
2706.917, 362.1447
2708.846, 360.9727
2710.774, 359.5745
2712.703, 365.8554
2714.631, 357.9860
2716.560, 364.1451
2718.488, 364.7042
2720.417, 367.8263
2722.345, 365.3986
2724.274, 364.6851
2726.202, 369.5230
2728.131, 371.2872
2730.059, 368.2206
2731.988, 371.5056
2733.916, 363.4423
2735.844, 365.3372
2737.773, 371.5288
2739.701, 368.7413
2741.630, 372.1278
2743.558, 373.1628
2745.487, 363.5119
2747.415, 372.4450
2749.344, 373.3412
2751.272, 365.9849
2753.201, 374.2814
2755.129, 368.0628
2757.058, 367.0253
2758.986, 369.8866
2760.915, 368.6836
2762.843, 373.8886
2764.771, 372.9201
2766.700, 371.4001
2768.628, 372.2872
2770.557, 366.3534
2772.485, 373.0737
2774.414, 371.1503
2776.342, 373.5234
2778.271, 376.8705
2780.199, 372.7603
2782.128, 376.5451
2784.056, 368.0867
2785.985, 369.8727
2787.913, 370.5554
2789.842, 377.7860
2791.770, 369.3873
2793.698, 370.8885
2795.627, 376.6050
2797.555, 376.4233
2799.484, 378.7078
2801.412, 373.6917
2803.341, 375.5340
2805.269, 375.4857
2807.198, 381.9698
2809.126, 383.2969
2811.055, 378.4048
2812.983, 373.5390
2814.912, 380.4933
2816.840, 376.2443
2818.769, 378.0394
2820.697, 373.5923
2822.625, 374.5347
2824.554, 375.3919
2826.482, 379.0117
2828.411, 374.2540
2830.339, 380.3633
2832.268, 380.1919
2834.196, 381.8705
2836.125, 383.3433
2838.053, 376.3876
2839.982, 376.3414
2841.910, 386.1815
2843.839, 380.9443
2845.767, 378.7502
2847.696, 378.7194
2849.624, 388.8981
2851.552, 389.5871
2853.481, 378.9332
2855.409, 388.6620
2857.338, 385.8510
2859.266, 386.7663
2861.195, 381.1576
2863.123, 387.8649
2865.052, 391.7529
2866.980, 392.9728
2868.909, 383.5343
2870.837, 387.8590
2872.766, 386.6682
2874.694, 385.2510
2876.623, 391.5130
2878.551, 383.6246
2880.479, 389.7647
2882.408, 390.3050
2884.336, 393.4081
2886.265, 390.9616
2888.193, 390.2291
2890.122, 395.0482
2892.050, 396.7933
2893.979, 393.7079
2895.907, 396.9739
2897.836, 388.8918
2899.764, 390.7679
2901.693, 396.9406
2903.621, 394.1341
2905.550, 397.5017
2907.478, 398.5178
2909.406, 388.8477
2911.335, 397.7621
2913.263, 398.6392
2915.192, 391.2642
2917.120, 399.5416
2919.049, 393.3043
2920.977, 392.2477
2922.906, 395.0903
2924.834, 393.8681
2926.763, 399.0544
2928.691, 398.0670
2930.620, 396.5281
2932.548, 397.3963
2934.477, 391.4435
2936.405, 398.1450
2938.333, 396.2024
2940.262, 398.5568
2942.190, 401.8849
2944.119, 397.7559
2946.047, 401.5216
2947.976, 393.0445
2949.904, 394.8114
2951.833, 395.4753
2953.761, 402.6869
2955.690, 394.2694
2957.618, 395.7516
2959.547, 401.4493
2961.475, 401.2487
2963.404, 403.5142
2965.332, 398.4792
2967.260, 400.3024
2969.189, 400.2354
2971.117, 406.7004
2973.046, 408.0087
2974.974, 403.0977
2976.903, 398.2130
2978.831, 405.1482
2980.760, 400.8805
2982.688, 402.6566
2984.617, 398.1906
2986.545, 399.1141
2988.474, 399.9524
2990.402, 403.5533
2992.331, 398.7767
2994.259, 404.8671
2996.188, 404.6767
2998.116, 406.3364
3000.044, 407.7902
3001.973, 400.8157
3003.901, 400.7504
3005.830, 410.5718
3007.758, 405.3155
3009.687, 403.1026
3011.615, 403.0528
3013.544, 413.2127
3015.472, 413.8828
3017.401, 403.2099
3019.329, 409.4308
3021.258, 408.2139
3023.186, 410.8845
3025.115, 409.0314
3027.043, 403.1977
3028.971, 409.7588
3030.900, 413.5007
3032.828, 414.5746
3034.757, 404.9899
3036.685, 409.1686
3038.614, 407.8315
3040.542, 406.2683
3042.471, 412.3841
3044.399, 404.3497
3046.328, 410.3438
3048.256, 410.7379
3050.185, 413.6949
3052.113, 411.1022
3054.042, 410.2237
3055.970, 414.8966
3057.898, 416.4956
3059.827, 413.2641
3061.755, 416.3840
3063.684, 408.1558
3065.612, 409.8857
3067.541, 415.9123
3069.469, 412.9597
3071.398, 416.1812
3073.326, 417.0512
3075.255, 407.2351
3077.183, 416.0033
3079.112, 416.7344
3081.040, 409.2131
3082.969, 417.3445
3084.897, 410.9610
3086.825, 409.7583
3088.754, 412.4547
3090.682, 411.0865
3092.611, 416.1266
3094.539, 414.9932
3096.468, 413.3082
3098.396, 414.0302
3100.325, 407.9313
3102.253, 414.4867
3104.182, 412.3981
3106.110, 414.6063
3108.039, 417.7884
3109.967, 413.5132
3111.896, 417.1329
3113.824, 408.5095
3115.752, 410.1303
3117.681, 410.6481
3119.609, 417.7136
3121.538, 409.1500
3123.466, 410.4862
3125.395, 416.0376
3127.323, 415.6909
3129.252, 417.8103
3131.180, 412.6293
3133.109, 414.3064
3135.037, 414.0932
3136.966, 420.4123
3138.894, 421.5743
3140.823, 416.5172
3142.751, 411.4864
3144.679, 418.2755
3146.608, 413.8616
3148.536, 415.4916
3150.465, 410.8795
3152.393, 420.6817
3154.322, 416.4352
3156.250, 417.1801
3158.179, 419.1910
3160.107, 417.8344
3162.036, 417.3229
3163.964, 421.9980
3165.893, 425.2193
3167.821, 424.3618
3169.750, 422.2554
3171.678, 418.8752
3173.606, 417.0369
3175.535, 417.4019
3177.463, 416.8791
3179.392, 415.7678
3181.320, 416.7218
3183.249, 418.9448
3185.177, 420.2097
3187.106, 421.4035
3189.034, 424.2711
3190.963, 427.0443
3192.891, 428.4023
3194.820, 429.1719
3196.748, 429.6221
3198.677, 429.8354
3200.605, 430.2353
3202.533, 427.9437
3204.462, 420.8254
3206.390, 419.4930
3208.319, 423.4214
3210.247, 427.2289
3212.176, 429.6696
3214.104, 425.7543
3216.033, 428.5230
3217.961, 423.9289
3219.890, 427.2361
3221.818, 422.7318
3223.747, 418.9405
3225.675, 419.9161
3227.604, 422.5904
3229.532, 427.0516
3231.460, 430.1376
3233.389, 431.3965
3235.317, 430.0161
3237.246, 426.6600
3239.174, 426.4010
3241.103, 428.1123
3243.031, 430.2835
3244.960, 431.8972
3246.888, 431.0925
3248.817, 430.2737
3250.745, 430.7984
3252.674, 431.7938
3254.602, 433.1556
3256.531, 434.8708
3258.459, 437.2004
3260.387, 435.1579
3262.316, 438.5338
3264.244, 432.0424
3266.173, 439.9998
3268.101, 438.5327
3270.030, 433.1302
3271.958, 428.6254
3273.887, 426.5983
3275.815, 429.0005
3277.744, 431.8725
3279.672, 435.0902
3281.601, 434.7919
3283.529, 429.7482
3285.458, 429.0252
3287.386, 432.8418
3289.314, 435.8997
3291.243, 437.7423
3293.171, 435.6068
3295.100, 433.2017
3297.028, 435.8253
3298.957, 438.6186
3300.885, 437.9796
3302.814, 437.0338
3304.742, 436.3908
3306.671, 436.5890
3308.599, 438.7108
3310.528, 436.3762
3312.456, 430.8820
3314.385, 430.6991
3316.313, 433.7123
3318.241, 436.3853
3320.170, 438.4052
3322.098, 439.2221
3324.027, 439.8134
3325.955, 440.6677
3327.884, 441.7979
3329.812, 443.7147
3331.741, 442.2274
3333.669, 443.2351
3335.598, 443.8228
3337.526, 442.4833
3339.455, 443.4198
3341.383, 441.9704
3343.312, 437.9933
3345.240, 435.8665
3347.168, 439.5119
3349.097, 442.7378
3351.025, 443.0719
3352.954, 444.3051
3354.882, 446.9252
3356.811, 446.6744
3358.739, 446.5294
3360.668, 443.8217
3362.596, 443.9277
3364.525, 441.6473
3366.453, 439.3642
3368.382, 438.4871
3370.310, 438.6842
3372.239, 440.1184
3374.167, 441.8324
3376.095, 443.8319
3378.024, 443.2686
3379.952, 440.6277
3381.881, 438.7897
3383.809, 437.9450
3385.738, 438.1046
3387.666, 439.6614
3389.595, 443.5805
3391.523, 447.7186
3393.452, 452.5460
3395.380, 453.2129
3397.309, 448.9697
3399.237, 446.5277
3401.166, 445.6817
3403.094, 444.6682
3405.022, 443.9891
3406.951, 444.7897
3408.879, 445.6520
3410.808, 445.3339
3412.736, 445.5238
3414.665, 446.4027
3416.593, 449.1930
3418.522, 453.8375
3420.450, 454.5149
3422.379, 452.1973
3424.307, 448.4030
3426.236, 445.4781
3428.164, 447.2445
3430.093, 448.1611
3432.021, 444.9623
3433.949, 443.3400
3435.878, 444.6754
3437.806, 447.4771
3439.735, 451.0991
3441.663, 449.3412
3443.592, 445.8278
3445.520, 446.1623
3447.449, 448.1583
3449.377, 451.9201
3451.306, 452.8810
3453.234, 446.5297
3455.163, 444.6645
3457.091, 447.3104
3459.020, 447.8759
3460.948, 447.5781
3462.876, 450.9630
3464.805, 454.4110
3466.733, 455.2258
3468.662, 453.8173
3470.590, 447.7613
3472.519, 445.6033
3474.447, 448.0563
3476.376, 449.5397
3478.304, 450.0095
3480.233, 450.2397
3482.161, 450.4380
3484.090, 451.3665
3486.018, 451.5105
3487.947, 449.1479
3489.875, 449.2983
3491.803, 453.5220
3493.732, 451.8023
3495.660, 445.8256
3497.589, 451.0158
3499.517, 458.0708
3501.446, 451.8935
3503.374, 447.0042
3505.303, 452.9344
3507.231, 454.7289
3509.160, 445.6363
3511.088, 444.2098
3513.017, 448.6423
3514.945, 448.9746
3516.874, 448.0486
3518.802, 450.6059
3520.730, 452.8032
3522.659, 452.6936
3524.587, 451.3320
3526.516, 448.1523
3528.444, 449.8678
3530.373, 448.2000
3532.301, 452.5488
3534.230, 448.7947
3536.158, 452.5721
3538.087, 455.6439
3540.015, 452.5364
3541.944, 450.6177
3543.872, 450.7739
3545.801, 450.5717
3547.729, 450.2818
3549.657, 451.8400
3551.586, 453.9362
3553.514, 455.1021
3555.443, 456.3197
3557.371, 458.5379
3559.300, 459.2633
3561.228, 458.2102
3563.157, 455.2919
3565.085, 452.4680
3567.014, 458.3030
3568.942, 463.4068
3570.871, 458.0113
3572.799, 452.8690
3574.728, 450.6066
3576.656, 450.2068
3578.584, 451.5381
3580.513, 455.3286
3582.441, 459.1555
3584.370, 458.7426
3586.298, 457.2224
3588.227, 456.0383
3590.155, 455.4789
3592.084, 455.6138
3594.012, 456.3046
3595.941, 457.5958
3597.869, 461.2072
3599.798, 463.9015
3601.726, 460.8550
3603.655, 458.0859
3605.583, 457.9915
3607.511, 456.0150
3609.440, 451.7448
3611.368, 455.8937
3613.297, 452.7390
3615.225, 457.4132
3617.154, 452.7460
3619.082, 455.4601
3621.011, 458.6003
3622.939, 460.8086
3624.868, 460.8970
3626.796, 459.5044
3628.725, 458.5975
3630.653, 458.3428
3632.582, 459.5279
3634.510, 460.3885
3636.438, 460.2181
3638.367, 460.2503
3640.295, 460.6102
3642.224, 463.2660
3644.152, 465.2018
3646.081, 459.3564
3648.009, 455.6060
3649.938, 459.3512
3651.866, 463.1596
3653.795, 466.1490
3655.723, 463.5425
3657.652, 466.1425
3659.580, 462.4341
3661.509, 465.4948
3663.437, 463.3715
3665.365, 460.5768
3667.294, 457.8745
3669.222, 456.8384
3671.151, 457.0344
3673.079, 456.1957
3675.008, 456.8330
3676.936, 462.5064
3678.865, 465.9254
3680.793, 463.4007
3682.722, 462.7656
3684.650, 463.1309
3686.579, 460.9742
3688.507, 457.9528
3690.436, 454.5043
3692.364, 454.1190
3694.292, 454.8213
3696.221, 455.6038
3698.149, 459.1102
3700.078, 459.5132
3702.006, 461.1854
3703.935, 461.3727
3705.863, 461.4328
3707.792, 462.5341
3709.720, 460.2228
3711.649, 461.0675
3713.577, 457.3191
3715.506, 460.4121
3717.434, 456.6210
3719.363, 455.0210
3721.291, 460.3632
3723.219, 463.4980
3725.148, 464.1304
3727.076, 463.0248
3729.005, 461.4066
3730.933, 460.4775
3732.862, 460.1986
3734.790, 461.1718
3736.719, 459.3760
3738.647, 461.0670
3740.576, 458.3395
3742.504, 462.3711
3744.433, 461.5903
3746.361, 459.8380
3748.290, 456.4655
3750.218, 465.2014
3752.146, 461.7897
3754.075, 463.4609
3756.003, 463.2534
3757.932, 463.9060
3759.860, 465.5376
3761.789, 465.4621
3763.717, 462.5978
3765.646, 458.3658
3767.574, 459.1042
3769.503, 461.3915
3771.431, 463.4849
3773.360, 463.4011
3775.288, 460.4189
3777.217, 455.5851
3779.145, 451.7201
3781.073, 459.6020
3783.002, 467.2251
3784.930, 465.1266
3786.859, 463.4023
3788.787, 463.6982
3790.716, 463.7770
3792.644, 463.0037
3794.573, 462.6311
3796.501, 462.8337
3798.430, 462.3598
3800.358, 462.9237
3802.287, 461.8214
3804.215, 461.1341
3806.144, 460.2656
3808.072, 458.3275
3810.000, 450.8968
3811.929, 457.5633
3813.857, 461.4103
3815.786, 462.5896
3817.714, 453.1102
3819.643, 457.3942
3821.571, 456.1623
3823.500, 454.7044
3825.428, 460.9254
3827.357, 452.9964
3829.285, 459.0956
3831.214, 459.5951
3833.142, 462.6574
3835.071, 460.1700
3836.999, 459.3966
3838.927, 464.1748
3840.856, 465.8792
3842.784, 462.7528
3844.713, 465.9781
3846.641, 457.8551
3848.570, 459.6904
3850.498, 465.8221
3852.427, 462.9749
3854.355, 466.3016
3856.284, 467.2769
3858.212, 457.5661
3860.141, 466.4396
3862.069, 467.2759
3863.998, 459.8600
3865.926, 468.0966
3867.854, 461.8183
3869.783, 460.7210
3871.711, 463.5226
3873.640, 462.2598
3875.568, 467.4051
3877.497, 466.3770
3879.425, 464.7971
3881.354, 465.6245
3883.282, 459.6309
3885.211, 466.2916
3887.139, 464.3082
3889.068, 466.6217
3890.996, 469.9090
3892.925, 465.7392
3894.853, 469.4641
3896.781, 460.9460
3898.710, 462.6721
3900.638, 463.2951
3902.567, 470.4659
3904.495, 462.0076
3906.424, 463.4491
3908.352, 469.1057
3910.281, 468.8644
3912.209, 471.0890
3914.138, 466.0133
3916.066, 467.7957
3917.995, 467.6878
3919.923, 474.1121
3921.852, 475.3795
3923.780, 470.4276
3925.708, 465.5020
3927.637, 472.3965
3929.565, 468.0878
3931.494, 469.8231
3933.422, 465.3162
3935.351, 466.1991
3937.279, 466.9963
3939.208, 470.5565
3941.136, 465.7390
3943.065, 471.7887
3944.993, 471.5573
3946.922, 473.1763
3948.850, 474.5893
3950.779, 467.5739
3952.707, 467.4678
3954.635, 477.2482
3956.564, 471.9512
3958.492, 469.6973
3960.421, 469.6068
3962.349, 479.7258
3964.278, 480.3552
3966.206, 469.6414
3968.135, 479.3105
3970.063, 476.4397
3971.992, 477.2953
3973.920, 476.7914
3975.849, 476.6900
3977.777, 471.4692
3979.706, 472.9947
3981.634, 480.0054
3983.563, 477.6646
3985.491, 481.6781
3987.419, 474.1111
3989.348, 473.4181
3991.276, 474.5497
3993.205, 476.3468
3995.133, 472.8268
3997.062, 479.9402
3998.990, 479.9735
4000.919, 473.8715
4002.847, 474.4250
4004.776, 473.8736
4006.704, 484.8265
4008.633, 479.9623
4010.561, 473.9778
4012.490, 480.5327
4014.418, 483.0685
4016.346, 480.1707
4018.275, 478.6694
4020.203, 477.7548
4022.132, 479.8509
4024.060, 477.6014
4025.989, 480.3102
4027.917, 484.1000
4029.846, 486.2802
4031.774, 484.2318
4033.703, 480.9727
4035.631, 477.3740
4037.560, 477.3477
4039.488, 479.3483
4041.417, 475.9834
4043.345, 482.5317
4045.273, 486.2606
4047.202, 487.3217
4049.130, 477.7241
4051.059, 481.8900
4052.987, 480.5400
4054.916, 478.9639
4056.844, 485.0668
4058.773, 477.0196
4060.701, 483.0007
4062.630, 483.3820
4064.558, 486.3262
4066.487, 483.7206
4068.415, 482.8291
4070.344, 487.4893
4072.272, 489.0754
4074.200, 485.8309
4076.129, 488.9381
4078.057, 480.6969
4079.986, 482.4141
4081.914, 488.4276
4083.843, 485.4623
4085.771, 488.6708
4087.700, 489.5280
4089.628, 479.6991
4091.557, 488.4544
4093.485, 489.1726
4095.414, 481.6385
4097.342, 489.7570
4099.271, 483.3606
4101.199, 482.1451
4103.127, 484.8286
4105.056, 483.4476
4106.984, 488.4747
4108.913, 487.3285
4110.841, 485.6305
4112.770, 486.3398
4114.698, 480.2280
4116.627, 486.7705
4118.555, 484.6691
4120.484, 486.8643
4122.412, 490.0335
4124.341, 485.7455
4126.269, 489.3523
4128.198, 480.7162
4130.126, 482.3241
4132.055, 482.8290
4133.983, 489.8816
4135.912, 481.3052
4137.840, 482.6285
4139.769, 488.1671
4141.697, 487.8075
4143.625, 489.9140
4145.554, 484.7201
4147.482, 486.3844
4149.411, 486.1583
4151.339, 492.4644
4153.268, 493.6137
4155.196, 488.5437
4157.125, 483.5000
4159.053, 485.9174
4160.981, 489.9715
4162.910, 493.6850
4164.838, 488.7666
4166.767, 485.7394
4168.695, 485.7512
4170.624, 487.1976
4172.552, 490.6306
4174.481, 488.1465
4176.409, 492.3915
4178.338, 485.6508
4180.266, 482.9101
4182.195, 483.8078
4184.123, 486.9175
4186.052, 488.4387
4187.980, 489.1768
4189.909, 489.8563
4191.837, 485.5973
4193.766, 492.0136
4195.694, 495.6106
4197.623, 496.5397
4199.551, 486.8102
4201.479, 490.8440
4203.408, 489.3621
4205.336, 487.6540
4207.265, 493.6249
4209.193, 485.4457
4211.122, 491.2948
4213.050, 491.5441
4214.979, 494.3563
4216.907, 491.6187
4218.835, 490.5953
4220.764, 495.1235
4222.692, 496.5777
4224.621, 493.2012
4226.549, 496.1763
4228.478, 487.8032
4230.406, 489.3884
4232.335, 495.2700
4234.263, 492.1726
4236.192, 495.2492
4238.120, 495.9744
4240.049, 486.0135
4241.977, 494.6368
4243.906, 495.2230
4245.834, 487.5569
4247.763, 495.5435
4249.691, 489.0151
4251.620, 487.6676
4253.548, 490.2191
4255.477, 488.7061
4257.405, 493.6013
4259.333, 492.3230
4261.262, 490.4931
4263.190, 491.0704
4265.119, 484.8266
4267.047, 491.2372
4268.976, 489.0037
4270.904, 491.0670
4272.833, 484.8722
4274.761, 482.2187
4276.689, 482.8878
4278.618, 482.6529
4280.546, 484.0204
4282.475, 491.0323
4284.403, 492.0833
4286.332, 488.4824
4288.260, 485.0865
4290.189, 484.9022
4292.117, 490.5447
4294.046, 493.1049
4295.974, 493.1026
4297.903, 490.1337
4299.831, 489.2334
4301.760, 491.7648
4303.688, 492.0735
4305.617, 489.9522
4307.545, 483.4146
4309.474, 479.4695
4311.402, 478.8832
4313.331, 478.0963
4315.259, 487.0653
4317.188, 483.0936
4319.116, 487.1279
4321.044, 493.1561
4322.973, 484.3798
4324.901, 478.7597
4326.830, 481.2533
4328.758, 478.4800
4330.687, 475.6974
4332.615, 478.5595
4334.543, 482.6723
4336.472, 486.8081
4338.400, 488.6967
4340.329, 486.8878
4342.257, 479.8658
4344.186, 478.8165
4346.114, 481.1607
4348.043, 481.6360
4349.971, 480.8676
4351.900, 479.2992
4353.828, 479.6919
4355.757, 481.5167
4357.685, 486.0765
4359.614, 481.8261
4361.542, 472.0807
4363.471, 468.8399
4365.399, 472.5654
4367.328, 483.7489
4369.256, 486.3020
4371.185, 483.9916
4373.113, 481.9700
4375.042, 480.5746
4376.970, 479.9082
4378.898, 480.3144
4380.827, 480.4409
4382.755, 478.2550
4384.684, 481.4849
4386.612, 484.9701
4388.541, 483.0524
4390.469, 484.3261
4392.397, 480.9024
4394.326, 481.8951
4396.254, 479.2227
4398.183, 476.5953
4400.111, 474.8678
4402.040, 473.3578
4403.968, 472.3623
4405.897, 471.9081
4407.825, 471.3699
4409.754, 471.9513
4411.682, 474.3282
4413.611, 476.7746
4415.539, 473.9926
4417.468, 468.8712
4419.396, 474.1064
4421.325, 476.1283
4423.253, 470.7684
4425.182, 474.8913
4427.110, 479.7685
4429.039, 474.5957
4430.967, 470.3697
4432.896, 468.0049
4434.824, 465.7919
4436.752, 465.8575
4438.681, 469.5396
4440.609, 473.5531
4442.538, 475.5653
4444.466, 471.5703
4446.395, 470.2622
4448.323, 471.3883
4450.251, 470.0900
4452.180, 471.4438
4454.108, 476.9446
4456.037, 469.4029
4457.965, 461.3964
4459.894, 465.7100
4461.822, 466.8592
4463.751, 464.9631
4465.679, 464.5089
4467.608, 465.1972
4469.536, 466.9114
4471.465, 469.8968
4473.393, 471.5594
4475.322, 468.9630
4477.250, 465.4457
4479.179, 462.8782
4481.107, 466.1282
4483.036, 469.4306
4484.964, 471.5214
4486.893, 473.0966
4488.821, 471.1364
4490.750, 472.9248
4492.678, 465.3028
4494.606, 471.8433
4496.535, 473.5711
4498.463, 469.3959
4500.392, 462.7809
4502.320, 471.1077
4504.249, 475.7750
4506.177, 466.2072
4508.105, 467.1461
4510.034, 470.5927
4511.962, 467.1730
4513.891, 468.9136
4515.819, 472.8391
4517.748, 468.0130
4519.676, 460.3666
4521.605, 452.6611
4523.533, 457.9212
4525.462, 464.7077
4527.390, 466.5965
4529.319, 464.3936
4531.247, 461.0718
4533.176, 461.6378
4535.104, 457.5203
4537.033, 451.2700
4538.961, 460.6279
4540.890, 466.4794
4542.818, 462.4458
4544.747, 463.3886
4546.675, 464.6274
4548.604, 462.7161
4550.532, 460.8806
4552.460, 459.8044
4554.389, 459.8959
4556.317, 461.8999
4558.246, 464.5857
4560.174, 463.1677
4562.103, 457.8976
4564.031, 447.9154
4565.959, 450.2773
4567.888, 454.8059
4569.816, 453.9019
4571.745, 457.2917
4573.673, 460.6168
4575.602, 453.6853
4577.530, 451.3807
4579.459, 454.1554
4581.387, 456.0230
4583.316, 456.6138
4585.244, 455.7935
4587.173, 456.0948
4589.101, 457.7398
4591.030, 454.7553
4592.958, 457.6654
4594.887, 451.0595
4596.815, 447.3725
4598.744, 448.3448
4600.672, 453.4083
4602.601, 452.5434
4604.529, 453.5923
4606.458, 455.4510
4608.386, 452.4251
4610.314, 451.2474
4612.243, 449.3275
4614.171, 450.6290
4616.100, 452.9624
4618.028, 454.8966
4619.957, 454.2143
4621.885, 451.6879
4623.813, 447.7148
4625.742, 445.7636
4627.670, 446.2321
4629.599, 450.0357
4631.527, 452.9972
4633.456, 453.9484
4635.384, 451.6519
4637.313, 449.4380
4639.241, 448.9174
4641.170, 451.3039
4643.098, 453.1551
4645.027, 450.4147
4646.955, 448.1434
4648.884, 446.7004
4650.812, 446.1183
4652.741, 448.5245
4654.669, 451.4703
4656.598, 444.6774
4658.526, 445.1853
4660.455, 454.2870
4662.383, 451.2557
4664.312, 446.7911
4666.240, 445.3419
4668.168, 439.6654
4670.097, 437.5626
4672.025, 444.0658
4673.954, 452.2795
4675.882, 456.8099
4677.811, 450.9790
4679.739, 443.1974
4681.667, 438.2645
4683.596, 446.4795
4685.524, 447.0771
4687.453, 441.9872
4689.381, 448.2675
4691.310, 450.2945
4693.238, 445.7917
4695.167, 444.8344
4697.095, 442.4156
4699.024, 436.3776
4700.952, 437.8997
4702.881, 441.1211
4704.809, 443.0814
4706.738, 439.2846
4708.666, 435.8271
4710.595, 439.7286
4712.523, 440.0770
4714.452, 438.3085
4716.380, 436.4567
4718.309, 434.1654
4720.237, 432.5861
4722.166, 433.1744
4724.094, 438.9248
4726.022, 446.3857
4727.951, 443.5903
4729.879, 439.7897
4731.808, 436.8938
4733.736, 432.3289
4735.665, 433.8014
4737.593, 441.1398
4739.521, 432.4966
4741.450, 428.1459
4743.378, 438.7017
4745.307, 444.1393
4747.235, 445.4614
4749.164, 443.1297
4751.092, 442.5515
4753.021, 441.8157
4754.949, 437.6282
4756.878, 440.5623
4758.806, 442.9016
4760.735, 435.4604
4762.663, 431.1911
4764.592, 429.6542
4766.520, 428.2615
4768.449, 428.9634
4770.377, 431.1658
4772.306, 434.0016
4774.234, 435.0985
4776.163, 435.2621
4778.091, 434.5982
4780.020, 437.1327
4781.948, 431.3458
4783.876, 429.5512
4785.805, 428.7196
4787.733, 428.2685
4789.662, 428.5862
4791.590, 431.4302
4793.519, 435.6169
4795.447, 428.2954
4797.375, 424.3503
4799.304, 428.9151
4801.232, 434.8192
4803.161, 438.0079
4805.089, 437.1436
4807.018, 434.6325
4808.946, 431.6876
4810.875, 428.7739
4812.803, 428.8529
4814.732, 430.1140
4816.660, 431.5454
4818.589, 429.3072
4820.517, 426.3380
4822.446, 424.8192
4824.374, 422.3434
4826.303, 421.9851
4828.231, 426.3095
4830.160, 423.0898
4832.088, 420.6842
4834.017, 429.4696
4835.945, 428.2836
4837.874, 424.5636
4839.802, 425.5481
4841.730, 425.2074
4843.659, 424.3990
4845.587, 424.2348
4847.516, 426.9926
4849.444, 428.7874
4851.373, 425.0558
4853.301, 421.1155
4855.229, 420.0464
4857.158, 427.3558
4859.086, 426.8107
4861.015, 423.5932
4862.943, 425.2845
4864.872, 423.7758
4866.800, 421.7265
4868.729, 424.7869
4870.657, 422.3723
4872.586, 419.6074
4874.514, 425.0636
4876.443, 423.6596
4878.371, 418.9634
4880.300, 417.1903
4882.228, 416.8714
4884.157, 417.7237
4886.085, 419.4875
4888.014, 419.1790
4889.942, 420.0820
4891.871, 420.5942
4893.799, 420.4684
4895.728, 423.0058
4897.656, 422.7936
4899.584, 416.6656
4901.513, 411.3304
4903.441, 415.1502
4905.370, 418.1463
4907.298, 418.8183
4909.227, 413.7868
4911.155, 421.7043
4913.083, 428.3275
4915.012, 418.2873
4916.940, 414.0646
4918.869, 413.6336
4920.797, 414.2887
4922.726, 412.6649
4924.654, 410.6874
4926.583, 409.7901
4928.511, 410.0974
4930.440, 420.9282
4932.368, 411.9517
4934.297, 414.0477
4936.225, 415.2863
4938.154, 408.7232
4940.082, 412.2795
4942.011, 416.3077
4943.939, 415.0103
4945.868, 410.9225
4947.796, 410.0792
4949.725, 414.5580
4951.653, 407.5740
4953.582, 404.4889
4955.510, 410.0831
4957.438, 412.9739
4959.367, 414.2619
4961.295, 414.2673
4963.224, 410.4691
4965.152, 408.1901
4967.081, 408.2765
4969.009, 408.5333
4970.938, 410.8476
4972.866, 413.4278
4974.794, 407.0139
4976.723, 406.7701
4978.651, 410.2091
4980.580, 402.8933
4982.508, 404.2261
4984.437, 408.7762
4986.365, 400.2205
4988.294, 401.0292
4990.222, 407.4834
4992.151, 412.9528
4994.079, 408.3144
4996.008, 403.1208
4997.936, 409.1944
4999.865, 415.5299
5001.793, 415.5316
5003.722, 404.7675
5005.650, 397.9473
5007.579, 397.4012
5009.507, 403.7788
5011.436, 405.3673
5013.364, 403.4837
5015.292, 399.4307
5017.221, 399.2150
5019.149, 401.2816
5021.078, 404.5767
5023.006, 409.2076
5024.935, 405.0392
5026.863, 395.5525
5028.792, 397.3622
5030.720, 398.1350
5032.648, 397.7496
5034.577, 400.7072
5036.505, 397.7112
5038.434, 394.4633
5040.362, 400.5702
5042.291, 398.6744
5044.219, 396.9029
5046.148, 402.1757
5048.076, 401.8710
5050.005, 398.6213
5051.933, 394.2795
5053.862, 399.5944
5055.790, 402.1940
5057.719, 398.4995
5059.647, 394.1232
5061.576, 394.7771
5063.504, 398.3593
5065.433, 393.2125
5067.361, 392.8933
5069.290, 395.4964
5071.218, 393.5266
5073.146, 391.9126
5075.075, 390.6714
5077.003, 389.0294
5078.932, 389.1633
5080.860, 390.6053
5082.789, 393.3006
5084.717, 392.5138
5086.646, 390.1119
5088.574, 386.9915
5090.502, 382.2007
5092.431, 381.2124
5094.359, 384.8947
5096.288, 393.6025
5098.216, 394.4723
5100.145, 390.5569
5102.073, 391.0880
5104.002, 386.3073
5105.930, 382.2193
5107.859, 386.4649
5109.787, 391.0506
5111.716, 391.7774
5113.644, 386.7901
5115.573, 385.1982
5117.501, 386.8294
5119.430, 389.8602
5121.358, 387.2978
5123.287, 384.5885
5125.215, 382.6188
5127.144, 379.6777
5129.072, 382.6672
5131.000, 386.6821
5132.929, 385.6608
5134.857, 382.7194
5136.786, 379.7169
5138.714, 377.5357
5140.643, 383.2057
5142.571, 389.9072
5144.500, 393.1387
5146.428, 380.5765
5148.356, 376.4713
5150.285, 379.1499
5152.213, 376.9908
5154.142, 378.3471
5156.070, 380.3161
5157.999, 379.3047
5159.927, 383.4154
5161.856, 385.4268
5163.784, 382.5919
5165.713, 380.9706
5167.641, 384.3590
5169.570, 381.6709
5171.498, 382.5511
5173.427, 381.6671
5175.355, 385.1853
5177.284, 387.9373
5179.212, 383.5343
5181.141, 378.7949
5183.069, 378.3611
5184.998, 374.0870
5186.926, 373.5526
5188.854, 370.2438
5190.783, 373.1490
5192.711, 375.1816
5194.640, 376.6147
5196.568, 381.9637
5198.497, 378.4120
5200.425, 373.9837
5202.354, 374.9819
5204.282, 377.3129
5206.210, 377.1475
5208.139, 374.5577
5210.067, 374.9833
5211.996, 373.4942
5213.924, 372.9592
5215.853, 381.0289
5217.781, 378.3744
5219.710, 375.7813
5221.638, 380.1623
5223.567, 375.8212
5225.495, 372.7917
5227.424, 373.9205
5229.352, 372.2731
5231.281, 378.0394
5233.209, 373.2663
5235.138, 378.2252
5237.066, 379.0679
5238.995, 378.9845
5240.923, 379.3275
5242.852, 378.2705
5244.780, 373.7208
5246.708, 375.4859
5248.637, 371.2928
5250.565, 369.3963
5252.494, 368.8737
5254.422, 368.2116
5256.351, 371.8824
5258.279, 369.9687
5260.208, 363.4756
5262.136, 372.7176
5264.064, 371.9588
5265.993, 367.0088
5267.921, 372.5333
5269.850, 374.4762
5271.778, 373.5978
5273.707, 371.1945
5275.635, 372.6099
5277.564, 370.9818
5279.492, 368.0795
5281.421, 370.5539
5283.349, 367.5449
5285.278, 367.4960
5287.206, 364.8566
5289.135, 365.5593
5291.063, 364.8831
5292.992, 362.3520
5294.920, 368.7355
5296.849, 364.8027
5298.777, 359.6648
5300.706, 364.7371
5302.634, 362.1168
5304.563, 357.6443
5306.491, 354.8798
5308.419, 358.9023
5310.348, 358.3395
5312.276, 357.5369
5314.205, 363.1333
5316.133, 362.3835
5318.062, 363.1441
5319.990, 367.8621
5321.918, 371.7056
5323.847, 368.4065
5325.775, 362.9433
5327.704, 362.2567
5329.632, 357.4258
5331.561, 355.0796
5333.489, 357.2890
5335.418, 359.3925
5337.346, 358.1564
5339.275, 357.2868
5341.203, 357.0846
5343.132, 355.8321
5345.060, 356.4359
5346.989, 356.1779
5348.917, 355.0437
5350.846, 353.4526
5352.774, 353.0136
5354.703, 349.2359
5356.631, 348.1589
5358.560, 348.6048
5360.488, 347.2129
5362.417, 348.7991
5364.345, 349.4150
5366.273, 352.2011
5368.202, 351.0967
5370.130, 353.8959
5372.059, 348.6336
5373.987, 348.0508
5375.916, 345.1750
5377.844, 347.3259
5379.772, 352.2199
5381.701, 356.9907
5383.629, 350.8967
5385.558, 346.8843
5387.486, 348.9276
5389.415, 347.0811
5391.343, 347.8834
5393.272, 348.6706
5395.200, 349.6769
5397.129, 348.0096
5399.057, 347.2589
5400.986, 347.0096
5402.914, 345.5704
5404.843, 348.0847
5406.771, 347.8364
5408.700, 344.8823
5410.628, 346.1753
5412.557, 350.1344
5414.485, 344.3994
5416.414, 344.7284
5418.342, 341.9601
5420.271, 347.5832
5422.199, 339.2664
5424.127, 342.6401
5426.056, 340.8727
5427.984, 338.0415
5429.913, 337.7901
5431.841, 342.5889
5433.770, 344.0637
5435.698, 343.3701
5437.626, 344.1028
5439.555, 339.3306
5441.483, 334.5654
5443.412, 333.0612
5445.340, 338.4064
5447.269, 341.5443
5449.197, 340.4276
5451.126, 343.0778
5453.054, 339.8904
5454.983, 341.9402
5456.911, 340.8126
5458.840, 336.4969
5460.768, 336.8557
5462.697, 334.0372
5464.625, 329.6102
5466.554, 333.6145
5468.482, 337.0981
5470.411, 336.7152
5472.339, 333.0041
5474.268, 337.5058
5476.196, 334.0560
5478.125, 329.2821
5480.053, 333.1013
5481.981, 337.2264
5483.910, 334.7188
5485.838, 328.4654
5487.767, 327.0506
5489.695, 326.6056
5491.624, 326.5486
5493.552, 327.8427
5495.480, 328.9854
5497.409, 328.5341
5499.337, 331.9411
5501.266, 328.2438
5503.194, 327.3371
5505.123, 327.7065
5507.051, 329.4875
5508.980, 328.1376
5510.908, 329.1170
5512.837, 326.6509
5514.765, 326.7950
5516.694, 325.5868
5518.622, 330.8196
5520.551, 331.7224
5522.479, 326.4427
5524.408, 329.0895
5526.336, 324.4805
5528.265, 320.3146
5530.193, 322.6559
5532.122, 332.7175
5534.050, 332.8747
5535.979, 326.5388
5537.907, 320.6384
5539.835, 322.9795
5541.764, 323.5241
5543.692, 322.3365
5545.621, 323.2603
5547.549, 320.4023
5549.478, 319.9408
5551.406, 322.7627
5553.334, 326.7155
5555.263, 329.1825
5557.191, 324.1615
5559.120, 324.9396
5561.048, 315.9146
5562.977, 318.0731
5564.905, 315.4182
5566.834, 308.8559
5568.762, 314.1757
5570.691, 318.0096
5572.619, 319.5944
5574.548, 319.5521
5576.476, 320.0821
5578.405, 315.4879
5580.333, 317.2387
5582.262, 312.3710
5584.190, 308.6206
5586.119, 309.2109
5588.047, 312.2928
5589.976, 315.1205
5591.904, 317.3605
5593.833, 312.8647
5595.761, 316.1461
5597.689, 312.0160
5599.618, 316.9080
5601.546, 319.3456
5603.475, 318.3976
5605.403, 313.5771
5607.332, 313.3951
5609.260, 308.9013
5611.188, 304.8449
5613.117, 314.9575
5615.045, 317.9671
5616.974, 313.4194
5618.902, 305.9709
5620.831, 303.4574
5622.759, 301.9347
5624.688, 304.3250
5626.616, 303.2153
5628.545, 308.2657
5630.473, 305.8247
5632.402, 307.2080
5634.330, 311.0685
5636.259, 308.6630
5638.187, 302.7803
5640.116, 298.4088
5642.044, 298.9132
5643.973, 307.9012
5645.901, 306.1126
5647.830, 304.1933
5649.758, 305.2142
5651.687, 299.7082
5653.615, 305.9330
5655.543, 307.1074
5657.472, 299.8843
5659.400, 296.4869
5661.329, 299.1212
5663.257, 303.4859
5665.186, 304.7049
5667.114, 305.0613
5669.042, 306.1261
5670.971, 305.8051
5672.899, 304.8934
5674.828, 303.9937
5676.756, 302.0693
5678.685, 299.0086
5680.613, 296.2905
5682.542, 297.2443
5684.470, 297.1580
5686.399, 293.3867
5688.327, 289.4444
5690.256, 293.9624
5692.184, 295.6684
5694.113, 298.0653
5696.041, 299.4686
5697.970, 295.8774
5699.898, 293.1991
5701.827, 288.7871
5703.755, 287.2358
5705.684, 285.9300
5707.612, 291.9491
5709.541, 288.0704
5711.469, 288.4206
5713.397, 295.9895
5715.326, 290.3983
5717.254, 292.1757
5719.183, 294.9041
5721.111, 291.5211
5723.040, 295.6048
5724.968, 293.6219
5726.896, 291.9016
5728.825, 293.3682
5730.753, 285.5371
5732.682, 290.1853
5734.610, 291.6131
5736.539, 284.8026
5738.467, 281.8659
5740.396, 282.7106
5742.324, 280.3349
5744.253, 278.5102
5746.181, 279.9886
5748.110, 277.9522
5750.038, 283.6402
5751.967, 279.1815
5753.895, 283.6611
5755.824, 290.1552
5757.752, 293.4520
5759.681, 290.2873
5761.609, 280.4446
5763.538, 285.0435
5765.466, 280.6435
5767.395, 277.5763
5769.323, 281.2837
5771.251, 275.0367
5773.180, 272.7040
5775.108, 275.2063
5777.037, 279.5045
5778.965, 280.4431
5780.894, 283.5952
5782.822, 280.3612
5784.750, 274.6236
5786.679, 274.9112
5788.607, 272.9494
5790.536, 270.1846
5792.464, 271.9673
5794.393, 268.4281
5796.321, 274.5439
5798.250, 279.0456
5800.178, 280.9478
5802.107, 281.3661
5804.035, 279.5729
5805.964, 277.7695
5807.892, 276.5757
5809.821, 278.2166
5811.749, 285.0591
5813.678, 272.4308
5815.606, 269.8069
5817.535, 275.2324
5819.463, 278.9222
5821.392, 272.2572
5823.320, 270.6102
5825.249, 268.3214
5827.177, 265.3506
5829.105, 273.0692
5831.034, 276.6243
5832.962, 271.9465
5834.891, 266.5761
5836.819, 270.8488
5838.748, 265.2823
5840.676, 268.4865
5842.604, 272.7766
5844.533, 271.1036
5846.461, 268.1556
5848.390, 266.0416
5850.318, 264.9875
5852.247, 264.3548
5854.175, 264.1992
5856.104, 264.5037
5858.032, 266.5110
5859.961, 266.0909
5861.889, 261.9694
5863.818, 259.1953
5865.746, 261.5473
5867.675, 266.6560
5869.603, 270.3272
5871.532, 268.0783
5873.460, 266.3493
5875.389, 256.7453
5877.317, 251.1507
5879.246, 258.4123
5881.174, 259.4506
5883.103, 257.5910
5885.031, 257.5511
5886.959, 259.0030
5888.888, 256.9245
5890.816, 257.9316
5892.745, 258.7812
5894.673, 260.1853
5896.602, 262.4193
5898.530, 258.6251
5900.458, 253.3546
5902.387, 252.0344
5904.315, 252.7543
5906.244, 248.9142
5908.172, 251.5810
5910.101, 256.0636
5912.029, 259.8803
5913.958, 261.5674
5915.886, 259.6139
5917.815, 251.7170
5919.743, 257.7699
5921.672, 261.0032
5923.600, 261.5688
5925.529, 251.4757
5927.457, 255.1461
5929.386, 253.3005
5931.314, 251.2290
5933.243, 256.8363
5935.171, 248.2937
5937.100, 253.7792
5939.028, 253.6651
5940.957, 256.1136
5942.885, 253.0126
5944.813, 251.6257
5946.742, 255.7902
5948.670, 256.8810
5950.599, 253.1409
5952.527, 255.7527
5954.456, 247.0159
5956.384, 248.2376
5958.313, 253.7556
5960.241, 250.2947
5962.169, 253.0079
5964.098, 253.3695
5966.026, 243.0452
5967.955, 251.3048
5969.883, 251.5276
5971.812, 243.4979
5973.740, 251.1210
5975.669, 244.2290
5977.597, 242.5181
5979.526, 244.7060
5981.454, 242.8295
5983.383, 247.3612
5985.311, 245.7194
5987.240, 243.5258
5989.168, 243.7397
5991.097, 237.1322
5993.025, 243.1794
5994.954, 240.5823
5996.882, 242.2822
5998.811, 244.9558
6000.739, 240.1724
6002.667, 243.2837
6004.596, 234.1519
6006.524, 235.2645
6008.453, 235.2737
6010.381, 241.8310
6012.310, 232.7589
6014.238, 242.6300
6016.167, 230.0900
6018.095, 234.7731
6020.023, 236.8889
6021.952, 238.4375
6023.880, 243.1850
6025.809, 241.5697
6027.737, 241.2053
6029.666, 237.2966
6031.594, 234.0871
6033.523, 235.9779
6035.451, 233.1882
6037.380, 238.9232
6039.308, 232.8600
6041.237, 229.4381
6043.165, 230.9722
6045.094, 226.1292
6047.022, 229.8694
6048.951, 238.1191
6050.879, 240.0854
6052.808, 231.4465
6054.736, 229.9100
6056.665, 223.8937
6058.593, 226.4896
6060.521, 229.5737
6062.450, 224.7024
6064.378, 229.4282
6066.307, 228.8343
6068.235, 233.1095
6070.164, 233.8687
6072.092, 225.2605
6074.021, 230.4109
6075.949, 220.6227
6077.877, 217.8367
6079.806, 223.4850
6081.734, 229.3733
6083.663, 222.0553
6085.591, 224.7326
6087.520, 224.9064
6089.448, 223.4760
6091.377, 222.9725
6093.305, 220.1712
6095.234, 219.5521
6097.162, 218.5575
6099.091, 219.0753
6101.019, 220.7756
6102.948, 219.2474
6104.876, 218.5254
6106.805, 217.2664
6108.733, 216.7172
6110.662, 217.2784
6112.590, 218.2772
6114.519, 214.8671
6116.447, 219.9239
6118.375, 217.9714
6120.304, 213.6306
6122.232, 219.8104
6124.161, 215.3921
6126.089, 216.9304
6128.018, 214.0737
6129.946, 211.9318
6131.875, 215.9670
6133.803, 214.0755
6135.731, 212.6840
6137.660, 212.1956
6139.588, 209.2816
6141.517, 206.3532
6143.445, 216.0733
6145.374, 211.8098
6147.302, 213.2904
6149.231, 212.0302
6151.159, 208.5879
6153.088, 211.7742
6155.016, 205.2674
6156.945, 207.1510
6158.873, 208.9130
6160.802, 209.1007
6162.730, 209.4818
6164.659, 207.2287
6166.587, 207.9562
6168.516, 206.5610
6170.444, 204.0407
6172.373, 203.3743
6174.301, 207.1618
6176.229, 203.1353
6178.158, 212.4058
6180.086, 211.3244
6182.015, 203.1103
6183.943, 202.5693
6185.872, 207.8465
6187.800, 200.3660
6189.729, 202.8812
6191.657, 206.9609
6193.585, 205.2700
6195.514, 203.4908
6197.442, 203.2815
6199.371, 201.3351
6201.299, 198.7984
6203.228, 198.9095
6205.156, 202.1966
6207.085, 200.8259
6209.013, 203.5730
6210.942, 203.8716
6212.870, 202.0759
6214.799, 201.3166
6216.727, 203.2772
6218.656, 196.5604
6220.584, 203.6647
6222.513, 203.0222
6224.441, 196.1225
6226.370, 194.7814
6228.298, 204.8645
6230.227, 199.8304
6232.155, 200.9883
6234.083, 199.7544
6236.012, 195.8406
6237.940, 196.4155
6239.869, 202.1455
6241.797, 192.6799
6243.726, 195.6616
6245.654, 197.7043
6247.583, 194.3409
6249.511, 196.6453
6251.439, 189.2993
6253.368, 189.9809
6255.296, 191.8394
6257.225, 192.1595
6259.153, 192.1296
6261.082, 193.2777
6263.010, 188.4955
6264.939, 184.7783
6266.867, 188.0976
6268.796, 193.7045
6270.724, 193.5908
6272.653, 196.1069
6274.581, 193.1047
6276.510, 196.2487
6278.438, 193.1570
6280.367, 189.9048
6282.295, 187.9224
6284.224, 185.6658
6286.152, 184.2270
6288.081, 182.5916
6290.009, 183.8404
6291.938, 183.3114
6293.866, 186.8226
6295.794, 186.9292
6297.723, 183.4750
6299.651, 188.1180
6301.580, 189.9448
6303.508, 185.1628
6305.437, 179.2487
6307.365, 181.7421
6309.293, 181.4937
6311.222, 183.6384
6313.150, 177.1057
6315.079, 173.6061
6317.007, 181.8564
6318.936, 179.4263
6320.864, 183.4534
6322.793, 184.8708
6324.721, 183.3601
6326.650, 182.3407
6328.578, 182.9837
6330.507, 181.9456
6332.435, 179.5139
6334.364, 181.2033
6336.292, 180.0174
6338.221, 180.2918
6340.149, 180.8264
6342.078, 179.3891
6344.006, 181.2636
6345.935, 177.2681
6347.863, 178.2195
6349.792, 177.7253
6351.720, 174.6152
6353.648, 177.7354
6355.577, 188.2906
6357.505, 177.9694
6359.434, 178.8420
6361.362, 177.1214
6363.291, 169.6210
6365.219, 168.4446
6367.147, 180.7218
6369.076, 179.1528
6371.004, 176.4349
6372.933, 172.4568
6374.861, 172.3449
6376.790, 173.5505
6378.718, 175.1208
6380.647, 173.7966
6382.575, 174.8010
6384.504, 175.0345
6386.432, 175.4766
6388.361, 175.5364
6390.289, 177.3990
6392.218, 177.4516
6394.146, 166.0020
6396.075, 177.2254
6398.003, 170.7475
6399.932, 161.7521
6401.860, 165.3732
6403.789, 163.1158
6405.717, 169.1021
6407.646, 173.1218
6409.574, 171.6106
6411.502, 171.9699
6413.431, 170.3081
6415.359, 168.5278
6417.288, 168.9846
6419.216, 167.3503
6421.145, 167.1733
6423.073, 166.2610
6425.001, 165.0215
6426.930, 165.6537
6428.858, 163.0714
6430.787, 168.4851
6432.715, 165.9484
6434.644, 165.1295
6436.572, 163.7415
6438.501, 162.6389
6440.429, 163.9037
6442.358, 165.7673
6444.286, 164.6597
6446.215, 164.1706
6448.143, 159.7891
6450.072, 161.4069
6452.000, 165.6904
6453.929, 163.5458
6455.857, 155.8143
6457.786, 166.5710
6459.714, 162.5764
6461.643, 161.6614
6463.571, 165.4476
6465.500, 164.1042
6467.428, 158.3701
6469.356, 166.4642
6471.285, 159.2061
6473.213, 162.4618
6475.142, 157.9260
6477.070, 159.5538
6478.999, 163.3564
6480.927, 158.6303
6482.855, 158.3097
6484.784, 161.9914
6486.712, 162.0532
6488.641, 162.9102
6490.569, 158.2874
6492.498, 157.9892
6494.426, 156.0805
6496.355, 152.9516
6498.283, 156.5794
6500.212, 153.2181
6502.140, 162.0755
6504.069, 165.2593
6505.997, 162.5790
6507.926, 159.0087
6509.854, 152.2175
6511.783, 157.1469
6513.711, 152.6210
6515.640, 156.2993
6517.568, 158.1185
6519.497, 158.1756
6521.425, 158.5120
6523.354, 156.9071
6525.282, 152.1409
6527.210, 150.0139
6529.139, 155.3387
6531.067, 151.9398
6532.996, 156.9910
6534.924, 161.7482
6536.853, 155.6170
6538.781, 155.9422
6540.709, 155.4714
6542.638, 148.7952
6544.566, 150.5622
6546.495, 151.4576
6548.423, 152.2290
6550.352, 152.2431
6552.280, 147.6343
6554.209, 144.5993
6556.137, 145.6081
6558.066, 141.1694
6559.994, 147.0318
6561.923, 154.8463
6563.851, 156.0547
6565.780, 150.3736
6567.708, 145.5104
6569.637, 154.7347
6571.565, 146.9100
6573.494, 151.4469
6575.422, 153.0165
6577.351, 151.8966
6579.279, 150.7466
6581.208, 147.8770
6583.136, 142.1689
6585.064, 143.2268
6586.993, 140.7002
6588.921, 143.6491
6590.850, 140.4426
6592.778, 145.0467
6594.707, 147.2276
6596.635, 143.3361
6598.563, 143.8841
6600.492, 144.7997
6602.420, 149.3629
6604.349, 147.5197
6606.277, 143.5268
6608.206, 136.6207
6610.134, 140.5331
6612.063, 139.6091
6613.991, 147.4685
6615.920, 144.1083
6617.848, 152.1656
6619.777, 152.2153
6621.705, 146.8603
6623.634, 143.3346
6625.562, 141.9385
6627.491, 140.2841
6629.419, 141.3172
##END=



