##NAMES=Fizelyite
##RRUFFID=R060175
##IDEAL CHEMISTRY=Ag_5_Pb_14_Sb_21_S_48_
##LOCALITY=Van Silver mine, Squamish, British Columbia, Canada
##OWNER=RRUFF
##SOURCE=Ty Balacko
##DESCRIPTION=Dark gray deeply-striated single crystals
##STATUS=The identification of this mineral is confirmed by single-crystal X-ray diffraction and chemical analysis
##URL=https://www.rruff.net/odr/rruff_sample/R060175
##MEASURED CHEMISTRY=Pb_13.74_Ag_5.94_Sb_20.87_S_48.00_
##DIFFRACTION SAMPLE DESCRIPTION=Single crystal, powder profile is calculated
##CELL PARAMETERS=a: 19.2779 b: 13.2352 c: 8.7235 alpha: 90 beta: 90.402 gamma: 90 volume: 2225.7 crystal system: monoclinic
##FILETYPE=Raman RAW
##RAMAN WAVELENGTH=532

85.98978, 5.935760
87.91824, 6.155079
89.84671, 6.323440
91.77518, 6.452399
93.70364, 6.492511
95.63211, 6.371832
97.56058, 6.016040
99.48904, 5.668067
101.4175, 5.371407
103.3460, 5.110278
105.2744, 5.010993
107.2029, 5.134682
109.1314, 5.409523
111.0598, 5.734977
112.9883, 6.175745
114.9168, 6.615495
116.8452, 6.743097
118.7737, 6.440001
120.7022, 7.069872
122.6306, 9.088501
124.5591, 12.16724
126.4876, 15.99589
128.4160, 20.53263
130.3445, 25.75931
132.2730, 31.80951
134.2014, 38.83126
136.1299, 45.88019
138.0584, 53.05291
139.9868, 60.15773
141.9153, 66.58186
143.8438, 71.50443
145.7722, 76.58952
147.7007, 82.59882
149.6292, 89.20763
151.5576, 91.79580
153.4861, 93.31684
155.4146, 94.21163
157.3430, 94.77721
159.2715, 95.00866
161.2000, 95.04317
163.1284, 94.90138
165.0569, 94.57094
166.9854, 94.22308
168.9138, 93.89213
170.8423, 93.58625
172.7708, 93.35036
174.6992, 92.89111
176.6277, 92.68276
178.5562, 93.20402
180.4846, 94.79933
182.4131, 95.66922
184.3416, 95.05602
186.2701, 93.21663
188.1985, 92.28249
190.1270, 92.77823
192.0555, 93.57933
193.9839, 94.11581
195.9124, 94.11588
197.8409, 94.34847
199.7693, 94.98945
201.6978, 95.88046
203.6263, 96.57773
205.5547, 96.90242
207.4832, 97.14355
209.4117, 97.47091
211.3401, 97.93227
213.2686, 98.43216
215.1971, 98.92265
217.1255, 99.36044
219.0540, 99.77784
220.9825, 100.0526
222.9109, 100.4341
224.8394, 101.1321
226.7679, 102.2252
228.6963, 103.1808
230.6248, 103.7411
232.5533, 104.0577
234.4817, 104.5751
236.4102, 105.6422
238.3387, 106.5182
240.2671, 106.8630
242.1956, 106.6009
244.1241, 106.5223
246.0525, 106.7553
247.9810, 107.2204
249.9095, 107.7566
251.8379, 108.3739
253.7664, 109.0998
255.6949, 109.9475
257.6233, 111.0621
259.5518, 111.8183
261.4803, 111.9689
263.4087, 111.7958
265.3372, 111.7721
267.2657, 112.0962
269.1941, 112.2505
271.1226, 111.9910
273.0511, 111.1856
274.9795, 110.2730
276.9080, 109.4752
278.8365, 108.7157
280.7649, 107.7289
282.6934, 106.3580
284.6219, 104.7982
286.5503, 103.1059
288.4788, 101.3655
290.4073, 99.86209
292.3357, 98.65332
294.2642, 97.56242
296.1927, 96.49358
298.1211, 95.67172
300.0496, 94.54388
301.9781, 92.77482
303.9065, 90.61335
305.8350, 88.73178
307.7635, 87.53160
309.6919, 86.64462
311.6204, 85.78126
313.5489, 84.90236
315.4773, 83.81319
317.4058, 82.70194
319.3343, 81.51185
321.2627, 80.06458
323.1912, 77.76456
325.1197, 75.66444
327.0481, 74.09364
328.9766, 72.97160
330.9051, 71.85395
332.8336, 70.89365
334.7620, 69.86763
336.6905, 68.54759
338.6190, 66.78762
340.5474, 64.94135
342.4759, 62.92164
344.4044, 60.84532
346.3328, 59.01311
348.2613, 57.80516
350.1898, 56.55580
352.1182, 54.95504
354.0467, 52.96584
355.9752, 51.21251
357.9036, 49.87819
359.8321, 48.69093
361.7606, 47.43378
363.6890, 45.94537
365.6175, 44.79543
367.5460, 44.14388
369.4744, 43.82207
371.4029, 43.31127
373.3314, 42.33975
375.2598, 41.34039
377.1883, 40.57191
379.1168, 40.11483
381.0452, 39.78332
382.9737, 39.66314
384.9022, 39.57156
386.8306, 39.23162
388.7591, 38.15916
390.6876, 37.36599
392.6160, 37.22434
394.5445, 37.65052
396.4730, 37.75604
398.4014, 37.33449
400.3299, 36.79742
402.2584, 36.41404
404.1868, 36.39735
406.1153, 36.34858
408.0438, 36.05396
409.9722, 35.64872
411.9007, 35.41231
413.8292, 35.40443
415.7576, 35.31957
417.6861, 35.22821
419.6146, 35.28638
421.5430, 35.34718
423.4715, 35.14329
425.4000, 34.76878
427.3284, 34.34366
429.2569, 33.91770
431.1854, 33.83909
433.1138, 34.18288
435.0423, 34.61671
436.9708, 34.58510
438.8992, 34.04800
440.8277, 33.57212
442.7562, 33.31370
444.6846, 33.25119
446.6131, 33.19367
448.5416, 33.06496
450.4700, 32.93278
452.3985, 32.90210
454.3270, 33.09682
456.2554, 33.33733
458.1839, 33.44826
460.1124, 33.38178
462.0408, 33.09996
463.9693, 32.62348
465.8978, 32.27488
467.8262, 32.22131
469.7547, 32.39317
471.6832, 32.42145
473.6116, 32.30687
475.5401, 32.22554
477.4686, 32.27061
479.3970, 32.30188
481.3255, 32.19611
483.2540, 31.88910
485.1824, 31.53663
487.1109, 31.25367
489.0394, 31.25415
490.9678, 31.27020
492.8963, 31.23758
494.8248, 31.13469
496.7532, 31.03819
498.6817, 30.84864
500.6102, 30.65992
502.5386, 30.56713
504.4671, 30.78110
506.3956, 31.05853
508.3240, 31.02302
510.2525, 30.83218
512.1810, 30.67606
514.1094, 30.81618
516.0379, 30.90682
517.9664, 30.80453
519.8948, 30.55934
521.8233, 30.29350
523.7518, 30.10616
525.6802, 29.93641
527.6087, 29.70776
529.5372, 29.44488
531.4656, 29.34268
533.3941, 29.52789
535.3226, 29.64074
537.2510, 29.47645
539.1795, 29.14249
541.1080, 28.95764
543.0364, 29.00575
544.9649, 29.14857
546.8934, 29.35218
548.8218, 29.72487
550.7503, 29.84715
552.6788, 29.55723
554.6072, 29.16496
556.5357, 28.91357
558.4642, 28.84343
560.3926, 28.88457
562.3211, 29.15118
564.2496, 29.45030
566.1780, 29.37747
568.1065, 28.53455
570.0350, 27.84957
571.9634, 27.79800
573.8919, 28.26493
575.8204, 28.45459
577.7488, 28.19857
579.6773, 27.95367
581.6058, 27.89021
583.5342, 27.94406
585.4627, 28.01543
587.3912, 28.04204
589.3196, 28.02383
591.2481, 27.98253
593.1766, 28.17880
595.1050, 28.19545
597.0335, 27.77922
598.9620, 27.23877
600.8904, 26.97742
602.8189, 27.00556
604.7474, 27.12226
606.6758, 27.41866
608.6043, 27.81412
610.5328, 28.01195
612.4612, 27.85116
614.3897, 27.63809
616.3182, 27.39642
618.2466, 27.08277
620.1751, 26.72731
622.1036, 26.42253
624.0320, 26.28579
625.9605, 26.38282
627.8890, 26.49863
629.8174, 26.50775
631.7459, 26.36561
633.6744, 26.34746
635.6028, 26.64199
637.5313, 27.11260
639.4598, 27.34720
641.3882, 27.20046
643.3167, 26.96363
645.2452, 26.73107
647.1736, 26.56638
649.1021, 26.46795
651.0306, 26.51585
652.9590, 26.46059
654.8875, 26.15172
656.8160, 25.65618
658.7444, 25.43641
660.6729, 25.62447
662.6014, 25.91221
664.5298, 26.10707
666.4583, 26.20508
668.3868, 26.28852
670.3152, 26.43438
672.2437, 26.52446
674.1722, 26.42598
676.1006, 26.15380
678.0291, 26.03850
679.9576, 26.23053
681.8860, 26.42764
683.8145, 26.44278
685.7430, 26.25317
687.6714, 26.12368
689.5999, 26.09168
691.5284, 26.02300
693.4568, 25.98955
695.3853, 26.13659
697.3138, 26.25284
699.2422, 26.26893
701.1707, 26.17554
703.0992, 26.04911
705.0276, 25.83569
706.9561, 25.74506
708.8846, 25.83813
710.8130, 25.93063
712.7415, 26.07032
714.6700, 26.46376
716.5984, 26.76739
718.5269, 26.71074
720.4554, 26.44257
722.3839, 26.31425
724.3123, 26.53068
726.2408, 26.68460
728.1693, 26.67862
730.0977, 26.49076
732.0262, 26.38931
733.9547, 26.44580
735.8831, 26.57046
737.8116, 26.71723
739.7401, 26.88320
741.6685, 26.99471
743.5970, 27.02845
745.5255, 27.00479
747.4539, 26.98401
749.3824, 27.03498
751.3109, 27.03847
753.2393, 26.86319
755.1678, 26.78015
757.0963, 26.97215
759.0247, 27.46295
760.9532, 27.82466
762.8817, 28.05829
764.8101, 28.14894
766.7386, 27.99568
768.6671, 27.61590
770.5955, 27.45393
772.5240, 27.71503
774.4525, 28.01983
776.3809, 28.14881
778.3094, 28.05804
780.2379, 28.09284
782.1663, 28.37846
784.0948, 28.67034
786.0233, 28.85868
787.9517, 28.93340
789.8802, 28.87337
791.8087, 28.49425
793.7371, 28.18406
795.6656, 28.18427
797.5941, 28.57505
799.5225, 28.84290
801.4510, 28.95475
803.3795, 28.95492
805.3079, 28.82605
807.2364, 28.60433
809.1649, 28.54975
811.0933, 28.86322
813.0218, 29.15291
814.9503, 29.16642
816.8787, 28.85023
818.8072, 28.67794
820.7357, 28.76886
822.6641, 28.90240
824.5926, 29.01029
826.5211, 29.08600
828.4495, 29.08730
830.3780, 29.03225
832.3065, 28.95305
834.2349, 28.76407
836.1634, 28.39034
838.0919, 28.21069
840.0203, 28.48227
841.9488, 28.77567
843.8773, 28.81717
845.8057, 28.63763
847.7342, 28.59030
849.6627, 28.77698
851.5911, 28.90997
853.5196, 28.65197
855.4481, 28.01060
857.3765, 28.33839
859.3050, 28.49145
861.2335, 28.47918
863.1619, 27.80638
865.0904, 27.98652
867.0189, 27.82483
868.9473, 27.64913
870.8758, 27.94932
872.8043, 27.37258
874.7327, 27.66522
876.6612, 27.61082
878.5897, 27.71525
880.5181, 27.47576
882.4466, 27.34248
884.3751, 27.39202
886.3035, 27.27723
888.2320, 26.80857
890.1605, 26.32078
892.0889, 25.93439
894.0174, 25.76477
895.9459, 25.72137
897.8743, 25.86235
899.8028, 25.88762
901.7313, 25.69998
903.6597, 25.42184
905.5882, 25.16911
907.5167, 24.85400
909.4451, 24.63741
911.3736, 24.67138
913.3021, 24.77327
915.2305, 24.69365
917.1590, 24.36926
919.0875, 24.11306
921.0159, 24.01362
922.9444, 24.12982
924.8729, 24.28509
926.8013, 24.31021
928.7298, 24.34952
930.6583, 24.53336
932.5867, 24.63061
934.5152, 24.23758
936.4437, 23.57481
938.3721, 23.19953
940.3006, 23.42128
942.2291, 23.53402
944.1575, 23.25130
946.0860, 22.87300
948.0145, 22.80139
949.9429, 23.04869
951.8714, 23.22742
953.7999, 23.22759
955.7283, 23.32352
957.6568, 23.22199
959.5853, 22.62656
961.5137, 22.08935
963.4422, 22.10242
965.3707, 22.45640
967.2991, 22.74996
969.2276, 23.00467
971.1561, 23.09564
973.0845, 22.85629
975.0130, 22.45113
976.9415, 22.41521
978.8699, 22.72519
980.7984, 22.87387
982.7269, 22.60837
984.6553, 22.41581
986.5838, 22.60707
988.5123, 22.87775
990.4407, 23.02641
992.3692, 23.08938
994.2977, 23.13503
996.2261, 23.02813
998.1546, 22.81967
1000.083, 22.68650
1002.012, 22.68176
1003.940, 22.47774
1005.868, 22.84504
1007.797, 23.03761
1009.725, 23.06485
1011.654, 22.43154
1013.582, 22.65119
1015.511, 22.52901
1017.439, 22.39282
1019.368, 22.73251
1021.296, 22.19529
1023.225, 22.52743
1025.153, 22.51254
1027.082, 22.65647
1029.010, 22.45648
1030.939, 22.36271
1032.867, 22.57541
1034.796, 22.63186
1036.724, 22.02777
1038.652, 22.27663
1040.581, 22.18367
1042.509, 22.07669
1044.438, 22.44560
1046.366, 21.93759
1048.295, 22.29895
1050.223, 22.31327
1052.152, 22.48642
1054.080, 22.31565
1056.009, 22.25109
1057.937, 22.53059
1059.866, 22.31407
1061.794, 22.41806
1063.723, 22.42617
1065.651, 22.32765
1067.579, 22.04464
1069.508, 21.71266
1071.436, 21.70823
1073.365, 22.29490
1075.293, 22.75681
1077.222, 22.68351
1079.150, 22.26073
1081.079, 21.92019
1083.007, 22.06845
1084.936, 22.23985
1086.864, 22.29769
1088.793, 22.24817
1090.721, 22.12137
1092.650, 21.96008
1094.578, 21.84899
1096.506, 21.78485
1098.435, 21.72586
1100.363, 21.70398
1102.292, 21.78707
1104.220, 22.01252
1106.149, 22.15948
1108.077, 21.90664
1110.006, 21.45995
1111.934, 21.13198
1113.863, 21.11896
1115.791, 21.24113
1117.720, 21.10457
1119.648, 20.87070
1121.577, 21.06221
1123.505, 21.43661
1125.433, 21.42072
1127.362, 20.98520
1129.290, 21.07404
1131.219, 21.28356
1133.147, 21.20538
1135.076, 20.90899
1137.004, 20.75830
1138.933, 20.49745
1140.861, 20.23638
1142.790, 20.31719
1144.718, 20.65567
1146.647, 20.92034
1148.575, 20.88484
1150.504, 20.56018
1152.432, 20.17913
1154.360, 20.00787
1156.289, 19.92970
1158.217, 19.80558
1160.146, 19.60435
1162.074, 19.46482
1164.003, 19.56116
1165.931, 19.78901
1167.860, 20.00640
1169.788, 20.10912
1171.717, 20.10650
1173.645, 20.08049
1175.574, 19.98750
1177.502, 19.84231
1179.431, 19.75548
1181.359, 19.76194
1183.287, 19.75710
1185.216, 19.62761
1187.144, 19.60560
1189.073, 19.82712
1191.001, 20.04665
1192.930, 20.09614
1194.858, 20.01749
1196.787, 19.99264
1198.715, 19.98739
1200.644, 19.97252
1202.572, 19.56779
1204.501, 19.95662
1206.429, 20.17074
1208.358, 20.21951
1210.286, 19.60776
1212.214, 19.84895
1214.143, 19.74831
1216.071, 19.63366
1218.000, 19.99489
1219.928, 19.47921
1221.857, 19.83290
1223.785, 19.83955
1225.714, 20.00503
1227.642, 19.82658
1229.571, 19.75435
1231.499, 20.02617
1233.428, 20.10749
1235.356, 19.88945
1237.285, 20.06502
1239.213, 19.53732
1241.141, 19.62676
1243.070, 19.98246
1244.998, 19.89784
1246.927, 20.26659
1248.855, 20.39017
1250.784, 20.24498
1252.712, 20.16425
1254.641, 20.27703
1256.569, 20.44622
1258.498, 20.37104
1260.426, 20.10902
1262.355, 20.18559
1264.283, 20.61617
1266.212, 20.85891
1268.140, 20.64136
1270.068, 20.43917
1271.997, 20.44722
1273.925, 20.61277
1275.854, 20.78325
1277.782, 20.95904
1279.711, 20.93982
1281.639, 20.73123
1283.568, 20.58821
1285.496, 20.43989
1287.425, 20.32593
1289.353, 20.36780
1291.282, 20.63735
1293.210, 20.85325
1295.139, 20.97975
1297.067, 20.86628
1298.995, 20.67239
1300.924, 20.54008
1302.852, 20.55073
1304.781, 20.72622
1306.709, 20.77354
1308.638, 20.51824
1310.566, 20.30568
1312.495, 20.44482
1314.423, 20.99608
1316.352, 21.27627
1318.280, 21.11013
1320.209, 20.89397
1322.137, 20.57131
1324.066, 20.25888
1325.994, 20.35297
1327.922, 21.26501
1329.851, 21.82900
1331.779, 21.71089
1333.708, 21.29821
1335.636, 20.98441
1337.565, 20.96386
1339.493, 20.90632
1341.422, 20.66860
1343.350, 20.66688
1345.279, 21.46036
1347.207, 22.22245
1349.136, 22.25095
1351.064, 21.70841
1352.993, 21.32855
1354.921, 21.16109
1356.849, 21.10260
1358.778, 21.27161
1360.706, 21.45017
1362.635, 21.42577
1364.563, 21.19386
1366.492, 21.15127
1368.420, 21.34023
1370.349, 21.53349
1372.277, 21.86231
1374.206, 22.26845
1376.134, 22.55517
1378.063, 22.72936
1379.991, 22.77105
1381.920, 22.60735
1383.848, 22.37797
1385.776, 22.07168
1387.705, 21.80041
1389.633, 21.75338
1391.562, 22.00504
1393.490, 22.10955
1395.419, 21.79587
1397.347, 21.56796
1399.276, 21.82595
1401.204, 22.34085
1403.133, 22.75513
1405.061, 23.06460
1406.990, 23.18274
1408.918, 22.96480
1410.847, 22.73403
1412.775, 22.59411
1414.703, 22.50656
1416.632, 22.46513
1418.560, 22.46453
1420.489, 22.53145
1422.417, 22.85320
1424.346, 23.02831
1426.274, 22.67122
1428.203, 22.07670
1430.131, 21.99221
1432.060, 22.82355
1433.988, 23.30044
1435.917, 23.24045
1437.845, 23.02012
1439.774, 22.68006
1441.702, 22.32751
1443.630, 22.22775
1445.559, 22.40870
1447.487, 22.60126
1449.416, 22.87031
1451.344, 23.03648
1453.273, 22.86848
1455.201, 22.58941
1457.130, 22.62468
1459.058, 23.01661
1460.987, 23.26603
1462.915, 23.21525
1464.844, 23.10413
1466.772, 23.08401
1468.701, 23.08171
1470.629, 22.90329
1472.557, 22.51297
1474.486, 22.20054
1476.414, 22.00449
1478.343, 21.91879
1480.271, 21.94846
1482.200, 22.05720
1484.128, 22.26250
1486.057, 22.63462
1487.985, 22.82032
1489.914, 22.54164
1491.842, 22.40287
1493.771, 22.67721
1495.699, 23.09459
1497.628, 23.32509
1499.556, 23.30273
1501.484, 23.19711
1503.413, 22.97310
1505.341, 22.79062
1507.270, 22.61872
1509.198, 22.52957
1511.127, 22.65620
1513.055, 22.98660
1514.984, 23.20302
1516.912, 23.27792
1518.841, 23.29720
1520.769, 23.24993
1522.698, 23.15671
1524.626, 22.98168
1526.555, 22.79810
1528.483, 22.81005
1530.411, 23.07294
1532.340, 23.19302
1534.268, 22.93482
1536.197, 22.74582
1538.125, 22.20943
1540.054, 23.20869
1541.982, 23.77113
1543.911, 23.92024
1545.839, 22.41800
1547.768, 23.04812
1549.696, 22.82370
1551.625, 22.56423
1553.553, 23.49447
1555.482, 22.23242
1557.410, 23.14380
1559.339, 23.18758
1561.267, 23.62845
1563.195, 23.20947
1565.124, 23.05608
1567.052, 23.76279
1568.981, 23.99326
1570.909, 23.47531
1572.838, 23.94141
1574.766, 22.64932
1576.695, 22.90007
1578.623, 23.81648
1580.552, 23.34176
1582.480, 23.82359
1584.409, 23.94110
1586.337, 22.40302
1588.266, 23.58021
1590.194, 23.86637
1592.122, 23.60403
1594.051, 23.46746
1595.979, 23.82317
1597.908, 24.18462
1599.836, 23.92754
1601.765, 23.14824
1603.693, 22.96224
1605.622, 24.06793
1607.550, 24.57465
1609.479, 23.89282
1611.407, 23.20349
1613.336, 23.18404
1615.264, 23.53367
1617.193, 23.67752
1619.121, 23.56896
1621.049, 23.41104
1622.978, 23.08555
1624.906, 22.89409
1626.835, 23.00379
1628.763, 23.19666
1630.692, 23.29168
1632.620, 23.28659
1634.549, 23.20709
1636.477, 22.92637
1638.406, 22.89294
1640.334, 23.40819
1642.263, 23.87128
1644.191, 23.94270
1646.120, 23.82425
1648.048, 23.83755
1649.976, 23.99627
1651.905, 24.03578
1653.833, 23.88262
1655.762, 23.73027
1657.690, 23.50928
1659.619, 23.41062
1661.547, 23.70575
1663.476, 24.21114
1665.404, 24.38864
1667.333, 24.18886
1669.261, 24.05509
1671.190, 24.10519
1673.118, 24.11029
1675.047, 23.89652
1676.975, 23.68493
1678.903, 23.70392
1680.832, 23.91633
1682.760, 24.11672
1684.689, 24.28963
1686.617, 24.49735
1688.546, 24.92946
1690.474, 25.17252
1692.403, 24.87939
1694.331, 24.42129
1696.260, 24.29816
1698.188, 24.46741
1700.117, 24.47355
1702.045, 24.18633
1703.974, 24.10646
1705.902, 24.63792
1707.830, 25.04822
1709.759, 24.77669
1711.687, 24.26388
1713.616, 24.22079
1715.544, 24.61847
1717.473, 24.87641
1719.401, 24.93420
1721.330, 24.95135
1723.258, 25.00803
1725.187, 24.98785
1727.115, 24.75986
1729.044, 24.44532
1730.972, 24.19241
1732.901, 23.99914
1734.829, 24.14662
1736.757, 24.93905
1738.686, 25.40878
1740.614, 25.07673
1742.543, 24.65613
1744.471, 24.62325
1746.400, 24.74321
1748.328, 24.52196
1750.257, 23.94172
1752.185, 23.73633
1754.114, 24.06731
1756.042, 24.47187
1757.971, 25.00379
1759.899, 25.43202
1761.828, 25.63442
1763.756, 25.64729
1765.684, 25.45304
1767.613, 25.03810
1769.541, 24.85950
1771.470, 25.05109
1773.398, 25.21212
1775.327, 25.30647
1777.255, 25.34287
1779.184, 25.21263
1781.112, 25.09457
1783.041, 25.29690
1784.969, 25.80226
1786.898, 26.13387
1788.826, 26.29617
1790.755, 26.27976
1792.683, 25.91684
1794.611, 25.59397
1796.540, 25.49919
1798.468, 25.48985
1800.397, 25.47042
1802.325, 25.41683
1804.254, 25.12557
1806.182, 24.14558
1808.111, 23.93972
1810.039, 25.28943
1811.968, 26.28465
1813.896, 26.17223
1815.825, 25.79999
1817.753, 25.87567
1819.682, 26.20269
1821.610, 26.22289
1823.538, 25.86622
1825.467, 25.55163
1827.395, 25.23427
1829.324, 25.05271
1831.252, 25.07430
1833.181, 25.17877
1835.109, 25.33408
1837.038, 25.51551
1838.966, 25.68645
1840.895, 25.84882
1842.823, 26.10627
1844.752, 26.61242
1846.680, 26.56940
1848.609, 25.23928
1850.537, 24.35791
1852.465, 25.07591
1854.394, 26.08616
1856.322, 26.36378
1858.251, 26.14615
1860.179, 26.04525
1862.108, 26.07122
1864.036, 25.91771
1865.965, 25.40705
1867.893, 25.19764
1869.822, 25.76934
1871.750, 26.29096
1873.679, 26.16843
1875.607, 25.82536
1877.536, 25.83702
1879.464, 26.07807
1881.392, 25.93093
1883.321, 25.25501
1885.249, 25.03767
1887.178, 25.70809
1889.106, 26.30560
1891.035, 26.56635
1892.963, 26.62681
1894.892, 26.41157
1896.820, 26.14254
1898.749, 26.32451
1900.677, 26.94261
1902.606, 27.03196
1904.534, 26.20315
1906.463, 25.69363
1908.391, 25.68652
1910.319, 25.81113
1912.248, 26.15252
1914.176, 26.39215
1916.105, 26.14294
1918.033, 25.66537
1919.962, 25.52124
1921.890, 25.72966
1923.819, 25.96864
1925.747, 26.29383
1927.676, 26.48751
1929.604, 26.34439
1931.533, 26.34081
1933.461, 26.97156
1935.390, 27.45306
1937.318, 27.04978
1939.246, 26.16810
1941.175, 25.56197
1943.103, 25.22876
1945.032, 25.21340
1946.960, 25.59199
1948.889, 25.86816
1950.817, 25.88207
1952.746, 25.90826
1954.674, 26.00701
1956.603, 26.20732
1958.531, 26.69578
1960.460, 27.21452
1962.388, 27.31804
1964.317, 27.03481
1966.245, 26.60428
1968.173, 25.84668
1970.102, 25.61921
1972.030, 26.63196
1973.959, 27.23697
1975.887, 26.64148
1977.816, 26.03433
1979.744, 26.25079
1981.673, 26.76482
1983.601, 26.81469
1985.530, 26.51576
1987.458, 26.57371
1989.387, 27.11712
1991.315, 27.36557
1993.244, 27.15105
1995.172, 26.97456
1997.100, 26.96233
1999.029, 26.96883
2000.957, 26.99599
2002.886, 26.96238
2004.814, 26.75270
2006.743, 26.45575
2008.671, 26.15113
2010.600, 25.88200
2012.528, 26.10765
2014.457, 26.98500
2016.385, 27.53919
2018.314, 27.50487
2020.242, 27.32695
2022.171, 26.98895
2024.099, 26.72461
2026.027, 26.72436
2027.956, 26.82883
2029.884, 26.85652
2031.813, 26.82718
2033.741, 26.80303
2035.670, 26.78094
2037.598, 26.79572
2039.527, 26.87266
2041.455, 26.92956
2043.384, 26.86180
2045.312, 26.92021
2047.241, 27.42729
2049.169, 27.79260
2051.098, 27.52625
2053.026, 27.01716
2054.955, 26.67752
2056.883, 26.51858
2058.812, 26.61287
2060.740, 26.95702
2062.668, 27.34880
2064.597, 27.87142
2066.525, 28.03090
2068.454, 27.25957
2070.382, 26.86409
2072.311, 27.77593
2074.239, 28.60292
2076.168, 28.26125
2078.096, 27.49794
2080.025, 27.22489
2081.953, 27.32141
2083.882, 27.37371
2085.810, 27.37674
2087.739, 27.38177
2089.667, 27.38583
2091.595, 27.38642
2093.524, 27.29337
2095.452, 27.39398
2097.381, 28.04120
2099.309, 28.50921
2101.238, 28.23882
2103.166, 27.76669
2105.095, 27.59343
2107.023, 27.57265
2108.952, 27.37327
2110.880, 27.04044
2112.809, 26.97771
2114.737, 27.27643
2116.666, 27.43505
2118.594, 27.19798
2120.522, 27.20553
2122.451, 27.83971
2124.379, 28.26187
2126.308, 28.12286
2128.236, 27.79081
2130.165, 27.27787
2132.093, 26.88032
2134.022, 27.11272
2135.950, 27.70699
2137.879, 27.85330
2139.807, 27.61957
2141.736, 27.72818
2143.664, 28.27154
2145.593, 28.67114
2147.521, 28.89057
2149.449, 28.87237
2151.378, 28.28737
2153.306, 27.91706
2155.235, 28.34353
2157.163, 28.74102
2159.092, 28.33350
2161.020, 27.72305
2162.949, 27.75016
2164.877, 28.16463
2166.806, 28.19040
2168.734, 27.87045
2170.663, 27.91648
2172.591, 28.40011
2174.520, 28.61487
2176.448, 28.39778
2178.376, 28.26675
2180.305, 28.42293
2182.233, 28.52651
2184.162, 28.41771
2186.090, 28.25890
2188.019, 28.14438
2189.947, 28.02121
2191.876, 27.69304
2193.804, 27.39830
2195.733, 27.73248
2197.661, 28.54569
2199.590, 28.86161
2201.518, 28.65550
2203.447, 28.55860
2205.375, 28.60265
2207.303, 28.73137
2209.232, 28.99182
2211.160, 29.16990
2213.089, 29.21955
2215.017, 29.16298
2216.946, 28.94742
2218.874, 28.70700
2220.803, 28.40586
2222.731, 28.23124
2224.660, 28.51151
2226.588, 28.99866
2228.517, 29.24083
2230.445, 29.24373
2232.374, 28.95126
2234.302, 28.36840
2236.230, 28.21121
2238.159, 28.57892
2240.087, 28.88443
2242.016, 29.09851
2243.944, 29.07406
2245.873, 28.57750
2247.801, 28.15572
2249.730, 27.95897
2251.658, 27.92337
2253.587, 28.00409
2255.515, 28.24595
2257.444, 28.89540
2259.372, 29.58030
2261.301, 29.76193
2263.229, 29.54192
2265.157, 29.04272
2267.086, 28.38146
2269.014, 28.36397
2270.943, 29.02462
2272.871, 29.30765
2274.800, 29.03054
2276.728, 28.78243
2278.657, 28.50422
2280.585, 28.48749
2282.514, 29.01447
2284.442, 29.44813
2286.371, 29.62267
2288.299, 29.62329
2290.228, 29.28063
2292.156, 29.00921
2294.084, 29.28568
2296.013, 29.68643
2297.941, 29.70931
2299.870, 29.48741
2301.798, 28.34813
2303.727, 29.37492
2305.655, 29.96488
2307.584, 30.14152
2309.512, 28.66680
2311.441, 29.32446
2313.369, 29.12755
2315.298, 28.89561
2317.226, 29.85338
2319.155, 28.61886
2321.083, 29.55776
2323.011, 29.62906
2324.940, 30.09746
2326.868, 29.70600
2328.797, 29.58014
2330.725, 30.31437
2332.654, 30.57237
2334.582, 30.08194
2336.511, 30.57557
2338.439, 29.31100
2340.368, 29.58928
2342.296, 30.53321
2344.225, 30.08603
2346.153, 30.59537
2348.082, 30.74043
2350.010, 29.22985
2351.938, 30.59855
2353.867, 30.72207
2355.795, 29.56704
2357.724, 30.83710
2359.652, 29.85833
2361.581, 29.68227
2363.509, 30.11026
2365.438, 29.90854
2367.366, 30.69965
2369.295, 30.53429
2371.223, 30.28347
2373.152, 30.40560
2375.080, 29.73375
2377.009, 29.40935
2378.937, 30.03143
2380.865, 30.77816
2382.794, 30.68348
2384.722, 30.21335
2386.651, 30.07900
2388.579, 30.15568
2390.508, 30.17051
2392.436, 30.10676
2394.365, 29.74571
2396.293, 29.18395
2398.222, 29.32784
2400.150, 30.27708
2402.079, 30.84181
2404.007, 30.85205
2405.936, 30.80067
2407.864, 30.74753
2409.792, 30.47092
2411.721, 29.73207
2413.649, 29.35993
2415.578, 29.73614
2417.506, 29.96598
2419.435, 29.52995
2421.363, 29.26575
2423.292, 29.67373
2425.220, 30.17809
2427.149, 30.56599
2429.077, 30.81328
2431.006, 30.82382
2432.934, 30.76508
2434.863, 30.88364
2436.791, 30.95839
2438.719, 30.50115
2440.648, 29.93834
2442.576, 30.13859
2444.505, 30.74084
2446.433, 30.72876
2448.362, 30.24431
2450.290, 30.04317
2452.219, 30.11992
2454.147, 30.25127
2456.076, 30.43686
2458.004, 30.60385
2459.933, 30.74129
2461.861, 31.06298
2463.790, 31.69019
2465.718, 31.92858
2467.646, 31.55779
2469.575, 31.08132
2471.503, 30.04208
2473.432, 29.84793
2475.360, 31.34994
2477.289, 32.18376
2479.217, 31.43684
2481.146, 30.66378
2483.074, 30.45072
2485.003, 30.35647
2486.931, 30.14690
2488.860, 30.03989
2490.788, 30.21611
2492.717, 30.46312
2494.645, 30.69069
2496.573, 30.86918
2498.502, 31.03228
2500.430, 31.07899
2502.359, 30.74382
2504.287, 30.37799
2506.216, 30.53578
2508.144, 30.90225
2510.073, 30.86107
2512.001, 30.63634
2513.930, 30.77984
2515.858, 31.19597
2517.787, 31.59397
2519.715, 31.96410
2521.644, 32.33524
2523.572, 32.66235
2525.500, 32.57942
2527.429, 32.08341
2529.357, 31.54943
2531.286, 30.92250
2533.214, 30.68860
2535.143, 30.86682
2537.071, 31.24336
2539.000, 31.85950
2540.928, 31.90942
2542.857, 31.09486
2544.785, 30.61465
2546.714, 30.75730
2548.642, 30.97218
2550.571, 31.37418
2552.499, 31.52553
2554.427, 31.12798
2556.356, 31.62246
2558.284, 31.94217
2560.213, 32.09659
2562.141, 31.59044
2564.070, 31.93727
2565.998, 31.94222
2567.927, 31.93322
2569.855, 32.40005
2571.784, 31.99001
2573.712, 32.44929
2575.641, 32.56160
2577.569, 33.04735
2579.498, 33.23974
2581.426, 32.05765
2583.354, 30.97233
2585.283, 30.75927
2587.211, 31.08847
2589.140, 32.32076
2591.068, 33.31698
2592.997, 33.12026
2594.925, 32.56870
2596.854, 32.20547
2598.782, 31.97258
2600.711, 31.76549
2602.639, 31.70109
2604.568, 32.01107
2606.496, 32.43807
2608.425, 32.85694
2610.353, 33.05907
2612.281, 32.58744
2614.210, 31.92997
2616.138, 31.82247
2618.067, 31.65964
2619.995, 32.07858
2621.924, 32.32280
2623.852, 32.40166
2625.781, 31.82001
2627.709, 32.09129
2629.638, 32.02076
2631.566, 31.93620
2633.495, 32.32754
2635.423, 31.84195
2637.352, 32.22574
2639.280, 32.26248
2641.208, 32.45806
2643.137, 32.30971
2645.065, 32.26758
2646.994, 32.56950
2648.922, 32.68092
2650.851, 32.49298
2652.779, 32.69865
2654.708, 32.20105
2656.636, 31.75598
2658.565, 31.74660
2660.493, 32.20846
2662.422, 32.59376
2664.350, 32.88219
2666.279, 32.92882
2668.207, 32.78725
2670.135, 33.33076
2672.064, 34.39883
2673.992, 34.16350
2675.921, 32.89100
2677.849, 32.69680
2679.778, 33.51149
2681.706, 33.39722
2683.635, 32.40552
2685.563, 32.07844
2687.492, 32.38488
2689.420, 32.93940
2691.349, 33.64079
2693.277, 33.61296
2695.206, 32.87464
2697.134, 32.72511
2699.063, 33.15832
2700.991, 33.45298
2702.919, 33.60458
2704.848, 33.31301
2706.776, 32.67665
2708.705, 32.70704
2710.633, 33.38662
2712.562, 33.42252
2714.490, 32.82815
2716.419, 32.45206
2718.347, 32.30861
2720.276, 32.77160
2722.204, 33.71333
2724.133, 34.12025
2726.061, 33.99018
2727.990, 33.64608
2729.918, 33.11925
2731.846, 33.08236
2733.775, 33.44135
2735.703, 33.34008
2737.632, 32.88083
2739.560, 32.72486
2741.489, 32.85988
2743.417, 33.20602
2745.346, 33.71180
2747.274, 34.04997
2749.203, 34.18470
2751.131, 33.80625
2753.060, 33.08464
2754.988, 32.71573
2756.917, 32.63519
2758.845, 32.56281
2760.773, 32.53890
2762.702, 32.81590
2764.630, 33.24477
2766.559, 33.28572
2768.487, 33.14404
2770.416, 33.45274
2772.344, 33.97228
2774.273, 34.02562
2776.201, 33.82580
2778.130, 33.97876
2780.058, 34.19452
2781.987, 33.80601
2783.915, 33.20886
2785.844, 33.08139
2787.772, 33.23635
2789.700, 33.45200
2791.629, 33.66550
2793.557, 33.83538
2795.486, 33.89086
2797.414, 33.53498
2799.343, 33.22245
2801.271, 33.70658
2803.200, 34.29948
2805.128, 34.17907
2807.057, 33.89295
2808.985, 33.93189
2810.914, 34.00559
2812.842, 33.84017
2814.771, 33.65279
2816.699, 33.53049
2818.627, 33.56639
2820.556, 34.00837
2822.484, 34.31187
2824.413, 33.91001
2826.341, 33.62718
2828.270, 34.14912
2830.198, 34.48860
2832.127, 34.01846
2834.055, 33.71342
2835.984, 33.98374
2837.912, 34.37276
2839.841, 34.98309
2841.769, 35.22088
2843.698, 34.77500
2845.626, 34.32068
2847.554, 33.97097
2849.483, 33.61889
2851.411, 33.04958
2853.340, 32.99469
2855.268, 33.88304
2857.197, 34.54025
2859.125, 34.95768
2861.054, 34.69172
2862.982, 33.53363
2864.911, 33.13702
2866.839, 33.90014
2868.768, 34.15258
2870.696, 33.85135
2872.625, 33.97723
2874.553, 34.50327
2876.481, 34.75145
2878.410, 34.70338
2880.338, 34.38334
2882.267, 33.87351
2884.195, 33.62943
2886.124, 33.68956
2888.052, 34.49643
2889.981, 35.52573
2891.909, 35.49197
2893.838, 34.85219
2895.766, 34.27637
2897.695, 33.88205
2899.623, 33.95794
2901.552, 34.18871
2903.480, 34.14906
2905.408, 34.18540
2907.337, 34.70646
2909.265, 35.36383
2911.194, 36.18827
2913.122, 36.62665
2915.051, 36.07457
2916.979, 35.46033
2918.908, 35.18371
2920.836, 35.02678
2922.765, 34.90785
2924.693, 34.92409
2926.622, 35.25478
2928.550, 35.36505
2930.479, 34.84245
2932.407, 34.69138
2934.335, 35.07012
2936.264, 35.41973
2938.192, 35.72584
2940.121, 35.45636
2942.049, 34.34586
2943.978, 34.06820
2945.906, 34.61213
2947.835, 35.22866
2949.763, 35.82467
2951.692, 35.86042
2953.620, 35.48717
2955.549, 35.23442
2957.477, 35.13012
2959.406, 35.52876
2961.334, 35.89380
2963.262, 34.96045
2965.191, 33.91652
2967.119, 34.69556
2969.048, 35.70492
2970.976, 35.06355
2972.905, 34.48942
2974.833, 35.45893
2976.762, 36.36211
2978.690, 36.37550
2980.619, 35.98948
2982.547, 35.08344
2984.476, 34.55453
2986.404, 34.72537
2988.333, 35.15968
2990.261, 36.19554
2992.189, 36.36412
2994.118, 35.42654
2996.046, 35.13287
2997.975, 35.69137
2999.903, 36.14341
3001.832, 36.45965
3003.760, 36.25186
3005.689, 35.67346
3007.617, 35.53677
3009.546, 35.67974
3011.474, 35.55611
3013.403, 35.44448
3015.331, 36.14188
3017.260, 36.87945
3019.188, 36.65368
3021.116, 36.19753
3023.045, 36.01035
3024.973, 36.00861
3026.902, 36.38912
3028.830, 36.52993
3030.759, 36.11486
3032.687, 35.62695
3034.616, 34.91964
3036.544, 34.83527
3038.473, 35.65834
3040.401, 36.10041
3042.330, 35.95849
3044.258, 36.18138
3046.187, 36.89454
3048.115, 36.74040
3050.043, 35.91103
3051.972, 35.91251
3053.900, 36.42834
3055.829, 36.49905
3057.757, 36.32568
3059.686, 36.32851
3061.614, 36.26598
3063.543, 35.58215
3065.471, 35.10870
3067.400, 35.82885
3069.328, 36.47984
3071.257, 36.33315
3073.185, 36.08248
3075.114, 35.85287
3077.042, 35.77769
3078.970, 35.97073
3080.899, 36.17120
3082.827, 36.37509
3084.756, 36.57513
3086.684, 36.77021
3088.613, 36.75365
3090.541, 36.58616
3092.470, 36.91096
3094.398, 37.44326
3096.327, 37.31284
3098.255, 36.96912
3100.184, 37.23210
3102.112, 37.48043
3104.041, 37.04137
3105.969, 36.37465
3107.897, 35.37322
3109.826, 34.83989
3111.754, 35.40956
3113.683, 35.97831
3115.611, 36.41396
3117.540, 36.58281
3119.468, 36.41458
3121.397, 36.08380
3123.325, 35.58130
3125.254, 35.52509
3127.182, 35.79902
3129.111, 35.70906
3131.039, 35.51654
3132.968, 35.93431
3134.896, 36.60152
3136.824, 37.21599
3138.753, 37.57208
3140.681, 37.43972
3142.610, 37.05302
3144.538, 36.16217
3146.467, 35.86858
3148.395, 36.78637
3150.324, 37.36869
3152.252, 37.20260
3154.181, 36.95353
3156.109, 36.63869
3158.038, 36.76616
3159.966, 37.20975
3161.895, 36.86681
3163.823, 36.16910
3165.751, 36.29130
3167.680, 36.77201
3169.608, 37.11445
3171.537, 37.41602
3173.465, 37.86155
3175.394, 38.11033
3177.322, 38.06793
3179.251, 37.72224
3181.179, 36.58032
3183.108, 36.33785
3185.036, 37.22865
3186.965, 37.39289
3188.893, 36.79132
3190.822, 36.79117
3192.750, 37.21451
3194.678, 37.47010
3196.607, 37.44407
3198.535, 36.73142
3200.464, 36.01286
3202.392, 36.05957
3204.321, 36.15906
3206.249, 36.03916
3208.178, 35.74070
3210.106, 34.76861
3212.035, 34.86241
3213.963, 36.37488
3215.892, 36.84769
3217.820, 36.21277
3219.749, 35.91106
3221.677, 35.96321
3223.605, 36.57775
3225.534, 37.30820
3227.462, 37.53210
3229.391, 37.48797
3231.319, 37.20267
3233.248, 37.03427
3235.176, 37.25493
3237.105, 37.27350
3239.033, 36.58044
3240.962, 36.50803
3242.890, 37.15926
3244.819, 37.56010
3246.747, 37.63830
3248.676, 37.14904
3250.604, 36.45888
3252.532, 36.59138
3254.461, 36.98114
3256.389, 36.95205
3258.318, 36.99977
3260.246, 37.65020
3262.175, 38.06918
3264.103, 37.92495
3266.032, 37.98283
3267.960, 38.62383
3269.889, 38.46127
3271.817, 37.64381
3273.746, 37.85370
3275.674, 38.65731
3277.603, 39.00221
3279.531, 38.91114
3281.459, 38.07159
3283.388, 37.34033
3285.316, 37.17317
3287.245, 37.54728
3289.173, 38.94387
3291.102, 38.88899
3293.030, 36.63758
3294.959, 36.09119
3296.887, 37.28891
3298.816, 37.85957
3300.744, 37.99432
3302.673, 38.21640
3304.601, 38.28320
3306.530, 37.64085
3308.458, 37.12917
3310.386, 37.27603
3312.315, 37.47134
3314.243, 37.47728
3316.172, 37.62577
3318.100, 37.93584
3320.029, 38.35261
3321.957, 38.77553
3323.886, 38.52980
3325.814, 37.96370
3327.743, 37.57062
3329.671, 37.39310
3331.600, 37.37988
3333.528, 37.81831
3335.457, 39.10278
3337.385, 39.74179
3339.313, 39.07587
3341.242, 38.85763
3343.170, 39.06803
3345.099, 39.11662
3347.027, 38.95577
3348.956, 38.39304
3350.884, 37.70397
3352.813, 36.85275
3354.741, 36.59922
3356.670, 38.07694
3358.598, 38.70597
3360.527, 37.78078
3362.455, 37.76165
3364.384, 38.86855
3366.312, 38.81562
3368.240, 38.10137
3370.169, 38.71117
3372.097, 39.58977
3374.026, 39.53402
3375.954, 39.19658
3377.883, 38.82922
3379.811, 38.57449
3381.740, 38.46651
3383.668, 38.55509
3385.597, 38.84098
3387.525, 38.74018
3389.454, 38.48372
3391.382, 38.93261
3393.311, 39.44795
3395.239, 38.98983
3397.167, 38.66589
3399.096, 39.31697
3401.024, 39.72477
3402.953, 39.70483
3404.881, 39.13011
3406.810, 38.09008
3408.738, 38.47203
3410.667, 39.56353
3412.595, 39.21423
3414.524, 38.72655
3416.452, 39.58961
3418.381, 40.29775
3420.309, 40.26264
3422.238, 39.89044
3424.166, 39.09655
3426.094, 39.15431
3428.023, 39.88761
3429.951, 39.45612
3431.880, 38.73861
3433.808, 39.34439
3435.737, 40.11848
3437.665, 40.35462
3439.594, 40.29697
3441.522, 39.86249
3443.451, 39.50924
3445.379, 39.26182
3447.308, 39.44829
3449.236, 39.76924
3451.165, 39.05628
3453.093, 38.30470
3455.021, 38.78452
3456.950, 39.19725
3458.878, 38.57013
3460.807, 38.52086
3462.735, 39.23673
3464.664, 40.41731
3466.592, 41.75795
3468.521, 41.43898
3470.449, 40.48560
3472.378, 40.23808
3474.306, 40.19432
3476.235, 40.34938
3478.163, 39.76012
3480.092, 37.86318
3482.020, 37.86680
3483.948, 39.74147
3485.877, 40.44094
3487.805, 40.43922
3489.734, 40.55333
3491.662, 40.48972
3493.591, 39.80976
3495.519, 39.49963
3497.448, 40.19722
3499.376, 40.30684
3501.305, 39.81437
3503.233, 38.98615
3505.162, 38.35593
3507.090, 39.39787
3509.019, 40.65558
3510.947, 41.24361
3512.875, 41.28051
3514.804, 40.37227
3516.732, 40.43489
3518.661, 41.39410
3520.589, 41.04868
3522.518, 40.13140
3524.446, 40.38643
3526.375, 41.02832
3528.303, 41.76852
3530.232, 42.07008
3532.160, 41.78722
3534.089, 41.08419
3536.017, 40.07185
3537.946, 40.58648
3539.874, 41.53429
3541.802, 40.03921
3543.731, 38.86731
3545.659, 40.91695
3547.588, 41.97298
3549.516, 41.00642
3551.445, 40.50945
3553.373, 40.63006
3555.302, 40.99075
3557.230, 41.50785
3559.159, 42.34573
3561.087, 42.74948
3563.016, 42.17413
3564.944, 41.38556
3566.873, 40.33538
3568.801, 40.62255
3570.729, 41.80581
3572.658, 41.91072
3574.586, 41.39452
3576.515, 40.34224
3578.443, 39.59199
3580.372, 39.29926
3582.300, 40.17485
3584.229, 42.39653
3586.157, 42.78930
3588.086, 42.07564
3590.014, 42.02109
3591.943, 41.96138
3593.871, 41.20427
3595.800, 40.73224
3597.728, 41.03339
3599.656, 41.38190
3601.585, 41.68060
3603.513, 41.13601
3605.442, 40.49511
3607.370, 41.23679
3609.299, 41.78001
3611.227, 40.78518
3613.156, 40.98359
3615.084, 42.64111
3617.013, 42.63847
3618.941, 41.62209
3620.870, 41.30164
3622.798, 41.44691
3624.727, 42.16488
3626.655, 42.53373
3628.583, 42.22014
3630.512, 42.04584
3632.440, 42.00777
3634.369, 41.83043
3636.297, 41.59195
3638.226, 41.37003
3640.154, 41.17862
3642.083, 40.82013
3644.011, 41.16022
3645.940, 42.17271
3647.868, 42.77216
3649.797, 42.87090
3651.725, 41.80806
3653.654, 40.97524
3655.582, 41.31482
3657.510, 42.03074
3659.439, 43.02888
3661.367, 43.16323
3663.296, 42.70448
3665.224, 42.33726
3667.153, 42.09745
3669.081, 42.03522
3671.010, 42.05750
3672.938, 42.14110
3674.867, 42.31377
3676.795, 42.49165
3678.724, 42.27732
3680.652, 41.87742
3682.581, 41.13277
3684.509, 41.10992
3686.438, 42.25411
3688.366, 43.44281
3690.294, 44.36386
3692.223, 43.04242
3694.151, 41.51590
3696.080, 42.71577
3698.008, 43.64281
3699.937, 43.01040
3701.865, 42.47707
3703.794, 42.22106
3705.722, 42.53422
3707.651, 42.97042
3709.579, 42.88745
3711.508, 42.69350
3713.436, 42.55631
3715.365, 42.24562
3717.293, 41.84890
3719.221, 42.67107
3721.150, 43.80666
3723.078, 43.83584
3725.007, 43.66919
3726.935, 43.80358
3728.864, 43.42029
3730.792, 42.55931
3732.721, 42.47150
3734.649, 42.72050
3736.578, 42.84917
3738.506, 42.57889
3740.435, 41.16247
3742.363, 41.56517
3744.292, 43.58100
3746.220, 43.01433
3748.148, 41.91785
3750.077, 43.77610
3752.005, 45.13136
3753.934, 44.18735
3755.862, 43.30044
3757.791, 42.73252
3759.719, 43.57219
3761.648, 44.48887
3763.576, 43.60507
3765.505, 42.83223
3767.433, 42.94182
3769.362, 42.94728
3771.290, 42.84487
3773.219, 42.67319
3775.147, 42.77177
3777.075, 43.60300
3779.004, 44.43850
3780.932, 45.19080
3782.861, 45.03813
3784.789, 44.25068
3786.718, 43.54076
3788.646, 43.25796
3790.575, 43.87148
3792.503, 44.16612
3794.432, 43.86216
3796.360, 43.83502
3798.289, 44.13590
3800.217, 45.27143
3802.146, 45.93321
3804.074, 45.41510
3806.002, 44.22943
3807.931, 42.53156
3809.859, 41.76350
3811.788, 41.90490
3813.716, 43.73680
3815.645, 44.94070
3817.573, 44.46985
3819.502, 44.28562
3821.430, 44.42934
3823.359, 44.27430
3825.287, 44.17567
3827.216, 44.74484
3829.144, 44.88589
3831.073, 44.25913
3833.001, 44.12826
3834.929, 44.29394
3836.858, 44.16466
3838.786, 44.10831
3840.715, 44.39278
3842.643, 44.55224
3844.572, 44.53463
3846.500, 44.66823
3848.429, 44.78033
3850.357, 44.56188
3852.286, 44.44880
3854.214, 44.55383
3856.143, 44.81427
3858.071, 45.21677
3860.000, 46.20153
3861.928, 46.63328
3863.856, 44.99887
3865.785, 44.20543
3867.713, 44.55273
3869.642, 44.89118
3871.570, 45.19520
3873.499, 45.55576
3875.427, 45.75040
3877.356, 45.62118
3879.284, 45.53012
3881.213, 45.50716
3883.141, 45.59294
3885.070, 45.74208
3886.998, 45.90406
3888.927, 46.27565
3890.855, 46.98346
3892.783, 46.59125
3894.712, 45.62325
3896.640, 45.08696
3898.569, 45.14169
3900.497, 45.74759
3902.426, 46.02851
3904.354, 46.17573
3906.283, 46.48706
3908.211, 46.56380
3910.140, 46.29838
3912.068, 46.46170
3913.997, 46.78855
3915.925, 46.54828
3917.854, 46.32812
3919.782, 46.43066
3921.710, 46.20459
3923.639, 45.54063
3925.567, 45.10039
3927.496, 44.99492
3929.424, 45.26585
3931.353, 45.51347
3933.281, 45.87339
3935.210, 46.18262
3937.138, 46.40874
3939.067, 46.74393
3940.995, 46.69546
3942.924, 46.26891
3944.852, 46.38398
3946.781, 46.63210
3948.709, 46.37551
3950.637, 46.41355
3952.566, 46.90637
3954.494, 46.85182
3956.423, 46.55687
3958.351, 46.45700
3960.280, 46.22676
3962.208, 45.85051
3964.137, 46.08506
3966.065, 47.02267
3967.994, 47.45671
3969.922, 47.33326
3971.851, 46.40620
3973.779, 45.93616
3975.708, 46.40285
3977.636, 46.58356
3979.564, 46.89923
3981.493, 47.80376
3983.421, 48.05296
3985.350, 46.77964
3987.278, 46.59991
3989.207, 47.23137
3991.135, 47.55146
3993.064, 47.77635
3994.992, 47.29775
3996.921, 47.01811
3998.849, 47.48143
4000.778, 47.90504
4002.706, 48.05616
4004.635, 48.03899
4006.563, 47.89886
4008.491, 47.54797
4010.420, 47.32517
4012.348, 47.32399
4014.277, 47.69291
4016.205, 47.86474
4018.134, 47.85528
4020.062, 48.28576
4021.991, 48.59626
4023.919, 47.83933
4025.848, 47.49260
4027.776, 48.26129
4029.705, 48.69645
4031.633, 48.84926
4033.562, 48.11111
4035.490, 47.64144
4037.418, 48.40674
4039.347, 48.28012
4041.275, 47.65417
4043.204, 48.15868
4045.132, 48.87152
4047.061, 49.71165
4048.989, 49.49774
4050.918, 48.29177
4052.846, 48.03311
4054.775, 48.25329
4056.703, 48.75761
4058.632, 48.72830
4060.560, 48.47588
4062.489, 48.84863
4064.417, 49.14008
4066.345, 49.24686
4068.274, 49.08467
4070.202, 48.51391
4072.131, 48.10381
4074.059, 48.04865
4075.988, 48.43782
4077.916, 48.82619
4079.845, 49.13983
4081.773, 48.95756
4083.702, 48.91239
4085.630, 49.94855
4087.559, 50.41674
4089.487, 50.12035
4091.416, 50.24641
4093.344, 50.26548
4095.272, 49.22688
4097.201, 48.93305
4099.129, 49.57876
4101.058, 49.58556
4102.986, 49.43607
4104.915, 49.65486
4106.843, 49.82503
4108.772, 49.99826
4110.700, 49.98351
4112.629, 49.70366
4114.557, 49.22824
4116.486, 49.16530
4118.414, 49.50091
4120.343, 48.82701
4122.271, 48.16495
4124.200, 49.13903
4126.128, 49.99579
4128.057, 50.43953
4129.985, 49.88330
4131.914, 48.93788
4133.842, 49.28252
4135.771, 49.87846
4137.699, 50.02342
4139.627, 50.55925
4141.556, 51.16362
4143.484, 51.28809
4145.413, 51.20075
4147.341, 51.10896
4149.270, 51.35697
4151.198, 51.39697
4153.126, 50.80656
4155.055, 50.28058
4156.983, 49.90491
4158.912, 50.18296
4160.840, 50.70787
4162.769, 51.17112
4164.697, 51.47987
4166.626, 51.38678
4168.554, 51.56618
4170.483, 51.85046
4172.411, 51.44764
4174.340, 51.35725
4176.268, 51.90588
4178.197, 51.90160
4180.125, 51.79386
4182.054, 51.90235
4183.982, 51.73244
4185.911, 51.65490
4187.839, 51.60034
4189.768, 51.65586
4191.696, 52.40703
4193.625, 52.69969
4195.553, 52.53318
4197.481, 51.93701
4199.410, 51.16481
4201.338, 51.48389
4203.267, 51.97945
4205.195, 52.36783
4207.124, 52.55500
4209.052, 52.55169
4210.980, 51.78356
4212.909, 51.96865
4214.837, 53.15907
4216.766, 53.08588
4218.694, 52.99016
4220.623, 53.81455
4222.551, 54.00255
4224.480, 53.57030
4226.408, 52.81421
4228.337, 52.12391
4230.265, 51.62578
4232.194, 52.37492
4234.122, 53.77745
4236.051, 53.62902
4237.979, 53.49636
4239.908, 54.33707
4241.836, 53.79000
4243.765, 52.73018
4245.693, 53.70821
4247.622, 54.30714
4249.550, 53.70663
4251.479, 53.62151
4253.407, 53.68621
4255.335, 52.84178
4257.264, 53.25995
4259.192, 55.11943
4261.121, 54.09196
4263.049, 52.89210
4264.978, 55.08024
4266.906, 55.60447
4268.834, 54.34760
4270.763, 53.97734
4272.691, 54.26482
4274.620, 55.18041
4276.548, 55.87500
4278.477, 56.06640
4280.405, 54.65306
4282.334, 53.82704
4284.262, 54.49654
4286.191, 55.24904
4288.119, 55.63416
4290.048, 54.83672
4291.976, 54.18978
4293.905, 54.02663
4295.833, 54.42259
4297.762, 55.03431
4299.690, 55.60674
4301.619, 56.05724
4303.547, 56.22904
4305.476, 55.04160
4307.404, 54.29594
4309.333, 55.16320
4311.261, 56.52787
4313.189, 57.67157
4315.118, 57.12517
4317.046, 56.08073
4318.975, 54.87880
4320.903, 56.04345
4322.832, 57.54868
4324.760, 56.68537
4326.688, 55.40395
4328.617, 54.34219
4330.545, 56.28459
4332.474, 57.94763
4334.402, 56.24498
4336.331, 56.26926
4338.259, 57.21983
4340.188, 56.09373
4342.116, 55.63112
4344.045, 57.02767
4345.973, 57.33879
4347.902, 57.18761
4349.830, 57.13951
4351.759, 57.67553
4353.687, 58.55611
4355.616, 57.11139
4357.544, 55.99840
4359.473, 57.08701
4361.401, 56.73653
4363.330, 55.81130
4365.258, 56.69188
4367.187, 56.97526
4369.115, 56.08815
4371.043, 56.29143
4372.972, 56.81610
4374.900, 57.10799
4376.829, 56.98608
4378.757, 56.64711
4380.686, 57.00700
4382.614, 56.77279
4384.542, 55.51892
4386.471, 56.24182
4388.399, 57.49586
4390.328, 57.30061
4392.256, 57.26218
4394.185, 57.56103
4396.113, 58.05133
4398.042, 58.41088
4399.970, 58.40587
4401.899, 59.05584
4403.827, 59.68617
4405.756, 58.86415
4407.684, 58.56479
4409.613, 59.04641
4411.541, 59.16475
4413.470, 58.87182
4415.398, 57.90775
4417.327, 57.31726
4419.255, 57.26355
4421.184, 58.47393
4423.112, 58.90462
4425.041, 58.17040
4426.969, 58.11155
4428.897, 58.06384
4430.826, 57.49214
4432.754, 58.20423
4434.683, 59.20780
4436.611, 57.72093
4438.540, 57.33015
4440.468, 58.56576
4442.396, 59.69321
4444.325, 60.17317
4446.253, 59.54279
4448.182, 58.81269
4450.110, 58.14891
4452.039, 57.63319
4453.967, 57.50206
4455.896, 57.82068
4457.824, 58.96540
4459.753, 59.61409
4461.681, 58.55200
4463.610, 59.12759
4465.538, 60.27501
4467.467, 59.91760
4469.395, 59.33856
4471.324, 58.85043
4473.252, 58.83236
4475.181, 58.90724
4477.109, 58.88391
4479.038, 58.94568
4480.966, 59.12601
4482.895, 59.46992
4484.823, 59.95445
4486.751, 60.39962
4488.680, 60.11836
4490.608, 59.39722
4492.537, 58.06280
4494.465, 58.96523
4496.394, 60.28381
4498.322, 60.14281
4500.250, 60.57489
4502.179, 61.15971
4504.107, 59.65066
4506.036, 58.95910
4507.964, 59.64301
4509.893, 60.49080
4511.821, 60.96094
4513.750, 60.51320
4515.678, 61.09151
4517.607, 61.86499
4519.535, 61.25354
4521.464, 60.32615
4523.392, 59.43354
4525.321, 59.78964
4527.249, 60.10398
4529.178, 59.89021
4531.106, 59.53849
4533.035, 59.34258
4534.963, 59.48368
4536.892, 60.55108
4538.820, 61.65459
4540.749, 60.59034
4542.677, 59.68599
4544.605, 59.47894
4546.534, 60.01814
4548.462, 60.41573
4550.391, 60.06183
4552.319, 61.12702
4554.248, 61.97529
4556.176, 60.56025
4558.104, 60.06250
4560.033, 60.38024
4561.961, 60.48851
4563.890, 60.51575
4565.818, 60.47411
4567.747, 60.06137
4569.675, 59.89067
4571.604, 60.52663
4573.532, 60.00735
4575.461, 59.66747
4577.389, 61.28080
4579.318, 61.47783
4581.246, 60.64501
4583.175, 60.10535
4585.103, 60.11235
4587.032, 60.55174
4588.960, 60.40185
4590.889, 60.72542
4592.817, 62.37008
4594.746, 61.60426
4596.674, 60.07644
4598.603, 58.93614
4600.531, 59.53645
4602.459, 60.86862
4604.388, 61.30883
4606.316, 61.20926
4608.245, 60.81935
4610.173, 60.69112
4612.102, 60.68532
4614.030, 60.75750
4615.958, 61.21697
4617.887, 61.33234
4619.815, 60.55464
4621.744, 61.27999
4623.672, 62.63315
4625.601, 64.03747
4627.529, 63.06749
4629.458, 60.99844
4631.386, 60.83544
4633.315, 60.74065
4635.243, 60.55529
4637.172, 61.76503
4639.100, 62.14748
4641.029, 61.14639
4642.957, 61.11180
4644.886, 61.58974
4646.814, 62.34548
4648.743, 62.28043
4650.671, 61.96720
4652.600, 62.16503
4654.528, 61.95729
4656.457, 61.58753
4658.385, 61.60153
4660.313, 61.80452
4662.242, 61.95324
4664.170, 61.23377
4666.099, 60.71419
4668.027, 60.66494
4669.956, 60.79187
4671.884, 60.37279
4673.813, 59.02030
4675.741, 59.18594
4677.669, 60.17295
4679.598, 61.59053
4681.526, 62.08528
4683.455, 61.71379
4685.383, 60.16257
4687.312, 59.74137
4689.240, 60.02561
4691.169, 59.80492
4693.097, 60.01591
4695.026, 60.65474
4696.954, 61.47158
4698.883, 61.85011
4700.811, 61.73259
4702.740, 61.92677
4704.668, 61.87092
4706.597, 61.35465
4708.525, 60.93622
4710.454, 60.41694
4712.382, 59.64054
4714.311, 60.99115
4716.239, 62.43768
4718.167, 61.72777
4720.096, 61.48893
4722.024, 61.68733
4723.953, 62.40879
4725.881, 61.71557
4727.810, 60.41179
4729.738, 60.18669
4731.667, 60.34388
4733.595, 60.82827
4735.523, 62.20199
4737.452, 62.60773
4739.380, 62.01039
4741.309, 62.15627
4743.237, 61.85505
4745.166, 60.92799
4747.094, 61.65294
4749.023, 61.84791
4750.951, 60.62964
4752.880, 61.85099
4754.808, 62.76009
4756.737, 61.91711
4758.665, 61.38781
4760.594, 61.16705
4762.522, 61.31871
4764.451, 60.59645
4766.379, 59.92196
4768.308, 60.14340
4770.236, 61.29262
4772.165, 62.41262
4774.093, 62.25779
4776.021, 61.65646
4777.950, 61.16665
4779.878, 61.63596
4781.807, 62.30931
4783.735, 62.77532
4785.664, 62.14397
4787.592, 62.34754
4789.521, 62.98893
4791.449, 61.75557
4793.377, 61.22868
4795.306, 61.59626
4797.234, 61.93804
4799.163, 61.93102
4801.091, 61.59786
4803.020, 61.39349
4804.948, 61.43191
4806.877, 61.63018
4808.805, 60.87138
4810.734, 61.28391
4812.662, 63.36047
4814.591, 62.59153
4816.519, 62.51110
4818.448, 64.21534
4820.376, 63.31372
4822.305, 61.81969
4824.233, 60.73658
4826.162, 61.44895
4828.090, 62.69079
4830.019, 63.77030
4831.947, 62.41291
4833.875, 61.01155
4835.804, 60.96265
4837.732, 62.86731
4839.661, 63.81941
4841.589, 61.87906
4843.518, 62.73128
4845.446, 63.66351
4847.375, 62.35868
4849.303, 63.14412
4851.231, 63.70528
4853.160, 62.08155
4855.088, 62.86244
4857.017, 63.86583
4858.945, 63.12254
4860.874, 61.61459
4862.802, 60.89526
4864.731, 62.37820
4866.659, 61.77056
4868.588, 60.80193
4870.516, 61.30139
4872.445, 62.05653
4874.373, 62.11007
4876.302, 60.49362
4878.230, 61.73576
4880.159, 63.34701
4882.087, 62.43158
4884.016, 62.10392
4885.944, 62.71460
4887.873, 64.64748
4889.801, 64.09558
4891.729, 62.82078
4893.658, 62.57079
4895.586, 62.85452
4897.515, 63.36731
4899.443, 63.90002
4901.372, 63.99296
4903.300, 64.11252
4905.229, 64.95284
4907.157, 63.49225
4909.085, 61.92114
4911.014, 61.77209
4912.942, 61.91488
4914.871, 61.93327
4916.799, 61.56940
4918.728, 61.06284
4920.656, 61.34663
4922.585, 62.96284
4924.513, 63.39863
4926.442, 62.76888
4928.370, 61.23785
4930.299, 61.58235
4932.227, 62.22017
4934.156, 62.29533
4936.084, 62.55287
4938.013, 62.61598
4939.941, 62.35191
4941.870, 61.83845
4943.798, 61.63499
4945.727, 61.90617
4947.655, 61.80784
4949.583, 61.76305
4951.512, 62.01848
4953.440, 63.72057
4955.369, 63.89165
4957.297, 62.40853
4959.226, 63.02710
4961.154, 63.29978
4963.083, 63.00520
4965.011, 63.39962
4966.939, 63.53785
4968.868, 63.54368
4970.796, 64.54143
4972.725, 64.18288
4974.653, 63.06467
4976.582, 63.03285
4978.510, 62.92519
4980.439, 62.72997
4982.367, 62.49669
4984.296, 63.14012
4986.224, 63.83630
4988.153, 63.56152
4990.081, 63.61285
4992.010, 63.54645
4993.938, 62.80082
4995.867, 62.41877
4997.795, 62.27987
4999.724, 62.26167
5001.652, 62.91062
5003.581, 62.76227
5005.509, 61.37341
5007.438, 62.92844
5009.366, 63.63393
5011.294, 62.25270
5013.223, 62.10556
5015.151, 62.36082
5017.080, 62.66418
5019.008, 62.72641
5020.937, 62.17575
5022.865, 61.56448
5024.793, 62.94857
5026.722, 63.24630
5028.650, 62.69287
5030.579, 62.37130
5032.507, 62.75134
5034.436, 63.19711
5036.364, 62.66553
5038.293, 63.08628
5040.221, 63.73814
5042.150, 64.02195
5044.078, 64.51594
5046.007, 64.28076
5047.935, 62.90131
5049.864, 62.71767
5051.792, 62.70332
5053.721, 62.44410
5055.649, 62.00738
5057.578, 61.89746
5059.506, 62.06597
5061.435, 61.93345
5063.363, 62.14728
5065.292, 62.67759
5067.220, 63.52138
5069.148, 63.40044
5071.077, 62.77118
5073.005, 62.23289
5074.934, 62.59134
5076.862, 62.93681
5078.791, 62.46906
5080.719, 62.22414
5082.647, 62.68748
5084.576, 63.84243
5086.504, 63.58164
5088.433, 63.62728
5090.361, 64.10187
5092.290, 63.39003
5094.218, 63.03191
5096.147, 62.98743
5098.075, 62.48310
5100.004, 62.65028
5101.932, 63.25191
5103.861, 63.92730
5105.789, 64.36491
5107.718, 64.38084
5109.646, 63.79367
5111.575, 64.46338
5113.503, 63.95535
5115.432, 61.91765
5117.360, 61.04054
5119.289, 61.30669
5121.217, 62.29480
5123.146, 63.21693
5125.074, 63.48886
5127.002, 63.58028
5128.931, 64.34660
5130.859, 62.30602
5132.788, 60.77386
5134.716, 62.34027
5136.645, 62.84285
5138.573, 63.31061
5140.501, 64.09748
5142.430, 64.03614
5144.358, 63.91033
5146.287, 63.85567
5148.215, 63.73656
5150.144, 63.48250
5152.072, 63.57526
5154.001, 65.15022
5155.929, 63.96276
5157.858, 63.33709
5159.786, 65.01817
5161.715, 63.92937
5163.643, 63.00576
5165.572, 63.11562
5167.500, 63.32214
5169.429, 63.72406
5171.357, 64.20393
5173.286, 64.63063
5175.214, 64.10594
5177.143, 63.68104
5179.071, 64.26053
5181.000, 65.20686
5182.928, 65.21223
5184.856, 63.96399
5186.785, 63.06354
5188.713, 62.34383
5190.642, 62.17913
5192.570, 63.65321
5194.499, 64.10530
5196.427, 63.70026
5198.355, 62.68739
5200.284, 63.43044
5202.212, 64.20399
5204.141, 64.33816
5206.069, 65.07710
5207.998, 66.06888
5209.926, 66.61591
5211.855, 65.00661
5213.783, 64.74641
5215.712, 65.14882
5217.640, 65.48557
5219.569, 64.49417
5221.497, 63.44542
5223.426, 63.03195
5225.354, 64.26698
5227.283, 65.05313
5229.211, 65.12434
5231.140, 64.60965
5233.068, 64.25681
5234.997, 64.45124
5236.925, 65.40121
5238.854, 64.54426
5240.782, 63.76165
5242.710, 63.75726
5244.639, 65.04538
5246.567, 64.41198
5248.496, 63.24879
5250.424, 64.30724
5252.353, 64.15862
5254.281, 64.91816
5256.209, 67.13770
5258.138, 64.91705
5260.066, 64.09807
5261.995, 64.84704
5263.923, 64.15944
5265.852, 64.23632
5267.780, 64.30119
5269.709, 63.54996
5271.637, 62.85672
5273.566, 63.04651
5275.494, 63.85841
5277.423, 63.36872
5279.351, 63.49739
5281.280, 63.96526
5283.208, 64.35310
5285.137, 62.98193
5287.065, 62.43498
5288.994, 63.48220
5290.922, 63.55870
5292.851, 62.92217
5294.779, 62.46883
5296.708, 63.57370
5298.636, 64.27447
5300.564, 65.10549
5302.493, 66.23342
5304.421, 63.25409
5306.350, 63.33500
5308.278, 65.47153
5310.207, 64.49403
5312.135, 63.77927
5314.063, 63.90117
5315.992, 64.87877
5317.920, 63.85052
5319.849, 63.56873
5321.777, 64.12994
5323.706, 64.06570
5325.634, 62.91034
5327.563, 63.19169
5329.491, 66.17482
5331.420, 64.86452
5333.348, 64.16255
5335.277, 64.84851
5337.205, 65.28896
5339.134, 65.05827
5341.062, 64.36094
5342.991, 63.44532
5344.919, 63.59352
5346.848, 63.27605
5348.776, 62.73261
5350.705, 63.40269
5352.633, 64.51312
5354.562, 64.78522
5356.490, 63.47430
5358.418, 63.63907
5360.347, 63.17227
5362.275, 62.60310
5364.204, 63.97526
5366.132, 64.81419
5368.061, 64.96262
5369.989, 64.54288
5371.917, 63.83357
5373.846, 63.19401
5375.774, 62.91644
5377.703, 63.33104
5379.631, 64.47143
5381.560, 64.45352
5383.488, 63.00856
5385.417, 63.27895
5387.345, 62.56034
5389.274, 62.00176
5391.202, 63.50728
5393.131, 62.96578
5395.059, 62.67096
5396.988, 63.02509
5398.916, 62.12175
5400.845, 62.20685
5402.773, 63.11507
5404.702, 64.35989
5406.630, 64.97923
5408.559, 64.53907
5410.487, 63.53384
5412.416, 62.88116
5414.344, 63.32663
5416.272, 63.86814
5418.201, 63.94094
5420.129, 63.17409
5422.058, 63.89556
5423.986, 64.22408
5425.915, 61.81002
5427.843, 61.82587
5429.771, 62.39714
5431.700, 62.88340
5433.628, 64.08657
5435.557, 63.72884
5437.485, 63.10341
5439.414, 63.20433
5441.342, 64.39845
5443.271, 64.49987
5445.199, 63.47264
5447.128, 61.84738
5449.056, 62.83689
5450.985, 64.07420
5452.913, 64.47207
5454.842, 63.48554
5456.770, 64.36907
5458.699, 65.32404
5460.627, 64.93587
5462.556, 63.07519
5464.484, 62.46714
5466.413, 63.18447
5468.341, 64.58131
5470.270, 64.64767
5472.198, 63.99102
5474.126, 63.33120
5476.055, 64.11630
5477.983, 62.93073
5479.912, 62.48142
5481.840, 63.88524
5483.769, 63.14295
5485.697, 62.03026
5487.625, 61.74601
5489.554, 62.96362
5491.482, 63.74468
5493.411, 64.09717
5495.339, 64.14676
5497.268, 64.01289
5499.196, 64.17937
5501.125, 63.19273
5503.053, 61.72199
5504.982, 64.70928
5506.910, 64.66024
5508.839, 64.02330
5510.767, 64.64933
5512.696, 63.98731
5514.624, 62.65890
5516.553, 61.94444
5518.481, 62.90039
5520.410, 63.52055
5522.338, 64.20403
5524.267, 64.59399
5526.195, 63.96824
5528.124, 61.23934
5530.052, 61.51551
5531.980, 64.14614
5533.909, 62.78779
5535.837, 62.63622
5537.766, 62.95214
5539.694, 62.97762
5541.623, 62.55829
5543.551, 62.60510
5545.479, 62.62661
5547.408, 62.29535
5549.336, 63.89146
5551.265, 62.96018
5553.193, 62.20209
5555.122, 64.95658
5557.050, 63.64639
5558.979, 63.75257
5560.907, 64.80027
5562.836, 64.27962
5564.764, 62.96660
5566.693, 62.34886
5568.621, 62.45612
5570.550, 62.30407
5572.478, 63.01670
5574.407, 64.04440
5576.335, 64.66435
5578.264, 63.42693
5580.192, 63.71501
5582.121, 63.51411
5584.049, 62.53207
5585.978, 64.07412
5587.906, 62.52037
5589.834, 61.57121
5591.763, 63.09066
5593.691, 63.41335
5595.620, 63.25334
5597.548, 63.13745
5599.477, 63.26917
5601.405, 63.00728
5603.333, 62.48291
5605.262, 62.07673
5607.190, 62.10192
5609.119, 62.77943
5611.047, 63.42188
5612.976, 63.95539
5614.904, 64.31780
5616.833, 63.45797
5618.761, 61.72158
5620.690, 60.65936
5622.618, 61.58526
5624.547, 61.30413
5626.475, 62.08540
5628.404, 63.35485
5630.332, 63.86493
5632.261, 64.04031
5634.189, 63.21151
5636.118, 62.16159
5638.046, 61.97303
5639.975, 63.36788
5641.903, 63.43449
5643.832, 62.54236
5645.760, 61.95509
5647.688, 62.54591
5649.617, 62.45462
5651.545, 62.16570
5653.474, 62.84467
5655.402, 62.80265
5657.331, 61.94495
5659.259, 61.79090
5661.188, 64.09628
5663.116, 62.24158
5665.044, 61.36644
5666.973, 61.60775
5668.901, 61.72636
5670.830, 62.45783
5672.758, 61.35608
5674.687, 60.42091
5676.615, 61.88493
5678.544, 63.75412
5680.472, 62.72078
5682.401, 60.80560
5684.329, 60.38281
5686.258, 61.06850
5688.186, 61.06721
5690.115, 61.18261
5692.043, 62.15721
5693.972, 61.94403
5695.900, 62.54052
5697.829, 62.89210
5699.757, 62.11531
5701.686, 60.73442
5703.614, 60.00831
5705.542, 60.59326
5707.471, 61.94617
5709.399, 60.51731
5711.328, 62.42288
5713.256, 62.66346
5715.185, 60.24903
5717.113, 61.42414
5719.042, 62.28048
5720.970, 62.44796
5722.898, 62.14580
5724.827, 61.88504
5726.755, 61.37171
5728.684, 61.65564
5730.612, 62.11749
5732.541, 61.33439
5734.469, 61.05157
5736.398, 60.73918
5738.326, 61.02231
5740.255, 62.40052
5742.183, 59.73723
5744.112, 60.67369
5746.040, 62.04390
5747.969, 60.56190
5749.897, 61.84452
5751.826, 61.89267
5753.754, 61.72748
5755.683, 61.95607
5757.611, 60.33669
5759.540, 60.72357
5761.468, 60.28313
5763.396, 59.27092
5765.325, 61.75687
5767.253, 62.15633
5769.182, 60.71357
5771.110, 59.31614
5773.039, 60.06683
5774.967, 61.79158
5776.896, 61.51853
5778.824, 60.55148
5780.752, 60.65977
5782.681, 61.43469
5784.609, 61.70324
5786.538, 62.53506
5788.466, 63.88839
5790.395, 62.02263
5792.323, 60.92677
5794.252, 60.68040
5796.180, 60.93976
5798.109, 61.44386
5800.037, 60.77530
5801.966, 60.35860
5803.894, 60.15903
5805.823, 59.77210
5807.751, 61.43475
5809.680, 60.83045
5811.608, 59.84924
5813.537, 59.73372
5815.465, 57.62840
5817.394, 59.14110
5819.322, 60.50908
5821.250, 60.34666
5823.179, 59.87311
5825.107, 58.15883
5827.036, 58.63482
5828.964, 59.48883
5830.893, 58.42659
5832.821, 60.13390
5834.750, 60.97629
5836.678, 60.62865
5838.606, 59.93480
5840.535, 61.45638
5842.463, 60.31775
5844.392, 59.64618
5846.320, 60.18775
5848.249, 61.22728
5850.177, 60.67892
5852.106, 59.87758
5854.034, 58.66985
5855.963, 57.45482
5857.891, 59.01862
5859.820, 59.88129
5861.748, 60.04038
5863.677, 59.56138
5865.605, 58.40065
5867.534, 59.64596
5869.462, 58.99419
5871.391, 58.27324
5873.319, 59.29380
5875.248, 60.33815
5877.176, 60.86833
5879.104, 59.94484
5881.033, 58.89299
5882.961, 60.54969
5884.890, 59.71770
5886.818, 59.19637
5888.747, 59.28705
5890.675, 59.44000
5892.604, 58.51316
5894.532, 57.22720
5896.460, 58.52691
5898.389, 60.57695
5900.317, 58.87279
5902.246, 59.06704
5904.174, 58.22260
5906.103, 58.25243
5908.031, 59.56922
5909.960, 57.91314
5911.888, 58.97707
5913.817, 59.62665
5915.745, 58.66644
5917.674, 56.72139
5919.602, 58.20068
5921.531, 57.94353
5923.459, 56.91994
5925.388, 56.72512
5927.316, 58.30781
5929.245, 57.40350
5931.173, 57.51667
5933.102, 58.22106
5935.030, 58.39345
5936.958, 58.02922
5938.887, 58.05828
5940.815, 58.14473
5942.744, 58.37574
5944.672, 58.98576
5946.601, 58.98442
5948.529, 57.45510
5950.458, 58.39354
5952.386, 58.89519
5954.314, 58.98352
5956.243, 57.42046
5958.171, 57.98981
5960.100, 57.70456
5962.028, 57.38431
5963.957, 58.25373
5965.885, 56.93090
5967.814, 57.78146
5969.742, 57.76445
5971.671, 58.14451
5973.599, 57.66475
5975.528, 57.45054
5977.456, 58.09646
5979.385, 58.26612
5981.313, 57.68737
5983.242, 58.09266
5985.170, 56.73979
5987.099, 56.92971
5989.027, 57.78535
5990.956, 57.24981
5992.884, 57.67085
5994.813, 57.72755
5996.741, 56.12867
5998.669, 57.40907
6000.598, 57.44424
6002.526, 56.20091
6004.455, 57.38261
6006.383, 56.31555
6008.312, 56.05112
6010.240, 56.39081
6012.168, 56.10078
6014.097, 56.80354
6016.025, 56.19257
6017.954, 57.76946
6019.882, 56.93524
6021.811, 55.36554
6023.739, 55.96812
6025.668, 57.20860
6027.596, 56.80037
6029.525, 56.23497
6031.453, 55.30483
6033.382, 57.06239
6035.310, 58.81243
6037.239, 56.88324
6039.167, 54.10002
6041.096, 55.79676
6043.024, 57.46027
6044.953, 56.73130
6046.881, 54.21982
6048.810, 56.67982
6050.738, 55.38643
6052.667, 55.96765
6054.595, 57.86744
6056.523, 57.34766
6058.452, 54.84009
6060.380, 55.61164
6062.309, 55.66092
6064.237, 55.35424
6066.166, 56.80886
6068.094, 55.85884
6070.022, 55.15508
6071.951, 55.02816
6073.879, 55.41433
6075.808, 56.06051
6077.736, 55.82967
6079.665, 55.90154
6081.593, 54.63566
6083.522, 53.54505
6085.450, 54.20224
6087.379, 54.64127
6089.307, 55.22152
6091.236, 55.49697
6093.164, 55.20717
6095.093, 54.45149
6097.021, 53.47760
6098.950, 55.22858
6100.878, 54.85547
6102.807, 54.88226
6104.735, 56.68984
6106.664, 57.41684
6108.592, 52.31351
6110.521, 53.04517
6112.449, 54.74149
6114.377, 54.24916
6116.306, 53.72755
6118.234, 54.85558
6120.163, 53.78999
6122.091, 53.17019
6124.020, 53.62005
6125.948, 53.83037
6127.876, 52.44553
6129.805, 53.90403
6131.733, 53.94971
6133.662, 53.49492
6135.590, 54.51605
6137.519, 54.42220
6139.447, 54.42060
6141.376, 54.52878
6143.304, 54.46958
6145.233, 54.07629
6147.161, 53.26900
6149.090, 53.20956
6151.018, 52.76336
6152.947, 53.55533
6154.875, 54.96714
6156.804, 54.80778
6158.732, 53.61689
6160.661, 53.60715
6162.589, 53.70982
6164.518, 54.23258
6166.446, 55.01329
6168.375, 52.06128
6170.303, 53.71604
6172.231, 53.76078
6174.160, 52.47579
6176.088, 51.52179
6178.017, 51.71426
6179.945, 52.94230
6181.874, 54.35303
6183.802, 54.18147
6185.730, 52.96589
6187.659, 52.34837
6189.587, 54.77620
6191.516, 54.30561
6193.444, 53.62289
6195.373, 52.76804
6197.301, 51.98584
6199.230, 52.53316
6201.158, 53.90767
6203.087, 53.26711
6205.015, 52.91652
6206.944, 53.77372
6208.872, 54.80798
6210.801, 52.42117
6212.729, 51.82570
6214.658, 51.68947
6216.586, 50.95478
6218.515, 50.87591
6220.443, 52.97241
6222.372, 51.82784
6224.300, 52.02477
6226.229, 52.12619
6228.157, 51.55628
6230.085, 51.37367
6232.014, 53.39968
6233.942, 52.85589
6235.871, 51.10265
6237.799, 50.29694
6239.728, 51.05236
6241.656, 52.34939
6243.584, 51.79009
6245.513, 51.84426
6247.441, 50.39118
6249.370, 50.63287
6251.298, 52.35912
6253.227, 52.72788
6255.155, 50.16105
6257.084, 51.13306
6259.012, 51.66826
6260.941, 51.79012
6262.869, 50.26064
6264.798, 50.86351
6266.726, 50.61184
6268.655, 50.32513
6270.583, 51.22813
6272.512, 49.93882
6274.440, 50.82297
6276.369, 50.83950
6278.297, 51.25313
6280.226, 50.80690
6282.154, 50.62627
6284.083, 51.30573
6286.011, 51.50895
6287.939, 50.96377
6289.868, 51.40261
6291.796, 50.08329
6293.725, 50.30678
6295.653, 51.19596
6297.582, 50.69399
6299.510, 51.14857
6301.438, 51.23885
6303.367, 49.67350
6305.295, 50.98745
6307.224, 51.05619
6309.152, 49.84640
6311.081, 51.06167
6313.009, 50.02814
6314.938, 49.79729
6316.866, 50.22860
6318.795, 51.17519
6320.723, 51.68497
6322.652, 51.78140
6324.580, 50.22650
6326.509, 50.80396
6328.437, 50.52686
6330.366, 50.21471
6332.294, 51.09231
6334.223, 49.77757
6336.151, 50.63631
6338.080, 50.62741
6340.008, 51.01562
6341.937, 50.54396
6343.865, 50.33791
6345.793, 50.99198
6347.722, 51.16976
6349.650, 50.59916
6351.579, 51.01258
6353.507, 49.66785
6355.436, 49.86591
6357.364, 50.72968
6359.292, 50.20230
6361.221, 50.63144
6363.149, 50.69632
6365.078, 49.10555
6367.006, 50.39408
6368.935, 50.43739
6370.863, 49.20220
6372.792, 50.39204
6374.720, 49.33310
6376.649, 49.07683
6378.577, 49.42465
6380.506, 50.33596
6382.434, 48.79331
6384.363, 48.08229
6386.291, 48.11645
6388.220, 48.01394
6390.148, 49.09067
6392.077, 49.96834
6394.005, 49.22715
6395.934, 48.01344
6397.862, 49.46025
6399.791, 49.80371
6401.719, 49.79177
6403.647, 48.86655
6405.576, 48.55550
6407.504, 50.17868
6409.433, 48.78864
6411.361, 48.17019
6413.290, 47.99084
6415.218, 48.53781
6417.146, 49.56973
6419.075, 49.81090
6421.003, 47.96728
6422.932, 47.57600
6424.860, 49.05327
6426.789, 48.33668
6428.717, 48.47579
6430.646, 48.62041
6432.574, 47.24121
6434.503, 46.70937
6436.431, 49.22554
6438.360, 48.03351
6440.288, 46.44859
6442.217, 46.54624
6444.145, 47.76587
6446.074, 48.49950
6448.002, 47.61724
6449.931, 47.46278
6451.859, 48.80824
6453.788, 48.16083
6455.716, 47.70134
6457.645, 47.61769
6459.573, 46.67347
6461.501, 47.97071
6463.430, 47.74331
6465.358, 47.82385
6467.287, 46.31646
6469.215, 45.70745
6471.144, 46.26509
6473.072, 46.19090
6475.000, 46.02300
6476.929, 46.70083
6478.857, 47.90704
6480.786, 47.83152
6482.714, 45.35910
6484.643, 44.81347
6486.571, 48.20583
6488.500, 46.56211
6490.428, 46.11937
6492.357, 47.69200
6494.285, 46.51493
6496.214, 45.55254
6498.142, 46.80001
6500.071, 48.06429
6501.999, 45.44867
6503.928, 44.25958
6505.856, 44.96322
6507.785, 44.86991
6509.713, 45.22630
6511.642, 46.78721
6513.570, 47.00367
6515.499, 43.76862
6517.427, 45.18319
6519.355, 45.73359
6521.284, 46.93132
6523.212, 45.88258
6525.141, 45.01738
6527.069, 45.41874
6528.998, 45.51335
6530.926, 44.78148
6532.854, 44.29374
6534.783, 45.70092
6536.711, 44.55322
6538.640, 45.23306
6540.568, 46.88731
6542.497, 46.10959
6544.425, 43.46109
6546.354, 42.76861
6548.282, 47.40199
6550.211, 45.30066
6552.139, 43.67597
6554.068, 44.08800
6555.996, 44.93171
6557.925, 44.83641
6559.853, 41.98500
6561.782, 42.65051
6563.710, 44.67473
6565.639, 44.08602
6567.567, 44.71580
6569.496, 45.50744
6571.424, 45.09991
6573.353, 44.30470
6575.281, 43.22795
6577.209, 42.89626
6579.138, 44.11354
6581.066, 42.70093
6582.995, 41.91398
6584.923, 42.89500
6586.852, 43.43921
6588.780, 43.57008
6590.708, 42.04960
6592.637, 42.66149
6594.565, 42.41883
6596.494, 42.14112
6598.422, 43.05313
6600.351, 41.77284
6602.279, 42.66599
6604.208, 42.69154
6606.136, 43.11417
6608.065, 42.67696
6609.993, 42.50533
6611.922, 44.10325
6613.850, 42.95495
6615.779, 41.00587
6617.707, 41.44906
6619.636, 43.56317
6621.564, 43.62556
6623.493, 42.53679
6625.421, 42.79632
6627.350, 42.90350
6629.278, 43.48497
##END=



