##NAMES=Fluellite
##RRUFFID=R070473
##IDEAL CHEMISTRY=Al_2_(PO_4_)F_2_(OH)·7H_2_O
##LOCALITY=Gold Quarry mine (Maggie claims), Maggie Creek District, Eureka County, Nevada, USA
##OWNER=RRUFF
##SOURCE=Michael Scott
##DESCRIPTION=Colorless to pale green blocky prismatic crystals
##STATUS=The identification of this mineral has been confirmed by single-crystal X-ray diffraction
##URL=https://www.rruff.net/odr/rruff_sample/R070473
##DIFFRACTION SAMPLE DESCRIPTION=Single crystal, powder profile is calculated
##CELL PARAMETERS=a: 8.564 b: 11.222 c: 21.162 alpha: 90 beta: 90 gamma: 90 volume: 2033 crystal system: orthorhombic
##FILETYPE=Raman RAW
##RAMAN WAVELENGTH=532

85.75506, 57.94987
87.68353, 63.78141
89.61199, 67.20451
91.54046, 63.41156
93.46893, 55.05788
95.39739, 54.07687
97.32586, 66.57300
99.25433, 81.67599
101.1828, 92.29830
103.1113, 97.07198
105.0397, 102.5989
106.9682, 110.6336
108.8967, 121.3269
110.8251, 131.9688
112.7536, 137.4443
114.6821, 145.8376
116.6105, 162.4404
118.5390, 193.8141
120.4675, 227.3273
122.3959, 260.6384
124.3244, 293.8580
126.2529, 329.0797
128.1813, 365.9450
130.1098, 405.4914
132.0383, 450.0041
133.9667, 497.9649
135.8952, 551.8334
137.8237, 615.2884
139.7521, 689.0346
141.6806, 759.4672
143.6091, 824.7273
145.5375, 883.6185
147.4660, 935.9359
149.3945, 949.6443
151.3229, 945.4429
153.2514, 938.9901
155.1799, 927.7928
157.1083, 921.7022
159.0368, 917.3707
160.9653, 918.1183
162.8937, 928.4332
164.8222, 956.7370
166.7507, 985.8134
168.6791, 1009.476
170.6076, 1027.989
172.5361, 1044.840
174.4645, 1058.930
176.3930, 1071.578
178.3215, 1087.089
180.2499, 1109.038
182.1784, 1130.543
184.1069, 1147.656
186.0353, 1160.504
187.9638, 1172.002
189.8923, 1184.516
191.8207, 1196.791
193.7492, 1203.038
195.6777, 1203.337
197.6061, 1198.363
199.5346, 1188.037
201.4631, 1170.314
203.3915, 1153.567
205.3200, 1138.567
207.2485, 1125.665
209.1769, 1113.893
211.1054, 1105.835
213.0338, 1095.551
214.9623, 1079.978
216.8908, 1050.859
218.8192, 1027.741
220.7477, 1014.017
222.6762, 1006.477
224.6046, 998.7574
226.5331, 990.9371
228.4616, 982.6534
230.3900, 973.5421
232.3185, 964.0382
234.2470, 953.9504
236.1754, 940.7750
238.1039, 926.6810
240.0324, 918.0986
241.9608, 919.2224
243.8893, 922.2352
245.8178, 923.4745
247.7462, 922.6030
249.6747, 924.3495
251.6032, 931.4900
253.5316, 941.5884
255.4601, 950.6794
257.3886, 954.5306
259.3170, 961.5488
261.2455, 976.0782
263.1740, 998.4852
265.1024, 1019.932
267.0309, 1034.832
268.9594, 1049.094
270.8878, 1073.669
272.8163, 1116.424
274.7448, 1155.176
276.6732, 1182.655
278.6017, 1197.825
280.5302, 1205.641
282.4586, 1205.618
284.3871, 1199.664
286.3156, 1188.537
288.2440, 1169.820
290.1725, 1150.124
292.1010, 1131.542
294.0294, 1114.247
295.9579, 1098.574
297.8864, 1087.058
299.8148, 1075.531
301.7433, 1060.545
303.6718, 1038.281
305.6003, 1021.823
307.5287, 1016.110
309.4572, 1018.556
311.3857, 1016.590
313.3141, 1006.967
315.2426, 996.5137
317.1711, 988.9076
319.0995, 987.3063
321.0280, 982.6381
322.9565, 971.6006
324.8849, 956.7197
326.8134, 945.8330
328.7419, 940.4248
330.6703, 938.2508
332.5988, 939.6183
334.5273, 946.2959
336.4557, 944.6271
338.3842, 925.1816
340.3127, 901.7720
342.2411, 887.7983
344.1696, 892.3787
346.0981, 893.1741
348.0265, 882.2424
349.9550, 862.8706
351.8835, 850.1582
353.8119, 848.2638
355.7404, 848.4760
357.6689, 846.8347
359.5973, 842.0862
361.5258, 836.6458
363.4543, 829.8846
365.3827, 823.1805
367.3112, 817.8165
369.2397, 814.8867
371.1681, 812.2614
373.0966, 808.2848
375.0251, 802.2683
376.9535, 796.7700
378.8820, 793.4379
380.8105, 790.3284
382.7389, 786.3569
384.6674, 779.1888
386.5959, 778.6329
388.5243, 788.8405
390.4528, 803.4673
392.3813, 809.6991
394.3097, 802.2748
396.2382, 797.1248
398.1666, 799.2280
400.0951, 812.1768
402.0236, 821.9457
403.9520, 825.6813
405.8805, 826.9590
407.8090, 831.5405
409.7374, 841.6924
411.6659, 851.8052
413.5944, 857.7908
415.5228, 859.6322
417.4513, 861.3809
419.3798, 864.8188
421.3082, 867.2114
423.2367, 865.9915
425.1652, 860.4183
427.0936, 857.7248
429.0221, 862.8344
430.9506, 868.7068
432.8790, 866.4732
434.8075, 852.4650
436.7360, 842.9712
438.6644, 846.7729
440.5929, 860.7475
442.5214, 870.2812
444.4498, 870.7344
446.3783, 871.3799
448.3068, 874.5817
450.2352, 879.4240
452.1637, 886.0269
454.0922, 900.1414
456.0206, 919.9843
457.9491, 939.7202
459.8776, 955.7886
461.8060, 967.5151
463.7345, 977.4564
465.6630, 985.6096
467.5914, 990.6848
469.5199, 989.3419
471.4484, 988.5025
473.3768, 989.9371
475.3053, 993.5220
477.2338, 1000.254
479.1622, 1014.103
481.0907, 1033.270
483.0192, 1054.921
484.9476, 1077.548
486.8761, 1105.411
488.8046, 1135.701
490.7330, 1167.540
492.6615, 1202.867
494.5900, 1247.509
496.5184, 1300.990
498.4469, 1355.967
500.3754, 1409.654
502.3038, 1470.112
504.2323, 1547.000
506.1608, 1633.760
508.0892, 1726.528
510.0177, 1822.668
511.9462, 1924.305
513.8746, 2033.540
515.8031, 2142.260
517.7316, 2244.539
519.6600, 2343.323
521.5885, 2423.558
523.5170, 2478.268
525.4454, 2507.124
527.3739, 2515.784
529.3024, 2491.557
531.2308, 2435.957
533.1593, 2353.048
535.0878, 2252.902
537.0162, 2144.790
538.9447, 2034.962
540.8732, 1922.686
542.8016, 1804.945
544.7301, 1683.884
546.6586, 1587.684
548.5870, 1521.870
550.5155, 1473.355
552.4440, 1432.406
554.3724, 1396.047
556.3009, 1367.593
558.2294, 1341.339
560.1578, 1315.306
562.0863, 1294.390
564.0148, 1294.166
565.9432, 1298.064
567.8717, 1298.992
569.8002, 1297.619
571.7286, 1309.075
573.6571, 1336.444
575.5856, 1366.433
577.5140, 1394.939
579.4425, 1425.405
581.3710, 1453.644
583.2994, 1475.957
585.2279, 1491.749
587.1564, 1504.200
589.0848, 1514.038
591.0133, 1513.576
592.9418, 1497.971
594.8702, 1473.900
596.7987, 1447.822
598.7272, 1422.159
600.6556, 1388.252
602.5841, 1339.804
604.5126, 1291.542
606.4410, 1252.277
608.3695, 1218.609
610.2980, 1187.806
612.2264, 1161.095
614.1549, 1137.116
616.0834, 1109.472
618.0118, 1080.206
619.9403, 1055.886
621.8688, 1039.663
623.7972, 1024.450
625.7257, 1012.319
627.6542, 1004.324
629.5826, 998.0497
631.5111, 993.2260
633.4396, 990.2532
635.3680, 985.8280
637.2965, 975.9163
639.2250, 967.1863
641.1534, 965.1616
643.0819, 977.6176
645.0104, 981.8210
646.9388, 969.6307
648.8673, 952.3106
650.7958, 943.2986
652.7242, 944.9482
654.6527, 946.9489
656.5812, 949.4521
658.5096, 946.2144
660.4381, 937.9073
662.3666, 927.3885
664.2950, 918.2437
666.2235, 909.6187
668.1520, 902.4858
670.0804, 899.5689
672.0089, 903.0888
673.9374, 904.9623
675.8658, 901.1050
677.7943, 894.3549
679.7228, 891.4808
681.6512, 894.3146
683.5797, 895.7100
685.5082, 892.6307
687.4366, 887.1918
689.3651, 882.6268
691.2936, 879.1292
693.2220, 876.6835
695.1505, 876.2233
697.0790, 878.9974
699.0074, 880.1764
700.9359, 877.1289
702.8644, 874.5273
704.7928, 876.4901
706.7213, 881.9355
708.6498, 883.4842
710.5782, 872.2556
712.5067, 864.5778
714.4352, 869.3290
716.3636, 886.8686
718.2921, 896.6355
720.2206, 892.7292
722.1490, 887.5116
724.0775, 888.0964
726.0060, 895.3309
727.9344, 899.8598
729.8629, 898.1006
731.7914, 895.1735
733.7198, 894.8680
735.6483, 898.0193
737.5768, 902.1231
739.5052, 908.0419
741.4337, 914.1039
743.3622, 918.9030
745.2906, 921.6702
747.2191, 925.1334
749.1476, 931.3247
751.0760, 937.8617
753.0045, 940.8552
754.9330, 937.3829
756.8615, 936.8300
758.7899, 943.3301
760.7184, 953.0340
762.6469, 960.4313
764.5753, 963.8356
766.5037, 968.0748
768.4322, 972.5314
770.3607, 979.2195
772.2891, 991.7311
774.2176, 1012.528
776.1461, 1029.562
778.0745, 1036.773
780.0030, 1041.384
781.9315, 1050.310
783.8599, 1066.212
785.7884, 1079.665
787.7169, 1086.661
789.6453, 1092.065
791.5738, 1103.520
793.5023, 1122.902
795.4307, 1143.384
797.3592, 1163.683
799.2877, 1182.863
801.2161, 1201.979
803.1446, 1221.089
805.0731, 1241.016
807.0015, 1262.066
808.9300, 1283.077
810.8585, 1303.762
812.7869, 1324.156
814.7154, 1348.097
816.6439, 1378.278
818.5723, 1406.676
820.5008, 1432.169
822.4293, 1454.592
824.3577, 1484.996
826.2862, 1527.284
828.2147, 1568.415
830.1431, 1598.527
832.0716, 1615.934
834.0001, 1634.729
835.9285, 1658.310
837.8570, 1683.382
839.7855, 1711.967
841.7139, 1748.798
843.6424, 1787.445
845.5709, 1821.024
847.4993, 1847.293
849.4278, 1875.424
851.3563, 1909.165
853.2847, 1938.550
855.2132, 1958.548
857.1417, 1969.029
859.0701, 1978.306
860.9986, 1987.934
862.9271, 1996.804
864.8555, 2006.148
866.7840, 2013.893
868.7125, 2013.653
870.6409, 2001.305
872.5694, 1989.524
874.4979, 1983.250
876.4263, 1981.554
878.3548, 1983.392
880.2833, 1990.426
882.2117, 1998.651
884.1402, 2002.974
886.0687, 2005.276
887.9971, 2013.281
889.9256, 2029.007
891.8541, 2042.609
893.7825, 2048.668
895.7110, 2048.827
897.6395, 2052.229
899.5679, 2059.643
901.4964, 2068.834
903.4249, 2079.068
905.3533, 2100.080
907.2818, 2122.491
909.2103, 2130.815
911.1387, 2129.109
913.0672, 2127.995
914.9957, 2134.785
916.9241, 2128.763
918.8526, 2097.880
920.7811, 2057.747
922.7095, 2017.294
924.6380, 1980.063
926.5665, 1933.202
928.4949, 1869.186
930.4234, 1802.137
932.3519, 1742.105
934.2803, 1693.224
936.2088, 1640.753
938.1373, 1577.086
940.0657, 1518.199
941.9942, 1472.240
943.9227, 1436.590
945.8511, 1399.034
947.7796, 1353.729
949.7081, 1311.650
951.6365, 1281.377
953.5650, 1265.556
955.4935, 1251.459
957.4219, 1223.306
959.3504, 1194.548
961.2789, 1173.006
963.2073, 1158.275
965.1358, 1145.321
967.0643, 1134.669
968.9927, 1124.556
970.9212, 1115.087
972.8497, 1109.061
974.7781, 1111.104
976.7066, 1115.782
978.6351, 1116.444
980.5635, 1117.233
982.4920, 1120.743
984.4205, 1126.965
986.3489, 1134.214
988.2774, 1145.093
990.2059, 1160.509
992.1343, 1175.098
994.0628, 1185.155
995.9913, 1191.012
997.9197, 1204.689
999.8482, 1227.656
1001.777, 1252.484
1003.705, 1276.476
1005.634, 1300.955
1007.562, 1333.743
1009.491, 1373.066
1011.419, 1418.168
1013.347, 1470.322
1015.276, 1528.678
1017.204, 1593.089
1019.133, 1667.907
1021.061, 1753.745
1022.990, 1841.037
1024.918, 1929.559
1026.847, 2027.298
1028.775, 2141.384
1030.704, 2255.905
1032.632, 2367.968
1034.561, 2474.897
1036.489, 2557.529
1038.417, 2614.567
1040.346, 2630.563
1042.274, 2602.819
1044.203, 2540.985
1046.131, 2457.793
1048.060, 2350.209
1049.988, 2230.918
1051.917, 2113.303
1053.845, 2000.331
1055.774, 1885.983
1057.702, 1760.532
1059.631, 1658.773
1061.559, 1595.927
1063.488, 1549.230
1065.416, 1501.612
1067.344, 1451.179
1069.273, 1409.583
1071.201, 1382.165
1073.130, 1367.943
1075.058, 1359.922
1076.987, 1352.951
1078.915, 1350.546
1080.844, 1360.055
1082.772, 1373.856
1084.701, 1376.219
1086.629, 1372.886
1088.558, 1378.759
1090.486, 1403.123
1092.415, 1424.918
1094.343, 1441.692
1096.271, 1457.551
1098.200, 1472.637
1100.128, 1486.846
1102.057, 1504.121
1103.985, 1526.386
1105.914, 1549.400
1107.842, 1572.799
1109.771, 1600.287
1111.699, 1622.890
1113.628, 1634.316
1115.556, 1639.425
1117.485, 1649.810
1119.413, 1665.316
1121.342, 1671.933
1123.270, 1665.402
1125.198, 1650.983
1127.127, 1630.830
1129.055, 1604.984
1130.984, 1572.783
1132.912, 1536.489
1134.841, 1497.298
1136.769, 1449.933
1138.698, 1400.149
1140.626, 1361.370
1142.555, 1335.406
1144.483, 1303.992
1146.412, 1255.110
1148.340, 1210.716
1150.269, 1182.173
1152.197, 1166.231
1154.125, 1152.096
1156.054, 1140.000
1157.982, 1128.044
1159.911, 1116.155
1161.839, 1104.790
1163.768, 1094.409
1165.696, 1086.670
1167.625, 1082.249
1169.553, 1081.349
1171.482, 1082.554
1173.410, 1089.237
1175.339, 1097.600
1177.267, 1097.580
1179.196, 1084.292
1181.124, 1075.249
1183.052, 1076.475
1184.981, 1080.358
1186.909, 1082.561
1188.838, 1082.363
1190.766, 1086.259
1192.695, 1101.744
1194.623, 1113.052
1196.552, 1110.725
1198.480, 1097.857
1200.409, 1087.477
1202.337, 1078.896
1204.266, 1074.008
1206.194, 1075.009
1208.123, 1078.933
1210.051, 1083.520
1211.979, 1088.951
1213.908, 1093.289
1215.836, 1097.571
1217.765, 1099.506
1219.693, 1095.904
1221.622, 1087.840
1223.550, 1085.266
1225.479, 1094.152
1227.407, 1100.991
1229.336, 1102.024
1231.264, 1100.742
1233.193, 1100.791
1235.121, 1102.978
1237.050, 1105.643
1238.978, 1106.658
1240.906, 1108.668
1242.835, 1116.217
1244.763, 1126.398
1246.692, 1129.033
1248.620, 1121.124
1250.549, 1115.327
1252.477, 1115.806
1254.406, 1119.057
1256.334, 1124.651
1258.263, 1132.663
1260.191, 1134.930
1262.120, 1121.932
1264.048, 1114.194
1265.977, 1120.453
1267.905, 1134.911
1269.833, 1146.096
1271.762, 1151.587
1273.690, 1157.060
1275.619, 1165.754
1277.547, 1171.979
1279.476, 1169.601
1281.404, 1158.983
1283.333, 1151.805
1285.261, 1149.476
1287.190, 1148.349
1289.118, 1146.155
1291.047, 1146.740
1292.975, 1154.118
1294.904, 1166.570
1296.832, 1171.292
1298.760, 1158.177
1300.689, 1149.134
1302.617, 1157.745
1304.546, 1179.221
1306.474, 1189.631
1308.403, 1177.358
1310.331, 1168.806
1312.260, 1172.480
1314.188, 1180.213
1316.117, 1183.787
1318.045, 1182.921
1319.974, 1181.320
1321.902, 1169.863
1323.831, 1165.983
1325.759, 1182.027
1327.688, 1206.855
1329.616, 1220.365
1331.544, 1220.410
1333.473, 1220.650
1335.401, 1222.720
1337.330, 1224.338
1339.258, 1224.224
1341.187, 1224.915
1343.115, 1226.252
1345.044, 1225.432
1346.972, 1226.514
1348.901, 1234.822
1350.829, 1243.396
1352.758, 1246.527
1354.686, 1246.506
1356.615, 1249.043
1358.543, 1247.038
1360.471, 1241.196
1362.400, 1230.649
1364.328, 1224.565
1366.257, 1230.961
1368.185, 1253.219
1370.114, 1267.776
1372.042, 1266.327
1373.971, 1262.155
1375.899, 1260.073
1377.828, 1261.467
1379.756, 1263.832
1381.685, 1259.992
1383.613, 1257.226
1385.542, 1262.399
1387.470, 1269.496
1389.398, 1276.617
1391.327, 1280.431
1393.255, 1277.510
1395.184, 1267.416
1397.112, 1260.844
1399.041, 1265.201
1400.969, 1270.268
1402.898, 1265.996
1404.826, 1258.243
1406.755, 1263.148
1408.683, 1282.245
1410.612, 1295.971
1412.540, 1299.925
1414.469, 1301.848
1416.397, 1307.182
1418.325, 1314.435
1420.254, 1313.583
1422.182, 1297.739
1424.111, 1287.976
1426.039, 1289.061
1427.968, 1295.198
1429.896, 1305.047
1431.825, 1318.386
1433.753, 1326.952
1435.682, 1322.241
1437.610, 1320.450
1439.539, 1329.380
1441.467, 1338.312
1443.396, 1336.939
1445.324, 1326.021
1447.252, 1319.245
1449.181, 1316.475
1451.109, 1317.997
1453.038, 1328.886
1454.966, 1338.041
1456.895, 1332.094
1458.823, 1314.493
1460.752, 1311.628
1462.680, 1333.047
1464.609, 1351.799
1466.537, 1356.496
1468.466, 1354.731
1470.394, 1352.749
1472.323, 1351.282
1474.251, 1351.695
1476.179, 1354.137
1478.108, 1358.585
1480.036, 1365.684
1481.965, 1372.384
1483.893, 1375.502
1485.822, 1375.405
1487.750, 1377.794
1489.679, 1387.512
1491.607, 1393.408
1493.536, 1384.187
1495.464, 1375.406
1497.393, 1377.411
1499.321, 1388.773
1501.250, 1398.542
1503.178, 1408.668
1505.106, 1409.968
1507.035, 1393.117
1508.963, 1379.648
1510.892, 1388.158
1512.820, 1413.215
1514.749, 1422.797
1516.677, 1402.814
1518.606, 1391.215
1520.534, 1396.824
1522.463, 1406.943
1524.391, 1414.265
1526.320, 1419.172
1528.248, 1427.408
1530.177, 1448.385
1532.105, 1456.154
1534.033, 1432.479
1535.962, 1414.677
1537.890, 1426.610
1539.819, 1451.840
1541.747, 1460.688
1543.676, 1445.879
1545.604, 1443.161
1547.533, 1461.965
1549.461, 1479.558
1551.390, 1488.208
1553.318, 1490.287
1555.247, 1491.208
1557.175, 1492.253
1559.104, 1489.028
1561.032, 1475.786
1562.960, 1466.313
1564.889, 1468.192
1566.817, 1474.386
1568.746, 1478.713
1570.674, 1482.056
1572.603, 1486.997
1574.531, 1494.105
1576.460, 1499.390
1578.388, 1502.989
1580.317, 1504.680
1582.245, 1502.166
1584.174, 1497.774
1586.102, 1496.052
1588.031, 1496.655
1589.959, 1503.469
1591.887, 1519.625
1593.816, 1537.017
1595.744, 1559.278
1597.673, 1576.934
1599.601, 1573.380
1601.530, 1550.965
1603.458, 1539.999
1605.387, 1547.863
1607.315, 1557.141
1609.244, 1563.806
1611.172, 1568.179
1613.101, 1565.975
1615.029, 1561.067
1616.958, 1569.336
1618.886, 1594.919
1620.814, 1612.340
1622.743, 1611.091
1624.671, 1607.320
1626.600, 1607.705
1628.528, 1612.239
1630.457, 1623.640
1632.385, 1641.769
1634.314, 1651.374
1636.242, 1645.149
1638.171, 1643.061
1640.099, 1657.996
1642.028, 1674.153
1643.956, 1681.376
1645.885, 1679.708
1647.813, 1665.882
1649.741, 1634.920
1651.670, 1619.851
1653.598, 1642.811
1655.527, 1660.867
1657.455, 1640.991
1659.384, 1610.007
1661.312, 1604.965
1663.241, 1624.647
1665.169, 1645.614
1667.098, 1669.642
1669.026, 1683.474
1670.955, 1675.020
1672.883, 1662.455
1674.812, 1656.677
1676.740, 1656.325
1678.668, 1660.533
1680.597, 1670.824
1682.525, 1671.504
1684.454, 1652.886
1686.382, 1638.868
1688.311, 1646.481
1690.239, 1658.030
1692.168, 1654.355
1694.096, 1639.337
1696.025, 1631.621
1697.953, 1632.489
1699.882, 1638.429
1701.810, 1653.734
1703.739, 1666.298
1705.667, 1669.133
1707.595, 1665.492
1709.524, 1658.285
1711.452, 1647.790
1713.381, 1637.681
1715.309, 1627.916
1717.238, 1619.728
1719.166, 1611.213
1721.095, 1607.532
1723.023, 1618.513
1724.952, 1633.987
1726.880, 1633.670
1728.809, 1617.853
1730.737, 1613.874
1732.666, 1633.351
1734.594, 1642.156
1736.522, 1614.698
1738.451, 1586.599
1740.379, 1586.175
1742.308, 1602.155
1744.236, 1612.055
1746.165, 1615.637
1748.093, 1615.191
1750.022, 1608.389
1751.950, 1603.389
1753.879, 1603.466
1755.807, 1605.834
1757.736, 1608.672
1759.664, 1612.072
1761.593, 1616.772
1763.521, 1623.104
1765.449, 1627.522
1767.378, 1629.479
1769.306, 1629.874
1771.235, 1627.880
1773.163, 1625.437
1775.092, 1624.234
1777.020, 1623.632
1778.949, 1621.181
1780.877, 1615.642
1782.806, 1614.615
1784.734, 1624.060
1786.663, 1629.832
1788.591, 1623.917
1790.520, 1618.435
1792.448, 1623.675
1794.376, 1635.518
1796.305, 1644.460
1798.233, 1650.590
1800.162, 1653.257
1802.090, 1647.654
1804.019, 1645.852
1805.947, 1657.830
1807.876, 1665.013
1809.804, 1648.007
1811.733, 1622.185
1813.661, 1619.602
1815.590, 1644.564
1817.518, 1653.157
1819.447, 1631.661
1821.375, 1620.811
1823.303, 1636.283
1825.232, 1650.639
1827.160, 1649.030
1829.089, 1640.879
1831.017, 1637.837
1832.946, 1639.421
1834.874, 1641.902
1836.803, 1644.614
1838.731, 1650.142
1840.660, 1663.125
1842.588, 1672.253
1844.517, 1667.120
1846.445, 1661.997
1848.374, 1674.124
1850.302, 1695.204
1852.230, 1698.677
1854.159, 1682.993
1856.087, 1671.900
1858.016, 1666.235
1859.944, 1670.581
1861.873, 1700.051
1863.801, 1724.343
1865.730, 1718.409
1867.658, 1697.474
1869.587, 1683.575
1871.515, 1676.626
1873.444, 1677.339
1875.372, 1688.807
1877.301, 1697.843
1879.229, 1697.835
1881.157, 1701.019
1883.086, 1721.094
1885.014, 1739.071
1886.943, 1729.478
1888.871, 1702.980
1890.800, 1698.188
1892.728, 1723.710
1894.657, 1736.516
1896.585, 1725.160
1898.514, 1717.954
1900.442, 1719.072
1902.371, 1724.150
1904.299, 1734.828
1906.228, 1745.501
1908.156, 1746.868
1910.084, 1740.143
1912.013, 1740.524
1913.941, 1751.286
1915.870, 1753.821
1917.798, 1742.655
1919.727, 1730.184
1921.655, 1715.087
1923.584, 1706.359
1925.512, 1713.698
1927.441, 1728.833
1929.369, 1739.633
1931.298, 1746.560
1933.226, 1752.716
1935.155, 1758.210
1937.083, 1761.912
1939.011, 1762.836
1940.940, 1762.697
1942.868, 1759.857
1944.797, 1758.664
1946.725, 1766.679
1948.654, 1777.110
1950.582, 1773.969
1952.511, 1757.346
1954.439, 1752.457
1956.368, 1767.312
1958.296, 1777.320
1960.225, 1780.424
1962.153, 1779.669
1964.082, 1772.468
1966.010, 1765.268
1967.938, 1762.232
1969.867, 1763.182
1971.795, 1767.708
1973.724, 1776.121
1975.652, 1789.683
1977.581, 1811.391
1979.509, 1821.861
1981.438, 1813.632
1983.366, 1803.356
1985.295, 1791.548
1987.223, 1785.283
1989.152, 1792.700
1991.080, 1806.095
1993.009, 1818.742
1994.937, 1828.871
1996.865, 1826.246
1998.794, 1807.814
2000.722, 1797.416
2002.651, 1801.883
2004.579, 1806.038
2006.508, 1805.101
2008.436, 1806.079
2010.365, 1816.334
2012.293, 1826.832
2014.222, 1825.414
2016.150, 1816.835
2018.078, 1816.409
2020.007, 1825.122
2021.935, 1830.426
2023.864, 1831.062
2025.792, 1831.652
2027.721, 1830.461
2029.649, 1834.170
2031.578, 1851.541
2033.506, 1867.276
2035.435, 1867.471
2037.363, 1861.601
2039.292, 1862.912
2041.220, 1869.556
2043.149, 1874.599
2045.077, 1878.613
2047.005, 1877.207
2048.934, 1863.710
2050.863, 1858.018
2052.791, 1868.368
2054.719, 1880.154
2056.648, 1889.060
2058.576, 1894.777
2060.505, 1895.562
2062.433, 1893.248
2064.362, 1891.426
2066.290, 1890.182
2068.219, 1889.365
2070.147, 1889.061
2072.076, 1892.978
2074.004, 1905.149
2075.933, 1911.546
2077.861, 1906.549
2079.790, 1897.477
2081.718, 1876.676
2083.646, 1863.647
2085.575, 1887.957
2087.503, 1924.819
2089.432, 1922.870
2091.360, 1887.346
2093.289, 1875.555
2095.217, 1898.673
2097.146, 1910.618
2099.074, 1900.640
2101.003, 1898.940
2102.931, 1918.406
2104.860, 1934.077
2106.788, 1933.006
2108.717, 1929.951
2110.645, 1937.827
2112.573, 1947.712
2114.502, 1942.203
2116.430, 1928.052
2118.359, 1933.445
2120.287, 1959.288
2122.216, 1965.887
2124.144, 1941.712
2126.073, 1926.120
2128.001, 1930.851
2129.930, 1936.138
2131.858, 1933.933
2133.787, 1935.028
2135.715, 1953.895
2137.644, 1971.566
2139.572, 1959.534
2141.500, 1934.555
2143.429, 1939.781
2145.357, 1970.335
2147.286, 1991.289
2149.214, 2001.426
2151.143, 1995.220
2153.071, 1963.585
2155.000, 1944.679
2156.928, 1955.140
2158.857, 1968.492
2160.785, 1979.367
2162.714, 1986.013
2164.642, 1981.987
2166.571, 1977.378
2168.499, 1988.085
2170.427, 2006.175
2172.356, 2008.566
2174.284, 1996.249
2176.213, 1995.664
2178.141, 2009.171
2180.070, 2010.312
2181.998, 1989.930
2183.927, 1982.869
2185.855, 2005.455
2187.784, 2025.869
2189.712, 2031.236
2191.641, 2031.355
2193.569, 2030.061
2195.498, 2027.942
2197.426, 2025.251
2199.354, 2022.612
2201.283, 2021.165
2203.211, 2021.092
2205.140, 2022.851
2207.068, 2026.863
2208.997, 2028.326
2210.925, 2026.045
2212.854, 2028.682
2214.782, 2040.627
2216.711, 2050.309
2218.639, 2055.112
2220.568, 2055.157
2222.496, 2044.444
2224.425, 2034.667
2226.353, 2033.956
2228.281, 2038.563
2230.210, 2046.611
2232.138, 2055.393
2234.067, 2056.823
2235.995, 2052.393
2237.924, 2054.978
2239.852, 2065.310
2241.781, 2069.980
2243.709, 2065.707
2245.638, 2070.180
2247.566, 2096.949
2249.495, 2110.137
2251.423, 2085.671
2253.352, 2066.080
2255.280, 2072.947
2257.208, 2084.179
2259.137, 2085.133
2261.065, 2082.843
2262.994, 2086.762
2264.922, 2092.070
2266.851, 2088.208
2268.779, 2077.808
2270.708, 2068.362
2272.636, 2060.476
2274.565, 2060.495
2276.493, 2070.362
2278.422, 2080.887
2280.350, 2098.255
2282.279, 2104.630
2284.207, 2090.266
2286.135, 2077.339
2288.064, 2063.285
2289.992, 2061.696
2291.921, 2088.360
2293.849, 2116.928
2295.778, 2127.974
2297.706, 2131.824
2299.635, 2141.224
2301.563, 2150.588
2303.492, 2147.878
2305.420, 2135.977
2307.349, 2125.674
2309.277, 2116.642
2311.206, 2127.257
2313.134, 2165.426
2315.063, 2175.425
2316.991, 2144.093
2318.919, 2133.914
2320.848, 2167.731
2322.776, 2187.923
2324.705, 2167.204
2326.633, 2146.069
2328.562, 2137.855
2330.490, 2135.619
2332.419, 2137.351
2334.347, 2140.800
2336.276, 2144.888
2338.204, 2148.843
2340.133, 2150.837
2342.061, 2152.535
2343.990, 2158.548
2345.918, 2167.381
2347.846, 2171.956
2349.775, 2172.778
2351.703, 2182.078
2353.632, 2204.538
2355.560, 2213.679
2357.489, 2198.943
2359.417, 2196.392
2361.346, 2216.309
2363.274, 2224.173
2365.203, 2207.333
2367.131, 2192.758
2369.060, 2189.384
2370.988, 2190.932
2372.917, 2201.767
2374.845, 2208.432
2376.773, 2196.194
2378.702, 2182.835
2380.630, 2184.188
2382.559, 2193.999
2384.487, 2207.742
2386.416, 2221.445
2388.344, 2225.984
2390.273, 2223.798
2392.201, 2223.951
2394.130, 2225.497
2396.058, 2216.799
2397.987, 2194.962
2399.915, 2192.140
2401.844, 2220.203
2403.772, 2232.554
2405.700, 2225.117
2407.629, 2216.106
2409.557, 2205.841
2411.486, 2200.867
2413.414, 2202.527
2415.343, 2210.101
2417.271, 2224.822
2419.200, 2242.653
2421.128, 2271.183
2423.057, 2289.785
2424.985, 2278.357
2426.914, 2261.645
2428.842, 2260.383
2430.771, 2261.473
2432.699, 2247.907
2434.627, 2231.949
2436.556, 2230.684
2438.484, 2238.837
2440.413, 2249.465
2442.341, 2259.944
2444.270, 2257.877
2446.198, 2244.738
2448.127, 2235.346
2450.055, 2229.831
2451.984, 2235.895
2453.912, 2253.968
2455.841, 2259.794
2457.769, 2247.097
2459.698, 2244.229
2461.626, 2268.722
2463.554, 2274.880
2465.483, 2244.327
2467.411, 2232.764
2469.340, 2259.100
2471.268, 2276.522
2473.197, 2266.380
2475.125, 2256.703
2477.054, 2258.417
2478.982, 2262.846
2480.911, 2269.741
2482.839, 2273.415
2484.768, 2269.449
2486.696, 2262.827
2488.625, 2250.779
2490.553, 2245.240
2492.481, 2265.560
2494.410, 2289.894
2496.338, 2290.296
2498.267, 2280.692
2500.195, 2278.181
2502.124, 2283.829
2504.052, 2308.934
2505.980, 2342.123
2507.909, 2340.209
2509.837, 2313.128
2511.766, 2303.438
2513.694, 2308.607
2515.623, 2303.019
2517.551, 2286.003
2519.480, 2280.734
2521.408, 2290.835
2523.337, 2291.710
2525.265, 2280.929
2527.194, 2282.357
2529.122, 2298.659
2531.051, 2318.811
2532.979, 2345.549
2534.907, 2356.126
2536.836, 2329.001
2538.764, 2315.768
2540.693, 2330.531
2542.621, 2339.315
2544.550, 2335.807
2546.478, 2332.074
2548.407, 2332.109
2550.335, 2333.130
2552.264, 2335.528
2554.192, 2337.645
2556.121, 2338.856
2558.049, 2339.421
2559.978, 2338.653
2561.906, 2337.161
2563.834, 2331.436
2565.763, 2329.346
2567.691, 2340.572
2569.620, 2350.938
2571.548, 2349.257
2573.477, 2342.858
2575.405, 2333.181
2577.334, 2327.717
2579.262, 2343.460
2581.191, 2358.906
2583.119, 2339.671
2585.048, 2316.462
2586.976, 2335.467
2588.905, 2369.330
2590.833, 2375.749
2592.761, 2365.644
2594.690, 2355.818
2596.618, 2347.863
2598.547, 2344.016
2600.475, 2345.531
2602.404, 2359.380
2604.332, 2379.438
2606.261, 2385.131
2608.189, 2380.106
2610.118, 2384.072
2612.046, 2394.054
2613.975, 2388.978
2615.903, 2372.056
2617.832, 2355.408
2619.760, 2341.483
2621.688, 2346.342
2623.617, 2370.037
2625.545, 2388.224
2627.474, 2400.787
2629.402, 2402.340
2631.331, 2392.638
2633.259, 2379.305
2635.188, 2361.961
2637.116, 2367.011
2639.045, 2402.324
2640.973, 2420.705
2642.902, 2421.448
2644.830, 2411.325
2646.759, 2389.483
2648.687, 2383.668
2650.615, 2397.641
2652.544, 2417.279
2654.472, 2446.764
2656.401, 2459.859
2658.329, 2449.846
2660.258, 2441.156
2662.186, 2434.060
2664.115, 2432.634
2666.043, 2439.880
2667.972, 2442.005
2669.900, 2434.583
2671.829, 2432.256
2673.757, 2438.040
2675.686, 2444.239
2677.614, 2450.407
2679.542, 2454.144
2681.471, 2451.633
2683.399, 2458.145
2685.328, 2485.140
2687.256, 2501.745
2689.185, 2504.434
2691.113, 2502.193
2693.042, 2494.391
2694.970, 2489.497
2696.899, 2488.435
2698.827, 2492.134
2700.756, 2502.705
2702.684, 2513.365
2704.613, 2525.048
2706.541, 2530.660
2708.469, 2526.640
2710.398, 2529.340
2712.326, 2546.154
2714.255, 2558.276
2716.183, 2564.952
2718.112, 2560.867
2720.040, 2537.724
2721.969, 2527.841
2723.897, 2536.890
2725.826, 2551.840
2727.754, 2574.051
2729.683, 2589.706
2731.611, 2595.011
2733.540, 2596.284
2735.468, 2592.752
2737.396, 2589.637
2739.325, 2587.605
2741.253, 2586.430
2743.182, 2585.167
2745.110, 2587.216
2747.039, 2592.039
2748.967, 2604.272
2750.896, 2628.559
2752.824, 2637.407
2754.753, 2624.824
2756.681, 2609.320
2758.610, 2581.679
2760.538, 2586.038
2762.467, 2635.793
2764.395, 2664.725
2766.323, 2666.827
2768.252, 2668.896
2770.180, 2675.356
2772.109, 2672.102
2774.037, 2649.886
2775.966, 2650.925
2777.894, 2678.432
2779.823, 2694.612
2781.751, 2696.949
2783.680, 2699.477
2785.608, 2703.195
2787.537, 2709.016
2789.465, 2717.021
2791.394, 2730.159
2793.322, 2747.835
2795.250, 2755.896
2797.179, 2753.882
2799.107, 2747.674
2801.036, 2737.918
2802.964, 2737.577
2804.893, 2746.408
2806.821, 2761.173
2808.750, 2780.201
2810.678, 2791.909
2812.607, 2799.439
2814.535, 2818.236
2816.464, 2845.575
2818.392, 2874.628
2820.321, 2902.169
2822.249, 2921.244
2824.177, 2930.963
2826.106, 2921.914
2828.034, 2907.484
2829.963, 2916.246
2831.891, 2939.665
2833.820, 2973.353
2835.748, 3001.000
2837.677, 2992.254
2839.605, 2971.697
2841.534, 2965.422
2843.462, 2970.948
2845.391, 2992.951
2847.319, 3017.346
2849.248, 3033.576
2851.176, 3045.693
2853.104, 3050.664
2855.033, 3062.043
2856.961, 3102.790
2858.890, 3133.921
2860.818, 3122.574
2862.747, 3113.704
2864.675, 3135.804
2866.604, 3158.125
2868.532, 3162.871
2870.461, 3172.118
2872.389, 3192.205
2874.318, 3219.096
2876.246, 3264.244
2878.175, 3292.081
2880.103, 3278.398
2882.031, 3278.319
2883.960, 3299.700
2885.888, 3327.505
2887.817, 3362.093
2889.745, 3388.523
2891.674, 3391.824
2893.602, 3422.928
2895.531, 3486.385
2897.459, 3529.239
2899.388, 3548.232
2901.316, 3560.311
2903.245, 3566.650
2905.173, 3578.923
2907.102, 3597.620
2909.030, 3624.381
2910.958, 3658.863
2912.887, 3703.165
2914.815, 3750.909
2916.744, 3778.293
2918.672, 3796.466
2920.601, 3837.271
2922.529, 3881.867
2924.458, 3896.265
2926.386, 3903.621
2928.315, 3934.442
2930.243, 3973.209
2932.172, 4005.668
2934.100, 4037.914
2936.029, 4071.145
2937.957, 4110.565
2939.885, 4164.925
2941.814, 4217.102
2943.742, 4251.645
2945.671, 4296.155
2947.599, 4369.066
2949.528, 4430.506
2951.456, 4455.908
2953.385, 4490.406
2955.313, 4539.790
2957.242, 4597.330
2959.170, 4664.949
2961.099, 4719.887
2963.027, 4753.652
2964.956, 4801.651
2966.884, 4865.546
2968.813, 4908.342
2970.741, 4934.930
2972.669, 4994.190
2974.598, 5078.208
2976.526, 5156.403
2978.455, 5220.516
2980.383, 5225.006
2982.312, 5216.167
2984.240, 5278.891
2986.169, 5370.391
2988.097, 5442.586
2990.026, 5504.253
2991.954, 5561.381
2993.883, 5614.285
2995.811, 5655.291
2997.740, 5701.263
2999.668, 5762.228
3001.596, 5825.505
3003.525, 5887.384
3005.453, 5949.200
3007.382, 6008.222
3009.310, 6078.021
3011.239, 6170.113
3013.167, 6243.588
3015.096, 6295.261
3017.024, 6344.441
3018.953, 6391.918
3020.881, 6457.483
3022.810, 6538.503
3024.738, 6588.250
3026.667, 6616.158
3028.595, 6649.663
3030.523, 6689.962
3032.452, 6742.456
3034.380, 6800.833
3036.309, 6846.499
3038.237, 6905.788
3040.166, 7024.926
3042.094, 7136.726
3044.023, 7169.732
3045.951, 7221.912
3047.880, 7347.924
3049.808, 7459.590
3051.737, 7507.571
3053.665, 7568.739
3055.594, 7657.493
3057.522, 7751.824
3059.450, 7854.154
3061.379, 7903.879
3063.307, 7889.929
3065.236, 7934.673
3067.164, 8032.167
3069.093, 8130.595
3071.021, 8222.497
3072.950, 8284.584
3074.878, 8330.583
3076.807, 8384.296
3078.735, 8437.898
3080.664, 8482.335
3082.592, 8525.184
3084.521, 8568.961
3086.449, 8618.069
3088.377, 8688.010
3090.306, 8731.010
3092.234, 8712.982
3094.163, 8722.177
3096.091, 8812.422
3098.020, 8848.919
3099.948, 8824.896
3101.877, 8839.537
3103.805, 8897.198
3105.734, 8917.824
3107.662, 8912.935
3109.591, 8946.750
3111.519, 8995.790
3113.448, 9020.580
3115.376, 9021.850
3117.304, 8983.808
3119.233, 8945.391
3121.161, 8946.938
3123.090, 8941.817
3125.018, 8904.155
3126.947, 8855.802
3128.875, 8785.870
3130.804, 8753.555
3132.732, 8777.236
3134.661, 8765.017
3136.589, 8699.550
3138.518, 8657.522
3140.446, 8637.773
3142.375, 8619.171
3144.303, 8605.514
3146.231, 8618.234
3148.160, 8631.400
3150.088, 8590.812
3152.017, 8542.035
3153.945, 8533.760
3155.874, 8519.919
3157.802, 8460.003
3159.731, 8413.596
3161.659, 8404.426
3163.588, 8383.781
3165.516, 8336.446
3167.445, 8288.449
3169.373, 8239.490
3171.302, 8224.206
3173.230, 8236.804
3175.158, 8241.933
3177.087, 8233.101
3179.015, 8178.095
3180.944, 8113.518
3182.872, 8093.198
3184.801, 8077.369
3186.729, 8025.420
3188.658, 7981.340
3190.586, 7966.350
3192.515, 7952.299
3194.443, 7932.108
3196.372, 7915.729
3198.300, 7910.647
3200.229, 7861.813
3202.157, 7777.723
3204.085, 7756.886
3206.014, 7775.590
3207.942, 7741.375
3209.871, 7696.214
3211.799, 7706.346
3213.728, 7732.801
3215.656, 7759.173
3217.585, 7761.192
3219.513, 7719.769
3221.442, 7680.073
3223.370, 7651.544
3225.299, 7640.863
3227.227, 7651.691
3229.156, 7639.345
3231.084, 7608.158
3233.012, 7613.505
3234.941, 7635.790
3236.869, 7615.397
3238.798, 7581.189
3240.726, 7565.607
3242.655, 7559.380
3244.583, 7547.306
3246.512, 7560.394
3248.440, 7621.570
3250.369, 7654.143
3252.297, 7612.403
3254.226, 7622.737
3256.154, 7685.749
3258.083, 7687.523
3260.011, 7647.489
3261.939, 7650.746
3263.868, 7674.993
3265.796, 7684.262
3267.725, 7686.036
3269.653, 7664.997
3271.582, 7671.617
3273.510, 7754.380
3275.439, 7805.832
3277.367, 7799.520
3279.296, 7799.157
3281.224, 7813.827
3283.153, 7812.016
3285.081, 7804.009
3287.010, 7835.511
3288.938, 7881.559
3290.866, 7897.781
3292.795, 7907.535
3294.723, 7917.716
3296.652, 7945.145
3298.580, 8020.907
3300.509, 8058.210
3302.437, 8036.926
3304.366, 8043.928
3306.294, 8090.500
3308.223, 8149.536
3310.151, 8210.086
3312.080, 8213.033
3314.008, 8198.660
3315.937, 8214.174
3317.865, 8245.062
3319.793, 8297.270
3321.722, 8328.122
3323.650, 8316.759
3325.579, 8294.435
3327.507, 8258.622
3329.436, 8287.452
3331.364, 8371.210
3333.293, 8422.695
3335.221, 8446.544
3337.150, 8442.541
3339.078, 8432.919
3341.007, 8432.489
3342.935, 8443.402
3344.864, 8484.297
3346.792, 8492.252
3348.720, 8449.040
3350.649, 8433.469
3352.577, 8452.007
3354.506, 8467.743
3356.434, 8473.964
3358.363, 8439.847
3360.291, 8401.961
3362.220, 8411.942
3364.148, 8420.976
3366.077, 8400.609
3368.005, 8378.126
3369.934, 8358.479
3371.862, 8342.107
3373.791, 8328.827
3375.719, 8311.548
3377.647, 8284.588
3379.576, 8215.887
3381.504, 8139.308
3383.433, 8083.833
3385.361, 8049.630
3387.290, 8056.380
3389.218, 8038.175
3391.147, 7974.694
3393.075, 7924.934
3395.004, 7893.015
3396.932, 7862.768
3398.861, 7825.837
3400.789, 7755.579
3402.718, 7678.748
3404.646, 7633.474
3406.574, 7577.758
3408.503, 7492.799
3410.431, 7389.424
3412.360, 7260.022
3414.288, 7183.197
3416.217, 7151.354
3418.145, 7079.476
3420.074, 6981.173
3422.002, 6865.648
3423.931, 6767.459
3425.859, 6741.170
3427.788, 6686.637
3429.716, 6563.504
3431.645, 6435.800
3433.573, 6309.753
3435.501, 6231.569
3437.430, 6187.409
3439.358, 6118.712
3441.287, 6032.865
3443.215, 5924.168
3445.144, 5827.677
3447.072, 5768.637
3449.001, 5704.036
3450.929, 5622.833
3452.858, 5524.763
3454.786, 5415.327
3456.715, 5355.043
3458.643, 5319.473
3460.572, 5280.110
3462.500, 5217.000
3464.428, 5105.066
3466.357, 4995.855
3468.285, 4901.085
3470.214, 4840.518
3472.142, 4813.273
3474.071, 4755.001
3475.999, 4682.669
3477.928, 4658.677
3479.856, 4635.414
3481.785, 4564.550
3483.713, 4482.723
3485.642, 4390.208
3487.570, 4338.710
3489.499, 4337.974
3491.427, 4320.728
3493.355, 4287.975
3495.284, 4239.583
3497.212, 4191.782
3499.141, 4164.430
3501.069, 4138.614
3502.998, 4108.761
3504.926, 4064.900
3506.855, 3997.337
3508.783, 3970.138
3510.712, 3969.785
3512.640, 3950.744
3514.569, 3919.635
3516.497, 3877.328
3518.426, 3837.601
3520.354, 3804.820
3522.282, 3780.567
3524.211, 3766.200
3526.139, 3746.074
3528.068, 3718.855
3529.996, 3668.125
3531.925, 3628.606
3533.853, 3660.765
3535.782, 3674.258
3537.710, 3601.060
3539.639, 3567.562
3541.567, 3581.103
3543.496, 3555.381
3545.424, 3509.610
3547.353, 3513.134
3549.281, 3526.549
3551.209, 3517.148
3553.138, 3501.563
3555.066, 3485.855
3556.995, 3462.575
3558.923, 3431.340
3560.852, 3406.408
3562.780, 3385.802
3564.709, 3360.451
3566.637, 3345.325
3568.566, 3368.973
3570.494, 3369.272
3572.423, 3331.752
3574.351, 3293.936
3576.280, 3262.715
3578.208, 3282.067
3580.136, 3307.827
3582.065, 3274.987
3583.993, 3235.202
3585.922, 3210.413
3587.850, 3194.078
3589.779, 3184.699
3591.707, 3203.427
3593.636, 3230.304
3595.564, 3194.625
3597.493, 3148.192
3599.421, 3137.112
3601.350, 3137.287
3603.278, 3147.994
3605.207, 3138.285
3607.135, 3109.317
3609.063, 3109.833
3610.992, 3118.164
3612.920, 3103.530
3614.849, 3078.326
3616.777, 3041.970
3618.706, 3024.311
3620.634, 3033.646
3622.563, 3046.052
3624.491, 3054.565
3626.420, 3035.285
3628.348, 3015.336
3630.277, 3019.058
3632.205, 3024.343
3634.134, 3029.698
3636.062, 3012.303
3637.990, 2982.128
3639.919, 2993.947
3641.847, 3017.478
3643.776, 3016.773
3645.704, 3005.617
3647.633, 2985.877
3649.561, 2962.448
3651.490, 2938.278
3653.418, 2946.900
3655.347, 2967.934
3657.275, 2963.749
3659.204, 2960.450
3661.132, 2978.573
3663.061, 2975.032
3664.989, 2943.714
3666.917, 2937.281
3668.846, 2945.030
3670.774, 2950.283
3672.703, 2937.436
3674.631, 2883.553
3676.560, 2851.693
3678.488, 2857.764
3680.417, 2849.735
3682.345, 2833.822
3684.274, 2835.606
3686.202, 2840.457
3688.131, 2838.364
3690.059, 2829.789
3691.988, 2814.759
3693.916, 2789.930
3695.844, 2760.587
3697.773, 2738.255
3699.701, 2734.726
3701.630, 2775.852
3703.558, 2798.207
3705.487, 2774.037
3707.415, 2754.969
3709.344, 2741.419
3711.272, 2727.132
3713.201, 2720.341
3715.129, 2737.355
3717.058, 2744.524
3718.986, 2724.966
3720.915, 2714.767
3722.843, 2709.287
3724.771, 2676.018
3726.700, 2651.827
3728.628, 2688.393
3730.557, 2709.161
3732.485, 2676.195
3734.414, 2669.266
3736.342, 2682.210
3738.271, 2690.626
3740.199, 2690.750
3742.128, 2670.895
3744.056, 2663.260
3745.985, 2688.984
3747.913, 2675.075
3749.842, 2641.446
3751.770, 2661.861
3753.698, 2687.574
3755.627, 2677.263
3757.555, 2666.486
3759.484, 2664.279
3761.412, 2660.553
3763.341, 2659.539
3765.269, 2680.235
3767.198, 2691.942
3769.126, 2667.724
3771.055, 2658.175
3772.983, 2676.846
3774.912, 2676.646
3776.840, 2665.279
3778.769, 2650.716
3780.697, 2645.594
3782.625, 2657.145
3784.554, 2671.773
3786.482, 2686.730
3788.411, 2659.829
3790.339, 2627.091
3792.268, 2650.280
3794.196, 2662.911
3796.125, 2637.603
3798.053, 2633.384
3799.982, 2648.612
3801.910, 2640.901
3803.839, 2630.833
3805.767, 2648.261
3807.696, 2646.025
3809.624, 2611.637
3811.552, 2616.504
3813.481, 2646.403
3815.409, 2653.304
3817.338, 2653.704
3819.266, 2653.965
3821.195, 2662.247
3823.123, 2677.927
3825.052, 2667.750
3826.980, 2649.131
3828.909, 2649.253
3830.837, 2656.253
3832.766, 2673.393
3834.694, 2645.698
3836.623, 2588.076
3838.551, 2598.961
3840.479, 2624.902
3842.408, 2617.119
3844.336, 2611.097
3846.265, 2612.694
3848.193, 2624.778
3850.122, 2641.632
3852.050, 2655.147
3853.979, 2656.362
3855.907, 2628.760
3857.836, 2623.887
3859.764, 2640.753
3861.693, 2651.982
3863.621, 2658.800
3865.550, 2670.992
3867.478, 2668.100
3869.406, 2634.420
3871.335, 2639.766
3873.263, 2662.571
3875.192, 2654.958
3877.120, 2636.798
3879.049, 2616.419
3880.977, 2634.386
3882.906, 2680.734
3884.834, 2699.419
3886.763, 2697.905
3888.691, 2667.513
3890.620, 2651.444
3892.548, 2652.141
3894.477, 2644.952
3896.405, 2638.659
3898.333, 2637.533
3900.262, 2637.928
3902.190, 2643.756
3904.119, 2654.764
3906.047, 2662.662
3907.976, 2665.974
3909.904, 2674.029
3911.833, 2691.162
3913.761, 2687.034
3915.690, 2665.644
3917.618, 2667.124
3919.547, 2674.194
3921.475, 2666.200
3923.404, 2664.901
3925.332, 2684.601
3927.260, 2680.249
3929.189, 2664.110
3931.117, 2658.970
3933.046, 2666.030
3934.974, 2690.861
3936.903, 2691.062
3938.831, 2672.146
3940.760, 2682.576
3942.688, 2698.168
3944.617, 2703.754
3946.545, 2698.787
3948.474, 2683.850
3950.402, 2689.766
3952.331, 2698.644
3954.259, 2684.698
3956.188, 2677.052
3958.116, 2681.117
3960.044, 2682.566
3961.973, 2683.196
3963.901, 2687.725
3965.830, 2691.140
3967.758, 2689.333
3969.687, 2697.765
3971.615, 2704.126
3973.544, 2666.801
3975.472, 2647.340
3977.401, 2676.511
3979.329, 2705.331
3981.258, 2730.795
3983.186, 2734.259
3985.115, 2720.472
3987.043, 2698.094
3988.971, 2689.589
3990.900, 2690.014
3992.828, 2686.137
3994.757, 2686.547
3996.685, 2680.853
3998.614, 2686.945
4000.542, 2724.055
4002.471, 2735.260
4004.399, 2727.039
4006.328, 2734.050
4008.256, 2737.479
4010.185, 2730.118
4012.113, 2721.708
4014.042, 2714.358
4015.970, 2704.200
4017.898, 2690.464
4019.827, 2692.248
4021.755, 2711.436
4023.684, 2725.547
4025.612, 2718.052
4027.541, 2717.248
4029.469, 2711.634
4031.398, 2700.599
4033.326, 2702.903
4035.255, 2719.477
4037.183, 2730.848
4039.112, 2704.074
4041.040, 2709.186
4042.969, 2747.722
4044.897, 2727.996
4046.825, 2698.791
4048.754, 2723.128
4050.682, 2737.740
4052.611, 2714.584
4054.539, 2712.036
4056.468, 2734.461
4058.396, 2737.408
4060.325, 2721.715
4062.253, 2725.369
4064.182, 2726.068
4066.110, 2713.355
4068.039, 2707.020
4069.967, 2693.020
4071.896, 2689.473
4073.824, 2693.571
4075.752, 2714.416
4077.681, 2739.236
4079.609, 2731.653
4081.538, 2718.524
4083.466, 2706.002
4085.395, 2698.970
4087.323, 2709.449
4089.252, 2726.247
4091.180, 2729.934
4093.109, 2725.921
4095.037, 2721.447
4096.965, 2708.582
4098.894, 2678.565
4100.822, 2682.792
4102.751, 2712.296
4104.679, 2706.329
4106.608, 2700.786
4108.536, 2719.362
4110.465, 2737.751
4112.393, 2748.691
4114.322, 2738.313
4116.250, 2727.951
4118.179, 2741.488
4120.107, 2748.668
4122.036, 2753.872
4123.964, 2737.421
4125.893, 2715.544
4127.821, 2740.188
4129.750, 2746.157
4131.678, 2717.223
4133.606, 2701.859
4135.535, 2692.006
4137.463, 2679.646
4139.392, 2681.318
4141.320, 2701.210
4143.249, 2722.975
4145.177, 2749.724
4147.105, 2746.769
4149.034, 2735.671
4150.962, 2741.941
4152.891, 2740.507
4154.819, 2726.594
4156.748, 2708.122
4158.676, 2697.864
4160.605, 2705.583
4162.533, 2706.730
4164.462, 2703.083
4166.390, 2700.268
4168.319, 2699.390
4170.247, 2703.444
4172.176, 2701.003
4174.104, 2693.613
4176.033, 2679.606
4177.961, 2680.880
4179.890, 2723.654
4181.818, 2709.349
4183.747, 2661.587
4185.675, 2651.427
4187.604, 2664.804
4189.532, 2707.128
4191.460, 2700.366
4193.389, 2668.665
4195.317, 2695.175
4197.246, 2715.690
4199.174, 2699.055
4201.103, 2701.071
4203.031, 2716.026
4204.959, 2714.568
4206.888, 2701.106
4208.816, 2676.323
4210.745, 2680.812
4212.673, 2697.804
4214.602, 2684.571
4216.530, 2675.760
4218.459, 2680.639
4220.387, 2677.672
4222.316, 2672.062
4224.244, 2665.360
4226.173, 2675.098
4228.101, 2706.233
4230.030, 2720.596
4231.958, 2721.833
4233.887, 2708.380
4235.815, 2707.404
4237.744, 2723.761
4239.672, 2705.543
4241.601, 2679.633
4243.529, 2674.445
4245.458, 2685.933
4247.386, 2708.280
4249.314, 2669.560
4251.243, 2643.766
4253.171, 2708.979
4255.100, 2721.852
4257.028, 2679.562
4258.957, 2662.670
4260.885, 2665.211
4262.813, 2688.569
4264.742, 2690.338
4266.670, 2677.789
4268.599, 2693.164
4270.527, 2699.689
4272.456, 2680.481
4274.384, 2681.421
4276.313, 2694.420
4278.241, 2696.593
4280.170, 2701.703
4282.098, 2712.915
4284.027, 2707.575
4285.955, 2699.257
4287.884, 2718.158
4289.812, 2702.521
4291.741, 2651.200
4293.669, 2648.989
4295.598, 2667.104
4297.526, 2686.105
4299.455, 2687.074
4301.383, 2673.411
4303.312, 2666.362
4305.240, 2658.143
4307.168, 2640.143
4309.097, 2672.757
4311.025, 2718.943
4312.954, 2669.260
4314.882, 2640.839
4316.811, 2669.848
4318.739, 2661.847
4320.667, 2646.489
4322.596, 2675.934
4324.524, 2682.179
4326.453, 2659.218
4328.381, 2656.019
4330.310, 2661.895
4332.238, 2675.033
4334.167, 2665.393
4336.095, 2642.498
4338.024, 2641.507
4339.952, 2651.531
4341.881, 2676.322
4343.809, 2656.214
4345.738, 2624.795
4347.666, 2647.437
4349.595, 2651.820
4351.523, 2624.115
4353.452, 2611.524
4355.380, 2611.287
4357.309, 2628.040
4359.237, 2627.579
4361.166, 2616.217
4363.094, 2634.432
4365.022, 2645.941
4366.951, 2635.763
4368.879, 2625.724
4370.808, 2612.981
4372.736, 2585.088
4374.665, 2575.061
4376.593, 2586.341
4378.521, 2609.519
4380.450, 2617.115
4382.378, 2583.296
4384.307, 2599.879
4386.235, 2638.951
4388.164, 2606.704
4390.092, 2578.475
4392.021, 2577.213
4393.949, 2573.282
4395.878, 2579.345
4397.806, 2619.803
4399.735, 2638.778
4401.663, 2635.941
4403.592, 2643.886
4405.520, 2645.400
4407.449, 2627.997
4409.377, 2624.567
4411.306, 2625.304
4413.234, 2613.163
4415.163, 2601.231
4417.091, 2592.621
4419.020, 2605.552
4420.948, 2614.412
4422.876, 2604.130
4424.805, 2588.267
4426.733, 2575.909
4428.662, 2583.903
4430.590, 2595.954
4432.519, 2605.842
4434.447, 2588.866
4436.375, 2569.388
4438.304, 2564.209
4440.232, 2576.659
4442.161, 2590.077
4444.089, 2556.091
4446.018, 2538.440
4447.946, 2554.315
4449.875, 2589.544
4451.803, 2606.081
4453.732, 2561.899
4455.660, 2543.376
4457.589, 2552.779
4459.517, 2595.322
4461.446, 2615.583
4463.374, 2603.350
4465.303, 2608.574
4467.231, 2606.403
4469.160, 2573.255
4471.088, 2558.166
4473.017, 2552.090
4474.945, 2520.253
4476.874, 2503.699
4478.802, 2512.905
4480.730, 2528.111
4482.659, 2535.892
4484.587, 2518.227
4486.516, 2536.429
4488.444, 2569.311
4490.373, 2570.693
4492.301, 2561.792
4494.229, 2550.717
4496.158, 2571.332
4498.086, 2587.017
4500.015, 2579.313
4501.943, 2554.492
4503.872, 2529.086
4505.800, 2526.071
4507.729, 2525.759
4509.657, 2525.177
4511.586, 2530.083
4513.514, 2532.957
4515.443, 2531.241
4517.371, 2520.605
4519.300, 2508.683
4521.228, 2501.882
4523.157, 2499.412
4525.085, 2503.215
4527.014, 2524.330
4528.942, 2539.833
4530.871, 2543.045
4532.799, 2536.097
4534.728, 2538.347
4536.656, 2578.374
4538.584, 2567.584
4540.513, 2530.747
4542.441, 2504.240
4544.370, 2508.870
4546.298, 2537.270
4548.227, 2541.647
4550.155, 2535.326
4552.083, 2524.282
4554.012, 2535.291
4555.940, 2549.110
4557.869, 2550.187
4559.797, 2521.749
4561.726, 2488.973
4563.654, 2523.409
4565.583, 2537.545
4567.511, 2519.510
4569.440, 2544.026
4571.368, 2550.230
4573.297, 2509.491
4575.225, 2515.051
4577.154, 2530.035
4579.082, 2496.821
4581.011, 2502.348
4582.939, 2532.459
4584.868, 2536.994
4586.796, 2532.210
4588.725, 2523.787
4590.653, 2534.211
4592.582, 2522.149
4594.510, 2466.931
4596.438, 2506.792
4598.367, 2557.893
4600.295, 2502.377
4602.224, 2518.113
4604.152, 2563.817
4606.081, 2511.511
4608.009, 2471.499
4609.938, 2464.637
4611.866, 2488.127
4613.794, 2510.446
4615.723, 2519.024
4617.651, 2498.291
4619.580, 2475.299
4621.508, 2474.709
4623.437, 2478.033
4625.365, 2480.329
4627.294, 2474.161
4629.222, 2467.886
4631.151, 2464.084
4633.079, 2467.784
4635.008, 2472.473
4636.936, 2475.798
4638.865, 2472.287
4640.793, 2474.999
4642.722, 2494.594
4644.650, 2475.238
4646.579, 2449.415
4648.507, 2446.640
4650.436, 2454.479
4652.364, 2464.762
4654.292, 2460.272
4656.221, 2482.921
4658.149, 2518.945
4660.078, 2477.195
4662.006, 2439.800
4663.935, 2430.802
4665.863, 2477.287
4667.792, 2501.719
4669.720, 2461.490
4671.648, 2457.263
4673.577, 2456.546
4675.505, 2417.244
4677.434, 2453.462
4679.362, 2498.531
4681.291, 2431.290
4683.219, 2408.747
4685.148, 2430.485
4687.076, 2449.417
4689.005, 2445.463
4690.933, 2423.255
4692.862, 2463.537
4694.790, 2473.529
4696.719, 2428.815
4698.647, 2410.492
4700.576, 2417.554
4702.504, 2456.043
4704.433, 2455.807
4706.361, 2440.545
4708.290, 2428.668
4710.218, 2444.024
4712.146, 2460.529
4714.075, 2427.143
4716.003, 2434.617
4717.932, 2464.294
4719.860, 2446.210
4721.789, 2419.569
4723.717, 2399.258
4725.646, 2428.768
4727.574, 2443.270
4729.502, 2431.331
4731.431, 2450.898
4733.359, 2464.274
4735.288, 2452.702
4737.216, 2434.998
4739.145, 2421.833
4741.073, 2420.041
4743.002, 2413.302
4744.930, 2408.306
4746.859, 2419.435
4748.787, 2396.732
4750.716, 2372.306
4752.644, 2396.372
4754.573, 2382.160
4756.501, 2358.585
4758.430, 2409.445
4760.358, 2421.145
4762.287, 2403.124
4764.215, 2442.363
4766.144, 2438.522
4768.072, 2394.268
4770.000, 2407.000
4771.929, 2411.277
4773.857, 2392.581
4775.786, 2404.958
4777.714, 2398.253
4779.643, 2361.263
4781.571, 2404.547
4783.500, 2437.813
4785.428, 2411.361
4787.356, 2406.719
4789.285, 2396.261
4791.213, 2359.566
4793.142, 2394.550
4795.070, 2430.211
4796.999, 2402.558
4798.927, 2376.255
4800.856, 2362.956
4802.784, 2375.258
4804.713, 2375.271
4806.641, 2367.463
4808.570, 2353.408
4810.498, 2374.491
4812.427, 2403.984
4814.355, 2389.177
4816.284, 2388.648
4818.212, 2393.700
4820.141, 2371.671
4822.069, 2347.890
4823.998, 2331.293
4825.926, 2334.551
4827.854, 2350.943
4829.783, 2369.656
4831.711, 2358.828
4833.640, 2355.847
4835.568, 2360.138
4837.497, 2326.856
4839.425, 2323.296
4841.354, 2353.148
4843.282, 2371.958
4845.210, 2385.459
4847.139, 2391.020
4849.067, 2349.790
4850.996, 2324.410
4852.924, 2324.854
4854.853, 2294.579
4856.781, 2287.756
4858.710, 2318.932
4860.638, 2336.319
4862.567, 2328.024
4864.495, 2297.953
4866.424, 2297.603
4868.352, 2323.735
4870.281, 2372.217
4872.209, 2357.384
4874.138, 2329.292
4876.066, 2308.322
4877.995, 2291.424
4879.923, 2297.102
4881.852, 2333.509
4883.780, 2314.394
4885.708, 2297.845
4887.637, 2305.528
4889.565, 2285.713
4891.494, 2279.471
4893.422, 2304.375
4895.351, 2313.741
4897.279, 2323.831
4899.208, 2340.915
4901.136, 2314.085
4903.064, 2293.773
4904.993, 2300.316
4906.921, 2305.953
4908.850, 2311.178
4910.778, 2316.327
4912.707, 2279.470
4914.635, 2269.438
4916.564, 2302.440
4918.492, 2270.620
4920.421, 2257.910
4922.349, 2296.385
4924.278, 2269.295
4926.206, 2258.208
4928.135, 2284.854
4930.063, 2302.066
4931.992, 2298.000
4933.920, 2272.786
4935.849, 2268.323
4937.777, 2267.180
4939.706, 2264.309
4941.634, 2262.959
4943.563, 2261.876
4945.491, 2259.903
4947.419, 2249.346
4949.348, 2250.870
4951.276, 2260.976
4953.205, 2235.345
4955.133, 2234.922
4957.062, 2254.632
4958.990, 2237.065
4960.918, 2226.118
4962.847, 2226.001
4964.775, 2224.337
4966.704, 2228.288
4968.632, 2237.531
4970.561, 2253.112
4972.489, 2249.948
4974.418, 2239.135
4976.346, 2242.763
4978.275, 2262.390
4980.203, 2267.926
4982.132, 2208.299
4984.060, 2222.493
4985.989, 2255.027
4987.917, 2219.380
4989.846, 2212.073
4991.774, 2221.637
4993.703, 2237.126
4995.631, 2222.134
4997.560, 2211.804
4999.488, 2231.130
5001.417, 2230.447
5003.345, 2209.712
5005.273, 2167.672
5007.202, 2179.169
5009.130, 2205.229
5011.059, 2224.322
5012.987, 2190.773
5014.916, 2158.892
5016.844, 2146.519
5018.772, 2145.592
5020.701, 2163.210
5022.629, 2186.759
5024.558, 2154.689
5026.486, 2163.294
5028.415, 2199.311
5030.343, 2196.999
5032.272, 2185.031
5034.200, 2169.238
5036.129, 2148.434
5038.057, 2152.181
5039.986, 2162.123
5041.914, 2156.109
5043.843, 2143.656
5045.771, 2137.042
5047.700, 2149.079
5049.628, 2133.411
5051.557, 2126.407
5053.485, 2144.747
5055.414, 2160.409
5057.342, 2153.751
5059.271, 2126.677
5061.199, 2135.151
5063.127, 2136.532
5065.056, 2130.249
5066.984, 2166.753
5068.913, 2173.511
5070.841, 2148.484
5072.770, 2102.531
5074.698, 2093.828
5076.626, 2110.045
5078.555, 2140.632
5080.483, 2130.353
5082.412, 2105.811
5084.340, 2089.230
5086.269, 2094.981
5088.197, 2090.383
5090.126, 2062.125
5092.054, 2071.936
5093.983, 2103.693
5095.911, 2140.054
5097.840, 2115.668
5099.768, 2105.431
5101.697, 2110.233
5103.625, 2083.445
5105.554, 2103.935
5107.482, 2132.808
5109.411, 2094.833
5111.339, 2088.089
5113.268, 2101.779
5115.196, 2122.969
5117.125, 2107.745
5119.053, 2096.123
5120.981, 2106.332
5122.910, 2114.829
5124.838, 2103.703
5126.767, 2078.898
5128.695, 2083.819
5130.624, 2096.211
5132.552, 2104.252
5134.480, 2090.729
5136.409, 2106.930
5138.337, 2120.225
5140.266, 2090.829
5142.194, 2038.906
5144.123, 2026.754
5146.051, 2078.055
5147.980, 2070.512
5149.908, 2060.325
5151.837, 2064.057
5153.765, 2075.337
5155.694, 2078.732
5157.622, 2071.533
5159.551, 2047.999
5161.479, 2045.948
5163.408, 2046.431
5165.336, 2029.900
5167.265, 2057.357
5169.193, 2068.046
5171.122, 2036.184
5173.050, 2039.573
5174.979, 2045.705
5176.907, 2046.024
5178.835, 2041.901
5180.764, 2041.569
5182.692, 2036.816
5184.621, 2012.447
5186.549, 2026.466
5188.478, 2036.712
5190.406, 2011.702
5192.334, 2038.476
5194.263, 2021.862
5196.191, 1961.337
5198.120, 1992.197
5200.048, 1993.246
5201.977, 1977.515
5203.905, 2004.261
5205.834, 2010.165
5207.762, 2008.354
5209.691, 2011.059
5211.619, 2014.295
5213.548, 2008.633
5215.476, 1991.122
5217.405, 1951.439
5219.333, 1951.125
5221.262, 1972.788
5223.190, 1969.111
5225.119, 1976.255
5227.047, 1979.473
5228.976, 1966.642
5230.904, 1962.705
5232.833, 1958.449
5234.761, 1951.834
5236.689, 1944.609
5238.618, 1963.821
5240.546, 1983.154
5242.475, 1955.550
5244.403, 1911.220
5246.332, 1892.476
5248.260, 1919.512
5250.188, 1920.493
5252.117, 1956.718
5254.045, 2006.424
5255.974, 1948.389
5257.902, 1914.550
5259.831, 1906.246
5261.759, 1907.110
5263.688, 1931.115
5265.616, 1948.374
5267.545, 1945.868
5269.473, 1925.697
5271.402, 1910.581
5273.330, 1912.447
5275.259, 1962.091
5277.187, 1940.498
5279.116, 1902.225
5281.044, 1889.040
5282.973, 1899.126
5284.901, 1893.352
5286.830, 1873.584
5288.758, 1876.584
5290.687, 1891.855
5292.615, 1908.029
5294.543, 1917.320
5296.472, 1896.003
5298.400, 1881.400
5300.329, 1886.140
5302.257, 1899.771
5304.186, 1895.915
5306.114, 1889.480
5308.042, 1906.949
5309.971, 1880.266
5311.899, 1865.146
5313.828, 1883.948
5315.756, 1846.355
5317.685, 1845.005
5319.613, 1870.260
5321.542, 1875.767
5323.470, 1858.678
5325.399, 1857.376
5327.327, 1884.954
5329.256, 1876.943
5331.184, 1837.226
5333.113, 1801.267
5335.041, 1843.759
5336.970, 1844.586
5338.898, 1844.855
5340.827, 1871.981
5342.755, 1860.573
5344.684, 1847.918
5346.612, 1843.247
5348.541, 1849.479
5350.469, 1824.813
5352.397, 1802.679
5354.326, 1806.735
5356.254, 1819.541
5358.183, 1823.546
5360.111, 1820.178
5362.040, 1819.284
5363.968, 1822.136
5365.896, 1821.037
5367.825, 1812.317
5369.753, 1800.787
5371.682, 1791.406
5373.610, 1790.888
5375.539, 1811.845
5377.467, 1834.949
5379.396, 1826.161
5381.324, 1778.629
5383.253, 1753.871
5385.181, 1771.216
5387.110, 1796.525
5389.038, 1783.150
5390.967, 1785.013
5392.895, 1786.743
5394.824, 1780.867
5396.752, 1772.732
5398.681, 1751.082
5400.609, 1743.844
5402.538, 1781.050
5404.466, 1777.146
5406.395, 1762.626
5408.323, 1754.396
5410.251, 1770.004
5412.180, 1750.750
5414.108, 1739.024
5416.037, 1765.074
5417.965, 1767.409
5419.894, 1755.533
5421.822, 1744.473
5423.750, 1755.770
5425.679, 1756.867
5427.607, 1748.993
5429.536, 1737.454
5431.464, 1735.581
5433.393, 1749.387
5435.321, 1753.045
5437.250, 1722.135
5439.178, 1711.157
5441.107, 1716.467
5443.035, 1725.091
5444.964, 1705.557
5446.892, 1713.316
5448.821, 1731.071
5450.749, 1742.252
5452.678, 1724.486
5454.606, 1710.054
5456.534, 1702.158
5458.463, 1697.553
5460.391, 1704.322
5462.320, 1704.544
5464.248, 1696.911
5466.177, 1692.503
5468.105, 1703.760
5470.034, 1700.497
5471.962, 1674.431
5473.891, 1707.034
5475.819, 1701.947
5477.748, 1680.743
5479.676, 1684.362
5481.604, 1681.431
5483.533, 1671.276
5485.461, 1659.003
5487.390, 1653.726
5489.318, 1653.774
5491.247, 1652.012
5493.175, 1647.605
5495.104, 1654.805
5497.032, 1667.134
5498.960, 1680.947
5500.889, 1690.262
5502.817, 1640.571
5504.746, 1628.304
5506.674, 1641.972
5508.603, 1632.928
5510.531, 1623.587
5512.460, 1622.673
5514.388, 1624.683
5516.317, 1598.407
5518.245, 1613.444
5520.174, 1643.260
5522.102, 1663.338
5524.031, 1644.299
5525.959, 1624.836
5527.888, 1614.719
5529.816, 1614.270
5531.745, 1602.274
5533.673, 1588.636
5535.602, 1586.367
5537.530, 1611.736
5539.458, 1607.346
5541.387, 1607.054
5543.315, 1608.427
5545.244, 1571.981
5547.172, 1575.565
5549.101, 1590.874
5551.029, 1600.475
5552.958, 1604.223
5554.886, 1576.065
5556.814, 1555.611
5558.743, 1565.525
5560.671, 1580.806
5562.600, 1602.310
5564.528, 1602.374
5566.457, 1559.905
5568.385, 1556.520
5570.314, 1540.780
5572.242, 1530.646
5574.171, 1561.868
5576.099, 1555.596
5578.028, 1554.725
5579.956, 1555.525
5581.885, 1534.175
5583.813, 1538.271
5585.742, 1542.633
5587.670, 1540.143
5589.599, 1536.980
5591.527, 1538.532
5593.456, 1532.156
5595.384, 1522.436
5597.313, 1546.202
5599.241, 1529.098
5601.169, 1525.918
5603.098, 1551.337
5605.026, 1550.999
5606.955, 1533.595
5608.883, 1511.789
5610.812, 1495.489
5612.740, 1497.053
5614.668, 1485.961
5616.597, 1500.019
5618.525, 1547.454
5620.454, 1515.119
5622.382, 1504.177
5624.311, 1506.973
5626.239, 1507.013
5628.168, 1519.681
5630.096, 1520.427
5632.025, 1512.467
5633.953, 1503.298
5635.882, 1508.415
5637.810, 1504.713
5639.739, 1485.681
5641.667, 1455.084
5643.596, 1459.779
5645.524, 1468.123
5647.453, 1469.153
5649.381, 1461.457
5651.310, 1469.636
5653.238, 1470.683
5655.167, 1472.651
5657.095, 1486.215
5659.023, 1491.959
5660.952, 1475.602
5662.880, 1455.957
5664.809, 1452.154
5666.737, 1437.917
5668.666, 1433.275
5670.594, 1443.540
5672.522, 1464.817
5674.451, 1448.366
5676.379, 1450.855
5678.308, 1456.673
5680.236, 1447.498
5682.165, 1458.322
5684.093, 1446.851
5686.022, 1430.983
5687.950, 1426.380
5689.879, 1390.481
5691.807, 1433.915
5693.736, 1466.714
5695.664, 1429.799
5697.593, 1436.837
5699.521, 1430.064
5701.450, 1409.426
5703.378, 1389.166
5705.307, 1408.047
5707.235, 1436.486
5709.164, 1448.375
5711.092, 1437.997
5713.021, 1425.034
5714.949, 1418.908
5716.877, 1422.285
5718.806, 1421.248
5720.734, 1379.620
5722.663, 1365.139
5724.591, 1383.548
5726.520, 1404.989
5728.448, 1367.245
5730.376, 1360.692
5732.305, 1381.688
5734.233, 1404.078
5736.162, 1387.823
5738.090, 1392.185
5740.019, 1389.615
5741.947, 1377.046
5743.876, 1361.402
5745.804, 1393.885
5747.733, 1379.917
5749.661, 1362.890
5751.590, 1384.113
5753.518, 1365.804
5755.447, 1371.490
5757.375, 1368.405
5759.304, 1341.962
5761.232, 1334.750
5763.161, 1352.939
5765.089, 1363.104
5767.018, 1356.484
5768.946, 1350.620
5770.875, 1344.562
5772.803, 1325.803
5774.731, 1311.466
5776.660, 1339.110
5778.588, 1318.174
5780.517, 1325.326
5782.445, 1343.998
5784.374, 1339.161
5786.302, 1334.922
5788.230, 1319.043
5790.159, 1314.592
5792.087, 1329.024
5794.016, 1328.421
5795.944, 1301.689
5797.873, 1296.394
5799.801, 1316.656
5801.730, 1326.896
5803.658, 1339.461
5805.587, 1330.633
5807.515, 1314.035
5809.444, 1312.659
5811.372, 1314.476
5813.301, 1311.186
5815.229, 1307.031
5817.158, 1305.318
5819.086, 1297.455
5821.015, 1321.834
5822.943, 1325.357
5824.872, 1298.055
5826.800, 1276.008
5828.729, 1275.515
5830.657, 1302.489
5832.585, 1325.378
5834.514, 1307.007
5836.442, 1277.468
5838.371, 1286.094
5840.299, 1298.091
5842.228, 1288.007
5844.156, 1267.983
5846.084, 1274.888
5848.013, 1266.290
5849.941, 1258.042
5851.870, 1297.787
5853.798, 1277.073
5855.727, 1256.933
5857.655, 1253.695
5859.584, 1259.159
5861.512, 1231.087
5863.441, 1232.305
5865.369, 1239.184
5867.298, 1243.284
5869.226, 1257.919
5871.155, 1267.694
5873.083, 1276.345
5875.012, 1286.936
5876.940, 1295.078
5878.869, 1249.833
5880.797, 1236.109
5882.726, 1225.482
5884.654, 1214.432
5886.583, 1252.232
5888.511, 1216.820
5890.439, 1204.951
5892.368, 1212.565
5894.296, 1209.999
5896.225, 1210.586
5898.153, 1219.279
5900.082, 1213.320
5902.010, 1198.187
5903.938, 1206.904
5905.867, 1185.608
5907.795, 1195.943
5909.724, 1209.998
5911.652, 1201.306
5913.581, 1227.073
5915.509, 1227.956
5917.438, 1205.784
5919.366, 1192.255
5921.295, 1221.009
5923.223, 1197.391
5925.152, 1190.559
5927.080, 1196.944
5929.009, 1203.516
5930.937, 1209.849
5932.866, 1194.942
5934.794, 1182.577
5936.723, 1180.383
5938.651, 1184.291
5940.580, 1171.900
5942.508, 1166.958
5944.437, 1175.103
5946.365, 1181.763
5948.293, 1163.522
5950.222, 1150.459
5952.150, 1168.787
5954.079, 1188.612
5956.007, 1186.337
5957.936, 1161.725
5959.864, 1131.029
5961.792, 1143.656
5963.721, 1160.533
5965.649, 1136.534
5967.578, 1124.960
5969.506, 1144.379
5971.435, 1144.145
5973.363, 1139.413
5975.292, 1185.224
5977.220, 1186.845
5979.149, 1156.012
5981.077, 1146.171
5983.006, 1159.455
5984.934, 1127.874
5986.863, 1159.302
5988.791, 1161.475
5990.720, 1137.524
5992.648, 1116.000
5994.577, 1129.669
5996.505, 1126.551
5998.434, 1147.075
6000.362, 1158.026
6002.291, 1130.991
6004.219, 1146.512
6006.147, 1109.882
6008.076, 1107.192
6010.004, 1117.951
6011.933, 1088.795
6013.861, 1110.445
6015.790, 1100.840
6017.718, 1086.455
6019.646, 1086.205
6021.575, 1101.710
6023.503, 1087.189
6025.432, 1086.550
6027.360, 1094.375
6029.289, 1099.108
6031.217, 1093.958
6033.146, 1113.207
6035.074, 1099.477
6037.003, 1082.276
6038.931, 1083.471
6040.860, 1103.187
6042.788, 1092.396
6044.717, 1082.540
6046.645, 1086.324
6048.574, 1089.718
6050.502, 1066.849
6052.431, 1085.334
6054.359, 1089.830
6056.288, 1075.175
6058.216, 1067.555
6060.145, 1100.619
6062.073, 1091.252
6064.001, 1076.641
6065.930, 1065.787
6067.858, 1059.813
6069.787, 1057.186
6071.715, 1018.499
6073.644, 1032.661
6075.572, 1061.134
6077.500, 1072.052
6079.429, 1061.900
6081.357, 1037.655
6083.286, 1029.272
6085.214, 1028.866
6087.143, 1026.656
6089.071, 1018.859
6091.000, 1009.859
6092.928, 1042.245
6094.857, 1044.656
6096.785, 1023.023
6098.714, 1023.473
6100.642, 1050.595
6102.571, 1016.674
6104.499, 1014.782
6106.428, 1037.816
6108.356, 1034.841
6110.285, 985.8080
6112.213, 996.3557
6114.142, 1002.528
6116.070, 1006.020
6117.999, 1017.475
6119.927, 1007.805
6121.855, 1020.901
6123.784, 998.1274
6125.712, 985.8928
6127.641, 1002.850
6129.569, 1005.398
6131.498, 1018.723
6133.426, 1028.124
6135.354, 1002.340
6137.283, 972.4883
6139.211, 994.0581
6141.140, 980.6814
6143.068, 968.1429
6144.997, 962.8907
6146.925, 973.2430
6148.854, 996.8572
6150.782, 984.6992
6152.711, 991.8896
6154.639, 983.1594
6156.568, 969.7191
6158.496, 965.4302
6160.425, 965.0700
6162.353, 955.8528
6164.282, 963.8729
6166.210, 970.3745
6168.139, 972.6726
6170.067, 981.5247
6171.996, 959.3911
6173.924, 964.6658
6175.853, 959.4312
6177.781, 943.1992
6179.709, 930.2990
6181.638, 923.4014
6183.566, 930.7803
6185.495, 940.5942
6187.423, 944.9030
6189.352, 947.8696
6191.280, 960.0128
6193.208, 968.3608
6195.137, 952.1616
6197.065, 912.8334
6198.994, 904.0045
6200.922, 941.6251
6202.851, 922.8542
6204.779, 940.8934
6206.708, 919.7241
6208.636, 901.0796
6210.565, 908.8818
6212.493, 926.3809
6214.422, 918.0003
6216.350, 932.3985
6218.279, 928.3862
6220.207, 922.2675
6222.136, 928.9805
6224.064, 926.6368
6225.993, 906.3264
6227.921, 893.6220
6229.850, 904.7515
6231.778, 905.0308
6233.707, 872.4074
6235.635, 879.8939
6237.563, 921.7240
6239.492, 912.4327
6241.420, 890.7133
6243.349, 883.1228
6245.277, 877.8726
6247.206, 883.3287
6249.134, 911.3853
6251.063, 896.0758
6252.991, 882.8319
6254.919, 895.0085
6256.848, 882.8925
6258.776, 880.8703
6260.705, 896.2167
6262.633, 900.2819
6264.562, 886.0291
6266.490, 863.8607
6268.419, 851.0522
6270.347, 851.3553
6272.276, 878.9526
6274.204, 871.9722
6276.133, 861.4252
6278.061, 882.9732
6279.990, 844.2544
6281.918, 852.7898
6283.847, 872.8530
6285.775, 874.5920
6287.704, 874.1176
6289.632, 888.0044
6291.561, 864.3818
6293.489, 847.4277
6295.417, 847.6459
6297.346, 861.1800
6299.274, 865.9838
6301.203, 854.7474
6303.131, 876.6218
6305.060, 852.8482
6306.988, 850.3797
6308.917, 856.9644
6310.845, 860.3905
6312.773, 859.8290
6314.702, 847.3374
6316.630, 838.9525
6318.559, 836.8250
6320.487, 822.6530
6322.416, 813.7255
6324.344, 826.3915
6326.273, 825.4679
6328.201, 815.7851
6330.130, 829.8944
6332.058, 828.6683
6333.987, 821.4690
6335.915, 828.2742
6337.844, 832.4208
6339.772, 811.4796
6341.701, 823.8775
6343.629, 832.9944
6345.558, 825.1104
6347.486, 813.1116
6349.415, 815.8011
6351.343, 811.6927
6353.271, 794.0617
6355.200, 788.7343
6357.128, 797.9667
6359.057, 806.9396
6360.985, 802.1791
6362.914, 795.4478
6364.842, 783.2454
6366.771, 787.5206
6368.699, 806.2087
6370.627, 814.1934
6372.556, 793.5291
6374.484, 764.8401
6376.413, 752.1982
6378.341, 789.2621
6380.270, 794.4521
6382.198, 773.5095
6384.127, 765.2343
6386.055, 783.4908
6387.984, 790.9321
6389.912, 780.3161
6391.841, 766.5060
6393.769, 784.2281
6395.698, 805.0715
6397.626, 787.2549
6399.555, 766.4053
6401.483, 779.2122
6403.412, 775.8725
6405.340, 764.1730
6407.269, 745.0320
6409.197, 739.4224
6411.125, 776.5007
6413.054, 785.2532
6414.982, 778.2491
6416.911, 758.4390
6418.839, 743.9348
6420.768, 749.4028
6422.696, 763.8448
6424.625, 740.7786
6426.553, 760.7161
6428.481, 752.1268
6430.410, 770.9062
6432.338, 764.5149
6434.267, 738.7634
6436.195, 746.2440
6438.124, 750.0854
6440.052, 753.7942
6441.981, 747.5212
6443.909, 750.5486
6445.838, 741.7352
6447.766, 721.2250
6449.695, 718.5580
6451.623, 731.4800
6453.552, 727.7379
6455.480, 724.1915
6457.409, 719.8254
6459.337, 712.9840
6461.266, 708.0500
6463.194, 712.5798
6465.123, 734.6953
6467.051, 715.1224
6468.979, 711.9598
6470.908, 724.2181
6472.836, 738.2969
6474.765, 747.8502
6476.693, 749.9191
6478.622, 726.4965
6480.550, 714.7344
6482.479, 734.3811
6484.407, 734.9222
6486.335, 706.5757
6488.264, 682.3819
6490.192, 694.1417
6492.121, 708.9287
6494.049, 713.1846
6495.978, 710.2339
6497.906, 703.5754
6499.835, 707.2677
6501.763, 712.6566
6503.692, 702.3752
6505.620, 689.5455
6507.549, 687.0115
6509.477, 706.1596
6511.406, 685.2089
6513.334, 681.3994
6515.263, 710.1415
6517.191, 724.6703
6519.120, 693.1695
6521.048, 703.2955
6522.977, 690.3754
6524.905, 683.1238
6526.833, 692.6136
6528.762, 685.9984
6530.690, 666.0140
6532.619, 672.6375
6534.547, 689.8664
6536.476, 661.9979
6538.404, 672.5310
6540.333, 652.5449
6542.261, 664.4984
6544.189, 690.0691
6546.118, 684.1480
6548.046, 696.1613
6549.975, 657.4146
6551.903, 663.4603
6553.832, 674.9855
6555.760, 654.5316
6557.689, 634.0191
6559.617, 635.8266
6561.546, 648.0997
6563.474, 644.3233
6565.403, 658.1060
6567.331, 641.0026
6569.260, 637.9081
6571.188, 633.3962
6573.117, 624.3553
6575.045, 618.5480
6576.974, 627.1414
6578.902, 618.8210
6580.831, 623.4187
6582.759, 617.6974
6584.688, 600.2588
6586.616, 605.9092
6588.544, 614.2222
6590.473, 596.0323
6592.401, 598.8781
6594.330, 580.8107
6596.258, 581.9705
6598.187, 575.1296
6600.115, 572.5229
6602.043, 570.8322
6603.972, 569.6369
6605.900, 565.2485
6607.829, 567.5731
6609.757, 568.1696
6611.686, 567.0746
6613.614, 549.5533
6615.543, 539.4483
6617.471, 534.9018
6619.400, 543.6653
6621.328, 554.3533
6623.257, 531.2429
6625.185, 565.9798
6627.114, 524.9250
6629.042, 525.9443
6630.971, 546.3868
##END=



