##NAMES=Fluorcalciopyrochlore
##RRUFFID=R060288
##IDEAL CHEMISTRY=(Ca,Na)_2_(Nb,Ti)_2_O_6_F
##LOCALITY=Tatarka River, Krasnoyarskiy Kray, Siberia, Russia
##OWNER=RRUFF
##SOURCE=Herb Obodda
##DESCRIPTION=Brown fragment
##STATUS=The identification of this mineral is confirmed by single-crystal X-ray diffraction and chemical analysis
##URL=https://www.rruff.net/odr/rruff_sample/R060288
##MEASURED CHEMISTRY=(Ca_0.95_Na_0.90_Sr_0.06_Ce_0.01_)(Nb_1.96_Ti_0.04_)O_6_F_0.91_
##DIFFRACTION SAMPLE DESCRIPTION=Single crystal, powder profile is calculated
##CELL PARAMETERS=a: 10.4 b: 10.4 c: 10.4 alpha: 90 beta: 90 gamma: 90 volume: 1124.9 crystal system: cubic
##FILETYPE=Raman RAW
##RAMAN WAVELENGTH=780

93.34912, 112572.2
95.27759, 111085.1
97.20605, 109458.4
99.13452, 108158.5
101.0630, 107135.8
102.9915, 106256.9
104.9199, 105399.4
106.8484, 104771.6
108.7769, 104229.4
110.7053, 103882.3
112.6338, 103683.6
114.5623, 103576.1
116.4907, 103714.3
118.4192, 103982.2
120.3477, 104459.0
122.2761, 105233.0
124.2046, 106070.7
126.1331, 106772.2
128.0615, 107338.6
129.9900, 108012.7
131.9185, 108822.0
133.8469, 109607.6
135.7754, 110317.3
137.7039, 111001.0
139.6323, 111673.0
141.5608, 112339.5
143.4893, 113067.1
145.4177, 113873.1
147.3462, 114663.2
149.2747, 115402.3
151.2031, 116134.9
153.1316, 116882.5
155.0601, 117638.7
156.9885, 118366.1
158.9170, 119027.5
160.8455, 119853.9
162.7739, 120996.8
164.7024, 122160.4
166.6309, 123167.3
168.5593, 124108.4
170.4878, 125182.7
172.4163, 126398.9
174.3447, 127595.8
176.2732, 128663.4
178.2017, 129879.1
180.1301, 131336.9
182.0586, 132982.4
183.9871, 134781.2
185.9155, 136731.9
187.8440, 138703.9
189.7725, 140664.4
191.7009, 142726.6
193.6294, 144979.1
195.5579, 147303.0
197.4863, 149599.4
199.4148, 151881.2
201.3433, 154209.1
203.2717, 156579.3
205.2002, 158973.2
207.1287, 161428.6
209.0571, 163855.6
210.9856, 166255.7
212.9141, 168577.5
214.8425, 170723.5
216.7710, 172701.9
218.6995, 174519.3
220.6279, 176108.8
222.5564, 177630.5
224.4849, 179306.2
226.4133, 180822.1
228.3418, 181725.0
230.2703, 182122.3
232.1987, 182340.3
234.1272, 182297.5
236.0557, 182336.6
237.9841, 182586.5
239.9126, 182856.7
241.8411, 183018.3
243.7695, 183110.4
245.6980, 183175.5
247.6265, 183184.0
249.5549, 183405.2
251.4834, 183905.0
253.4119, 184594.7
255.3403, 185450.8
257.2688, 186511.0
259.1973, 187846.5
261.1257, 189422.8
263.0542, 191077.2
264.9827, 192738.5
266.9111, 194620.7
268.8396, 196763.5
270.7681, 199075.6
272.6965, 201602.6
274.6250, 204217.2
276.5535, 206689.4
278.4819, 208969.6
280.4104, 211583.6
282.3389, 214855.3
284.2673, 218035.2
286.1958, 220988.3
288.1243, 223849.1
290.0527, 226727.9
291.9812, 229583.4
293.9097, 232315.6
295.8381, 234940.1
297.7666, 237341.4
299.6951, 239531.6
301.6235, 241487.2
303.5520, 243208.4
305.4805, 244662.4
307.4089, 245775.9
309.3374, 246611.4
311.2659, 247475.1
313.1943, 248324.8
315.1228, 249345.0
317.0513, 250567.0
318.9797, 251910.5
320.9082, 253325.0
322.8367, 254862.8
324.7651, 256587.4
326.6936, 258482.9
328.6221, 260436.0
330.5505, 262403.6
332.4790, 264575.5
334.4075, 266983.8
336.3359, 269583.2
338.2644, 272391.0
340.1929, 275354.8
342.1213, 278450.0
344.0498, 281665.7
345.9783, 284937.8
347.9067, 288255.6
349.8352, 291674.3
351.7637, 295304.3
353.6921, 298809.0
355.6206, 302061.6
357.5491, 305127.1
359.4775, 308101.8
361.4060, 310951.1
363.3345, 313488.0
365.2629, 315731.8
367.1914, 317739.1
369.1199, 319495.7
371.0483, 321054.3
372.9768, 322465.3
374.9053, 323651.2
376.8337, 324534.2
378.7622, 325127.9
380.6907, 325477.7
382.6191, 325588.2
384.5476, 325418.7
386.4761, 324881.7
388.4045, 324304.0
390.3330, 323766.5
392.2615, 323250.5
394.1899, 322808.8
396.1184, 322359.2
398.0469, 321656.7
399.9753, 320800.1
401.9038, 320308.3
403.8323, 320299.8
405.7607, 320260.4
407.6892, 319882.0
409.6177, 319710.1
411.5461, 319993.8
413.4746, 320487.1
415.4031, 321055.2
417.3315, 321615.9
419.2600, 321947.1
421.1885, 322030.9
423.1169, 322201.7
425.0454, 322688.7
426.9739, 322953.9
428.9023, 322787.9
430.8308, 322555.0
432.7593, 322457.1
434.6877, 322422.9
436.6162, 322357.2
438.5447, 322266.2
440.4731, 322181.5
442.4016, 322099.9
444.3301, 322008.4
446.2585, 321979.8
448.1870, 321823.5
450.1155, 321372.2
452.0439, 320909.4
453.9724, 320729.0
455.9009, 320622.8
457.8293, 320302.8
459.7578, 319765.9
461.6863, 319062.9
463.6147, 318062.0
465.5432, 317138.5
467.4717, 316542.2
469.4001, 315685.8
471.3286, 314268.9
473.2571, 312654.7
475.1855, 311115.8
477.1140, 309548.9
479.0425, 307750.5
480.9709, 305703.8
482.8994, 303618.0
484.8279, 301531.2
486.7563, 299249.3
488.6848, 296613.9
490.6133, 294062.0
492.5417, 291796.8
494.4702, 289621.8
496.3987, 287434.0
498.3271, 285238.7
500.2556, 283019.3
502.1841, 280786.1
504.1125, 278664.7
506.0410, 276635.7
507.9695, 274837.3
509.8979, 273339.0
511.8264, 271913.0
513.7549, 270480.2
515.6833, 269105.8
517.6118, 267736.6
519.5403, 266501.4
521.4688, 265556.9
523.3972, 264871.8
525.3257, 264404.7
527.2542, 264175.0
529.1826, 263713.6
531.1111, 262948.6
533.0396, 262253.3
534.9680, 261719.5
536.8965, 261268.0
538.8250, 260979.9
540.7534, 260610.6
542.6819, 259935.0
544.6104, 259286.5
546.5388, 258278.0
548.4673, 257495.0
550.3958, 256493.6
552.3242, 255276.4
554.2527, 254115.3
556.1812, 253071.0
558.1096, 252049.9
560.0381, 250980.3
561.9666, 249996.0
563.8950, 249201.8
565.8235, 248430.9
567.7520, 247471.5
569.6804, 246461.7
571.6089, 245690.2
573.5374, 245092.9
575.4658, 244477.7
577.3943, 243843.3
579.3228, 243153.7
581.2512, 242327.6
583.1797, 241677.8
585.1082, 241373.3
587.0366, 241097.5
588.9651, 240721.7
590.8936, 240359.7
592.8220, 240100.9
594.7505, 239893.3
596.6790, 239705.0
598.6074, 239495.3
600.5359, 239145.1
602.4644, 238647.8
604.3928, 238134.7
606.3213, 237693.7
608.2498, 237024.3
610.1782, 236087.2
612.1067, 234972.4
614.0352, 233733.9
615.9636, 232287.3
617.8921, 230494.9
619.8206, 228569.1
621.7490, 226737.6
623.6775, 224897.7
625.6060, 222887.3
627.5344, 220709.1
629.4629, 218341.4
631.3914, 215711.4
633.3198, 213180.2
635.2483, 210850.9
637.1768, 208406.7
639.1052, 205753.8
641.0337, 203121.2
642.9622, 200623.6
644.8906, 198085.9
646.8191, 195306.5
648.7476, 192545.3
650.6760, 190025.4
652.6045, 187654.2
654.5330, 185289.8
656.4614, 182930.7
658.3899, 180567.9
660.3184, 178189.1
662.2468, 175897.8
664.1753, 173737.3
666.1038, 171455.6
668.0322, 168900.3
669.9607, 166656.0
671.8892, 165059.1
673.8176, 163503.4
675.7461, 161719.9
677.6746, 159868.0
679.6030, 157950.3
681.5315, 156083.3
683.4600, 154390.3
685.3884, 152834.8
687.3169, 151394.0
689.2454, 150038.5
691.1738, 148550.8
693.1023, 146938.3
695.0308, 145364.9
696.9592, 143845.7
698.8877, 142344.9
700.8162, 140845.4
702.7446, 139402.4
704.6731, 138047.8
706.6016, 136718.4
708.5300, 135351.7
710.4585, 134050.3
712.3870, 132927.8
714.3154, 131843.9
716.2439, 130616.8
718.1724, 129620.5
720.1008, 128384.2
722.0293, 127541.7
723.9578, 126550.9
725.8862, 125453.7
727.8147, 124491.5
729.7432, 123669.6
731.6716, 122777.8
733.6001, 121767.1
735.5286, 120818.4
737.4570, 119977.5
739.3855, 119182.3
741.3140, 118446.6
743.2424, 117731.9
745.1709, 117036.7
747.0994, 116354.4
749.0278, 115689.3
750.9563, 115018.7
752.8848, 114269.3
754.8132, 113542.6
756.7417, 112992.8
758.6702, 112529.7
760.5986, 111968.1
762.5271, 111372.6
764.4556, 111003.1
766.3840, 110844.2
768.3125, 110534.4
770.2410, 110022.6
772.1694, 109592.4
774.0979, 109204.5
776.0264, 109024.6
777.9548, 109265.7
779.8833, 109341.9
781.8118, 109042.8
783.7402, 108815.2
785.6687, 108768.8
787.5972, 108811.9
789.5256, 108931.4
791.4541, 109087.1
793.3826, 109258.2
795.3110, 109452.3
797.2395, 109649.0
799.1680, 109901.3
801.0964, 110310.3
803.0249, 110801.2
804.9534, 111222.4
806.8818, 111602.8
808.8103, 112041.9
810.7388, 112536.3
812.6672, 113005.3
814.5957, 113435.4
816.5242, 114064.1
818.4526, 114940.8
820.3811, 115627.7
822.3096, 116054.0
824.2380, 116564.0
826.1665, 117225.9
828.0950, 117840.6
830.0234, 118345.2
831.9519, 118851.5
833.8804, 119356.2
835.8088, 119955.4
837.7373, 120752.8
839.6658, 121555.8
841.5942, 122227.7
843.5227, 122951.3
845.4512, 123875.1
847.3796, 124846.0
849.3081, 125752.0
851.2366, 126628.4
853.1650, 127433.1
855.0935, 128295.4
857.0220, 129476.0
858.9504, 130825.6
860.8789, 132035.9
862.8074, 133162.0
864.7358, 134371.5
866.6643, 135643.4
868.5928, 136903.2
870.5212, 138151.5
872.4497, 139373.4
874.3782, 140574.7
876.3066, 141890.2
878.2351, 143123.7
880.1636, 144375.9
882.0920, 145718.0
884.0205, 146921.4
885.9490, 148315.7
887.8774, 149689.6
889.8059, 151053.4
891.7344, 152314.0
893.6628, 153318.3
895.5913, 154455.9
897.5198, 155918.6
899.4482, 157276.8
901.3767, 158308.7
903.3052, 159403.5
905.2336, 160747.1
907.1621, 162092.2
909.0906, 163336.4
911.0190, 164551.5
912.9475, 165750.4
914.8760, 166970.7
916.8044, 168184.8
918.7329, 169496.3
920.6614, 171043.7
922.5898, 172661.5
924.5183, 174214.1
926.4468, 175769.1
928.3752, 177367.0
930.3037, 179025.0
932.2322, 180748.3
934.1606, 182546.9
936.0891, 184429.4
938.0176, 186393.2
939.9460, 188416.2
941.8745, 190539.5
943.8030, 192916.5
945.7314, 195205.2
947.6599, 197878.0
949.5884, 200249.1
951.5168, 202913.0
953.4453, 205817.1
955.3738, 208706.8
957.3022, 211582.6
959.2307, 214382.5
961.1592, 217132.2
963.0876, 220282.5
965.0161, 223812.5
966.9446, 227115.4
968.8730, 230183.3
970.8015, 233211.6
972.7300, 236194.8
974.6584, 239322.2
976.5869, 242598.9
978.5154, 245838.5
980.4438, 249039.1
982.3723, 252216.8
984.3008, 255373.9
986.2292, 258505.4
988.1577, 261614.8
990.0862, 264648.4
992.0146, 267600.1
993.9431, 270591.8
995.8716, 273639.5
997.8000, 276685.4
999.7285, 279704.1
1001.657, 282834.7
1003.585, 286108.7
1005.514, 289295.7
1007.442, 292314.0
1009.371, 295515.2
1011.299, 299010.1
1013.228, 302299.3
1015.156, 305205.1
1017.085, 308440.3
1019.013, 312179.4
1020.942, 316009.5
1022.870, 319896.4
1024.799, 323811.0
1026.727, 327680.6
1028.656, 331755.1
1030.584, 336136.4
1032.512, 340492.6
1034.441, 344692.3
1036.369, 349151.9
1038.298, 354139.2
1040.226, 358926.4
1042.155, 363178.8
1044.083, 367832.8
1046.012, 373220.7
1047.940, 378441.2
1049.869, 383257.4
1051.797, 388235.7
1053.726, 393514.5
1055.654, 398702.5
1057.583, 403856.9
1059.511, 408797.1
1061.439, 413271.6
1063.368, 418132.3
1065.296, 423634.4
1067.225, 429053.8
1069.153, 434331.3
1071.082, 439624.7
1073.010, 444906.9
1074.939, 450291.8
1076.867, 455839.2
1078.796, 461157.9
1080.724, 466583.2
1082.653, 472023.7
1084.581, 477280.5
1086.510, 482910.6
1088.438, 488148.1
1090.366, 493680.6
1092.295, 499583.4
1094.223, 505593.5
1096.152, 511681.4
1098.080, 518250.6
1100.009, 525315.3
1101.937, 532822.2
1103.866, 540350.9
1105.794, 548667.6
1107.723, 556523.7
1109.651, 564879.8
1111.580, 573730.6
1113.508, 583048.6
1115.437, 592829.8
1117.365, 602868.5
1119.293, 613434.6
1121.222, 624180.8
1123.150, 635691.4
1125.079, 647546.8
1127.007, 659667.2
1128.936, 671597.6
1130.864, 684562.9
1132.793, 696904.4
1134.721, 710885.6
1136.650, 724441.0
1138.578, 737944.8
1140.507, 751953.9
1142.435, 766556.9
1144.364, 782072.9
1146.292, 798089.1
1148.220, 814128.4
1150.149, 830193.0
1152.077, 846253.4
1154.006, 862233.8
1155.934, 877668.3
1157.863, 893395.4
1159.791, 910553.6
1161.720, 927736.8
1163.648, 943808.3
1165.577, 959842.8
1167.505, 976261.9
1169.434, 993292.2
1171.362, 1011061.
1173.291, 1029536.
1175.219, 1048754.
1177.147, 1068563.
1179.076, 1088793.
1181.004, 1109723.
1182.933, 1131176.
1184.861, 1153665.
1186.790, 1177283.
1188.718, 1201898.
1190.647, 1227256.
1192.575, 1254499.
1194.504, 1283796.
1196.432, 1314957.
1198.361, 1347929.
1200.289, 1382800.
1202.218, 1419499.
1204.146, 1458033.
1206.074, 1498354.
1208.003, 1540256.
1209.931, 1583699.
1211.860, 1628934.
1213.788, 1675373.
1215.717, 1721327.
1217.645, 1766906.
1219.574, 1812297.
1221.502, 1857180.
1223.431, 1901208.
1225.359, 1944199.
1227.288, 1986373.
1229.216, 2026707.
1231.145, 2065272.
1233.073, 2100193.
1235.001, 2130513.
1236.930, 2156593.
1238.858, 2179433.
1240.787, 2196742.
1242.715, 2207389.
1244.644, 2213384.
1246.572, 2214523.
1248.501, 2213367.
1250.429, 2210240.
1252.358, 2204828.
1254.286, 2196850.
1256.215, 2190247.
1258.143, 2185409.
1260.072, 2182592.
1262.000, 2181940.
1263.928, 2183410.
1265.857, 2187639.
1267.785, 2196486.
1269.714, 2209920.
1271.642, 2228419.
1273.571, 2250502.
1275.499, 2273693.
1277.428, 2299163.
1279.356, 2328031.
1281.285, 2359763.
1283.213, 2393812.
1285.142, 2430618.
1287.070, 2471124.
1288.999, 2513294.
1290.927, 2556679.
1292.855, 2601242.
1294.784, 2646699.
1296.712, 2693176.
1298.641, 2741075.
1300.569, 2789503.
1302.498, 2839537.
1304.426, 2891002.
1306.355, 2943779.
1308.283, 2995875.
1310.212, 3047173.
1312.140, 3097354.
1314.069, 3146640.
1315.997, 3195791.
1317.926, 3244152.
1319.854, 3291405.
1321.782, 3336867.
1323.711, 3379860.
1325.639, 3421568.
1327.568, 3462690.
1329.496, 3502686.
1331.425, 3541597.
1333.353, 3578159.
1335.282, 3611550.
1337.210, 3645136.
1339.139, 3679693.
1341.067, 3710335.
1342.996, 3736803.
1344.924, 3764844.
1346.853, 3794149.
1348.781, 3823009.
1350.709, 3854281.
1352.638, 3884804.
1354.566, 3918787.
1356.495, 3951734.
1358.423, 3986121.
1360.352, 4024613.
1362.280, 4064277.
1364.209, 4103915.
1366.137, 4143821.
1368.066, 4183741.
1369.994, 4224025.
1371.923, 4264617.
1373.851, 4306369.
1375.780, 4345380.
1377.708, 4387902.
1379.636, 4423697.
1381.565, 4461493.
1383.493, 4499711.
1385.422, 4534758.
1387.350, 4567547.
1389.279, 4598411.
1391.207, 4627562.
1393.136, 4655290.
1395.064, 4680247.
1396.993, 4702291.
1398.921, 4720531.
1400.850, 4734959.
1402.778, 4745951.
1404.707, 4753354.
1406.635, 4761062.
1408.563, 4769005.
1410.492, 4775282.
1412.420, 4780336.
1414.349, 4784271.
1416.277, 4789330.
1418.206, 4798988.
1420.134, 4809771.
1422.063, 4818253.
1423.991, 4828557.
1425.920, 4841415.
1427.848, 4858275.
1429.777, 4880493.
1431.705, 4902388.
1433.634, 4923489.
1435.562, 4945676.
1437.490, 4969202.
1439.419, 4995121.
1441.347, 5023002.
1443.276, 5052807.
1445.204, 5082679.
1447.133, 5111679.
1449.061, 5138201.
1450.990, 5160580.
1452.918, 5183251.
1454.847, 5205052.
1456.775, 5224781.
1458.704, 5245121.
1460.632, 5261971.
1462.561, 5279898.
1464.489, 5296072.
1466.417, 5310182.
1468.346, 5320964.
1470.274, 5329697.
1472.203, 5338957.
1474.131, 5344512.
1476.060, 5343293.
1477.988, 5338803.
1479.917, 5331804.
1481.845, 5321953.
1483.774, 5309520.
1485.702, 5294680.
1487.631, 5278603.
1489.559, 5264513.
1491.488, 5252799.
1493.416, 5244500.
1495.344, 5237616.
1497.273, 5230543.
1499.201, 5223160.
1501.130, 5213993.
1503.058, 5207846.
1504.987, 5206364.
1506.915, 5205196.
1508.844, 5204753.
1510.772, 5208001.
1512.701, 5211064.
1514.629, 5217892.
1516.558, 5222648.
1518.486, 5230341.
1520.415, 5239245.
1522.343, 5249730.
1524.271, 5257896.
1526.200, 5262755.
1528.128, 5265424.
1530.057, 5266144.
1531.985, 5265755.
1533.914, 5264104.
1535.842, 5260163.
1537.771, 5254501.
1539.699, 5248183.
1541.628, 5240038.
1543.556, 5229755.
1545.485, 5216572.
1547.413, 5199514.
1549.342, 5182366.
1551.270, 5165122.
1553.198, 5145173.
1555.127, 5122331.
1557.055, 5096034.
1558.984, 5067821.
1560.912, 5039673.
1562.841, 5010811.
1564.769, 4983045.
1566.698, 4952078.
1568.626, 4926493.
1570.555, 4899002.
1572.483, 4869409.
1574.412, 4843637.
1576.340, 4818778.
1578.269, 4789696.
1580.197, 4758463.
1582.125, 4726522.
1584.054, 4693875.
1585.982, 4659966.
1587.911, 4628065.
1589.839, 4598294.
1591.768, 4566273.
1593.696, 4531947.
1595.625, 4496444.
1597.553, 4459556.
1599.482, 4420163.
1601.410, 4380906.
1603.339, 4343177.
1605.267, 4306235.
1607.196, 4270133.
1609.124, 4232089.
1611.052, 4192707.
1612.981, 4155851.
1614.909, 4120264.
1616.838, 4084576.
1618.766, 4048560.
1620.695, 4012067.
1622.623, 3974861.
1624.552, 3935828.
1626.480, 3898990.
1628.409, 3864061.
1630.337, 3828982.
1632.266, 3793532.
1634.194, 3756410.
1636.123, 3721160.
1638.051, 3691471.
1639.979, 3661112.
1641.908, 3628222.
1643.836, 3595706.
1645.765, 3563736.
1647.693, 3533239.
1649.622, 3504326.
1651.550, 3478794.
1653.479, 3451947.
1655.407, 3420627.
1657.336, 3388903.
1659.264, 3357624.
1661.193, 3326256.
1663.121, 3294828.
1665.050, 3264056.
1666.978, 3233508.
1668.906, 3202804.
1670.835, 3171837.
1672.763, 3140525.
1674.692, 3109491.
1676.620, 3078870.
1678.549, 3049807.
1680.477, 3022056.
1682.406, 2995785.
1684.334, 2969254.
1686.263, 2940310.
1688.191, 2911119.
1690.120, 2882450.
1692.048, 2854181.
1693.977, 2826461.
1695.905, 2800017.
1697.833, 2774011.
1699.762, 2746615.
1701.690, 2719015.
1703.619, 2691461.
1705.547, 2665249.
1707.476, 2640930.
1709.404, 2614642.
1711.333, 2586766.
1713.261, 2558875.
1715.190, 2531188.
1717.118, 2504140.
1719.047, 2476929.
1720.975, 2449865.
1722.904, 2423184.
1724.832, 2396127.
1726.760, 2369921.
1728.689, 2343289.
1730.617, 2316573.
1732.546, 2289413.
1734.474, 2262213.
1736.403, 2234953.
1738.331, 2207385.
1740.260, 2180491.
1742.188, 2153287.
1744.117, 2126947.
1746.045, 2100925.
1747.974, 2074788.
1749.902, 2049040.
1751.831, 2023696.
1753.759, 1999879.
1755.688, 1977251.
1757.616, 1954519.
1759.544, 1932270.
1761.473, 1911413.
1763.401, 1890312.
1765.330, 1868365.
1767.258, 1847223.
1769.187, 1826841.
1771.115, 1806026.
1773.044, 1785676.
1774.972, 1767539.
1776.901, 1749362.
1778.829, 1730495.
1780.758, 1712538.
1782.686, 1695572.
1784.615, 1678889.
1786.543, 1662393.
1788.471, 1646064.
1790.400, 1629516.
1792.328, 1612574.
1794.257, 1595406.
1796.185, 1578104.
1798.114, 1560919.
1800.042, 1543989.
1801.971, 1527471.
1803.899, 1511337.
1805.828, 1495553.
1807.756, 1480285.
1809.685, 1465527.
1811.613, 1451563.
1813.542, 1437778.
1815.470, 1423328.
1817.398, 1409351.
1819.327, 1396560.
1821.255, 1383402.
1823.184, 1370019.
1825.112, 1357248.
1827.041, 1344891.
1828.969, 1332486.
1830.898, 1320957.
1832.826, 1310859.
1834.755, 1299852.
1836.683, 1288299.
1838.612, 1277646.
1840.540, 1267206.
1842.469, 1256471.
1844.397, 1246621.
1846.325, 1238143.
1848.254, 1229029.
1850.182, 1219680.
1852.111, 1210799.
1854.039, 1202140.
1855.968, 1193723.
1857.896, 1185297.
1859.825, 1177881.
1861.753, 1170556.
1863.682, 1163550.
1865.610, 1157168.
1867.539, 1151362.
1869.467, 1146115.
1871.396, 1141746.
1873.324, 1138068.
1875.252, 1134135.
1877.181, 1130748.
1879.109, 1128892.
1881.038, 1126853.
1882.966, 1124530.
1884.895, 1124651.
1886.823, 1125896.
1888.752, 1125719.
1890.680, 1125934.
1892.609, 1127343.
1894.537, 1129408.
1896.466, 1131904.
1898.394, 1134043.
1900.323, 1136191.
1902.251, 1138861.
1904.179, 1141353.
1906.108, 1143544.
1908.036, 1145941.
1909.965, 1148087.
1911.893, 1149208.
1913.822, 1149724.
1915.750, 1149909.
1917.679, 1149078.
1919.607, 1147278.
1921.536, 1144670.
1923.464, 1141512.
1925.393, 1137881.
1927.321, 1134198.
1929.250, 1130562.
1931.178, 1126868.
1933.106, 1123376.
1935.035, 1120252.
1936.963, 1118077.
1938.892, 1117122.
1940.820, 1116831.
1942.749, 1117460.
1944.677, 1120704.
1946.606, 1123961.
1948.534, 1125647.
1950.463, 1127890.
1952.391, 1130813.
1954.320, 1133299.
1956.248, 1135955.
1958.177, 1139608.
1960.105, 1143328.
1962.033, 1147119.
1963.962, 1152442.
1965.890, 1158507.
1967.819, 1163406.
1969.747, 1170082.
1971.676, 1179278.
1973.604, 1188071.
1975.533, 1196152.
1977.461, 1203644.
1979.390, 1210213.
1981.318, 1216616.
1983.247, 1221381.
1985.175, 1227432.
1987.104, 1232611.
1989.032, 1236606.
1990.960, 1239267.
1992.889, 1240015.
1994.817, 1238604.
1996.746, 1233552.
1998.674, 1225803.
2000.603, 1215613.
2002.531, 1204210.
2004.460, 1191972.
2006.388, 1180787.
2008.317, 1171146.
2010.245, 1162707.
2012.174, 1157359.
2014.102, 1155467.
2016.031, 1156104.
2017.959, 1158633.
2019.887, 1162736.
2021.816, 1167008.
2023.744, 1171230.
2025.673, 1175728.
2027.601, 1179986.
2029.530, 1183261.
2031.458, 1185272.
2033.387, 1185800.
2035.315, 1184432.
2037.244, 1181185.
2039.172, 1175693.
2041.101, 1169061.
2043.029, 1161650.
2044.958, 1153144.
2046.886, 1143775.
2048.814, 1133900.
2050.743, 1122961.
2052.671, 1110781.
2054.600, 1097436.
2056.528, 1083890.
2058.457, 1072024.
2060.385, 1060345.
2062.314, 1048486.
2064.242, 1035519.
2066.171, 1022223.
2068.099, 1009907.
2070.028, 997730.8
2071.956, 985331.0
2073.885, 972515.2
2075.813, 959670.9
2077.741, 947660.9
2079.670, 935423.4
2081.598, 922641.0
2083.527, 911098.7
2085.455, 900392.5
2087.384, 890079.9
2089.312, 879568.3
2091.241, 868663.6
2093.169, 858076.9
2095.098, 847773.2
2097.026, 837901.9
2098.955, 827492.5
2100.883, 816309.4
2102.812, 804472.1
2104.740, 792408.4
2106.668, 780560.6
2108.597, 768404.5
2110.525, 755941.3
2112.454, 743644.9
2114.382, 731684.0
2116.311, 720177.1
2118.239, 709203.8
2120.168, 697909.9
2122.096, 687367.8
2124.025, 676392.6
2125.953, 666079.6
2127.882, 656054.4
2129.810, 646126.6
2131.739, 636232.5
2133.667, 626473.8
2135.595, 616766.9
2137.524, 607253.7
2139.452, 597592.9
2141.381, 588335.9
2143.309, 579118.1
2145.238, 569890.7
2147.166, 561735.7
2149.095, 553839.9
2151.023, 545375.8
2152.952, 536559.6
2154.880, 527588.0
2156.809, 519295.3
2158.737, 511556.0
2160.666, 504709.1
2162.594, 497091.7
2164.522, 488981.8
2166.451, 481231.6
2168.379, 473767.8
2170.308, 466663.5
2172.236, 459463.1
2174.165, 452211.8
2176.093, 444838.0
2178.022, 437937.6
2179.950, 431610.8
2181.879, 425119.8
2183.807, 418666.8
2185.736, 412373.0
2187.664, 406091.8
2189.593, 399772.4
2191.521, 393399.6
2193.449, 386862.2
2195.378, 380492.1
2197.306, 373799.8
2199.235, 367572.8
2201.163, 360773.2
2203.092, 354235.1
2205.020, 348086.5
2206.949, 341859.7
2208.877, 335657.2
2210.806, 329499.1
2212.734, 323951.3
2214.663, 318008.9
2216.591, 312630.6
2218.520, 306914.4
2220.448, 301884.4
2222.376, 296935.9
2224.305, 292102.7
2226.233, 287444.6
2228.162, 283032.5
2230.090, 278858.9
2232.019, 274872.3
2233.947, 270869.8
2235.876, 266680.6
2237.804, 263063.1
2239.733, 259861.6
2241.661, 256874.1
2243.590, 253844.8
2245.518, 250727.1
2247.447, 247578.1
2249.375, 244566.1
2251.303, 241854.4
2253.232, 239161.8
2255.160, 236491.3
2257.089, 233860.5
2259.017, 231298.3
2260.946, 228812.0
2262.874, 226450.1
2264.803, 223956.7
2266.731, 221070.0
2268.660, 218882.6
2270.588, 216280.1
2272.517, 214125.1
2274.445, 211436.3
2276.374, 209081.9
2278.302, 206739.4
2280.230, 204390.6
2282.159, 202039.7
2284.087, 199642.3
2286.016, 197279.4
2287.944, 195071.4
2289.873, 192958.2
2291.801, 190902.3
2293.730, 188851.4
2295.658, 186747.1
2297.587, 184561.5
2299.515, 182497.3
2301.444, 180444.6
2303.372, 178131.5
2305.301, 176055.4
2307.229, 174207.1
2309.157, 172263.7
2311.086, 170391.5
2313.014, 168672.6
2314.943, 166962.5
2316.871, 165295.4
2318.800, 163626.1
2320.728, 162363.4
2322.657, 161328.6
2324.585, 159912.9
2326.514, 158647.5
2328.442, 157656.7
2330.371, 156378.4
2332.299, 155015.4
2334.228, 153700.5
2336.156, 152403.5
2338.084, 151265.9
2340.013, 150182.1
2341.941, 149571.2
2343.870, 148275.8
2345.798, 147550.2
2347.727, 146784.7
2349.655, 145757.3
2351.584, 144690.7
2353.512, 143623.4
2355.441, 142581.2
2357.369, 141692.8
2359.298, 140886.1
2361.226, 139946.3
2363.155, 139177.6
2365.083, 138539.0
2367.011, 137699.4
2368.940, 136739.7
2370.868, 135707.9
2372.797, 134597.7
2374.725, 133481.8
2376.654, 132453.4
2378.582, 131267.0
2380.511, 129925.7
2382.439, 128349.8
2384.368, 126944.4
2386.296, 125667.5
2388.225, 124241.4
2390.153, 122769.8
2392.082, 121306.8
2394.010, 119845.6
2395.938, 118417.1
2397.867, 116921.2
2399.795, 115581.9
2401.724, 114172.1
2403.652, 112768.4
2405.581, 111472.6
2407.509, 110209.6
2409.438, 108811.2
2411.366, 107313.1
2413.295, 105812.2
2415.223, 104850.2
2417.152, 103885.1
2419.080, 102701.7
2421.009, 101500.8
2422.937, 100314.4
2424.865, 99161.19
2426.794, 97928.37
2428.722, 96573.55
2430.651, 95035.69
2432.579, 93499.51
2434.508, 92025.02
2436.436, 90764.88
2438.365, 89408.58
2440.293, 87926.20
2442.222, 86389.48
2444.150, 84806.99
2446.079, 83232.04
2448.007, 82098.36
2449.936, 80938.95
2451.864, 79532.19
2453.792, 78177.23
2455.721, 76869.20
2457.649, 75601.63
2459.578, 74330.29
2461.506, 73121.08
2463.435, 72098.80
2465.363, 71036.99
2467.292, 69952.23
2469.220, 68870.44
2471.149, 67923.10
2473.077, 67076.57
2475.006, 66168.81
2476.934, 65322.31
2478.863, 64531.88
2480.791, 63676.41
2482.719, 62899.43
2484.648, 62042.48
2486.576, 61315.44
2488.505, 60499.18
2490.433, 59655.52
2492.362, 58969.83
2494.290, 58242.71
2496.219, 57334.54
2498.147, 56565.07
2500.076, 55937.80
2502.004, 55463.17
2503.933, 54763.39
2505.861, 53942.07
2507.790, 53163.91
2509.718, 52391.55
2511.646, 51642.37
2513.575, 50948.66
2515.503, 50301.10
2517.432, 49705.59
2519.360, 49052.23
2521.289, 48594.29
2523.217, 47876.24
2525.146, 47367.69
2527.074, 46923.64
2529.003, 46477.72
2530.931, 45875.62
2532.860, 45301.40
2534.788, 44812.83
2536.717, 44482.98
2538.645, 44152.74
2540.573, 43761.43
2542.502, 43376.82
2544.430, 42729.17
2546.359, 42575.19
2548.287, 42160.16
2550.216, 41816.55
2552.144, 41764.15
2554.073, 41159.86
2556.001, 40528.12
2557.930, 40192.20
2559.858, 39878.00
2561.787, 39552.95
2563.715, 39204.99
2565.644, 38839.36
2567.572, 38408.97
2569.500, 37881.61
2571.429, 37439.93
2573.357, 37132.89
2575.286, 36735.86
2577.214, 36577.73
2579.143, 36091.82
2581.071, 35771.05
2583.000, 35409.63
2584.928, 35017.83
2586.857, 34615.20
2588.785, 34183.01
2590.714, 33762.50
2592.642, 33370.40
2594.571, 33248.64
2596.499, 33177.09
2598.427, 32869.33
2600.356, 32702.81
2602.284, 32495.52
2604.213, 31977.39
2606.141, 31522.19
2608.070, 31192.69
2609.998, 30837.04
2611.927, 30557.20
2613.855, 30325.67
2615.784, 30104.12
2617.712, 29938.03
2619.641, 29781.19
2621.569, 29599.95
2623.498, 29415.16
2625.426, 29142.09
2627.354, 28714.31
2629.283, 28493.46
2631.211, 28229.23
2633.140, 27737.64
2635.068, 27581.52
2636.997, 27377.48
2638.925, 26877.45
2640.854, 26463.33
2642.782, 26250.77
2644.711, 26254.07
2646.639, 25944.26
2648.568, 25553.21
2650.496, 25214.96
2652.425, 24941.36
2654.353, 24734.05
2656.281, 24563.69
2658.210, 24082.54
2660.138, 23710.93
2662.067, 23562.69
2663.995, 23334.74
2665.924, 23222.15
2667.852, 23192.13
2669.781, 22675.90
2671.709, 22352.46
2673.638, 22276.06
2675.566, 21974.89
2677.495, 21760.18
2679.423, 21627.98
2681.352, 21403.53
2683.280, 21186.07
2685.208, 20982.50
2687.137, 20778.47
2689.065, 20514.30
2690.994, 20288.21
2692.922, 20247.51
2694.851, 20210.71
2696.779, 20068.76
2698.708, 19729.55
2700.636, 19540.08
2702.565, 19421.56
2704.493, 19296.75
2706.422, 19203.21
2708.350, 19110.88
2710.279, 19001.95
2712.207, 18833.50
2714.135, 18763.37
2716.064, 18789.32
2717.992, 18561.14
2719.921, 18320.55
2721.849, 18184.55
2723.778, 18378.33
2725.706, 18324.96
2727.635, 18081.84
2729.563, 18055.97
2731.492, 17830.80
2733.420, 17550.62
2735.349, 17519.20
2737.277, 17437.72
2739.206, 17321.59
2741.134, 17213.18
2743.063, 17087.25
2744.991, 16856.96
2746.919, 16814.23
2748.848, 16635.50
2750.776, 16492.57
2752.705, 16429.52
2754.633, 16209.00
2756.562, 16157.35
2758.490, 16063.18
2760.419, 16088.92
2762.347, 15932.03
2764.276, 15813.00
2766.204, 15754.26
2768.133, 15702.37
2770.061, 15610.96
2771.990, 15611.44
2773.918, 15489.42
2775.846, 15565.19
2777.775, 15578.01
2779.703, 15479.71
2781.632, 15353.09
2783.560, 15252.39
2785.489, 15282.00
2787.417, 15290.49
2789.346, 15273.93
2791.274, 15285.81
2793.203, 15249.68
2795.131, 15217.96
2797.060, 15260.99
2798.988, 15314.17
2800.917, 15342.97
2802.845, 15329.78
2804.773, 15363.52
2806.702, 15285.62
2808.630, 15356.85
2810.559, 15296.92
2812.487, 15424.49
2814.416, 15471.46
2816.344, 15434.38
2818.273, 15321.37
2820.201, 15283.22
2822.130, 15406.67
2824.058, 15515.56
2825.987, 15635.81
2827.915, 15750.70
2829.844, 15677.43
2831.772, 15688.83
2833.700, 15802.97
2835.629, 15973.24
2837.557, 16034.38
2839.486, 16045.89
2841.414, 16070.56
2843.343, 16213.10
2845.271, 16307.35
2847.200, 16321.39
2849.128, 16410.07
2851.057, 16491.70
2852.985, 16580.89
2854.914, 16789.86
2856.842, 16680.91
2858.771, 16605.97
2860.699, 16924.74
2862.627, 17111.08
2864.556, 17231.10
2866.484, 17313.87
2868.413, 17335.24
2870.341, 17584.99
2872.270, 17867.62
2874.198, 17855.07
2876.127, 17955.54
2878.055, 18021.71
2879.984, 17970.53
2881.912, 18244.68
2883.841, 18395.55
2885.769, 18416.94
2887.698, 18663.06
2889.626, 18745.57
2891.554, 18764.66
2893.483, 18847.46
2895.411, 19050.99
2897.340, 19236.05
2899.268, 19358.54
2901.197, 19476.97
2903.125, 19508.52
2905.054, 19514.23
2906.982, 19577.27
2908.911, 19818.24
2910.839, 20037.94
2912.768, 20158.62
2914.696, 20424.43
2916.625, 20388.80
2918.553, 20579.95
2920.481, 20624.15
2922.410, 20805.26
2924.338, 20895.82
2926.267, 20980.94
2928.195, 21299.33
2930.124, 21396.15
2932.052, 21402.56
2933.981, 21769.75
2935.909, 21973.21
2937.838, 22176.49
2939.766, 22492.80
2941.695, 22607.50
2943.623, 22774.88
2945.552, 23000.03
2947.480, 23157.10
2949.408, 23326.89
2951.337, 23485.68
2953.265, 23620.45
2955.194, 23846.89
2957.122, 23976.45
2959.051, 24334.06
2960.979, 24647.38
2962.908, 24989.14
2964.836, 25162.98
2966.765, 25124.82
2968.693, 25357.94
2970.622, 25565.91
2972.550, 25758.71
2974.479, 26103.03
2976.407, 26123.21
2978.335, 26185.14
2980.264, 26439.50
2982.192, 26673.24
2984.121, 26985.52
2986.049, 27375.36
2987.978, 27820.71
2989.906, 28117.87
2991.835, 28368.36
2993.763, 28634.92
2995.692, 29021.01
2997.620, 28973.74
2999.549, 29060.06
3001.477, 29628.70
3003.406, 30069.36
3005.334, 30301.05
3007.262, 30433.79
3009.191, 30643.31
3011.119, 31118.17
3013.048, 31638.00
3014.976, 32118.09
3016.905, 32531.04
3018.833, 33066.48
3020.762, 33358.01
3022.690, 33731.69
3024.619, 34201.97
3026.547, 34678.68
3028.476, 35185.87
3030.404, 35874.61
3032.333, 36073.77
3034.261, 36584.76
3036.189, 37575.33
3038.118, 37610.80
3040.046, 38219.78
3041.975, 39073.22
3043.903, 39671.74
3045.832, 40054.08
3047.760, 40878.67
3049.689, 41868.14
3051.617, 42335.67
3053.546, 43129.75
3055.474, 44040.29
3057.403, 44902.97
3059.331, 45534.87
3061.260, 46395.00
3063.188, 47362.25
3065.116, 48352.81
3067.045, 49360.36
3068.973, 50636.58
3070.902, 51529.60
3072.830, 52606.89
3074.759, 53811.56
3076.687, 55267.50
3078.616, 56841.41
3080.544, 58231.72
3082.473, 59481.78
3084.401, 60830.17
3086.330, 62295.93
3088.258, 63684.55
3090.187, 64700.43
3092.115, 65805.80
3094.043, 67217.44
3095.972, 68347.16
3097.900, 69884.05
3099.829, 71453.11
3101.757, 72704.84
3103.686, 74111.98
3105.614, 75485.34
3107.543, 76811.36
3109.471, 78132.30
3111.400, 79657.59
3113.328, 81237.34
3115.257, 82904.78
3117.185, 84765.77
3119.114, 86605.30
3121.042, 88715.45
3122.970, 90921.69
3124.899, 92994.39
3126.827, 95562.16
3128.756, 98154.47
3130.684, 100689.8
3132.613, 103550.0
3134.541, 106392.8
3136.470, 109103.8
3138.398, 111954.9
3140.327, 116035.5
3142.255, 120324.7
3144.184, 125035.9
3146.112, 130246.8
3148.041, 135641.7
3149.969, 140755.8
3151.897, 145683.3
3153.826, 150667.4
3155.754, 156308.5
3157.683, 161528.8
3159.611, 166787.1
3161.540, 172397.1
3163.468, 177911.3
3165.397, 182971.2
3167.325, 187483.5
3169.254, 191423.8
3171.182, 194843.5
3173.111, 198066.7
3175.039, 201072.3
3176.968, 203811.4
3178.896, 206107.7
3180.824, 208129.5
3182.753, 209954.6
3184.681, 211553.2
3186.610, 212902.0
3188.538, 213843.5
3190.467, 214206.4
3192.395, 213914.2
3194.324, 213008.4
3196.252, 211986.0
3198.181, 210627.3
3200.109, 208817.2
3202.038, 206946.9
3203.966, 205383.0
3205.895, 204013.9
3207.823, 202803.1
3209.751, 201626.5
3211.680, 200791.4
3213.608, 199584.5
3215.537, 198914.9
3217.465, 197956.7
3219.394, 197343.4
3221.322, 197180.8
3223.251, 197539.9
3225.179, 198529.3
3227.108, 199846.5
3229.036, 201476.4
3230.965, 202930.3
3232.893, 203306.6
3234.822, 204115.7
3236.750, 204382.5
3238.678, 204333.7
3240.607, 204670.1
3242.535, 205414.2
3244.464, 205843.2
3246.392, 206462.9
3248.321, 207962.2
3250.249, 209541.4
3252.178, 210731.0
3254.106, 212112.3
3256.035, 213926.3
3257.963, 214451.3
3259.892, 215286.0
3261.820, 215309.0
3263.749, 214062.1
3265.677, 212456.4
3267.605, 210715.6
3269.534, 209480.3
3271.462, 208964.1
3273.391, 209059.3
3275.319, 210531.9
3277.248, 213371.9
3279.176, 216664.5
3281.105, 219472.0
3283.033, 222763.5
3284.962, 226122.0
3286.890, 229034.5
3288.819, 231334.5
3290.747, 233718.6
3292.676, 235577.3
3294.604, 237397.1
3296.532, 239255.6
3298.461, 240605.3
3300.389, 242656.5
3302.318, 244509.8
3304.246, 246213.5
3306.175, 248219.4
3308.103, 250257.1
3310.032, 252488.0
3311.960, 254557.1
3313.889, 256163.5
3315.817, 257400.6
3317.746, 258299.8
3319.674, 259073.6
3321.603, 259684.3
3323.531, 260659.6
3325.459, 261205.0
3327.388, 262361.1
3329.316, 263177.8
3331.245, 263815.5
3333.173, 263458.3
3335.102, 262926.1
3337.030, 262137.7
3338.959, 260888.3
3340.887, 258970.4
3342.816, 256552.7
3344.744, 253729.8
3346.673, 250758.7
3348.601, 247890.9
3350.530, 245178.0
3352.458, 242676.2
3354.386, 240464.3
3356.315, 238588.5
3358.243, 237106.2
3360.172, 235372.8
3362.100, 233630.9
3364.029, 231847.5
3365.957, 229946.5
3367.886, 228157.9
3369.814, 226244.3
3371.743, 223748.4
3373.671, 220709.5
3375.600, 217521.4
3377.528, 214635.5
3379.457, 211875.6
3381.385, 208797.6
3383.313, 205763.0
3385.242, 202982.8
3387.170, 199407.4
3389.099, 196075.2
3391.027, 192740.9
3392.956, 188517.7
3394.884, 184722.0
3396.813, 181066.1
3398.741, 177204.2
3400.670, 173870.9
3402.598, 170409.8
3404.527, 167433.8
3406.455, 164602.1
3408.384, 161867.4
3410.312, 159225.3
3412.240, 156647.6
3414.169, 154391.7
3416.097, 151854.4
3418.026, 149584.4
3419.954, 147611.3
3421.883, 145430.5
3423.811, 143805.4
3425.740, 142159.8
3427.668, 140315.0
3429.597, 138460.2
3431.525, 136652.4
3433.454, 134348.5
3435.382, 132407.2
3437.311, 129767.8
3439.239, 128075.1
3441.167, 125718.4
3443.096, 123362.1
3445.024, 121249.6
3446.953, 119265.0
3448.881, 116970.3
3450.810, 114419.5
3452.738, 111840.7
3454.667, 109673.1
3456.595, 107903.4
3458.524, 105677.9
##END=



