##NAMES=Fluorbritholite-(Ce)
##RRUFFID=R070412
##IDEAL CHEMISTRY=(Ce,Ca)_5_(SiO_4_)_3_F
##LOCALITY=Lakarp, Norra Kärr, Gränna, Jönköping, Småland, Sweden
##OWNER=RRUFF
##SOURCE=Michael Scott
##DESCRIPTION=Dark brown crystals embedded in massive enstatite matrix
##STATUS=The identification of this mineral has been confirmed only by chemical analysis
##URL=https://www.rruff.net/odr/rruff_sample/R070412
##MEASURED CHEMISTRY=(Ce_1.31_La_0.76_Nd_0.41_Pr_0.12_Y_0.08_Sm_0.06_Gd_0.05_Dy_0.02_Eu_0.01_Ca_1.90_Sr_0.03_Th_0.03_)(Si_2.48_P_0.50_)O_12_(F_0.68_OH_0.45_)
##FILETYPE=Raman RAW
##RAMAN WAVELENGTH=532

166.2083, 5650.894
168.1367, 5742.413
170.0652, 5819.145
171.9937, 5894.628
173.9221, 5973.985
175.8506, 6051.947
177.7791, 6120.707
179.7075, 6176.848
181.6360, 6229.122
183.5645, 6281.774
185.4929, 6337.680
187.4214, 6388.222
189.3499, 6434.379
191.2783, 6474.587
193.2068, 6506.550
195.1353, 6515.358
197.0637, 6528.236
198.9922, 6561.145
200.9207, 6637.741
202.8491, 6699.244
204.7776, 6732.470
206.7061, 6744.145
208.6345, 6754.344
210.5630, 6759.009
212.4915, 6766.119
214.4199, 6783.636
216.3484, 6816.450
218.2769, 6848.148
220.2053, 6873.643
222.1338, 6893.170
224.0623, 6913.104
225.9907, 6933.178
227.9192, 6954.036
229.8477, 6975.870
231.7761, 6996.939
233.7046, 7022.147
235.6331, 7056.504
237.5615, 7106.507
239.4900, 7138.958
241.4185, 7142.831
243.3469, 7133.832
245.2754, 7130.986
247.2039, 7134.451
249.1323, 7144.760
251.0608, 7163.745
252.9893, 7197.086
254.9177, 7222.924
256.8462, 7234.501
258.7747, 7240.285
260.7031, 7251.066
262.6316, 7269.319
264.5601, 7291.216
266.4885, 7318.487
268.4170, 7354.525
270.3455, 7381.100
272.2739, 7388.498
274.2024, 7386.129
276.1309, 7388.990
278.0593, 7402.559
279.9878, 7417.008
281.9163, 7430.468
283.8447, 7443.396
285.7732, 7452.192
287.7017, 7448.982
289.6301, 7441.638
291.5586, 7445.232
293.4871, 7475.037
295.4155, 7502.124
297.3440, 7511.281
299.2725, 7502.021
301.2009, 7499.771
303.1294, 7518.490
305.0579, 7546.675
306.9863, 7561.984
308.9148, 7552.903
310.8433, 7543.011
312.7717, 7540.680
314.7002, 7545.770
316.6287, 7551.867
318.5571, 7561.356
320.4856, 7570.697
322.4141, 7571.861
324.3425, 7550.164
326.2710, 7538.229
328.1995, 7556.630
330.1279, 7609.330
332.0564, 7639.360
333.9849, 7621.804
335.9133, 7585.131
337.8418, 7571.626
339.7703, 7591.218
341.6987, 7614.086
343.6272, 7629.375
345.5557, 7636.225
347.4841, 7645.475
349.4126, 7656.773
351.3411, 7670.845
353.2695, 7688.865
355.1980, 7711.693
357.1265, 7735.845
359.0549, 7764.165
360.9834, 7798.510
362.9119, 7816.432
364.8403, 7801.249
366.7688, 7782.134
368.6973, 7785.152
370.6257, 7817.305
372.5542, 7846.405
374.4827, 7860.952
376.4111, 7862.809
378.3396, 7871.101
380.2681, 7890.245
382.1965, 7911.445
384.1250, 7929.735
386.0535, 7944.716
387.9819, 7959.515
389.9104, 7975.450
391.8389, 7991.790
393.7673, 8006.282
395.6958, 8023.131
397.6243, 8034.708
399.5527, 8035.298
401.4812, 8024.292
403.4097, 8016.910
405.3381, 8018.634
407.2666, 8024.170
409.1951, 8026.220
411.1235, 8025.257
413.0520, 8020.966
414.9805, 8009.752
416.9089, 7992.659
418.8374, 7982.400
420.7659, 7984.831
422.6943, 7991.450
424.6228, 7995.964
426.5513, 7997.132
428.4797, 7999.614
430.4082, 8007.688
432.3367, 8018.564
434.2651, 8022.976
436.1936, 8012.940
438.1221, 8002.780
440.0505, 8000.018
441.9790, 8006.189
443.9075, 8007.893
445.8359, 7998.340
447.7644, 7984.511
449.6929, 7975.011
451.6213, 7966.720
453.5498, 7966.675
455.4783, 7985.157
457.4067, 8018.835
459.3352, 8035.183
461.2637, 8016.113
463.1921, 7990.582
465.1206, 7977.791
467.0491, 7989.284
468.9775, 7996.620
470.9060, 7992.879
472.8345, 7984.330
474.7629, 7984.973
476.6914, 8001.078
478.6199, 8017.918
480.5483, 8029.392
482.4768, 8033.346
484.4053, 8039.809
486.3337, 8048.687
488.2622, 8059.940
490.1907, 8074.446
492.1191, 8094.071
494.0476, 8110.875
495.9761, 8121.059
497.9045, 8126.245
499.8330, 8134.003
501.7615, 8141.711
503.6899, 8153.794
505.6184, 8176.640
507.5469, 8209.726
509.4753, 8235.188
511.4038, 8243.837
513.3323, 8246.018
515.2607, 8250.687
517.1892, 8263.006
519.1177, 8271.585
521.0461, 8266.522
522.9746, 8256.523
524.9031, 8263.963
526.8315, 8310.771
528.7600, 8353.771
530.6885, 8372.534
532.6169, 8355.303
534.5454, 8350.580
536.4739, 8371.284
538.4023, 8397.335
540.3308, 8409.282
542.2593, 8400.013
544.1877, 8395.584
546.1162, 8406.984
548.0447, 8428.984
549.9731, 8440.005
551.9016, 8433.382
553.8301, 8424.045
555.7585, 8413.948
557.6870, 8403.291
559.6155, 8401.512
561.5439, 8417.700
563.4724, 8438.571
565.4009, 8455.555
567.3293, 8468.211
569.2578, 8477.646
571.1863, 8478.601
573.1147, 8477.653
575.0432, 8485.480
576.9717, 8511.974
578.9001, 8532.923
580.8286, 8536.962
582.7571, 8524.097
584.6855, 8522.398
586.6140, 8539.496
588.5425, 8560.805
590.4709, 8579.646
592.3994, 8596.177
594.3279, 8609.966
596.2563, 8618.388
598.1848, 8625.355
600.1133, 8635.677
602.0417, 8655.647
603.9702, 8668.795
605.8987, 8666.811
607.8271, 8656.516
609.7556, 8651.429
611.6841, 8654.974
613.6125, 8660.752
615.5410, 8665.816
617.4695, 8669.938
619.3979, 8679.178
621.3264, 8704.979
623.2549, 8726.570
625.1833, 8726.753
627.1118, 8702.025
629.0403, 8690.358
630.9688, 8717.218
632.8972, 8751.485
634.8257, 8757.950
636.7542, 8706.044
638.6826, 8674.044
640.6111, 8686.714
642.5396, 8724.083
644.4680, 8749.841
646.3965, 8759.317
648.3250, 8760.742
650.2534, 8753.372
652.1819, 8737.364
654.1104, 8728.751
656.0388, 8727.021
657.9673, 8732.186
659.8958, 8747.776
661.8242, 8773.159
663.7527, 8795.208
665.6812, 8812.830
667.6096, 8825.224
669.5381, 8830.369
671.4666, 8813.124
673.3950, 8812.849
675.3235, 8850.617
677.2520, 8897.187
679.1804, 8914.032
681.1089, 8887.614
683.0374, 8866.172
684.9658, 8868.394
686.8943, 8886.043
688.8228, 8893.652
690.7512, 8872.446
692.6797, 8861.891
694.6082, 8881.710
696.5366, 8923.353
698.4651, 8952.147
700.3936, 8960.340
702.3220, 8960.285
704.2505, 8955.371
706.1790, 8942.964
708.1074, 8938.996
710.0359, 8951.476
711.9644, 8965.451
713.8928, 8967.754
715.8213, 8957.494
717.7498, 8955.298
719.6782, 8971.480
721.6067, 8993.892
723.5352, 9013.540
725.4636, 9034.107
727.3921, 9044.411
729.3206, 9026.930
731.2490, 9004.967
733.1775, 9018.340
735.1060, 9083.921
737.0344, 9133.881
738.9629, 9131.741
740.8914, 9101.636
742.8198, 9090.629
744.7483, 9117.331
746.6768, 9142.476
748.6052, 9159.044
750.5337, 9168.273
752.4622, 9177.060
754.3906, 9188.260
756.3191, 9194.933
758.2476, 9186.386
760.1760, 9167.181
762.1045, 9167.266
764.0330, 9208.511
765.9614, 9251.264
767.8899, 9283.036
769.8184, 9302.787
771.7468, 9319.053
773.6753, 9326.447
775.6038, 9335.306
777.5322, 9349.714
779.4607, 9369.339
781.3892, 9396.432
783.3176, 9442.315
785.2461, 9487.279
787.1746, 9518.142
789.1030, 9525.980
791.0315, 9547.052
792.9600, 9598.730
794.8884, 9651.498
796.8169, 9678.786
798.7454, 9677.442
800.6738, 9686.142
802.6023, 9716.514
804.5308, 9758.161
806.4592, 9804.421
808.3877, 9860.391
810.3162, 9912.583
812.2446, 9954.532
814.1731, 9996.192
816.1016, 10049.59
818.0300, 10116.83
819.9585, 10183.04
821.8870, 10246.72
823.8154, 10306.48
825.7439, 10358.44
827.6724, 10383.15
829.6008, 10434.43
831.5293, 10540.05
833.4578, 10664.64
835.3862, 10757.79
837.3147, 10815.53
839.2432, 10863.66
841.1716, 10899.11
843.1001, 10932.10
845.0286, 10978.35
846.9570, 11053.32
848.8855, 11108.96
850.8140, 11132.19
852.7424, 11134.63
854.6709, 11133.16
856.5994, 11124.00
858.5278, 11119.31
860.4563, 11128.94
862.3848, 11141.31
864.3132, 11140.92
866.2417, 11122.59
868.1702, 11104.30
870.0986, 11092.37
872.0271, 11082.29
873.9556, 11067.22
875.8840, 11047.68
877.8125, 11022.26
879.7410, 10977.41
881.6694, 10932.15
883.5979, 10913.36
885.5264, 10927.07
887.4548, 10944.57
889.3833, 10962.26
891.3118, 10977.52
893.2402, 10986.34
895.1687, 10981.77
897.0972, 10982.08
899.0256, 10991.18
900.9541, 11004.61
902.8826, 11017.82
904.8110, 11032.55
906.7395, 11041.11
908.6680, 11028.47
910.5964, 11016.62
912.5249, 11030.57
914.4534, 11082.46
916.3818, 11120.01
918.3103, 11118.96
920.2388, 11111.54
922.1672, 11131.19
924.0957, 11197.26
926.0242, 11240.71
927.9526, 11233.04
929.8811, 11219.10
931.8096, 11238.79
933.7380, 11293.80
935.6665, 11340.23
937.5950, 11364.41
939.5234, 11381.55
941.4519, 11399.35
943.3804, 11417.15
945.3088, 11438.19
947.2373, 11460.63
949.1658, 11487.42
951.0942, 11527.29
953.0227, 11578.75
954.9512, 11609.53
956.8796, 11604.06
958.8081, 11592.96
960.7366, 11589.89
962.6650, 11594.36
964.5935, 11602.77
966.5220, 11625.60
968.4504, 11640.73
970.3789, 11640.73
972.3074, 11626.74
974.2358, 11606.83
976.1643, 11570.00
978.0928, 11541.84
980.0212, 11530.85
981.9497, 11533.73
983.8782, 11545.75
985.8066, 11574.49
987.7351, 11593.41
989.6636, 11585.91
991.5920, 11566.77
993.5205, 11559.41
995.4490, 11572.90
997.3774, 11584.83
999.3059, 11590.93
1001.234, 11596.29
1003.163, 11606.95
1005.091, 11622.92
1007.020, 11642.14
1008.948, 11670.63
1010.877, 11696.99
1012.805, 11710.45
1014.734, 11709.55
1016.662, 11718.10
1018.591, 11740.29
1020.519, 11772.09
1022.448, 11821.75
1024.376, 11891.34
1026.304, 11927.06
1028.233, 11896.50
1030.161, 11871.12
1032.090, 11883.70
1034.018, 11921.32
1035.947, 11941.16
1037.875, 11927.69
1039.804, 11927.60
1041.732, 11975.60
1043.661, 12042.47
1045.589, 12077.43
1047.518, 12064.16
1049.446, 12050.56
1051.375, 12029.79
1053.303, 12019.09
1055.231, 12041.14
1057.160, 12108.89
1059.088, 12166.13
1061.017, 12210.52
1062.945, 12243.11
1064.874, 12260.89
1066.802, 12265.74
1068.731, 12269.27
1070.659, 12269.21
1072.588, 12273.24
1074.516, 12288.74
1076.445, 12312.48
1078.373, 12325.29
1080.302, 12305.28
1082.230, 12300.99
1084.158, 12327.00
1086.087, 12371.30
1088.015, 12414.51
1089.944, 12460.65
1091.872, 12494.70
1093.801, 12503.64
1095.729, 12506.63
1097.658, 12515.91
1099.586, 12531.16
1101.515, 12560.74
1103.443, 12631.73
1105.372, 12688.30
1107.300, 12692.21
1109.229, 12647.42
1111.157, 12635.69
1113.085, 12682.26
1115.014, 12731.00
1116.942, 12779.00
1118.871, 12819.61
1120.799, 12834.53
1122.728, 12813.69
1124.656, 12802.97
1126.585, 12808.37
1128.513, 12831.19
1130.442, 12880.54
1132.370, 12957.81
1134.299, 13010.35
1136.227, 13010.33
1138.156, 13005.93
1140.084, 13021.16
1142.012, 13052.90
1143.941, 13072.46
1145.869, 13052.02
1147.798, 13054.47
1149.726, 13110.85
1151.655, 13189.42
1153.583, 13233.65
1155.512, 13233.26
1157.440, 13248.34
1159.369, 13305.88
1161.297, 13367.64
1163.226, 13409.49
1165.154, 13432.93
1167.083, 13445.87
1169.011, 13436.33
1170.939, 13435.80
1172.868, 13460.12
1174.796, 13501.02
1176.725, 13536.48
1178.653, 13558.46
1180.582, 13587.65
1182.510, 13637.05
1184.439, 13686.49
1186.367, 13712.60
1188.296, 13710.31
1190.224, 13723.59
1192.153, 13767.12
1194.081, 13811.87
1196.010, 13842.71
1197.938, 13865.20
1199.866, 13893.97
1201.795, 13934.00
1203.723, 13967.64
1205.652, 13982.40
1207.580, 13992.60
1209.509, 14011.34
1211.437, 14040.34
1213.366, 14069.79
1215.294, 14101.37
1217.223, 14131.05
1219.151, 14153.28
1221.080, 14171.26
1223.008, 14201.29
1224.937, 14261.92
1226.865, 14303.54
1228.793, 14295.75
1230.722, 14279.40
1232.650, 14304.18
1234.579, 14369.37
1236.507, 14418.95
1238.436, 14432.75
1240.364, 14447.25
1242.293, 14483.79
1244.221, 14534.41
1246.150, 14578.40
1248.078, 14615.60
1250.007, 14644.82
1251.935, 14654.93
1253.864, 14665.63
1255.792, 14695.99
1257.720, 14751.11
1259.649, 14795.59
1261.577, 14825.58
1263.506, 14850.68
1265.434, 14872.13
1267.363, 14891.04
1269.291, 14907.51
1271.220, 14916.14
1273.148, 14940.82
1275.077, 15005.36
1277.005, 15070.05
1278.934, 15105.51
1280.862, 15117.92
1282.791, 15132.91
1284.719, 15151.72
1286.647, 15174.70
1288.576, 15195.57
1290.504, 15224.38
1292.433, 15279.06
1294.361, 15368.76
1296.290, 15437.80
1298.218, 15479.25
1300.147, 15501.38
1302.075, 15488.81
1304.004, 15458.03
1305.932, 15463.30
1307.861, 15539.00
1309.789, 15600.04
1311.718, 15635.81
1313.646, 15662.19
1315.574, 15691.55
1317.503, 15723.03
1319.431, 15745.34
1321.360, 15749.54
1323.288, 15760.78
1325.217, 15801.00
1327.145, 15844.14
1329.074, 15853.18
1331.002, 15826.75
1332.931, 15830.25
1334.859, 15894.35
1336.788, 15958.86
1338.716, 16004.00
1340.645, 16029.62
1342.573, 16029.17
1344.501, 15986.22
1346.430, 15967.50
1348.358, 16003.67
1350.287, 16044.16
1352.215, 16060.65
1354.144, 16056.85
1356.072, 16058.26
1358.001, 16059.20
1359.929, 16073.64
1361.858, 16120.14
1363.786, 16167.05
1365.715, 16185.73
1367.643, 16175.79
1369.572, 16167.12
1371.500, 16151.51
1373.428, 16150.53
1375.357, 16194.42
1377.285, 16241.18
1379.214, 16234.03
1381.142, 16175.87
1383.071, 16141.17
1384.999, 16146.21
1386.928, 16162.41
1388.856, 16188.24
1390.785, 16212.83
1392.713, 16217.97
1394.642, 16201.08
1396.570, 16187.68
1398.499, 16160.97
1400.427, 16166.87
1402.355, 16257.53
1404.284, 16384.53
1406.212, 16435.54
1408.141, 16372.65
1410.069, 16341.64
1411.998, 16381.66
1413.926, 16424.12
1415.855, 16433.15
1417.783, 16420.75
1419.712, 16423.16
1421.640, 16455.85
1423.569, 16477.84
1425.497, 16465.34
1427.426, 16466.04
1429.354, 16525.28
1431.282, 16621.27
1433.211, 16668.13
1435.139, 16647.23
1437.068, 16635.93
1438.996, 16636.26
1440.925, 16658.58
1442.853, 16729.16
1444.782, 16826.87
1446.710, 16881.96
1448.639, 16878.93
1450.567, 16890.72
1452.496, 16956.29
1454.424, 17019.15
1456.353, 17030.71
1458.281, 17011.65
1460.209, 17022.12
1462.138, 17071.57
1464.066, 17122.43
1465.995, 17173.50
1467.923, 17214.74
1469.852, 17232.66
1471.780, 17235.36
1473.709, 17255.82
1475.637, 17299.81
1477.566, 17344.80
1479.494, 17391.94
1481.423, 17433.59
1483.351, 17457.53
1485.280, 17472.29
1487.208, 17511.15
1489.136, 17590.73
1491.065, 17656.43
1492.993, 17700.17
1494.922, 17734.41
1496.850, 17760.69
1498.779, 17782.59
1500.707, 17809.75
1502.636, 17840.73
1504.564, 17880.60
1506.493, 17946.19
1508.421, 18001.19
1510.350, 18021.11
1512.278, 18022.29
1514.207, 18036.65
1516.135, 18066.87
1518.063, 18102.06
1519.992, 18137.14
1521.920, 18183.20
1523.849, 18254.47
1525.777, 18334.10
1527.706, 18395.95
1529.634, 18439.17
1531.563, 18484.00
1533.491, 18524.83
1535.420, 18577.86
1537.348, 18668.58
1539.277, 18760.03
1541.205, 18806.45
1543.134, 18814.23
1545.062, 18829.27
1546.990, 18854.23
1548.919, 18886.04
1550.847, 18925.33
1552.776, 18969.95
1554.704, 19020.58
1556.633, 19075.32
1558.561, 19124.79
1560.490, 19162.50
1562.418, 19224.07
1564.347, 19350.06
1566.275, 19462.85
1568.204, 19495.57
1570.132, 19489.75
1572.061, 19526.80
1573.989, 19613.22
1575.917, 19683.71
1577.846, 19715.45
1579.774, 19750.94
1581.703, 19812.17
1583.631, 19885.47
1585.560, 19959.45
1587.488, 20033.53
1589.417, 20095.14
1591.345, 20140.28
1593.274, 20179.84
1595.202, 20219.99
1597.131, 20253.10
1599.059, 20260.41
1600.988, 20253.42
1602.916, 20295.78
1604.844, 20411.71
1606.773, 20489.61
1608.701, 20465.76
1610.630, 20453.00
1612.558, 20524.19
1614.487, 20630.43
1616.415, 20683.42
1618.344, 20678.14
1620.272, 20667.52
1622.201, 20650.20
1624.129, 20637.09
1626.058, 20635.16
1627.986, 20635.21
1629.915, 20625.64
1631.843, 20608.66
1633.771, 20608.34
1635.700, 20629.94
1637.628, 20653.85
1639.557, 20665.39
1641.485, 20691.74
1643.414, 20766.82
1645.342, 20855.49
1647.271, 20887.83
1649.199, 20853.21
1651.128, 20840.28
1653.056, 20858.31
1654.985, 20890.11
1656.913, 20942.42
1658.842, 20996.45
1660.770, 21030.96
1662.698, 21052.88
1664.627, 21102.00
1666.555, 21190.70
1668.484, 21268.48
1670.412, 21316.24
1672.341, 21368.94
1674.269, 21453.44
1676.198, 21540.02
1678.126, 21584.17
1680.055, 21583.47
1681.983, 21607.55
1683.912, 21671.13
1685.840, 21729.00
1687.769, 21759.90
1689.697, 21797.30
1691.625, 21867.61
1693.554, 21953.92
1695.482, 22016.82
1697.411, 22050.95
1699.339, 22104.71
1701.268, 22204.77
1703.196, 22281.88
1705.125, 22295.67
1707.053, 22302.97
1708.982, 22340.45
1710.910, 22404.30
1712.839, 22485.44
1714.767, 22589.17
1716.696, 22680.81
1718.624, 22751.04
1720.552, 22817.77
1722.481, 22894.34
1724.409, 22963.82
1726.338, 22997.43
1728.266, 23007.82
1730.195, 23068.76
1732.123, 23194.38
1734.052, 23305.82
1735.980, 23389.71
1737.909, 23458.28
1739.837, 23499.74
1741.766, 23541.06
1743.694, 23609.08
1745.623, 23700.64
1747.551, 23803.14
1749.479, 23921.42
1751.408, 24023.47
1753.336, 24104.34
1755.265, 24166.60
1757.193, 24187.07
1759.122, 24207.99
1761.050, 24280.60
1762.979, 24393.28
1764.907, 24490.85
1766.836, 24568.86
1768.764, 24642.41
1770.693, 24702.82
1772.621, 24778.77
1774.550, 24904.21
1776.478, 25036.36
1778.406, 25125.03
1780.335, 25182.59
1782.263, 25259.73
1784.192, 25362.08
1786.120, 25462.54
1788.049, 25562.53
1789.977, 25650.43
1791.906, 25704.41
1793.834, 25757.71
1795.763, 25851.04
1797.691, 25971.57
1799.620, 26066.59
1801.548, 26130.75
1803.477, 26197.21
1805.405, 26255.19
1807.333, 26336.77
1809.262, 26482.12
1811.190, 26626.32
1813.119, 26706.81
1815.047, 26745.49
1816.976, 26804.86
1818.904, 26889.18
1820.833, 26976.36
1822.761, 27075.35
1824.690, 27163.94
1826.618, 27225.97
1828.547, 27290.27
1830.475, 27372.22
1832.404, 27469.75
1834.332, 27584.34
1836.260, 27718.38
1838.189, 27834.54
1840.117, 27932.44
1842.046, 28011.99
1843.974, 28024.78
1845.903, 28079.63
1847.831, 28268.15
1849.760, 28485.09
1851.688, 28603.61
1853.617, 28638.73
1855.545, 28705.50
1857.474, 28814.23
1859.402, 28900.98
1861.331, 28940.01
1863.259, 28992.18
1865.188, 29079.39
1867.116, 29185.06
1869.044, 29317.77
1870.973, 29452.19
1872.901, 29528.84
1874.830, 29552.18
1876.758, 29603.76
1878.687, 29695.34
1880.615, 29795.59
1882.544, 29895.50
1884.472, 30004.73
1886.401, 30144.31
1888.329, 30283.00
1890.258, 30382.30
1892.186, 30452.01
1894.115, 30527.50
1896.043, 30607.24
1897.971, 30702.62
1899.900, 30822.31
1901.828, 30944.85
1903.757, 31075.43
1905.685, 31196.79
1907.614, 31295.19
1909.542, 31380.01
1911.471, 31458.66
1913.399, 31532.82
1915.328, 31633.67
1917.256, 31787.25
1919.185, 31905.53
1921.113, 31939.67
1923.042, 32004.05
1924.970, 32155.64
1926.898, 32311.62
1928.827, 32410.96
1930.755, 32482.01
1932.684, 32586.68
1934.612, 32717.46
1936.541, 32775.89
1938.469, 32737.31
1940.398, 32741.40
1942.326, 32825.33
1944.255, 32927.85
1946.183, 33029.04
1948.112, 33136.43
1950.040, 33260.59
1951.969, 33391.96
1953.897, 33511.36
1955.825, 33621.17
1957.754, 33748.57
1959.682, 33914.33
1961.611, 34024.19
1963.539, 34004.64
1965.468, 34016.86
1967.396, 34124.30
1969.325, 34255.21
1971.253, 34366.40
1973.182, 34466.27
1975.110, 34569.48
1977.039, 34675.08
1978.967, 34770.20
1980.896, 34849.09
1982.824, 34938.59
1984.752, 35055.54
1986.681, 35155.06
1988.609, 35205.60
1990.538, 35260.63
1992.466, 35349.90
1994.395, 35456.81
1996.323, 35564.68
1998.252, 35673.58
2000.180, 35788.39
2002.109, 35909.39
2004.037, 36008.98
2005.966, 36075.78
2007.894, 36146.03
2009.823, 36205.41
2011.751, 36300.77
2013.679, 36500.38
2015.608, 36697.84
2017.536, 36769.29
2019.465, 36777.75
2021.393, 36875.63
2023.322, 37065.54
2025.250, 37186.55
2027.179, 37185.38
2029.107, 37256.89
2031.036, 37472.41
2032.964, 37658.82
2034.893, 37784.11
2036.821, 37857.88
2038.750, 37819.97
2040.678, 37784.39
2042.606, 37909.77
2044.535, 38133.55
2046.463, 38274.81
2048.392, 38333.95
2050.320, 38429.08
2052.249, 38582.60
2054.177, 38724.63
2056.106, 38841.16
2058.034, 38945.60
2059.963, 39031.31
2061.891, 39118.28
2063.820, 39220.04
2065.748, 39330.59
2067.677, 39445.43
2069.605, 39562.63
2071.533, 39674.09
2073.462, 39782.55
2075.390, 39863.09
2077.319, 39900.95
2079.247, 39957.73
2081.176, 40046.20
2083.104, 40150.08
2085.033, 40275.03
2086.961, 40398.97
2088.890, 40520.57
2090.818, 40622.52
2092.747, 40657.31
2094.675, 40657.83
2096.604, 40740.53
2098.532, 40914.89
2100.460, 41055.97
2102.389, 41156.52
2104.317, 41238.16
2106.246, 41281.44
2108.174, 41335.93
2110.103, 41434.79
2112.031, 41519.41
2113.960, 41533.13
2115.888, 41543.10
2117.817, 41625.57
2119.745, 41748.62
2121.674, 41843.51
2123.602, 41914.93
2125.531, 41991.24
2127.459, 42073.00
2129.387, 42171.97
2131.316, 42316.07
2133.244, 42412.02
2135.173, 42399.88
2137.101, 42393.75
2139.030, 42426.94
2140.958, 42487.99
2142.887, 42589.69
2144.815, 42698.98
2146.744, 42763.98
2148.672, 42800.37
2150.601, 42863.93
2152.529, 42952.92
2154.458, 43041.23
2156.386, 43130.76
2158.314, 43190.06
2160.243, 43206.10
2162.171, 43215.96
2164.100, 43225.77
2166.028, 43237.46
2167.957, 43241.03
2169.885, 43258.76
2171.814, 43309.15
2173.742, 43381.66
2175.671, 43477.99
2177.599, 43581.92
2179.528, 43638.21
2181.456, 43647.04
2183.385, 43648.89
2185.313, 43643.81
2187.241, 43637.06
2189.170, 43628.42
2191.098, 43619.24
2193.027, 43587.78
2194.955, 43596.17
2196.884, 43726.13
2198.812, 43834.02
2200.741, 43797.05
2202.669, 43726.18
2204.598, 43729.25
2206.526, 43788.43
2208.455, 43894.20
2210.383, 44031.32
2212.312, 44056.09
2214.240, 43962.57
2216.168, 43947.48
2218.097, 44042.26
2220.025, 44094.35
2221.954, 44057.16
2223.882, 44033.88
2225.811, 44075.17
2227.739, 44108.15
2229.668, 44101.64
2231.596, 44079.79
2233.525, 44043.54
2235.453, 44014.27
2237.382, 44021.35
2239.310, 44052.03
2241.239, 44081.69
2243.167, 44109.62
2245.095, 44130.00
2247.024, 44143.00
2248.952, 44158.47
2250.881, 44175.89
2252.809, 44207.78
2254.738, 44290.43
2256.666, 44310.04
2258.595, 44159.34
2260.523, 44064.11
2262.452, 44149.51
2264.380, 44245.54
2266.309, 44253.91
2268.237, 44233.27
2270.166, 44219.23
2272.094, 44221.41
2274.022, 44273.54
2275.951, 44347.81
2277.879, 44364.18
2279.808, 44329.93
2281.736, 44316.81
2283.665, 44326.62
2285.593, 44357.40
2287.522, 44443.79
2289.450, 44485.27
2291.379, 44438.79
2293.307, 44426.84
2295.236, 44503.46
2297.164, 44557.13
2299.093, 44529.40
2301.021, 44496.10
2302.949, 44506.12
2304.878, 44524.10
2306.806, 44499.29
2308.735, 44480.43
2310.663, 44569.26
2312.592, 44703.68
2314.520, 44710.32
2316.449, 44609.25
2318.377, 44564.98
2320.306, 44578.25
2322.234, 44599.59
2324.163, 44627.91
2326.091, 44653.93
2328.020, 44672.20
2329.948, 44708.00
2331.876, 44809.96
2333.805, 44848.70
2335.733, 44714.67
2337.662, 44625.18
2339.590, 44706.17
2341.519, 44794.00
2343.447, 44762.36
2345.376, 44736.80
2347.304, 44865.46
2349.233, 45019.34
2351.161, 45036.11
2353.090, 44975.62
2355.018, 44925.54
2356.947, 44897.10
2358.875, 44960.01
2360.803, 45111.16
2362.732, 45144.95
2364.660, 45027.92
2366.589, 45023.88
2368.517, 45167.09
2370.446, 45251.61
2372.374, 45240.69
2374.303, 45219.25
2376.231, 45190.04
2378.160, 45186.54
2380.088, 45222.45
2382.017, 45279.88
2383.945, 45377.04
2385.874, 45461.74
2387.802, 45513.73
2389.730, 45534.58
2391.659, 45476.68
2393.587, 45434.55
2395.516, 45544.16
2397.444, 45696.22
2399.373, 45724.30
2401.301, 45675.90
2403.230, 45659.73
2405.158, 45670.48
2407.087, 45682.92
2409.015, 45697.09
2410.944, 45694.79
2412.872, 45674.82
2414.801, 45685.72
2416.729, 45733.60
2418.657, 45781.09
2420.586, 45826.49
2422.514, 45860.72
2424.443, 45866.16
2426.371, 45887.59
2428.300, 45965.36
2430.228, 46004.13
2432.157, 45944.92
2434.085, 45907.89
2436.014, 45944.24
2437.942, 46003.27
2439.871, 46073.27
2441.799, 46135.59
2443.728, 46168.86
2445.656, 46196.33
2447.584, 46248.83
2449.513, 46301.68
2451.441, 46304.70
2453.370, 46296.80
2455.298, 46358.36
2457.227, 46460.29
2459.155, 46549.55
2461.084, 46617.32
2463.012, 46614.80
2464.941, 46550.52
2466.869, 46560.84
2468.798, 46658.53
2470.726, 46687.23
2472.655, 46637.34
2474.583, 46619.38
2476.511, 46638.87
2478.440, 46710.93
2480.368, 46865.22
2482.297, 46961.24
2484.225, 46930.85
2486.154, 46919.25
2488.082, 46949.33
2490.011, 46987.73
2491.939, 47019.78
2493.868, 47080.60
2495.796, 47213.03
2497.725, 47315.91
2499.653, 47306.11
2501.582, 47306.04
2503.510, 47391.98
2505.438, 47490.95
2507.367, 47577.75
2509.295, 47632.74
2511.224, 47615.35
2513.152, 47584.70
2515.081, 47594.71
2517.009, 47621.47
2518.938, 47628.00
2520.866, 47641.44
2522.795, 47722.77
2524.723, 47830.01
2526.652, 47847.42
2528.580, 47830.46
2530.509, 47982.84
2532.437, 48227.45
2534.365, 48290.28
2536.294, 48208.47
2538.222, 48187.64
2540.151, 48226.89
2542.079, 48301.66
2544.008, 48418.30
2545.936, 48447.75
2547.865, 48384.81
2549.793, 48432.66
2551.722, 48609.41
2553.650, 48685.58
2555.579, 48606.82
2557.507, 48603.66
2559.436, 48756.76
2561.364, 48853.93
2563.292, 48876.76
2565.221, 48896.02
2567.149, 48909.15
2569.078, 48959.08
2571.006, 49062.81
2572.935, 49179.82
2574.863, 49362.02
2576.792, 49452.37
2578.720, 49331.73
2580.649, 49263.70
2582.577, 49310.58
2584.506, 49400.23
2586.434, 49550.50
2588.363, 49659.64
2590.291, 49634.63
2592.219, 49633.11
2594.148, 49740.78
2596.076, 49863.33
2598.005, 49987.06
2599.933, 50067.80
2601.862, 50041.58
2603.790, 50028.05
2605.719, 50128.37
2607.647, 50234.89
2609.576, 50270.09
2611.504, 50284.09
2613.433, 50320.16
2615.361, 50348.27
2617.290, 50305.70
2619.218, 50284.75
2621.146, 50402.18
2623.075, 50542.53
2625.003, 50584.26
2626.932, 50587.23
2628.860, 50603.33
2630.789, 50638.14
2632.717, 50712.18
2634.646, 50797.85
2636.574, 50871.36
2638.503, 50923.28
2640.431, 50905.65
2642.360, 50882.83
2644.288, 50970.75
2646.217, 51124.09
2648.145, 51297.82
2650.073, 51450.70
2652.002, 51475.89
2653.930, 51437.05
2655.859, 51432.53
2657.787, 51468.99
2659.716, 51587.14
2661.644, 51747.21
2663.573, 51846.45
2665.501, 51903.32
2667.430, 51972.24
2669.358, 52036.29
2671.287, 52025.48
2673.215, 51980.89
2675.144, 52052.83
2677.072, 52198.07
2679.000, 52242.08
2680.929, 52228.04
2682.857, 52303.67
2684.786, 52443.95
2686.714, 52574.52
2688.643, 52686.51
2690.571, 52734.82
2692.500, 52733.98
2694.428, 52745.57
2696.357, 52768.68
2698.285, 52790.97
2700.214, 52823.59
2702.142, 52934.71
2704.071, 53090.67
2705.999, 53120.14
2707.927, 53054.28
2709.856, 53039.21
2711.784, 53074.03
2713.713, 53184.53
2715.641, 53338.20
2717.570, 53395.38
2719.498, 53382.95
2721.427, 53430.84
2723.355, 53519.52
2725.284, 53545.60
2727.212, 53532.42
2729.141, 53561.73
2731.069, 53620.51
2732.998, 53667.43
2734.926, 53701.45
2736.854, 53693.87
2738.783, 53675.51
2740.711, 53785.64
2742.640, 53971.30
2744.568, 54089.62
2746.497, 54156.13
2748.425, 54205.84
2750.354, 54245.67
2752.282, 54286.04
2754.211, 54337.09
2756.139, 54439.21
2758.068, 54563.72
2759.996, 54653.07
2761.925, 54714.84
2763.853, 54761.96
2765.781, 54796.61
2767.710, 54786.78
2769.638, 54795.52
2771.567, 54972.04
2773.495, 55203.47
2775.424, 55312.11
2777.352, 55347.11
2779.281, 55369.30
2781.209, 55383.25
2783.138, 55379.66
2785.066, 55387.20
2786.995, 55443.37
2788.923, 55527.70
2790.852, 55634.76
2792.780, 55737.06
2794.708, 55802.24
2796.637, 55849.30
2798.565, 55881.18
2800.494, 55920.91
2802.422, 55989.04
2804.351, 56074.22
2806.279, 56199.38
2808.208, 56295.09
2810.136, 56268.45
2812.065, 56267.37
2813.993, 56426.58
2815.922, 56588.31
2817.850, 56656.48
2819.779, 56702.23
2821.707, 56742.35
2823.635, 56798.83
2825.564, 56891.27
2827.492, 56985.53
2829.421, 57075.05
2831.349, 57151.71
2833.278, 57220.16
2835.206, 57257.33
2837.135, 57227.75
2839.063, 57245.18
2840.992, 57378.29
2842.920, 57502.43
2844.849, 57628.68
2846.777, 57657.60
2848.706, 57534.88
2850.634, 57512.43
2852.563, 57670.18
2854.491, 57783.39
2856.419, 57778.94
2858.348, 57863.75
2860.276, 58056.55
2862.205, 58191.26
2864.133, 58255.25
2866.062, 58262.86
2867.990, 58203.92
2869.919, 58246.82
2871.847, 58390.77
2873.776, 58527.80
2875.704, 58654.76
2877.633, 58766.14
2879.561, 58857.44
2881.490, 58874.91
2883.418, 58859.83
2885.346, 59018.46
2887.275, 59246.39
2889.203, 59275.45
2891.132, 59204.58
2893.060, 59162.60
2894.989, 59179.68
2896.917, 59357.44
2898.846, 59565.76
2900.774, 59654.50
2902.703, 59699.63
2904.631, 59750.88
2906.560, 59816.36
2908.488, 59927.28
2910.417, 60019.45
2912.345, 60045.07
2914.273, 60064.10
2916.202, 60090.04
2918.130, 60145.55
2920.059, 60271.87
2921.987, 60373.28
2923.916, 60425.51
2925.844, 60456.20
2927.773, 60450.19
2929.701, 60477.07
2931.630, 60544.59
2933.558, 60657.38
2935.487, 60823.36
2937.415, 60976.74
2939.344, 61112.37
2941.272, 61209.14
2943.200, 61262.71
2945.129, 61329.89
2947.057, 61407.78
2948.986, 61468.80
2950.914, 61513.14
2952.843, 61525.45
2954.771, 61536.24
2956.700, 61677.87
2958.628, 61869.82
2960.557, 61942.60
2962.485, 61958.60
2964.414, 61979.47
2966.342, 62011.99
2968.271, 62074.39
2970.199, 62138.36
2972.127, 62175.66
2974.056, 62217.94
2975.984, 62282.40
2977.913, 62360.56
2979.841, 62469.16
2981.770, 62548.68
2983.698, 62557.18
2985.627, 62607.12
2987.555, 62746.19
2989.484, 62907.12
2991.412, 63107.46
2993.341, 63218.86
2995.269, 63225.36
2997.198, 63217.68
2999.126, 63198.93
3001.054, 63246.37
3002.983, 63354.38
3004.911, 63459.64
3006.840, 63556.50
3008.768, 63629.06
3010.697, 63682.36
3012.625, 63713.92
3014.554, 63746.44
3016.482, 63836.48
3018.411, 63921.77
3020.339, 63892.94
3022.268, 63899.63
3024.196, 64111.10
3026.125, 64313.48
3028.053, 64405.28
3029.981, 64474.04
3031.910, 64550.29
3033.838, 64618.59
3035.767, 64688.28
3037.695, 64696.63
3039.624, 64611.05
3041.552, 64652.13
3043.481, 64878.90
3045.409, 65055.73
3047.338, 65182.32
3049.266, 65222.39
3051.195, 65202.51
3053.123, 65224.96
3055.052, 65292.51
3056.980, 65460.68
3058.908, 65632.97
3060.837, 65608.97
3062.765, 65573.17
3064.694, 65722.58
3066.622, 65907.02
3068.551, 66072.35
3070.479, 66153.59
3072.408, 66057.18
3074.336, 66017.87
3076.265, 66145.63
3078.193, 66276.83
3080.122, 66392.53
3082.050, 66535.24
3083.979, 66717.73
3085.907, 66812.90
3087.835, 66817.53
3089.764, 66911.00
3091.692, 67058.84
3093.621, 67117.95
3095.549, 67120.84
3097.478, 67088.32
3099.406, 67088.32
3101.335, 67249.14
3103.263, 67444.77
3105.192, 67629.86
3107.120, 67734.60
3109.049, 67616.95
3110.977, 67596.38
3112.906, 67794.59
3114.834, 67977.35
3116.762, 68077.27
3118.691, 68180.50
3120.619, 68292.90
3122.548, 68394.90
3124.476, 68482.92
3126.405, 68508.91
3128.333, 68507.45
3130.262, 68644.07
3132.190, 68844.90
3134.119, 68994.49
3136.047, 69088.02
3137.976, 69068.80
3139.904, 69059.67
3141.833, 69169.75
3143.761, 69270.73
3145.689, 69289.63
3147.618, 69331.96
3149.546, 69436.07
3151.475, 69523.59
3153.403, 69584.02
3155.332, 69720.14
3157.260, 69938.65
3159.189, 69968.63
3161.117, 69866.69
3163.046, 69921.31
3164.974, 70053.80
3166.903, 70104.29
3168.831, 70171.72
3170.760, 70412.91
3172.688, 70654.03
3174.616, 70801.90
3176.545, 70903.11
3178.473, 70932.20
3180.402, 71019.09
3182.330, 71210.70
3184.259, 71255.20
3186.187, 71083.13
3188.116, 71107.59
3190.044, 71310.48
3191.973, 71441.61
3193.901, 71527.30
3195.830, 71635.89
3197.758, 71741.29
3199.687, 71780.05
3201.615, 71837.57
3203.543, 71997.61
3205.472, 72154.01
3207.400, 72267.25
3209.329, 72348.95
3211.257, 72397.32
3213.186, 72435.56
3215.114, 72464.55
3217.043, 72494.36
3218.971, 72528.66
3220.900, 72602.03
3222.828, 72721.24
3224.757, 72951.68
3226.685, 73173.47
3228.614, 73199.11
3230.542, 73191.45
3232.470, 73248.95
3234.399, 73315.98
3236.327, 73353.49
3238.256, 73441.45
3240.184, 73598.47
3242.113, 73726.06
3244.041, 73811.45
3245.970, 73931.05
3247.898, 74077.83
3249.827, 74252.05
3251.755, 74399.20
3253.684, 74383.46
3255.612, 74356.88
3257.541, 74455.37
3259.469, 74596.56
3261.397, 74773.82
3263.326, 74928.34
3265.254, 75060.52
3267.183, 75102.15
3269.111, 75045.05
3271.040, 75129.19
3272.968, 75331.13
3274.897, 75462.34
3276.825, 75570.52
3278.754, 75758.32
3280.682, 75952.15
3282.611, 76101.44
3284.539, 76189.23
3286.468, 76175.12
3288.396, 76194.54
3290.324, 76301.77
3292.253, 76433.88
3294.181, 76589.56
3296.110, 76628.52
3298.038, 76587.67
3299.967, 76671.09
3301.895, 76812.92
3303.824, 76905.37
3305.752, 76979.98
3307.681, 77046.04
3309.609, 77130.78
3311.538, 77251.14
3313.466, 77371.20
3315.395, 77490.69
3317.323, 77553.96
3319.251, 77561.26
3321.180, 77761.73
3323.108, 78042.03
3325.037, 78068.48
3326.965, 78000.13
3328.894, 78012.15
3330.822, 78071.98
3332.751, 78195.37
3334.679, 78295.23
3336.608, 78330.11
3338.536, 78415.14
3340.465, 78562.75
3342.393, 78653.18
3344.322, 78698.52
3346.250, 78765.70
3348.178, 78869.45
3350.107, 79091.08
3352.035, 79265.07
3353.964, 79170.73
3355.892, 79147.05
3357.821, 79331.93
3359.749, 79477.40
3361.678, 79530.34
3363.606, 79646.09
3365.535, 79797.43
3367.463, 79813.10
3369.392, 79770.26
3371.320, 79798.37
3373.249, 79868.56
3375.177, 79974.93
3377.105, 80081.99
3379.034, 80185.86
3380.962, 80253.84
3382.891, 80277.79
3384.819, 80351.79
3386.748, 80475.52
3388.676, 80672.98
3390.605, 80851.31
3392.533, 80830.77
3394.462, 80773.02
3396.390, 80791.31
3398.319, 80846.79
3400.247, 80932.05
3402.176, 81054.16
3404.104, 81233.77
3406.032, 81231.45
3407.961, 81117.07
3409.889, 81152.91
3411.818, 81287.08
3413.746, 81510.59
3415.675, 81692.78
3417.603, 81735.12
3419.532, 81754.70
3421.460, 81766.57
3423.389, 81813.18
3425.317, 81900.06
3427.246, 82082.09
3429.174, 82279.38
3431.103, 82204.77
3433.031, 82089.02
3434.959, 82170.47
3436.888, 82256.73
3438.816, 82256.95
3440.745, 82302.91
3442.673, 82434.74
3444.602, 82475.16
3446.530, 82460.29
3448.459, 82716.30
3450.387, 83015.64
3452.316, 82974.34
3454.244, 82924.39
3456.173, 83094.20
3458.101, 83204.91
3460.030, 83103.09
3461.958, 83085.60
3463.886, 83154.48
3465.815, 83358.83
3467.743, 83604.34
3469.672, 83704.23
3471.600, 83726.41
3473.529, 83658.48
3475.457, 83674.75
3477.386, 83911.97
3479.314, 83942.80
3481.243, 83749.43
3483.171, 83799.74
3485.100, 84012.07
3487.028, 84149.16
3488.957, 84245.56
3490.885, 84305.64
3492.813, 84395.92
3494.742, 84574.96
3496.670, 84615.56
3498.599, 84456.02
3500.527, 84465.52
3502.456, 84593.96
3504.384, 84694.59
3506.313, 84765.35
3508.241, 84743.25
3510.170, 84810.13
3512.098, 85082.05
3514.027, 85234.06
3515.955, 85200.45
3517.884, 85168.01
3519.812, 85158.30
3521.740, 85240.61
3523.669, 85357.81
3525.597, 85471.27
3527.526, 85554.05
3529.454, 85562.71
3531.383, 85643.11
3533.311, 85802.95
3535.240, 85757.30
3537.168, 85617.40
3539.097, 85717.34
3541.025, 85863.23
3542.954, 85867.99
3544.882, 85902.76
3546.811, 86051.05
3548.739, 86157.86
3550.667, 86224.03
3552.596, 86394.73
3554.524, 86602.55
3556.453, 86717.26
3558.381, 86753.65
3560.310, 86644.59
3562.238, 86620.47
3564.167, 86733.61
3566.095, 86865.13
3568.024, 86989.22
3569.952, 86974.07
3571.881, 86902.66
3573.809, 86840.06
3575.738, 86869.63
3577.666, 87083.27
3579.594, 87280.21
3581.523, 87433.39
3583.451, 87521.15
3585.380, 87552.68
3587.308, 87539.31
3589.237, 87511.38
3591.165, 87452.04
3593.094, 87486.14
3595.022, 87672.12
3596.951, 87800.44
3598.879, 87854.99
3600.808, 87974.58
3602.736, 88094.74
3604.665, 88107.43
3606.593, 88078.74
3608.521, 88026.78
3610.450, 88011.84
3612.378, 88054.16
3614.307, 88090.15
3616.235, 88141.81
3618.164, 88322.50
3620.092, 88489.81
3622.021, 88457.50
3623.949, 88449.73
3625.878, 88543.66
3627.806, 88599.98
3629.735, 88631.27
3631.663, 88906.96
3633.592, 89189.73
3635.520, 89061.48
3637.448, 88933.29
3639.377, 88987.47
3641.305, 89093.14
3643.234, 89233.94
3645.162, 89235.90
3647.091, 89192.01
3649.019, 89329.15
3650.948, 89474.26
3652.876, 89543.24
3654.805, 89513.77
3656.733, 89339.02
3658.662, 89369.60
3660.590, 89537.12
3662.519, 89624.26
3664.447, 89674.14
3666.375, 89722.38
3668.304, 89751.62
3670.232, 89714.16
3672.161, 89836.11
3674.089, 90060.12
3676.018, 90132.98
3677.946, 90134.17
3679.875, 90113.21
3681.803, 90143.13
3683.732, 90288.73
3685.660, 90408.48
3687.589, 90494.59
3689.517, 90484.00
3691.446, 90476.38
3693.374, 90637.94
3695.302, 90795.84
3697.231, 90914.55
3699.159, 90892.05
3701.088, 90757.95
3703.016, 90762.24
3704.945, 90835.05
3706.873, 90893.11
3708.802, 90941.68
3710.730, 91001.15
3712.659, 90959.59
3714.587, 90845.54
3716.516, 91023.13
3718.444, 91288.87
3720.373, 91329.31
3722.301, 91356.30
3724.229, 91465.35
3726.158, 91558.43
3728.086, 91629.30
3730.015, 91674.52
3731.943, 91706.38
3733.872, 91694.38
3735.800, 91769.78
3737.729, 92061.95
3739.657, 92172.24
3741.586, 92114.42
3743.514, 92160.01
3745.443, 92226.86
3747.371, 92173.62
3749.300, 92160.48
3751.228, 92260.49
3753.156, 92351.61
3755.085, 92426.55
3757.013, 92470.21
3758.942, 92511.32
3760.870, 92591.12
3762.799, 92656.75
3764.727, 92674.95
3766.656, 92800.08
3768.584, 92977.08
3770.513, 92948.19
3772.441, 92908.54
3774.370, 93052.62
3776.298, 93177.70
3778.227, 93226.07
3780.155, 93347.16
3782.083, 93479.30
3784.012, 93437.26
3785.940, 93386.63
3787.869, 93429.08
3789.797, 93505.70
3791.726, 93608.60
3793.654, 93737.89
3795.583, 93853.19
3797.511, 93890.94
3799.440, 93889.66
3801.368, 93848.23
3803.297, 93897.65
3805.225, 94031.70
3807.154, 94059.16
3809.082, 94052.64
3811.010, 94064.25
3812.939, 94153.77
3814.867, 94350.99
3816.796, 94323.41
3818.724, 94181.11
3820.653, 94411.83
3822.581, 94669.13
3824.510, 94663.06
3826.438, 94711.83
3828.367, 94850.24
3830.295, 94916.51
3832.224, 94946.08
3834.152, 95029.66
3836.081, 95063.20
3838.009, 94938.61
3839.938, 94963.88
3841.866, 95121.84
3843.794, 95242.38
3845.723, 95313.28
3847.651, 95311.32
3849.580, 95254.74
3851.508, 95190.79
3853.437, 95238.30
3855.365, 95315.97
3857.294, 95211.66
3859.222, 95132.25
3861.151, 95187.55
3863.079, 95241.14
3865.008, 95286.05
3866.936, 95388.25
3868.865, 95453.25
3870.793, 95311.52
3872.721, 95283.38
3874.650, 95483.49
3876.578, 95488.90
3878.507, 95381.09
3880.435, 95282.63
3882.364, 95240.20
3884.292, 95293.23
3886.221, 95263.93
3888.149, 95170.24
3890.078, 95267.37
3892.006, 95405.88
3893.935, 95500.26
3895.863, 95445.24
3897.792, 95229.06
3899.720, 95197.15
3901.648, 95268.04
3903.577, 95301.00
3905.505, 95300.99
3907.434, 95271.31
3909.362, 95204.87
3911.291, 95129.10
3913.219, 95238.38
3915.148, 95320.13
3917.076, 95169.47
3919.005, 95098.38
3920.933, 95124.61
3922.862, 95262.54
3924.790, 95354.55
3926.719, 95096.55
3928.647, 94959.70
3930.575, 95144.90
3932.504, 95162.34
3934.432, 95076.26
3936.361, 95076.75
3938.289, 95118.63
3940.218, 95169.64
3942.146, 95120.05
3944.075, 95015.23
3946.003, 94999.47
3947.932, 95056.61
3949.860, 95201.30
3951.789, 95176.30
3953.717, 94963.70
3955.646, 94961.22
3957.574, 95098.39
3959.502, 95072.16
3961.431, 94969.17
3963.359, 94890.18
3965.288, 94913.31
3967.216, 94957.23
3969.145, 94882.33
3971.073, 94813.77
3973.002, 94866.55
3974.930, 94893.11
3976.859, 94821.49
3978.787, 94691.72
3980.716, 94669.12
3982.644, 94806.58
3984.573, 94921.32
3986.501, 94953.76
3988.429, 94869.63
3990.358, 94821.62
3992.286, 94819.53
3994.215, 94800.80
3996.143, 94750.46
3998.072, 94832.72
4000.000, 94932.55
4001.929, 94759.98
4003.857, 94690.43
4005.786, 94733.38
4007.714, 94642.95
4009.643, 94613.98
4011.571, 94781.39
4013.500, 94800.88
4015.428, 94665.78
4017.356, 94688.29
4019.285, 94789.08
4021.213, 94821.74
4023.142, 94790.10
4025.070, 94708.96
4026.999, 94696.22
4028.927, 94744.48
4030.856, 94650.74
4032.784, 94650.22
4034.713, 94749.48
4036.641, 94789.91
4038.570, 94856.73
4040.498, 94801.88
4042.427, 94687.48
4044.355, 94673.95
4046.283, 94616.05
4048.212, 94556.77
4050.140, 94628.59
4052.069, 94696.58
4053.997, 94676.48
4055.926, 94724.95
4057.854, 94775.96
4059.783, 94634.64
4061.711, 94516.23
4063.640, 94563.81
4065.568, 94719.05
4067.497, 94786.74
4069.425, 94684.16
4071.354, 94615.70
4073.282, 94614.43
4075.210, 94526.68
4077.139, 94464.28
4079.067, 94465.08
4080.996, 94452.74
4082.924, 94478.94
4084.853, 94608.00
4086.781, 94683.52
4088.710, 94615.17
4090.638, 94540.52
4092.567, 94460.09
4094.495, 94442.82
4096.424, 94472.44
4098.352, 94567.05
4100.280, 94480.55
4102.209, 94248.64
4104.138, 94236.10
4106.066, 94299.38
4107.994, 94310.98
4109.923, 94371.29
4111.852, 94478.29
4113.780, 94453.29
4115.708, 94392.67
4117.637, 94344.41
4119.565, 94401.85
4121.494, 94569.44
4123.422, 94453.31
4125.351, 94269.77
4127.279, 94226.00
4129.208, 94247.51
4131.136, 94326.23
4133.064, 94366.77
4134.993, 94372.02
4136.921, 94376.49
4138.850, 94344.15
4140.778, 94244.16
4142.707, 94139.26
4144.635, 94088.98
4146.563, 94195.84
4148.492, 94264.70
4150.421, 94259.98
4152.349, 94181.45
4154.277, 94123.20
4156.206, 94343.71
4158.135, 94462.58
4160.063, 94385.83
4161.991, 94275.50
4163.920, 94186.23
4165.849, 94123.28
4167.777, 94097.77
4169.705, 94133.75
4171.634, 94251.45
4173.563, 94341.92
4175.491, 94349.33
4177.419, 94305.64
4179.348, 94147.25
4181.276, 94227.97
4183.205, 94357.61
4185.133, 94248.74
4187.062, 94120.89
4188.990, 94037.59
4190.918, 94121.57
4192.847, 94226.13
4194.775, 94338.16
4196.704, 94338.95
4198.632, 94120.87
4200.561, 94085.09
4202.489, 94161.23
4204.418, 94223.42
4206.346, 94282.23
4208.274, 94331.28
4210.203, 94257.46
4212.132, 94172.00
4214.060, 94168.12
4215.988, 94272.50
4217.917, 94459.77
4219.846, 94433.26
4221.774, 94384.16
4223.702, 94603.21
4225.631, 94625.03
4227.560, 94421.74
4229.488, 94255.07
4231.416, 94221.17
4233.345, 94521.40
4235.273, 94543.68
4237.202, 94343.88
4239.130, 94396.34
4241.059, 94478.41
4242.987, 94447.86
4244.916, 94429.41
4246.844, 94444.03
4248.772, 94676.94
4250.701, 94850.39
4252.629, 94778.62
4254.558, 94803.39
4256.486, 94905.13
4258.415, 95096.65
4260.343, 95193.91
4262.271, 95106.88
4264.200, 95107.39
4266.129, 95185.30
4268.057, 95398.21
4269.985, 95480.64
4271.914, 95379.70
4273.843, 95431.02
4275.771, 95493.29
4277.699, 95362.36
4279.628, 95376.63
4281.557, 95551.24
4283.485, 95724.84
4285.413, 95892.73
4287.342, 96111.42
4289.271, 96066.05
4291.199, 95883.88
4293.127, 96049.07
4295.056, 96210.05
4296.984, 96194.81
4298.913, 96189.55
4300.841, 96231.55
4302.770, 96435.59
4304.698, 96597.45
4306.626, 96667.34
4308.555, 96626.41
4310.483, 96580.50
4312.412, 96669.19
4314.340, 96655.87
4316.269, 96555.06
4318.197, 96787.72
4320.126, 96998.91
4322.054, 96966.20
4323.982, 96915.25
4325.911, 96932.65
4327.840, 97306.46
4329.768, 97563.44
4331.696, 97552.59
4333.625, 97401.72
4335.554, 97289.30
4337.482, 97474.40
4339.410, 97602.28
4341.339, 97632.71
4343.268, 97708.79
4345.196, 97862.70
4347.124, 98168.52
4349.053, 98132.65
4350.981, 97907.32
4352.910, 98039.16
4354.838, 98147.23
4356.767, 98098.69
4358.695, 98234.95
4360.624, 98418.16
4362.552, 98440.68
4364.480, 98494.10
4366.409, 98602.17
4368.337, 98719.19
4370.266, 98800.52
4372.194, 98780.32
4374.123, 98838.03
4376.051, 98946.47
4377.979, 99010.34
4379.908, 99137.54
4381.837, 99379.59
4383.765, 99379.20
4385.693, 99341.18
4387.622, 99496.80
4389.551, 99569.65
4391.479, 99548.51
4393.407, 99514.01
4395.336, 99466.35
4397.265, 99392.37
4399.193, 99630.84
4401.121, 99947.25
4403.050, 99997.18
4404.979, 99956.91
4406.907, 99900.63
4408.835, 100106.2
4410.764, 100294.6
4412.692, 100285.3
4414.621, 100251.4
4416.549, 100270.8
4418.478, 100489.1
4420.406, 100735.4
4422.334, 100960.9
4424.263, 100999.1
4426.191, 100969.5
4428.120, 100939.2
4430.048, 100976.3
4431.977, 101076.0
4433.905, 101265.6
4435.834, 101372.1
4437.762, 101353.6
4439.690, 101436.0
4441.619, 101576.4
4443.548, 101751.2
4445.476, 101917.8
4447.404, 102020.3
4449.333, 101886.3
4451.262, 101730.1
4453.190, 101627.1
4455.118, 101873.2
4457.047, 102149.0
4458.976, 102099.9
4460.904, 102168.3
4462.832, 102313.7
4464.761, 102326.9
4466.689, 102321.9
4468.618, 102328.0
4470.546, 102497.7
4472.475, 102630.1
4474.403, 102537.2
4476.332, 102598.6
4478.260, 102750.6
4480.188, 102763.0
4482.117, 102757.9
4484.045, 102770.4
4485.974, 102814.6
4487.902, 102894.1
4489.831, 103034.1
4491.759, 103109.4
4493.688, 103180.5
4495.616, 103451.9
4497.545, 103547.3
4499.473, 103424.3
4501.401, 103460.0
4503.330, 103561.4
4505.259, 103686.6
4507.187, 103741.5
4509.115, 103808.6
4511.044, 104085.1
4512.973, 104141.9
4514.901, 103996.6
4516.829, 103937.4
4518.758, 103977.2
4520.687, 104139.2
4522.615, 104250.5
4524.543, 104381.3
4526.472, 104639.4
4528.400, 104680.8
4530.329, 104598.4
4532.257, 104718.7
4534.186, 104712.1
4536.114, 104569.3
4538.042, 104849.3
4539.971, 105158.4
4541.899, 105244.8
4543.828, 105212.8
4545.756, 105141.1
4547.685, 105121.9
4549.613, 105146.6
4551.542, 105223.6
4553.470, 105481.7
4555.398, 105545.2
4557.327, 105343.1
4559.256, 105578.2
4561.184, 105796.4
4563.112, 105554.2
4565.041, 105570.5
4566.970, 105734.2
4568.898, 105795.9
4570.826, 105914.3
4572.755, 106084.4
4574.684, 106153.7
4576.612, 106218.4
4578.540, 106306.8
4580.469, 106275.0
4582.397, 106240.5
4584.326, 106308.2
4586.254, 106334.7
4588.183, 106392.6
4590.111, 106689.5
4592.040, 106866.1
4593.968, 106898.1
4595.896, 106908.3
4597.825, 106885.4
4599.753, 106829.1
4601.682, 106687.3
4603.610, 106711.3
4605.539, 107185.0
4607.467, 107382.2
4609.396, 107404.2
4611.324, 107373.4
4613.253, 107461.1
4615.181, 107607.5
4617.109, 107508.2
4619.038, 107552.8
4620.967, 107773.0
4622.895, 107669.6
4624.823, 107587.1
4626.752, 107755.2
4628.681, 107829.6
4630.609, 107899.1
4632.537, 108070.0
4634.466, 108089.8
4636.395, 108041.0
4638.323, 108118.2
4640.251, 108125.6
4642.180, 108096.6
4644.108, 108351.6
4646.037, 108441.6
4647.965, 108229.1
4649.894, 108437.6
4651.822, 108679.0
4653.750, 108755.8
4655.679, 108853.5
4657.607, 108900.5
4659.536, 108777.9
4661.464, 108706.7
4663.393, 108702.7
4665.321, 108786.0
4667.250, 108857.9
4669.178, 108933.5
4671.106, 109168.9
4673.035, 109319.7
4674.964, 109340.3
4676.892, 109424.5
4678.820, 109429.4
4680.749, 109252.3
4682.678, 109403.3
4684.606, 109541.6
4686.534, 109402.8
4688.463, 109518.8
4690.392, 109737.5
4692.320, 109872.4
4694.248, 109781.3
4696.177, 109635.0
4698.105, 109855.1
4700.034, 110030.4
4701.962, 110096.2
4703.891, 110079.0
4705.819, 110001.6
4707.748, 109899.9
4709.676, 110074.4
4711.604, 110258.0
4713.533, 110334.8
4715.461, 110325.9
4717.390, 110319.7
4719.318, 110374.7
4721.247, 110319.0
4723.175, 110343.2
4725.104, 110807.7
4727.032, 110637.5
4728.961, 110284.4
4730.889, 110545.6
4732.817, 110743.6
4734.746, 110802.9
4736.675, 110723.8
4738.603, 110749.9
4740.531, 110874.8
4742.460, 110871.6
4744.389, 110900.3
4746.317, 110976.5
4748.245, 110930.3
4750.174, 110911.5
4752.103, 110982.2
4754.031, 111199.5
4755.959, 111303.3
4757.888, 111167.9
4759.816, 111201.8
4761.745, 111307.6
4763.673, 111394.7
4765.602, 111580.7
4767.530, 111694.6
4769.458, 111551.9
4771.387, 111365.3
4773.315, 111246.0
4775.244, 111330.0
4777.172, 111433.8
4779.101, 111536.5
4781.029, 111634.4
4782.958, 111750.8
4784.886, 111846.0
4786.814, 111823.5
4788.743, 111682.8
4790.672, 111523.8
4792.600, 111768.0
4794.528, 111853.2
4796.457, 111753.9
4798.386, 112072.8
4800.314, 112100.2
4802.242, 111732.8
4804.171, 112053.0
4806.100, 112086.4
4808.028, 111588.4
4809.956, 111831.8
4811.885, 112135.3
4813.813, 112180.0
4815.742, 112084.2
4817.670, 111972.7
4819.599, 111911.3
4821.527, 112055.0
4823.456, 112136.8
4825.384, 111938.4
4827.313, 112253.7
4829.241, 112491.7
4831.169, 112198.2
4833.098, 112201.8
4835.026, 112279.9
4836.955, 112203.0
4838.883, 112037.2
4840.812, 111978.8
4842.740, 112237.7
4844.669, 112314.6
4846.597, 112307.1
4848.525, 112396.2
4850.454, 112277.7
4852.383, 112144.1
4854.311, 112245.3
4856.239, 112336.6
4858.168, 112428.3
4860.097, 112677.4
4862.025, 112382.7
4863.953, 112010.0
4865.882, 112315.5
4867.811, 112462.1
4869.739, 112477.3
4871.667, 112565.2
4873.596, 112561.9
4875.524, 112488.8
4877.453, 112370.5
4879.381, 112372.5
4881.310, 112456.1
4883.238, 112573.7
4885.167, 112499.3
4887.095, 112390.9
4889.023, 112586.6
4890.952, 112733.8
4892.880, 112714.0
4894.809, 112291.8
4896.737, 112193.4
4898.666, 112334.2
4900.594, 112513.2
4902.522, 112540.9
4904.451, 112566.3
4906.380, 112914.4
4908.308, 112965.3
4910.236, 112855.0
4912.165, 112923.9
4914.094, 112814.3
4916.022, 112642.1
4917.950, 112589.3
4919.879, 112859.2
4921.808, 113160.5
4923.736, 113040.8
4925.664, 112800.3
4927.593, 112635.0
4929.521, 112809.4
4931.450, 112777.1
4933.378, 112623.5
4935.307, 112466.8
4937.235, 112561.8
4939.164, 112704.3
4941.092, 112625.4
4943.021, 112794.6
4944.949, 112961.0
4946.877, 112883.9
4948.806, 112722.6
4950.734, 112585.1
4952.663, 112555.9
4954.591, 112543.5
4956.520, 112559.2
4958.448, 112611.5
4960.377, 112729.3
4962.305, 112767.5
4964.233, 112638.9
4966.162, 112643.0
4968.091, 112680.0
4970.019, 112695.5
4971.947, 112691.5
4973.876, 112669.9
4975.805, 112638.6
4977.733, 112667.5
4979.661, 112659.2
4981.590, 112593.6
4983.519, 112641.8
4985.447, 112525.9
4987.375, 112282.5
4989.304, 112387.6
4991.232, 112541.7
4993.161, 112633.8
4995.089, 112466.9
4997.018, 112497.6
4998.946, 112663.6
5000.875, 112658.4
5002.803, 112511.0
5004.731, 112367.1
5006.660, 112503.7
5008.588, 112479.0
5010.517, 112394.1
5012.445, 112416.1
5014.374, 112464.4
5016.302, 112483.3
5018.230, 112422.6
5020.159, 112484.3
5022.088, 112551.4
5024.016, 112527.0
5025.944, 112531.9
5027.873, 112435.0
5029.802, 112203.4
5031.730, 112159.0
5033.658, 112199.7
5035.587, 112253.1
5037.516, 112051.1
5039.444, 112041.4
5041.372, 112238.8
5043.301, 112280.0
5045.229, 112033.4
5047.158, 111751.1
5049.086, 112156.1
5051.015, 112121.4
5052.943, 111833.8
5054.872, 111721.2
5056.800, 111765.0
5058.729, 111871.1
5060.657, 111958.4
5062.585, 111900.9
5064.514, 111807.3
5066.442, 111757.5
5068.371, 111682.3
5070.299, 111605.7
5072.228, 111535.9
5074.156, 111376.8
5076.085, 111441.6
5078.013, 111696.1
5079.941, 111750.0
5081.870, 111553.1
5083.799, 111273.8
5085.727, 111318.4
5087.655, 111348.9
5089.584, 111278.5
5091.513, 111026.5
5093.441, 111037.3
5095.369, 111070.4
5097.298, 110878.7
5099.227, 110767.4
5101.155, 110719.5
5103.083, 110710.3
5105.012, 110544.1
5106.940, 110430.2
5108.869, 110426.2
5110.797, 110594.5
5112.726, 110418.9
5114.654, 110071.1
5116.583, 110126.9
5118.511, 110259.0
5120.439, 110252.7
5122.368, 109900.5
5124.296, 109644.0
5126.225, 109474.5
5128.153, 109352.7
5130.082, 109811.0
5132.010, 109860.1
5133.938, 109288.5
5135.867, 109276.0
5137.796, 109228.7
5139.724, 109106.4
5141.652, 109178.5
5143.581, 109073.6
5145.510, 108902.9
5147.438, 108861.6
5149.366, 108817.9
5151.295, 108777.9
5153.224, 108744.6
5155.152, 108622.7
5157.080, 108459.9
5159.009, 108297.5
5160.938, 108284.7
5162.866, 108141.2
5164.794, 107895.2
5166.723, 107729.7
5168.651, 107595.5
5170.580, 107474.8
5172.508, 107362.4
5174.437, 107009.7
5176.365, 106770.0
5178.293, 106833.8
5180.222, 106714.7
5182.150, 106662.8
5184.079, 106627.7
5186.007, 106163.5
5187.936, 105839.0
5189.864, 105681.9
5191.793, 105639.0
5193.721, 105490.1
5195.649, 105287.4
5197.578, 105070.0
5199.507, 105064.4
5201.435, 104864.8
5203.363, 104469.2
5205.292, 104391.9
5207.221, 104343.0
5209.149, 104259.7
5211.077, 104117.5
5213.006, 103949.4
5214.935, 103825.2
5216.863, 103790.4
5218.791, 103649.3
5220.720, 103538.8
5222.648, 103459.3
5224.577, 103209.0
5226.505, 102990.5
5228.434, 102852.2
5230.362, 102847.2
5232.291, 102742.1
5234.219, 102677.2
5236.147, 102736.5
5238.076, 102690.7
5240.004, 102618.8
5241.933, 102566.5
5243.861, 102602.4
5245.790, 102621.1
5247.718, 102558.6
5249.646, 102308.6
5251.575, 102303.4
5253.504, 102254.6
5255.432, 102049.8
5257.360, 102027.2
5259.289, 101979.1
5261.218, 101900.9
5263.146, 101891.3
5265.074, 101889.4
5267.003, 101918.2
5268.932, 102011.0
5270.860, 101935.5
5272.788, 101866.7
5274.717, 101843.1
5276.646, 101735.6
5278.574, 101786.0
5280.502, 101898.9
5282.431, 101959.0
5284.359, 101642.4
5286.288, 101389.4
5288.216, 101389.9
5290.145, 101247.5
5292.073, 101331.2
5294.001, 101481.6
5295.930, 101259.4
5297.858, 101222.3
5299.787, 101260.5
5301.715, 101261.5
5303.644, 101083.4
5305.572, 101041.6
5307.501, 101121.6
5309.429, 101079.0
5311.357, 100915.8
5313.286, 100757.2
5315.215, 100697.6
5317.143, 100582.7
5319.071, 100532.9
5321.000, 100561.3
5322.929, 100627.5
5324.857, 100390.3
5326.785, 100181.1
5328.714, 100346.4
5330.643, 100232.5
5332.571, 100110.5
5334.499, 100075.2
5336.428, 100087.6
5338.356, 100019.6
5340.285, 99964.84
5342.213, 100046.4
5344.142, 100142.8
5346.070, 99959.89
5347.999, 99572.66
5349.927, 99641.27
5351.855, 99717.52
5353.784, 99708.48
5355.712, 99598.35
5357.641, 99567.41
5359.569, 99402.27
5361.498, 99167.62
5363.426, 99443.35
5365.354, 99485.40
5367.283, 99365.19
5369.212, 99238.24
5371.140, 99222.40
5373.068, 99184.14
5374.997, 99131.66
5376.926, 99229.57
5378.854, 99198.34
5380.782, 99118.75
5382.711, 99075.13
5384.640, 98905.05
5386.568, 98800.90
5388.496, 98795.08
5390.425, 98841.70
5392.354, 98993.80
5394.282, 98980.48
5396.210, 98697.41
5398.139, 98496.46
5400.067, 98539.63
5401.996, 98642.14
5403.924, 98404.75
5405.853, 98726.62
5407.781, 98753.97
5409.709, 98281.24
5411.638, 98191.69
5413.566, 98205.98
5415.495, 98175.18
5417.423, 98011.71
5419.352, 97883.11
5421.280, 97726.63
5423.209, 97620.50
5425.137, 97892.67
5427.065, 97857.99
5428.994, 97869.59
5430.923, 98125.23
5432.851, 97799.13
5434.779, 97626.13
5436.708, 97640.30
5438.637, 97671.03
5440.565, 97583.30
5442.493, 97444.98
5444.422, 97344.99
5446.351, 97519.34
5448.279, 97458.12
5450.207, 97347.55
5452.136, 97368.07
5454.064, 97435.36
5455.993, 97585.48
5457.921, 97682.66
5459.850, 97513.87
5461.778, 97405.73
5463.707, 97328.83
5465.635, 97274.29
5467.563, 97280.13
5469.492, 97445.07
5471.420, 97574.88
5473.349, 97521.47
5475.277, 97509.20
5477.206, 97375.15
5479.134, 97224.90
5481.063, 97255.46
5482.991, 97401.70
5484.920, 97460.72
5486.848, 97399.41
5488.776, 97321.11
5490.705, 97248.92
5492.634, 97378.06
5494.562, 97751.80
5496.490, 97806.30
5498.419, 97742.88
5500.348, 97646.46
5502.276, 97557.68
5504.204, 97533.44
5506.133, 97451.57
5508.062, 97391.03
5509.990, 97562.33
5511.918, 97441.40
5513.847, 97454.87
5515.775, 97692.46
5517.704, 97767.80
5519.632, 97737.35
5521.561, 97590.23
5523.489, 97349.30
5525.417, 97376.77
5527.346, 97680.87
5529.274, 97973.47
5531.203, 97967.01
5533.131, 97891.07
5535.060, 97773.57
5536.988, 97725.98
5538.917, 97903.05
5540.845, 98025.64
5542.773, 97911.59
5544.702, 97729.48
5546.631, 98174.11
5548.559, 98062.30
5550.487, 97951.47
5552.416, 98102.53
5554.345, 98170.35
5556.273, 98005.64
5558.201, 97924.75
5560.130, 98100.12
5562.059, 97934.75
5563.987, 97912.91
5565.915, 98016.77
5567.844, 98134.40
5569.772, 98247.39
5571.701, 98168.55
5573.629, 98084.37
5575.558, 98292.98
5577.486, 98121.09
5579.415, 97894.73
5581.343, 97856.76
5583.271, 98319.02
5585.200, 98271.41
5587.128, 98213.09
5589.057, 98248.77
5590.985, 98148.49
5592.914, 98321.32
5594.842, 98320.34
5596.771, 98121.11
5598.699, 98284.17
5600.628, 98399.09
5602.556, 98255.09
5604.484, 97950.57
5606.413, 98372.25
5608.342, 98324.16
5610.270, 98169.80
5612.198, 98199.14
5614.127, 98396.23
5616.056, 98242.21
5617.984, 98124.13
5619.912, 98264.25
5621.841, 97949.54
5623.770, 98022.47
5625.698, 98201.35
5627.626, 98171.61
5629.555, 97980.57
5631.483, 98011.74
5633.412, 98020.62
5635.340, 97802.44
5637.269, 97847.25
5639.197, 97856.70
5641.125, 97765.41
5643.054, 97592.27
5644.982, 97879.81
5646.911, 97937.38
5648.839, 97802.45
5650.768, 97666.87
5652.696, 97885.69
5654.625, 97832.47
5656.553, 97742.09
5658.481, 97883.80
5660.410, 97695.31
5662.339, 97727.57
5664.267, 97897.30
5666.195, 98005.97
5668.124, 97699.04
5670.053, 97751.01
5671.981, 97897.48
5673.909, 97800.88
5675.838, 97620.95
5677.767, 97485.47
5679.695, 97497.01
5681.623, 97653.88
5683.552, 97268.06
5685.480, 97287.79
5687.409, 97347.03
5689.337, 97163.12
5691.266, 97460.51
5693.194, 97451.91
5695.123, 97198.70
5697.051, 96926.13
5698.979, 97039.43
5700.908, 97342.94
5702.836, 97311.79
5704.765, 96884.36
5706.693, 96982.82
5708.622, 97086.91
5710.550, 96997.03
5712.479, 96772.39
5714.407, 96830.78
5716.336, 96842.44
5718.264, 96825.12
5720.192, 96765.09
5722.121, 96576.72
5724.050, 96564.13
5725.978, 96611.82
5727.906, 96611.13
5729.835, 96477.02
5731.764, 96277.13
5733.692, 96049.95
5735.620, 96003.80
5737.549, 96320.41
5739.478, 96180.48
5741.406, 95993.70
5743.334, 95955.20
5745.263, 96109.45
5747.191, 96156.71
5749.120, 96068.46
5751.048, 95921.92
5752.977, 95786.02
5754.905, 95744.55
5756.833, 95588.73
5758.762, 95506.64
5760.690, 95572.52
5762.619, 95697.14
5764.547, 95652.43
5766.476, 95430.95
5768.404, 95211.13
5770.333, 95280.02
5772.261, 95307.02
5774.189, 95297.50
5776.118, 95271.20
5778.047, 95222.93
5779.975, 94910.34
5781.903, 94679.21
5783.832, 94627.77
5785.761, 94749.01
5787.689, 95001.36
5789.617, 94805.88
5791.546, 94593.90
5793.475, 94542.22
5795.403, 94286.99
5797.331, 94177.30
5799.260, 94089.16
5801.188, 94030.12
5803.117, 94139.23
5805.045, 94016.41
5806.974, 94075.37
5808.902, 94080.92
5810.831, 93748.99
5812.759, 93651.13
5814.688, 93763.16
5816.616, 93762.09
5818.544, 93515.43
5820.473, 93189.70
5822.401, 93336.66
5824.330, 93318.65
5826.258, 93113.37
5828.187, 93079.99
5830.115, 92986.85
5832.044, 92955.83
5833.972, 92905.00
5835.900, 92761.64
5837.829, 92685.74
5839.758, 92461.27
5841.686, 92379.09
5843.614, 92490.67
5845.543, 92532.98
5847.472, 92223.38
5849.400, 92141.20
5851.328, 92228.28
5853.257, 92191.04
5855.186, 91997.51
5857.114, 92084.94
5859.042, 92056.97
5860.971, 91735.70
5862.899, 91484.95
5864.828, 91516.65
5866.756, 91585.19
5868.685, 91553.36
5870.613, 91370.97
5872.542, 91184.69
5874.470, 91098.05
5876.398, 91069.88
5878.327, 91050.05
5880.255, 91023.16
5882.184, 91043.55
5884.112, 90903.64
5886.041, 90663.52
5887.969, 90504.98
5889.897, 90321.84
5891.826, 90465.63
5893.755, 90514.39
5895.683, 90269.19
5897.611, 90196.18
5899.540, 89943.85
5901.469, 89785.71
5903.397, 89748.37
5905.325, 89719.68
5907.254, 89678.45
5909.183, 89817.50
5911.111, 89681.88
5913.039, 89303.13
5914.968, 89686.41
5916.896, 89429.50
5918.825, 89117.57
5920.753, 88990.71
5922.682, 89029.94
5924.610, 88885.75
5926.539, 88754.84
5928.467, 88626.73
5930.396, 88469.68
5932.324, 88196.31
5934.252, 88477.67
5936.181, 88567.89
5938.109, 88402.43
5940.038, 88141.59
5941.966, 88008.87
5943.895, 88022.13
5945.823, 88087.84
5947.752, 88125.99
5949.680, 88075.13
5951.608, 87831.28
5953.537, 87800.66
5955.466, 87703.27
5957.394, 87510.43
5959.322, 87459.47
5961.251, 87250.05
5963.180, 87281.88
5965.108, 87315.41
5967.036, 87176.88
5968.965, 87034.26
5970.894, 87136.69
5972.822, 86928.05
5974.750, 86763.13
5976.679, 86995.17
5978.607, 86951.16
5980.536, 86729.09
5982.464, 86547.96
5984.393, 86455.06
5986.321, 86419.46
5988.250, 86568.80
5990.178, 86544.74
5992.106, 86553.10
5994.035, 86538.23
5995.963, 86238.90
5997.892, 86194.61
5999.820, 86294.19
6001.749, 86137.89
6003.677, 85813.54
6005.605, 85955.92
6007.534, 85857.23
6009.463, 85650.92
6011.391, 85550.84
6013.319, 85589.65
6015.248, 85536.72
6017.177, 85271.46
6019.105, 85188.20
6021.033, 85338.32
6022.962, 85503.73
6024.891, 85039.71
6026.819, 85297.63
6028.747, 85213.89
6030.676, 85104.00
6032.604, 85399.66
6034.533, 85300.21
6036.461, 85118.40
6038.390, 85042.32
6040.318, 84965.52
6042.247, 84796.86
6044.175, 84884.18
6046.104, 84788.94
6048.032, 84904.24
6049.960, 85055.68
6051.889, 84958.11
6053.817, 84787.36
6055.746, 84691.64
6057.674, 84777.40
6059.603, 84868.53
6061.531, 84781.27
6063.460, 84579.24
6065.388, 84542.99
6067.316, 84417.24
6069.245, 84337.66
6071.174, 84467.48
6073.102, 84565.62
6075.030, 84392.34
6076.959, 84351.74
6078.888, 84454.97
6080.816, 84559.81
6082.744, 84572.69
6084.673, 84612.23
6086.602, 84620.15
6088.530, 84521.38
6090.458, 84380.88
6092.387, 84592.11
6094.315, 84655.32
6096.244, 84583.01
6098.172, 84318.95
6100.101, 84124.27
6102.029, 84811.89
6103.958, 84686.70
6105.886, 84910.76
6107.814, 85057.30
6109.743, 84966.98
6111.671, 85119.41
6113.600, 85006.29
6115.528, 85171.55
6117.457, 85185.33
6119.385, 85128.05
6121.313, 85400.20
6123.242, 85375.29
6125.171, 85399.84
6127.099, 85425.84
6129.027, 85539.55
6130.956, 85802.09
6132.885, 85921.08
6134.813, 85981.84
6136.741, 85786.57
6138.670, 85855.06
6140.599, 86296.87
6142.527, 86198.27
6144.455, 86403.64
6146.384, 86794.73
6148.313, 86990.34
6150.241, 86995.66
6152.169, 87142.83
6154.098, 87241.27
6156.026, 87533.52
6157.955, 87890.77
6159.883, 88058.16
6161.812, 87993.77
6163.740, 88342.06
6165.668, 88670.00
6167.597, 88894.05
6169.525, 89219.31
6171.454, 89651.61
6173.382, 89852.77
6175.311, 90100.05
6177.239, 90441.16
6179.168, 90611.68
6181.096, 90841.31
6183.024, 91454.82
6184.953, 91550.98
6186.882, 92025.25
6188.810, 92355.54
6190.738, 92750.81
6192.667, 93289.17
6194.596, 93326.63
6196.524, 93795.92
6198.452, 94181.32
6200.381, 94693.09
6202.310, 95306.50
6204.238, 95786.06
6206.166, 96205.22
6208.095, 96782.69
6210.023, 97274.44
6211.952, 97826.32
6213.880, 98446.86
6215.809, 98765.88
6217.737, 98926.21
6219.666, 99521.98
6221.594, 100090.8
6223.522, 100621.6
6225.451, 101260.0
6227.379, 101389.7
6229.308, 101978.5
6231.236, 102575.3
6233.165, 103219.7
6235.093, 103852.4
6237.021, 104247.5
6238.950, 104632.6
6240.879, 105436.1
6242.807, 105695.5
6244.735, 106161.9
6246.664, 107251.9
6248.593, 108060.1
6250.521, 108281.8
6252.449, 108825.1
6254.378, 109198.0
6256.307, 109719.6
6258.235, 110625.2
6260.163, 111081.1
6262.092, 111712.5
6264.021, 112614.2
6265.949, 113252.0
6267.877, 113761.6
6269.806, 114488.5
6271.734, 115093.7
6273.663, 115761.6
6275.591, 116698.3
6277.520, 117424.0
6279.448, 117982.1
6281.376, 118705.4
6283.305, 119200.4
6285.233, 120212.0
6287.162, 121022.0
6289.090, 121806.7
6291.019, 122671.6
6292.947, 123468.7
6294.876, 124194.8
6296.804, 125106.3
6298.732, 125798.5
6300.661, 126626.1
6302.590, 127642.5
6304.518, 128553.4
6306.446, 129518.8
6308.375, 130095.0
6310.304, 131172.8
6312.232, 132212.4
6314.160, 133013.7
6316.089, 133921.4
6318.018, 135050.9
6319.946, 136050.0
6321.874, 137222.4
6323.803, 138044.2
6325.731, 138654.0
6327.660, 139662.2
6329.588, 141210.6
6331.517, 141986.6
6333.445, 143163.3
6335.374, 144152.1
6337.302, 145019.4
6339.230, 146138.0
6341.159, 147117.1
6343.087, 148185.7
6345.016, 149337.1
6346.944, 150189.9
6348.873, 151028.1
6350.801, 152087.2
6352.729, 153015.3
6354.658, 154248.2
6356.587, 155406.9
6358.515, 156486.8
6360.443, 157649.5
6362.372, 158763.0
6364.301, 159555.2
6366.229, 161053.7
6368.157, 162160.3
6370.086, 163179.3
6372.015, 164229.3
6373.943, 165156.8
6375.871, 166028.8
6377.800, 167556.6
6379.729, 168896.3
6381.657, 169882.9
6383.585, 170715.4
6385.514, 171518.0
6387.442, 172402.1
6389.371, 173518.8
6391.299, 174794.5
6393.228, 175714.1
6395.156, 176021.8
6397.084, 176496.8
6399.013, 177134.6
6400.941, 177534.4
6402.870, 178575.1
6404.798, 179388.3
6406.727, 179663.7
6408.655, 179757.4
6410.584, 179714.1
6412.512, 179800.9
6414.440, 180434.8
6416.369, 180629.9
6418.298, 180673.3
6420.226, 180395.7
6422.154, 180232.2
6424.083, 180200.4
6426.012, 180001.5
6427.940, 179551.9
6429.868, 180024.8
6431.797, 179305.2
6433.726, 179045.1
6435.654, 178864.5
6437.582, 178435.7
6439.511, 178039.3
6441.439, 177709.9
6443.368, 177195.7
6445.296, 176743.8
6447.225, 176082.3
6449.153, 175256.6
6451.082, 174435.7
6453.010, 173749.9
6454.938, 173327.9
6456.867, 172878.7
6458.795, 171672.2
6460.724, 170948.9
6462.652, 170290.9
6464.581, 169302.3
6466.509, 168345.4
6468.438, 167497.5
6470.366, 166668.3
6472.295, 165823.6
6474.223, 165046.5
6476.151, 163989.4
6478.080, 163110.5
6480.009, 162990.9
6481.937, 161577.6
6483.865, 160592.6
6485.794, 159801.7
6487.723, 159066.5
6489.651, 158256.3
6491.579, 157378.8
6493.508, 156565.7
6495.437, 155912.6
6497.365, 155246.2
6499.293, 154364.1
6501.222, 153498.2
6503.150, 152724.3
6505.079, 152014.7
6507.007, 151322.5
6508.936, 150592.3
6510.864, 150037.0
6512.792, 148860.7
6514.721, 148230.6
6516.649, 147877.4
6518.578, 147321.2
6520.506, 146494.6
6522.435, 145679.3
6524.363, 145115.0
6526.292, 144696.6
6528.220, 143965.6
6530.148, 142994.2
6532.077, 142266.9
6534.006, 141872.2
6535.934, 141503.8
6537.862, 140826.0
6539.791, 140523.0
6541.720, 139925.2
6543.648, 139215.1
6545.576, 138646.8
6547.505, 138169.3
6549.434, 137679.0
6551.362, 137131.0
6553.290, 136276.4
6555.219, 135900.3
6557.147, 135469.4
6559.076, 135221.7
6561.004, 134649.5
6562.933, 133784.7
6564.861, 133088.2
6566.790, 132729.3
6568.718, 132346.6
6570.646, 131609.8
6572.575, 131397.0
6574.503, 130941.6
6576.432, 130148.1
6578.360, 129616.8
6580.289, 129447.7
6582.217, 128762.4
6584.146, 128322.7
6586.074, 127817.3
6588.003, 127182.5
6589.931, 126765.1
6591.859, 126467.1
6593.788, 125936.0
##END=



