##NAMES=Fluorophlogopite
##RRUFFID=R040075
##IDEAL CHEMISTRY=KMg_3_(Si_3_Al)O_10_F_2_
##LOCALITY=unknown
##OWNER=RRUFF
##SOURCE=University of Arizona Mineral Museum
##DESCRIPTION=Green hexagonal tablet
##STATUS=The identification of this mineral has been confirmed by X-ray diffraction and chemical analysis
##URL=https://www.rruff.net/odr/rruff_sample/R040075
##MEASURED CHEMISTRY=(K_0.93_[box]_0.04_Na_0.03_)(Mg_0.66_Fe_0.30_Ti_0.02_)_3_(Si_0.75_Al_0.25_)_4_O_10_(F_0.90_(OH)_0.06_Cl_0.04_)
##DIFFRACTION SAMPLE DESCRIPTION=Powder
##CELL PARAMETERS=a: 5.332 b: 9.231 c: 10.189 alpha: 90 beta: 100.13 gamma: 90 volume: 493.7 crystal system: monoclinic
##FILETYPE=Raman RAW
##RAMAN WAVELENGTH=785

127.3809, 585.4967
129.3093, 726.6268
131.2378, 906.9758
133.1663, 1047.015
135.0947, 1096.890
137.0232, 1124.698
138.9517, 1161.006
140.8801, 1211.960
142.8086, 1327.036
144.7371, 1527.192
146.6655, 1710.469
148.5940, 1873.679
150.5225, 1851.533
152.4509, 1763.645
154.3794, 1644.891
156.3079, 1542.409
158.2363, 1450.013
160.1648, 1382.879
162.0933, 1341.355
164.0217, 1311.573
165.9502, 1290.495
167.8787, 1273.749
169.8071, 1259.570
171.7356, 1247.630
173.6641, 1231.580
175.5925, 1211.451
177.5210, 1188.434
179.4495, 1156.955
181.3779, 1129.159
183.3064, 1111.917
185.2349, 1102.327
187.1633, 1095.027
189.0918, 1090.430
191.0203, 1081.146
192.9487, 1065.075
194.8772, 1047.488
196.8057, 1030.441
198.7341, 1013.548
200.6626, 996.3696
202.5911, 979.0158
204.5195, 961.9402
206.4480, 944.7448
208.3765, 928.8003
210.3049, 913.6252
212.2334, 900.5556
214.1619, 889.1763
216.0903, 880.5364
218.0188, 878.7766
219.9473, 884.3457
221.8757, 883.8820
223.8042, 875.3030
225.7327, 864.9626
227.6611, 851.1955
229.5896, 840.4108
231.5181, 837.9499
233.4465, 841.9903
235.3750, 847.0469
237.3035, 853.3239
239.2319, 857.4562
241.1604, 859.4204
243.0889, 858.0765
245.0173, 850.7393
246.9458, 842.1604
248.8743, 835.5228
250.8027, 831.3727
252.7312, 832.7098
254.6597, 839.9945
256.5881, 848.1999
258.5166, 859.0425
260.4451, 866.0648
262.3735, 864.7039
264.3020, 860.1357
266.2305, 857.1053
268.1589, 856.0069
270.0874, 859.7839
272.0159, 870.0775
273.9443, 874.8839
275.8728, 866.8672
277.8013, 859.1380
279.7297, 857.0122
281.6582, 857.8002
283.5867, 860.7682
285.5151, 864.4033
287.4436, 858.5114
289.3721, 840.8441
291.3005, 826.9869
293.2290, 822.6800
295.1575, 820.0168
297.0859, 815.1234
299.0144, 810.9449
300.9429, 812.4036
302.8713, 817.8527
304.7998, 818.8233
306.7283, 814.5327
308.6567, 811.9131
310.5852, 812.9875
312.5137, 815.2156
314.4421, 819.2946
316.3706, 822.7854
318.2991, 822.1863
320.2275, 819.1116
322.1560, 820.0741
324.0845, 825.3795
326.0129, 825.7544
327.9414, 815.4696
329.8699, 808.5393
331.7983, 810.7344
333.7268, 815.2872
335.6553, 817.7865
337.5837, 819.1473
339.5122, 821.2844
341.4407, 824.0763
343.3691, 827.1703
345.2976, 832.0488
347.2261, 832.5806
349.1545, 823.2966
351.0830, 814.6658
353.0115, 809.8086
354.9399, 809.2825
356.8684, 817.8472
358.7969, 831.4592
360.7253, 834.6094
362.6538, 824.6223
364.5823, 818.7441
366.5107, 824.3024
368.4392, 828.0196
370.3677, 824.6235
372.2961, 820.4596
374.2246, 819.7573
376.1531, 822.0165
378.0815, 828.0615
380.0100, 836.9453
381.9385, 838.0950
383.8669, 825.4849
385.7954, 820.1565
387.7239, 833.0473
389.6523, 843.6220
391.5808, 840.8745
393.5093, 835.2977
395.4377, 839.3522
397.3662, 847.9343
399.2947, 849.0009
401.2231, 842.2250
403.1516, 837.9231
405.0801, 839.3951
407.0085, 838.8909
408.9370, 831.7062
410.8655, 826.9259
412.7939, 833.7000
414.7224, 840.9658
416.6509, 831.9476
418.5793, 815.2026
420.5078, 812.4542
422.4363, 825.4847
424.3647, 830.5964
426.2932, 819.7222
428.2217, 811.1004
430.1501, 807.0729
432.0786, 805.4346
434.0071, 808.0042
435.9355, 810.1499
437.8640, 805.8653
439.7925, 798.0798
441.7209, 793.1516
443.6494, 791.3828
445.5779, 787.2031
447.5063, 777.3916
449.4348, 771.0461
451.3633, 770.7226
453.2917, 771.3873
455.2202, 773.4097
457.1487, 773.6426
459.0771, 765.5026
461.0056, 755.9494
462.9341, 757.6447
464.8625, 769.4224
466.7910, 775.6884
468.7195, 771.8563
470.6479, 773.8563
472.5764, 789.1175
474.5049, 799.5372
476.4333, 797.4985
478.3618, 794.3693
480.2903, 792.6773
482.2188, 796.6145
484.1472, 813.7459
486.0757, 838.8625
488.0042, 856.5199
489.9326, 866.1113
491.8611, 872.0720
493.7896, 868.9000
495.7180, 871.5873
497.6465, 886.6540
499.5750, 898.5549
501.5034, 899.6555
503.4319, 899.2545
505.3604, 902.9300
507.2888, 909.0404
509.2173, 916.9563
511.1458, 925.8014
513.0742, 931.0497
515.0027, 931.7784
516.9312, 933.9236
518.8596, 940.0283
520.7881, 942.5494
522.7166, 939.5829
524.6450, 935.3273
526.5735, 930.1973
528.5020, 925.2791
530.4304, 921.2324
532.3589, 917.8716
534.2874, 915.5663
536.2158, 913.7831
538.1443, 911.2617
540.0728, 908.3328
542.0012, 900.3132
543.9297, 882.8713
545.8582, 871.8871
547.7866, 872.0993
549.7151, 869.8964
551.6436, 861.8959
553.5720, 850.4203
555.5005, 833.9736
557.4290, 817.4135
559.3574, 805.4135
561.2859, 795.5526
563.2144, 784.4175
565.1428, 771.7692
567.0713, 754.9088
568.9998, 732.1918
570.9282, 713.5070
572.8567, 697.1501
574.7852, 690.9226
576.7136, 702.7230
578.6421, 708.7120
580.5706, 696.3436
582.4990, 682.7836
584.4275, 676.9756
586.3560, 675.2380
588.2844, 677.9802
590.2129, 680.8953
592.1414, 674.3795
594.0698, 660.4034
595.9983, 651.4399
597.9268, 647.9857
599.8552, 645.7737
601.7837, 644.8555
603.7122, 645.0398
605.6406, 647.1165
607.5691, 647.8696
609.4976, 645.1588
611.4260, 643.0881
613.3545, 646.6371
615.2830, 648.1656
617.2114, 637.8251
619.1399, 626.7208
621.0684, 630.6221
622.9968, 644.0154
624.9253, 654.4637
626.8538, 661.5861
628.7822, 657.8505
630.7107, 642.3540
632.6392, 637.4383
634.5676, 647.0559
636.4961, 651.4332
638.4246, 645.5172
640.3530, 638.4341
642.2815, 630.6906
644.2100, 626.5142
646.1384, 628.5334
648.0669, 633.6191
649.9954, 641.4613
651.9238, 649.9336
653.8523, 657.7656
655.7808, 663.9783
657.7092, 665.1418
659.6377, 662.6885
661.5662, 664.5989
663.4946, 670.3884
665.4231, 671.4944
667.3516, 666.6696
669.2800, 674.0594
671.2085, 699.9618
673.1370, 718.4881
675.0654, 720.8601
676.9939, 722.2985
678.9224, 730.5850
680.8508, 734.9180
682.7793, 729.4810
684.7078, 720.8729
686.6362, 714.4510
688.5647, 705.9743
690.4932, 687.0110
692.4216, 665.3314
694.3501, 655.8338
696.2786, 654.5822
698.2070, 648.5476
700.1355, 639.2191
702.0640, 634.8804
703.9924, 635.6251
705.9209, 637.6279
707.8494, 641.0002
709.7778, 640.2797
711.7063, 631.8194
713.6348, 629.2128
715.5632, 638.7598
717.4917, 648.0250
719.4202, 656.9370
721.3486, 660.6790
723.2771, 654.6581
725.2056, 646.6458
727.1340, 639.4969
729.0625, 634.2573
730.9910, 632.9531
732.9194, 633.1606
734.8479, 632.8694
736.7764, 631.2150
738.7048, 622.8326
740.6333, 612.7523
742.5618, 617.9768
744.4902, 634.6379
746.4187, 641.6458
748.3472, 638.5294
750.2756, 635.3450
752.2041, 633.0371
754.1326, 628.1605
756.0610, 618.1774
757.9895, 613.3972
759.9180, 618.1750
761.8464, 622.3892
763.7749, 623.0328
765.7034, 625.4266
767.6318, 635.3380
769.5603, 640.4993
771.4888, 631.5522
773.4172, 622.7787
775.3457, 624.5726
777.2742, 626.5990
779.2026, 619.6030
781.1311, 610.3503
783.0596, 605.1041
784.9880, 602.1148
786.9165, 601.1594
788.8450, 599.5896
790.7734, 591.3768
792.7019, 579.6907
794.6304, 573.3344
796.5588, 570.6666
798.4873, 562.8422
800.4158, 550.3527
802.3442, 542.2895
804.2727, 538.9921
806.2012, 539.6912
808.1296, 546.7629
810.0581, 545.5004
811.9866, 527.5856
813.9150, 521.5001
815.8435, 538.8936
817.7720, 549.1344
819.7004, 548.9161
821.6289, 545.2589
823.5574, 535.4966
825.4858, 528.2779
827.4143, 527.4606
829.3428, 526.2954
831.2712, 520.6326
833.1997, 517.0608
835.1282, 518.5837
837.0566, 522.6618
838.9851, 531.5685
840.9136, 537.8799
842.8420, 533.6879
844.7705, 528.5397
846.6990, 531.3052
848.6274, 535.2559
850.5559, 533.3010
852.4844, 530.1542
854.4128, 532.8092
856.3413, 536.0102
858.2698, 528.8715
860.1982, 519.1964
862.1267, 524.1404
864.0552, 536.5483
865.9836, 537.7418
867.9121, 531.8083
869.8406, 534.3309
871.7690, 542.4753
873.6975, 539.8215
875.6260, 528.2427
877.5544, 525.8853
879.4829, 532.3979
881.4114, 535.7300
883.3398, 535.7042
885.2683, 538.1832
887.1968, 543.6369
889.1252, 547.4464
891.0537, 549.8626
892.9822, 548.0232
894.9106, 540.1345
896.8391, 538.4387
898.7676, 544.8892
900.6960, 548.6606
902.6245, 548.8691
904.5530, 547.3386
906.4814, 543.4940
908.4099, 542.2002
910.3384, 545.1229
912.2668, 544.7421
914.1953, 537.4109
916.1238, 539.3217
918.0522, 558.0381
919.9807, 566.3875
921.9092, 555.6233
923.8376, 544.9542
925.7661, 537.3578
927.6946, 536.2500
929.6230, 545.4225
931.5515, 551.9123
933.4800, 551.7166
935.4084, 549.3427
937.3369, 544.6158
939.2654, 542.2986
941.1938, 546.2933
943.1223, 546.6541
945.0508, 536.7427
946.9792, 530.4465
948.9077, 534.1010
950.8362, 538.7928
952.7646, 543.1301
954.6931, 544.6075
956.6216, 541.3091
958.5500, 536.8699
960.4785, 531.2803
962.4070, 527.0885
964.3354, 527.1080
966.2639, 525.6469
968.1924, 517.7875
970.1208, 512.4648
972.0493, 512.4628
973.9778, 516.0764
975.9063, 527.1599
977.8347, 534.9144
979.7632, 536.0583
981.6917, 532.0364
983.6201, 516.5863
985.5486, 506.5016
987.4771, 511.8651
989.4055, 518.1469
991.3340, 521.2113
993.2625, 522.0135
995.1909, 517.5839
997.1194, 516.1149
999.0479, 524.0395
1000.976, 530.1744
1002.905, 530.5474
1004.833, 528.4021
1006.762, 522.9548
1008.690, 518.2250
1010.619, 516.4718
1012.547, 514.1059
1014.476, 508.3279
1016.404, 504.4400
1018.333, 505.5761
1020.261, 506.2016
1022.189, 503.4071
1024.118, 502.3068
1026.046, 505.4888
1027.975, 508.3127
1029.903, 508.1982
1031.832, 510.3193
1033.760, 517.3729
1035.689, 523.7900
1037.617, 533.1567
1039.546, 533.5854
1041.474, 514.1752
1043.403, 503.0171
1045.331, 507.8949
1047.260, 511.7254
1049.188, 512.5638
1051.116, 513.0488
1053.045, 515.1456
1054.973, 512.0023
1056.902, 498.6194
1058.830, 493.4495
1060.759, 500.8781
1062.687, 505.8819
1064.616, 508.3354
1066.544, 504.8145
1068.473, 492.7485
1070.401, 487.9888
1072.330, 492.1840
1074.258, 495.5825
1076.187, 498.1554
1078.115, 496.8705
1080.043, 491.5488
1081.972, 489.4196
1083.900, 490.4206
1085.829, 491.3234
1087.757, 491.9443
1089.686, 490.1788
1091.614, 486.8026
1093.543, 486.3945
1095.471, 488.1184
1097.400, 490.0858
1099.328, 491.0999
1101.257, 485.5004
1103.185, 478.2936
1105.114, 482.9933
1107.042, 489.8531
1108.970, 481.3223
1110.899, 467.9525
1112.827, 460.9188
1114.756, 458.2778
1116.684, 460.8995
1118.613, 463.5856
1120.541, 462.2121
1122.470, 459.3871
1124.398, 456.1100
1126.327, 453.0761
1128.255, 449.1435
1130.184, 448.9391
1132.112, 459.0101
1134.041, 462.9486
1135.969, 450.2719
1137.897, 441.9153
1139.826, 446.0193
1141.754, 449.7277
1143.683, 450.1511
1145.611, 448.5777
1147.540, 443.9229
1149.468, 445.0096
1151.397, 455.0131
1153.325, 454.6827
1155.254, 440.9312
1157.182, 436.2967
1159.111, 441.7827
1161.039, 446.7292
1162.968, 450.7398
1164.896, 448.1371
1166.824, 440.7505
1168.753, 434.9014
1170.681, 432.4587
1172.610, 442.7856
1174.538, 457.0298
1176.467, 457.3045
1178.395, 452.3817
1180.324, 455.1436
1182.252, 457.5104
1184.181, 448.2384
1186.109, 439.7429
1188.038, 442.8711
1189.966, 446.5048
1191.895, 445.7247
1193.823, 443.2041
1195.751, 438.6054
1197.680, 435.3542
1199.608, 434.1356
1201.537, 435.7852
1203.465, 441.5765
1205.394, 442.3866
1207.322, 436.6995
1209.251, 430.2864
1211.179, 423.9796
1213.108, 425.0010
1215.036, 432.2519
1216.965, 434.7834
1218.893, 434.3378
1220.822, 440.2069
1222.750, 447.7291
1224.678, 446.2815
1226.607, 440.1709
1228.535, 432.2056
1230.464, 427.2623
1232.392, 432.9290
1234.321, 439.9910
1236.249, 443.6853
1238.178, 444.0103
1240.106, 437.6276
1242.035, 433.8769
1243.963, 437.4025
1245.892, 439.3264
1247.820, 438.7413
1249.749, 434.2897
1251.677, 424.7873
1253.605, 424.8498
1255.534, 434.5934
1257.462, 441.9847
1259.391, 446.0783
1261.319, 443.0323
1263.248, 436.8302
1265.176, 438.3196
1267.105, 441.9255
1269.033, 439.0894
1270.962, 435.0757
1272.890, 434.9644
1274.819, 435.7060
1276.747, 436.0521
1278.676, 435.4329
1280.604, 433.7762
1282.532, 430.7430
1284.461, 423.6536
1286.389, 420.7180
1288.318, 422.8134
1290.246, 428.4715
1292.175, 438.0602
1294.103, 440.3866
1296.032, 436.9482
1297.960, 437.1900
1299.889, 440.3050
1301.817, 447.3145
1303.746, 452.5052
1305.674, 448.0707
1307.603, 439.9890
1309.531, 429.2523
1311.459, 422.7599
1313.388, 426.9061
1315.316, 429.5747
1317.245, 424.6521
1319.173, 424.7396
1321.102, 434.7862
1323.030, 438.9723
1324.959, 436.8789
1326.887, 431.0832
1328.816, 422.9379
1330.744, 420.9318
1332.673, 422.3659
1334.601, 422.7996
1336.530, 421.3845
1338.458, 414.1311
1340.386, 409.2639
1342.315, 413.6873
1344.243, 416.8369
1346.172, 413.6735
1348.100, 411.8698
1350.029, 413.0447
1351.957, 416.4478
1353.886, 422.1958
1355.814, 430.4553
1357.743, 439.4217
1359.671, 434.7245
1361.600, 422.3311
1363.528, 412.6827
1365.457, 407.6469
1367.385, 414.2924
1369.313, 418.8946
1371.242, 410.5983
1373.170, 405.9776
1375.099, 412.1646
1377.027, 413.9615
1378.956, 407.6464
1380.884, 409.4022
1382.813, 419.7594
1384.741, 416.9944
1386.670, 406.4506
1388.598, 409.7110
1390.527, 416.7512
1392.455, 409.0066
1394.384, 400.9568
1396.312, 409.0782
1398.240, 412.4460
1400.169, 399.0403
1402.097, 394.1756
1404.026, 404.0102
1405.954, 409.6535
1407.883, 409.4669
1409.811, 410.6865
1411.740, 412.1209
1413.668, 407.8870
1415.597, 400.8038
1417.525, 393.5998
1419.454, 388.0286
1421.382, 384.2489
1423.311, 384.8645
1425.239, 392.5177
1427.167, 401.1882
1429.096, 411.1500
1431.024, 408.5194
1432.953, 394.8377
1434.881, 392.5765
1436.810, 397.0670
1438.738, 395.7059
1440.667, 390.6021
1442.595, 379.1936
1444.524, 373.0808
1446.452, 385.4571
1448.381, 393.0180
1450.309, 386.6157
1452.238, 387.1080
1454.166, 396.0356
1456.094, 402.2163
1458.023, 404.5514
1459.951, 397.3868
1461.880, 388.2647
1463.808, 389.6045
1465.737, 390.9558
1467.665, 380.7179
1469.594, 375.6270
1471.522, 386.5646
1473.451, 391.6688
1475.379, 388.8667
1477.308, 385.9211
1479.236, 382.7875
1481.165, 376.5858
1483.093, 371.5238
1485.021, 376.1822
1486.950, 381.0534
1488.878, 378.6800
1490.807, 376.2877
1492.735, 376.2672
1494.664, 376.9364
1496.592, 378.8301
1498.521, 372.8341
1500.449, 362.9899
1502.378, 372.1029
1504.306, 383.3790
1506.235, 370.0655
1508.163, 359.0034
1510.092, 367.2126
1512.020, 375.4235
1513.948, 379.6500
1515.877, 377.6518
1517.805, 369.6913
1519.734, 361.8220
1521.662, 355.4377
1523.591, 354.8712
1525.519, 356.6629
1527.448, 358.9022
1529.376, 359.8325
1531.305, 358.5432
1533.233, 356.8310
1535.162, 354.9587
1537.090, 352.6382
1539.019, 350.4747
1540.947, 351.5345
1542.875, 354.0238
1544.804, 356.0408
1546.732, 357.5913
1548.661, 358.7984
1550.589, 359.1812
1552.518, 358.6545
1554.446, 356.7991
1556.375, 353.8433
1558.303, 350.8164
1560.232, 348.4860
1562.160, 348.2856
1564.089, 349.1942
1566.017, 351.7199
1567.946, 351.5133
1569.874, 347.0334
1571.802, 348.9842
1573.731, 356.1528
1575.659, 351.2054
1577.588, 342.2414
1579.516, 346.5157
1581.445, 349.0003
1583.373, 333.7693
1585.302, 325.4286
1587.230, 328.7622
1589.159, 336.0915
1591.087, 345.1923
1593.016, 347.2724
1594.944, 345.9757
1596.873, 346.9058
1598.801, 347.3953
1600.729, 343.8175
1602.658, 345.1974
1604.586, 354.4746
1606.515, 343.8439
1608.443, 319.9666
1610.372, 317.7800
1612.300, 326.3207
1614.229, 338.3955
1616.157, 343.9123
1618.086, 332.6989
1620.014, 324.8360
1621.943, 322.1914
1623.871, 319.9256
1625.800, 319.6489
1627.728, 329.7086
1629.656, 339.1999
1631.585, 336.2534
1633.513, 333.2302
1635.442, 335.7901
1637.370, 334.8380
1639.299, 330.5855
1641.227, 329.5363
1643.156, 330.0085
1645.084, 330.0177
1647.013, 328.6686
1648.941, 323.2387
1650.870, 321.5804
1652.798, 326.8224
1654.727, 322.3140
1656.655, 312.7928
1658.583, 318.5141
1660.512, 325.1070
1662.440, 319.2130
1664.369, 312.7243
1666.297, 308.3408
1668.226, 310.0939
1670.154, 317.0803
1672.083, 320.9028
1674.011, 322.1018
1675.940, 321.9886
1677.868, 317.9886
1679.797, 306.1317
1681.725, 302.5863
1683.654, 309.6942
1685.582, 312.9314
1687.510, 313.4978
1689.439, 314.2401
1691.367, 312.6421
1693.296, 306.2990
1695.224, 301.2957
1697.153, 298.8522
1699.081, 301.0558
1701.010, 305.5038
1702.938, 306.4416
1704.867, 304.7980
1706.795, 300.1487
1708.724, 296.6979
1710.652, 295.2944
1712.581, 297.2708
1714.509, 301.4082
1716.438, 307.3123
1718.366, 308.2855
1720.294, 293.4772
1722.223, 283.9026
1724.151, 283.9696
1726.080, 287.6433
1728.008, 292.2597
1729.937, 290.1423
1731.865, 286.2462
1733.794, 283.0913
1735.722, 285.2315
1737.651, 294.0352
1739.579, 296.5102
1741.508, 293.9861
1743.436, 294.4013
1745.365, 294.0767
1747.293, 287.3724
1749.221, 284.8483
1751.150, 288.7609
1753.078, 284.2473
1755.007, 275.8349
1756.935, 278.9590
1758.864, 284.1170
1760.792, 284.1271
1762.721, 282.8910
1764.649, 280.9353
1766.578, 282.4330
1768.506, 285.1901
1770.435, 284.3361
1772.363, 282.6308
1774.292, 281.0993
1776.220, 281.7839
1778.148, 284.7365
1780.077, 284.1861
1782.005, 281.0050
1783.934, 274.3904
1785.862, 271.3473
1787.791, 279.8023
1789.719, 278.9835
1791.648, 270.1178
1793.576, 274.0957
1795.505, 280.4123
1797.433, 278.3112
1799.362, 274.9812
1801.290, 272.1858
1803.219, 270.6582
1805.147, 268.9906
1807.075, 259.6105
1809.004, 253.1247
1810.932, 257.9957
1812.861, 262.4529
1814.789, 264.8169
1816.718, 259.1824
1818.646, 252.5595
1820.575, 262.7043
1822.503, 269.1875
1824.432, 260.7970
1826.360, 259.2195
1828.289, 263.6653
1830.217, 256.0077
1832.146, 248.5816
1834.074, 252.2540
1836.002, 254.9749
1837.931, 254.6223
1839.859, 252.8431
1841.788, 251.4470
1843.716, 257.5284
1845.645, 260.7278
1847.573, 256.2415
1849.502, 247.7421
1851.430, 238.5121
1853.359, 246.7727
1855.287, 255.3842
1857.216, 245.1155
1859.144, 240.3134
1861.073, 245.6075
1863.001, 240.8252
1864.929, 231.6886
1866.858, 228.6673
1868.786, 233.1725
1870.715, 246.3101
1872.643, 243.6623
1874.572, 230.6262
1876.500, 232.8857
1878.429, 239.6513
1880.357, 243.5455
1882.286, 243.9930
1884.214, 241.7600
1886.143, 234.7405
1888.071, 228.1861
1890.000, 230.8290
1891.928, 231.1545
1893.856, 226.3306
1895.785, 225.4060
1897.713, 226.4566
1899.642, 223.0390
1901.570, 223.3063
1903.499, 231.3028
1905.427, 229.4841
1907.356, 222.1357
1909.284, 221.2920
1911.213, 223.5321
1913.141, 228.1309
1915.070, 227.5050
1916.998, 224.3649
1918.927, 224.6886
1920.855, 222.1808
1922.783, 214.6315
1924.712, 214.3987
1926.640, 219.9095
1928.569, 223.9043
1930.497, 225.0844
1932.426, 219.1397
1934.354, 215.2470
1936.283, 216.9115
1938.211, 216.8412
1940.140, 216.7325
1942.068, 222.2184
1943.997, 223.5798
1945.925, 214.4663
1947.854, 210.1411
1949.782, 210.1001
1951.710, 215.0503
1953.639, 216.0770
1955.567, 208.9220
1957.496, 205.8509
1959.424, 205.3484
1961.353, 207.0327
1963.281, 207.0054
1965.210, 201.8207
1967.138, 202.8488
1969.067, 207.5297
1970.995, 203.0342
1972.924, 195.1063
1974.852, 185.3028
1976.781, 187.7684
1978.709, 197.6454
1980.637, 202.9868
1982.566, 204.0446
1984.494, 198.2620
1986.423, 195.8722
1988.351, 197.9738
1990.280, 201.1522
1992.208, 203.6962
1994.137, 203.4227
1996.065, 203.2096
1997.994, 203.8713
1999.922, 199.1669
2001.851, 192.4832
2003.779, 189.8517
2005.708, 187.0302
2007.636, 184.1674
2009.564, 180.5222
2011.493, 180.2667
2013.421, 189.0452
2015.350, 193.6276
2017.278, 194.3085
2019.207, 190.8671
2021.135, 184.7732
2023.064, 176.3706
2024.992, 174.1511
2026.921, 177.1655
2028.849, 182.6392
2030.778, 185.8129
2032.706, 181.8273
2034.635, 180.2533
2036.563, 181.9814
2038.491, 183.2908
2040.420, 180.8569
2042.348, 175.1420
2044.277, 175.7390
2046.205, 179.2224
2048.134, 183.2470
2050.062, 182.5911
2051.991, 176.8247
2053.919, 172.0261
2055.848, 167.9292
2057.776, 167.9244
2059.705, 169.1745
2061.633, 171.5548
2063.562, 168.5221
2065.490, 165.7459
2067.418, 166.6595
2069.347, 166.0556
2071.275, 166.4494
2073.204, 172.4827
2075.132, 174.9482
2077.061, 169.6075
2078.989, 167.6750
2080.918, 168.1012
2082.846, 167.4695
2084.775, 163.8297
2086.703, 154.5776
2088.632, 153.9347
2090.560, 159.2940
2092.489, 163.8318
2094.417, 166.9409
2096.345, 167.2856
2098.274, 159.8011
2100.202, 152.5797
2102.131, 151.6402
2104.059, 155.4147
2105.988, 161.9921
2107.916, 162.7140
2109.845, 160.5390
2111.773, 157.3792
2113.702, 148.9831
2115.630, 140.3962
2117.559, 145.1508
2119.487, 149.7452
2121.416, 149.5195
2123.344, 152.7177
2125.272, 156.4912
2127.201, 155.9973
2129.129, 153.5892
2131.058, 150.3615
2132.986, 150.4230
2134.915, 147.2164
2136.843, 132.7587
2138.772, 135.2765
2140.700, 146.6241
2142.629, 144.0386
2144.557, 141.3648
2146.486, 142.5058
2148.414, 138.1521
2150.343, 132.3877
2152.271, 128.0826
2154.199, 130.0110
2156.128, 135.4368
2158.056, 133.7650
2159.985, 133.9994
2161.913, 141.9420
2163.842, 140.3071
2165.770, 135.7037
2167.699, 137.2520
2169.627, 139.5826
2171.556, 141.4465
2173.484, 134.8274
2175.413, 130.4472
2177.341, 136.8802
2179.270, 137.4216
2181.198, 134.0430
2183.126, 129.5496
2185.055, 130.4352
2186.983, 137.6303
2188.912, 131.0190
2190.840, 125.8150
2192.769, 133.4970
2194.697, 136.5007
2196.626, 135.6664
2198.554, 137.6854
2200.483, 136.5890
2202.411, 130.0741
2204.340, 126.7198
2206.268, 125.0064
2208.197, 123.9237
2210.125, 120.1909
2212.053, 116.8762
2213.982, 125.6619
2215.910, 130.5652
2217.839, 127.9284
2219.767, 126.5277
2221.696, 123.9965
2223.624, 119.1942
2225.553, 117.6032
2227.481, 117.3295
2229.410, 119.2835
2231.338, 119.7702
2233.267, 117.6418
2235.195, 117.5499
2237.124, 116.9914
2239.052, 115.3104
2240.980, 116.1008
2242.909, 117.7342
2244.837, 120.0617
2246.766, 119.3986
2248.694, 116.7127
2250.623, 113.4629
2252.551, 111.8555
2254.480, 112.8753
2256.408, 110.2260
2258.337, 107.0134
2260.265, 103.1641
2262.194, 108.1487
2264.122, 116.5136
2266.051, 112.3404
2267.979, 109.2646
2269.907, 106.2140
2271.836, 105.5868
2273.764, 107.3804
2275.693, 109.5728
2277.621, 106.5867
2279.550, 103.9539
2281.478, 108.2035
2283.407, 108.2232
2285.335, 105.2590
2287.264, 107.4283
2289.192, 109.2076
2291.121, 105.5733
2293.049, 102.6104
2294.978, 101.2121
2296.906, 101.6748
2298.834, 103.4868
2300.763, 104.8354
2302.691, 99.88148
2304.620, 98.48140
2306.548, 101.8235
2308.477, 101.1850
2310.405, 99.51302
2312.334, 102.0757
2314.262, 103.0228
2316.191, 101.9691
2318.119, 100.5524
2320.048, 95.14514
2321.976, 92.47429
2323.905, 94.39910
2325.833, 95.65514
2327.761, 100.1961
2329.690, 98.43835
2331.618, 94.02722
2333.547, 87.87592
2335.475, 84.73545
2337.404, 87.26909
2339.332, 84.71437
2341.261, 86.85371
2343.189, 95.49776
2345.118, 98.13441
2347.046, 90.82391
2348.975, 82.81114
2350.903, 86.26234
2352.832, 89.09460
2354.760, 86.03340
2356.688, 86.74464
2358.617, 89.31379
2360.545, 87.01517
2362.474, 85.95059
2364.402, 87.97966
2366.331, 87.68664
2368.259, 88.34470
2370.188, 90.08755
2372.116, 82.13099
2374.045, 76.72623
2375.973, 78.20529
2377.902, 79.91026
2379.830, 79.66826
2381.759, 80.76482
2383.687, 84.31982
2385.615, 86.19217
2387.544, 86.57763
2389.472, 83.51967
2391.401, 78.92518
2393.329, 83.24823
2395.258, 82.49225
2397.186, 77.98403
2399.115, 86.19682
2401.043, 87.03537
2402.972, 80.50063
2404.900, 79.78014
2406.829, 79.04116
2408.757, 76.75728
2410.686, 75.97021
2412.614, 75.64379
2414.542, 75.45107
2416.471, 76.13412
2418.399, 75.29824
2420.328, 75.29053
2422.256, 80.04639
2424.185, 78.11469
2426.113, 70.91301
2428.042, 65.64201
2429.970, 64.53027
2431.899, 71.11078
2433.827, 77.95561
2435.756, 76.44662
2437.684, 68.84996
2439.613, 67.29375
2441.541, 71.78636
2443.469, 73.61175
2445.398, 69.40540
2447.326, 67.34039
2449.255, 69.65340
2451.183, 70.18932
2453.112, 68.30161
2455.040, 64.06837
2456.969, 63.55450
2458.897, 68.17910
2460.826, 66.89432
2462.754, 61.67518
2464.683, 60.74705
2466.611, 66.32349
2468.540, 66.84657
2470.468, 64.53587
2472.396, 66.63831
2474.325, 64.47049
2476.253, 62.43367
2478.182, 59.36062
2480.110, 61.12558
2482.039, 66.67764
2483.967, 64.20580
2485.896, 62.69381
2487.824, 64.03314
2489.753, 59.38624
2491.681, 60.06543
2493.610, 63.10611
2495.538, 62.95935
2497.467, 64.02792
2499.395, 62.83806
2501.323, 59.59082
2503.252, 57.61716
2505.180, 57.77198
2507.109, 59.75558
2509.037, 62.75397
2510.966, 61.23841
2512.894, 59.23453
2514.823, 58.71514
2516.751, 57.16108
2518.680, 55.29373
2520.608, 56.54545
2522.537, 60.59939
2524.465, 61.01310
2526.394, 58.07738
2528.322, 53.44748
2530.250, 54.56668
2532.179, 55.94120
2534.107, 57.41665
2536.036, 58.65825
2537.964, 55.29941
2539.893, 50.54504
2541.821, 49.96137
2543.750, 51.29538
2545.678, 57.09269
2547.607, 57.16365
2549.535, 52.23274
2551.464, 44.24986
2553.392, 45.99566
2555.321, 50.00503
2557.249, 51.03157
2559.177, 54.24075
2561.106, 52.64202
2563.034, 48.67970
2564.963, 49.01338
2566.891, 50.15755
2568.820, 51.42653
2570.748, 45.80793
2572.677, 43.48332
2574.605, 48.18217
2576.534, 48.86245
2578.462, 49.51509
2580.391, 48.66553
2582.319, 42.42884
2584.248, 44.54446
2586.176, 51.03015
2588.104, 51.07614
2590.033, 47.43424
2591.961, 42.61279
2593.890, 43.25299
2595.818, 44.38821
2597.747, 46.60714
2599.675, 45.18326
2601.604, 47.19889
2603.532, 48.46645
2605.461, 42.10236
2607.389, 44.14234
2609.318, 46.10592
2611.246, 39.39460
2613.175, 40.28110
2615.103, 42.84224
2617.031, 41.72648
2618.960, 42.02187
2620.888, 42.56325
2622.817, 41.27650
2624.745, 42.00458
2626.674, 42.81814
2628.602, 42.21111
2630.531, 37.86293
2632.459, 34.89994
2634.388, 35.81718
2636.316, 37.13277
2638.245, 38.10279
2640.173, 38.73927
2642.102, 38.21037
2644.030, 37.15724
2645.958, 36.27631
2647.887, 35.95738
2649.815, 36.34825
2651.744, 36.67381
2653.672, 35.31339
2655.601, 32.49745
2657.529, 32.18497
2659.458, 41.27462
2661.386, 40.62156
2663.315, 35.53165
2665.243, 32.61695
2667.172, 38.29171
2669.100, 43.85675
2671.029, 43.16439
2672.957, 37.75528
2674.885, 34.87157
2676.814, 37.16730
2678.742, 34.36591
2680.671, 31.91123
2682.599, 31.37580
2684.528, 33.42785
2686.456, 30.27069
2688.385, 24.52411
2690.313, 29.48086
2692.242, 31.56629
2694.170, 31.42913
2696.099, 33.52350
2698.027, 33.83115
2699.956, 32.82309
2701.884, 32.21016
2703.813, 33.79366
2705.741, 32.64463
2707.669, 26.36876
2709.598, 27.88707
2711.526, 28.77450
2713.455, 24.54996
2715.383, 24.17995
2717.312, 22.21964
2719.240, 21.78706
2721.169, 28.52874
2723.097, 32.82381
2725.026, 33.65558
2726.954, 27.92123
2728.883, 28.24406
2730.811, 28.03052
2732.740, 28.12542
2734.668, 27.74823
2736.596, 26.91440
2738.525, 26.65126
2740.453, 25.42188
2742.382, 27.31081
2744.310, 29.86584
2746.239, 26.08023
2748.167, 25.51812
2750.096, 27.99179
2752.024, 26.24615
2753.953, 26.94925
2755.881, 27.54842
2757.810, 24.52398
2759.738, 22.49930
2761.667, 22.81037
2763.595, 26.92379
2765.523, 22.01665
2767.452, 24.34667
2769.380, 28.66360
2771.309, 24.08420
2773.237, 22.43824
2775.166, 21.41604
2777.094, 19.27909
2779.023, 19.24999
2780.951, 19.88728
2782.880, 21.65039
2784.808, 23.95772
2786.737, 23.17652
2788.665, 21.98096
2790.594, 19.83487
2792.522, 19.62904
2794.450, 21.28698
2796.379, 23.71651
2798.307, 22.48452
2800.236, 19.93606
2802.164, 21.20765
2804.093, 21.56315
2806.021, 19.58151
2807.950, 19.51003
2809.878, 19.05619
2811.807, 16.56672
2813.735, 17.02221
2815.664, 16.49499
2817.592, 21.20058
2819.521, 22.69235
2821.449, 21.06416
2823.377, 22.26348
2825.306, 17.93742
2827.234, 16.44762
2829.163, 19.47098
2831.091, 23.16382
2833.020, 18.85981
2834.948, 16.84739
2836.877, 18.85855
2838.805, 17.00651
2840.734, 13.83860
2842.662, 14.49417
2844.591, 15.29279
2846.519, 19.31651
2848.448, 14.83166
2850.376, 15.14775
2852.304, 22.33275
2854.233, 18.00399
2856.161, 15.98233
2858.090, 19.69428
2860.018, 19.50015
2861.947, 13.70772
2863.875, 17.66291
2865.804, 22.22144
2867.732, 14.94226
2869.661, 13.36618
2871.589, 15.84763
2873.518, 19.89641
2875.446, 19.98458
2877.375, 18.86290
2879.303, 17.22655
2881.231, 16.60051
2883.160, 15.41993
2885.088, 13.70469
2887.017, 17.76025
2888.945, 15.06578
2890.874, 13.57183
2892.802, 18.23281
2894.731, 13.64931
2896.659, 12.65789
2898.588, 15.60112
2900.516, 13.13437
2902.445, 12.88895
2904.373, 12.87852
2906.302, 8.835153
2908.230, 15.80772
2910.158, 16.88094
2912.087, 13.87946
2914.015, 10.81862
2915.944, 12.40190
2917.872, 10.43056
2919.801, 1.4771480E-02
2921.729, 2.835492
2923.658, 11.86828
2925.586, 12.11490
2927.515, 12.94496
2929.443, 16.99403
2931.372, 12.18627
2933.300, 6.876452
2935.229, 10.53098
2937.157, 10.25083
2939.085, 13.02652
2941.014, 13.75392
2942.942, 11.93945
2944.871, 9.308903
2946.799, 7.270916
2948.728, 6.318900
2950.656, 8.890269
2952.585, 12.26719
2954.513, 8.304079
2956.442, 6.252408
2958.370, 8.811280
2960.299, 10.07564
2962.227, 12.14215
2964.156, 12.96438
2966.084, 12.10567
2968.012, 9.300247
2969.941, 7.883386
2971.869, 6.384329
2973.798, 6.802490
2975.726, 10.30403
2977.655, 13.48786
2979.583, 10.07065
2981.512, 5.009591
2983.440, 3.719242
2985.369, 6.950939
2987.297, 8.880098
2989.226, 8.678257
2991.154, 13.99568
2993.083, 9.061845
2995.011, 2.853538
2996.939, 5.015935
2998.868, 10.46823
3000.796, 12.04304
3002.725, 5.916208
3004.653, 9.563291
3006.582, 7.440566
3008.510, 4.662393
3010.439, 6.377526
3012.367, 6.669946
3014.296, 5.454763
3016.224, 1.321529
3018.153, -1.139079
3020.081, 5.898732
3022.010, 5.996093
3023.938, 6.555045
3025.866, 7.407782
3027.795, 7.852777
3029.723, 6.115256
3031.652, 2.639050
3033.580, 5.213678
3035.509, 1.601567
3037.437, 2.549588
3039.366, 9.980107
3041.294, 7.042282
3043.223, 7.436746
3045.151, 10.18630
3047.080, 11.61901
3049.008, 6.453835
3050.937, 3.918834
3052.865, 5.923903
3054.793, 10.10485
3056.722, 6.084746
3058.650, 3.448252
3060.579, 5.783570
3062.507, 8.109445
3064.436, 7.190674
3066.364, 6.574875
3068.293, 9.882380
3070.221, 7.403778
3072.150, 8.756351
3074.078, 6.029249
3076.007, -3.126357
3077.935, 4.733729
3079.864, 2.448330
3081.792, 0.8677126
3083.720, 6.056257
3085.649, 7.706409
3087.577, 5.135897
3089.506, 2.323476
3091.434, 0.6900221
3093.363, 9.6915632E-02
3095.291, 1.718879
3097.220, 2.672813
3099.148, 1.011853
3101.077, 0.5258690
3103.005, 2.228513
3104.934, 3.365190
3106.862, 2.153885
3108.791, 5.230821
3110.719, 5.055711
3112.647, 4.131477
3114.576, 7.399888
3116.504, 1.715747
3118.433, 3.434504
3120.361, 8.777263
3122.290, 5.870021
3124.218, -0.6905581
3126.147, -4.646148
3128.075, -3.243065
3130.004, 5.159867
3131.932, 6.028979
3133.861, 6.341681
3135.789, 5.942303
3137.718, 1.106060
3139.646, 0.8212014
3141.574, 1.071051
3143.503, 1.201885
3145.431, 2.023885
3147.360, 2.544662
3149.288, 8.037039
3151.217, 12.56335
3153.145, 4.439185
3155.074, 3.348714
3157.002, 2.861647
3158.931, 2.752986
3160.859, 3.568951
3162.788, -1.521602
3164.716, -1.996317
3166.645, -0.7890306
3168.573, -3.248986
3170.501, -5.176500
3172.430, -3.120401
3174.358, 0.6011924
3176.287, 0.9130868
3178.215, 0.2901143
3180.144, -1.924997
3182.072, -0.8502718
3184.001, 4.896170
3185.929, -1.333646
3187.858, 1.788238
3189.786, 3.557238
3191.715, 0.6153683
3193.643, 8.155672
3195.572, 0.3739865
3197.500, -1.128105
3199.428, 7.131498
3201.357, 1.280109
3203.285, -0.3598333
3205.214, -1.264276
3207.142, -0.8575935
3209.071, 4.625091
3210.999, 2.172665
3212.928, 2.589549
3214.856, 4.162063
3216.785, 3.1792920E-02
3218.713, 4.983972
3220.642, 5.008048
3222.570, 1.457859
3224.499, -2.706738
3226.427, 3.548504
3228.355, -1.625783
3230.284, -4.259535
3232.212, 2.416514
3234.141, 1.383562
3236.069, -2.780725
3237.998, -0.8820938
3239.926, 2.890874
3241.855, -1.491935
3243.783, -3.258443
3245.712, 0.6014017
3247.640, 0.6238219
3249.569, -13.10216
3251.497, -7.303542
3253.426, -2.665573
3255.354, 0.7025281
3257.282, 5.477937
3259.211, 3.623651
3261.139, -0.8675674
3263.068, -4.952794
3264.996, -6.560678
3266.925, 3.340119
3268.853, 2.754702
3270.782, -0.8809336
3272.710, -3.977684
3274.639, -1.992314
3276.567, -5.026334
3278.496, 1.297219
3280.424, 6.027340
3282.353, 2.270292
3284.281, 3.743783
3286.209, 0.4530572
3288.138, -1.950150
3290.066, -1.898302
3291.995, -0.8525008
3293.923, -7.104941
3295.852, 1.073592
3297.780, 4.565722
3299.709, -4.684406
3301.637, -0.7697498
3303.566, 1.371889
3305.494, 3.142704
3307.423, 1.686657
3309.351, -4.406122
3311.280, -3.904546
3313.208, -2.314821
3315.136, 2.490237
3317.065, 9.092119
3318.993, 1.722647
3320.922, 2.991017
3322.850, 3.074528
3324.779, 1.827759
3326.707, 1.209692
3328.636, 5.846404
3330.564, -2.057478
3332.493, -7.293391
3334.421, -3.254913
3336.350, -2.892576
3338.278, -1.569254
3340.207, -3.048234
3342.135, -4.944811
3344.063, -4.392106
3345.992, 3.422901
3347.920, -0.2237201
3349.849, -6.389559
3351.777, -6.957522
3353.706, 2.033710
3355.634, -3.607040
3357.563, -3.696794
3359.491, -4.327033
3361.420, -8.000385
3363.348, -5.838023
3365.277, -3.390227
3367.205, 0.8962032
3369.134, 0.5672616
3371.062, -7.466424
3372.990, -10.03856
3374.919, -11.75305
3376.847, -4.254637
3378.776, 3.209469
3380.704, -3.008534
3382.633, -9.117667
3384.561, -2.755708
3386.490, -1.797881
3388.418, -7.177124
3390.347, -0.9360117
3392.275, 1.5064650E-02
3394.204, -3.700378
3396.132, -5.639111
3398.061, -3.311822
3399.989, 0.8689713
3401.917, -7.255853
3403.846, -8.564453
3405.774, -3.861113
3407.703, 0.4115485
3409.631, -3.419476
3411.560, -3.084031
3413.488, 1.666637
3415.417, 4.488468
3417.345, 0.7257687
3419.274, -9.881466
3421.202, -7.337501
3423.131, -4.259809
3425.059, -3.392305
3426.988, -2.712811
3428.916, -0.4318908
3430.844, -5.110362
3432.773, -7.700846
3434.701, -6.545075
3436.630, -3.017291
3438.558, 3.805220
3440.487, -3.310599
3442.415, -2.558089
3444.344, 0.4484240
3446.272, -2.649656
3448.201, -2.139379
3450.129, 8.473440
3452.058, 5.191416
3453.986, -3.376123
3455.915, -4.779580
3457.843, -0.2453422
3459.771, -4.191916
3461.700, -6.245392
3463.628, -4.961119
3465.557, -2.158828
3467.485, 1.280170
3469.414, -3.399162
3471.342, 5.188494
3473.271, 2.481908
3475.199, -12.75589
3477.128, -8.112906
3479.056, -1.671614
3480.985, 2.952239
3482.913, 0.6176385
3484.842, -2.854785
3486.770, 3.324651
3488.698, -4.554514
3490.627, -8.147590
3492.555, 0.6066729
3494.484, 5.378959
3496.412, -6.624990
3498.341, -2.090502
3500.269, -4.343337
3502.198, -6.650928
3504.126, -9.026747
3506.055, -8.104461
3507.983, 9.683306
3509.912, 4.607480
3511.840, -0.1705044
3513.769, 1.416032
3515.697, 2.024290
3517.625, -7.226043
3519.554, 1.498914
3521.482, 0.2193559
3523.411, -1.929934
3525.339, -3.699957
3527.268, -6.788175
3529.196, -3.479098
3531.125, 3.068655
3533.053, 4.185364
3534.982, -0.6541229
3536.910, -8.502635
3538.839, -14.44491
3540.767, 2.356824
3542.696, -0.7503342
3544.624, -7.780617
3546.552, -5.303435
3548.481, 3.911282
3550.409, -6.059392
3552.338, 1.724827
3554.266, -3.182476
3556.195, -9.514396
3558.123, -6.401670
3560.052, 2.848225
3561.980, -1.273247
3563.909, -3.194393
3565.837, -8.764336
3567.766, -9.141837
3569.694, -2.083694
3571.623, -4.291544
3573.551, -7.889734
3575.479, -0.9248034
3577.408, -0.6947448
3579.336, -7.299236
3581.265, -10.80935
3583.193, -5.021842
3585.122, 1.992488
3587.050, -2.240315
3588.979, -5.954443
3590.907, -3.971781
3592.836, -1.481271
3594.764, -9.678121
3596.693, -14.99245
3598.621, -1.003581
3600.550, 3.113631
3602.478, -3.893636
3604.406, 1.674101
3606.335, 2.492023
3608.263, -7.513972
3610.192, -2.591554
3612.120, 1.899845
3614.049, 1.306761
3615.977, 6.410830
3617.906, -5.328609
3619.834, -5.736725
3621.763, -1.551436
3623.691, -1.703001
3625.620, -3.151639
3627.548, 1.317569
3629.477, -3.338168
3631.405, -8.711758
3633.333, -3.605535
3635.262, 0.1480628
3637.190, -2.493723
3639.119, -5.928301
3641.047, -8.018418
3642.976, -2.456713
3644.904, -2.228202
3646.833, -3.885335
3648.761, -2.767428
3650.690, 0.5812953
3652.618, -0.8298753
3654.547, 2.332355
3656.475, 4.156524
3658.404, 1.245054
3660.332, -3.395240
3662.260, -6.247571
3664.189, -7.674996
3666.117, -5.969754
3668.046, -7.012447
3669.974, -6.670815
3671.903, 0.9518258
3673.831, 6.244892
3675.760, -8.459001
3677.688, -12.23070
3679.617, -12.77327
3681.545, -1.729053
3683.474, 1.847448
3685.402, -1.826369
3687.331, -2.412197
3689.259, -6.863716
3691.188, 0.5027216
3693.116, -10.01361
3695.044, -6.947705
3696.973, 1.184618
3698.901, 0.9986198
3700.830, -2.368748
3702.758, -6.188428
3704.687, -0.2703039
3706.615, -0.2567450
3708.544, -4.816825
3710.472, -10.63580
3712.401, -12.28532
3714.329, -2.112058
3716.258, -6.130776
3718.186, -4.876465
3720.115, -6.588318
3722.043, -14.92060
3723.971, -19.58248
3725.900, -12.64337
3727.828, -5.224065
3729.757, -1.707187
3731.685, -3.199474
3733.614, -4.430312
3735.542, -6.125257
3737.471, -4.778602
3739.399, 0.9877130
3741.328, -4.844118
3743.256, -2.702793
3745.185, -11.10151
3747.113, -16.92954
3749.042, -12.10776
3750.970, -2.435350
3752.898, 1.882910
3754.827, -5.2993599E-02
3756.755, -4.806408
3758.684, -8.774509
3760.612, -9.478364
3762.541, -5.982482
3764.469, -4.050501
3766.398, -8.764023
3768.326, -14.02128
3770.255, -2.913300
3772.183, -1.266227
3774.112, -3.952670
3776.040, -4.929122
3777.969, -9.175798
3779.897, -12.57469
3781.825, -1.800483
3783.754, -6.420458
3785.682, -2.783442
3787.611, -5.473262
3789.539, -2.848767
3791.468, 1.561752
3793.396, -0.6497996
3795.325, -8.966010
3797.253, -14.64802
3799.182, -9.735707
3801.110, -3.210774
3803.039, 3.024040
3804.967, -3.229608
3806.896, -12.44571
3808.824, -13.90326
3810.752, -12.01990
3812.681, -4.246192
3814.609, 2.246866
3816.538, -7.932521
3818.466, -0.1121287
3820.395, -1.088618
3822.323, -2.719599
3824.252, 9.375075
3826.180, 2.586656
3828.109, -8.299820
3830.037, 3.508483
3831.966, -1.182224
3833.894, -2.324209
3835.823, -3.006968
3837.751, -3.370981
3839.679, -3.753486
3841.608, -14.04439
3843.536, -6.221954
3845.465, -1.488934
3847.393, -15.11875
3849.322, -10.50223
3851.250, -7.814657
3853.179, -5.735238
3855.107, -2.196360
3857.036, -16.56589
3858.964, -17.60037
3860.893, -11.40107
3862.821, -1.713633
3864.750, -4.817441
3866.678, -9.451519
3868.606, -8.853721
3870.535, -4.360692
3872.463, -0.1319154
3874.392, -4.939655
3876.320, -9.378185
3878.249, -14.53178
3880.177, -3.847318
3882.106, -9.6054122E-02
3884.034, -5.835130
3885.963, -5.337169
3887.891, 2.147957
3889.820, -1.254658
3891.748, -10.89803
3893.677, 0.8419856
3895.605, -7.204721
3897.533, -2.808618
3899.462, 2.040633
3901.390, -2.631107
3903.319, -5.684489
3905.247, -2.043975
3907.176, -4.017808
3909.104, -9.412169
3911.033, -9.277736
3912.961, -4.296272
3914.890, -1.329826
3916.818, -0.4888594
3918.747, -1.302308
3920.675, -1.143097
3922.604, -1.381407
3924.532, -4.904674
3926.460, -4.293958
3928.389, -6.305919
3930.317, -8.714813
3932.246, -10.41031
3934.174, -7.176545
3936.103, -1.590492
3938.031, -2.668544
3939.960, -6.009358
3941.888, -2.506285
3943.817, 1.459796
3945.745, -5.267190
3947.674, -3.022247
3949.602, 3.924542
3951.531, -2.470039
3953.459, -3.016667
3955.387, -0.9654968
3957.316, 1.317837
3959.244, 1.709347
3961.173, -2.052004
3963.101, -3.984426
3965.030, -5.925934
3966.958, -0.8808011
3968.887, -4.963705
3970.815, -11.42265
3972.744, -9.308050
3974.672, -9.476799
3976.601, -5.778263
3978.529, -1.541031
3980.458, -2.453254
3982.386, -1.170523
3984.314, -7.290500
3986.243, 8.796047
3988.171, 3.663980
3990.100, -0.8516555
3992.028, -2.745982
3993.957, -5.6680892E-02
3995.885, 7.6675363E-04
3997.814, -0.2948931
3999.742, -2.627202
4001.671, -8.101733
4003.599, -7.842189
4005.528, -8.971794
4007.456, 2.907830
4009.385, -3.208270
4011.313, -5.296054
4013.241, -8.834377
4015.170, -3.416138
4017.098, -2.960367
4019.027, -2.479133
4020.955, -4.782817
4022.884, -11.87677
4024.812, -8.411298
4026.741, 0.7271152
4028.669, -5.329230
4030.598, -13.89704
4032.526, -11.00688
4034.455, -8.723793
4036.383, -11.93694
4038.312, -10.42393
4040.240, -4.662769
4042.168, -1.852171
4044.097, 0.2471500
4046.025, -3.052019
4047.954, -12.35124
4049.882, 0.2451120
4051.811, -3.553410
4053.739, -1.604837
4055.668, -5.106266
4057.596, -9.162657
4059.525, -2.164741
4061.453, -6.913459
4063.382, 0.5377184
4065.310, 2.166864
4067.239, -3.718290
4069.167, -3.038436
4071.095, 1.897957
4073.024, 1.649481
4074.952, -4.528977
4076.881, -1.272951
4078.809, 2.169486
4080.738, -10.37678
4082.666, -2.179959
4084.595, -3.922010
4086.523, -11.22110
4088.452, -6.386896
4090.380, -4.134565
4092.309, -0.1632434
4094.237, -1.734168
4096.166, -5.767030
4098.094, -4.511947
4100.022, -7.873758
4101.951, -0.6425905
4103.879, -4.543704
4105.808, 1.467846
4107.736, -4.530945
4109.665, -2.861416
4111.593, -6.316857
4113.521, -8.520709
4115.450, -3.513595
4117.379, -3.726681
4119.307, -2.847199
4121.235, -3.066667
4123.164, -3.891994
4125.093, 1.229126
4127.021, 2.741044
4128.949, -6.251269
4130.878, -6.254323
4132.807, -8.715220
4134.735, -9.812305
4136.663, 5.207103
4138.592, -0.6749317
4140.521, -2.959509
4142.449, -3.305929
4144.377, 3.475466
4146.306, -5.637443
4148.234, -7.164837
4150.163, -0.9215698
4152.091, 5.291397
4154.020, 1.867593
4155.948, -8.932434
4157.876, -9.222880
4159.805, -2.822595
4161.733, -5.397149
4163.662, -4.812257
4165.590, -9.326069
4167.519, -11.50887
4169.447, -3.894122
4171.376, -8.589541
4173.304, -3.560551
4175.232, -1.420191
4177.161, -9.180010
4179.090, -4.042006
4181.018, -5.890266
4182.946, -9.417764
4184.875, -2.084569
4186.804, -7.852631
4188.732, -8.386249
4190.660, -3.012623
4192.589, -5.337087
4194.518, -4.517843
4196.446, -1.354126
4198.374, -8.167323
4200.303, -8.858910
4202.231, 3.395150
4204.160, 2.097829
4206.088, 0.7158815
4208.017, -2.515516
4209.945, -1.165759
4211.874, -16.24564
4213.802, -3.248346
4215.730, -10.87742
4217.659, -1.909284
4219.587, -8.590095
4221.516, -5.401529
4223.444, -2.483254
4225.373, -0.1001779
4227.301, -18.85708
4229.229, -12.16905
4231.158, -4.032640
4233.087, -4.628875
4235.015, -3.758937
4236.943, -7.4271873E-02
4238.872, -1.214754
4240.801, -2.119107
4242.729, -1.317506
4244.657, -5.530431
4246.586, -4.245778
4248.515, -5.414414
4250.443, -7.351440
4252.371, 1.843204
4254.300, 4.962867
4256.229, -6.526689
4258.157, -8.049955
4260.085, 3.094675
4262.014, -9.692998
4263.942, -5.463095
4265.871, 0.6053221
4267.799, -4.739292
4269.728, -3.514508
4271.656, 5.350734
4273.584, -1.556819
4275.513, 7.751234
4277.441, -10.54534
4279.370, 1.6992999E-02
4281.298, -1.362259
4283.227, -13.40688
4285.155, -12.17882
4287.084, -12.63326
4289.012, 1.315289
4290.940, -2.769951
4292.869, -10.13968
4294.798, -5.966032
4296.726, -3.990638
4298.654, -3.740167
4300.583, -6.186942
4302.512, -10.99543
4304.440, -6.693980
4306.368, -5.978294
4308.297, -10.12227
4310.226, -5.454832
4312.154, -4.010053
4314.082, -11.72760
4316.011, -19.20808
4317.939, -13.71853
4319.868, -0.2418865
4321.796, 1.285461
4323.725, -13.06771
4325.653, -8.222049
4327.582, -14.11812
4329.510, -8.245346
4331.438, -10.03476
4333.367, -14.11319
4335.295, -13.82198
4337.224, -0.2285884
4339.152, -8.005816
4341.081, -17.04776
4343.009, -10.04568
4344.938, -4.388676
4346.866, -8.679201
4348.795, -1.336421
4350.723, -10.03817
4352.651, -5.222077
4354.580, -6.356722
4356.509, -14.40579
4358.437, -12.08476
4360.365, -8.326116
4362.294, 4.096062
4364.223, -9.665216
4366.151, -7.755507
4368.079, -21.43170
4370.008, -6.039570
4371.937, -2.267842
4373.865, -9.066678
4375.793, -0.1631510
4377.722, -9.549062
##END=



