##NAMES=Fluor-uvite
##RRUFFID=R050172
##IDEAL CHEMISTRY=CaMg_3_(Al_5_Mg)(Si_6_O_18_)(BO_3_)_3_(OH)_3_F
##LOCALITY=Pierrepont, New York, USA
##OWNER=RRUFF
##SOURCE=Marcus Origlieri
##DESCRIPTION=Black prismatic crystal
##STATUS=The identification of this mineral has been confirmed by X-ray diffraction and chemical analysis
##URL=https://www.rruff.net/odr/rruff_sample/R050172
##MEASURED CHEMISTRY=(Ca_0.64_Na_0.36_)(Mg_0.56_Fe^2+^_0.34_Al_0.08_Ti_0.02_)_3_(Mg_1.00_Al_5.00_)(BO_3_)_3_Si_6.00_O_18_((OH)_3.45_F_0.55_)
##DIFFRACTION SAMPLE DESCRIPTION=Powder
##CELL PARAMETERS=a: 15.9847 b: 15.9847 c: 7.2216 alpha: 90 beta: 90 gamma: 120 volume: 1598.02 crystal system: hexagonal
##FILETYPE=Raman Processed
##RAMAN WAVELENGTH=532

161.9133, 167.8318
163.8418, 166.3621
165.7703, 164.5775
167.6987, 163.1571
169.6272, 162.1962
171.5557, 161.5459
173.4841, 160.9816
175.4126, 160.5364
177.3411, 160.1044
179.2695, 159.5287
181.1980, 158.6646
183.1265, 158.2348
185.0549, 158.6109
186.9834, 159.4854
188.9119, 160.2777
190.8403, 160.8328
192.7688, 161.4224
194.6973, 162.1902
196.6257, 163.1339
198.5542, 164.1359
200.4827, 165.2784
202.4111, 166.4893
204.3396, 167.4111
206.2681, 167.8508
208.1965, 168.1717
210.1250, 168.6368
212.0535, 169.4743
213.9819, 169.8178
215.9104, 169.6157
217.8389, 168.8100
219.7673, 167.4527
221.6958, 165.1381
223.6243, 162.6406
225.5527, 160.4007
227.4812, 158.1702
229.4097, 156.6436
231.3381, 156.1223
233.2666, 156.4492
235.1951, 156.9497
237.1235, 157.8081
239.0520, 158.6380
240.9805, 159.2681
242.9089, 160.2483
244.8374, 160.1271
246.7659, 158.1400
248.6943, 154.7042
250.6228, 151.0473
252.5513, 146.8767
254.4797, 142.7738
256.4082, 139.1589
258.3367, 135.9630
260.2651, 133.2712
262.1936, 131.1869
264.1221, 129.6497
266.0505, 128.4591
267.9790, 127.7464
269.9075, 127.2368
271.8359, 126.7374
273.7644, 126.1904
275.6929, 125.7978
277.6213, 125.7149
279.5498, 125.8762
281.4783, 125.7862
283.4067, 125.2410
285.3352, 124.6330
287.2637, 124.1434
289.1921, 123.7496
291.1206, 123.5940
293.0491, 123.6825
294.9775, 124.0366
296.9060, 124.6078
298.8345, 125.2465
300.7629, 126.2838
302.6914, 127.8784
304.6199, 130.4509
306.5483, 132.7232
308.4768, 134.2652
310.4053, 135.4585
312.3337, 137.1496
314.2622, 139.7321
316.1907, 142.3381
318.1191, 144.6512
320.0476, 146.6762
321.9761, 148.3253
323.9045, 149.3018
325.8330, 149.9972
327.7615, 150.8880
329.6899, 151.9324
331.6184, 153.2868
333.5469, 155.0950
335.4753, 157.4947
337.4038, 159.6785
339.3322, 161.5215
341.2607, 163.1907
343.1892, 164.8106
345.1176, 165.8513
347.0461, 167.5678
348.9746, 170.6274
350.9030, 174.8539
352.8315, 178.5014
354.7600, 180.8663
356.6884, 183.0526
358.6169, 185.7565
360.5454, 189.7539
362.4738, 193.3475
364.4023, 196.6572
366.3308, 199.4614
368.2592, 201.3987
370.1877, 202.4900
372.1162, 202.4959
374.0446, 201.3209
375.9731, 198.6787
377.9016, 195.1424
379.8300, 190.2364
381.7585, 184.5293
383.6870, 178.7351
385.6154, 172.3814
387.5439, 166.6086
389.4724, 161.6493
391.4008, 157.6191
393.3293, 154.3397
395.2578, 152.5265
397.1862, 151.0225
399.1147, 148.9020
401.0432, 145.2974
402.9716, 142.3416
404.9001, 140.4731
406.8286, 139.5283
408.7570, 138.6617
410.6855, 138.0141
412.6140, 137.2883
414.5424, 136.3440
416.4709, 135.0564
418.3994, 133.7919
420.3279, 132.4117
422.2563, 131.1156
424.1848, 130.1087
426.1133, 129.4900
428.0417, 129.0089
429.9702, 128.5488
431.8987, 128.1136
433.8271, 127.8834
435.7556, 127.9638
437.6841, 128.1593
439.6125, 128.3952
441.5410, 128.7446
443.4695, 128.8566
445.3979, 128.4969
447.3264, 127.8894
449.2549, 127.5703
451.1833, 127.6278
453.1118, 127.8200
455.0403, 128.0144
456.9687, 128.1959
458.8972, 128.7070
460.8257, 130.0270
462.7541, 131.3972
464.6826, 132.0708
466.6111, 131.8788
468.5395, 131.8590
470.4680, 132.1746
472.3965, 132.8127
474.3249, 133.8815
476.2534, 135.8611
478.1819, 137.7497
480.1103, 139.2264
482.0388, 140.3203
483.9673, 141.2045
485.8957, 141.9809
487.8242, 142.5324
489.7527, 142.7416
491.6811, 142.1163
493.6096, 141.8723
495.5381, 142.4875
497.4665, 143.4672
499.3950, 143.9170
501.3235, 143.3448
503.2519, 142.7384
505.1804, 142.4924
507.1089, 142.6605
509.0373, 142.4448
510.9658, 141.6124
512.8943, 140.5527
514.8228, 139.4896
516.7512, 138.3767
518.6797, 137.5115
520.6082, 137.0151
522.5366, 136.7945
524.4651, 136.6438
526.3936, 136.4450
528.3220, 136.5034
530.2505, 137.0654
532.1790, 138.0363
534.1074, 138.7869
536.0359, 139.3086
537.9644, 139.5392
539.8928, 139.2766
541.8213, 138.4357
543.7498, 137.7794
545.6782, 137.7097
547.6067, 137.7600
549.5352, 137.4672
551.4636, 136.6218
553.3921, 135.7096
555.3206, 134.6349
557.2490, 133.5426
559.1775, 132.7978
561.1060, 132.6319
563.0344, 132.4814
564.9629, 132.0764
566.8914, 131.3391
568.8198, 130.8056
570.7483, 130.5821
572.6768, 130.4508
574.6052, 130.2466
576.5337, 129.9538
578.4622, 129.7831
580.3906, 129.9451
582.3190, 130.2145
584.2475, 130.3129
586.1760, 130.0616
588.1044, 129.8641
590.0329, 129.7777
591.9614, 129.7722
593.8898, 129.7766
595.8183, 129.7504
597.7468, 129.7565
599.6752, 129.8573
601.6037, 130.0705
603.5322, 130.1106
605.4606, 129.6446
607.3891, 129.2814
609.3176, 129.4642
611.2460, 130.2575
613.1745, 130.9252
615.1030, 131.2476
617.0314, 131.4221
618.9599, 131.6684
620.8884, 132.1402
622.8168, 132.3839
624.7453, 132.1635
626.6738, 131.7014
628.6022, 131.3335
630.5307, 130.9447
632.4592, 130.9062
634.3876, 131.5061
636.3161, 132.6648
638.2446, 133.5208
640.1730, 133.6245
642.1015, 133.9248
644.0300, 134.9289
645.9584, 136.6077
647.8869, 138.2417
649.8154, 139.8111
651.7438, 141.2608
653.6723, 142.5009
655.6008, 143.4609
657.5292, 144.5062
659.4577, 145.8893
661.3862, 147.2527
663.3146, 148.3055
665.2431, 149.0331
667.1716, 149.4556
669.1000, 149.5283
671.0285, 149.3404
672.9570, 149.0602
674.8854, 148.7701
676.8139, 148.2528
678.7424, 146.9910
680.6708, 145.4009
682.5993, 144.6567
684.5278, 145.5179
686.4562, 146.5311
688.3847, 147.4040
690.3132, 148.1510
692.2416, 148.9100
694.1701, 149.3802
696.0986, 150.2635
698.0270, 151.9842
699.9555, 154.5800
701.8840, 157.1209
703.8124, 160.0136
705.7409, 162.4588
707.6694, 163.8317
709.5978, 164.0229
711.5263, 163.9977
713.4548, 163.7542
715.3832, 163.3763
717.3117, 162.9092
719.2402, 162.2852
721.1686, 161.8237
723.0971, 161.5081
725.0256, 161.4001
726.9540, 161.6495
728.8825, 162.3485
730.8110, 162.9997
732.7394, 163.2882
734.6679, 163.5169
736.5964, 164.1054
738.5248, 165.3657
740.4533, 166.4507
742.3818, 167.2227
744.3102, 167.7363
746.2387, 168.1328
748.1672, 168.4804
750.0956, 168.6417
752.0241, 168.4910
753.9526, 168.1431
755.8810, 167.8445
757.8095, 167.8140
759.7380, 167.5607
761.6664, 166.7648
763.5949, 165.5822
765.5234, 164.7955
767.4518, 164.6610
769.3803, 164.4915
771.3088, 164.0990
773.2372, 163.4785
775.1657, 162.5079
777.0942, 161.2415
779.0226, 159.5466
780.9511, 157.2771
782.8796, 154.4360
784.8080, 151.4939
786.7365, 148.3824
788.6650, 145.2511
790.5934, 142.1487
792.5219, 139.0789
794.4504, 136.0611
796.3788, 133.0288
798.3073, 130.1134
800.2358, 127.3813
802.1642, 124.8433
804.0927, 122.3941
806.0212, 120.1377
807.9496, 117.8463
809.8781, 115.2707
811.8066, 112.4347
813.7350, 109.9812
815.6635, 108.1809
817.5920, 106.6144
819.5204, 105.1280
821.4489, 103.7290
823.3774, 102.5318
825.3058, 101.7231
827.2343, 100.9608
829.1628, 99.97889
831.0912, 98.80269
833.0197, 97.91112
834.9482, 97.50541
836.8766, 97.26934
838.8051, 97.14445
840.7336, 97.15897
842.6620, 96.97469
844.5905, 96.23181
846.5190, 95.62467
848.4474, 95.67786
850.3759, 96.28482
852.3044, 96.65502
854.2328, 96.54631
856.1613, 96.32087
858.0898, 96.03966
860.0182, 95.66897
861.9467, 95.64800
863.8752, 96.38613
865.8036, 97.03950
867.7321, 97.06631
869.6606, 96.61180
871.5891, 96.40931
873.5175, 96.72466
875.4460, 97.07429
877.3745, 97.23472
879.3029, 97.21015
881.2314, 97.28248
883.1599, 97.48121
885.0883, 97.73119
887.0168, 98.04941
888.9453, 98.40054
890.8737, 98.64957
892.8022, 98.71182
894.7307, 98.78306
896.6591, 98.95529
898.5876, 99.20692
900.5161, 99.42418
902.4445, 99.35152
904.3730, 99.55679
906.3015, 100.4490
908.2299, 101.7273
910.1584, 102.4475
912.0869, 102.3825
914.0153, 102.2859
915.9438, 102.2818
917.8723, 102.4334
919.8007, 102.9262
921.7292, 104.0037
923.6577, 104.9977
925.5861, 105.8647
927.5146, 106.5731
929.4431, 107.0002
931.3715, 106.9702
933.3000, 107.1952
935.2285, 108.0390
937.1569, 109.0863
939.0854, 109.8810
941.0139, 110.3246
942.9423, 110.9251
944.8708, 111.6897
946.7993, 112.6640
948.7277, 113.9760
950.6562, 115.8841
952.5847, 117.3038
954.5131, 117.8854
956.4416, 118.2763
958.3701, 118.9007
960.2985, 119.7473
962.2270, 120.6343
964.1555, 121.7911
966.0839, 122.7047
968.0124, 122.9974
969.9409, 122.6575
971.8693, 122.6822
973.7978, 123.2225
975.7263, 123.8907
977.6547, 124.7722
979.5832, 125.6881
981.5117, 126.0849
983.4401, 125.7746
985.3686, 125.3537
987.2971, 124.8790
989.2255, 124.4833
991.1540, 124.4467
993.0825, 125.0287
995.0109, 125.5079
996.9394, 125.6647
998.8679, 125.7436
1000.796, 126.0845
1002.725, 126.8070
1004.653, 127.3157
1006.582, 127.2065
1008.510, 127.1120
1010.439, 127.4487
1012.367, 128.2071
1014.296, 129.1587
1016.224, 130.6162
1018.153, 131.9009
1020.081, 132.5855
1022.009, 132.6856
1023.938, 133.1186
1025.866, 134.1499
1027.795, 135.1608
1029.723, 135.9699
1031.652, 136.6283
1033.580, 137.2647
1035.509, 137.8556
1037.437, 138.4746
1039.366, 139.3411
1041.294, 140.1581
1043.223, 140.5122
1045.151, 140.0864
1047.080, 139.9864
1049.008, 140.6664
1050.937, 141.4062
1052.865, 141.6032
1054.793, 141.2065
1056.722, 140.9435
1058.650, 141.0432
1060.579, 141.0351
1062.507, 140.5751
1064.436, 139.7791
1066.364, 139.0901
1068.293, 138.7019
1070.221, 138.1135
1072.150, 137.1350
1074.078, 135.8908
1076.006, 134.6208
1077.935, 133.3911
1079.863, 132.0389
1081.792, 130.4566
1083.720, 128.8203
1085.649, 127.3134
1087.577, 125.9327
1089.506, 124.5055
1091.434, 122.8476
1093.363, 121.3582
1095.291, 120.3291
1097.220, 119.7158
1099.148, 118.9052
1101.077, 117.5797
1103.005, 116.4476
1104.933, 115.8183
1106.862, 115.4175
1108.790, 114.6852
1110.719, 113.4828
1112.647, 112.3347
1114.576, 111.3533
1116.504, 110.4221
1118.433, 109.4894
1120.361, 108.5562
1122.290, 107.5038
1124.218, 106.1634
1126.147, 104.9166
1128.075, 103.9848
1130.004, 103.2984
1131.932, 102.5185
1133.860, 101.4417
1135.789, 100.5390
1137.717, 99.92593
1139.646, 99.48526
1141.574, 99.06992
1143.503, 98.66930
1145.431, 98.38680
1147.360, 98.29002
1149.288, 98.26810
1151.217, 98.20347
1153.145, 98.12870
1155.074, 98.29092
1157.002, 98.98248
1158.931, 99.42960
1160.859, 99.29558
1162.787, 98.82230
1164.716, 98.40323
1166.644, 97.91830
1168.573, 97.70969
1170.501, 97.99523
1172.430, 98.38450
1174.358, 98.65084
1176.287, 98.80540
1178.215, 98.85313
1180.144, 98.70737
1182.072, 98.64469
1184.001, 98.92478
1185.929, 99.32755
1187.858, 99.39912
1189.786, 98.90442
1191.714, 98.78690
1193.643, 99.55468
1195.571, 100.3880
1197.500, 100.6709
1199.428, 100.3489
1201.357, 100.2306
1203.285, 100.2605
1205.214, 100.5254
1207.142, 101.3220
1209.071, 102.2906
1210.999, 102.7204
1212.928, 102.4858
1214.856, 102.6247
1216.785, 103.7397
1218.713, 104.9288
1220.641, 105.6214
1222.570, 105.8539
1224.498, 106.0675
1226.427, 106.2704
1228.355, 106.4409
1230.284, 106.3994
1232.212, 106.3885
1234.141, 106.8406
1236.069, 108.2158
1237.998, 108.9160
1239.926, 108.3479
1241.855, 107.7025
1243.783, 107.6811
1245.712, 108.1123
1247.640, 108.3111
1249.568, 108.1640
1251.497, 108.0550
1253.425, 108.2643
1255.354, 108.4361
1257.282, 108.1524
1259.211, 107.3797
1261.139, 106.8945
1263.068, 106.9558
1264.996, 107.1152
1266.925, 107.3237
1268.853, 107.5218
1270.782, 107.5651
1272.710, 107.3636
1274.639, 107.1517
1276.567, 106.7707
1278.495, 106.5061
1280.424, 106.6842
1282.352, 107.1935
1284.281, 107.2497
1286.209, 106.5101
1288.138, 106.0316
1290.066, 106.5826
1291.995, 107.2760
1293.923, 107.1702
1295.852, 106.2693
1297.780, 105.6266
1299.709, 105.5114
1301.637, 105.5213
1303.566, 105.5828
1305.494, 105.6424
1307.422, 105.5627
1309.351, 105.1579
1311.279, 104.9778
1313.208, 105.0769
1315.136, 105.3218
1317.065, 105.7207
1318.993, 106.2246
1320.922, 106.5895
1322.850, 106.9190
1324.779, 106.9499
1326.707, 106.3512
1328.636, 105.6662
1330.564, 105.3866
1332.493, 105.4398
1334.421, 105.4432
1336.349, 105.3399
1338.278, 105.1975
1340.206, 104.9351
1342.135, 104.6984
1344.063, 104.7045
1345.992, 105.0025
1347.920, 105.1451
1349.849, 104.8833
1351.777, 104.7690
1353.706, 105.0670
1355.634, 105.6038
1357.563, 106.0574
1359.491, 106.3503
1361.420, 106.7156
1363.348, 107.2723
1365.276, 107.7323
1367.205, 107.9728
1369.133, 107.9937
1371.062, 107.7534
1372.990, 107.1184
1374.919, 106.7360
1376.847, 106.9355
1378.776, 107.2204
1380.704, 107.4588
1382.633, 107.5685
1384.561, 107.2084
1386.490, 106.2111
1388.418, 105.3878
1390.347, 105.0045
1392.275, 104.8140
1394.203, 104.6602
1396.132, 104.5462
1398.060, 104.5460
1399.989, 104.7393
1401.917, 104.8517
1403.846, 104.7106
1405.774, 104.5727
1407.703, 104.7089
1409.631, 105.0973
1411.560, 105.1950
1413.488, 104.6096
1415.417, 104.3168
1417.345, 104.8066
1419.274, 105.3440
1421.202, 105.1930
1423.130, 104.4040
1425.059, 103.9766
1426.987, 104.0432
1428.916, 104.1671
1430.844, 104.1402
1432.773, 104.1765
1434.701, 104.5940
1436.630, 105.2764
1438.558, 105.6401
1440.487, 105.6038
1442.415, 105.4100
1444.344, 104.9956
1446.272, 104.6133
1448.201, 104.4823
1450.129, 104.5742
1452.057, 104.6620
1453.986, 104.7002
1455.914, 104.7813
1457.843, 104.8231
1459.771, 104.9754
1461.700, 105.5478
1463.628, 106.4704
1465.557, 106.6116
1467.485, 105.3272
1469.414, 104.4074
1471.342, 104.1872
1473.271, 104.3212
1475.199, 104.7498
1477.128, 105.4010
1479.056, 105.7061
1480.984, 105.3092
1482.913, 105.1287
1484.841, 105.4832
1486.770, 105.7935
1488.698, 105.4916
1490.627, 104.8239
1492.555, 104.8170
1494.484, 105.7497
1496.412, 106.3241
1498.341, 105.9285
1500.269, 105.5735
1502.198, 105.8828
1504.126, 106.5784
1506.055, 107.0944
1507.983, 107.4310
1509.911, 107.6272
1511.840, 107.6456
1513.768, 107.6058
1515.697, 107.5921
1517.625, 107.5432
1519.554, 107.2994
1521.482, 106.8555
1523.411, 106.6886
1525.339, 106.9948
1527.268, 107.3202
1529.196, 107.6402
1531.125, 107.7785
1533.053, 107.4121
1534.982, 106.5713
1536.910, 106.1006
1538.839, 106.1909
1540.767, 106.3356
1542.695, 106.5975
1544.624, 106.6979
1546.552, 106.3187
1548.481, 105.5609
1550.409, 105.0931
1552.338, 105.0600
1554.266, 105.0032
1556.195, 104.8231
1558.123, 104.6751
1560.052, 104.6221
1561.980, 104.6588
1563.909, 104.7782
1565.837, 105.0034
1567.766, 105.2439
1569.694, 105.7729
1571.622, 105.9665
1573.551, 105.3480
1575.479, 104.4877
1577.408, 104.0942
1579.336, 104.1926
1581.265, 104.1635
1583.193, 103.9028
1585.122, 103.6774
1587.050, 103.5811
1588.979, 103.4693
1590.907, 103.1536
1592.836, 102.7297
1594.764, 102.5692
1596.693, 102.7224
1598.621, 102.9155
1600.549, 103.3854
1602.478, 103.5724
1604.406, 102.9782
1606.335, 102.1151
1608.263, 101.7799
1610.192, 101.9488
1612.120, 101.8754
1614.049, 101.2766
1615.977, 100.9812
1617.906, 101.4861
1619.834, 102.1451
1621.763, 102.4986
1623.691, 102.6211
1625.620, 102.7257
1627.548, 102.8207
1629.476, 102.8207
1631.405, 102.5564
1633.333, 102.4240
1635.262, 102.8446
1637.190, 103.3423
1639.119, 103.2551
1641.047, 102.6777
1642.976, 102.4183
1644.904, 102.6770
1646.833, 102.7944
1648.761, 102.3894
1650.690, 101.9952
1652.618, 102.0459
1654.547, 102.3208
1656.475, 102.3974
1658.403, 102.2635
1660.332, 102.1928
1662.260, 102.2151
1664.189, 102.3440
1666.117, 102.6580
1668.046, 103.0311
1669.974, 103.4281
1671.903, 103.7950
1673.831, 103.8816
1675.760, 103.5977
1677.688, 103.4692
1679.617, 103.7071
1681.545, 103.9292
1683.474, 103.9388
1685.402, 103.8430
1687.330, 103.7076
1689.259, 103.5607
1691.187, 103.6082
1693.116, 103.9366
1695.044, 104.2067
1696.973, 104.2222
1698.901, 104.3103
1700.830, 104.8625
1702.758, 105.4845
1704.687, 105.5059
1706.615, 104.9535
1708.544, 104.4121
1710.472, 103.7390
1712.401, 103.6529
1714.329, 104.9466
1716.257, 106.1976
1718.186, 106.3567
1720.114, 105.9634
1722.043, 106.0442
1723.971, 106.6049
1725.900, 107.0535
1727.828, 107.4038
1729.757, 107.4512
1731.685, 106.8664
1733.614, 106.2540
1735.542, 105.8365
1737.471, 105.7228
1739.399, 106.3918
1741.328, 107.8602
1743.256, 108.4735
1745.184, 107.7185
1747.113, 106.9589
1749.041, 106.4877
1750.970, 106.3362
1752.898, 106.7447
1754.827, 107.3978
1756.755, 107.7278
1758.684, 107.7204
1760.612, 107.4358
1762.541, 106.6296
1764.469, 106.2160
1766.398, 106.8164
1768.326, 107.5245
1770.255, 107.8449
1772.183, 107.8342
1774.111, 107.3736
1776.040, 106.5150
1777.968, 106.4190
1779.897, 107.6406
1781.825, 108.2427
1783.754, 107.0283
1785.682, 105.8311
1787.611, 105.7912
1789.539, 106.3749
1791.468, 106.9162
1793.396, 107.3878
1795.325, 107.5308
1797.253, 107.2006
1799.182, 106.9856
1801.110, 107.2057
1803.038, 107.3270
1804.967, 106.9169
1806.895, 106.4240
1808.824, 106.4601
1810.752, 106.9251
1812.681, 107.1444
1814.609, 107.0561
1816.538, 106.9724
1818.466, 106.9354
1820.395, 106.8900
1822.323, 106.7052
1824.252, 106.5974
1826.180, 106.8880
1828.109, 107.3916
1830.037, 107.5360
1831.965, 107.2448
1833.894, 106.9505
1835.822, 106.5212
1837.751, 106.3061
1839.679, 106.5906
1841.608, 106.8463
1843.536, 106.6475
1845.465, 106.2732
1847.393, 106.1451
1849.322, 106.2555
1851.250, 106.5128
1853.179, 107.2023
1855.107, 107.4612
1857.036, 106.8097
1858.964, 106.3563
1860.892, 106.7085
1862.821, 107.1987
1864.749, 107.1429
1866.678, 106.7529
1868.606, 106.7359
1870.535, 107.1420
1872.463, 107.4794
1874.392, 107.6636
1876.320, 107.8566
1878.249, 108.2642
1880.177, 108.4539
1882.106, 108.0563
1884.034, 107.4627
1885.963, 107.1894
1887.891, 107.1674
1889.819, 106.9560
1891.748, 106.4987
1893.676, 106.3528
1895.605, 106.7386
1897.533, 107.1007
1899.462, 107.1681
1901.390, 107.1968
1903.319, 107.4115
1905.247, 107.6569
1907.176, 107.7740
1909.104, 107.7433
1911.033, 107.2612
1912.961, 106.0933
1914.890, 105.5702
1916.818, 106.3771
1918.746, 107.1383
1920.675, 107.4263
1922.603, 107.4866
1924.532, 107.3782
1926.460, 107.2069
1928.389, 107.1720
1930.317, 107.2743
1932.246, 107.5207
1934.174, 108.1960
1936.103, 108.5578
1938.031, 108.5165
1939.960, 108.3217
1941.888, 107.7886
1943.817, 107.3796
1945.745, 107.5111
1947.673, 107.9346
1949.602, 108.2583
1951.530, 108.4656
1953.459, 108.2902
1955.387, 107.5356
1957.316, 107.2272
1959.244, 107.7798
1961.173, 108.2773
1963.101, 108.4448
1965.030, 108.4577
1966.958, 108.3916
1968.887, 108.2752
1970.815, 108.0607
1972.744, 107.8105
1974.672, 107.8924
1976.600, 108.3750
1978.529, 108.5334
1980.457, 108.0347
1982.386, 107.7061
1984.314, 107.8987
1986.243, 108.1832
1988.171, 108.3046
1990.100, 108.4337
1992.028, 108.9865
1993.957, 109.7170
1995.885, 109.5148
1997.814, 108.0449
1999.742, 107.5311
2001.671, 108.7812
2003.599, 109.5516
2005.527, 109.2323
2007.456, 108.9953
2009.384, 109.3941
2011.313, 109.8224
2013.241, 109.7559
2015.170, 109.4518
2017.098, 109.4179
2019.027, 109.6041
2020.955, 109.5839
2022.884, 109.3285
2024.812, 109.1284
2026.741, 109.0164
2028.669, 109.0042
2030.598, 109.1782
2032.526, 109.3293
2034.454, 109.3628
2036.383, 109.2889
2038.311, 108.9521
2040.240, 108.5522
2042.168, 108.6912
2044.097, 109.3910
2046.025, 109.7286
2047.954, 109.5572
2049.882, 109.3328
2051.811, 108.9555
2053.739, 108.6928
2055.668, 108.5569
2057.596, 108.6056
2059.525, 109.0210
2061.453, 109.5042
2063.381, 109.7847
2065.310, 109.8656
2067.238, 109.6332
2069.167, 109.1378
2071.095, 109.1459
2073.024, 109.8183
2074.952, 110.1506
2076.881, 109.8626
2078.809, 109.5214
2080.738, 109.1894
2082.666, 109.0140
2084.594, 109.2445
2086.523, 109.5073
2088.451, 109.3269
2090.380, 108.9334
2092.308, 108.9331
2094.237, 109.3005
2096.165, 109.2101
2098.094, 108.4162
2100.022, 107.9195
2101.951, 107.7125
2103.879, 107.8973
2105.808, 108.9594
2107.736, 109.7161
2109.665, 109.3408
2111.593, 108.8808
2113.521, 109.2234
2115.450, 109.8302
2117.378, 109.9570
2119.307, 109.7348
2121.235, 109.5917
2123.164, 109.5399
2125.092, 109.5302
2127.021, 109.6681
2128.949, 109.5634
2130.878, 108.8176
2132.806, 108.3734
2134.735, 108.6389
2136.663, 108.9779
2138.592, 109.0636
2140.520, 109.0778
2142.448, 109.1858
2144.377, 109.3382
2146.305, 109.5023
2148.234, 109.6445
2150.162, 109.4724
2152.091, 108.9891
2154.019, 109.0490
2155.948, 109.9375
2157.876, 110.4508
2159.805, 110.1493
2161.733, 109.8333
2163.662, 109.8462
2165.590, 109.7555
2167.519, 109.0380
2169.447, 108.4017
2171.375, 108.7157
2173.304, 109.4234
2175.232, 109.5109
2177.161, 109.1004
2179.089, 108.8430
2181.018, 108.7398
2182.946, 108.9889
2184.875, 109.7306
2186.803, 109.9244
2188.732, 109.1363
2190.660, 108.5434
2192.589, 108.6762
2194.517, 108.8019
2196.446, 108.4638
2198.374, 108.1872
2200.302, 108.5191
2202.231, 109.0021
2204.159, 108.9998
2206.088, 108.7150
2208.016, 108.6665
2209.945, 108.8398
2211.873, 108.9983
2213.802, 109.1281
2215.730, 109.3637
2217.659, 109.7978
2219.587, 109.8777
2221.516, 109.3140
2223.444, 108.8525
2225.373, 108.7871
2227.301, 108.8337
2229.229, 108.8579
2231.158, 108.9683
2233.086, 109.3085
2235.015, 109.7203
2236.943, 110.0489
2238.872, 110.2551
2240.800, 110.1718
2242.729, 109.8414
2244.657, 109.8093
2246.586, 110.0883
2248.514, 110.3652
2250.443, 110.7036
2252.371, 110.5595
2254.300, 109.4299
2256.228, 108.9494
2258.156, 110.1462
2260.085, 111.1800
2262.013, 111.2840
2263.942, 111.1488
2265.870, 111.1719
2267.799, 111.1130
2269.727, 110.5892
2271.656, 109.9370
2273.584, 109.6488
2275.513, 109.6974
2277.441, 110.2187
2279.370, 111.0680
2281.298, 111.0738
2283.227, 110.1147
2285.155, 109.6076
2287.083, 109.7649
2289.012, 110.0459
2290.940, 110.5001
2292.869, 110.8989
2294.797, 111.1577
2296.726, 111.4277
2298.654, 111.9034
2300.583, 112.2202
2302.511, 112.0504
2304.440, 111.8286
2306.368, 111.9375
2308.297, 112.1494
2310.225, 112.0861
2312.154, 111.9544
2314.082, 112.3568
2316.010, 113.1282
2317.939, 113.2244
2319.867, 112.5616
2321.796, 112.5659
2323.724, 113.4330
2325.653, 113.8723
2327.581, 113.7494
2329.510, 113.4507
2331.438, 112.9602
2333.367, 112.5082
2335.295, 112.1209
2337.224, 111.8240
2339.152, 111.8348
2341.081, 111.6546
2343.009, 110.6768
2344.938, 109.8085
2346.866, 109.9919
2348.794, 110.4686
2350.723, 110.2407
2352.651, 109.8011
2354.580, 110.2279
2356.508, 111.0854
2358.437, 111.0050
2360.365, 110.1677
2362.294, 110.1247
2364.222, 111.0021
2366.151, 111.3204
2368.079, 110.8396
2370.008, 110.4106
2371.936, 109.9473
2373.865, 109.8160
2375.793, 110.1937
2377.721, 110.5975
2379.650, 111.1072
2381.578, 111.2217
2383.507, 110.3200
2385.435, 109.5762
2387.364, 109.6687
2389.292, 109.9225
2391.221, 109.8561
2393.149, 109.7944
2395.078, 110.1446
2397.006, 110.5865
2398.935, 110.5687
2400.863, 110.4089
2402.792, 110.9268
2404.720, 111.7246
2406.648, 111.5292
2408.577, 110.5275
2410.505, 110.1240
2412.434, 110.3648
2414.362, 110.5797
2416.291, 110.8208
2418.219, 110.9300
2420.148, 110.9000
2422.076, 110.8129
2424.005, 110.6032
2425.933, 110.6063
2427.862, 110.9465
2429.790, 111.2803
2431.719, 111.6317
2433.647, 111.7351
2435.575, 111.2598
2437.504, 110.8954
2439.432, 111.2108
2441.361, 111.3975
2443.289, 110.6810
2445.218, 110.0943
2447.146, 110.6161
2449.075, 111.3525
2451.003, 111.4462
2452.932, 111.2026
2454.860, 110.8733
2456.789, 110.6002
2458.717, 110.7407
2460.646, 111.1494
2462.574, 111.4142
2464.502, 111.5465
2466.431, 111.5922
2468.359, 111.5423
2470.288, 111.2717
2472.216, 110.7566
2474.145, 110.7000
2476.073, 111.2395
2478.002, 111.6893
2479.930, 112.1390
2481.859, 112.1663
2483.787, 111.6090
2485.716, 111.3424
2487.644, 111.6106
2489.573, 111.7327
2491.501, 111.3404
2493.429, 111.2272
2495.358, 112.1106
2497.286, 112.4627
2499.215, 111.2507
2501.143, 110.3460
2503.072, 110.5320
2505.000, 110.9231
2506.929, 111.1322
2508.857, 111.4039
2510.786, 112.1765
2512.714, 112.7187
2514.643, 112.1085
2516.571, 111.4097
2518.500, 111.9299
2520.428, 112.6096
2522.356, 111.9984
2524.285, 111.0039
2526.213, 110.8402
2528.142, 111.1506
2530.070, 111.4646
2531.999, 111.7680
2533.927, 112.1096
2535.856, 112.4040
2537.784, 112.3058
2539.713, 111.9012
2541.641, 111.5927
2543.570, 111.3807
2545.498, 111.2227
2547.427, 111.1283
2549.355, 111.2625
2551.283, 111.6344
2553.212, 112.0649
2555.140, 112.6342
2557.069, 112.7313
2558.997, 112.2791
2560.926, 112.0632
2562.854, 112.1779
2564.783, 111.9871
2566.711, 111.1869
2568.640, 111.1115
2570.568, 112.8253
2572.497, 113.4667
2574.425, 112.3936
2576.354, 111.5653
2578.282, 111.2011
2580.210, 111.1107
2582.139, 111.3357
2584.067, 111.6127
2585.996, 112.0107
2587.924, 112.1978
2589.853, 111.8884
2591.781, 111.6719
2593.710, 111.7115
2595.638, 111.8455
2597.567, 112.0841
2599.495, 112.3128
2601.424, 112.5654
2603.352, 112.6856
2605.281, 112.5214
2607.209, 112.3133
2609.137, 112.1223
2611.066, 111.9840
2612.994, 111.7777
2614.923, 111.8013
2616.851, 112.6221
2618.780, 113.2403
2620.708, 112.7759
2622.637, 112.1006
2624.565, 111.8416
2626.494, 111.7394
2628.422, 111.5288
2630.351, 111.4270
2632.279, 111.7643
2634.208, 112.0971
2636.136, 111.8744
2638.064, 111.5432
2639.993, 111.5856
2641.921, 111.7983
2643.850, 112.0677
2645.778, 112.2835
2647.707, 112.4195
2649.635, 112.3392
2651.564, 111.6556
2653.492, 110.8383
2655.421, 110.4390
2657.349, 110.4000
2659.278, 110.7715
2661.206, 111.3310
2663.135, 111.7533
2665.063, 112.0927
2666.991, 112.5880
2668.920, 112.9713
2670.848, 112.5499
2672.777, 111.8040
2674.705, 111.7575
2676.634, 112.0309
2678.562, 111.6709
2680.491, 111.1138
2682.419, 111.3370
2684.348, 111.9678
2686.276, 112.4259
2688.205, 112.6410
2690.133, 112.3082
2692.062, 111.6740
2693.990, 111.2378
2695.918, 111.0137
2697.847, 111.0953
2699.775, 111.3562
2701.704, 111.4718
2703.632, 111.5638
2705.561, 112.1703
2707.489, 112.9291
2709.418, 112.7818
2711.346, 112.0998
2713.275, 111.6274
2715.203, 111.3745
2717.132, 111.4779
2719.060, 111.7532
2720.989, 111.6657
2722.917, 111.3927
2724.845, 111.3005
2726.774, 111.4153
2728.702, 112.0154
2730.631, 112.7239
2732.559, 112.6925
2734.488, 112.1787
2736.416, 111.5699
2738.345, 111.0505
2740.273, 111.0993
2742.202, 111.4916
2744.130, 112.0014
2746.059, 112.3961
2747.987, 112.1389
2749.916, 111.5014
2751.844, 110.6571
2753.772, 110.0473
2755.701, 110.9172
2757.629, 112.1761
2759.558, 112.1589
2761.486, 111.5573
2763.415, 111.2535
2765.343, 111.2100
2767.272, 111.5003
2769.200, 111.8840
2771.129, 112.1062
2773.057, 112.1640
2774.986, 111.8910
2776.914, 111.6013
2778.843, 111.8257
2780.771, 112.0726
2782.699, 111.5233
2784.628, 111.0726
2786.556, 111.8402
2788.485, 112.7175
2790.413, 112.7392
2792.342, 112.3585
2794.270, 111.6666
2796.199, 111.0955
2798.127, 110.9594
2800.056, 111.0257
2801.984, 111.2776
2803.913, 111.5002
2805.841, 111.6068
2807.770, 111.5845
2809.698, 111.2896
2811.626, 111.0722
2813.555, 111.1251
2815.483, 111.2257
2817.412, 111.1272
2819.340, 111.2495
2821.269, 112.1867
2823.197, 112.6343
2825.126, 111.9551
2827.054, 111.4394
2828.983, 111.5844
2830.911, 111.9150
2832.840, 112.6715
2834.768, 112.9281
2836.697, 112.4538
2838.625, 111.6983
2840.553, 110.4952
2842.482, 109.8906
2844.410, 110.3387
2846.339, 110.9946
2848.267, 112.0307
2850.196, 112.4124
2852.124, 111.9769
2854.053, 111.6629
2855.981, 111.5869
2857.910, 111.5549
2859.838, 111.6034
2861.767, 111.2267
2863.695, 110.4392
2865.624, 110.3552
2867.552, 110.9677
2869.480, 111.3583
2871.409, 111.5233
2873.337, 111.3256
2875.266, 110.8723
2877.194, 110.8453
2879.123, 111.0542
2881.051, 110.7983
2882.980, 110.3409
2884.908, 110.4763
2886.837, 110.8684
2888.765, 110.6836
2890.694, 110.4345
2892.622, 111.0776
2894.551, 111.8689
2896.479, 111.7154
2898.407, 111.4081
2900.336, 111.8956
2902.264, 112.4376
2904.193, 112.5274
2906.121, 112.3759
2908.050, 111.7482
2909.978, 111.5015
2911.907, 112.7416
2913.835, 113.4912
2915.764, 112.7306
2917.692, 112.0157
2919.621, 112.0640
2921.549, 112.0176
2923.478, 111.4127
2925.406, 111.2347
2927.334, 111.7070
2929.263, 112.2050
2931.191, 112.7000
2933.120, 112.8979
2935.048, 112.7068
2936.977, 112.4859
2938.905, 112.2380
2940.834, 112.0745
2942.762, 112.0043
2944.691, 112.1017
2946.619, 112.3254
2948.548, 112.0488
2950.476, 111.4320
2952.405, 111.0856
2954.333, 110.9886
2956.261, 111.2002
2958.190, 111.4787
2960.118, 111.2993
2962.047, 110.9570
2963.975, 110.8993
2965.904, 110.8551
2967.832, 110.4287
2969.761, 110.1165
2971.689, 110.4046
2973.618, 110.8323
2975.546, 111.3123
2977.475, 111.5614
2979.403, 111.2344
2981.332, 110.9900
2983.260, 111.1012
2985.188, 111.1841
2987.117, 111.2757
2989.045, 110.9483
2990.974, 109.8664
2992.902, 109.3999
2994.831, 109.7193
2996.759, 110.2104
2998.688, 110.8284
3000.616, 111.0673
3002.545, 110.9213
3004.473, 110.7348
3006.402, 110.5082
3008.330, 110.2054
3010.259, 109.9262
3012.187, 109.9264
3014.115, 110.0603
3016.044, 110.0528
3017.972, 110.1118
3019.901, 110.7199
3021.829, 111.1277
3023.758, 110.6864
3025.686, 110.0126
3027.615, 109.0845
3029.543, 108.6557
3031.472, 109.1344
3033.400, 109.6920
3035.329, 110.2071
3037.257, 110.5410
3039.186, 110.6322
3041.114, 110.5969
3043.042, 110.4128
3044.971, 110.1295
3046.899, 109.7488
3048.828, 109.9204
3050.756, 110.5113
3052.685, 110.2795
3054.613, 109.6347
3056.542, 109.8152
3058.470, 110.2503
3060.399, 109.7567
3062.327, 109.1879
3064.256, 109.7490
3066.184, 110.3912
3068.113, 110.2830
3070.041, 110.1053
3071.969, 110.1802
3073.898, 110.3617
3075.826, 110.6796
3077.755, 110.9339
3079.683, 111.1069
3081.612, 111.1621
3083.540, 111.0668
3085.469, 111.1076
3087.397, 111.2642
3089.326, 110.8408
3091.254, 109.9459
3093.183, 109.5778
3095.111, 109.6428
3097.040, 110.2373
3098.968, 110.7276
3100.896, 109.7739
3102.825, 108.7054
3104.753, 109.0602
3106.682, 109.7243
3108.610, 110.1172
3110.539, 110.3737
3112.467, 110.5719
3114.396, 110.5756
3116.324, 110.3283
3118.253, 109.9559
3120.181, 109.4261
3122.110, 109.2499
3124.038, 109.5349
3125.967, 109.5970
3127.895, 109.4632
3129.823, 109.1905
3131.752, 108.9413
3133.680, 109.3104
3135.609, 109.8156
3137.537, 109.6549
3139.466, 109.2607
3141.394, 108.7704
3143.323, 108.5739
3145.251, 109.1880
3147.180, 109.6897
3149.108, 109.8436
3151.037, 109.7676
3152.965, 109.3459
3154.894, 109.1364
3156.822, 109.1756
3158.750, 109.2786
3160.679, 109.4244
3162.607, 109.5865
3164.536, 109.7222
3166.464, 109.6948
3168.393, 109.5529
3170.321, 109.3196
3172.250, 109.1016
3174.178, 108.9240
3176.107, 108.9295
3178.035, 109.3846
3179.964, 109.6294
3181.892, 109.4593
3183.821, 108.9551
3185.749, 107.8025
3187.677, 107.5893
3189.606, 108.3528
3191.534, 109.1097
3193.463, 109.6998
3195.391, 109.2442
3197.320, 108.2930
3199.248, 107.1360
3201.177, 108.5088
3203.105, 109.2881
3205.034, 109.5057
3206.962, 107.4793
3208.891, 108.3506
3210.819, 108.0606
3212.748, 107.7230
3214.676, 109.0020
3216.604, 107.3021
3218.533, 108.5555
3220.461, 108.6299
3222.390, 109.2440
3224.318, 108.6897
3226.247, 108.4962
3228.175, 109.4715
3230.104, 109.7996
3232.032, 109.1108
3233.961, 109.7591
3235.889, 108.0184
3237.818, 108.3741
3239.746, 109.6343
3241.675, 109.0042
3243.603, 109.6739
3245.531, 109.8486
3247.460, 107.7736
3249.388, 109.6110
3251.317, 109.7564
3253.245, 108.1645
3255.174, 109.8679
3257.102, 108.5155
3259.031, 108.2538
3260.959, 108.8130
3262.888, 108.5164
3264.816, 109.5690
3266.745, 109.3219
3268.673, 108.9586
3270.602, 109.1021
3272.530, 107.8097
3274.458, 109.1812
3276.387, 108.7331
3278.315, 109.1894
3280.244, 109.8508
3282.172, 108.9423
3284.101, 109.6958
3286.029, 107.8719
3287.958, 108.2047
3289.886, 108.3051
3291.815, 109.7841
3293.743, 107.9728
3295.672, 108.2456
3297.600, 109.4058
3299.529, 109.3243
3301.457, 109.7620
3303.385, 108.6628
3305.314, 109.0073
3307.242, 108.9539
3309.171, 110.2758
3311.099, 110.5119
3313.028, 109.4388
3314.956, 108.3712
3316.885, 109.7920
3318.813, 108.8542
3320.742, 109.1889
3322.670, 108.2094
3324.599, 108.3646
3326.527, 108.5018
3328.456, 109.2206
3330.384, 108.1758
3332.313, 109.7933
3334.241, 109.9522
3336.169, 109.2302
3338.098, 108.8910
3340.026, 109.7975
3341.955, 109.7841
3343.883, 108.2590
3345.812, 107.9896
3347.740, 108.8152
3349.669, 108.8982
3351.597, 108.6543
3353.526, 109.2294
3355.454, 109.8696
3357.383, 109.8999
3359.311, 109.7126
3361.240, 109.4587
3363.168, 109.0444
3365.096, 108.3660
3367.025, 108.2565
3368.953, 108.7612
3370.882, 108.7008
3372.810, 108.3765
3374.739, 108.6364
3376.667, 108.9905
3378.596, 108.7852
3380.524, 108.5735
3382.453, 108.6275
3384.381, 108.6952
3386.310, 108.6562
3388.238, 108.9282
3390.167, 109.4770
3392.095, 109.4799
3394.023, 109.1526
3395.952, 108.9696
3397.880, 109.0429
3399.809, 109.7335
3401.737, 110.2509
3403.666, 110.2780
3405.594, 109.5977
3407.523, 107.9132
3409.451, 107.6732
3411.380, 108.9513
3413.308, 109.6133
3415.237, 109.8017
3417.165, 109.8894
3419.094, 109.7233
3421.022, 108.8369
3422.950, 108.2120
3424.879, 108.3319
3426.807, 108.5033
3428.736, 108.6013
3430.664, 108.9842
3432.593, 109.4871
3434.521, 109.1047
3436.450, 108.3366
3438.378, 107.7352
3440.307, 107.7306
3442.235, 109.4288
3444.164, 110.1441
3446.092, 108.7373
3448.021, 108.3496
3449.949, 109.3119
3451.877, 109.6081
3453.806, 109.4319
3455.734, 109.4602
3457.663, 109.5638
3459.591, 109.6088
3461.520, 109.6934
3463.448, 109.9606
3465.377, 109.8481
3467.305, 108.9152
3469.234, 109.5353
3471.162, 111.2928
3473.091, 111.5038
3475.019, 111.0525
3476.948, 111.2399
3478.876, 111.3416
3480.804, 110.6802
3482.733, 110.5397
3484.661, 111.5794
3486.590, 112.3510
3488.518, 112.8404
3490.447, 113.1134
3492.375, 113.4076
3494.304, 114.2156
3496.232, 115.3130
3498.161, 116.9677
3500.089, 117.9176
3502.018, 117.3807
3503.946, 118.3175
3505.875, 120.9524
3507.803, 122.7777
3509.731, 124.0898
3511.660, 125.4197
3513.588, 127.1515
3515.517, 129.8812
3517.445, 132.5802
3519.374, 134.7514
3521.302, 137.9502
3523.231, 142.4338
3525.159, 146.7989
3527.088, 151.0876
3529.016, 155.1143
3530.945, 159.5183
3532.873, 164.9610
3534.802, 170.9252
3536.730, 177.2329
3538.658, 184.2231
3540.587, 191.8857
3542.515, 199.9608
3544.444, 208.2981
3546.372, 216.1708
3548.301, 224.7816
3550.229, 235.6823
3552.158, 246.1288
3554.086, 254.1592
3556.015, 264.6268
3557.943, 277.2196
3559.872, 287.3379
3561.800, 296.1625
3563.729, 305.9103
3565.657, 315.7079
3567.585, 325.4939
3569.514, 333.9277
3571.442, 340.6424
3573.371, 347.1253
3575.299, 353.2609
3577.228, 358.2939
3579.156, 361.8398
3581.085, 363.1044
3583.013, 363.2557
3584.942, 363.4681
3586.870, 361.0680
3588.799, 355.6665
3590.727, 350.4943
3592.656, 345.1520
3594.584, 337.5832
3596.512, 328.3292
3598.441, 317.2731
3600.369, 305.9630
3602.298, 294.8640
3604.226, 283.8616
3606.155, 272.9037
3608.083, 260.0193
3610.012, 246.7398
3611.940, 235.8228
3613.869, 225.7793
3615.797, 215.6164
3617.726, 206.1114
3619.654, 197.3245
3621.583, 190.9280
3623.511, 186.2162
3625.439, 179.7016
3627.368, 172.8348
3629.296, 166.5897
3631.225, 161.6895
3633.153, 158.7431
3635.082, 155.1151
3637.010, 150.5934
3638.939, 147.6342
3640.867, 145.0238
3642.796, 140.2486
3644.724, 135.6994
3646.653, 132.7136
3648.581, 129.7977
3650.510, 126.5782
3652.438, 123.8831
3654.366, 121.6137
3656.295, 119.4886
3658.223, 117.5238
3660.152, 115.7107
3662.080, 114.1269
3664.009, 112.8783
3665.937, 111.5311
3667.866, 110.2896
3669.794, 110.2852
3671.723, 110.6126
3673.651, 110.2443
3675.580, 109.6447
3677.508, 108.7831
3679.437, 108.1961
3681.365, 107.9243
3683.293, 108.2766
3685.222, 108.9882
3687.150, 109.9832
3689.079, 110.6515
3691.007, 110.4999
3692.936, 110.5361
3694.864, 110.8417
3696.793, 111.1497
3698.721, 111.4341
3700.650, 111.6456
3702.578, 111.8340
3704.507, 111.8889
3706.435, 112.3378
3708.364, 113.2276
3710.292, 113.8823
3712.220, 114.4570
3714.149, 115.5975
3716.077, 116.4438
3718.006, 116.2096
3719.934, 116.3765
3721.863, 117.2350
3723.791, 117.1839
3725.720, 116.7566
3727.648, 117.6860
3729.577, 118.3970
3731.505, 117.6486
3733.434, 116.9299
3735.362, 116.4633
3737.291, 116.8613
3739.219, 117.6173
3741.147, 117.3810
3743.076, 116.9073
3745.004, 116.6230
3746.933, 116.4855
3748.861, 116.4759
3750.790, 116.7726
3752.718, 117.1269
3754.647, 116.7588
3756.575, 116.5007
3758.504, 117.1606
3760.432, 117.0686
3762.361, 115.9408
3764.289, 115.6546
3766.218, 115.7413
3768.146, 115.1211
3770.074, 114.4160
3772.003, 114.1453
3773.931, 113.1633
3775.860, 111.3809
3777.788, 111.2590
3779.717, 111.6648
3781.645, 110.2678
3783.574, 109.1453
3785.502, 109.4130
3787.431, 109.5708
3789.359, 109.4663
3791.288, 108.8174
3793.216, 108.1742
3795.145, 108.7260
3797.073, 108.6327
3799.001, 106.7620
3800.930, 106.6156
3802.858, 107.8556
3804.787, 107.4174
3806.715, 106.6774
3808.644, 107.3601
3810.572, 107.5972
3812.501, 106.7447
3814.429, 106.4950
3816.358, 106.5189
3818.286, 105.4324
3820.215, 104.5470
3822.143, 104.8548
3824.072, 105.4598
3826.000, 106.2320
3827.928, 106.8456
3829.857, 107.1860
3831.785, 107.1552
3833.714, 106.6663
3835.642, 105.4728
3837.571, 105.3277
3839.499, 106.2486
3841.428, 106.7928
3843.356, 106.9437
3845.285, 106.5493
3847.213, 105.9733
3849.142, 105.2450
3851.070, 105.4914
3852.999, 106.2567
3854.927, 105.8216
3856.855, 105.3229
3858.784, 105.6673
3860.712, 105.8125
3862.641, 105.6698
3864.569, 105.4859
3866.498, 105.4207
3868.426, 105.7944
3870.355, 106.2412
3872.283, 106.6302
3874.212, 106.5904
3876.140, 106.2967
3878.069, 106.2563
3879.997, 106.3600
3881.926, 106.9140
3883.854, 106.8459
3885.782, 105.8591
3887.711, 105.6241
3889.639, 106.0469
3891.568, 106.8709
3893.496, 107.1852
3895.425, 106.4740
3897.353, 106.1849
3899.282, 106.1672
3901.210, 105.8804
3903.139, 105.8710
3905.067, 106.5655
3906.996, 106.6273
3908.924, 105.9333
3910.853, 105.5662
3912.781, 105.3736
3914.709, 106.0980
3916.638, 106.6133
3918.566, 106.1517
3920.495, 105.8300
3922.423, 105.7245
3924.352, 105.5273
3926.280, 105.5138
3928.209, 105.4982
3930.137, 105.5207
3932.066, 105.6810
3933.994, 106.0762
3935.923, 106.1625
3937.851, 105.4360
3939.780, 105.3655
3941.708, 105.7565
3943.636, 105.7696
3945.565, 105.7141
3947.493, 105.5382
3949.422, 105.6288
3951.350, 105.7837
3953.279, 105.4502
3955.207, 105.1295
3957.136, 105.5140
3959.064, 105.5679
3960.993, 104.7298
3962.921, 104.6252
3964.850, 105.0415
3966.778, 105.3844
3968.707, 105.6537
3970.635, 105.8506
3972.563, 105.5775
3974.492, 104.8097
3976.420, 104.0245
3978.349, 103.7104
3980.277, 104.3551
3982.206, 105.0460
3984.134, 105.5407
3986.063, 105.4344
3987.991, 105.4185
3989.920, 105.8697
3991.848, 105.9000
3993.777, 105.7181
3995.705, 105.4111
3997.634, 105.0530
3999.562, 104.5609
4001.490, 104.7642
4003.419, 106.1661
4005.347, 106.1475
4007.276, 105.0885
4009.204, 105.1365
4011.133, 105.5962
4013.061, 105.0685
4014.990, 104.2328
4016.918, 104.0577
4018.847, 104.4245
4020.775, 104.9489
4022.704, 105.4618
4024.632, 105.3733
4026.561, 105.0491
4028.489, 105.3166
4030.417, 105.4816
4032.346, 105.4747
4034.274, 105.3110
4036.203, 105.0942
4038.131, 105.6252
4040.060, 105.6046
4041.988, 104.9688
4043.917, 105.1672
4045.845, 105.6887
4047.774, 105.6528
4049.702, 105.4296
4051.631, 105.3249
4053.559, 105.4584
4055.488, 105.6937
4057.416, 105.9340
4059.344, 106.1674
4061.273, 105.7195
4063.201, 104.9227
4065.130, 104.4065
4067.058, 105.1595
4068.987, 105.8542
4070.915, 105.4475
4072.844, 105.2055
4074.772, 105.2993
4076.701, 105.1913
4078.629, 105.0763
4080.558, 105.1035
4082.486, 105.2028
4084.415, 105.7418
4086.343, 105.5710
4088.271, 105.2411
4090.200, 105.6497
4092.128, 105.9927
4094.057, 106.1825
4095.985, 105.7303
4097.914, 105.3138
4099.842, 105.1393
4101.771, 105.1531
4103.699, 105.7132
4105.627, 105.7512
4107.556, 105.4416
4109.484, 104.3516
4111.413, 103.9793
4113.341, 105.3128
4115.270, 105.5650
4117.198, 105.2540
4119.127, 105.8109
4121.055, 106.0503
4122.984, 105.3351
4124.912, 104.8899
4126.841, 104.6455
4128.769, 104.3707
4130.698, 104.1194
4132.626, 103.8510
4134.555, 104.6315
4136.483, 105.6589
4138.412, 105.0453
4140.340, 104.5885
4142.269, 104.8628
4144.197, 105.2047
4146.125, 105.4283
4148.054, 105.1702
4149.982, 104.8522
4151.911, 104.5825
4153.839, 104.5561
4155.768, 104.7032
4157.696, 105.1966
4159.625, 105.1205
4161.553, 103.9160
4163.481, 104.0796
4165.410, 104.7878
4167.338, 104.4036
4169.267, 104.2247
4171.195, 104.6735
4173.124, 104.7774
4175.052, 104.9056
4176.981, 105.9864
4178.909, 106.4347
4180.838, 105.7109
4182.766, 105.5846
4184.695, 105.5439
4186.623, 104.2992
4188.552, 104.1764
4190.480, 105.5000
4192.409, 105.4124
4194.337, 104.7986
4196.266, 104.6628
4198.194, 104.6755
4200.123, 104.7686
4202.051, 105.1755
4203.979, 105.6053
4205.908, 105.8707
4207.836, 105.9342
4209.765, 105.8448
4211.693, 105.8895
4213.622, 105.8235
4215.550, 105.4162
4217.479, 105.4324
4219.407, 105.8445
4221.335, 105.8088
4223.264, 105.8935
4225.192, 106.5732
4227.121, 106.3830
4229.049, 105.5870
4230.978, 104.9192
4232.906, 104.8038
4234.835, 105.4994
4236.763, 106.2398
4238.692, 106.6494
4240.620, 105.5874
4242.549, 105.2914
4244.477, 106.5283
4246.406, 105.4080
4248.334, 103.8411
4250.263, 104.4222
4252.191, 105.0052
4254.120, 105.1886
4256.048, 105.3005
4257.977, 105.2251
4259.905, 104.5652
4261.833, 105.0253
4263.762, 106.4136
4265.690, 106.6430
4267.619, 106.6967
4269.547, 107.2539
4271.476, 106.7037
4273.404, 105.5740
4275.333, 105.4041
4277.261, 105.5168
4279.189, 105.7531
4281.118, 105.7436
4283.046, 105.5918
4284.975, 105.3740
4286.903, 105.2068
4288.832, 105.1048
4290.760, 105.4466
4292.689, 105.6658
4294.617, 105.1225
4296.546, 105.0940
4298.474, 105.4945
4300.403, 105.1069
4302.331, 104.9449
4304.260, 105.5439
4306.188, 106.1946
4308.117, 106.6641
4310.045, 106.5647
4311.974, 106.1241
4313.902, 105.3886
4315.831, 105.5206
4317.759, 105.7351
4319.688, 104.9978
4321.616, 105.3983
4323.544, 106.7930
4325.473, 107.0881
4327.401, 106.5827
4329.330, 105.2213
4331.258, 105.3293
4333.187, 106.0847
4335.115, 105.3643
4337.043, 105.5836
4338.972, 107.1650
4340.900, 106.5883
4342.829, 105.5303
4344.757, 105.3609
4346.686, 106.4943
4348.614, 108.2095
4350.543, 107.3481
4352.471, 106.5837
4354.400, 107.0671
4356.328, 106.8521
4358.257, 106.3488
4360.185, 106.4294
4362.114, 106.2202
4364.042, 105.7350
4365.971, 106.5522
4367.899, 107.2293
4369.828, 106.6340
4371.756, 105.7871
4373.685, 105.1515
4375.613, 105.8999
4377.542, 106.2784
4379.470, 105.6963
4381.398, 106.0527
4383.327, 106.6185
4385.255, 106.7883
4387.184, 106.1580
4389.112, 105.1529
4391.041, 105.5171
4392.969, 106.4992
4394.897, 108.0501
4396.826, 108.2980
4398.754, 107.6477
4400.683, 106.0435
4402.611, 105.9212
4404.540, 107.1348
4406.468, 106.4647
4408.397, 106.1446
4410.325, 107.2927
4412.254, 106.9210
4414.182, 106.0886
4416.111, 106.7167
4418.039, 106.8354
4419.968, 106.3416
4421.896, 106.3172
4423.825, 106.6574
4425.753, 107.4406
4427.682, 106.7017
4429.610, 105.4241
4431.539, 105.2702
4433.467, 105.1641
4435.396, 104.9692
4437.324, 105.1211
4439.252, 105.4597
4441.181, 106.0482
4443.109, 106.0086
4445.038, 105.6838
4446.966, 105.6713
4448.895, 105.3394
4450.823, 104.7029
4452.751, 104.6109
4454.680, 104.8590
4456.608, 105.3749
4458.537, 105.5984
4460.465, 105.9269
4462.394, 107.2919
4464.322, 107.7317
4466.251, 107.0886
4468.179, 105.2044
4470.108, 104.3834
4472.036, 105.7921
4473.965, 106.4146
4475.893, 106.4421
4477.822, 105.8370
4479.750, 105.7935
4481.679, 106.1679
4483.607, 106.1773
4485.536, 106.0123
4487.464, 105.7245
4489.393, 106.2616
4491.321, 106.6715
4493.250, 106.1853
4495.178, 105.8091
4497.106, 105.6715
4499.035, 105.8419
4500.963, 106.2249
4502.892, 106.6707
4504.820, 106.2783
4506.749, 105.9366
4508.677, 106.3619
4510.605, 106.1665
4512.534, 106.0371
4514.462, 107.3350
4516.391, 106.9970
4518.319, 105.4975
4520.248, 106.0435
4522.176, 106.6943
4524.105, 106.8655
4526.033, 106.6261
4527.962, 106.4697
4529.890, 106.7924
4531.819, 106.8929
4533.747, 106.9446
4535.676, 107.6122
4537.604, 107.3513
4539.533, 106.2553
4541.461, 106.4938
4543.390, 106.6058
4545.318, 106.0155
4547.247, 105.3325
4549.175, 104.6692
4551.104, 103.9808
4553.032, 104.4910
4554.960, 105.5413
4556.889, 105.7860
4558.817, 105.7152
4560.746, 105.5339
4562.674, 105.8945
4564.603, 106.2994
4566.531, 106.5661
4568.459, 106.0973
4570.388, 105.9112
4572.316, 107.1055
4574.245, 106.6589
4576.173, 105.3209
4578.102, 104.4337
4580.030, 104.7352
4581.959, 105.9333
4583.887, 106.5720
4585.816, 106.4627
4587.744, 105.4277
4589.673, 105.7019
4591.601, 105.9893
4593.530, 105.2522
4595.458, 106.2793
4597.387, 107.3757
4599.315, 105.5449
4601.244, 104.7542
4603.172, 105.0732
4605.101, 105.3061
4607.029, 105.4901
4608.958, 105.6361
4610.886, 105.8742
4612.814, 105.9164
4614.743, 105.6255
4616.671, 105.0301
4618.600, 104.3074
4620.528, 103.3848
4622.457, 104.1159
4624.385, 105.4686
4626.313, 105.4406
4628.242, 105.5989
4630.170, 105.8671
4632.099, 104.6229
4634.027, 104.2033
4635.956, 105.0070
4637.884, 104.3316
4639.813, 104.2154
4641.741, 105.6791
4643.670, 105.3936
4645.598, 104.7840
4647.527, 105.6217
4649.455, 105.2453
4651.384, 104.4362
4653.312, 104.5135
4655.241, 104.8555
4657.169, 105.1372
4659.098, 104.6762
4661.026, 104.1116
4662.955, 103.7600
4664.883, 104.7529
4666.812, 105.5649
4668.740, 105.5881
4670.668, 104.7984
4672.597, 104.4060
4674.525, 105.1464
4676.454, 105.2922
4678.382, 105.1931
4680.311, 105.3966
4682.239, 105.1127
4684.167, 104.8153
4686.096, 105.6567
4688.024, 105.3606
4689.953, 104.3413
4691.881, 104.5358
4693.810, 105.1267
4695.738, 105.5950
4697.667, 104.0335
4699.595, 103.0063
4701.524, 103.4049
4703.452, 103.6946
4705.381, 104.2432
4707.309, 105.1935
4709.238, 104.6128
4711.166, 103.7719
4713.095, 103.6023
4715.023, 104.6822
4716.952, 105.7385
4718.880, 105.2707
4720.809, 104.7237
4722.737, 104.1125
4724.666, 102.7992
4726.594, 103.0207
4728.522, 104.1593
4730.451, 103.8642
4732.379, 103.9091
4734.308, 104.3669
4736.236, 104.0310
4738.165, 103.6630
4740.093, 103.4890
4742.021, 103.7500
4743.950, 103.6510
4745.878, 102.8688
4747.807, 104.6172
4749.735, 104.9564
4751.664, 102.1723
4753.592, 101.9565
4755.521, 102.7738
4757.449, 103.5862
4759.378, 103.2307
4761.306, 102.8742
4763.235, 103.6908
4765.163, 103.3789
4767.092, 102.7496
4769.020, 103.0343
4770.949, 102.8153
4772.877, 102.8142
4774.806, 104.7693
4776.734, 105.3921
4778.663, 104.7455
4780.591, 103.2021
4782.520, 102.3729
4784.448, 102.3799
4786.376, 103.1593
4788.305, 103.7506
4790.233, 103.9953
4792.162, 103.8070
4794.090, 103.7952
4796.019, 103.9384
4797.947, 103.4970
4799.875, 103.1332
4801.804, 103.0112
4803.732, 102.9038
4805.661, 102.8123
4807.589, 102.7320
4809.518, 102.4222
4811.446, 102.4079
4813.375, 102.9052
4815.303, 104.3254
4817.232, 104.2739
4819.160, 102.0674
4821.089, 102.5621
4823.017, 103.5284
4824.946, 103.6579
4826.874, 103.1412
4828.803, 102.3903
4830.731, 101.6647
4832.660, 102.8520
4834.588, 103.8349
4836.517, 102.8474
4838.445, 102.5616
4840.374, 102.4254
4842.302, 102.0613
4844.230, 101.6736
4846.159, 101.8045
4848.087, 103.4495
4850.016, 102.3952
4851.944, 100.8883
4853.873, 100.7151
4855.801, 101.4820
4857.729, 101.9518
4859.658, 100.5466
4861.586, 100.9665
4863.515, 101.9229
4865.443, 102.2289
4867.372, 103.0566
4869.300, 103.4769
4871.229, 102.0570
4873.157, 102.4291
4875.086, 103.0861
4877.014, 102.5776
4878.943, 101.6914
4880.871, 101.2625
4882.800, 102.3267
4884.728, 102.3313
4886.657, 101.8495
4888.585, 101.3567
4890.514, 102.5314
4892.442, 103.4398
4894.371, 101.9117
4896.299, 102.1371
4898.228, 102.5564
4900.156, 101.7388
4902.084, 101.1239
4904.013, 100.9086
4905.941, 101.1952
4907.870, 101.8363
4909.798, 102.2354
4911.727, 101.9118
4913.655, 102.2038
4915.583, 102.4035
4917.512, 101.9911
4919.440, 102.1606
4921.369, 102.0755
4923.297, 101.0158
4925.226, 101.7947
4927.154, 101.8412
4929.083, 99.95333
4931.011, 101.4142
4932.940, 102.6285
4934.868, 101.5585
4936.797, 101.3020
4938.725, 101.8102
4940.654, 102.8265
4942.582, 102.1419
4944.511, 101.6143
4946.439, 101.8949
4948.368, 101.3061
4950.296, 100.9443
4952.225, 101.0424
4954.153, 101.1234
4956.082, 100.4724
4958.010, 99.48618
4959.938, 101.7086
4961.867, 101.9334
4963.795, 100.0674
4965.724, 99.47932
4967.652, 100.2896
4969.581, 101.4564
4971.509, 99.99746
4973.438, 100.4116
4975.366, 101.7729
4977.294, 100.9644
4979.223, 101.2483
4981.151, 101.6921
4983.080, 99.62377
4985.008, 100.1584
4986.937, 101.3778
4988.865, 100.7807
4990.794, 100.7519
4992.722, 101.0314
4994.651, 101.2809
4996.579, 101.0285
4998.508, 100.5879
5000.436, 100.1409
5002.365, 100.3094
5004.293, 100.8558
5006.222, 101.5178
5008.150, 100.8104
5010.079, 100.3020
5012.007, 100.4506
5013.936, 99.55225
5015.864, 99.35561
5017.792, 100.0777
5019.721, 100.9101
5021.649, 101.4778
5023.578, 101.6099
5025.506, 100.8250
5027.435, 100.5133
5029.363, 100.7302
5031.292, 101.4754
5033.220, 100.3943
5035.148, 99.08141
5037.077, 99.84214
5039.005, 99.33536
5040.934, 98.95947
5042.862, 99.80477
5044.791, 101.0969
5046.719, 101.3187
5048.648, 99.93339
5050.576, 99.26185
5052.505, 98.88863
5054.433, 98.71587
5056.362, 99.51929
5058.290, 99.89979
5060.219, 99.86555
5062.147, 100.6297
5064.076, 100.4253
5066.004, 99.46653
5067.933, 98.35319
5069.861, 97.47713
5071.790, 97.70380
5073.718, 100.0357
5075.646, 99.22880
5077.575, 98.02579
5079.503, 98.65089
5081.432, 97.83021
5083.360, 97.69433
5085.289, 98.93410
5087.217, 99.62564
5089.146, 99.48307
5091.074, 98.91301
5093.002, 99.51964
5094.931, 99.68645
5096.859, 99.20059
5098.788, 97.90087
5100.716, 98.11028
5102.645, 98.65616
5104.573, 98.10242
5106.502, 97.89792
5108.430, 98.18464
5110.359, 99.03769
5112.287, 98.22784
5114.216, 98.08425
5116.144, 98.97877
5118.073, 98.77391
5120.001, 98.90816
5121.930, 99.20090
5123.858, 98.27383
5125.787, 98.26026
5127.715, 98.50945
5129.644, 97.96402
5131.572, 97.32934
5133.500, 97.59237
5135.429, 99.24850
5137.357, 98.27003
5139.286, 97.70707
5141.214, 98.46998
5143.143, 98.72678
5145.071, 98.67903
5147.000, 98.46276
5148.928, 98.19650
5150.856, 98.15136
5152.785, 98.25127
5154.713, 98.43697
5156.642, 98.31848
5158.570, 98.50105
5160.499, 99.12362
5162.427, 97.96209
5164.356, 97.39849
5166.284, 97.76408
5168.213, 97.51640
5170.141, 97.16924
5172.070, 96.92170
5173.998, 96.86732
5175.927, 97.71691
5177.855, 98.09241
5179.784, 97.04140
5181.712, 97.65769
5183.641, 98.16978
5185.569, 97.84668
5187.498, 96.42051
5189.426, 96.59853
5191.354, 97.51373
5193.283, 96.57703
5195.211, 95.86136
5197.140, 96.13761
5199.068, 98.06538
5200.997, 98.38308
5202.925, 98.28162
5204.854, 98.23765
5206.782, 97.80386
5208.710, 97.70496
5210.639, 97.56582
5212.567, 96.26525
5214.496, 95.15221
5216.424, 94.91086
5218.353, 96.18416
5220.281, 96.17281
5222.210, 96.39815
5224.138, 97.05430
5226.067, 96.13033
5227.995, 96.00185
5229.924, 96.42216
5231.852, 96.30022
5233.781, 96.41795
5235.709, 95.99454
5237.638, 94.63834
5239.566, 96.33772
5241.495, 97.19233
5243.423, 96.60033
5245.352, 96.61958
5247.280, 96.23543
5249.208, 95.60236
5251.137, 94.85973
5253.065, 95.98474
5254.994, 96.68582
5256.922, 96.03270
5258.851, 95.30732
5260.779, 95.64804
5262.708, 96.45689
5264.636, 95.91222
5266.564, 96.32143
5268.493, 96.65113
5270.421, 96.02748
5272.350, 95.24783
5274.278, 95.20191
5276.207, 95.68983
5278.135, 95.19673
5280.064, 95.33227
5281.992, 95.59164
5283.921, 95.08945
5285.849, 95.10149
5287.778, 95.34643
5289.706, 95.56209
5291.635, 95.10220
5293.563, 94.20358
5295.492, 93.73455
5297.420, 95.12596
5299.349, 95.08321
5301.277, 94.61168
5303.206, 94.33873
5305.134, 94.03417
5307.063, 94.36617
5308.991, 94.75906
5310.919, 93.88156
5312.848, 94.70235
5314.776, 94.90855
5316.705, 93.05465
5318.633, 93.91743
5320.562, 93.90158
5322.490, 93.03719
5324.418, 93.30168
5326.347, 93.55622
5328.275, 93.28168
5330.204, 92.47241
5332.132, 94.27312
5334.061, 94.01061
5335.989, 92.44791
5337.918, 94.49301
5339.846, 95.41243
5341.775, 95.09233
5343.703, 93.93993
5345.632, 94.08558
5347.560, 93.68700
5349.489, 92.92848
5351.417, 93.22421
5353.346, 93.40690
5355.274, 93.77567
5357.203, 94.48063
5359.131, 93.53125
5361.060, 93.27576
5362.988, 93.36402
5364.917, 92.16931
5366.845, 91.49250
5368.773, 92.08676
5370.702, 93.78938
5372.630, 92.23143
5374.559, 92.27969
5376.487, 93.25652
5378.416, 92.71455
5380.344, 91.67348
5382.272, 91.06029
5384.201, 91.26577
5386.129, 92.62305
5388.058, 93.13567
5389.986, 92.63067
5391.915, 91.00388
5393.843, 91.25011
5395.772, 92.31434
5397.700, 93.09962
5399.629, 91.43011
5401.557, 91.26573
5403.486, 91.73587
5405.414, 91.74647
5407.343, 91.16055
5409.271, 90.40585
5411.200, 89.98685
5413.128, 90.81747
5415.057, 91.09860
5416.985, 91.00417
5418.914, 90.79902
5420.842, 91.14478
5422.771, 91.41768
5424.699, 91.39113
5426.627, 90.95632
5428.556, 90.10070
5430.484, 89.75281
5432.413, 89.93319
5434.341, 89.62888
5436.270, 90.70186
5438.198, 91.24754
5440.126, 90.22016
5442.055, 90.89410
5443.983, 90.47690
5445.912, 89.79118
5447.840, 90.62034
5449.769, 89.38328
5451.697, 89.21237
5453.626, 90.46249
5455.554, 90.14102
5457.483, 89.65374
5459.411, 89.62747
5461.340, 90.21006
5463.268, 89.63389
5465.197, 89.20149
5467.125, 89.00130
5469.054, 88.78933
5470.982, 89.42043
5472.911, 89.36993
5474.839, 88.55224
5476.768, 88.22749
5478.696, 88.37880
5480.625, 88.06155
5482.553, 86.98713
5484.481, 86.89535
5486.410, 87.68369
5488.338, 88.20956
5490.267, 87.49459
5492.195, 87.82775
5494.124, 88.16291
5496.052, 88.22973
5497.980, 88.15530
5499.909, 88.05016
5501.837, 88.31822
5503.766, 88.83610
5505.694, 88.50936
5507.623, 88.55331
5509.551, 88.48721
5511.480, 87.90983
5513.408, 86.92006
5515.337, 86.78020
5517.265, 87.28658
5519.194, 88.01818
5521.122, 88.10120
5523.051, 87.72473
5524.979, 87.21337
5526.908, 86.97987
5528.836, 87.07121
5530.765, 86.97208
5532.693, 86.71535
5534.622, 86.98746
5536.550, 87.04541
5538.479, 86.63039
5540.407, 86.00575
5542.335, 87.37602
5544.264, 87.06513
5546.192, 86.06905
5548.121, 85.62585
5550.049, 85.81103
5551.978, 86.92899
5553.906, 87.75041
5555.834, 86.95129
5557.763, 85.97449
5559.691, 85.28401
5561.620, 85.21542
5563.548, 86.14547
5565.477, 86.24918
5567.405, 86.09438
5569.334, 85.90229
5571.262, 85.47140
5573.191, 85.41047
5575.119, 85.82185
5577.048, 86.48817
5578.976, 86.77026
5580.905, 85.94389
5582.833, 85.54118
5584.762, 86.01839
5586.690, 85.30082
5588.619, 85.62578
5590.547, 86.13701
5592.476, 85.94718
5594.404, 83.89127
5596.333, 83.73146
5598.261, 84.34751
5600.189, 84.34144
5602.118, 83.97936
5604.046, 84.25353
5605.975, 84.27715
5607.903, 83.21341
5609.832, 83.20988
5611.760, 83.41310
5613.688, 83.90152
5615.617, 84.83146
5617.545, 83.45154
5619.474, 82.46058
5621.402, 82.37790
5623.331, 83.02853
5625.259, 82.66308
5627.188, 82.78992
5629.116, 83.15105
5631.045, 82.79518
5632.973, 83.05965
5634.902, 82.93636
5636.830, 82.66731
5638.759, 82.99792
5640.687, 84.46849
5642.616, 83.88725
5644.544, 82.12811
5646.473, 81.73888
5648.401, 83.04391
5650.330, 82.86194
5652.258, 81.91195
5654.187, 83.31641
5656.115, 82.93328
5658.043, 81.07519
5659.972, 79.91463
5661.900, 82.47606
5663.829, 80.29934
5665.757, 81.01147
5667.686, 82.90433
5669.614, 80.67369
5671.542, 81.49889
5673.471, 81.56109
5675.399, 80.99301
5677.328, 81.52262
5679.256, 80.09686
5681.185, 80.97926
5683.113, 82.55320
5685.042, 81.15834
5686.970, 80.92918
5688.899, 80.58182
5690.827, 80.06862
5692.756, 79.73117
5694.684, 80.20950
5696.613, 80.25465
5698.541, 80.12275
5700.470, 80.29866
5702.398, 80.92725
5704.327, 80.17332
5706.255, 79.50400
5708.184, 80.10470
5710.112, 80.63850
5712.041, 79.06080
5713.969, 77.92193
5715.897, 78.76260
5717.826, 80.04539
5719.754, 78.77816
5721.683, 77.78844
5723.611, 78.28609
5725.540, 78.26302
5727.468, 78.01558
5729.396, 78.66038
5731.325, 79.58516
5733.253, 78.31869
5735.182, 78.58300
5737.110, 78.36240
5739.039, 77.82777
5740.967, 78.67392
5742.896, 78.24308
5744.824, 78.23882
5746.753, 77.98744
5748.681, 76.06367
5750.610, 76.13174
5752.538, 77.54214
5754.467, 78.50709
5756.395, 77.82717
5758.324, 78.38969
5760.252, 77.74053
5762.181, 76.83630
5764.109, 76.53592
5766.038, 76.51118
5767.966, 76.14625
5769.895, 76.57267
5771.823, 77.33899
5773.751, 76.14005
5775.680, 75.82277
5777.608, 76.31606
5779.537, 77.07542
5781.465, 77.52489
5783.394, 77.08464
5785.322, 76.29983
5787.250, 75.49223
5789.179, 74.91737
5791.107, 76.42822
5793.036, 76.58611
5794.964, 76.10892
5796.893, 75.85773
5798.821, 75.92927
5800.750, 75.78609
5802.678, 75.40549
5804.607, 75.10228
5806.535, 75.41635
5808.464, 75.93116
5810.392, 75.16416
5812.321, 74.06227
5814.249, 74.05535
5816.178, 75.06650
5818.106, 74.40900
5820.035, 73.77589
5821.963, 74.33550
5823.892, 75.03349
5825.820, 75.18935
5827.749, 74.98551
5829.677, 74.40575
5831.605, 73.15673
5833.534, 72.31485
5835.462, 72.67756
5837.391, 73.52692
5839.319, 73.94934
5841.248, 73.66174
5843.176, 73.04868
5845.104, 72.71194
5847.033, 72.82300
5848.961, 73.09200
5850.890, 73.09984
5852.818, 72.93124
5854.747, 72.73251
5856.675, 72.66224
5858.604, 73.14571
5860.532, 73.91162
5862.461, 74.18469
5864.389, 73.59816
5866.318, 72.57759
5868.246, 71.79273
5870.175, 71.97164
5872.103, 72.34228
5874.032, 71.60645
5875.960, 71.83577
5877.889, 71.79142
5879.817, 71.71816
5881.746, 71.90949
5883.674, 71.05690
5885.603, 72.31719
5887.531, 72.98400
5889.459, 73.08913
5891.388, 70.95031
5893.316, 71.70908
5895.245, 71.30659
5897.173, 70.85656
5899.102, 72.02308
5901.030, 70.21070
5902.958, 71.35163
5904.887, 71.31360
5906.815, 71.81520
5908.744, 71.14835
5910.672, 70.84246
5912.601, 71.70523
5914.529, 71.92094
5916.458, 71.11960
5918.386, 71.65547
5920.315, 69.80223
5922.243, 70.04547
5924.172, 71.19322
5926.100, 70.45068
5928.029, 71.00788
5929.957, 71.07009
5931.886, 68.88255
5933.814, 70.60754
5935.743, 70.64043
5937.671, 68.93609
5939.600, 70.52695
5941.528, 69.06211
5943.457, 68.68792
5945.385, 69.13464
5947.313, 68.72565
5949.242, 69.66570
5951.170, 69.30614
5953.099, 68.83039
5955.027, 68.86147
5956.956, 67.45648
5958.884, 68.71563
5960.813, 68.15492
5962.741, 68.49883
5964.669, 69.04781
5966.598, 68.02676
5968.526, 68.66786
5970.455, 66.73142
5972.383, 66.95171
5974.312, 66.93970
5976.240, 68.30621
5978.169, 66.38237
5980.097, 66.54271
5982.026, 67.59044
5983.954, 67.39650
5985.883, 67.72169
5987.811, 66.50999
5989.740, 66.74207
5991.668, 66.57624
5993.597, 67.78555
5995.525, 67.90927
5997.454, 66.72360
5999.382, 65.54355
6001.311, 66.85184
6003.239, 65.80166
6005.167, 66.02386
6007.096, 64.93188
6009.024, 64.97462
6010.953, 64.99931
6012.881, 65.60571
6014.810, 64.44833
6016.738, 65.57883
6018.667, 65.38697
6020.595, 65.58466
6022.523, 65.73904
6024.452, 64.11896
6026.380, 63.95352
6028.309, 65.86938
6030.237, 64.61113
6032.166, 63.99346
6034.094, 63.83127
6036.023, 65.81844
6037.951, 65.80780
6039.880, 63.40913
6041.808, 65.30161
6043.737, 64.55407
6045.665, 64.59108
6047.594, 64.41979
6049.522, 64.39394
6051.451, 64.14341
6053.379, 63.99872
6055.308, 64.09004
6057.236, 64.04533
6059.165, 64.36578
6061.093, 64.35302
6063.021, 64.49394
6064.950, 65.00361
6066.878, 62.80719
6068.807, 64.31175
6070.735, 63.98499
6072.664, 62.80396
6074.592, 63.14656
6076.521, 62.84357
6078.449, 62.06275
6080.377, 62.81136
6082.306, 63.32798
6084.234, 62.05814
6086.163, 60.69152
6088.091, 62.01638
6090.020, 61.97517
6091.948, 61.52668
6093.877, 62.02706
6095.805, 62.24834
6097.734, 61.99640
6099.662, 61.95723
6101.591, 62.42054
6103.519, 62.99803
6105.448, 62.53685
6107.376, 61.27709
6109.305, 61.51934
6111.233, 61.82282
6113.162, 61.52708
6115.090, 61.54545
6117.019, 60.15542
6118.947, 60.42180
6120.875, 60.98736
6122.804, 60.77792
6124.732, 59.79670
6126.661, 61.76215
6128.589, 60.76453
6130.518, 59.20062
6132.446, 59.27718
6134.375, 61.13623
6136.303, 60.37425
6138.231, 59.22745
6140.160, 58.78088
6142.088, 58.84847
6144.017, 59.10420
6145.945, 59.91115
6147.874, 59.26333
6149.802, 58.87282
6151.731, 59.19157
6153.659, 59.31942
6155.588, 57.81588
6157.516, 58.51958
6159.445, 58.36875
6161.373, 58.43879
6163.302, 58.61945
6165.230, 58.25781
6167.159, 58.50174
6169.087, 58.73308
6171.016, 57.73792
6172.944, 57.20581
6174.873, 58.02116
6176.801, 58.61454
6178.729, 57.21574
6180.658, 56.93193
6182.586, 57.76403
6184.515, 58.40649
6186.443, 57.87640
6188.372, 58.02764
6190.300, 57.59653
6192.229, 57.13776
6194.157, 56.79135
6196.085, 56.72253
6198.014, 57.53516
6199.942, 58.14362
6201.871, 57.25208
6203.799, 56.47941
6205.728, 56.69834
6207.656, 57.45481
6209.585, 57.45893
6211.513, 56.94390
6213.442, 56.66320
6215.370, 56.29408
6217.299, 55.92791
6219.227, 56.57402
6221.156, 55.51254
6223.084, 56.26865
6225.013, 55.93669
6226.941, 54.71373
6228.870, 54.62923
6230.798, 55.23076
6232.727, 56.02163
6234.655, 55.70425
6236.583, 54.70845
6238.512, 54.28789
6240.440, 55.39389
6242.369, 55.48723
6244.297, 55.16932
6246.226, 54.47698
6248.154, 54.12996
6250.083, 54.50018
6252.011, 54.98450
6253.939, 54.26755
6255.868, 54.73557
6257.796, 54.28460
6259.725, 54.04897
6261.653, 55.34198
6263.582, 53.58005
6265.510, 54.15856
6267.439, 54.48155
6269.367, 54.53895
6271.296, 54.59565
6273.224, 54.43547
6275.153, 52.80326
6277.081, 53.76432
6279.010, 54.15901
6280.938, 53.18169
6282.867, 52.16976
6284.795, 52.76902
6286.724, 53.66484
6288.652, 52.76758
6290.581, 53.13789
6292.509, 53.23728
6294.438, 52.64591
6296.366, 53.07899
6298.294, 53.33142
6300.223, 52.96650
6302.151, 52.53096
6304.080, 52.55955
6306.008, 52.66803
6307.937, 52.05593
6309.865, 52.14486
6311.793, 51.69714
6313.722, 51.56336
6315.650, 51.84284
6317.579, 52.20264
6319.507, 52.30382
6321.436, 51.98115
6323.364, 51.69604
6325.293, 51.52571
6327.221, 52.26301
6329.150, 52.58119
6331.078, 50.21040
6333.007, 50.93396
6334.935, 51.24466
6336.864, 50.93397
6338.792, 50.39385
6340.721, 49.96756
6342.649, 49.96064
6344.578, 51.75066
6346.506, 50.76925
6348.435, 49.96021
6350.363, 49.76445
6352.292, 49.83960
6354.220, 49.99571
6356.148, 50.35856
6358.077, 49.52753
6360.005, 49.55104
6361.934, 50.15324
6363.862, 50.16649
6365.791, 49.55599
6367.719, 49.85489
6369.647, 49.83701
6371.576, 48.46905
6373.504, 49.73791
6375.433, 50.41314
6377.361, 50.52678
6379.290, 48.39646
6381.218, 49.16373
6383.147, 48.76974
6385.075, 48.32817
6387.004, 49.50322
6388.932, 47.69931
6390.861, 48.84871
6392.789, 48.81922
6394.718, 49.32927
6396.646, 48.67097
6398.575, 48.37350
6400.503, 49.24484
6402.432, 49.46897
6404.360, 48.67619
6406.289, 49.22052
6408.217, 47.37582
6410.146, 47.62751
6412.074, 48.78378
6414.002, 48.04974
6415.931, 48.61543
6417.859, 48.68615
6419.788, 46.50711
6421.716, 48.24059
6423.645, 48.28199
6425.573, 46.58612
6427.501, 48.18554
6429.430, 46.72913
6431.358, 46.36351
6433.287, 46.81865
6435.215, 46.41817
6437.144, 47.36673
6439.072, 47.01566
6441.001, 46.54841
6442.929, 46.58796
6444.858, 45.19150
6446.786, 46.45911
6448.715, 45.90693
6450.643, 46.25933
6452.572, 46.81675
6454.500, 45.80426
6456.429, 46.45378
6458.357, 44.52591
6460.286, 44.75463
6462.214, 44.75118
6464.143, 46.12614
6466.071, 44.21084
6468.000, 44.37963
6469.928, 45.43588
6471.856, 45.25047
6473.785, 45.09111
6475.713, 45.14058
6477.642, 45.33544
6479.570, 45.06687
6481.499, 44.25513
6483.427, 44.96049
6485.355, 44.79079
6487.284, 44.61527
6489.212, 45.54089
6491.141, 45.08825
6493.069, 44.22977
6494.998, 44.44438
6496.926, 42.95400
6498.855, 43.66686
6500.783, 44.99252
6502.712, 44.70781
6504.640, 43.91237
6506.569, 43.54663
6508.497, 43.34801
6510.426, 42.69884
6512.354, 45.18816
6514.283, 44.46159
6516.211, 43.81123
6518.140, 44.57097
6520.068, 44.29647
6521.997, 42.79651
6523.925, 42.74445
6525.854, 41.92854
6527.782, 42.60107
6529.710, 43.24095
6531.639, 43.35686
6533.567, 42.97729
6535.496, 42.82450
6537.424, 43.26831
6539.353, 42.69017
6541.281, 44.08342
6543.209, 43.04721
6545.138, 42.50869
6547.066, 42.01050
6548.995, 42.33785
6550.923, 43.45158
6552.852, 43.21498
6554.780, 42.44521
6556.709, 42.25671
6558.637, 42.92342
6560.566, 42.41865
6562.494, 41.13816
6564.423, 41.06366
6566.351, 42.35455
6568.280, 41.35381
6570.208, 40.57556
6572.137, 40.92328
6574.065, 42.25258
6575.994, 41.98363
6577.922, 41.47393
6579.851, 41.76415
6581.779, 41.74465
6583.708, 41.04912
6585.636, 40.42599
6587.564, 40.42508
6589.493, 40.68501
6591.421, 41.43225
6593.350, 41.05688
6595.278, 40.38991
6597.207, 41.50889
6599.135, 39.76228
6601.063, 40.76671
6602.992, 40.54689
6604.920, 41.08279
6606.849, 41.57628
6608.777, 40.77613
6610.706, 39.79951
6612.634, 40.45049
6614.563, 40.73468
6616.491, 40.83167
6618.420, 40.10592
6620.348, 40.77637
6622.277, 41.03062
6624.205, 40.83010
6626.134, 40.55232
6628.062, 40.20199
6629.991, 40.57275
##END=



