##NAMES=Fluorcalciomicrolite
##RRUFFID=R090008
##IDEAL CHEMISTRY=(Ca,Na,[box])_2_Ta_2_O_6_F
##LOCALITY=Shigar Valley, Skardu District, Baltistan, Northern areas, Pakistan
##OWNER=RRUFF
##SOURCE=Herb Obodda
##DESCRIPTION=Dark yellowish brown octahedra on orthoclase
##STATUS=The identification of this mineral is confirmed by single-crystal X-ray diffraction and chemical analysis
##URL=https://www.rruff.net/odr/rruff_sample/R090008
##MEASURED CHEMISTRY=(Ca_0.99_Na_0.99_Pb_0.02_Mn^2+^_0.01_)(Ta_1.63_Nb_0.35_Sn_0.02_Ti_0.01_)O_6_(F_0.99_O_0.01_)
##DIFFRACTION SAMPLE DESCRIPTION=Single crystal, powder profile is calculated
##CELL PARAMETERS=a: 10.427 b: 10.427 c: 10.427 alpha: 90 beta: 90 gamma: 90 volume: 1133.65 crystal system: cubic
##FILETYPE=Raman RAW
##RAMAN WAVELENGTH=532

87.21906, 586.8565
89.14753, 566.7676
91.07600, 556.1937
93.00446, 549.5884
94.93293, 554.8071
96.86140, 579.9949
98.78986, 578.5474
100.7183, 639.5915
102.6468, 746.9099
104.5753, 842.3611
106.5037, 1247.126
108.4322, 1996.416
110.3607, 3072.525
112.2891, 4641.790
114.2176, 6824.394
116.1461, 9330.677
118.0745, 12052.12
120.0030, 15062.70
121.9315, 18052.45
123.8599, 20926.51
125.7884, 23699.84
127.7169, 26570.42
129.6453, 29680.73
131.5738, 32753.54
133.5023, 35637.28
135.4307, 38292.39
137.3592, 40771.43
139.2877, 42983.82
141.2161, 43880.50
143.1446, 45138.38
145.0731, 44548.58
147.0015, 43970.24
148.9300, 43332.04
150.8585, 42612.45
152.7869, 41932.98
154.7154, 41326.11
156.6439, 40794.45
158.5723, 40252.23
160.5008, 39669.10
162.4293, 39080.48
164.3577, 38515.54
166.2862, 37965.59
168.2147, 37440.80
170.1431, 36945.61
172.0716, 36481.33
174.0001, 35994.19
175.9285, 35437.50
177.8570, 34879.38
179.7855, 34373.53
181.7139, 33955.31
183.6424, 33545.34
185.5709, 33111.80
187.4993, 32654.46
189.4278, 32233.26
191.3563, 31852.07
193.2847, 31502.51
195.2132, 31189.74
197.1417, 30956.90
199.0701, 30695.03
200.9986, 30363.87
202.9271, 29972.51
204.8555, 29591.37
206.7840, 29259.17
208.7125, 28926.50
210.6409, 28526.26
212.5694, 28013.07
214.4979, 27544.39
216.4263, 27151.66
218.3548, 26834.89
220.2833, 26588.98
222.2117, 26421.22
224.1402, 26312.50
226.0687, 26236.23
227.9971, 26189.06
229.9256, 26182.42
231.8541, 26224.44
233.7825, 26319.95
235.7110, 26426.43
237.6395, 26547.11
239.5679, 26680.56
241.4964, 26826.60
243.4249, 27011.10
245.3533, 27180.42
247.2818, 27311.04
249.2103, 27419.26
251.1387, 27557.89
253.0672, 27751.67
254.9957, 27965.34
256.9242, 28176.44
258.8526, 28366.75
260.7811, 28584.28
262.7096, 28810.83
264.6380, 29062.90
266.5665, 29402.70
268.4950, 29869.07
270.4234, 30391.35
272.3519, 30964.73
274.2804, 31594.74
276.2088, 32214.95
278.1373, 32825.39
280.0658, 33418.57
281.9942, 33969.46
283.9227, 34486.91
285.8512, 34965.63
287.7796, 35401.84
289.7081, 35801.11
291.6366, 36146.12
293.5650, 36474.10
295.4935, 36735.53
297.4220, 36849.39
299.3504, 36853.19
301.2789, 36695.55
303.2074, 36356.27
305.1358, 35845.70
307.0643, 35195.51
308.9928, 34338.08
310.9212, 33413.18
312.8497, 32513.41
314.7782, 31614.87
316.7066, 30783.95
318.6351, 30006.44
320.5636, 29295.50
322.4920, 28722.48
324.4205, 28288.42
326.3490, 27970.25
328.2774, 27770.33
330.2059, 27711.57
332.1344, 27673.57
334.0628, 27686.67
335.9913, 27716.04
337.9198, 27643.54
339.8482, 27473.38
341.7767, 27212.19
343.7052, 26865.82
345.6336, 26423.98
347.5621, 25919.53
349.4906, 25302.81
351.4190, 24658.90
353.3475, 24063.95
355.2760, 23519.06
357.2044, 23010.34
359.1329, 22523.08
361.0614, 22065.79
362.9898, 21659.31
364.9183, 21324.42
366.8468, 21015.85
368.7752, 20708.41
370.7037, 20396.02
372.6322, 20117.16
374.5606, 19878.16
376.4891, 19678.16
378.4176, 19491.57
380.3460, 19307.02
382.2745, 19149.42
384.2030, 19041.72
386.1314, 18985.77
388.0599, 18920.61
389.9884, 18830.17
391.9168, 18727.80
393.8453, 18639.16
395.7738, 18566.08
397.7022, 18516.95
399.6307, 18496.84
401.5592, 18486.51
403.4876, 18467.32
405.4161, 18438.91
407.3446, 18414.95
409.2730, 18396.51
411.2015, 18381.96
413.1300, 18359.14
415.0584, 18308.11
416.9869, 18265.81
418.9154, 18268.55
420.8438, 18322.40
422.7723, 18375.08
424.7008, 18409.76
426.6292, 18424.73
428.5577, 18423.91
430.4862, 18390.15
432.4146, 18366.28
434.3431, 18359.97
436.2716, 18355.09
438.2000, 18329.99
440.1285, 18286.05
442.0570, 18243.46
443.9854, 18189.77
445.9139, 18115.62
447.8424, 18027.34
449.7708, 17935.54
451.6993, 17842.01
453.6278, 17758.25
455.5562, 17690.49
457.4847, 17627.26
459.4132, 17563.01
461.3416, 17511.99
463.2701, 17505.11
465.1986, 17525.80
467.1270, 17624.82
469.0555, 17781.34
470.9840, 17989.65
472.9124, 18256.34
474.8409, 18577.73
476.7694, 18980.61
478.6978, 19476.57
480.6263, 20052.90
482.5548, 20743.51
484.4832, 21588.03
486.4117, 22571.34
488.3402, 23722.36
490.2686, 24993.13
492.1971, 26492.25
494.1256, 28240.16
496.0540, 30221.78
497.9825, 32557.56
499.9110, 35443.95
501.8394, 38565.82
503.7679, 41701.06
505.6964, 44887.66
507.6248, 47804.52
509.5533, 50214.91
511.4818, 52114.50
513.4103, 53386.04
515.3387, 53721.24
517.2672, 53473.55
519.1957, 52765.73
521.1241, 51674.03
523.0526, 50449.80
524.9811, 49164.27
526.9095, 47974.04
528.8380, 46957.94
530.7665, 46149.80
532.6949, 45451.02
534.6234, 44826.84
536.5519, 44299.34
538.4803, 43854.91
540.4088, 43478.53
542.3373, 43096.23
544.2657, 42662.71
546.1942, 42198.27
548.1227, 41724.04
550.0511, 41236.36
551.9796, 40722.98
553.9081, 40195.41
555.8365, 39657.17
557.7650, 39110.21
559.6935, 38519.92
561.6219, 37907.80
563.5504, 37301.61
565.4789, 36722.98
567.4073, 36178.06
569.3358, 35660.92
571.2643, 35191.73
573.1927, 34782.02
575.1212, 34448.85
577.0497, 34202.23
578.9781, 34017.75
580.9066, 33878.23
582.8351, 33775.59
584.7635, 33714.25
586.6920, 33725.90
588.6205, 33825.81
590.5490, 33983.69
592.4774, 34170.98
594.4059, 34380.46
596.3344, 34634.09
598.2628, 34911.89
600.1913, 35167.68
602.1198, 35368.36
604.0482, 35540.56
605.9767, 35705.58
607.9052, 35861.97
609.8336, 35980.82
611.7621, 36010.17
613.6906, 35960.28
615.6190, 35905.22
617.5475, 35878.29
619.4760, 35878.56
621.4044, 35873.49
623.3329, 35849.43
625.2614, 35824.19
627.1898, 35803.54
629.1183, 35788.93
631.0468, 35780.85
632.9752, 35811.54
634.9037, 35892.24
636.8322, 36020.44
638.7606, 36145.16
640.6891, 36228.26
642.6176, 36297.48
644.5460, 36358.78
646.4745, 36399.81
648.4030, 36408.32
650.3314, 36411.30
652.2599, 36407.44
654.1884, 36364.61
656.1168, 36253.31
658.0453, 36104.15
659.9738, 35915.40
661.9022, 35666.77
663.8307, 35357.25
665.7592, 35024.86
667.6876, 34691.55
669.6161, 34306.75
671.5446, 33855.84
673.4730, 33350.87
675.4015, 32810.91
677.3300, 32268.91
679.2584, 31714.81
681.1869, 31140.68
683.1154, 30520.07
685.0438, 29879.88
686.9723, 29244.40
688.9008, 28602.28
690.8292, 27943.06
692.7577, 27259.71
694.6862, 26571.76
696.6146, 25893.94
698.5431, 25206.88
700.4716, 24486.46
702.4000, 23744.57
704.3285, 23031.21
706.2570, 22361.06
708.1854, 21725.83
710.1139, 21123.32
712.0424, 20528.61
713.9708, 19955.56
715.8993, 19421.18
717.8278, 18914.44
719.7562, 18408.51
721.6847, 17900.79
723.6132, 17438.12
725.5416, 17028.30
727.4701, 16642.88
729.3986, 16262.75
731.3270, 15887.65
733.2555, 15563.37
735.1840, 15324.86
737.1124, 15118.48
739.0409, 14907.79
740.9694, 14691.84
742.8978, 14489.82
744.8263, 14293.84
746.7548, 14108.71
748.6832, 13941.53
750.6117, 13802.54
752.5402, 13682.52
754.4686, 13586.69
756.3971, 13486.98
758.3256, 13380.39
760.2540, 13298.81
762.1825, 13228.30
764.1110, 13163.36
766.0394, 13091.44
767.9679, 13020.69
769.8964, 12962.68
771.8248, 12904.19
773.7533, 12821.70
775.6818, 12749.98
777.6102, 12714.27
779.5387, 12715.74
781.4672, 12745.79
783.3956, 12814.82
785.3241, 12909.81
787.2526, 13005.48
789.1810, 13099.48
791.1095, 13231.71
793.0380, 13422.59
794.9664, 13643.94
796.8949, 13890.54
798.8234, 14172.16
800.7518, 14436.53
802.6803, 14681.63
804.6088, 14909.34
806.5372, 15131.55
808.4657, 15343.86
810.3942, 15526.96
812.3226, 15677.48
814.2511, 15806.60
816.1796, 15909.48
818.1080, 15965.94
820.0365, 15988.67
821.9650, 15965.33
823.8934, 15931.50
825.8219, 15904.30
827.7504, 15874.95
829.6788, 15822.37
831.6073, 15730.57
833.5358, 15636.44
835.4642, 15545.44
837.3927, 15447.68
839.3212, 15347.24
841.2496, 15246.27
843.1781, 15151.76
845.1066, 15054.71
847.0350, 14953.19
848.9635, 14876.29
850.8920, 14843.92
852.8204, 14820.94
854.7489, 14780.30
856.6774, 14729.43
858.6058, 14727.18
860.5343, 14778.03
862.4628, 14863.22
864.3912, 14990.54
866.3197, 15148.16
868.2482, 15309.27
870.1766, 15465.47
872.1051, 15642.81
874.0336, 15856.79
875.9620, 16098.29
877.8905, 16337.62
879.8190, 16579.67
881.7474, 16814.86
883.6759, 17039.14
885.6044, 17252.64
887.5328, 17456.90
889.4613, 17649.36
891.3898, 17835.01
893.3182, 18022.03
895.2467, 18200.36
897.1752, 18352.07
899.1036, 18455.94
901.0321, 18563.16
902.9606, 18706.86
904.8890, 18842.92
906.8175, 18910.86
908.7460, 18898.97
910.6744, 18898.15
912.6029, 18968.22
914.5314, 19033.41
916.4598, 19029.32
918.3883, 18932.85
920.3168, 18810.51
922.2452, 18695.08
924.1737, 18536.41
926.1022, 18279.35
928.0306, 17927.43
929.9591, 17541.86
931.8876, 17130.89
933.8160, 16684.11
935.7445, 16202.33
937.6730, 15685.69
939.6014, 15147.88
941.5299, 14573.34
943.4584, 13996.48
945.3868, 13417.87
947.3153, 12844.51
949.2438, 12299.69
951.1722, 11767.29
953.1007, 11266.33
955.0292, 10807.65
956.9576, 10397.18
958.8861, 10029.93
960.8146, 9728.089
962.7430, 9432.224
964.6715, 9121.410
966.6000, 8801.825
968.5284, 8520.706
970.4569, 8307.612
972.3854, 8110.355
974.3138, 7904.449
976.2423, 7707.698
978.1708, 7559.526
980.0992, 7467.494
982.0277, 7374.286
983.9562, 7262.081
985.8846, 7151.938
987.8131, 7049.374
989.7416, 6944.373
991.6700, 6871.827
993.5985, 6852.749
995.5270, 6851.727
997.4554, 6838.188
999.3839, 6801.214
1001.312, 6766.365
1003.241, 6739.319
1005.169, 6717.188
1007.098, 6697.788
1009.026, 6681.448
1010.955, 6657.937
1012.883, 6616.942
1014.812, 6575.351
1016.740, 6546.949
1018.669, 6526.089
1020.597, 6478.496
1022.526, 6398.179
1024.454, 6324.212
1026.382, 6271.848
1028.311, 6215.760
1030.239, 6138.866
1032.168, 6050.090
1034.096, 5971.268
1036.025, 5907.988
1037.953, 5846.314
1039.882, 5779.618
1041.810, 5733.759
1043.739, 5706.131
1045.667, 5677.360
1047.596, 5635.314
1049.524, 5589.324
1051.453, 5576.850
1053.381, 5554.643
1055.309, 5493.378
1057.238, 5427.831
1059.166, 5380.784
1061.095, 5357.268
1063.023, 5338.754
1064.952, 5314.089
1066.880, 5279.074
1068.809, 5246.943
1070.737, 5208.508
1072.666, 5164.058
1074.594, 5119.521
1076.523, 5066.954
1078.451, 5007.604
1080.380, 4950.517
1082.308, 4896.510
1084.236, 4851.292
1086.165, 4800.755
1088.093, 4725.644
1090.022, 4642.329
1091.950, 4564.466
1093.879, 4499.618
1095.807, 4438.897
1097.736, 4383.881
1099.664, 4320.351
1101.593, 4237.026
1103.521, 4142.244
1105.450, 4059.766
1107.378, 4011.810
1109.307, 3963.486
1111.235, 3894.316
1113.163, 3817.234
1115.092, 3754.128
1117.020, 3708.874
1118.949, 3655.250
1120.877, 3602.775
1122.806, 3558.203
1124.734, 3512.526
1126.663, 3450.880
1128.591, 3397.439
1130.520, 3371.928
1132.448, 3344.518
1134.377, 3306.415
1136.305, 3265.164
1138.234, 3235.026
1140.162, 3222.010
1142.090, 3201.353
1144.019, 3154.368
1145.947, 3110.708
1147.876, 3094.012
1149.804, 3095.998
1151.733, 3088.504
1153.661, 3070.015
1155.590, 3047.040
1157.518, 3024.591
1159.447, 3007.935
1161.375, 2998.922
1163.304, 2981.276
1165.232, 2974.339
1167.161, 2987.766
1169.089, 3006.609
1171.017, 3016.677
1172.946, 3022.202
1174.874, 3027.799
1176.803, 3035.430
1178.731, 3050.473
1180.660, 3060.215
1182.588, 3056.152
1184.517, 3049.881
1186.445, 3071.675
1188.374, 3114.065
1190.302, 3144.296
1192.231, 3153.673
1194.159, 3150.664
1196.088, 3152.007
1198.016, 3173.007
1199.944, 3211.551
1201.873, 3246.862
1203.801, 3267.218
1205.730, 3274.388
1207.658, 3278.630
1209.587, 3272.741
1211.515, 3272.109
1213.444, 3305.805
1215.372, 3348.479
1217.301, 3362.951
1219.229, 3343.810
1221.158, 3349.042
1223.086, 3405.726
1225.015, 3447.004
1226.943, 3447.640
1228.871, 3424.229
1230.800, 3426.352
1232.728, 3480.931
1234.657, 3527.011
1236.585, 3523.506
1238.514, 3486.535
1240.442, 3457.534
1242.371, 3453.691
1244.299, 3460.923
1246.228, 3477.661
1248.156, 3485.474
1250.085, 3462.027
1252.013, 3416.344
1253.942, 3381.899
1255.870, 3374.507
1257.798, 3367.129
1259.727, 3332.573
1261.655, 3284.432
1263.584, 3242.684
1265.512, 3214.551
1267.441, 3198.585
1269.369, 3189.945
1271.298, 3171.200
1273.226, 3144.255
1275.155, 3113.575
1277.083, 3091.762
1279.012, 3088.084
1280.940, 3069.221
1282.869, 3012.147
1284.797, 2956.042
1286.725, 2923.837
1288.654, 2907.505
1290.582, 2878.745
1292.511, 2829.237
1294.439, 2782.682
1296.368, 2760.372
1298.296, 2750.136
1300.225, 2735.568
1302.153, 2713.910
1304.082, 2681.083
1306.010, 2632.195
1307.939, 2587.007
1309.867, 2545.582
1311.796, 2504.036
1313.724, 2465.070
1315.652, 2431.251
1317.581, 2397.204
1319.509, 2360.172
1321.438, 2325.648
1323.366, 2303.611
1325.295, 2284.446
1327.223, 2237.819
1329.152, 2152.949
1331.080, 2083.024
1333.009, 2053.914
1334.937, 2028.854
1336.866, 1982.157
1338.794, 1923.327
1340.723, 1878.338
1342.651, 1852.823
1344.579, 1830.478
1346.508, 1802.869
1348.436, 1770.112
1350.365, 1742.825
1352.293, 1723.050
1354.222, 1703.296
1356.150, 1682.578
1358.079, 1661.286
1360.007, 1636.883
1361.936, 1609.765
1363.864, 1582.345
1365.793, 1553.143
1367.721, 1534.190
1369.650, 1536.841
1371.578, 1536.071
1373.506, 1517.019
1375.435, 1486.351
1377.363, 1463.397
1379.292, 1451.136
1381.220, 1437.933
1383.149, 1420.166
1385.077, 1400.055
1387.006, 1380.472
1388.934, 1365.495
1390.863, 1349.259
1392.791, 1328.768
1394.720, 1313.822
1396.648, 1313.940
1398.577, 1313.824
1400.505, 1307.654
1402.433, 1294.802
1404.362, 1268.873
1406.290, 1220.198
1408.219, 1189.074
1410.147, 1196.249
1412.076, 1208.193
1414.004, 1209.781
1415.933, 1198.972
1417.861, 1181.156
1419.790, 1144.786
1421.718, 1124.755
1423.647, 1129.432
1425.575, 1138.850
1427.504, 1142.318
1429.432, 1143.211
1431.360, 1149.236
1433.289, 1163.246
1435.217, 1170.359
1437.146, 1171.030
1439.074, 1164.810
1441.003, 1140.462
1442.931, 1105.237
1444.860, 1087.800
1446.788, 1091.683
1448.717, 1101.285
1450.645, 1119.976
1452.574, 1136.044
1454.502, 1138.261
1456.431, 1131.020
1458.359, 1129.109
1460.287, 1135.039
1462.216, 1139.618
1464.144, 1132.559
1466.073, 1133.130
1468.001, 1157.646
1469.930, 1196.193
1471.858, 1220.466
1473.787, 1224.820
1475.715, 1233.278
1477.644, 1256.784
1479.572, 1276.332
1481.501, 1290.099
1483.429, 1291.009
1485.358, 1263.034
1487.286, 1183.476
1489.214, 1127.228
1491.143, 1109.837
1493.071, 1095.720
1495.000, 1069.071
1496.928, 1038.609
1498.857, 1020.562
1500.785, 1020.253
1502.714, 1011.302
1504.642, 985.9435
1506.571, 961.8331
1508.499, 939.6663
1510.428, 924.1968
1512.356, 927.5598
1514.285, 949.4191
1516.213, 952.6722
1518.141, 920.6270
1520.070, 897.1859
1521.998, 906.6409
1523.927, 922.9889
1525.855, 917.8481
1527.784, 897.7809
1529.712, 894.9903
1531.641, 920.7563
1533.569, 931.3072
1535.498, 898.0226
1537.426, 862.4327
1539.355, 853.4944
1541.283, 864.3594
1543.212, 878.1715
1545.140, 896.2937
1547.068, 906.8585
1548.997, 902.6525
1550.925, 897.0282
1552.854, 894.3448
1554.782, 894.0369
1556.711, 900.8026
1558.639, 917.0636
1560.568, 918.4225
1562.496, 887.3677
1564.425, 865.2943
1566.353, 869.6222
1568.282, 884.2257
1570.210, 894.8797
1572.139, 902.8576
1574.067, 908.7740
1575.995, 909.4844
1577.924, 912.2302
1579.852, 921.5730
1581.781, 930.4510
1583.709, 930.5447
1585.638, 925.1989
1587.566, 929.8071
1589.495, 952.3163
1591.423, 966.1311
1593.352, 963.9687
1595.280, 962.4130
1597.209, 968.8237
1599.137, 978.4465
1601.066, 984.5478
1602.994, 986.4478
1604.922, 991.7844
1606.851, 1002.669
1608.779, 1012.660
1610.708, 1023.237
1612.636, 1030.895
1614.565, 1029.263
1616.493, 1021.005
1618.422, 1021.446
1620.350, 1034.577
1622.279, 1047.833
1624.207, 1068.473
1626.136, 1080.459
1628.064, 1063.394
1629.993, 1039.465
1631.921, 1048.574
1633.849, 1095.839
1635.778, 1119.998
1637.706, 1102.520
1639.635, 1091.679
1641.563, 1106.263
1643.492, 1121.788
1645.420, 1115.247
1647.349, 1095.490
1649.277, 1093.103
1651.206, 1113.124
1653.134, 1125.486
1655.063, 1121.608
1656.991, 1116.899
1658.920, 1113.110
1660.848, 1113.450
1662.776, 1125.521
1664.705, 1147.393
1666.633, 1157.795
1668.562, 1152.298
1670.490, 1147.469
1672.419, 1145.614
1674.347, 1145.661
1676.276, 1156.143
1678.204, 1163.932
1680.133, 1137.494
1682.061, 1076.987
1683.990, 1048.437
1685.918, 1069.676
1687.847, 1092.914
1689.775, 1105.921
1691.703, 1117.438
1693.632, 1133.819
1695.560, 1153.162
1697.489, 1171.153
1699.417, 1187.914
1701.346, 1202.522
1703.274, 1217.185
1705.203, 1225.621
1707.131, 1221.271
1709.060, 1214.000
1710.988, 1207.528
1712.917, 1205.038
1714.845, 1219.385
1716.774, 1254.662
1718.702, 1281.045
1720.630, 1286.427
1722.559, 1295.005
1724.487, 1314.644
1726.416, 1341.438
1728.344, 1378.917
1730.273, 1421.452
1732.201, 1440.095
1734.130, 1425.399
1736.058, 1430.451
1737.987, 1484.601
1739.915, 1528.769
1741.844, 1539.782
1743.772, 1533.910
1745.701, 1523.450
1747.629, 1509.429
1749.557, 1495.042
1751.486, 1475.297
1753.414, 1473.768
1755.343, 1508.897
1757.271, 1541.304
1759.200, 1564.392
1761.128, 1573.733
1763.057, 1553.007
1764.985, 1512.300
1766.914, 1503.896
1768.842, 1540.027
1770.771, 1567.348
1772.699, 1580.190
1774.628, 1588.617
1776.556, 1593.633
1778.484, 1596.983
1780.413, 1600.950
1782.341, 1604.269
1784.270, 1601.883
1786.198, 1589.547
1788.127, 1584.488
1790.055, 1578.731
1791.984, 1591.667
1793.912, 1647.925
1795.841, 1704.299
1797.769, 1727.202
1799.698, 1728.018
1801.626, 1729.710
1803.555, 1727.942
1805.483, 1749.068
1807.411, 1824.177
1809.340, 1874.998
1811.268, 1872.248
1813.197, 1865.738
1815.125, 1886.278
1817.054, 1917.366
1818.982, 1935.020
1820.911, 1939.382
1822.839, 1932.963
1824.768, 1906.598
1826.696, 1892.971
1828.625, 1903.369
1830.553, 1917.976
1832.482, 1932.701
1834.410, 1946.013
1836.339, 1962.530
1838.267, 1977.190
1840.195, 1960.740
1842.124, 1907.815
1844.052, 1865.622
1845.981, 1846.199
1847.909, 1822.944
1849.838, 1781.641
1851.766, 1740.328
1853.695, 1707.218
1855.623, 1682.622
1857.552, 1670.189
1859.480, 1668.398
1861.409, 1662.929
1863.337, 1653.678
1865.266, 1636.050
1867.194, 1601.871
1869.122, 1571.070
1871.051, 1548.838
1872.979, 1538.023
1874.908, 1548.721
1876.836, 1572.054
1878.765, 1583.459
1880.693, 1582.405
1882.622, 1573.142
1884.550, 1547.506
1886.479, 1531.936
1888.407, 1540.057
1890.336, 1551.388
1892.264, 1555.571
1894.193, 1556.240
1896.121, 1559.095
1898.049, 1563.312
1899.978, 1561.143
1901.906, 1545.388
1903.835, 1541.388
1905.763, 1552.391
1907.692, 1570.176
1909.620, 1600.765
1911.549, 1629.056
1913.477, 1638.389
1915.406, 1643.171
1917.334, 1674.303
1919.263, 1730.365
1921.191, 1748.211
1923.120, 1709.388
1925.048, 1699.401
1926.976, 1749.808
1928.905, 1790.009
1930.833, 1796.284
1932.762, 1787.385
1934.690, 1761.338
1936.619, 1734.542
1938.547, 1742.845
1940.476, 1777.655
1942.404, 1782.071
1944.333, 1748.825
1946.261, 1720.251
1948.190, 1706.191
1950.118, 1691.622
1952.047, 1666.764
1953.975, 1644.408
1955.904, 1635.595
1957.832, 1632.567
1959.760, 1624.523
1961.689, 1611.770
1963.617, 1595.516
1965.546, 1570.321
1967.474, 1561.945
1969.403, 1593.954
1971.331, 1609.200
1973.260, 1584.250
1975.188, 1555.786
1977.117, 1540.699
1979.045, 1534.778
1980.974, 1536.515
1982.902, 1543.245
1984.831, 1542.005
1986.759, 1531.118
1988.688, 1523.901
1990.616, 1521.316
1992.544, 1521.565
1994.473, 1523.664
1996.401, 1529.757
1998.330, 1549.036
2000.258, 1564.503
2002.187, 1556.934
2004.115, 1538.778
2006.044, 1532.336
2007.972, 1536.755
2009.901, 1546.400
2011.829, 1563.634
2013.758, 1570.045
2015.686, 1555.460
2017.615, 1543.852
2019.543, 1545.566
2021.471, 1548.257
2023.400, 1546.447
2025.328, 1540.738
2027.257, 1529.031
2029.185, 1513.920
2031.114, 1504.338
2033.042, 1499.545
2034.971, 1504.660
2036.899, 1526.219
2038.828, 1541.550
2040.756, 1548.061
2042.685, 1548.424
2044.613, 1536.827
2046.542, 1527.272
2048.470, 1531.315
2050.398, 1540.183
2052.327, 1537.393
2054.255, 1530.331
2056.184, 1545.346
2058.112, 1582.938
2060.041, 1619.680
2061.969, 1659.345
2063.898, 1677.411
2065.826, 1639.963
2067.755, 1621.716
2069.683, 1675.419
2071.612, 1722.910
2073.540, 1697.035
2075.469, 1644.960
2077.397, 1626.964
2079.325, 1638.201
2081.254, 1665.427
2083.182, 1714.407
2085.111, 1726.168
2087.039, 1685.482
2088.968, 1657.905
2090.896, 1654.675
2092.825, 1661.581
2094.753, 1680.056
2096.682, 1699.011
2098.610, 1714.082
2100.539, 1724.435
2102.467, 1726.939
2104.396, 1724.893
2106.324, 1728.963
2108.252, 1738.332
2110.181, 1728.518
2112.109, 1686.121
2114.038, 1667.126
2115.966, 1680.933
2117.895, 1705.315
2119.823, 1747.180
2121.752, 1786.268
2123.680, 1810.188
2125.609, 1834.192
2127.537, 1872.864
2129.466, 1915.556
2131.394, 1941.358
2133.323, 1987.546
2135.251, 2031.957
2137.179, 2070.179
2139.108, 2126.469
2141.036, 2167.282
2142.965, 2207.776
2144.893, 2254.151
2146.822, 2293.047
2148.750, 2311.556
2150.679, 2334.953
2152.607, 2371.239
2154.536, 2420.138
2156.464, 2488.217
2158.393, 2564.377
2160.321, 2630.897
2162.250, 2690.814
2164.178, 2766.341
2166.106, 2807.263
2168.035, 2837.031
2169.963, 2879.451
2171.892, 2868.408
2173.820, 2874.321
2175.749, 2886.185
2177.677, 2914.564
2179.606, 2927.953
2181.534, 2896.689
2183.463, 2865.321
2185.391, 2867.628
2187.320, 2884.668
2189.248, 2897.583
2191.177, 2905.315
2193.105, 2902.438
2195.033, 2889.559
2196.962, 2883.009
2198.890, 2882.417
2200.819, 2893.887
2202.747, 2918.635
2204.676, 2954.203
2206.604, 3004.984
2208.533, 3055.939
2210.461, 3089.146
2212.390, 3138.786
2214.318, 3237.147
2216.247, 3340.874
2218.175, 3416.656
2220.104, 3474.373
2222.032, 3521.028
2223.960, 3562.400
2225.889, 3623.450
2227.817, 3701.865
2229.746, 3743.306
2231.674, 3745.156
2233.603, 3749.919
2235.531, 3762.887
2237.460, 3773.279
2239.388, 3781.749
2241.317, 3780.561
2243.245, 3764.194
2245.174, 3741.286
2247.102, 3708.900
2249.031, 3678.584
2250.959, 3663.756
2252.887, 3650.931
2254.816, 3618.316
2256.744, 3579.116
2258.673, 3571.193
2260.601, 3532.392
2262.530, 3497.883
2264.458, 3473.351
2266.387, 3415.421
2268.315, 3382.844
2270.244, 3332.053
2272.172, 3241.932
2274.101, 3174.004
2276.029, 3155.725
2277.958, 3133.599
2279.886, 3096.246
2281.814, 3049.878
2283.743, 2983.096
2285.671, 2923.851
2287.600, 2908.050
2289.528, 2894.928
2291.457, 2822.652
2293.385, 2733.778
2295.314, 2709.124
2297.242, 2729.589
2299.171, 2726.125
2301.099, 2699.049
2303.028, 2672.060
2304.956, 2640.854
2306.885, 2628.920
2308.813, 2651.221
2310.741, 2650.667
2312.670, 2605.084
2314.598, 2582.491
2316.527, 2613.165
2318.455, 2636.862
2320.384, 2625.752
2322.312, 2607.699
2324.241, 2597.031
2326.169, 2586.062
2328.098, 2566.407
2330.026, 2545.227
2331.955, 2533.901
2333.883, 2525.190
2335.812, 2504.411
2337.740, 2474.205
2339.668, 2438.273
2341.597, 2400.862
2343.525, 2402.243
2345.454, 2443.268
2347.382, 2449.087
2349.311, 2404.693
2351.239, 2373.206
2353.168, 2360.529
2355.096, 2362.365
2357.025, 2396.679
2358.953, 2415.852
2360.882, 2402.033
2362.810, 2386.535
2364.739, 2383.825
2366.667, 2375.384
2368.595, 2335.294
2370.524, 2303.883
2372.452, 2317.722
2374.381, 2349.928
2376.309, 2379.463
2378.238, 2402.098
2380.166, 2405.218
2382.095, 2397.582
2384.023, 2404.305
2385.952, 2422.995
2387.880, 2433.295
2389.809, 2437.595
2391.737, 2467.626
2393.666, 2525.912
2395.594, 2563.956
2397.522, 2570.590
2399.451, 2585.026
2401.379, 2627.694
2403.308, 2647.525
2405.236, 2623.766
2407.165, 2609.810
2409.093, 2610.819
2411.022, 2630.451
2412.950, 2685.475
2414.879, 2732.909
2416.807, 2743.774
2418.736, 2750.747
2420.664, 2768.957
2422.593, 2797.185
2424.521, 2845.696
2426.449, 2893.041
2428.378, 2901.807
2430.306, 2902.584
2432.235, 2948.321
2434.163, 3020.063
2436.092, 3083.037
2438.020, 3136.031
2439.949, 3177.084
2441.877, 3205.877
2443.806, 3217.109
2445.734, 3218.125
2447.663, 3195.873
2449.591, 3175.155
2451.520, 3134.637
2453.448, 3074.853
2455.376, 2979.213
2457.305, 2834.370
2459.233, 2714.733
2461.162, 2652.573
2463.090, 2566.833
2465.019, 2416.608
2466.947, 2283.417
2468.876, 2188.668
2470.804, 2106.321
2472.733, 2028.098
2474.661, 1963.487
2476.590, 1924.649
2478.518, 1887.001
2480.447, 1831.487
2482.375, 1777.859
2484.303, 1746.602
2486.232, 1715.935
2488.160, 1659.284
2490.089, 1600.667
2492.017, 1567.750
2493.946, 1548.844
2495.874, 1530.588
2497.803, 1513.207
2499.731, 1499.292
2501.660, 1485.245
2503.588, 1452.140
2505.517, 1412.956
2507.445, 1429.805
2509.374, 1490.985
2511.302, 1498.320
2513.230, 1457.879
2515.159, 1432.555
2517.087, 1422.830
2519.016, 1405.498
2520.944, 1399.600
2522.873, 1400.059
2524.801, 1393.637
2526.730, 1405.928
2528.658, 1404.440
2530.587, 1400.568
2532.515, 1396.352
2534.444, 1379.706
2536.372, 1341.461
2538.301, 1320.198
2540.229, 1336.365
2542.157, 1343.455
2544.086, 1329.361
2546.014, 1310.818
2547.943, 1280.785
2549.871, 1266.125
2551.800, 1285.799
2553.728, 1296.133
2555.657, 1271.588
2557.585, 1248.559
2559.514, 1248.389
2561.442, 1246.162
2563.371, 1220.835
2565.299, 1201.563
2567.228, 1207.201
2569.156, 1221.588
2571.084, 1255.538
2573.013, 1268.391
2574.941, 1201.536
2576.870, 1133.533
2578.798, 1136.205
2580.727, 1167.085
2582.655, 1196.355
2584.584, 1217.972
2586.512, 1220.945
2588.441, 1215.702
2590.369, 1216.042
2592.298, 1215.062
2594.226, 1195.375
2596.155, 1173.601
2598.083, 1185.534
2600.011, 1211.247
2601.940, 1212.257
2603.868, 1195.195
2605.797, 1168.812
2607.725, 1139.607
2609.654, 1123.932
2611.582, 1117.933
2613.511, 1111.217
2615.439, 1104.096
2617.368, 1093.954
2619.296, 1084.431
2621.225, 1104.721
2623.153, 1143.318
2625.082, 1145.309
2627.010, 1116.680
2628.938, 1103.004
2630.867, 1103.667
2632.795, 1109.827
2634.724, 1121.345
2636.652, 1129.079
2638.581, 1131.822
2640.509, 1108.738
2642.438, 1062.331
2644.366, 1044.849
2646.295, 1059.347
2648.223, 1070.177
2650.152, 1079.019
2652.080, 1061.566
2654.009, 1017.619
2655.937, 1001.814
2657.865, 1016.684
2659.794, 1023.572
2661.722, 1018.401
2663.651, 1018.325
2665.579, 1026.986
2667.508, 1020.518
2669.436, 996.7101
2671.365, 986.7197
2673.293, 992.9286
2675.222, 1001.110
2677.150, 1013.331
2679.079, 1004.035
2681.007, 961.3312
2682.936, 940.6530
2684.864, 944.3853
2686.792, 952.3481
2688.721, 964.2677
2690.649, 959.7143
2692.578, 929.4546
2694.506, 926.1373
2696.435, 969.4117
2698.363, 976.5800
2700.292, 940.7584
2702.220, 921.8128
2704.149, 924.8557
2706.077, 932.7875
2708.006, 946.9045
2709.934, 946.7786
2711.863, 957.9723
2713.791, 965.4660
2715.719, 961.8329
2717.648, 973.0474
2719.576, 950.9340
2721.505, 934.5955
2723.433, 928.6617
2725.362, 923.2047
2727.290, 916.8474
2729.219, 916.4144
2731.147, 922.4471
2733.076, 928.1003
2735.004, 933.0624
2736.933, 930.5615
2738.861, 916.7736
2740.790, 924.3176
2742.718, 963.4669
2744.646, 947.9482
2746.575, 958.4916
2748.503, 964.3160
2750.432, 938.3648
2752.360, 954.9325
2754.289, 915.2715
2756.217, 887.3667
2758.146, 871.1913
2760.074, 870.6685
2762.003, 884.3028
2763.931, 897.0590
2765.860, 908.5060
2767.788, 923.0800
2769.717, 939.3910
2771.645, 930.3858
2773.573, 900.3641
2775.502, 896.2705
2777.430, 912.7652
2779.359, 932.5334
2781.287, 949.7562
2783.216, 933.2249
2785.144, 895.1443
2787.073, 885.8730
2789.001, 899.8198
2790.930, 929.1994
2792.858, 960.0433
2794.787, 952.5424
2796.715, 924.0129
2798.644, 910.4518
2800.572, 909.0242
2802.500, 917.7416
2804.429, 931.5189
2806.357, 943.6223
2808.286, 953.3879
2810.214, 960.7618
2812.143, 964.4151
2814.071, 957.8053
2816.000, 951.0860
2817.928, 960.1509
2819.857, 971.0612
2821.785, 971.7469
2823.714, 966.4803
2825.642, 955.8431
2827.571, 945.0615
2829.499, 929.2442
2831.427, 927.6065
2833.356, 962.9893
2835.284, 1001.120
2837.213, 1033.774
2839.141, 1045.361
2841.070, 1006.757
2842.998, 977.8798
2844.927, 986.0085
2846.855, 997.4598
2848.784, 1006.847
2850.712, 1002.378
2852.641, 960.9409
2854.569, 941.5643
2856.498, 966.2253
2858.426, 980.8285
2860.354, 973.2623
2862.283, 956.4517
2864.211, 922.7565
2866.140, 901.9000
2868.068, 897.8757
2869.997, 893.7414
2871.925, 886.6727
2873.854, 899.1194
2875.782, 940.0040
2877.711, 953.7554
2879.639, 934.3189
2881.568, 926.1025
2883.496, 928.0774
2885.425, 926.8430
2887.353, 922.4556
2889.281, 921.6218
2891.210, 922.2912
2893.138, 905.4908
2895.067, 917.6336
2896.995, 896.8452
2898.924, 930.6131
2900.852, 944.7420
2902.781, 946.8873
2904.709, 951.8287
2906.638, 952.0403
2908.566, 926.1605
2910.495, 902.3124
2912.423, 916.2301
2914.352, 934.6901
2916.280, 925.4460
2918.208, 914.8811
2920.137, 923.6727
2922.065, 931.4226
2923.994, 924.8865
2925.922, 920.1623
2927.851, 929.9118
2929.779, 932.6476
2931.708, 924.7762
2933.636, 902.2506
2935.565, 849.8625
2937.493, 833.5197
2939.422, 888.9553
2941.350, 936.8849
2943.279, 979.2000
2945.207, 979.4415
2947.135, 933.8463
2949.064, 907.1149
2950.992, 904.4647
2952.921, 906.8008
2954.849, 913.6236
2956.778, 916.7437
2958.706, 916.0430
2960.635, 905.8255
2962.563, 894.0897
2964.492, 902.3322
2966.420, 921.1879
2968.349, 938.6804
2970.277, 951.1054
2972.206, 947.4282
2974.134, 945.9771
2976.063, 982.1511
2977.991, 1002.444
2979.919, 943.2830
2981.848, 899.3746
2983.776, 931.5029
2985.705, 955.6491
2987.633, 921.1784
2989.562, 909.2642
2991.490, 945.9338
2993.419, 964.9981
2995.347, 949.7626
2997.276, 944.9462
2999.204, 962.1296
3001.133, 972.2572
3003.061, 975.4368
3004.990, 963.3607
3006.918, 941.3168
3008.846, 961.1232
3010.775, 1007.041
3012.703, 1005.610
3014.632, 976.2043
3016.560, 958.5342
3018.489, 954.1945
3020.417, 981.0649
3022.346, 1004.751
3024.274, 975.4968
3026.203, 944.1260
3028.131, 946.2189
3030.060, 953.3212
3031.988, 948.7383
3033.917, 948.4817
3035.845, 962.4943
3037.773, 969.9904
3039.702, 965.2453
3041.630, 962.5722
3043.559, 965.7722
3045.487, 967.3031
3047.416, 966.5933
3049.344, 974.7872
3051.273, 971.2973
3053.201, 986.3665
3055.130, 970.5507
3057.058, 969.4986
3058.987, 973.0854
3060.915, 945.0065
3062.844, 920.6342
3064.772, 957.6029
3066.700, 1003.766
3068.629, 1021.161
3070.557, 1012.370
3072.486, 956.2539
3074.414, 920.8707
3076.343, 946.9488
3078.271, 979.1434
3080.200, 1014.503
3082.128, 1024.902
3084.057, 1047.296
3085.985, 1054.155
3087.914, 1054.514
3089.842, 1056.878
3091.771, 1021.244
3093.699, 1014.380
3095.627, 1027.415
3097.556, 1037.749
3099.484, 1040.867
3101.413, 1016.035
3103.341, 994.7562
3105.270, 1012.020
3107.198, 1037.411
3109.127, 1060.222
3111.055, 1067.347
3112.984, 1043.819
3114.912, 1032.143
3116.841, 1043.981
3118.769, 1069.429
3120.698, 1067.892
3122.626, 1084.055
3124.554, 1094.918
3126.483, 1096.719
3128.411, 1126.134
3130.340, 1120.405
3132.268, 1096.412
3134.197, 1092.946
3136.125, 1106.272
3138.054, 1147.207
3139.982, 1180.549
3141.911, 1164.341
3143.839, 1148.418
3145.768, 1156.316
3147.696, 1165.909
3149.625, 1173.843
3151.553, 1171.792
3153.481, 1155.596
3155.410, 1153.844
3157.338, 1168.603
3159.267, 1186.232
3161.195, 1204.449
3163.124, 1212.773
3165.052, 1212.248
3166.981, 1194.294
3168.909, 1182.388
3170.838, 1219.955
3172.766, 1256.640
3174.695, 1247.793
3176.623, 1242.414
3178.552, 1264.671
3180.480, 1290.110
3182.408, 1315.495
3184.337, 1339.876
3186.265, 1364.032
3188.194, 1362.089
3190.122, 1375.215
3192.051, 1373.348
3193.979, 1371.696
3195.908, 1364.467
3197.836, 1345.840
3199.765, 1342.558
3201.693, 1350.823
3203.622, 1371.305
3205.550, 1395.910
3207.479, 1431.959
3209.407, 1447.761
3211.335, 1424.030
3213.264, 1409.391
3215.192, 1407.145
3217.121, 1422.582
3219.049, 1426.380
3220.978, 1462.713
3222.906, 1460.932
3224.835, 1480.632
3226.763, 1507.010
3228.692, 1522.199
3230.620, 1534.594
3232.549, 1556.662
3234.477, 1564.690
3236.406, 1533.872
3238.334, 1525.899
3240.262, 1561.010
3242.191, 1587.324
3244.119, 1602.730
3246.048, 1621.115
3247.976, 1635.881
3249.905, 1591.135
3251.833, 1535.066
3253.762, 1563.373
3255.690, 1618.905
3257.619, 1667.622
3259.547, 1696.552
3261.476, 1694.388
3263.404, 1689.546
3265.333, 1689.305
3267.261, 1686.171
3269.189, 1677.579
3271.118, 1693.016
3273.046, 1729.621
3274.975, 1778.752
3276.903, 1823.121
3278.832, 1816.154
3280.760, 1799.097
3282.689, 1813.207
3284.617, 1825.351
3286.546, 1807.556
3288.474, 1804.087
3290.403, 1822.566
3292.331, 1860.667
3294.260, 1863.165
3296.188, 1872.665
3298.116, 1886.742
3300.045, 1868.497
3301.973, 1863.491
3303.902, 1855.346
3305.830, 1852.520
3307.759, 1875.593
3309.687, 1878.924
3311.616, 1814.033
3313.544, 1788.265
3315.473, 1821.864
3317.401, 1837.809
3319.330, 1832.421
3321.258, 1844.519
3323.187, 1864.896
3325.115, 1865.604
3327.043, 1853.431
3328.972, 1821.473
3330.900, 1803.848
3332.829, 1826.972
3334.757, 1861.670
3336.686, 1906.782
3338.614, 1942.375
3340.543, 1969.309
3342.471, 1948.327
3344.400, 1900.330
3346.328, 1905.350
3348.257, 1939.889
3350.185, 1980.089
3352.114, 2012.907
3354.042, 2028.168
3355.970, 2037.046
3357.899, 2029.897
3359.827, 2055.808
3361.756, 2078.673
3363.684, 2148.897
3365.613, 2149.420
3367.541, 2189.210
3369.470, 2232.890
3371.398, 2211.957
3373.327, 2182.413
3375.255, 2184.095
3377.184, 2199.305
3379.112, 2226.832
3381.041, 2249.683
3382.969, 2264.344
3384.897, 2276.805
3386.826, 2288.703
3388.754, 2307.361
3390.683, 2331.074
3392.611, 2371.524
3394.540, 2393.413
3396.468, 2359.835
3398.397, 2337.900
3400.325, 2358.337
3402.254, 2384.836
3404.182, 2415.573
3406.111, 2409.537
3408.039, 2438.708
3409.968, 2418.333
3411.896, 2466.753
3413.824, 2476.586
3415.753, 2478.223
3417.681, 2484.686
3419.610, 2495.797
3421.538, 2509.076
3423.467, 2555.023
3425.395, 2632.502
3427.324, 2652.152
3429.252, 2636.938
3431.181, 2626.647
3433.109, 2626.753
3435.038, 2622.516
3436.966, 2609.917
3438.895, 2620.285
3440.823, 2602.921
3442.751, 2586.744
3444.680, 2620.825
3446.608, 2553.900
3448.537, 2537.007
3450.465, 2534.224
3452.394, 2486.535
3454.322, 2445.520
3456.251, 2448.684
3458.179, 2441.282
3460.108, 2409.514
3462.036, 2399.124
3463.965, 2407.398
3465.893, 2390.828
3467.822, 2361.099
3469.750, 2342.420
3471.678, 2318.601
3473.607, 2306.969
3475.535, 2299.421
3477.464, 2280.039
3479.392, 2292.276
3481.321, 2261.295
3483.249, 2251.562
3485.178, 2254.793
3487.106, 2261.110
3489.035, 2255.463
3490.963, 2245.835
3492.892, 2244.953
3494.820, 2233.005
3496.749, 2229.140
3498.677, 2213.143
3500.605, 2195.088
3502.534, 2186.217
3504.462, 2226.136
3506.391, 2266.141
3508.319, 2251.735
3510.248, 2236.585
3512.176, 2242.102
3514.105, 2223.566
3516.033, 2177.775
3517.962, 2201.117
3519.890, 2185.053
3521.819, 2231.530
3523.747, 2210.219
3525.676, 2273.623
3527.604, 2327.115
3529.532, 2340.646
3531.461, 2307.913
3533.389, 2236.670
3535.318, 2239.553
3537.246, 2279.392
3539.175, 2287.085
3541.103, 2268.180
3543.032, 2196.583
3544.960, 2168.048
3546.889, 2218.733
3548.817, 2244.680
3550.746, 2241.726
3552.674, 2245.742
3554.603, 2248.052
3556.531, 2222.634
3558.459, 2205.957
3560.388, 2236.764
3562.316, 2244.066
3564.245, 2215.166
3566.173, 2206.894
3568.102, 2217.551
3570.030, 2224.281
3571.959, 2233.459
3573.887, 2260.994
3575.816, 2276.378
3577.744, 2262.400
3579.673, 2253.528
3581.601, 2254.850
3583.530, 2240.896
3585.458, 2221.729
3587.386, 2227.325
3589.315, 2236.693
3591.243, 2238.355
3593.172, 2225.114
3595.100, 2192.453
3597.029, 2167.431
3598.957, 2150.921
3600.886, 2134.447
3602.814, 2123.022
3604.743, 2134.772
3606.671, 2131.840
3608.600, 2093.270
3610.528, 2056.796
3612.457, 2027.615
3614.385, 2038.402
3616.313, 2010.689
3618.242, 2033.041
3620.170, 2000.323
3622.099, 2013.845
3624.027, 2032.612
3625.956, 2053.705
3627.884, 2025.769
3629.813, 1962.878
3631.741, 1963.537
3633.670, 1985.762
3635.598, 1989.681
3637.527, 1985.846
3639.455, 1977.395
3641.384, 1964.394
3643.312, 1947.236
3645.240, 1939.807
3647.169, 1937.699
3649.097, 1930.190
3651.026, 1932.661
3652.954, 1961.333
3654.883, 1965.487
3656.811, 1933.571
3658.740, 1891.130
3660.668, 1851.498
3662.597, 1847.955
3664.525, 1852.549
3666.454, 1846.476
3668.382, 1837.979
3670.311, 1822.343
3672.239, 1849.928
3674.167, 1901.303
3676.096, 1918.947
3678.024, 1915.195
3679.953, 1883.525
3681.881, 1874.426
3683.810, 1910.381
3685.738, 1926.986
3687.667, 1929.327
3689.595, 1956.409
3691.524, 1980.244
3693.452, 1964.684
3695.381, 1945.194
3697.309, 1927.385
3699.238, 1940.283
3701.166, 1907.726
3703.094, 1929.766
3705.023, 1870.503
3706.951, 1858.455
3708.880, 1857.377
3710.808, 1861.711
3712.737, 1836.512
3714.665, 1835.692
3716.594, 1794.417
3718.522, 1810.105
3720.451, 1775.993
3722.379, 1751.803
3724.308, 1761.342
3726.236, 1743.712
3728.165, 1700.356
3730.093, 1665.039
3732.021, 1638.727
3733.950, 1624.921
3735.878, 1618.906
3737.807, 1623.219
3739.735, 1595.190
3741.664, 1543.961
3743.592, 1535.121
3745.521, 1550.011
3747.449, 1590.028
3749.378, 1605.010
3751.306, 1578.481
3753.235, 1577.421
3755.163, 1597.700
3757.092, 1613.799
3759.020, 1617.251
3760.948, 1594.948
3762.877, 1566.039
3764.805, 1533.526
3766.734, 1510.289
3768.662, 1498.383
3770.591, 1510.409
3772.519, 1527.110
3774.448, 1542.722
3776.376, 1535.987
3778.305, 1551.167
3780.233, 1521.538
3782.162, 1559.977
3784.090, 1574.731
3786.019, 1570.891
3787.947, 1540.053
3789.875, 1512.440
3791.804, 1491.479
3793.732, 1487.975
3795.661, 1494.351
3797.589, 1505.274
3799.518, 1509.402
3801.446, 1494.792
3803.375, 1512.746
3805.303, 1479.793
3807.232, 1493.190
3809.160, 1424.194
3811.089, 1403.061
3813.017, 1383.113
3814.946, 1347.049
3816.874, 1381.336
3818.802, 1443.316
3820.731, 1424.409
3822.659, 1382.302
3824.588, 1348.744
3826.516, 1299.174
3828.445, 1234.331
3830.373, 1284.571
3832.302, 1361.357
3834.230, 1334.275
3836.159, 1298.688
3838.087, 1282.048
3840.016, 1298.790
3841.944, 1265.080
3843.873, 1288.036
3845.801, 1238.358
3847.729, 1238.258
3849.658, 1242.785
3851.586, 1244.551
3853.515, 1267.085
3855.443, 1296.037
3857.372, 1311.584
3859.300, 1313.057
3861.229, 1298.164
3863.157, 1284.406
3865.086, 1273.937
3867.014, 1274.883
3868.943, 1270.796
3870.871, 1237.404
3872.800, 1219.561
3874.728, 1224.004
3876.656, 1244.851
3878.585, 1269.024
3880.513, 1281.944
3882.442, 1278.260
3884.370, 1239.156
3886.299, 1227.559
3888.227, 1238.777
3890.156, 1252.091
3892.084, 1257.230
3894.013, 1251.760
3895.941, 1236.726
3897.870, 1231.649
3899.798, 1208.899
3901.727, 1206.605
3903.655, 1187.744
3905.583, 1172.855
3907.512, 1164.829
3909.440, 1158.620
3911.369, 1154.519
3913.297, 1159.371
3915.226, 1157.370
3917.154, 1165.427
3919.083, 1169.641
3921.011, 1173.692
3922.940, 1175.370
3924.868, 1158.419
3926.797, 1144.003
3928.725, 1131.790
3930.654, 1121.357
3932.582, 1131.207
3934.510, 1113.142
3936.439, 1123.881
3938.367, 1095.846
3940.296, 1096.667
3942.224, 1098.791
3944.153, 1100.984
3946.081, 1094.104
3948.010, 1082.886
3949.938, 1082.981
3951.867, 1101.226
3953.795, 1129.456
3955.724, 1135.429
3957.652, 1123.960
3959.581, 1089.130
3961.509, 1089.680
3963.438, 1133.970
3965.366, 1087.502
3967.294, 1025.891
3969.223, 1060.665
3971.151, 1087.297
3973.080, 1075.425
3975.008, 1092.555
3976.937, 1120.065
3978.865, 1123.908
3980.794, 1101.194
3982.722, 1118.573
3984.651, 1054.978
3986.579, 1112.936
3988.508, 1075.912
3990.436, 1051.883
3992.365, 1112.017
3994.293, 1123.719
3996.221, 1091.926
3998.150, 1071.195
4000.078, 1062.459
4002.007, 1070.090
4003.935, 1074.011
4005.864, 1070.823
4007.792, 1083.833
4009.721, 1096.084
4011.649, 1075.691
4013.578, 1062.765
4015.506, 1066.130
4017.435, 1083.675
4019.363, 1099.982
4021.292, 1086.266
4023.220, 1059.013
4025.148, 1031.751
4027.077, 1046.273
4029.005, 1075.252
4030.934, 1081.630
4032.862, 1074.562
4034.791, 1073.121
4036.719, 1068.652
4038.648, 1055.879
4040.576, 1083.186
4042.505, 1089.106
4044.433, 1062.286
4046.362, 1050.348
4048.290, 1033.780
4050.219, 1034.519
4052.147, 1057.697
4054.075, 1076.698
4056.004, 1081.690
4057.932, 1086.485
4059.861, 1036.085
4061.789, 988.7128
4063.718, 1045.960
4065.646, 1062.177
4067.575, 1023.863
4069.503, 1001.614
4071.432, 988.7100
4073.360, 987.6132
4075.289, 998.7804
4077.217, 1018.693
4079.146, 1018.794
4081.074, 993.8126
4083.002, 964.5707
4084.931, 955.4115
4086.859, 968.5140
4088.788, 978.9727
4090.716, 977.0106
4092.645, 984.0125
4094.573, 976.9621
4096.502, 949.3065
4098.430, 974.8856
4100.359, 945.5992
4102.287, 965.4793
4104.216, 925.2909
4106.144, 950.5050
4108.073, 971.7535
4110.001, 969.3046
4111.930, 948.4402
4113.858, 944.8045
4115.787, 952.7469
4117.715, 962.5218
4119.644, 955.2910
4121.572, 937.2942
4123.500, 923.5446
4125.429, 915.8056
4127.357, 926.3679
4129.286, 919.8875
4131.214, 903.7029
4133.143, 916.2213
4135.071, 911.3438
4137.000, 912.1405
4138.928, 902.0508
4140.856, 901.6541
4142.785, 884.8524
4144.713, 898.3724
4146.642, 917.1811
4148.570, 921.8234
4150.499, 898.3791
4152.427, 869.0755
4154.356, 868.6608
4156.284, 882.4919
4158.213, 905.0764
4160.141, 911.5112
4162.070, 884.7477
4163.998, 845.5627
4165.927, 838.2646
4167.855, 853.6700
4169.784, 837.6503
4171.712, 821.0894
4173.641, 847.9019
4175.569, 836.6246
4177.498, 843.5206
4179.426, 852.8584
4181.354, 850.9474
4183.283, 857.0930
4185.211, 856.5359
4187.140, 841.5777
4189.068, 834.8620
4190.997, 854.6929
4192.925, 887.9805
4194.854, 902.1416
4196.782, 902.0674
4198.710, 913.0215
4200.639, 901.2064
4202.567, 885.1233
4204.496, 877.6757
4206.424, 808.1384
4208.353, 801.1032
4210.281, 821.6448
4212.210, 852.6679
4214.138, 845.6282
4216.067, 816.5646
4217.995, 863.1390
4219.924, 896.1176
4221.852, 861.7897
4223.781, 835.0662
4225.709, 828.1495
4227.638, 807.0177
4229.566, 875.1056
4231.495, 805.6869
4233.423, 821.7331
4235.352, 865.6857
4237.280, 812.1923
4239.208, 776.0988
4241.137, 790.1356
4243.065, 814.7734
4244.994, 825.8531
4246.922, 856.1888
4248.851, 873.6182
4250.779, 887.8080
4252.708, 887.1567
4254.636, 841.4670
4256.564, 782.3624
4258.493, 762.3121
4260.421, 782.1196
4262.350, 829.3025
4264.278, 874.7228
4266.207, 910.5869
4268.135, 878.5345
4270.064, 811.1792
4271.992, 805.5646
4273.921, 806.9710
4275.849, 796.5967
4277.778, 776.6783
4279.706, 763.8096
4281.635, 795.6277
4283.563, 810.8629
4285.492, 795.5457
4287.420, 823.1474
4289.349, 838.7491
4291.277, 835.2731
4293.206, 769.1320
4295.134, 833.5874
4297.063, 801.3664
4298.991, 783.4663
4300.919, 856.1736
4302.848, 828.8273
4304.776, 748.6800
4306.705, 737.8187
4308.633, 757.6986
4310.562, 798.9275
4312.490, 823.6006
4314.418, 831.8227
4316.347, 810.8914
4318.275, 830.1548
4320.204, 812.8243
4322.132, 843.6852
4324.061, 798.5560
4325.989, 814.6068
4327.918, 829.4473
4329.846, 835.8232
4331.775, 825.5377
4333.703, 816.8676
4335.632, 815.3068
4337.560, 829.3141
4339.489, 855.1967
4341.417, 839.9747
4343.346, 894.9173
4345.274, 833.6435
4347.203, 847.5478
4349.131, 872.7763
4351.060, 874.3228
4352.988, 856.6235
4354.917, 844.6624
4356.845, 847.1732
4358.773, 827.8602
4360.702, 852.2141
4362.630, 824.7662
4364.559, 832.3708
4366.487, 881.5024
4368.416, 882.2307
4370.344, 846.8953
4372.272, 858.1932
4374.201, 860.2913
4376.129, 819.3583
4378.058, 811.4683
4379.986, 814.0621
4381.915, 785.7597
4383.843, 785.0631
4385.772, 813.0063
4387.700, 787.0590
4389.629, 769.1461
4391.557, 803.9135
4393.486, 808.6488
4395.414, 794.2313
4397.343, 784.8059
4399.271, 777.2469
4401.200, 771.1912
4403.128, 771.0963
4405.057, 786.9009
4406.985, 830.1604
4408.914, 858.6479
4410.842, 867.5870
4412.771, 845.0976
4414.699, 830.2983
4416.627, 832.2348
4418.556, 840.2655
4420.484, 841.1525
4422.413, 814.1630
4424.341, 815.5889
4426.270, 837.5070
4428.198, 868.5617
4430.126, 845.4105
4432.055, 863.8964
4433.983, 790.4793
4435.912, 864.2443
4437.840, 833.6736
4439.769, 832.5278
4441.697, 851.0948
4443.626, 826.8161
4445.554, 805.9819
4447.483, 801.8014
4449.411, 830.4911
4451.340, 849.3928
4453.268, 818.9948
4455.197, 811.2843
4457.125, 822.8686
4459.054, 827.3068
4460.982, 843.8522
4462.911, 847.5851
4464.839, 847.6287
4466.768, 857.6231
4468.696, 844.9469
4470.625, 845.3148
4472.553, 850.2743
4474.481, 841.1508
4476.410, 829.7851
4478.338, 819.5617
4480.267, 821.6888
4482.195, 835.3626
4484.124, 862.9175
4486.052, 874.6991
4487.980, 867.6401
4489.909, 883.7651
4491.837, 830.6725
4493.766, 890.8798
4495.694, 867.2659
4497.623, 864.6514
4499.551, 935.0062
4501.480, 941.9087
4503.408, 917.6299
4505.337, 881.7094
4507.265, 895.8627
4509.194, 935.3184
4511.122, 917.1462
4513.051, 890.3882
4514.979, 868.8201
4516.908, 865.5565
4518.836, 869.3936
4520.765, 873.5293
4522.693, 887.3641
4524.622, 895.9139
4526.550, 865.6001
4528.479, 861.8163
4530.407, 887.5464
4532.335, 868.9391
4534.264, 931.7241
4536.192, 876.3793
4538.121, 904.3037
4540.049, 929.4490
4541.978, 875.7464
4543.906, 868.8707
4545.834, 881.5201
4547.763, 823.6226
4549.691, 822.1583
4551.620, 878.7929
4553.548, 888.8995
4555.477, 888.1569
4557.405, 892.1320
4559.334, 899.5272
4561.262, 918.2667
4563.191, 962.8763
4565.119, 978.0094
4567.048, 976.2311
4568.976, 990.3638
4570.905, 999.3373
4572.833, 1001.573
4574.762, 1001.614
4576.690, 1019.320
4578.619, 1067.697
4580.547, 1037.444
4582.476, 1018.157
4584.404, 1107.814
4586.333, 1112.751
4588.261, 1072.250
4590.189, 1060.241
4592.118, 1073.544
4594.046, 1100.704
4595.975, 1097.111
4597.903, 1123.245
4599.832, 1196.827
4601.760, 1214.403
4603.688, 1200.705
4605.617, 1165.720
4607.545, 1154.606
4609.474, 1142.042
4611.402, 1124.909
4613.331, 1119.775
4615.259, 1112.000
4617.188, 1116.509
4619.116, 1128.535
4621.045, 1148.726
4622.973, 1140.748
4624.902, 1108.255
4626.830, 1118.930
4628.759, 1075.611
4630.687, 1113.060
4632.616, 1111.182
4634.544, 1119.213
4636.473, 1114.958
4638.401, 1107.193
4640.330, 1101.409
4642.258, 1084.280
4644.187, 1080.341
4646.115, 1067.555
4648.043, 1060.487
4649.972, 1122.729
4651.900, 1146.950
4653.829, 1103.435
4655.757, 1078.231
4657.686, 1074.587
4659.614, 1101.418
4661.542, 1113.443
4663.471, 1117.656
4665.399, 1126.276
4667.328, 1077.135
4669.256, 1025.963
4671.185, 1104.532
4673.113, 1111.176
4675.042, 1053.978
4676.970, 1060.543
4678.899, 1048.668
4680.827, 1007.380
4682.756, 1050.895
4684.684, 1065.780
4686.613, 1017.355
4688.541, 1026.644
4690.470, 1056.637
4692.398, 1083.141
4694.327, 1107.503
4696.255, 1108.977
4698.184, 1058.404
4700.112, 1056.554
4702.041, 1068.622
4703.969, 1012.891
4705.897, 1025.110
4707.826, 1077.050
4709.754, 1056.774
4711.683, 1045.436
4713.611, 1057.860
4715.540, 1119.777
4717.468, 1102.263
4719.396, 1121.650
4721.325, 1137.801
4723.253, 1104.138
4725.182, 1136.873
4727.110, 1088.534
4729.039, 1048.856
4730.967, 1067.886
4732.896, 1114.417
4734.824, 1157.412
4736.753, 1175.145
4738.681, 1171.140
4740.610, 1147.911
4742.538, 1149.467
4744.467, 1144.606
4746.395, 1127.638
4748.324, 1141.402
4750.252, 1137.742
4752.181, 1127.977
4754.109, 1140.773
4756.038, 1146.823
4757.966, 1148.686
4759.895, 1152.672
4761.823, 1189.962
4763.751, 1161.782
4765.680, 1153.265
4767.608, 1176.929
4769.537, 1225.655
4771.465, 1106.706
4773.394, 1034.250
4775.322, 1075.553
4777.250, 1077.686
4779.179, 1076.141
4781.107, 1095.655
4783.036, 1102.579
4784.964, 1082.001
4786.893, 1099.396
4788.821, 1061.965
4790.750, 1110.560
4792.678, 1080.967
4794.607, 1088.971
4796.535, 1087.380
4798.464, 1023.029
4800.392, 1027.460
4802.321, 1048.751
4804.249, 1006.042
4806.178, 997.3990
4808.106, 1012.733
4810.035, 1037.373
4811.963, 1023.595
4813.892, 988.5008
4815.820, 951.4624
4817.749, 976.8999
4819.677, 1016.327
4821.605, 944.3348
4823.534, 944.1393
4825.462, 988.9298
4827.391, 958.3242
4829.319, 958.3946
4831.248, 983.0872
4833.176, 971.8222
4835.104, 951.2821
4837.033, 933.8361
4838.961, 943.7393
4840.890, 952.1254
4842.818, 953.7578
4844.747, 947.8707
4846.675, 954.3921
4848.604, 967.7944
4850.532, 952.0001
4852.461, 933.9369
4854.389, 918.5967
4856.318, 887.3561
4858.246, 897.8393
4860.175, 940.1089
4862.103, 919.3711
4864.032, 886.1846
4865.960, 866.3370
4867.889, 941.9206
4869.817, 965.7798
4871.746, 927.3775
4873.674, 943.5490
4875.603, 929.2011
4877.531, 881.9459
4879.459, 927.6746
4881.388, 949.5915
4883.316, 931.9866
4885.245, 925.3977
4887.173, 941.8986
4889.102, 970.1967
4891.030, 920.9310
4892.958, 920.7659
4894.887, 968.0439
4896.815, 956.3098
4898.744, 888.4537
4900.672, 795.7907
4902.601, 810.9043
4904.529, 828.7234
4906.458, 838.4801
4908.386, 903.9197
4910.315, 926.9453
4912.243, 904.5455
4914.172, 893.6136
4916.100, 895.2040
4918.029, 896.1091
4919.957, 890.4928
4921.886, 843.8441
4923.814, 886.1134
4925.743, 852.2463
4927.671, 849.2073
4929.600, 874.6187
4931.528, 894.9948
4933.457, 857.8054
4935.385, 816.4546
4937.313, 913.5532
4939.242, 901.1038
4941.170, 820.3879
4943.099, 769.6862
4945.027, 795.3209
4946.956, 837.2954
4948.884, 789.4102
4950.813, 822.5758
4952.741, 861.0132
4954.669, 802.6769
4956.598, 785.5220
4958.526, 802.1349
4960.455, 840.2952
4962.383, 845.2077
4964.312, 842.1441
4966.240, 854.1850
4968.169, 826.2003
4970.097, 776.8677
4972.026, 722.1540
4973.954, 817.1243
4975.883, 903.5743
4977.811, 895.6698
4979.740, 838.7543
4981.668, 832.4001
4983.597, 890.3989
4985.525, 827.1982
4987.454, 813.9935
4989.382, 883.5876
4991.311, 880.9211
4993.239, 852.0897
4995.167, 823.6788
4997.096, 850.4615
4999.024, 864.2941
5000.953, 867.0330
5002.881, 904.7322
5004.810, 891.1091
5006.738, 853.8420
5008.667, 858.1856
5010.595, 876.0892
5012.523, 869.2028
5014.452, 863.1097
5016.380, 856.7681
5018.309, 831.1172
5020.237, 828.8528
5022.166, 804.3519
5024.094, 790.7482
5026.023, 805.4288
5027.951, 776.8647
5029.880, 783.4456
5031.808, 785.4055
5033.737, 815.2552
5035.665, 791.8105
5037.594, 806.8715
5039.522, 805.7837
5041.451, 819.2991
5043.379, 835.3029
5045.308, 785.9901
5047.236, 782.0347
5049.165, 810.5031
5051.093, 825.5190
5053.021, 822.6318
5054.950, 817.6542
5056.878, 841.3940
5058.807, 842.5878
5060.735, 854.0522
5062.664, 847.4913
5064.592, 855.0129
5066.521, 816.6076
5068.449, 767.2523
5070.377, 816.5686
5072.306, 829.9208
5074.234, 787.1926
5076.163, 797.9876
5078.091, 798.2900
5080.020, 789.0657
5081.948, 805.6424
5083.877, 809.1049
5085.805, 800.1461
5087.734, 818.2650
5089.662, 804.6346
5091.591, 834.8484
5093.519, 818.9133
5095.448, 813.3051
5097.376, 820.2128
5099.305, 838.0291
5101.233, 856.9118
5103.162, 855.8313
5105.090, 838.3359
5107.019, 837.9974
5108.947, 856.3898
5110.875, 865.2906
5112.804, 795.6481
5114.732, 789.7588
5116.661, 817.6575
5118.589, 843.4828
5120.518, 816.6723
5122.446, 793.1345
5124.375, 803.8785
5126.303, 825.2429
5128.231, 831.6399
5130.160, 820.5535
5132.088, 818.2214
5134.017, 832.1019
5135.945, 848.8811
5137.874, 838.1193
5139.802, 843.5112
5141.731, 850.3341
5143.659, 834.8003
5145.588, 836.6731
5147.516, 850.2147
5149.445, 871.3356
5151.373, 907.8634
5153.302, 898.4868
5155.230, 858.4347
5157.159, 915.3235
5159.087, 888.0947
5161.016, 826.4619
5162.944, 854.1041
5164.873, 924.1415
5166.801, 964.1193
5168.729, 925.9056
5170.658, 915.7181
5172.586, 904.6484
5174.515, 885.0602
5176.443, 921.8352
5178.372, 915.7790
5180.300, 888.3914
5182.229, 941.8013
5184.157, 899.3217
5186.085, 837.4030
5188.014, 848.9124
5189.942, 897.3719
5191.871, 950.9595
5193.799, 991.1962
5195.728, 976.0148
5197.656, 936.8929
5199.585, 914.4783
5201.513, 995.8109
5203.442, 1041.535
5205.370, 1044.772
5207.299, 1001.266
5209.227, 1020.639
5211.156, 1026.676
5213.084, 993.1791
5215.013, 1011.498
5216.941, 1023.252
5218.870, 1027.129
5220.798, 1063.847
5222.727, 1029.560
5224.655, 980.4844
5226.583, 975.0060
5228.512, 991.5995
5230.440, 1011.430
5232.369, 1029.316
5234.297, 1029.095
5236.226, 1064.986
5238.154, 1029.613
5240.083, 1015.244
5242.011, 1025.881
5243.939, 1035.545
5245.868, 1027.704
5247.796, 1049.292
5249.725, 1040.336
5251.653, 1012.686
5253.582, 1075.471
5255.510, 1092.833
5257.439, 1082.428
5259.367, 1085.245
5261.296, 1096.851
5263.224, 1086.361
5265.153, 1100.781
5267.081, 1107.040
5269.010, 1130.995
5270.938, 1118.123
5272.867, 1155.224
5274.795, 1171.751
5276.724, 1186.754
5278.652, 1222.896
5280.581, 1240.224
5282.509, 1261.202
5284.438, 1242.829
5286.366, 1255.794
5288.294, 1232.894
5290.223, 1207.563
5292.151, 1197.504
5294.080, 1288.208
5296.008, 1356.861
5297.937, 1369.060
5299.865, 1352.775
5301.793, 1414.162
5303.722, 1480.668
5305.650, 1445.690
5307.579, 1546.719
5309.507, 1647.971
5311.436, 1692.045
5313.364, 1722.782
5315.293, 1776.460
5317.221, 1816.825
5319.150, 1787.344
5321.078, 1882.418
5323.007, 1978.536
5324.935, 2007.656
5326.864, 1966.689
5328.792, 1948.996
5330.721, 1948.881
5332.649, 1931.706
5334.578, 1941.036
5336.506, 1906.943
5338.435, 1834.422
5340.363, 1954.515
5342.292, 1972.649
5344.220, 1946.492
5346.148, 2056.760
5348.077, 2060.218
5350.005, 2074.718
5351.934, 2144.905
5353.862, 2215.469
5355.791, 2177.504
5357.719, 2141.452
5359.647, 2265.939
5361.576, 2288.491
5363.504, 2259.769
5365.433, 2225.389
5367.361, 2262.425
5369.290, 2275.106
5371.218, 2269.159
5373.147, 2265.555
5375.075, 2225.608
5377.004, 2210.822
5378.932, 2216.264
5380.861, 2152.191
5382.789, 2096.774
5384.718, 2105.413
5386.646, 2118.446
5388.575, 2214.840
5390.503, 2232.525
5392.432, 2297.305
5394.360, 2393.219
5396.289, 2391.215
5398.217, 2386.022
5400.146, 2435.405
5402.074, 2472.311
5404.002, 2515.263
5405.931, 2564.435
5407.859, 2612.534
5409.788, 2688.531
5411.716, 2754.201
5413.645, 2788.180
5415.573, 2758.051
5417.501, 2821.686
5419.430, 2885.063
5421.358, 2853.695
5423.287, 2913.856
5425.215, 2875.831
5427.144, 2898.651
5429.072, 2884.635
5431.001, 2908.936
5432.929, 2891.537
5434.858, 2863.645
5436.786, 2840.783
5438.715, 2844.394
5440.643, 2865.454
5442.572, 2891.409
5444.500, 2908.417
5446.429, 2971.712
5448.357, 2974.559
5450.286, 3026.776
5452.214, 3100.531
5454.143, 3092.899
5456.071, 3144.854
5458.000, 3165.547
5459.928, 3202.719
5461.856, 3266.186
5463.785, 3240.414
5465.713, 3288.286
5467.642, 3197.600
5469.570, 3136.813
5471.499, 3099.447
5473.427, 3079.408
5475.355, 3015.247
5477.284, 2911.987
5479.212, 2943.146
5481.141, 2883.637
5483.069, 2811.442
5484.998, 2815.177
5486.926, 2773.933
5488.855, 2720.348
5490.783, 2683.929
5492.712, 2703.159
5494.640, 2671.260
5496.569, 2616.659
5498.497, 2572.942
5500.426, 2600.096
5502.354, 2540.625
5504.283, 2502.398
5506.211, 2538.033
5508.140, 2502.714
5510.068, 2456.805
5511.997, 2426.778
5513.925, 2391.765
5515.854, 2357.419
5517.782, 2327.139
5519.710, 2326.038
5521.639, 2291.869
5523.567, 2281.591
5525.496, 2273.194
5527.424, 2253.240
5529.353, 2211.019
5531.281, 2166.090
5533.209, 2190.382
5535.138, 2179.662
5537.066, 2186.515
5538.995, 2236.776
5540.923, 2225.106
5542.852, 2294.964
5544.780, 2338.313
5546.709, 2283.848
5548.637, 2246.556
5550.566, 2339.669
5552.494, 2371.742
5554.423, 2409.823
5556.351, 2435.902
5558.280, 2390.576
5560.208, 2363.280
5562.137, 2413.470
5564.065, 2373.042
5565.994, 2378.366
5567.922, 2357.998
5569.851, 2363.829
5571.779, 2356.931
5573.708, 2311.240
5575.636, 2348.093
5577.564, 2351.677
5579.493, 2275.731
5581.421, 2193.500
5583.350, 2187.803
5585.278, 2158.828
5587.207, 2067.672
5589.135, 2160.268
5591.063, 2064.366
5592.992, 1966.546
5594.920, 2032.337
5596.849, 2023.378
5598.777, 1999.772
5600.706, 1974.501
5602.634, 1950.053
5604.563, 1936.567
5606.491, 1974.298
5608.420, 1964.168
5610.348, 1926.843
5612.277, 1850.403
5614.205, 1832.893
5616.134, 1757.395
5618.062, 1710.141
5619.991, 1697.009
5621.919, 1668.014
5623.848, 1637.928
5625.776, 1639.197
5627.705, 1586.112
5629.633, 1549.678
5631.562, 1551.722
5633.490, 1591.039
5635.418, 1460.668
5637.347, 1433.703
5639.275, 1483.553
5641.204, 1441.322
5643.132, 1372.015
5645.061, 1356.807
5646.989, 1388.355
5648.917, 1420.209
5650.846, 1433.906
5652.774, 1432.312
5654.703, 1408.026
5656.631, 1405.465
5658.560, 1358.356
5660.488, 1366.564
5662.417, 1354.474
5664.345, 1321.345
5666.274, 1321.823
5668.202, 1324.710
5670.131, 1321.924
5672.059, 1320.739
5673.988, 1260.909
5675.916, 1214.820
5677.845, 1201.785
5679.773, 1219.271
5681.702, 1135.573
5683.630, 1140.388
5685.559, 1170.641
5687.487, 1119.408
5689.416, 1111.333
5691.344, 1109.026
5693.272, 1082.946
5695.201, 1100.324
5697.129, 1099.649
5699.058, 1122.722
5700.986, 1114.825
5702.915, 1116.563
5704.843, 1136.870
5706.771, 1121.726
5708.700, 1119.698
5710.628, 1162.857
5712.557, 1232.451
5714.485, 1227.469
5716.414, 1206.061
5718.342, 1200.158
5720.271, 1174.154
5722.199, 1127.296
5724.128, 1111.886
5726.056, 1131.257
5727.985, 1141.704
5729.913, 1045.458
5731.842, 1025.219
5733.770, 1068.775
5735.699, 1020.817
5737.627, 1030.036
5739.556, 1023.937
5741.484, 1007.821
5743.413, 998.3148
5745.341, 972.5739
5747.270, 947.0355
5749.198, 932.3377
5751.126, 933.1985
5753.055, 938.1580
5754.983, 925.5361
5756.912, 915.6315
5758.840, 928.5241
5760.769, 986.4485
5762.697, 951.8004
5764.625, 965.2089
5766.554, 1022.443
5768.482, 894.5354
5770.411, 914.4833
5772.339, 916.4702
5774.268, 894.9019
5776.196, 968.3829
5778.125, 924.3394
5780.053, 930.3856
5781.982, 953.2355
5783.910, 916.4904
5785.839, 895.6622
5787.767, 974.4537
5789.696, 1006.751
5791.624, 927.3462
5793.553, 902.5306
5795.481, 950.1973
5797.410, 952.6724
5799.338, 907.3094
5801.267, 911.9872
5803.195, 927.9500
5805.124, 935.8320
5807.052, 943.0717
5808.980, 960.2853
5810.909, 947.1156
5812.837, 922.4179
5814.766, 941.3318
5816.694, 1006.494
5818.623, 940.7283
5820.551, 951.9894
5822.479, 941.1492
5824.408, 905.2975
5826.336, 953.3057
5828.265, 968.4611
5830.193, 909.7734
5832.122, 869.3608
5834.050, 938.8915
5835.979, 960.2266
5837.907, 981.1391
5839.836, 1023.533
5841.764, 1066.162
5843.693, 1031.673
5845.621, 991.7075
5847.550, 1003.232
5849.478, 1020.945
5851.407, 974.1342
5853.335, 969.3439
5855.264, 1028.239
5857.192, 1068.018
5859.121, 1045.124
5861.049, 1013.828
5862.978, 1077.287
5864.906, 1100.714
5866.834, 1074.324
5868.763, 1083.307
5870.691, 1043.504
5872.620, 1039.787
5874.548, 1079.969
5876.477, 1135.813
5878.405, 1115.204
5880.333, 1136.863
5882.262, 1142.836
5884.190, 1118.728
5886.119, 1089.086
5888.047, 1082.080
5889.976, 1130.217
5891.904, 1164.709
5893.833, 1135.745
5895.761, 1168.789
5897.690, 1113.029
5899.618, 1151.109
5901.547, 1133.190
5903.475, 1063.884
5905.404, 1127.531
5907.332, 1164.352
5909.261, 1152.655
5911.189, 1123.943
5913.118, 1147.953
5915.046, 1148.087
5916.975, 1110.551
5918.903, 1082.556
5920.832, 1110.934
5922.760, 1176.983
5924.688, 1192.911
5926.617, 1175.191
5928.545, 1160.979
5930.474, 1207.681
5932.402, 1174.957
5934.331, 1209.196
5936.259, 1230.872
5938.188, 1185.824
5940.116, 1222.532
5942.044, 1225.144
5943.973, 1265.449
5945.901, 1333.033
5947.830, 1380.567
5949.758, 1458.109
5951.687, 1333.197
5953.615, 1279.583
5955.544, 1371.959
5957.472, 1460.155
5959.401, 1431.322
5961.329, 1409.184
5963.258, 1377.572
5965.186, 1352.488
5967.115, 1471.365
5969.043, 1540.298
5970.972, 1522.886
5972.900, 1479.095
5974.829, 1460.193
5976.757, 1409.189
5978.686, 1451.454
5980.614, 1563.695
5982.542, 1639.346
5984.471, 1584.959
5986.399, 1514.784
5988.328, 1491.436
5990.256, 1538.149
5992.185, 1555.108
5994.113, 1391.182
5996.042, 1515.198
5997.970, 1497.314
5999.898, 1480.256
6001.827, 1538.175
6003.755, 1509.094
6005.684, 1490.716
6007.612, 1509.681
6009.541, 1553.991
6011.469, 1604.679
6013.398, 1644.933
6015.326, 1648.401
6017.255, 1676.893
6019.183, 1711.883
6021.112, 1730.449
6023.040, 1771.076
6024.969, 1742.215
6026.897, 1765.062
6028.826, 1812.085
6030.754, 1833.752
6032.683, 1919.790
6034.611, 1851.325
6036.540, 1858.494
6038.468, 1883.259
6040.396, 1820.358
6042.325, 1885.465
6044.253, 1924.038
6046.182, 1919.139
6048.110, 1912.552
6050.039, 1929.141
6051.967, 1924.326
6053.896, 1855.646
6055.824, 1903.176
6057.752, 1888.169
6059.681, 1816.086
6061.609, 1953.853
6063.538, 1959.865
6065.466, 1931.482
6067.395, 1892.166
6069.323, 1855.572
6071.252, 1885.203
6073.180, 2000.129
6075.109, 1970.634
6077.037, 1997.967
6078.966, 2069.928
6080.894, 2025.512
6082.823, 2106.630
6084.751, 2133.018
6086.680, 2150.167
6088.608, 2211.275
6090.537, 2214.251
6092.465, 2260.830
6094.394, 2305.569
6096.322, 2388.852
6098.250, 2495.549
6100.179, 2503.796
6102.107, 2554.993
6104.036, 2532.265
6105.964, 2555.073
6107.893, 2655.856
6109.821, 2731.600
6111.750, 2743.838
6113.678, 2722.099
6115.606, 2730.364
6117.535, 2734.298
6119.463, 2749.004
6121.392, 2759.190
6123.320, 2798.855
6125.249, 2837.549
6127.177, 2868.026
6129.106, 2914.710
6131.034, 2844.055
6132.963, 2873.667
6134.891, 2795.821
6136.820, 2870.267
6138.748, 2813.897
6140.677, 2846.299
6142.605, 2948.445
6144.534, 2907.004
6146.462, 2899.267
6148.391, 2969.852
6150.319, 2973.909
6152.248, 2934.943
6154.176, 3001.686
6156.104, 3078.272
6158.033, 3144.365
6159.961, 3223.561
6161.890, 3256.756
6163.818, 3275.650
6165.747, 3358.361
6167.675, 3466.331
6169.604, 3569.010
6171.532, 3704.458
6173.460, 3819.364
6175.389, 3970.955
6177.317, 4058.184
6179.246, 4226.260
6181.174, 4317.424
6183.103, 4535.665
6185.031, 4704.644
6186.960, 4771.915
6188.888, 4836.835
6190.817, 4942.458
6192.745, 4957.842
6194.674, 5018.260
6196.602, 5040.778
6198.531, 4983.169
6200.459, 4897.014
6202.388, 4856.389
6204.316, 4764.814
6206.245, 4741.107
6208.173, 4650.999
6210.102, 4459.807
6212.030, 4242.565
6213.958, 4156.880
6215.887, 4060.575
6217.815, 3958.881
6219.744, 3867.695
6221.672, 3774.271
6223.601, 3668.978
6225.529, 3598.233
6227.458, 3537.720
6229.386, 3449.089
6231.314, 3442.655
6233.243, 3309.043
6235.171, 3247.622
6237.100, 3202.640
6239.028, 3195.761
6240.957, 3256.621
6242.885, 3311.009
6244.814, 3296.674
6246.742, 3226.640
6248.671, 3362.619
6250.599, 3366.327
6252.528, 3425.945
6254.456, 3530.408
6256.385, 3589.846
6258.313, 3664.180
6260.242, 3786.891
6262.170, 3808.015
6264.099, 3883.810
6266.027, 4030.685
6267.956, 4126.768
6269.884, 4056.650
6271.813, 4098.859
6273.741, 4166.884
6275.669, 4205.225
6277.598, 4212.742
6279.526, 4195.634
6281.455, 4093.766
6283.383, 4021.629
6285.312, 4016.299
6287.240, 3974.317
6289.168, 3908.551
6291.097, 3929.931
6293.025, 4012.039
6294.954, 3983.132
6296.882, 4050.517
6298.811, 4062.980
6300.739, 4022.701
6302.668, 4106.566
6304.596, 4101.858
6306.525, 4127.268
6308.453, 4147.451
6310.382, 4149.831
6312.310, 4170.206
6314.239, 4255.808
6316.167, 4370.580
6318.096, 4528.007
6320.024, 4603.502
6321.953, 4695.981
6323.881, 4817.774
6325.810, 4904.693
6327.738, 5037.657
6329.667, 5271.361
6331.595, 5479.376
6333.523, 5621.625
6335.452, 5748.041
6337.380, 5917.138
6339.309, 6113.122
6341.237, 6362.946
6343.166, 6517.127
6345.094, 6690.686
6347.022, 6769.037
6348.951, 6873.501
6350.879, 6958.754
6352.808, 6978.454
6354.736, 7017.532
6356.665, 7005.671
6358.593, 6873.326
6360.522, 6683.323
6362.450, 6591.936
6364.379, 6535.909
6366.307, 6544.732
6368.236, 6482.961
6370.164, 6413.674
6372.093, 6336.837
6374.021, 6200.136
6375.950, 6196.143
6377.878, 6103.803
6379.807, 5953.402
6381.735, 5985.596
6383.664, 5971.396
6385.592, 5909.377
6387.521, 5902.994
6389.449, 5820.733
6391.377, 5841.517
6393.306, 5784.716
6395.234, 5785.891
6397.163, 5833.456
6399.091, 5807.275
6401.020, 5829.188
6402.948, 5799.751
6404.876, 5876.799
6406.805, 5854.717
6408.733, 5765.425
6410.662, 5749.831
6412.590, 5843.772
6414.519, 5849.377
6416.447, 5799.500
6418.376, 5755.645
6420.304, 5769.983
6422.233, 5752.908
6424.161, 5717.113
6426.090, 5668.654
6428.018, 5651.877
6429.947, 5611.896
6431.875, 5586.272
6433.804, 5617.993
6435.732, 5639.871
6437.661, 5561.638
6439.589, 5526.077
6441.518, 5470.835
6443.446, 5342.858
6445.375, 5372.556
6447.303, 5350.458
6449.231, 5190.498
6451.160, 5154.307
6453.088, 5145.392
6455.017, 4966.414
6456.945, 4976.812
6458.874, 4949.206
6460.802, 4861.028
6462.730, 4779.414
6464.659, 4657.063
6466.587, 4622.941
6468.516, 4578.924
6470.444, 4455.369
6472.373, 4402.127
6474.301, 4361.032
6476.230, 4286.026
6478.158, 4282.638
6480.087, 4276.596
6482.015, 4208.438
6483.944, 4132.471
6485.872, 4090.657
6487.801, 4069.703
6489.729, 4020.255
6491.658, 3988.974
6493.586, 3949.139
6495.515, 3908.799
6497.443, 3868.239
6499.372, 3811.031
6501.300, 3773.282
6503.229, 3782.123
6505.157, 3834.679
6507.085, 3777.803
6509.014, 3751.216
6510.942, 3885.286
6512.871, 3894.776
6514.799, 3851.078
6516.728, 3837.782
6518.656, 3831.569
6520.584, 3828.946
6522.513, 3825.756
6524.441, 3825.138
6526.370, 3841.732
6528.298, 3833.421
6530.227, 3871.060
6532.155, 3893.384
6534.084, 3777.987
6536.012, 3890.292
6537.941, 3802.927
6539.869, 3886.724
6541.798, 3936.745
6543.726, 3889.719
6545.655, 3850.080
6547.583, 3876.409
6549.512, 3864.042
6551.440, 3934.349
6553.369, 3933.255
6555.297, 3999.700
6557.226, 3965.456
6559.154, 3982.562
6561.083, 4042.770
6563.011, 3930.479
6564.939, 4031.418
6566.868, 4018.341
6568.796, 4103.483
6570.725, 4130.971
6572.653, 4077.315
6574.582, 4103.585
6576.510, 4116.587
6578.438, 4159.313
6580.367, 4206.439
6582.295, 4270.294
6584.224, 4408.330
6586.152, 4422.524
6588.081, 4453.520
6590.009, 4453.782
6591.938, 4402.236
6593.866, 4493.848
6595.795, 4611.562
6597.723, 4514.813
6599.652, 4587.974
6601.580, 4535.421
6603.509, 4457.208
6605.437, 4443.119
6607.366, 4435.529
6609.294, 4378.507
6611.223, 4376.555
6613.151, 4300.249
6615.080, 4203.299
6617.008, 4118.023
6618.937, 4052.876
6620.865, 4039.268
6622.793, 3922.976
6624.722, 3882.816
6626.650, 3814.406
6628.579, 3721.784
6630.507, 3672.258
##END=



