##NAMES=Fluoborite
##RRUFFID=R061042
##IDEAL CHEMISTRY=Mg_3_(BO_3_)F_3_
##LOCALITY=Kinmount, Ontario, Canada
##OWNER=RRUFF
##SOURCE=Royal Ontario Museum
##DESCRIPTION=Off white massive bleb, fluorescent under short wave ultraviolet light, embedded in white calcite
##STATUS=The identification of this mineral is confirmed by single-crystal X-ray diffraction and chemical analysis
##URL=https://www.rruff.net/odr/rruff_sample/R061042
##MEASURED CHEMISTRY=(Mg_0.99_Fe_0.01_)(BO_3_)(F_1.96_(OH)_1.04_) ; B assumed by stoichiometry  OH estimated by difference and stoichiometry
##DIFFRACTION SAMPLE DESCRIPTION=Single crystal, powder profile is calculated
##CELL PARAMETERS=a: 8.84 b: 8.84 c: 3.0985 alpha: 90 beta: 90 gamma: 120 volume: 209.7 crystal system: hexagonal
##FILETYPE=Raman RAW
##RAMAN WAVELENGTH=785

106.9033, 82.22261
108.8318, 89.08255
110.7603, 100.7832
112.6887, 118.3446
114.6172, 142.1031
116.5457, 172.8120
118.4741, 213.9411
120.4026, 264.1564
122.3311, 329.0916
124.2595, 421.5244
126.1880, 518.5045
128.1165, 608.1907
130.0449, 691.2819
131.9734, 763.4893
133.9019, 822.3269
135.8303, 907.3130
137.7588, 1042.368
139.6873, 1186.353
141.6157, 1335.175
143.5442, 1478.692
145.4727, 1604.068
147.4011, 1714.718
149.3296, 1817.053
151.2581, 1906.710
153.1865, 1996.236
155.1150, 2090.429
157.0435, 2186.656
158.9719, 2281.893
160.9004, 2376.710
162.8289, 2474.488
164.7573, 2576.659
166.6858, 2674.766
168.6143, 2759.768
170.5427, 2850.711
172.4712, 2968.914
174.3997, 3075.267
176.3281, 3138.627
178.2566, 3170.209
180.1851, 3197.385
182.1135, 3215.064
184.0420, 3248.260
185.9705, 3308.737
187.8989, 3365.249
189.8274, 3405.754
191.7559, 3436.574
193.6843, 3461.329
195.6128, 3483.441
197.5413, 3513.328
199.4697, 3548.869
201.3982, 3584.294
203.3267, 3623.080
205.2551, 3658.792
207.1836, 3681.606
209.1121, 3706.650
211.0405, 3741.520
212.9690, 3787.561
214.8975, 3862.901
216.8259, 3973.822
218.7544, 4091.338
220.6829, 4197.191
222.6113, 4316.338
224.5398, 4456.623
226.4683, 4627.977
228.3967, 4854.583
230.3252, 5112.292
232.2537, 5338.474
234.1821, 5534.702
236.1106, 5671.328
238.0391, 5722.347
239.9675, 5716.427
241.8960, 5645.060
243.8245, 5536.697
245.7529, 5408.328
247.6814, 5268.662
249.6099, 5122.368
251.5383, 4973.894
253.4668, 4835.413
255.3953, 4704.022
257.3237, 4595.688
259.2522, 4518.112
261.1807, 4453.771
263.1091, 4394.129
265.0376, 4336.651
266.9661, 4279.829
268.8945, 4223.248
270.8230, 4181.953
272.7515, 4175.346
274.6799, 4163.605
276.6084, 4124.278
278.5369, 4085.569
280.4653, 4075.365
282.3938, 4077.490
284.3223, 4066.414
286.2507, 4040.925
288.1792, 4012.640
290.1077, 3978.692
292.0361, 3953.529
293.9646, 3941.080
295.8931, 3934.460
297.8215, 3935.004
299.7500, 3935.013
301.6785, 3929.677
303.6069, 3918.657
305.5354, 3900.223
307.4639, 3878.413
309.3923, 3867.139
311.3208, 3867.413
313.2493, 3868.373
315.1777, 3861.627
317.1062, 3855.072
319.0347, 3859.151
320.9631, 3868.582
322.8916, 3869.179
324.8201, 3859.247
326.7485, 3851.061
328.6770, 3846.673
330.6055, 3846.430
332.5340, 3854.366
334.4624, 3861.659
336.3909, 3864.099
338.3194, 3863.976
340.2478, 3863.051
342.1763, 3864.282
344.1048, 3869.457
346.0332, 3873.629
347.9617, 3873.300
349.8902, 3865.673
351.8186, 3862.971
353.7471, 3883.502
355.6756, 3896.875
357.6040, 3886.968
359.5325, 3866.693
361.4610, 3841.590
363.3894, 3825.213
365.3179, 3826.095
367.2464, 3837.605
369.1748, 3835.930
371.1033, 3815.841
373.0318, 3803.145
374.9602, 3795.987
376.8887, 3795.158
378.8172, 3808.036
380.7456, 3820.412
382.6741, 3821.968
384.6026, 3816.459
386.5310, 3808.719
388.4595, 3801.289
390.3880, 3800.352
392.3164, 3806.268
394.2449, 3802.825
396.1734, 3786.119
398.1018, 3771.624
400.0303, 3766.222
401.9588, 3759.719
403.8872, 3745.431
405.8157, 3730.987
407.7442, 3721.280
409.6726, 3718.770
411.6011, 3727.226
413.5296, 3742.865
415.4580, 3749.905
417.3865, 3746.445
419.3150, 3739.800
421.2434, 3727.000
423.1719, 3719.212
425.1004, 3719.169
427.0288, 3724.057
428.9573, 3734.622
430.8858, 3746.881
432.8142, 3758.699
434.7427, 3768.227
436.6712, 3768.517
438.5996, 3759.087
440.5281, 3755.200
442.4566, 3763.264
444.3850, 3765.656
446.3135, 3761.095
448.2420, 3751.335
450.1704, 3739.148
452.0989, 3719.297
454.0274, 3672.591
455.9558, 3628.189
457.8843, 3627.946
459.8128, 3659.561
461.7412, 3669.190
463.6697, 3652.299
465.5982, 3637.636
467.5266, 3626.828
469.4551, 3615.614
471.3836, 3600.425
473.3120, 3589.984
475.2405, 3591.385
477.1690, 3594.627
479.0974, 3597.896
481.0259, 3593.861
482.9544, 3574.032
484.8828, 3547.407
486.8113, 3525.458
488.7398, 3506.773
490.6682, 3501.740
492.5967, 3512.230
494.5252, 3518.427
496.4536, 3518.432
498.3821, 3508.947
500.3106, 3474.579
502.2390, 3451.902
504.1675, 3465.385
506.0960, 3485.941
508.0244, 3488.013
509.9529, 3477.594
511.8814, 3461.163
513.8098, 3442.417
515.7383, 3444.388
517.6667, 3466.987
519.5952, 3480.974
521.5237, 3481.573
523.4521, 3476.055
525.3806, 3463.757
527.3091, 3453.798
529.2375, 3438.299
531.1660, 3424.718
533.0945, 3429.040
535.0229, 3435.200
536.9514, 3430.426
538.8799, 3424.054
540.8083, 3411.849
542.7368, 3394.486
544.6653, 3389.165
546.5938, 3397.753
548.5222, 3403.028
550.4507, 3403.558
552.3792, 3400.792
554.3076, 3396.060
556.2361, 3385.528
558.1646, 3363.163
560.0930, 3346.074
562.0215, 3345.168
563.9500, 3347.894
565.8784, 3342.724
567.8069, 3332.365
569.7354, 3325.861
571.6638, 3326.426
573.5923, 3332.166
575.5208, 3334.614
577.4493, 3321.053
579.3777, 3296.456
581.3062, 3284.969
583.2347, 3288.186
585.1631, 3279.689
587.0916, 3247.402
589.0201, 3230.681
590.9485, 3253.799
592.8770, 3272.771
594.8055, 3273.568
596.7339, 3268.890
598.6624, 3255.026
600.5909, 3236.947
602.5193, 3223.397
604.4478, 3213.503
606.3763, 3212.698
608.3047, 3223.167
610.2332, 3225.677
612.1617, 3219.076
614.0901, 3216.662
616.0186, 3219.627
617.9471, 3223.958
619.8755, 3231.437
621.8040, 3233.251
623.7325, 3230.103
625.6609, 3227.989
627.5894, 3219.147
629.5179, 3207.325
631.4464, 3192.705
633.3748, 3186.044
635.3033, 3194.357
637.2318, 3199.324
639.1602, 3201.210
641.0887, 3206.951
643.0172, 3206.100
644.9456, 3198.715
646.8741, 3188.953
648.8026, 3172.153
650.7310, 3149.102
652.6595, 3126.052
654.5880, 3108.905
656.5164, 3100.638
658.4449, 3109.267
660.3734, 3124.373
662.3018, 3126.223
664.2303, 3124.777
666.1588, 3123.194
668.0872, 3108.614
670.0157, 3090.375
671.9442, 3083.615
673.8726, 3084.526
675.8011, 3083.972
677.7296, 3078.832
679.6580, 3079.969
681.5865, 3097.631
683.5150, 3115.787
685.4434, 3109.346
687.3719, 3075.624
689.3004, 3047.973
691.2288, 3059.229
693.1573, 3084.038
695.0858, 3079.036
697.0142, 3054.311
698.9427, 3044.260
700.8712, 3048.739
702.7996, 3052.362
704.7281, 3060.531
706.6566, 3069.410
708.5850, 3054.775
710.5135, 3028.533
712.4420, 3026.100
714.3704, 3036.041
716.2989, 3031.760
718.2274, 3015.328
720.1558, 3008.082
722.0843, 3019.167
724.0128, 3030.838
725.9412, 3027.181
727.8697, 3015.606
729.7982, 3002.572
731.7266, 2986.674
733.6551, 2980.176
735.5836, 2984.237
737.5120, 2974.306
739.4405, 2950.277
741.3690, 2945.069
743.2974, 2958.380
745.2259, 2949.747
747.1544, 2914.425
749.0828, 2893.692
751.0113, 2898.782
752.9398, 2902.040
754.8682, 2893.076
756.7967, 2885.349
758.7252, 2884.752
760.6536, 2882.157
762.5821, 2873.944
764.5106, 2869.582
766.4390, 2862.464
768.3675, 2844.391
770.2960, 2836.100
772.2244, 2845.038
774.1529, 2850.322
776.0814, 2839.334
778.0098, 2821.630
779.9383, 2814.990
781.8668, 2820.221
783.7952, 2827.310
785.7237, 2839.845
787.6522, 2851.751
789.5806, 2838.269
791.5091, 2810.255
793.4376, 2800.350
795.3660, 2805.310
797.2945, 2804.408
799.2230, 2795.311
801.1514, 2790.722
803.0799, 2794.153
805.0084, 2797.034
806.9368, 2795.399
808.8653, 2789.385
810.7938, 2781.704
812.7222, 2774.823
814.6507, 2769.882
816.5792, 2759.766
818.5076, 2732.533
820.4361, 2719.231
822.3646, 2747.887
824.2930, 2772.886
826.2215, 2759.602
828.1500, 2740.979
830.0784, 2743.722
832.0069, 2744.683
833.9354, 2724.160
835.8638, 2709.993
837.7923, 2721.473
839.7208, 2730.988
841.6492, 2718.294
843.5777, 2708.625
845.5062, 2720.542
847.4346, 2727.162
849.3631, 2718.777
851.2916, 2710.876
853.2200, 2700.209
855.1485, 2689.219
857.0770, 2693.420
859.0054, 2704.231
860.9339, 2699.256
862.8624, 2681.995
864.7908, 2669.413
866.7193, 2665.172
868.6478, 2668.694
870.5762, 2672.021
872.5047, 2662.964
874.4332, 2648.563
876.3616, 2641.530
878.2901, 2636.393
880.2186, 2628.029
882.1470, 2623.974
884.0755, 2629.122
886.0040, 2633.770
887.9324, 2623.372
889.8609, 2607.762
891.7894, 2605.633
893.7178, 2607.835
895.6463, 2593.206
897.5748, 2572.101
899.5032, 2578.614
901.4317, 2603.412
903.3602, 2603.406
905.2886, 2583.960
907.2171, 2584.502
909.1456, 2602.648
911.0740, 2604.043
913.0025, 2589.496
914.9310, 2590.658
916.8594, 2609.405
918.7879, 2628.323
920.7164, 2644.586
922.6448, 2658.651
924.5733, 2672.577
926.5018, 2687.533
928.4302, 2700.644
930.3587, 2724.707
932.2872, 2760.089
934.2156, 2813.880
936.1441, 2886.935
938.0726, 2974.112
940.0010, 3071.049
941.9295, 3198.742
943.8580, 3365.553
945.7864, 3536.712
947.7149, 3715.577
949.6434, 3893.685
951.5718, 4094.259
953.5003, 4195.553
955.4288, 4188.819
957.3572, 4116.634
959.2857, 3971.438
961.2142, 3791.457
963.1426, 3564.506
965.0711, 3351.153
966.9996, 3144.105
968.9280, 2969.736
970.8565, 2832.133
972.7850, 2726.511
974.7134, 2654.129
976.6419, 2598.945
978.5704, 2564.212
980.4988, 2538.718
982.4273, 2520.721
984.3558, 2504.365
986.2842, 2490.109
988.2127, 2472.249
990.1412, 2449.334
992.0696, 2436.180
993.9981, 2434.411
995.9266, 2424.176
997.8550, 2403.143
999.7835, 2397.703
1001.712, 2410.095
1003.640, 2409.524
1005.569, 2393.764
1007.497, 2375.112
1009.426, 2359.580
1011.354, 2368.871
1013.283, 2391.554
1015.211, 2388.362
1017.140, 2369.123
1019.068, 2370.303
1020.997, 2388.463
1022.925, 2388.702
1024.854, 2369.374
1026.782, 2355.631
1028.710, 2353.406
1030.639, 2363.001
1032.567, 2377.297
1034.496, 2377.341
1036.424, 2364.674
1038.353, 2359.183
1040.281, 2363.654
1042.210, 2367.384
1044.138, 2368.050
1046.067, 2361.474
1047.995, 2347.070
1049.924, 2335.167
1051.852, 2329.749
1053.781, 2322.847
1055.709, 2317.281
1057.637, 2325.919
1059.566, 2340.117
1061.494, 2350.534
1063.423, 2352.434
1065.351, 2336.881
1067.280, 2316.508
1069.208, 2307.245
1071.137, 2306.070
1073.065, 2303.966
1074.994, 2300.747
1076.922, 2299.977
1078.851, 2301.607
1080.779, 2302.550
1082.708, 2299.526
1084.636, 2296.314
1086.565, 2297.118
1088.493, 2302.485
1090.422, 2303.820
1092.350, 2294.630
1094.278, 2286.718
1096.207, 2283.286
1098.135, 2277.202
1100.064, 2270.228
1101.992, 2264.759
1103.921, 2264.045
1105.849, 2268.097
1107.778, 2269.040
1109.706, 2260.165
1111.635, 2249.202
1113.563, 2240.263
1115.492, 2233.080
1117.420, 2228.408
1119.349, 2215.635
1121.277, 2220.698
1123.205, 2247.983
1125.134, 2245.659
1127.062, 2222.640
1128.991, 2214.113
1130.919, 2211.691
1132.848, 2207.996
1134.776, 2208.129
1136.705, 2212.821
1138.633, 2215.406
1140.562, 2213.414
1142.490, 2210.547
1144.419, 2205.271
1146.347, 2197.327
1148.276, 2186.199
1150.204, 2177.887
1152.132, 2178.405
1154.061, 2176.912
1155.989, 2175.258
1157.918, 2181.594
1159.846, 2192.375
1161.775, 2194.135
1163.703, 2181.659
1165.632, 2173.030
1167.560, 2169.983
1169.489, 2167.568
1171.417, 2172.609
1173.346, 2179.316
1175.274, 2185.018
1177.203, 2178.998
1179.131, 2157.375
1181.059, 2152.166
1182.988, 2161.761
1184.916, 2162.112
1186.845, 2165.743
1188.773, 2163.780
1190.702, 2143.322
1192.630, 2137.537
1194.559, 2149.833
1196.487, 2142.936
1198.416, 2127.732
1200.344, 2133.235
1202.273, 2142.322
1204.201, 2137.792
1206.130, 2131.253
1208.058, 2135.715
1209.986, 2139.178
1211.915, 2130.750
1213.843, 2120.446
1215.772, 2110.504
1217.700, 2109.868
1219.629, 2122.933
1221.557, 2123.016
1223.486, 2099.063
1225.414, 2090.982
1227.343, 2110.917
1229.271, 2117.218
1231.200, 2104.414
1233.128, 2099.390
1235.057, 2102.158
1236.985, 2100.857
1238.913, 2096.412
1240.842, 2095.402
1242.770, 2094.840
1244.699, 2086.679
1246.627, 2080.289
1248.556, 2082.562
1250.484, 2082.652
1252.413, 2078.190
1254.341, 2075.365
1256.270, 2076.459
1258.198, 2074.477
1260.127, 2057.499
1262.055, 2053.476
1263.984, 2082.958
1265.912, 2083.488
1267.840, 2039.768
1269.769, 2022.337
1271.697, 2035.350
1273.626, 2049.917
1275.554, 2060.790
1277.483, 2063.174
1279.411, 2057.111
1281.340, 2032.386
1283.268, 2014.171
1285.197, 2033.563
1287.125, 2054.273
1289.054, 2052.015
1290.982, 2044.454
1292.911, 2036.742
1294.839, 2031.840
1296.767, 2032.899
1298.696, 2035.863
1300.624, 2041.858
1302.553, 2037.339
1304.481, 2021.503
1306.410, 2013.253
1308.338, 2013.767
1310.267, 2037.732
1312.195, 2062.278
1314.124, 2026.220
1316.052, 1985.901
1317.981, 2011.887
1319.909, 2036.184
1321.838, 2005.247
1323.766, 1978.589
1325.694, 1984.359
1327.623, 1991.582
1329.551, 1994.504
1331.480, 1996.208
1333.408, 1996.085
1335.337, 2001.685
1337.265, 2010.154
1339.194, 1997.921
1341.122, 1974.470
1343.051, 1960.596
1344.979, 1955.032
1346.908, 1964.153
1348.836, 1969.907
1350.765, 1952.554
1352.693, 1939.948
1354.621, 1945.398
1356.550, 1956.002
1358.478, 1970.605
1360.407, 1967.731
1362.335, 1944.820
1364.264, 1935.619
1366.192, 1936.565
1368.121, 1919.830
1370.049, 1899.517
1371.978, 1914.124
1373.906, 1930.902
1375.835, 1906.118
1377.763, 1881.875
1379.692, 1881.189
1381.620, 1886.598
1383.548, 1895.121
1385.477, 1906.345
1387.405, 1920.495
1389.334, 1902.013
1391.262, 1858.747
1393.191, 1864.400
1395.119, 1895.073
1397.048, 1897.995
1398.976, 1888.165
1400.905, 1879.817
1402.833, 1870.940
1404.762, 1855.597
1406.690, 1849.100
1408.619, 1858.522
1410.547, 1863.631
1412.475, 1862.272
1414.404, 1853.259
1416.332, 1841.519
1418.261, 1860.764
1420.189, 1886.796
1422.118, 1867.422
1424.046, 1839.636
1425.975, 1832.727
1427.903, 1840.566
1429.832, 1880.893
1431.760, 1891.105
1433.689, 1847.594
1435.617, 1832.517
1437.546, 1848.340
1439.474, 1850.481
1441.402, 1842.862
1443.331, 1842.700
1445.259, 1840.684
1447.188, 1819.784
1449.116, 1801.727
1451.045, 1801.593
1452.973, 1805.155
1454.902, 1804.486
1456.830, 1819.806
1458.759, 1857.706
1460.687, 1852.890
1462.616, 1817.900
1464.544, 1809.921
1466.473, 1811.554
1468.401, 1798.638
1470.329, 1785.028
1472.258, 1779.212
1474.186, 1774.978
1476.115, 1768.855
1478.043, 1770.827
1479.972, 1783.158
1481.900, 1781.500
1483.829, 1770.943
1485.757, 1774.663
1487.686, 1779.541
1489.614, 1765.969
1491.543, 1749.527
1493.471, 1734.401
1495.400, 1729.956
1497.328, 1741.536
1499.256, 1746.193
1501.185, 1742.190
1503.113, 1736.059
1505.042, 1730.165
1506.970, 1732.912
1508.899, 1736.360
1510.827, 1725.500
1512.756, 1728.873
1514.684, 1767.415
1516.613, 1767.242
1518.541, 1713.187
1520.470, 1691.609
1522.398, 1700.124
1524.327, 1713.746
1526.255, 1726.479
1528.183, 1729.512
1530.112, 1727.212
1532.040, 1719.040
1533.969, 1715.433
1535.897, 1719.620
1537.826, 1713.018
1539.754, 1696.493
1541.683, 1689.942
1543.611, 1688.478
1545.540, 1680.001
1547.468, 1675.349
1549.397, 1688.980
1551.325, 1697.566
1553.254, 1696.125
1555.182, 1682.630
1557.110, 1660.172
1559.039, 1664.274
1560.967, 1679.926
1562.896, 1673.154
1564.824, 1661.473
1566.753, 1655.863
1568.681, 1658.648
1570.610, 1675.936
1572.538, 1677.996
1574.467, 1664.748
1576.395, 1660.398
1578.324, 1663.699
1580.252, 1676.308
1582.181, 1683.609
1584.109, 1669.405
1586.037, 1654.643
1587.966, 1643.740
1589.894, 1639.371
1591.823, 1641.158
1593.751, 1644.819
1595.680, 1647.486
1597.608, 1642.389
1599.537, 1637.490
1601.465, 1640.962
1603.394, 1640.272
1605.322, 1630.639
1607.251, 1621.409
1609.179, 1612.946
1611.108, 1606.440
1613.036, 1604.800
1614.964, 1621.609
1616.893, 1623.631
1618.821, 1581.760
1620.750, 1561.707
1622.678, 1578.706
1624.607, 1571.231
1626.535, 1549.867
1628.464, 1552.382
1630.392, 1554.661
1632.321, 1526.893
1634.249, 1522.844
1636.178, 1569.110
1638.106, 1589.779
1640.035, 1581.381
1641.963, 1560.903
1643.891, 1540.974
1645.820, 1552.899
1647.748, 1553.980
1649.677, 1517.840
1651.605, 1501.110
1653.534, 1514.724
1655.462, 1490.140
1657.391, 1447.783
1659.319, 1449.846
1661.248, 1462.057
1663.176, 1460.432
1665.105, 1450.098
1667.033, 1430.370
1668.962, 1437.514
1670.890, 1461.808
1672.818, 1441.947
1674.747, 1411.695
1676.675, 1413.026
1678.604, 1412.202
1680.532, 1396.188
1682.461, 1402.222
1684.389, 1426.061
1686.318, 1405.986
1688.246, 1374.278
1690.175, 1377.907
1692.103, 1392.167
1694.032, 1410.904
1695.960, 1419.763
1697.889, 1417.427
1699.817, 1401.559
1701.745, 1380.961
1703.674, 1368.202
1705.602, 1359.848
1707.531, 1351.747
1709.459, 1357.947
1711.388, 1377.800
1713.316, 1358.427
1715.245, 1324.678
1717.173, 1325.365
1719.102, 1332.246
1721.030, 1332.669
1722.959, 1321.896
1724.887, 1299.615
1726.816, 1285.182
1728.744, 1282.897
1730.672, 1314.315
1732.601, 1331.787
1734.529, 1290.446
1736.458, 1268.440
1738.386, 1273.384
1740.315, 1291.224
1742.243, 1307.512
1744.172, 1293.478
1746.100, 1274.428
1748.029, 1258.053
1749.957, 1258.180
1751.886, 1274.517
1753.814, 1267.872
1755.743, 1254.042
1757.671, 1254.618
1759.599, 1262.902
1761.528, 1284.458
1763.456, 1267.580
1765.385, 1219.209
1767.313, 1233.369
1769.242, 1253.390
1771.170, 1200.902
1773.099, 1174.211
1775.027, 1210.122
1776.956, 1222.174
1778.884, 1212.598
1780.813, 1205.430
1782.741, 1199.802
1784.670, 1192.622
1786.598, 1196.803
1788.526, 1215.428
1790.455, 1215.803
1792.383, 1204.827
1794.312, 1199.606
1796.240, 1190.024
1798.169, 1167.005
1800.097, 1166.152
1802.026, 1186.987
1803.954, 1180.108
1805.883, 1161.861
1807.811, 1153.427
1809.740, 1144.159
1811.668, 1129.836
1813.597, 1131.193
1815.525, 1143.317
1817.453, 1146.571
1819.382, 1144.753
1821.310, 1140.767
1823.239, 1131.499
1825.167, 1117.189
1827.096, 1114.990
1829.024, 1117.910
1830.953, 1114.708
1832.881, 1112.783
1834.810, 1116.899
1836.738, 1105.582
1838.667, 1086.549
1840.595, 1094.750
1842.524, 1105.443
1844.452, 1100.705
1846.380, 1083.391
1848.309, 1056.259
1850.237, 1061.421
1852.166, 1073.184
1854.094, 1051.502
1856.023, 1035.543
1857.951, 1041.878
1859.880, 1043.117
1861.808, 1041.657
1863.737, 1045.531
1865.665, 1050.163
1867.594, 1051.911
1869.522, 1046.958
1871.451, 1038.131
1873.379, 1044.322
1875.307, 1046.062
1877.236, 1019.465
1879.164, 1010.981
1881.093, 1034.982
1883.021, 1030.520
1884.950, 1015.368
1886.878, 1021.308
1888.807, 1023.099
1890.735, 1009.932
1892.664, 1005.318
1894.592, 1006.028
1896.521, 996.0377
1898.449, 992.2710
1900.378, 1005.540
1902.306, 995.3651
1904.234, 966.2917
1906.163, 968.0848
1908.091, 975.2251
1910.020, 967.0302
1911.948, 958.7239
1913.877, 952.9232
1915.805, 967.9549
1917.734, 985.0052
1919.662, 977.5590
1921.591, 967.8337
1923.519, 959.4585
1925.448, 952.8246
1927.376, 947.7120
1929.305, 944.6696
1931.233, 929.3091
1933.161, 898.9575
1935.090, 904.4186
1937.018, 926.9895
1938.947, 927.3519
1940.875, 924.1578
1942.804, 921.6483
1944.732, 911.1526
1946.661, 899.7597
1948.589, 899.1300
1950.518, 895.8712
1952.446, 883.7760
1954.375, 882.2195
1956.303, 886.0511
1958.232, 880.9654
1960.160, 874.2946
1962.089, 873.6368
1964.017, 852.2613
1965.945, 822.4108
1967.874, 847.0892
1969.802, 871.5166
1971.731, 850.1938
1973.659, 843.0422
1975.588, 851.0367
1977.516, 844.7590
1979.445, 833.2037
1981.373, 824.3233
1983.302, 817.3331
1985.230, 814.4652
1987.159, 834.6550
1989.087, 851.5745
1991.016, 842.4632
1992.944, 829.2401
1994.872, 815.6167
1996.801, 801.2756
1998.729, 798.1546
2000.658, 815.9837
2002.586, 814.9989
2004.515, 800.3558
2006.443, 807.9983
2008.372, 813.3589
2010.300, 800.8329
2012.229, 795.2319
2014.157, 796.2611
2016.086, 800.7106
2018.014, 797.5187
2019.943, 778.3914
2021.871, 763.5876
2023.799, 755.9988
2025.728, 756.7939
2027.656, 755.3403
2029.585, 745.9340
2031.513, 743.3799
2033.442, 743.4686
2035.370, 730.7616
2037.299, 734.3698
2039.227, 759.3166
2041.156, 757.0645
2043.084, 743.9999
2045.013, 745.7055
2046.941, 745.7193
2048.869, 740.7207
2050.798, 730.5995
2052.726, 718.6520
2054.655, 703.4147
2056.583, 699.5541
2058.512, 708.2595
2060.440, 720.6769
2062.369, 723.2094
2064.297, 690.1691
2066.226, 686.4385
2068.154, 707.5408
2070.083, 720.3169
2072.011, 718.0967
2073.940, 687.9742
2075.868, 681.4343
2077.797, 691.5508
2079.725, 698.2123
2081.654, 696.0842
2083.582, 684.1087
2085.510, 674.7858
2087.439, 668.6170
2089.367, 667.2974
2091.296, 671.8369
2093.224, 681.4663
2095.153, 657.2785
2097.081, 638.2420
2099.010, 665.8125
2100.938, 670.3975
2102.867, 654.0265
2104.795, 644.4871
2106.724, 641.6074
2108.652, 647.4255
2110.581, 647.7734
2112.509, 640.4551
2114.438, 613.0738
2116.366, 604.9103
2118.294, 626.8818
2120.223, 624.1934
2122.151, 616.6631
2124.080, 622.4784
2126.008, 623.6805
2127.937, 617.9388
2129.865, 600.6962
2131.794, 592.8414
2133.722, 603.6232
2135.651, 612.7561
2137.579, 614.3640
2139.508, 591.4793
2141.436, 578.9620
2143.365, 581.4976
2145.293, 576.2452
2147.221, 570.6184
2149.150, 567.4438
2151.078, 581.2606
2153.007, 598.2116
2154.935, 567.9926
2156.864, 555.6647
2158.792, 578.2583
2160.721, 567.4348
2162.649, 547.4627
2164.578, 548.3510
2166.506, 547.8688
2168.435, 545.5165
2170.363, 547.8044
2172.292, 542.8586
2174.220, 524.9797
2176.148, 535.3021
2178.077, 551.2348
2180.005, 543.3261
2181.934, 526.5357
2183.862, 507.3180
2185.791, 522.5334
2187.719, 538.4062
2189.648, 530.1700
2191.576, 525.5778
2193.505, 524.7858
2195.433, 519.9370
2197.362, 515.9708
2199.290, 516.3743
2201.219, 522.5503
2203.147, 526.6812
2205.075, 530.0444
2207.004, 517.1465
2208.932, 497.6358
2210.861, 487.5565
2212.789, 482.9306
2214.718, 487.1008
2216.646, 491.5067
2218.575, 488.5680
2220.503, 477.8217
2222.432, 485.0250
2224.360, 496.9908
2226.289, 492.3490
2228.217, 475.7248
2230.146, 458.6091
2232.074, 473.4641
2234.002, 485.9805
2235.931, 487.1081
2237.859, 476.3696
2239.788, 463.3228
2241.716, 468.9600
2243.645, 471.0108
2245.573, 463.6425
2247.502, 469.7868
2249.430, 464.6229
2251.359, 436.9066
2253.287, 443.7841
2255.216, 456.7218
2257.144, 445.4737
2259.073, 438.2722
2261.001, 438.5347
2262.929, 447.9341
2264.858, 450.6516
2266.786, 444.0296
2268.715, 445.7616
2270.643, 446.3277
2272.572, 436.0536
2274.500, 436.8886
2276.429, 437.7811
2278.357, 410.2706
2280.286, 411.0940
2282.214, 426.2773
2284.143, 411.5068
2286.071, 404.4550
2288.000, 408.7933
2289.928, 402.9140
2291.856, 399.9080
2293.785, 409.9779
2295.713, 412.7219
2297.642, 405.5347
2299.570, 399.7892
2301.499, 393.7941
2303.427, 387.2350
2305.356, 391.3642
2307.284, 394.8711
2309.213, 405.8058
2311.141, 402.5551
2313.070, 384.4621
2314.998, 378.0549
2316.927, 372.8190
2318.855, 370.2209
2320.783, 368.3035
2322.712, 374.5898
2324.640, 380.4069
2326.569, 372.5013
2328.497, 376.3580
2330.426, 381.9233
2332.354, 365.5990
2334.283, 358.7025
2336.211, 373.3897
2338.140, 373.3053
2340.068, 362.1659
2341.997, 368.0214
2343.925, 371.0495
2345.854, 366.3352
2347.782, 352.7784
2349.710, 352.5088
2351.639, 358.6577
2353.567, 359.8805
2355.496, 356.7923
2357.424, 354.3466
2359.353, 360.8511
2361.281, 360.0131
2363.210, 346.0473
2365.138, 338.9865
2367.067, 343.1432
2368.995, 338.5167
2370.924, 334.4338
2372.852, 341.4863
2374.781, 337.1031
2376.709, 333.0046
2378.637, 332.9151
2380.566, 318.6213
2382.494, 315.4740
2384.423, 316.8618
2386.351, 314.4956
2388.280, 319.9113
2390.208, 325.9346
2392.137, 326.6852
2394.065, 322.1931
2395.994, 306.3662
2397.922, 313.3044
2399.851, 316.9930
2401.779, 298.6542
2403.708, 300.6121
2405.636, 302.9346
2407.564, 301.8423
2409.493, 305.8004
2411.421, 300.9060
2413.350, 288.6555
2415.278, 292.4097
2417.207, 290.4337
2419.135, 282.2614
2421.064, 286.6300
2422.992, 283.5258
2424.921, 285.8112
2426.849, 285.4901
2428.778, 273.7250
2430.706, 275.7155
2432.635, 279.2424
2434.563, 281.0566
2436.491, 286.8815
2438.420, 285.9632
2440.348, 279.9663
2442.277, 285.7749
2444.205, 289.2530
2446.134, 281.8536
2448.062, 271.3356
2449.991, 272.3225
2451.919, 275.7398
2453.848, 276.0371
2455.776, 276.8515
2457.705, 265.5344
2459.633, 265.8623
2461.562, 269.7453
2463.490, 258.8591
2465.418, 247.0657
2467.347, 251.1965
2469.275, 261.9768
2471.204, 260.3529
2473.132, 258.3573
2475.061, 252.7386
2476.989, 254.6622
2478.918, 249.7809
2480.846, 239.0851
2482.775, 238.6376
2484.703, 244.0226
2486.632, 249.1367
2488.560, 240.1611
2490.489, 231.0488
2492.417, 240.8090
2494.345, 243.9333
2496.274, 242.7077
2498.202, 239.3372
2500.131, 235.2120
2502.059, 235.3889
2503.988, 230.8720
2505.916, 226.3659
2507.845, 223.0822
2509.773, 221.7760
2511.702, 227.8522
2513.630, 237.0111
2515.559, 230.3770
2517.487, 228.7898
2519.416, 230.9846
2521.344, 232.8965
2523.272, 231.9600
2525.201, 223.2647
2527.129, 203.2839
2529.058, 202.7150
2530.986, 211.1592
2532.915, 211.6973
2534.843, 212.4357
2536.772, 207.0594
2538.700, 196.6312
2540.629, 203.9868
2542.557, 215.1050
2544.486, 204.5075
2546.414, 200.6187
2548.343, 202.1675
2550.271, 196.8518
2552.199, 199.5976
2554.128, 206.6828
2556.056, 207.9827
2557.985, 202.6259
2559.913, 195.8563
2561.842, 197.4524
2563.770, 197.0966
2565.699, 195.6758
2567.627, 199.8954
2569.556, 199.8964
2571.484, 197.4984
2573.413, 199.4401
2575.341, 192.0237
2577.270, 184.2399
2579.198, 188.8930
2581.126, 182.8292
2583.055, 176.8964
2584.983, 187.9797
2586.912, 181.5332
2588.840, 171.4912
2590.769, 171.9283
2592.697, 175.8228
2594.626, 178.3137
2596.554, 176.1197
2598.483, 171.0808
2600.411, 170.5895
2602.340, 178.3072
2604.268, 168.7526
2606.197, 163.7830
2608.125, 174.5271
2610.053, 182.6162
2611.982, 181.7345
2613.910, 171.4505
2615.839, 164.6856
2617.767, 160.6624
2619.696, 157.9935
2621.624, 160.1610
2623.553, 158.4709
2625.481, 153.6064
2627.410, 166.4787
2629.338, 171.2269
2631.267, 163.4968
2633.195, 154.0779
2635.124, 152.6098
2637.052, 154.5489
2638.980, 154.2404
2640.909, 149.3056
2642.837, 143.6162
2644.766, 156.7368
2646.694, 154.1993
2648.623, 143.0177
2650.551, 141.9772
2652.480, 145.1110
2654.408, 146.6090
2656.337, 145.1779
2658.265, 146.3538
2660.194, 147.5871
2662.122, 149.0132
2664.051, 140.8171
2665.979, 139.6900
2667.907, 146.1961
2669.836, 134.6562
2671.764, 137.2552
2673.693, 152.5377
2675.621, 148.0060
2677.550, 141.9250
2679.478, 136.8106
2681.407, 131.6786
2683.335, 131.5760
2685.264, 134.4426
2687.192, 133.5359
2689.121, 131.3270
2691.049, 132.2536
2692.978, 135.9720
2694.906, 129.8806
2696.834, 128.1052
2698.763, 128.2538
2700.691, 123.0871
2702.620, 124.7601
2704.548, 129.1687
2706.477, 124.5234
2708.405, 124.6237
2710.334, 125.5555
2712.262, 128.3649
2714.191, 123.8223
2716.119, 119.4607
2718.048, 120.2265
2719.976, 118.6398
2721.905, 117.5760
2723.833, 115.7347
2725.761, 116.0818
2727.690, 120.3195
2729.618, 121.8104
2731.547, 117.0952
2733.475, 116.8820
2735.404, 114.3955
2737.332, 119.6931
2739.261, 120.1460
2741.189, 107.9122
2743.118, 101.7450
2745.046, 110.6395
2746.975, 115.0153
2748.903, 104.7020
2750.832, 107.7701
2752.760, 108.0899
2754.688, 102.6500
2756.617, 100.5035
2758.545, 100.6940
2760.474, 95.89890
2762.402, 101.0670
2764.331, 104.3789
2766.259, 96.43967
2768.188, 89.64629
2770.116, 95.22494
2772.045, 98.41737
2773.973, 99.11116
2775.902, 98.06154
2777.830, 98.76686
2779.759, 102.4607
2781.687, 93.63270
2783.615, 89.48508
2785.544, 94.98364
2787.472, 89.42473
2789.401, 85.43137
2791.329, 85.72586
2793.258, 80.63618
2795.186, 82.61794
2797.115, 96.34872
2799.043, 100.5297
2800.972, 89.05246
2802.900, 86.84975
2804.829, 88.57259
2806.757, 87.22485
2808.686, 87.61230
2810.614, 78.87397
2812.542, 73.93795
2814.471, 86.67857
2816.399, 85.33690
2818.328, 78.19167
2820.256, 73.97131
2822.185, 77.09159
2824.113, 84.99107
2826.042, 86.93191
2827.970, 87.22437
2829.899, 80.93768
2831.827, 78.76560
2833.756, 76.64052
2835.684, 74.50359
2837.613, 84.49189
2839.541, 87.88841
2841.469, 81.30950
2843.398, 68.40192
2845.326, 75.78954
2847.255, 79.96606
2849.183, 78.04602
2851.112, 72.60549
2853.040, 74.26558
2854.969, 66.33179
2856.897, 52.45956
2858.826, 63.39277
2860.754, 76.11902
2862.683, 77.93394
2864.611, 68.84681
2866.540, 70.23797
2868.468, 69.66225
2870.396, 65.44753
2872.325, 70.00037
2874.253, 68.33579
2876.182, 64.12730
2878.110, 64.64595
2880.039, 62.65817
2881.967, 62.24498
2883.896, 66.68970
2885.824, 61.32589
2887.753, 54.92121
2889.681, 49.67838
2891.610, 62.24131
2893.538, 71.96163
2895.467, 70.12898
2897.395, 58.39315
2899.323, 61.93375
2901.252, 65.13777
2903.180, 61.94488
2905.109, 54.88559
2907.037, 47.24434
2908.966, 55.24833
2910.894, 55.34140
2912.823, 55.30658
2914.751, 60.48853
2916.680, 54.88553
2918.608, 54.50122
2920.537, 59.03471
2922.465, 62.14053
2924.394, 54.84135
2926.322, 59.07283
2928.250, 64.65714
2930.179, 60.58308
2932.107, 47.47860
2934.036, 55.56145
2935.964, 64.90546
2937.893, 52.08447
2939.821, 47.60406
2941.750, 50.05504
2943.678, 42.63585
2945.607, 45.10952
2947.535, 47.91773
2949.464, 46.24812
2951.392, 44.56267
2953.321, 45.77199
2955.249, 45.19484
2957.177, 45.49502
2959.106, 36.07085
2961.034, 41.81649
2962.963, 41.28316
2964.891, 37.37210
2966.820, 42.27068
2968.748, 42.40872
2970.677, 46.24780
2972.605, 38.77834
2974.534, 35.69894
2976.462, 35.32962
2978.391, 37.02516
2980.319, 44.90192
2982.248, 44.07857
2984.176, 33.03783
2986.104, 29.93452
2988.033, 45.67989
2989.961, 51.94604
2991.890, 51.48657
2993.818, 44.66581
2995.747, 33.47011
2997.675, 43.33868
2999.604, 53.96854
3001.532, 46.77534
3003.461, 46.09178
3005.389, 41.81850
3007.318, 35.77106
3009.246, 34.89246
3011.175, 39.32716
3013.103, 41.61029
3015.031, 40.00742
3016.960, 47.75278
3018.888, 40.58808
3020.817, 32.38181
3022.745, 36.01485
3024.674, 38.05947
3026.602, 27.21188
3028.531, 17.91575
3030.459, 33.38192
3032.388, 36.25304
3034.316, 30.14007
3036.245, 24.70691
3038.173, 28.96677
3040.102, 39.02911
3042.030, 38.65037
3043.958, 28.63948
3045.887, 26.99143
3047.815, 32.25894
3049.744, 34.10142
3051.672, 29.73112
3053.601, 28.34867
3055.529, 26.37903
3057.458, 28.59937
3059.386, 36.36337
3061.315, 34.56935
3063.243, 26.01815
3065.172, 19.11891
3067.100, 20.89351
3069.029, 22.72869
3070.957, 21.68631
3072.885, 21.53271
3074.814, 31.08841
3076.742, 27.10204
3078.671, 18.67081
3080.599, 14.67065
3082.528, 27.07031
3084.456, 36.39873
3086.385, 38.83926
3088.313, 36.05284
3090.242, 36.06564
3092.170, 28.02437
3094.099, 21.34574
3096.027, 18.98600
3097.956, 19.45445
3099.884, 20.59255
3101.813, 21.64882
3103.741, 23.07909
3105.669, 31.51282
3107.598, 38.80738
3109.526, 37.71878
3111.455, 31.50664
3113.383, 28.11077
3115.312, 21.87800
3117.240, 20.12255
3119.169, 22.92069
3121.097, 23.63351
3123.026, 30.26812
3124.954, 25.02892
3126.883, 9.430167
3128.811, 16.39257
3130.740, 14.29733
3132.668, 5.901779
3134.596, -1.546789
3136.525, 10.13254
3138.453, 19.78346
3140.382, 15.78802
3142.310, 5.845983
3144.239, 23.20553
3146.167, 23.98970
3148.096, 18.82556
3150.024, 17.87208
3151.953, 23.07186
3153.881, 22.11399
3155.810, 16.63931
3157.738, 15.18560
3159.667, 20.50781
3161.595, 22.28050
3163.523, 23.13697
3165.452, 23.05233
3167.380, 18.87042
3169.309, 8.384713
3171.237, 6.510773
3173.166, 9.162265
3175.094, 8.467379
3177.023, 15.47824
3178.951, 11.65306
3180.880, 6.611162
3182.808, 7.039089
3184.737, 15.04366
3186.665, 23.14856
3188.594, 27.39156
3190.522, 21.65024
3192.450, 10.86518
3194.379, 7.577116
3196.307, 11.19631
3198.236, 7.495691
3200.164, 14.18063
3202.093, 19.31746
3204.021, 27.90328
3205.950, 44.15865
3207.878, 24.38172
3209.807, 8.347743
3211.735, 4.916265
3213.664, 9.679471
3215.592, 7.848637
3217.521, 18.93752
3219.449, 15.00423
3221.377, 3.504534
3223.306, 9.887756
3225.234, 18.33766
3227.163, 20.51158
3229.091, 15.43248
3231.020, 2.485746
3232.948, 16.07236
3234.877, 22.01957
3236.805, 14.57298
3238.734, 4.245881
3240.662, 8.700118
3242.591, 14.00966
3244.519, 23.98698
3246.448, 30.97800
3248.376, 21.08663
3250.304, 27.18841
3252.233, 26.79688
3254.161, 18.28802
3256.090, 18.81523
3258.018, 19.99247
3259.947, 21.06368
3261.875, 25.90503
3263.804, 28.31478
3265.732, 21.86016
3267.661, 19.65687
3269.589, 20.25550
3271.518, 20.65398
3273.446, 14.17323
3275.375, 11.59708
3277.303, 14.16199
3279.231, 15.09439
3281.160, 14.43614
3283.088, 2.974699
3285.017, 14.20521
3286.945, 21.79737
3288.874, 14.02892
3290.802, 11.25354
3292.731, 4.311616
3294.659, 6.797482
3296.588, 16.56194
3298.516, 18.36537
3300.445, 1.221041
3302.373, 8.915382
3304.302, 20.26436
3306.230, 23.45788
3308.158, 25.86036
3310.087, 13.97391
3312.015, 6.884745
3313.944, 10.73389
3315.872, 18.31428
3317.801, 12.87657
3319.729, 6.926373
3321.658, 8.345395
3323.586, 12.14029
3325.515, 11.60600
3327.443, 12.29212
3329.372, 8.699664
3331.300, 8.690919
3333.229, 16.30676
3335.157, 20.25869
3337.085, 14.24945
3339.014, 5.294051
3340.942, 4.319334
3342.871, 15.38035
3344.799, 15.96161
3346.728, 13.23137
3348.656, 15.15583
3350.585, 18.77022
3352.513, 3.678672
3354.442, 17.09349
3356.370, 27.76080
3358.299, 24.93178
3360.227, 15.31336
3362.156, 20.83401
3364.084, 4.619485
3366.012, -0.1002141
3367.941, 5.318089
3369.869, 8.631885
3371.798, 9.121461
3373.726, 17.81579
3375.655, 17.02483
3377.583, 7.136243
3379.512, 11.05217
3381.440, 10.71587
3383.369, -3.134143
3385.297, -7.869792
3387.226, 2.294187
3389.154, 11.56609
3391.083, 9.948549
3393.011, 2.879005
3394.939, 4.620945
3396.868, 13.96561
3398.796, 5.301245
3400.725, 2.725033
3402.653, 9.317702
3404.582, 9.684326
3406.510, -5.6226261E-02
3408.439, 12.35765
3410.367, 21.14282
3412.296, 5.493850
3414.224, 2.920641
3416.153, 33.92857
3418.081, 17.63686
3420.010, 8.940441
3421.938, 0.6272151
3423.866, 0.8422616
3425.795, 15.13410
3427.723, 18.50900
3429.652, 10.17065
3431.580, 11.69977
3433.509, 11.73431
3435.437, 0.7143902
3437.366, 9.359509
3439.294, 18.81651
3441.223, 19.04287
3443.151, 21.10095
3445.080, 28.34039
3447.008, 7.104170
3448.937, 12.34338
3450.865, 14.16960
3452.793, 14.46302
3454.722, 17.88526
3456.650, 8.371727
3458.579, -2.620247
3460.507, 7.209403
3462.436, 5.622915
3464.364, -12.62386
3466.293, -1.356654
3468.221, -8.793702
3470.150, 0.6765670
3472.078, 12.37506
3474.007, 14.06801
3475.935, 9.650497
3477.864, 10.72050
3479.792, 9.971327
3481.720, 9.471293
3483.649, 9.244136
3485.577, 6.480563
3487.506, -6.167194
3489.434, -0.1818558
3491.363, 12.79760
3493.291, 23.88272
3495.220, 26.42925
3497.148, 4.254556
3499.077, 1.435002
3501.005, -0.2102115
3502.934, 4.046103
3504.862, 10.56611
3506.791, -6.390936
3508.719, 6.624943
3510.647, 7.812100
3512.576, 4.631048
3514.504, 9.078467
3516.433, 23.13453
3518.361, 15.93365
3520.290, 20.15993
3522.218, 20.94061
3524.147, 13.34503
3526.075, 6.166376
3528.004, 23.63821
3529.932, 21.74640
3531.861, 21.98494
3533.789, 20.60659
3535.718, 16.57939
3537.646, 15.12164
3539.574, 14.27898
3541.503, 7.323822
3543.431, 2.679417
3545.360, 2.038728
3547.288, 3.586673
3549.217, 6.272970
3551.145, 15.36645
3553.074, 12.60285
3555.002, 1.917851
3556.931, 2.790609
3558.859, 21.19421
3560.788, 3.025927
3562.716, 9.162360
3564.645, -4.266742
3566.573, -13.12301
3568.501, -1.771120
3570.430, 14.02062
3572.358, 5.659377
3574.287, 4.571764
3576.215, 13.15559
3578.144, 21.93911
3580.072, 21.82445
3582.001, 10.68519
3583.929, 12.21596
3585.858, 1.719742
3587.786, 4.074593
3589.715, 9.138516
3591.643, 5.502351
3593.572, 19.16425
3595.500, 16.49193
3597.428, 16.39311
3599.357, 9.325372
3601.285, 6.449733
3603.214, 16.57794
3605.142, 8.024835
3607.071, 14.61520
3608.999, 14.32719
3610.928, 23.05578
3612.856, 23.25357
3614.785, 1.234973
3616.713, 5.796348
3618.642, 14.26658
3620.570, 19.39683
3622.499, 13.28015
3624.427, 10.93935
3626.355, 16.98885
3628.284, -6.470603
3630.212, 17.24952
3632.141, 1.529267
3634.069, -11.94225
3635.998, -7.126548
3637.926, 3.684930
3639.855, 10.57894
3641.783, 12.19311
3643.712, 7.318255
3645.640, 1.825238
3647.569, -4.593648
3649.497, -6.089970
3651.426, 7.951517
3653.354, 14.45680
3655.282, -0.9001427
3657.211, 0.6195202
3659.139, 9.320410
3661.068, 11.41476
3662.996, 6.617503
3664.925, -11.90257
3666.853, -3.131398
3668.782, 18.04102
3670.710, 10.32199
3672.639, -0.1144899
3674.567, 16.99732
3676.496, 29.01656
3678.424, 9.076735
3680.353, 3.193671
3682.281, 12.68044
3684.209, 22.97250
3686.138, 24.01652
3688.066, 15.91821
3689.995, 15.16932
3691.923, 18.02678
3693.852, 9.738097
3695.780, 9.148691
3697.709, 13.93444
3699.637, 10.05989
3701.566, -3.602927
3703.494, 17.36742
3705.423, 15.61236
3707.351, -0.9665686
3709.280, -7.918531
3711.208, -7.103802
3713.136, -9.311436
3715.065, 1.322455
3716.993, 16.90778
3718.922, 15.76568
3720.850, -4.216103
3722.779, -5.858565
3724.707, 2.170708
3726.636, -10.99483
3728.564, -0.5815775
3730.493, 12.15982
3732.421, 7.553787
3734.350, -5.623618
3736.278, -2.875212
3738.207, 4.889647
3740.135, -7.526063
3742.063, -1.068787
3743.992, 22.97749
3745.920, 18.84169
3747.849, 4.544391
3749.777, -0.8295432
3751.706, 1.839089
3753.634, 3.712364
3755.563, 11.54309
3757.491, 26.43227
3759.420, 27.67787
3761.348, 13.67863
3763.277, 2.657211
3765.205, -0.9466708
3767.134, -1.166353
3769.062, 9.216750
3770.990, 0.3829974
3772.919, -5.667443
3774.847, 9.458368
3776.776, 3.839793
3778.704, 5.896956
3780.633, 26.59452
3782.561, 9.375282
3784.490, 7.372416
3786.418, -5.379204
3788.347, -15.35424
3790.275, -8.968781
3792.204, 3.149323
3794.132, 10.99066
3796.061, 11.12528
3797.989, -2.251676
3799.917, -8.591954
3801.846, -12.56242
3803.774, -3.884828
3805.703, -3.498739
3807.631, -8.195237
3809.560, -7.831177
3811.488, -4.276096
3813.417, 6.844841
3815.345, 6.129924
3817.274, -8.058589
3819.202, 4.050492
3821.131, 5.188897
3823.059, 0.1407752
3824.988, 5.498961
3826.916, 5.835994
3828.844, 19.74581
3830.773, 26.07411
3832.701, 17.51842
3834.630, 12.48333
3836.558, 21.16393
3838.487, 19.98656
3840.415, 6.269031
3842.344, 10.06350
3844.272, 14.32584
3846.201, 2.756386
3848.129, 13.83764
3850.058, 17.38043
3851.986, 8.019822
3853.915, -7.577236
3855.843, -13.19434
3857.771, -3.296619
3859.700, -6.808299
3861.628, 13.71229
3863.557, 6.037367
3865.485, -3.264278
3867.414, 4.026761
3869.342, 2.891703
3871.271, -6.396325
3873.199, -11.43807
3875.128, -18.13061
3877.056, -4.772071
3878.985, 14.36955
3880.913, 4.301860
3882.842, 0.9860103
3884.770, 2.542137
3886.698, 5.844477
3888.627, 6.940838
3890.555, 4.566473
3892.484, 7.970795
3894.412, -8.060369
3896.341, -12.74423
3898.269, 10.02034
3900.198, 18.08616
3902.126, 18.99171
3904.055, 15.36995
3905.983, 9.615891
3907.912, 7.456039
3909.840, 8.420814
3911.769, 24.70028
3913.697, 23.26426
3915.625, 19.19898
3917.554, 18.86570
3919.482, 14.96467
3921.411, 15.10134
3923.339, 2.585306
3925.268, -16.45671
3927.196, -1.162598
3929.125, 21.36035
3931.053, 7.551869
3932.982, 16.22153
3934.910, 2.440618
3936.839, -6.008242
3938.767, -2.928820
3940.696, -1.310470
3942.624, 0.8012667
3944.552, 2.006088
3946.481, -15.83305
3948.409, -18.95744
3950.338, -1.907135
3952.266, -8.381880
3954.195, 7.084132
3956.123, 6.678679
3958.052, 5.9456859E-02
3959.980, -1.640227
3961.909, -1.158568
3963.837, -11.26449
3965.766, -30.79749
3967.694, 9.276734
3969.623, -11.99071
3971.551, -5.066641
3973.479, 17.52183
3975.408, 16.53253
3977.336, 11.27929
3979.265, 1.244452
3981.193, 7.484135
3983.122, 17.64805
3985.050, 0.4914795
3986.979, 3.971169
3988.907, 15.26860
3990.836, 17.00477
3992.764, 35.08954
3994.693, -3.743688
3996.621, -5.953166
3998.550, -2.988419
4000.478, 6.618903
4002.406, 8.300222
4004.335, -1.156322
4006.263, 7.265743
4008.192, 20.36610
4010.120, 25.24787
4012.049, 6.102812
4013.977, -13.64576
4015.906, 8.344260
4017.834, -19.90321
4019.763, -18.42912
4021.691, -6.260250
4023.620, -4.541005
4025.548, -4.351635
4027.477, 4.474847
4029.405, 15.33537
4031.333, -4.116347
4033.262, 8.622749
4035.190, -17.42827
4037.119, 7.680887
4039.047, 2.202747
4040.976, 6.265245
4042.904, 5.118945
4044.833, -3.5747651E-02
4046.761, -3.321276
4048.690, 1.381264
4050.618, 11.62232
4052.547, 17.26421
4054.475, 18.40025
4056.404, 8.804831
4058.332, 7.399325
4060.260, 24.04246
4062.189, 10.46989
4064.117, 19.56177
4066.046, 7.562541
4067.974, 5.548352
4069.903, 8.955654
4071.831, 13.59180
4073.760, 10.53692
4075.688, 1.028507
4077.617, 1.270172
4079.545, 8.283579
4081.474, 8.354383
4083.402, 6.609844
4085.331, 5.434447
4087.259, -7.209617
4089.188, -21.10876
4091.116, -3.415339
4093.044, -2.310529
4094.973, -3.946742
4096.901, 1.336003
4098.830, 11.61477
4100.758, 8.376045
4102.687, 3.192038
4104.615, 10.79631
4106.544, 5.653945
4108.472, -2.668754
4110.401, 26.65349
4112.329, 15.99824
4114.258, 8.304163
4116.186, 21.30927
4118.115, 1.305586
4120.043, 7.612911
4121.972, 21.93020
4123.900, 9.673569
4125.829, 22.64512
4127.757, 21.94415
4129.686, 15.66353
4131.614, 11.00815
4133.542, 14.72749
4135.471, 26.98342
4137.399, 13.38734
4139.328, 20.81471
4141.256, 3.616947
4143.185, 14.38777
4145.113, 7.160965
4147.042, 7.015857
4148.970, -2.192451
4150.898, 13.81725
4152.827, -3.274085
4154.755, -3.185644
4156.684, 3.459736
4158.612, 0.5288022
4160.541, -3.109497
4162.469, 2.691630
4164.398, 2.999236
4166.326, -1.938107
4168.255, -3.484085
4170.183, -1.592358
4172.112, 5.045754
4174.040, -4.532195
4175.969, -3.565737
4177.897, 7.460169
4179.826, -3.423764
4181.754, 15.06824
4183.683, -13.54927
4185.611, -11.79820
4187.540, -11.15396
4189.468, -10.75769
4191.396, 15.30607
4193.325, 29.41060
4195.253, -12.80994
4197.182, 2.722084
4199.110, 7.651120
4201.039, 14.11003
4202.967, 10.76607
4204.896, 5.615860
4206.824, 11.33883
4208.752, 3.573098
4210.681, 1.323349
4212.609, 18.45347
4214.538, 36.07953
4216.466, 18.09587
4218.395, 27.77365
4220.323, 13.53146
4222.252, 13.04305
4224.180, 15.18307
4226.109, 6.885504
4228.037, 14.12866
4229.966, 14.99616
4231.894, 18.54773
4233.823, 3.877506
4235.751, -1.653283
4237.680, 0.3914546
4239.608, -19.88969
4241.537, -7.997589
4243.465, -10.63038
4245.394, -16.51260
4247.322, -0.7902265
4249.250, 9.749029
4251.179, 2.268239
4253.107, 9.742999
4255.036, 15.60472
4256.964, 14.21072
4258.893, 8.325584
4260.821, 1.142734
4262.750, 9.202907
4264.678, 5.888632
4266.606, 6.700380
4268.535, 27.09809
4270.463, 17.37929
4272.392, -13.62122
4274.320, 5.652638
4276.249, 7.773513
4278.177, 25.23057
4280.106, 15.92837
4282.034, 7.157554
4283.963, 4.520980
4285.891, 7.177848
4287.820, -5.560758
4289.748, -2.867866
4291.677, 0.3629199
4293.605, -7.834844
4295.534, -5.333110
4297.462, -0.2658136
4299.391, -24.96969
4301.319, -2.210434
4303.248, 5.116930
4305.176, -1.485067
4307.104, 7.146355
4309.033, -14.25518
4310.961, -9.859412
4312.890, 13.99308
4314.818, 1.287104
4316.747, 5.833580
4318.675, 0.4747780
4320.604, -4.430820
4322.532, -4.173342
4324.460, -6.750833
4326.389, -2.680356
4328.317, 6.062262
4330.246, 15.34534
4332.174, 24.94215
4334.103, 10.19149
4336.031, 15.32203
4337.960, 19.72784
4339.888, 32.26944
4341.817, 27.20984
4343.745, 25.07853
4345.674, 21.83572
4347.602, -0.5305942
4349.531, 6.070936
4351.459, 24.03494
4353.388, 20.77526
4355.316, 18.30600
4357.245, 17.92460
4359.173, 0.8861972
4361.102, -3.853760
4363.030, 10.59603
4364.958, 6.848197
4366.887, -14.17231
4368.815, 1.544610
4370.744, 20.19248
4372.672, 1.564472
4374.601, -3.044980
4376.529, 8.953256
4378.458, 5.980759
4380.386, 11.31800
4382.314, 8.559721
##END=



