##NAMES=Fluorcalciopyrochlore
##RRUFFID=R061003
##IDEAL CHEMISTRY=(Ca,Na)_2_(Nb,Ti)_2_O_6_F
##LOCALITY=Verity property, Blue River, British Columbia, Canada
##OWNER=RRUFF
##SOURCE=Michael Scott
##DESCRIPTION=Reddish-brown octahedron
##STATUS=The identification of this mineral has been confirmed by X-ray diffraction and chemical analysis
##URL=https://www.rruff.net/odr/rruff_sample/R061003
##MEASURED CHEMISTRY=(Ca_1.03_Na_0.88_Sr_0.03_Ce_0.01_)(Nb_1.87_Ti_0.09_Ta_0.04_)O_6_[F_0.93_(OH)_0.01_]
##DIFFRACTION SAMPLE DESCRIPTION=Powder
##CELL PARAMETERS=a: 10.42405 b: 10.42405 c: 10.42405 alpha: 90 beta: 90 gamma: 90 volume: 1132.68 crystal system: cubic
##FILETYPE=Raman RAW
##RAMAN WAVELENGTH=785

125.3518, 231.7486
127.2803, 351.7595
129.2087, 500.2918
131.1372, 670.7908
133.0657, 858.7048
134.9941, 986.7026
136.9226, 1006.728
138.8511, 1063.521
140.7795, 1146.678
142.7080, 1306.630
144.6365, 1611.505
146.5649, 2008.023
148.4934, 2345.242
150.4219, 2639.511
152.3503, 2815.111
154.2788, 2817.696
156.2073, 2776.545
158.1357, 2715.664
160.0642, 2666.428
161.9927, 2678.021
163.9211, 2762.945
165.8496, 2835.135
167.7781, 2897.502
169.7065, 2944.103
171.6350, 2975.374
173.5635, 2986.766
175.4919, 2968.374
177.4204, 2924.870
179.3489, 2891.215
181.2773, 2867.525
183.2058, 2853.280
185.1343, 2853.450
187.0627, 2856.330
188.9912, 2853.334
190.9197, 2849.916
192.8481, 2853.733
194.7766, 2864.119
196.7051, 2889.352
198.6335, 2935.027
200.5620, 2982.907
202.4905, 3025.658
204.4189, 3070.186
206.3474, 3123.396
208.2759, 3183.436
210.2043, 3236.289
212.1328, 3271.004
214.0613, 3335.387
215.9897, 3452.823
217.9182, 3569.993
219.8467, 3666.156
221.7751, 3744.401
223.7036, 3807.019
225.6321, 3853.647
227.5605, 3881.601
229.4890, 3883.969
231.4175, 3889.017
233.3459, 3905.532
235.2744, 3923.140
237.2029, 3937.764
239.1313, 3948.744
241.0598, 3954.450
242.9883, 3954.277
244.9167, 3950.629
246.8452, 3939.076
248.7737, 3934.865
250.7021, 3949.560
252.6306, 3966.854
254.5591, 3971.573
256.4875, 3969.900
258.4160, 3983.091
260.3445, 4013.662
262.2729, 4047.564
264.2014, 4082.846
266.1299, 4124.380
268.0583, 4172.000
269.9868, 4229.395
271.9153, 4307.209
273.8438, 4398.548
275.7722, 4467.388
277.7007, 4504.969
279.6292, 4572.245
281.5576, 4688.104
283.4861, 4805.459
285.4146, 4907.022
287.3430, 4998.972
289.2715, 5088.677
291.2000, 5172.928
293.1284, 5234.671
295.0569, 5271.069
296.9854, 5306.726
298.9138, 5343.113
300.8423, 5380.144
302.7708, 5422.655
304.6992, 5461.201
306.6277, 5495.750
308.5562, 5520.572
310.4846, 5511.434
312.4131, 5464.979
314.3416, 5418.272
316.2700, 5372.150
318.1985, 5330.104
320.1270, 5296.251
322.0554, 5263.920
323.9839, 5222.106
325.9124, 5180.570
327.8408, 5165.636
329.7693, 5179.152
331.6978, 5183.889
333.6262, 5175.257
335.5547, 5170.924
337.4832, 5180.383
339.4116, 5190.291
341.3401, 5186.772
343.2686, 5184.721
345.1970, 5212.144
347.1255, 5265.987
349.0540, 5298.078
350.9824, 5307.043
352.9109, 5304.816
354.8394, 5287.827
356.7678, 5269.822
358.6963, 5254.601
360.6248, 5241.762
362.5532, 5228.165
364.4817, 5216.829
366.4102, 5220.577
368.3386, 5239.470
370.2671, 5254.619
372.1956, 5258.887
374.1240, 5278.528
376.0525, 5335.924
377.9810, 5394.266
379.9094, 5444.712
381.8379, 5480.336
383.7664, 5481.498
385.6948, 5455.328
387.6233, 5456.490
389.5518, 5487.593
391.4802, 5518.357
393.4087, 5551.053
395.3372, 5566.359
397.2656, 5555.349
399.1941, 5527.158
401.1226, 5479.723
403.0510, 5421.545
404.9795, 5368.671
406.9080, 5320.069
408.8364, 5266.817
410.7649, 5207.853
412.6934, 5151.974
414.6218, 5108.192
416.5503, 5054.441
418.4788, 4976.720
420.4072, 4894.857
422.3357, 4820.765
424.2642, 4753.323
426.1926, 4693.302
428.1211, 4639.047
430.0496, 4577.232
431.9780, 4504.934
433.9065, 4442.412
435.8350, 4395.221
437.7634, 4356.143
439.6919, 4322.916
441.6204, 4296.376
443.5488, 4279.445
445.4773, 4268.515
447.4058, 4256.208
449.3342, 4244.021
451.2627, 4238.662
453.1912, 4239.825
455.1196, 4252.607
457.0481, 4282.715
458.9766, 4312.974
460.9050, 4339.018
462.8335, 4363.331
464.7620, 4390.225
466.6904, 4414.313
468.6189, 4426.548
470.5474, 4430.924
472.4758, 4442.305
474.4043, 4460.143
476.3328, 4465.359
478.2612, 4449.257
480.1897, 4443.542
482.1182, 4467.886
484.0466, 4486.488
485.9751, 4488.084
487.9036, 4480.113
489.8320, 4464.546
491.7605, 4445.451
493.6890, 4433.175
495.6174, 4424.206
497.5459, 4400.787
499.4744, 4361.133
501.4028, 4331.704
503.3313, 4316.586
505.2598, 4311.435
507.1882, 4320.024
509.1167, 4330.770
511.0452, 4340.078
512.9736, 4348.182
514.9021, 4355.138
516.8306, 4360.964
518.7590, 4361.846
520.6875, 4361.586
522.6160, 4378.313
524.5444, 4414.427
526.4729, 4451.595
528.4014, 4492.480
530.3298, 4523.161
532.2583, 4535.641
534.1868, 4545.958
536.1152, 4558.853
538.0437, 4572.565
539.9722, 4595.329
541.9006, 4611.711
543.8291, 4591.493
545.7576, 4546.461
547.6860, 4512.503
549.6145, 4490.958
551.5430, 4461.981
553.4714, 4422.242
555.3999, 4379.695
557.3284, 4338.411
559.2568, 4290.263
561.1853, 4231.543
563.1138, 4167.775
565.0422, 4102.624
566.9707, 4033.362
568.8992, 3950.138
570.8276, 3864.493
572.7561, 3799.119
574.6846, 3750.285
576.6130, 3696.956
578.5415, 3637.192
580.4700, 3581.447
582.3984, 3531.116
584.3269, 3483.864
586.2554, 3443.340
588.1838, 3399.447
590.1123, 3341.154
592.0408, 3288.364
593.9692, 3258.199
595.8977, 3234.192
597.8262, 3199.614
599.7546, 3159.925
601.6831, 3123.622
603.6116, 3090.349
605.5400, 3056.646
607.4685, 3022.103
609.3970, 2992.700
611.3254, 2972.463
613.2539, 2948.607
615.1824, 2918.988
617.1108, 2887.730
619.0393, 2852.223
620.9678, 2819.488
622.8962, 2794.502
624.8247, 2771.202
626.7532, 2744.445
628.6816, 2717.347
630.6101, 2692.747
632.5386, 2670.673
634.4670, 2654.750
636.3955, 2643.052
638.3240, 2614.006
640.2524, 2561.386
642.1809, 2522.723
644.1094, 2505.552
646.0378, 2490.264
647.9663, 2480.206
649.8948, 2466.248
651.8232, 2445.253
653.7517, 2422.448
655.6802, 2396.190
657.6086, 2372.807
659.5371, 2359.949
661.4656, 2348.262
663.3940, 2326.098
665.3225, 2301.059
667.2510, 2290.869
669.1794, 2289.311
671.1079, 2266.286
673.0364, 2220.711
674.9648, 2184.269
676.8933, 2158.819
678.8218, 2136.939
680.7502, 2123.054
682.6787, 2102.405
684.6072, 2068.281
686.5356, 2038.523
688.4641, 2018.341
690.3926, 2001.071
692.3210, 1986.562
694.2495, 1970.718
696.1780, 1942.346
698.1064, 1921.238
700.0349, 1933.999
701.9634, 1954.765
703.8918, 1946.457
705.8203, 1920.402
707.7488, 1903.693
709.6772, 1895.298
711.6057, 1888.821
713.5342, 1884.459
715.4626, 1877.949
717.3911, 1866.537
719.3196, 1863.865
721.2480, 1873.202
723.1765, 1881.179
725.1050, 1886.142
727.0334, 1890.260
728.9619, 1890.817
730.8904, 1898.274
732.8188, 1922.817
734.7473, 1944.350
736.6758, 1945.589
738.6042, 1948.687
740.5327, 1968.123
742.4612, 1995.630
744.3896, 2030.115
746.3181, 2063.022
748.2466, 2077.221
750.1750, 2082.776
752.1035, 2107.702
754.0320, 2145.350
755.9604, 2161.240
757.8889, 2156.286
759.8174, 2157.467
761.7458, 2164.275
763.6743, 2185.093
765.6028, 2223.802
767.5313, 2247.842
769.4597, 2250.291
771.3882, 2261.183
773.3167, 2288.792
775.2451, 2311.984
777.1736, 2322.032
779.1021, 2337.820
781.0305, 2369.721
782.9590, 2400.637
784.8875, 2417.862
786.8159, 2439.826
788.7444, 2482.789
790.6729, 2524.457
792.6013, 2546.247
794.5298, 2564.775
796.4583, 2595.189
798.3867, 2630.746
800.3152, 2664.602
802.2437, 2696.752
804.1721, 2724.561
806.1006, 2751.646
808.0291, 2789.561
809.9575, 2834.581
811.8860, 2869.990
813.8145, 2898.138
815.7429, 2941.184
817.6714, 2997.595
819.5999, 3042.037
821.5283, 3074.261
823.4568, 3089.389
825.3853, 3085.579
827.3137, 3107.187
829.2422, 3162.845
831.1707, 3203.565
833.0991, 3217.631
835.0276, 3240.642
836.9561, 3284.057
838.8845, 3319.195
840.8130, 3334.957
842.7415, 3352.949
844.6699, 3378.449
846.5984, 3408.271
848.5269, 3442.861
850.4553, 3478.853
852.3838, 3515.899
854.3123, 3552.502
856.2407, 3586.217
858.1692, 3621.889
860.0977, 3665.755
862.0261, 3708.470
863.9546, 3735.564
865.8831, 3768.690
867.8115, 3836.191
869.7400, 3907.710
871.6685, 3948.572
873.5969, 3980.868
875.5254, 4027.571
877.4539, 4084.325
879.3823, 4145.558
881.3108, 4212.192
883.2393, 4290.574
885.1677, 4372.230
887.0962, 4438.101
889.0247, 4495.887
890.9531, 4565.610
892.8816, 4641.562
894.8101, 4704.497
896.7385, 4761.799
898.6670, 4836.930
900.5955, 4926.822
902.5239, 5021.358
904.4524, 5117.851
906.3809, 5204.105
908.3093, 5280.863
910.2378, 5354.735
912.1663, 5426.486
914.0947, 5505.739
916.0232, 5591.480
917.9517, 5661.850
919.8801, 5716.483
921.8086, 5796.853
923.7371, 5906.551
925.6655, 5997.758
927.5940, 6066.405
929.5225, 6136.229
931.4509, 6208.262
933.3794, 6293.377
935.3079, 6396.567
937.2363, 6489.007
939.1648, 6565.402
941.0933, 6646.336
943.0217, 6730.925
944.9502, 6828.303
946.8787, 6943.070
948.8071, 7054.351
950.7356, 7159.316
952.6641, 7262.353
954.5925, 7365.231
956.5210, 7460.479
958.4495, 7534.427
960.3779, 7633.061
962.3064, 7780.587
964.2349, 7908.284
966.1633, 8006.141
968.0918, 8098.666
970.0203, 8172.512
971.9487, 8269.633
973.8772, 8398.498
975.8057, 8537.826
977.7341, 8708.423
979.6626, 8846.793
981.5911, 8920.683
983.5195, 9016.197
985.4480, 9150.955
987.3765, 9284.007
989.3049, 9420.490
991.2334, 9540.889
993.1619, 9637.252
995.0903, 9730.410
997.0188, 9814.438
998.9473, 9909.245
1000.876, 10021.38
1002.804, 10131.69
1004.733, 10241.43
1006.661, 10341.63
1008.590, 10419.62
1010.518, 10520.82
1012.447, 10666.58
1014.375, 10788.93
1016.303, 10867.20
1018.232, 10969.06
1020.160, 11106.33
1022.089, 11240.49
1024.017, 11363.23
1025.946, 11499.99
1027.874, 11654.76
1029.803, 11813.20
1031.731, 11974.94
1033.660, 12141.84
1035.588, 12308.81
1037.517, 12508.00
1039.445, 12748.31
1041.374, 12979.08
1043.302, 13197.51
1045.230, 13411.51
1047.159, 13616.91
1049.087, 13850.94
1051.016, 14116.12
1052.944, 14387.64
1054.873, 14666.78
1056.801, 14920.98
1058.730, 15153.15
1060.658, 15466.59
1062.587, 15853.95
1064.515, 16207.34
1066.444, 16534.53
1068.372, 16897.53
1070.301, 17287.35
1072.229, 17658.18
1074.157, 18017.33
1076.086, 18394.61
1078.014, 18784.17
1079.943, 19180.75
1081.871, 19568.90
1083.800, 19886.59
1085.728, 20188.54
1087.657, 20609.01
1089.585, 21061.39
1091.514, 21398.95
1093.442, 21692.65
1095.371, 22030.44
1097.299, 22387.28
1099.228, 22755.35
1101.156, 23105.98
1103.084, 23380.71
1105.013, 23668.47
1106.941, 24056.11
1108.870, 24455.19
1110.798, 24787.30
1112.727, 25142.25
1114.655, 25566.53
1116.584, 26019.80
1118.512, 26488.52
1120.441, 26975.72
1122.369, 27462.96
1124.298, 28019.76
1126.226, 28681.00
1128.155, 29374.63
1130.083, 30069.98
1132.011, 30867.77
1133.940, 31798.98
1135.868, 32767.16
1137.797, 33759.50
1139.725, 34757.50
1141.654, 35755.11
1143.582, 36869.15
1145.511, 38103.13
1147.439, 39341.37
1149.368, 40578.65
1151.296, 41869.62
1153.225, 43191.04
1155.153, 44461.16
1157.082, 45636.39
1159.010, 46607.49
1160.938, 47355.71
1162.867, 47843.51
1164.795, 48071.34
1166.724, 48018.34
1168.652, 47724.74
1170.581, 47163.17
1172.509, 46478.88
1174.438, 45757.05
1176.366, 45049.47
1178.295, 44372.32
1180.223, 43758.52
1182.152, 43190.05
1184.080, 42750.39
1186.009, 42496.39
1187.937, 42336.52
1189.865, 42207.12
1191.794, 42251.67
1193.722, 42529.16
1195.651, 42876.08
1197.579, 43287.72
1199.508, 43738.38
1201.436, 44223.20
1203.365, 44833.93
1205.293, 45568.65
1207.222, 46274.96
1209.150, 46972.72
1211.079, 47807.16
1213.007, 48730.99
1214.936, 49631.78
1216.864, 50508.99
1218.792, 51351.68
1220.721, 52189.54
1222.649, 53020.32
1224.578, 53912.53
1226.506, 54969.21
1228.435, 56047.27
1230.363, 57081.94
1232.292, 58082.13
1234.220, 58989.00
1236.149, 59986.21
1238.077, 61207.47
1240.006, 62354.33
1241.934, 63366.93
1243.863, 64347.02
1245.791, 65301.21
1247.719, 66186.63
1249.648, 66998.87
1251.576, 67772.72
1253.505, 68496.54
1255.433, 69107.10
1257.362, 69610.88
1259.290, 70016.02
1261.219, 70329.52
1263.147, 70529.05
1265.076, 70678.10
1267.004, 70841.58
1268.933, 70956.12
1270.861, 70954.77
1272.790, 70947.55
1274.718, 70947.36
1276.646, 71053.39
1278.575, 71319.52
1280.503, 71598.13
1282.432, 71821.03
1284.360, 72327.43
1286.289, 73143.01
1288.217, 74094.55
1290.146, 75177.55
1292.074, 76418.45
1294.003, 77755.48
1295.931, 78987.32
1297.860, 80243.60
1299.788, 81820.72
1301.717, 83396.38
1303.645, 84674.09
1305.573, 85872.08
1307.502, 87143.48
1309.430, 88229.83
1311.359, 89024.25
1313.287, 89698.58
1315.216, 90273.70
1317.144, 90897.54
1319.073, 91596.43
1321.001, 92094.64
1322.930, 92390.50
1324.858, 92491.80
1326.787, 92426.92
1328.715, 92237.95
1330.644, 91957.84
1332.572, 91654.30
1334.500, 91248.53
1336.429, 90615.64
1338.357, 89947.02
1340.286, 89272.96
1342.214, 88710.75
1344.143, 88307.83
1346.071, 87915.16
1348.000, 87508.88
1349.928, 87293.11
1351.857, 87282.84
1353.785, 87480.51
1355.714, 87860.84
1357.642, 88373.41
1359.571, 89020.13
1361.499, 89784.23
1363.427, 90719.67
1365.356, 91962.32
1367.284, 93270.24
1369.213, 94580.84
1371.141, 95853.03
1373.070, 97080.39
1374.998, 98269.54
1376.927, 99415.05
1378.855, 100397.7
1380.784, 101238.8
1382.712, 102137.1
1384.641, 103024.8
1386.569, 103807.8
1388.498, 104440.2
1390.426, 104826.4
1392.354, 105111.1
1394.283, 105487.1
1396.211, 105613.2
1398.140, 105307.4
1400.068, 104925.1
1401.997, 104508.0
1403.925, 103888.8
1405.854, 103080.1
1407.782, 102215.0
1409.711, 101333.5
1411.639, 100547.2
1413.568, 99768.32
1415.496, 98832.59
1417.425, 97960.73
1419.353, 97288.98
1421.281, 96714.49
1423.210, 96178.38
1425.138, 95786.55
1427.067, 95550.34
1428.995, 95411.09
1430.924, 95360.98
1432.852, 95335.96
1434.781, 95361.68
1436.709, 95449.65
1438.638, 95674.77
1440.566, 96215.85
1442.495, 96727.82
1444.423, 96986.51
1446.352, 97309.55
1448.280, 97833.93
1450.208, 98254.27
1452.137, 98568.37
1454.065, 98875.65
1455.994, 99144.76
1457.922, 99234.82
1459.851, 99228.38
1461.779, 99257.27
1463.708, 99158.86
1465.636, 98771.37
1467.565, 98410.09
1469.493, 98219.70
1471.422, 97855.59
1473.350, 97287.91
1475.279, 96587.63
1477.207, 95788.88
1479.135, 94979.59
1481.064, 94180.05
1482.992, 93449.09
1484.921, 92684.44
1486.849, 91813.63
1488.778, 90923.09
1490.706, 90010.62
1492.635, 89188.98
1494.563, 88470.95
1496.492, 87838.23
1498.420, 87263.65
1500.349, 86649.73
1502.277, 86054.54
1504.206, 85582.28
1506.134, 85100.45
1508.063, 84504.57
1509.991, 84044.67
1511.919, 83792.35
1513.848, 83422.08
1515.776, 82915.66
1517.705, 82458.38
1519.633, 82004.88
1521.562, 81469.19
1523.490, 80872.27
1525.419, 80236.25
1527.347, 79531.86
1529.276, 78741.63
1531.204, 77906.98
1533.133, 77035.61
1535.061, 76256.47
1536.990, 75501.46
1538.918, 74487.45
1540.846, 73405.26
1542.775, 72507.03
1544.703, 71606.97
1546.632, 70624.41
1548.560, 69571.83
1550.489, 68438.69
1552.417, 67498.65
1554.346, 66721.73
1556.274, 65846.05
1558.203, 64991.05
1560.131, 64373.47
1562.060, 63799.76
1563.988, 63161.47
1565.917, 62501.03
1567.845, 61818.29
1569.773, 61202.63
1571.702, 60658.28
1573.630, 60174.36
1575.559, 59729.73
1577.487, 59290.25
1579.416, 58865.61
1581.344, 58496.26
1583.273, 58049.84
1585.201, 57479.37
1587.130, 56971.64
1589.058, 56518.74
1590.987, 55996.83
1592.915, 55433.66
1594.844, 54877.18
1596.772, 54297.36
1598.700, 53639.81
1600.629, 53023.30
1602.557, 52484.70
1604.486, 51867.45
1606.414, 51180.35
1608.343, 50497.54
1610.271, 49822.68
1612.200, 49169.56
1614.128, 48511.74
1616.057, 47824.69
1617.985, 47162.10
1619.914, 46531.04
1621.842, 45932.29
1623.771, 45348.83
1625.699, 44721.83
1627.627, 44084.43
1629.556, 43446.79
1631.484, 42858.41
1633.413, 42349.46
1635.341, 41849.65
1637.270, 41353.25
1639.198, 40876.42
1641.127, 40410.32
1643.055, 39946.54
1644.984, 39472.35
1646.912, 38970.80
1648.841, 38497.88
1650.769, 38072.02
1652.698, 37644.96
1654.626, 37211.26
1656.554, 36745.65
1658.483, 36275.75
1660.411, 35828.16
1662.340, 35378.13
1664.268, 34919.46
1666.197, 34435.18
1668.125, 33925.00
1670.054, 33379.48
1671.982, 32842.02
1673.911, 32382.66
1675.839, 31967.23
1677.768, 31597.03
1679.696, 31184.77
1681.625, 30718.70
1683.553, 30275.77
1685.481, 29866.52
1687.410, 29527.88
1689.338, 29205.10
1691.267, 28873.56
1693.195, 28500.77
1695.124, 28080.41
1697.052, 27747.54
1698.981, 27480.38
1700.909, 27200.43
1702.838, 26915.36
1704.766, 26626.11
1706.695, 26343.68
1708.623, 26070.08
1710.552, 25773.33
1712.480, 25469.10
1714.408, 25244.06
1716.337, 25018.45
1718.265, 24699.35
1720.194, 24386.33
1722.122, 24107.05
1724.051, 23805.84
1725.979, 23493.36
1727.908, 23222.78
1729.836, 22972.75
1731.765, 22724.71
1733.693, 22481.39
1735.622, 22250.11
1737.550, 21962.23
1739.479, 21647.30
1741.407, 21459.93
1743.335, 21290.85
1745.264, 21030.60
1747.192, 20760.66
1749.121, 20491.44
1751.049, 20279.36
1752.978, 20111.52
1754.906, 19957.12
1756.835, 19780.84
1758.763, 19515.79
1760.692, 19301.59
1762.620, 19192.72
1764.549, 19029.58
1766.477, 18835.67
1768.406, 18682.95
1770.334, 18545.78
1772.262, 18423.82
1774.191, 18258.35
1776.119, 18024.51
1778.048, 17902.30
1779.976, 17834.64
1781.905, 17699.20
1783.833, 17557.47
1785.762, 17440.91
1787.690, 17322.57
1789.619, 17200.54
1791.547, 17109.77
1793.476, 17038.08
1795.404, 16970.63
1797.333, 16905.90
1799.261, 16839.17
1801.189, 16805.03
1803.118, 16800.99
1805.046, 16818.13
1806.975, 16842.86
1808.903, 16857.07
1810.832, 16899.21
1812.760, 16980.08
1814.689, 17102.48
1816.617, 17249.35
1818.546, 17388.40
1820.474, 17524.05
1822.403, 17649.31
1824.331, 17812.78
1826.260, 18014.27
1828.188, 18199.73
1830.116, 18356.22
1832.045, 18424.95
1833.973, 18553.04
1835.902, 18780.47
1837.830, 18947.18
1839.759, 19056.88
1841.687, 19167.52
1843.616, 19224.43
1845.544, 19192.32
1847.473, 19106.57
1849.401, 18970.82
1851.330, 18795.21
1853.258, 18588.88
1855.187, 18368.03
1857.115, 18096.28
1859.043, 17757.91
1860.972, 17521.94
1862.900, 17371.28
1864.829, 17237.70
1866.757, 17129.08
1868.686, 17066.14
1870.614, 16974.44
1872.543, 16868.02
1874.471, 16861.55
1876.400, 16890.76
1878.328, 16881.67
1880.257, 16920.32
1882.185, 17021.00
1884.114, 17143.47
1886.042, 17272.51
1887.970, 17380.96
1889.899, 17511.21
1891.827, 17666.59
1893.756, 17901.87
1895.684, 18191.54
1897.613, 18450.43
1899.541, 18680.23
1901.470, 18877.53
1903.398, 19084.77
1905.327, 19296.38
1907.255, 19439.56
1909.184, 19565.71
1911.112, 19688.25
1913.041, 19948.45
1914.969, 20361.68
1916.897, 20835.38
1918.826, 21287.33
1920.754, 21666.84
1922.683, 21794.98
1924.611, 21586.01
1926.540, 21123.23
1928.468, 20458.84
1930.397, 19641.05
1932.325, 18820.63
1934.254, 18046.73
1936.182, 17495.17
1938.111, 17128.56
1940.039, 16873.02
1941.968, 16780.61
1943.896, 16872.49
1945.824, 17068.68
1947.753, 17338.85
1949.681, 17604.71
1951.610, 17891.77
1953.538, 18232.49
1955.467, 18484.98
1957.395, 18660.77
1959.324, 18889.05
1961.252, 19169.10
1963.181, 19501.42
1965.109, 19863.87
1967.038, 20210.04
1968.966, 20402.36
1970.895, 20510.73
1972.823, 20587.48
1974.751, 20543.25
1976.680, 20372.85
1978.608, 20095.63
1980.537, 19776.56
1982.465, 19468.47
1984.394, 19116.88
1986.322, 18738.48
1988.251, 18417.05
1990.179, 18118.31
1992.108, 17824.30
1994.036, 17500.47
1995.965, 17149.25
1997.893, 16848.83
1999.822, 16549.74
2001.750, 16179.93
2003.678, 15814.49
2005.607, 15478.54
2007.535, 15245.31
2009.464, 15058.11
2011.392, 14886.59
2013.321, 14696.92
2015.249, 14508.50
2017.178, 14390.02
2019.106, 14283.49
2021.035, 14195.64
2022.963, 14040.11
2024.892, 13818.91
2026.820, 13633.67
2028.749, 13420.68
2030.677, 13120.63
2032.605, 12815.41
2034.534, 12516.08
2036.462, 12248.18
2038.391, 11994.93
2040.319, 11733.58
2042.248, 11493.14
2044.176, 11263.58
2046.105, 11010.84
2048.033, 10752.23
2049.962, 10484.95
2051.890, 10285.74
2053.819, 10114.16
2055.747, 9867.323
2057.676, 9656.791
2059.604, 9514.979
2061.532, 9329.135
2063.461, 9128.831
2065.389, 8960.729
2067.318, 8831.137
2069.246, 8725.716
2071.175, 8608.576
2073.103, 8510.846
2075.032, 8437.123
2076.960, 8356.009
2078.889, 8267.796
2080.817, 8141.714
2082.746, 8028.673
2084.674, 7949.792
2086.603, 7821.058
2088.531, 7680.567
2090.459, 7586.901
2092.388, 7505.761
2094.316, 7442.337
2096.245, 7354.811
2098.173, 7245.150
2100.102, 7124.336
2102.030, 7012.085
2103.959, 6916.685
2105.887, 6821.765
2107.816, 6707.805
2109.744, 6582.242
2111.673, 6466.064
2113.601, 6350.752
2115.530, 6266.777
2117.458, 6182.011
2119.386, 6071.590
2121.315, 5951.986
2123.243, 5823.638
2125.172, 5669.935
2127.100, 5549.077
2129.029, 5470.821
2130.957, 5365.823
2132.886, 5249.173
2134.814, 5125.463
2136.743, 5015.447
2138.671, 4926.066
2140.600, 4845.801
2142.528, 4766.730
2144.457, 4699.366
2146.385, 4613.710
2148.313, 4529.988
2150.242, 4472.409
2152.170, 4408.864
2154.099, 4337.111
2156.027, 4285.666
2157.956, 4242.203
2159.884, 4184.735
2161.813, 4135.669
2163.741, 4096.015
2165.670, 4051.801
2167.598, 4013.037
2169.527, 3971.644
2171.455, 3930.897
2173.384, 3894.136
2175.312, 3845.741
2177.240, 3812.777
2179.169, 3794.269
2181.097, 3767.771
2183.026, 3724.593
2184.954, 3662.457
2186.883, 3640.555
2188.811, 3620.221
2190.740, 3552.509
2192.668, 3504.673
2194.597, 3474.157
2196.525, 3427.316
2198.454, 3379.239
2200.382, 3331.874
2202.311, 3303.579
2204.239, 3280.549
2206.167, 3241.138
2208.096, 3203.230
2210.024, 3166.419
2211.953, 3119.093
2213.881, 3069.942
2215.810, 3023.418
2217.738, 2991.224
2219.667, 2960.064
2221.595, 2908.295
2223.524, 2872.834
2225.452, 2851.781
2227.381, 2824.568
2229.309, 2798.577
2231.238, 2777.069
2233.166, 2746.801
2235.094, 2707.973
2237.023, 2652.952
2238.951, 2614.868
2240.880, 2592.391
2242.808, 2582.575
2244.737, 2563.694
2246.665, 2527.766
2248.594, 2516.120
2250.522, 2506.655
2252.451, 2484.609
2254.379, 2456.615
2256.308, 2425.409
2258.236, 2399.829
2260.165, 2384.034
2262.093, 2374.273
2264.021, 2366.459
2265.950, 2367.160
2267.878, 2376.613
2269.807, 2377.109
2271.735, 2368.320
2273.664, 2346.526
2275.592, 2341.170
2277.521, 2343.067
2279.449, 2320.874
2281.378, 2302.864
2283.306, 2287.148
2285.235, 2308.339
2287.163, 2318.617
2289.092, 2272.635
2291.020, 2268.816
2292.948, 2282.465
2294.877, 2258.683
2296.805, 2261.280
2298.734, 2274.554
2300.662, 2242.432
2302.591, 2236.975
2304.519, 2261.714
2306.448, 2237.443
2308.376, 2197.830
2310.305, 2157.538
2312.233, 2131.365
2314.162, 2115.744
2316.090, 2098.855
2318.019, 2070.471
2319.947, 2034.574
2321.875, 2010.496
2323.804, 1982.395
2325.732, 1947.193
2327.661, 1922.257
2329.589, 1903.081
2331.518, 1874.571
2333.446, 1848.287
2335.375, 1825.264
2337.303, 1807.323
2339.232, 1777.374
2341.160, 1739.013
2343.089, 1722.919
2345.017, 1698.552
2346.946, 1657.935
2348.874, 1628.802
2350.802, 1613.909
2352.731, 1612.500
2354.659, 1602.941
2356.588, 1585.868
2358.516, 1564.720
2360.445, 1542.247
2362.373, 1515.705
2364.302, 1512.007
2366.230, 1482.771
2368.159, 1437.589
2370.087, 1417.692
2372.016, 1393.490
2373.944, 1363.024
2375.873, 1344.316
2377.801, 1316.713
2379.729, 1286.363
2381.658, 1275.043
2383.586, 1261.315
2385.515, 1227.170
2387.443, 1204.325
2389.372, 1191.323
2391.300, 1169.529
2393.229, 1148.610
2395.157, 1129.361
2397.086, 1105.322
2399.014, 1090.633
2400.943, 1079.699
2402.871, 1062.814
2404.800, 1039.536
2406.728, 1020.684
2408.656, 1005.085
2410.585, 989.2982
2412.513, 984.4446
2414.442, 988.3816
2416.370, 979.7413
2418.299, 954.3403
2420.227, 941.5353
2422.156, 926.1556
2424.084, 904.1567
2426.013, 897.8143
2427.941, 897.4412
2429.870, 881.2971
2431.798, 863.0775
2433.727, 857.6094
2435.655, 849.0113
2437.583, 838.1938
2439.512, 827.1939
2441.440, 807.5975
2443.369, 798.0226
2445.297, 788.3412
2447.226, 784.9919
2449.154, 780.1393
2451.083, 762.6479
2453.011, 755.2237
2454.940, 756.0578
2456.868, 742.9594
2458.797, 733.1355
2460.725, 726.0273
2462.654, 712.8607
2464.582, 698.5021
2466.510, 697.2924
2468.439, 705.1839
2470.367, 702.2059
2472.296, 692.6972
2474.224, 690.3746
2476.153, 684.4665
2478.081, 671.1049
2480.010, 669.1504
2481.938, 675.5812
2483.867, 665.4099
2485.795, 657.9526
2487.724, 658.9634
2489.652, 655.7362
2491.581, 641.7554
2493.509, 626.3950
2495.438, 626.6804
2497.366, 625.0243
2499.294, 626.4814
2501.223, 621.6462
2503.151, 604.8290
2505.080, 599.1252
2507.008, 596.1719
2508.937, 594.3949
2510.865, 593.8592
2512.794, 583.5372
2514.722, 573.8939
2516.651, 572.5222
2518.579, 566.7661
2520.508, 556.6848
2522.436, 560.0905
2524.365, 560.5303
2526.293, 550.4575
2528.221, 548.2460
2530.150, 542.0421
2532.078, 543.3747
2534.007, 538.5023
2535.935, 531.1794
2537.864, 531.1285
2539.792, 525.2217
2541.721, 518.5720
2543.649, 504.0794
2545.578, 500.7134
2547.506, 509.5998
2549.435, 517.0474
2551.363, 508.0571
2553.292, 499.7192
2555.220, 498.0907
2557.148, 497.9296
2559.077, 498.5227
2561.005, 496.1286
2562.934, 487.6154
2564.862, 485.7492
2566.791, 485.4533
2568.719, 479.8028
2570.648, 471.7511
2572.576, 462.2260
2574.505, 468.7762
2576.433, 469.1934
2578.362, 462.5110
2580.290, 452.9537
2582.219, 447.4546
2584.147, 444.8870
2586.075, 437.4151
2588.004, 429.6511
2589.932, 424.9311
2591.861, 439.4031
2593.789, 434.8692
2595.718, 414.2928
2597.646, 415.1507
2599.575, 414.1326
2601.503, 410.8138
2603.432, 411.0588
2605.360, 406.6776
2607.289, 403.1175
2609.217, 399.4981
2611.146, 398.7669
2613.074, 398.5376
2615.002, 389.1305
2616.931, 384.6130
2618.859, 381.3145
2620.788, 380.5298
2622.716, 380.6884
2624.645, 379.6501
2626.573, 375.1448
2628.502, 368.1697
2630.430, 366.6646
2632.359, 376.1847
2634.287, 375.0004
2636.216, 368.7438
2638.144, 363.2730
2640.073, 361.3031
2642.001, 363.9646
2643.929, 369.6951
2645.858, 360.1410
2647.786, 351.3990
2649.715, 349.2030
2651.643, 348.9545
2653.572, 352.3958
2655.500, 356.9438
2657.429, 352.7621
2659.357, 349.9523
2661.286, 346.8067
2663.214, 332.4784
2665.143, 328.4614
2667.071, 332.1190
2669.000, 339.6862
2670.928, 332.1510
2672.856, 321.5652
2674.785, 321.3256
2676.713, 323.0251
2678.642, 321.7864
2680.570, 315.2630
2682.499, 310.5437
2684.427, 308.7885
2686.356, 311.5538
2688.284, 307.7022
2690.213, 307.5738
2692.141, 313.6667
2694.070, 309.4338
2695.998, 304.5159
2697.927, 302.2567
2699.855, 301.1107
2701.783, 304.5906
2703.712, 308.7568
2705.640, 312.4225
2707.569, 308.3618
2709.497, 302.6319
2711.426, 305.2550
2713.354, 304.7108
2715.283, 303.7932
2717.211, 304.6431
2719.140, 307.0311
2721.068, 312.1150
2722.997, 316.8308
2724.925, 316.2405
2726.854, 312.4544
2728.782, 308.4055
2730.710, 307.3014
2732.639, 315.5025
2734.567, 321.5127
2736.496, 316.3721
2738.424, 317.2645
2740.353, 315.2679
2742.281, 306.5045
2744.210, 307.3885
2746.138, 308.9346
2748.067, 314.7713
2749.995, 320.6102
2751.924, 323.5396
2753.852, 328.2088
2755.781, 329.0471
2757.709, 322.2698
2759.637, 322.9758
2761.566, 338.8495
2763.494, 339.9120
2765.423, 339.5882
2767.351, 335.6655
2769.280, 332.1993
2771.208, 346.5768
2773.137, 362.8196
2775.065, 355.8683
2776.994, 361.8101
2778.922, 365.9485
2780.851, 350.8454
2782.779, 360.5557
2784.708, 371.6867
2786.636, 371.9034
2788.564, 368.2523
2790.493, 369.6080
2792.421, 385.1779
2794.350, 386.6593
2796.278, 387.2986
2798.207, 390.1876
2800.135, 387.4402
2802.064, 390.3318
2803.992, 400.1478
2805.921, 402.9781
2807.849, 403.4290
2809.778, 409.8900
2811.706, 409.7017
2813.635, 408.0428
2815.563, 415.7408
2817.491, 418.2493
2819.420, 418.9523
2821.348, 417.4090
2823.277, 412.7712
2825.205, 421.5535
2827.134, 415.2872
2829.062, 413.4804
2830.991, 421.1528
2832.919, 425.1204
2834.848, 423.0361
2836.776, 418.8299
2838.705, 423.4101
2840.633, 421.1260
2842.562, 422.0453
2844.490, 429.0486
2846.418, 423.2199
2848.347, 430.7786
2850.275, 437.1202
2852.204, 444.3994
2854.132, 447.7458
2856.061, 448.6244
2857.989, 458.5726
2859.918, 450.4096
2861.846, 452.5817
2863.775, 455.2973
2865.703, 461.6947
2867.632, 480.6296
2869.560, 487.8780
2871.489, 476.6672
2873.417, 473.1887
2875.345, 477.3550
2877.274, 488.1320
2879.202, 492.8438
2881.131, 493.2496
2883.059, 501.7898
2884.988, 505.4971
2886.916, 507.7426
2888.845, 512.7712
2890.773, 514.0013
2892.702, 515.4345
2894.630, 520.1149
2896.559, 532.3746
2898.487, 533.5540
2900.416, 527.3422
2902.344, 525.1025
2904.272, 530.3018
2906.201, 537.9803
2908.129, 541.5398
2910.058, 551.1061
2911.986, 559.4719
2913.915, 553.2004
2915.843, 558.7347
2917.772, 567.3679
2919.700, 560.9624
2921.629, 569.2134
2923.557, 576.4975
2925.486, 562.8658
2927.414, 579.5585
2929.343, 607.8172
2931.271, 604.0414
2933.199, 613.9445
2935.128, 626.2892
2937.056, 626.2070
2938.985, 638.4960
2940.913, 649.7007
2942.842, 652.0114
2944.770, 648.2842
2946.699, 657.9478
2948.627, 670.7989
2950.556, 680.5579
2952.484, 672.5070
2954.413, 691.1312
2956.341, 702.8117
2958.270, 700.5673
2960.198, 709.7860
2962.126, 716.1940
2964.055, 723.6032
2965.983, 731.7338
2967.912, 742.5698
2969.840, 757.7204
2971.769, 766.2927
2973.697, 783.2378
2975.626, 796.4645
2977.554, 802.6492
2979.483, 807.4019
2981.411, 821.5686
2983.340, 832.7935
2985.268, 845.7775
2987.197, 862.0284
2989.125, 884.1595
2991.053, 905.6818
2992.982, 922.0006
2994.910, 927.9001
2996.839, 953.7560
2998.767, 984.0127
3000.696, 1008.238
3002.624, 1017.647
3004.553, 1040.124
3006.481, 1075.503
3008.410, 1108.943
3010.338, 1123.338
3012.267, 1144.099
3014.195, 1174.560
3016.124, 1194.314
3018.052, 1212.136
3019.980, 1224.736
3021.909, 1229.104
3023.837, 1263.834
3025.766, 1286.715
3027.694, 1302.365
3029.623, 1330.845
3031.551, 1361.725
3033.480, 1382.375
3035.408, 1398.368
3037.337, 1419.674
3039.265, 1422.565
3041.194, 1445.684
3043.122, 1487.349
3045.051, 1496.944
3046.979, 1535.020
3048.907, 1579.200
3050.836, 1609.817
3052.764, 1620.177
3054.693, 1652.426
3056.621, 1697.204
3058.550, 1741.857
3060.478, 1776.322
3062.407, 1815.666
3064.335, 1859.137
3066.264, 1902.014
3068.192, 1976.808
3070.121, 2034.163
3072.049, 2082.220
3073.978, 2161.181
3075.906, 2251.537
3077.834, 2335.137
3079.763, 2410.689
3081.691, 2489.072
3083.620, 2599.771
3085.548, 2716.507
3087.477, 2817.656
3089.405, 2860.724
3091.334, 2940.945
3093.262, 3025.287
3095.191, 3093.826
3097.119, 3176.189
3099.048, 3205.251
3100.976, 3240.369
3102.905, 3318.034
3104.833, 3401.743
3106.761, 3453.946
3108.690, 3495.133
3110.618, 3539.915
3112.547, 3539.431
3114.475, 3533.846
3116.404, 3522.917
3118.332, 3511.757
3120.261, 3482.878
3122.189, 3430.512
3124.118, 3379.180
3126.046, 3337.487
3127.975, 3279.945
3129.903, 3212.095
3131.832, 3148.782
3133.760, 3105.874
3135.688, 3065.277
3137.617, 3024.779
3139.545, 2967.248
3141.474, 2898.619
3143.402, 2867.514
3145.331, 2822.430
3147.259, 2775.813
3149.188, 2740.323
3151.116, 2719.966
3153.045, 2710.154
3154.973, 2716.423
3156.902, 2724.496
3158.830, 2708.107
3160.759, 2701.819
3162.687, 2689.227
3164.615, 2670.816
3166.544, 2637.690
3168.472, 2624.868
3170.401, 2621.520
3172.329, 2632.640
3174.258, 2656.199
3176.186, 2694.407
3178.115, 2741.244
3180.043, 2806.940
3181.972, 2902.288
3183.900, 2997.691
3185.829, 3042.845
3187.757, 3015.534
3189.686, 2958.576
3191.614, 2878.368
3193.542, 2794.186
3195.471, 2712.560
3197.399, 2613.563
3199.328, 2604.839
3201.256, 2640.715
3203.185, 2682.775
3205.113, 2699.544
3207.042, 2751.991
3208.970, 2816.982
3210.899, 2876.601
3212.827, 2912.632
3214.756, 2961.114
3216.684, 3002.677
3218.613, 3017.905
3220.541, 3018.129
3222.469, 2995.712
3224.398, 2963.100
3226.326, 2942.142
3228.255, 2936.216
3230.183, 2963.111
3232.112, 2927.249
3234.040, 2906.683
3235.969, 2935.260
3237.897, 2968.542
3239.826, 2984.870
3241.754, 3001.788
3243.683, 3007.342
3245.611, 2997.019
3247.540, 3044.837
3249.468, 3111.159
3251.396, 3167.311
3253.325, 3200.788
3255.253, 3225.837
3257.182, 3302.381
3259.110, 3347.125
3261.039, 3349.678
3262.967, 3379.707
3264.896, 3387.002
3266.824, 3378.568
3268.753, 3360.954
3270.681, 3320.469
3272.610, 3187.611
3274.538, 3154.050
3276.467, 3109.424
3278.395, 2996.778
3280.323, 2920.096
3282.252, 2875.307
3284.180, 2847.265
3286.109, 2824.687
3288.037, 2801.952
3289.966, 2719.854
3291.894, 2704.953
3293.823, 2702.065
3295.751, 2674.786
3297.680, 2642.632
3299.608, 2622.413
3301.537, 2589.929
3303.465, 2552.625
3305.394, 2529.143
3307.322, 2438.839
3309.250, 2388.914
3311.179, 2318.985
3313.107, 2198.217
3315.036, 2168.133
3316.964, 2133.352
3318.893, 2088.579
3320.821, 2034.704
3322.750, 1970.234
3324.678, 1949.324
3326.607, 1907.435
3328.535, 1847.247
3330.464, 1795.087
3332.392, 1807.790
3334.321, 1772.070
3336.249, 1717.079
3338.177, 1668.739
3340.106, 1635.080
3342.034, 1579.652
3343.963, 1572.899
3345.891, 1556.443
3347.820, 1516.230
3349.748, 1481.308
3351.677, 1423.261
3353.605, 1408.621
3355.534, 1389.323
3357.462, 1337.245
3359.391, 1304.211
3361.319, 1253.227
3363.248, 1206.625
3365.176, 1179.720
3367.104, 1177.022
3369.033, 1171.387
3370.961, 1142.638
3372.890, 1119.261
3374.818, 1098.315
3376.747, 1060.313
3378.675, 1007.223
3380.604, 977.8910
3382.532, 972.6925
3384.461, 965.9339
3386.389, 918.1976
3388.318, 920.8949
3390.246, 895.5205
3392.175, 874.2755
3394.103, 873.3929
3396.031, 847.1367
3397.960, 834.0734
3399.888, 820.9844
3401.817, 795.9990
3403.745, 764.8085
3405.674, 759.7078
3407.602, 755.5378
3409.531, 737.8934
3411.459, 712.9263
3413.388, 693.5325
3415.316, 696.6400
3417.245, 685.8284
3419.173, 661.1332
3421.102, 645.5270
3423.030, 649.9888
3424.958, 626.2838
3426.887, 600.7320
3428.815, 595.6602
3430.744, 584.6681
3432.672, 548.3002
3434.601, 558.8682
3436.529, 539.7037
3438.458, 531.5912
3440.386, 538.1313
3442.315, 540.2024
3444.243, 506.8441
3446.172, 499.9393
3448.100, 501.1327
3450.029, 494.7174
3451.957, 478.5089
3453.885, 474.9471
3455.814, 472.1833
3457.742, 469.1568
3459.671, 458.4710
3461.599, 441.1167
3463.528, 445.6351
3465.456, 430.0547
3467.385, 431.9539
3469.313, 433.4877
3471.242, 425.0896
3473.170, 440.4832
3475.099, 429.8841
3477.027, 425.3016
3478.956, 417.6297
3480.884, 406.9262
3482.813, 411.8851
3484.741, 412.0112
3486.669, 404.0234
3488.598, 405.4715
3490.526, 407.8082
3492.455, 391.1967
3494.383, 389.2212
3496.312, 388.2200
3498.240, 388.0549
3500.169, 386.8761
3502.097, 384.8685
3504.026, 392.7306
3505.954, 389.7192
3507.883, 392.7481
3509.811, 394.4822
3511.740, 386.8567
3513.668, 372.9091
3515.596, 367.3774
3517.525, 362.8896
3519.453, 358.7453
3521.382, 353.0424
3523.310, 343.6977
3525.239, 332.8448
3527.167, 344.9829
3529.096, 344.4843
3531.024, 343.9591
3532.953, 352.3917
3534.881, 334.2265
3536.810, 340.1745
3538.738, 348.5378
3540.667, 342.8462
3542.595, 331.9628
3544.523, 334.6544
3546.452, 347.0710
3548.380, 343.0506
3550.309, 338.0976
3552.237, 341.1108
3554.166, 346.6522
3556.094, 336.5032
3558.023, 318.9065
3559.951, 313.4837
3561.880, 324.2766
3563.808, 336.2482
3565.737, 332.9694
3567.665, 317.2043
3569.594, 338.5145
3571.522, 336.4321
3573.450, 322.8975
3575.379, 314.4568
3577.307, 312.9222
3579.236, 320.0656
3581.164, 306.6769
3583.093, 301.1445
3585.021, 302.2507
3586.950, 302.9720
3588.878, 303.0988
3590.807, 285.5189
3592.735, 278.5620
3594.664, 276.2395
3596.592, 273.8284
3598.521, 270.2346
3600.449, 265.6693
3602.377, 271.3955
3604.306, 262.7183
3606.234, 267.8354
3608.163, 264.1183
3610.091, 244.4110
3612.020, 270.5830
3613.948, 271.2951
3615.877, 270.8759
3617.805, 270.7060
3619.734, 265.9783
3621.662, 257.4035
3623.591, 255.8461
3625.519, 257.8511
3627.448, 245.3087
3629.376, 244.9877
3631.304, 256.2896
3633.233, 265.5092
3635.161, 264.3021
3637.090, 271.1716
3639.018, 262.1162
3640.947, 256.0766
3642.875, 253.3677
3644.804, 247.1590
3646.732, 237.2007
3648.661, 238.9398
3650.589, 237.3671
3652.518, 236.8055
3654.446, 231.0621
3656.375, 223.3463
3658.303, 224.3788
3660.231, 228.0752
3662.160, 220.4714
3664.088, 216.4668
3666.017, 219.0603
3667.945, 220.9842
3669.874, 209.8042
3671.802, 174.8914
3673.731, 185.0831
3675.659, 209.6485
3677.588, 208.7266
3679.516, 200.1401
3681.445, 203.5357
3683.373, 206.7924
3685.302, 201.0476
3687.230, 189.9148
3689.158, 188.4475
3691.087, 192.2225
3693.015, 190.5620
3694.944, 183.4521
3696.872, 199.0721
3698.801, 184.3425
3700.729, 191.8685
3702.658, 184.9437
3704.586, 176.9043
3706.515, 178.1374
3708.443, 173.5658
3710.372, 175.9768
3712.300, 167.4496
3714.229, 170.2703
3716.157, 168.3600
3718.085, 161.9088
3720.014, 154.0141
3721.942, 137.1650
3723.871, 134.6363
3725.799, 137.5846
3727.728, 140.8777
3729.656, 136.2342
3731.585, 132.3708
3733.513, 137.2519
3735.442, 140.0047
3737.370, 133.1003
3739.299, 121.7882
3741.227, 117.8997
3743.156, 121.3693
3745.084, 117.9376
3747.012, 111.1787
3748.941, 130.5689
3750.869, 124.5945
3752.798, 116.6355
3754.726, 121.6917
3756.655, 120.2170
3758.583, 121.0598
3760.512, 128.5247
3762.440, 118.7944
3764.369, 117.7586
3766.297, 114.1839
3768.226, 115.3461
3770.154, 112.5332
3772.083, 109.7489
3774.011, 112.2750
3775.939, 116.4965
3777.868, 113.6086
3779.796, 98.44218
3781.725, 90.25195
3783.653, 90.61463
3785.582, 88.85438
3787.510, 85.58580
3789.439, 86.93538
3791.367, 88.02168
3793.296, 78.39442
3795.224, 83.88148
3797.153, 91.75410
3799.081, 84.26902
3801.010, 76.64227
3802.938, 79.06842
3804.866, 81.51320
3806.795, 89.93119
3808.723, 78.41428
3810.652, 81.93272
3812.580, 84.93833
3814.509, 85.33960
3816.437, 82.56291
3818.366, 77.34266
3820.294, 77.20459
3822.223, 92.18527
3824.151, 76.26215
3826.080, 78.21822
3828.008, 75.83432
3829.937, 74.40384
3831.865, 72.00645
3833.793, 63.36428
3835.722, 59.30044
3837.650, 65.58261
3839.579, 68.88598
3841.507, 73.69333
3843.436, 75.41204
3845.364, 73.15829
3847.293, 73.85154
3849.221, 78.93806
3851.150, 81.57009
3853.078, 85.79884
3855.007, 67.36320
3856.935, 71.89508
3858.864, 68.19399
3860.792, 69.88844
3862.720, 67.98416
3864.649, 59.91942
3866.577, 61.71391
3868.506, 67.71595
3870.434, 64.80798
3872.363, 62.77836
3874.291, 53.14802
3876.220, 58.83822
3878.148, 68.68314
3880.077, 68.29882
3882.005, 69.42571
3883.934, 85.48790
3885.862, 63.89228
3887.791, 69.17178
3889.719, 67.58076
3891.647, 70.21268
3893.576, 61.00653
3895.504, 55.43930
3897.433, 61.83775
3899.361, 70.57711
3901.290, 75.06230
3903.218, 66.28062
3905.147, 63.06189
3907.075, 62.49794
3909.004, 59.42509
3910.932, 64.41727
3912.861, 61.76205
3914.789, 57.11300
3916.718, 62.73872
3918.646, 66.90692
3920.574, 64.03867
3922.503, 56.92507
3924.431, 70.37536
3926.360, 63.64136
3928.288, 63.03881
3930.217, 62.36498
3932.145, 67.08121
3934.074, 74.35402
3936.002, 70.64322
3937.931, 69.70439
3939.859, 75.29314
3941.788, 76.53778
3943.716, 63.72990
3945.645, 59.17006
3947.573, 71.70197
3949.501, 65.76883
3951.430, 57.62328
3953.358, 64.17003
3955.287, 64.25068
3957.215, 65.54340
3959.144, 71.62257
3961.072, 58.06621
3963.001, 70.26788
3964.929, 68.00113
3966.858, 64.90337
3968.786, 66.48679
3970.715, 67.05369
3972.643, 67.91901
3974.572, 69.45274
3976.500, 62.01599
3978.428, 56.22425
3980.357, 58.90136
3982.285, 62.11862
3984.214, 69.11581
3986.142, 62.64652
3988.071, 68.77851
3989.999, 65.41413
3991.928, 59.70681
3993.856, 61.87164
3995.785, 57.41477
3997.713, 65.72291
3999.642, 68.75439
4001.570, 60.05251
4003.499, 63.46589
4005.427, 62.42581
4007.355, 65.08253
4009.284, 63.95619
4011.212, 62.19190
4013.141, 61.64782
4015.069, 59.47092
4016.998, 59.23613
4018.926, 66.50977
4020.855, 62.88406
4022.783, 59.90191
4024.712, 52.58838
4026.640, 67.35485
4028.569, 61.56818
4030.497, 63.16969
4032.426, 65.74398
4034.354, 67.25704
4036.282, 63.62235
4038.211, 61.54486
4040.139, 67.20634
4042.068, 62.44662
4043.996, 71.26521
4045.925, 62.52845
4047.853, 59.38223
4049.782, 70.40835
4051.710, 59.41186
4053.639, 56.58633
4055.567, 59.02424
4057.496, 55.79425
4059.424, 58.94633
4061.353, 63.16406
4063.281, 60.28442
4065.209, 60.45840
4067.138, 57.67463
4069.066, 65.21509
4070.995, 61.16690
4072.923, 61.64687
4074.852, 64.45499
4076.780, 61.36182
4078.709, 63.55719
4080.637, 70.47859
4082.566, 69.74196
4084.494, 56.90011
4086.423, 56.50158
4088.351, 63.92624
4090.280, 62.23950
4092.208, 64.03168
4094.136, 54.72089
4096.065, 57.71331
4097.993, 64.03408
4099.922, 61.39724
4101.851, 61.30959
4103.779, 58.47187
4105.707, 67.26699
4107.636, 46.50590
4109.564, 35.95073
4111.493, 49.15426
4113.421, 56.81662
4115.350, 56.38673
4117.278, 62.26537
4119.207, 65.39415
4121.135, 55.57198
4123.063, 51.39245
4124.992, 52.52749
4126.920, 54.92553
4128.849, 56.57663
4130.777, 51.12001
4132.706, 59.35184
4134.634, 68.37229
4136.563, 68.51703
4138.491, 58.87927
4140.420, 56.46711
4142.348, 52.92625
4144.276, 49.57084
4146.205, 55.12688
4148.134, 62.35977
4150.062, 58.62926
4151.990, 50.49247
4153.919, 51.37656
4155.848, 51.40890
4157.776, 53.79482
4159.704, 44.13317
4161.633, 54.68752
4163.562, 65.78558
4165.490, 63.82074
4167.418, 50.29512
4169.347, 51.01907
4171.275, 55.75670
4173.204, 54.26160
4175.132, 51.41277
4177.061, 47.81580
4178.989, 52.46269
4180.917, 50.52051
4182.846, 41.73504
4184.774, 37.60867
4186.703, 41.96310
4188.631, 50.54378
4190.560, 51.31201
4192.488, 57.96864
4194.417, 57.53291
4196.345, 47.97784
4198.273, 53.95020
4200.202, 49.67934
4202.131, 49.15119
4204.059, 33.89330
4205.987, 41.34473
4207.916, 61.06218
4209.845, 60.67968
4211.773, 31.79648
4213.701, 51.40874
4215.630, 59.82716
4217.559, 51.47428
4219.487, 49.66105
4221.415, 49.59219
4223.344, 53.29762
4225.272, 44.75776
4227.201, 34.10740
4229.129, 50.51475
4231.058, 60.52967
4232.986, 53.04372
4234.915, 61.84132
4236.843, 53.31745
4238.771, 61.11686
4240.700, 45.26386
4242.628, 51.08934
4244.557, 38.66706
4246.485, 44.25923
4248.414, 49.25768
4250.342, 55.88334
4252.271, 53.54171
4254.199, 42.31948
4256.128, 54.51390
4258.056, 49.35904
4259.984, 43.15025
4261.913, 42.47503
4263.842, 49.60413
4265.770, 48.99702
4267.698, 61.29040
4269.627, 58.80447
4271.556, 40.16069
4273.484, 46.92575
4275.412, 51.08234
4277.341, 52.27932
4279.270, 45.90283
4281.198, 47.11975
4283.126, 53.08931
4285.055, 50.17146
4286.983, 55.27745
4288.912, 49.38214
4290.840, 41.16946
4292.769, 49.02398
4294.697, 41.73193
4296.625, 43.57240
4298.554, 60.46331
4300.482, 55.17427
4302.411, 39.66346
4304.339, 45.41641
4306.268, 45.99386
4308.196, 46.36485
4310.125, 53.63568
4312.053, 52.09452
4313.981, 56.89230
4315.910, 57.79627
4317.839, 49.27652
##END=



