##NAMES=Fluorapatite
##RRUFFID=R060184
##IDEAL CHEMISTRY=Ca_5_(PO_4_)_3_F
##LOCALITY=Yates mine, Otter Lake, Quebec, Canada
##OWNER=RRUFF
##SOURCE=Lloyd Twaites
##DESCRIPTION=Green colored fragment of a hexagonal prism
##STATUS=The identification of this mineral has been confirmed by X-ray diffraction and chemical analysis
##URL=https://www.rruff.net/odr/rruff_sample/R060184
##MEASURED CHEMISTRY=(Ca_0.99_Ce_0.01_)_5.00_((P_0.98_Si_0.01_S_0.01_)O_4_)_3_F_1.00_
##DIFFRACTION SAMPLE DESCRIPTION=Powder
##CELL PARAMETERS=a: 9.3828 b: 9.3828 c: 6.8976 alpha: 90 beta: 90 gamma: 120 volume: 525.88 crystal system: hexagonal
##FILETYPE=Raman RAW
##RAMAN WAVELENGTH=780

83.37718, 347.1028
85.30565, 373.1230
87.23412, 419.2148
89.16258, 499.7491
91.09105, 582.1259
93.01952, 619.3846
94.94798, 626.3944
96.87645, 630.2622
98.80492, 632.5576
100.7334, 637.0113
102.6618, 648.5894
104.5903, 655.8784
106.5188, 651.7883
108.4473, 643.2638
110.3757, 641.9959
112.3042, 646.7303
114.2327, 654.0665
116.1611, 663.7183
118.0896, 674.5770
120.0180, 686.3425
121.9465, 698.7530
123.8750, 711.4799
125.8034, 724.3574
127.7319, 736.1227
129.6604, 743.8164
131.5889, 753.8329
133.5173, 770.8441
135.4458, 789.9428
137.3743, 802.2758
139.3027, 808.5709
141.2312, 819.4819
143.1597, 842.4188
145.0881, 862.1587
147.0166, 871.9616
148.9450, 878.2503
150.8735, 888.3659
152.8020, 901.9241
154.7304, 917.5679
156.6589, 935.7213
158.5874, 955.3660
160.5158, 976.2433
162.4443, 998.4483
164.3728, 1022.680
166.3012, 1048.297
168.2297, 1073.124
170.1582, 1096.367
172.0866, 1119.914
174.0151, 1143.036
175.9436, 1167.558
177.8720, 1193.329
179.8005, 1221.561
181.7290, 1257.275
183.6574, 1307.663
185.5859, 1348.418
187.5144, 1366.750
189.4428, 1387.618
191.3713, 1429.503
193.2998, 1479.609
195.2282, 1517.759
197.1567, 1539.308
199.0852, 1565.997
201.0136, 1599.136
202.9421, 1636.369
204.8706, 1679.737
206.7990, 1724.042
208.7275, 1765.499
210.6560, 1804.095
212.5844, 1840.648
214.5129, 1871.852
216.4414, 1906.303
218.3698, 1941.546
220.2983, 1983.861
222.2268, 2043.472
224.1552, 2113.031
226.0837, 2166.209
228.0122, 2188.576
229.9406, 2227.857
231.8691, 2293.841
233.7976, 2362.835
235.7260, 2425.589
237.6545, 2483.971
239.5830, 2537.218
241.5114, 2584.476
243.4399, 2643.053
245.3684, 2718.686
247.2968, 2789.148
249.2253, 2846.414
251.1538, 2898.566
253.0822, 2946.898
255.0107, 2994.685
256.9392, 3054.821
258.8676, 3130.719
260.7961, 3198.051
262.7246, 3248.520
264.6530, 3302.661
266.5815, 3369.289
268.5100, 3444.135
270.4384, 3526.257
272.3669, 3614.189
274.2954, 3692.710
276.2238, 3758.042
278.1523, 3834.481
280.0808, 3933.166
282.0092, 4038.130
283.9377, 4138.750
285.8662, 4241.677
287.7946, 4361.823
289.7231, 4499.458
291.6516, 4636.894
293.5800, 4770.767
295.5085, 4912.288
297.4370, 5071.507
299.3654, 5231.805
301.2939, 5376.420
303.2224, 5516.270
305.1508, 5682.011
307.0793, 5871.279
309.0078, 6053.633
310.9362, 6216.321
312.8647, 6392.008
314.7932, 6597.791
316.7216, 6809.206
318.6501, 7010.248
320.5786, 7204.576
322.5070, 7399.089
324.4355, 7593.828
326.3640, 7786.210
328.2924, 7990.004
330.2209, 8166.236
332.1494, 8300.201
334.0778, 8407.954
336.0063, 8502.809
337.9348, 8581.902
339.8632, 8634.897
341.7917, 8659.996
343.7202, 8681.596
345.6486, 8712.661
347.5771, 8726.929
349.5056, 8716.199
351.4340, 8692.189
353.3625, 8660.196
355.2910, 8619.116
357.2194, 8566.216
359.1479, 8500.363
361.0764, 8440.694
363.0048, 8403.219
364.9333, 8349.877
366.8618, 8253.122
368.7902, 8164.951
370.7187, 8126.390
372.6472, 8110.911
374.5756, 8076.404
376.5041, 8020.573
378.4326, 8003.204
380.3610, 8056.899
382.2895, 8102.903
384.2180, 8121.517
386.1464, 8149.803
388.0749, 8202.144
390.0034, 8275.630
391.9318, 8370.908
393.8603, 8487.042
395.7888, 8609.388
397.7172, 8738.379
399.6457, 8873.615
401.5742, 9012.062
403.5026, 9160.425
405.4311, 9322.495
407.3596, 9495.792
409.2880, 9677.360
411.2165, 9866.438
413.1450, 10065.07
415.0734, 10277.47
417.0019, 10484.93
418.9304, 10688.79
420.8588, 10882.43
422.7873, 11098.13
424.7158, 11255.11
426.6442, 11314.35
428.5727, 11292.63
430.5012, 11196.19
432.4296, 11026.16
434.3581, 10804.69
436.2866, 10525.12
438.2150, 10259.52
440.1435, 10018.88
442.0720, 9775.584
444.0004, 9496.146
445.9289, 9238.305
447.8574, 9045.130
449.7858, 8893.441
451.7143, 8735.778
453.6428, 8571.466
455.5712, 8440.429
457.4997, 8350.244
459.4282, 8251.858
461.3566, 8127.668
463.2851, 8011.042
465.2136, 7913.901
467.1420, 7830.143
469.0705, 7765.118
470.9990, 7702.106
472.9274, 7612.641
474.8559, 7500.909
476.7844, 7384.123
478.7128, 7260.650
480.6413, 7151.683
482.5698, 7074.328
484.4982, 6988.114
486.4267, 6875.758
488.3552, 6758.511
490.2836, 6650.848
492.2121, 6546.253
494.1406, 6429.467
496.0690, 6307.201
497.9975, 6209.949
499.9260, 6143.224
501.8544, 6064.310
503.7829, 5951.535
505.7114, 5852.275
507.6398, 5778.401
509.5683, 5716.585
511.4968, 5667.692
513.4252, 5621.051
515.3537, 5557.938
517.2822, 5487.263
519.2106, 5431.650
521.1391, 5392.232
523.0676, 5354.743
524.9960, 5321.769
526.9245, 5283.952
528.8530, 5236.286
530.7814, 5190.063
532.7099, 5147.837
534.6384, 5108.986
536.5668, 5075.136
538.4953, 5042.667
540.4238, 5003.389
542.3522, 4959.706
544.2807, 4935.651
546.2092, 4944.445
548.1376, 4934.126
550.0661, 4885.673
551.9946, 4849.962
553.9230, 4841.097
555.8515, 4835.777
557.7800, 4827.702
559.7084, 4814.799
561.6369, 4792.281
563.5654, 4766.069
565.4938, 4747.100
567.4223, 4735.451
569.3508, 4725.852
571.2792, 4717.191
573.2077, 4709.502
575.1362, 4706.761
577.0646, 4699.348
578.9931, 4680.942
580.9216, 4661.020
582.8500, 4646.230
584.7785, 4631.532
586.7070, 4613.444
588.6354, 4595.587
590.5639, 4580.736
592.4924, 4566.520
594.4208, 4548.461
596.3493, 4526.736
598.2778, 4511.542
600.2062, 4503.252
602.1347, 4500.928
604.0632, 4510.455
605.9916, 4513.387
607.9201, 4492.840
609.8486, 4472.889
611.7770, 4472.847
613.7055, 4475.573
615.6340, 4456.510
617.5624, 4427.569
619.4909, 4417.180
621.4194, 4421.041
623.3478, 4421.124
625.2763, 4417.915
627.2048, 4403.365
629.1332, 4371.083
631.0617, 4347.411
632.9902, 4342.951
634.9186, 4342.609
636.8471, 4344.570
638.7756, 4343.845
640.7040, 4337.190
642.6325, 4329.245
644.5610, 4323.305
646.4894, 4318.047
648.4179, 4312.871
650.3464, 4307.221
652.2748, 4298.694
654.2033, 4287.356
656.1318, 4280.510
658.0602, 4281.628
659.9887, 4277.247
661.9172, 4259.916
663.8456, 4245.369
665.7741, 4236.466
667.7026, 4233.052
669.6310, 4243.728
671.5595, 4249.192
673.4880, 4225.849
675.4164, 4193.568
677.3449, 4180.124
679.2734, 4176.234
681.2018, 4158.707
683.1303, 4128.408
685.0588, 4106.662
686.9872, 4098.190
688.9157, 4085.606
690.8442, 4068.266
692.7726, 4044.413
694.7011, 4005.222
696.6296, 3975.011
698.5580, 3969.145
700.4865, 3961.209
702.4149, 3933.851
704.3434, 3902.418
706.2719, 3872.439
708.2003, 3847.978
710.1288, 3844.537
712.0573, 3852.476
713.9857, 3842.253
715.9142, 3814.810
717.8427, 3784.145
719.7711, 3747.750
721.6996, 3719.539
723.6281, 3702.391
725.5565, 3689.572
727.4850, 3678.918
729.4135, 3674.699
731.3419, 3681.403
733.2704, 3688.406
735.1989, 3689.522
737.1273, 3690.145
739.0558, 3698.916
740.9843, 3705.381
742.9127, 3691.817
744.8412, 3677.638
746.7697, 3694.542
748.6981, 3723.669
750.6266, 3722.796
752.5551, 3700.694
754.4835, 3698.768
756.4120, 3716.814
758.3405, 3722.144
760.2689, 3713.250
762.1974, 3714.553
764.1259, 3730.125
766.0543, 3749.140
767.9828, 3772.561
769.9113, 3784.063
771.8397, 3773.493
773.7682, 3764.732
775.6967, 3767.145
777.6251, 3770.658
779.5536, 3770.843
781.4821, 3770.886
783.4105, 3777.843
785.3390, 3780.985
787.2675, 3770.228
789.1959, 3749.527
791.1244, 3718.058
793.0529, 3684.590
794.9813, 3669.629
796.9098, 3666.106
798.8383, 3651.946
800.7667, 3628.610
802.6952, 3613.407
804.6237, 3607.464
806.5521, 3599.352
808.4806, 3588.594
810.4091, 3573.985
812.3375, 3553.371
814.2660, 3533.119
816.1945, 3516.191
818.1229, 3496.469
820.0514, 3471.508
821.9799, 3447.189
823.9083, 3424.832
825.8368, 3401.127
827.7653, 3377.519
829.6937, 3350.806
831.6222, 3312.272
833.5507, 3279.166
835.4791, 3274.676
837.4076, 3268.703
839.3361, 3223.778
841.2645, 3169.558
843.1930, 3144.706
845.1215, 3133.888
847.0499, 3110.728
848.9784, 3076.622
850.9069, 3026.854
852.8353, 2964.477
854.7638, 2929.699
856.6923, 2924.835
858.6207, 2909.997
860.5492, 2881.190
862.4777, 2855.823
864.4061, 2841.013
866.3346, 2810.911
868.2631, 2757.628
870.1915, 2710.885
872.1200, 2675.320
874.0485, 2643.808
875.9769, 2615.268
877.9054, 2587.426
879.8339, 2561.083
881.7623, 2533.877
883.6908, 2502.900
885.6193, 2474.290
887.5477, 2454.204
889.4762, 2430.918
891.4047, 2391.585
893.3331, 2357.111
895.2616, 2339.245
897.1901, 2328.615
899.1185, 2323.849
901.0470, 2317.500
902.9755, 2303.739
904.9039, 2288.246
906.8324, 2274.824
908.7609, 2261.043
910.6893, 2242.821
912.6178, 2226.400
914.5463, 2221.549
916.4747, 2225.115
918.4032, 2232.189
920.3317, 2238.969
922.2601, 2238.670
924.1886, 2234.097
926.1171, 2227.633
928.0455, 2221.166
929.9740, 2231.657
931.9025, 2251.605
933.8309, 2238.914
935.7594, 2201.366
937.6879, 2190.916
939.6163, 2205.332
941.5448, 2212.762
943.4733, 2211.782
945.4017, 2202.183
947.3302, 2183.874
949.2587, 2183.407
951.1871, 2204.410
953.1156, 2214.607
955.0441, 2209.695
956.9725, 2215.834
958.9010, 2240.320
960.8295, 2247.649
962.7579, 2230.671
964.6864, 2212.930
966.6149, 2197.077
968.5433, 2176.861
970.4718, 2146.192
972.4003, 2121.180
974.3287, 2103.802
976.2572, 2092.027
978.1857, 2088.392
980.1141, 2085.813
982.0426, 2080.043
983.9711, 2078.656
985.8995, 2086.224
987.8280, 2093.526
989.7565, 2097.601
991.6849, 2103.235
993.6134, 2110.295
995.5419, 2122.892
997.4703, 2145.556
999.3988, 2164.166
1001.327, 2171.835
1003.256, 2182.185
1005.184, 2201.192
1007.113, 2219.507
1009.041, 2234.087
1010.970, 2247.092
1012.898, 2256.079
1014.827, 2270.885
1016.755, 2297.494
1018.683, 2324.621
1020.612, 2348.805
1022.540, 2375.257
1024.469, 2404.281
1026.397, 2433.369
1028.326, 2461.131
1030.254, 2492.887
1032.183, 2533.483
1034.111, 2573.803
1036.040, 2606.979
1037.968, 2641.320
1039.897, 2682.733
1041.825, 2726.614
1043.754, 2769.378
1045.682, 2816.006
1047.610, 2870.260
1049.539, 2923.467
1051.467, 2965.226
1053.396, 3018.475
1055.324, 3100.011
1057.253, 3179.884
1059.181, 3242.785
1061.110, 3312.791
1063.038, 3399.166
1064.967, 3488.834
1066.895, 3578.218
1068.824, 3670.155
1070.752, 3767.677
1072.681, 3866.417
1074.609, 3951.977
1076.537, 4060.062
1078.466, 4213.572
1080.394, 4368.683
1082.323, 4510.718
1084.251, 4660.090
1086.180, 4815.050
1088.108, 4986.876
1090.037, 5188.224
1091.965, 5389.814
1093.894, 5588.150
1095.822, 5780.552
1097.751, 5967.704
1099.679, 6149.441
1101.608, 6312.018
1103.536, 6494.257
1105.464, 6700.287
1107.393, 6926.436
1109.321, 7173.676
1111.250, 7436.029
1113.178, 7697.765
1115.107, 8019.855
1117.035, 8416.862
1118.964, 8826.112
1120.892, 9233.586
1122.821, 9712.305
1124.749, 10267.47
1126.678, 10877.47
1128.606, 11547.11
1130.535, 12237.79
1132.463, 12952.67
1134.391, 13648.45
1136.320, 14331.89
1138.248, 14905.96
1140.177, 15368.18
1142.105, 15696.13
1144.034, 15898.92
1145.962, 16040.48
1147.891, 16132.13
1149.819, 16232.46
1151.748, 16348.13
1153.676, 16476.23
1155.605, 16638.00
1157.533, 16908.15
1159.462, 17250.37
1161.390, 17590.22
1163.318, 17948.01
1165.247, 18375.17
1167.175, 18821.89
1169.104, 19213.44
1171.032, 19594.06
1172.961, 20014.84
1174.889, 20443.45
1176.818, 20862.57
1178.746, 21275.01
1180.675, 21677.75
1182.603, 22070.72
1184.532, 22458.71
1186.460, 22824.62
1188.389, 23129.49
1190.317, 23473.31
1192.245, 23878.67
1194.174, 24343.92
1196.102, 24893.79
1198.031, 25446.63
1199.959, 25970.42
1201.888, 26559.17
1203.816, 27230.04
1205.745, 27927.49
1207.673, 28640.06
1209.602, 29438.36
1211.530, 30325.98
1213.459, 31273.72
1215.387, 32284.11
1217.316, 33324.35
1219.244, 34391.90
1221.172, 35547.14
1223.101, 36779.18
1225.029, 38016.99
1226.958, 39296.99
1228.886, 40689.54
1230.815, 42172.11
1232.743, 43727.25
1234.672, 45369.81
1236.600, 47083.27
1238.529, 48902.12
1240.457, 50894.48
1242.386, 52962.29
1244.314, 55032.52
1246.243, 57158.19
1248.171, 59369.68
1250.099, 61643.84
1252.028, 64009.27
1253.956, 66359.53
1255.885, 68669.64
1257.813, 70918.64
1259.742, 73122.65
1261.670, 75194.11
1263.599, 77112.63
1265.527, 78822.03
1267.456, 80328.30
1269.384, 81616.98
1271.313, 82678.34
1273.241, 83488.49
1275.170, 84063.63
1277.098, 84469.34
1279.026, 84717.20
1280.955, 84812.94
1282.883, 84789.96
1284.812, 84691.57
1286.740, 84531.24
1288.669, 84307.32
1290.597, 84049.76
1292.526, 83822.81
1294.454, 83488.64
1296.383, 82971.68
1298.311, 82379.65
1300.240, 81715.82
1302.168, 80955.57
1304.097, 80092.43
1306.025, 79203.84
1307.953, 78302.37
1309.882, 77445.83
1311.810, 76650.19
1313.739, 76002.00
1315.667, 75491.38
1317.596, 75109.91
1319.524, 74946.70
1321.453, 75102.20
1323.381, 75567.85
1325.310, 76372.17
1327.238, 77453.87
1329.167, 78750.78
1331.095, 80342.73
1333.024, 82294.74
1334.952, 84552.49
1336.880, 87094.04
1338.809, 89861.88
1340.737, 92874.63
1342.666, 96104.15
1344.594, 99569.50
1346.523, 103136.5
1348.451, 106759.3
1350.380, 110520.0
1352.308, 114436.4
1354.237, 118346.5
1356.165, 122153.8
1358.094, 125785.3
1360.022, 129223.3
1361.951, 132425.9
1363.879, 135172.5
1365.807, 137325.3
1367.736, 139057.6
1369.664, 140450.0
1371.593, 141266.7
1373.521, 141411.9
1375.450, 141241.1
1377.378, 140791.6
1379.307, 139922.8
1381.235, 138664.8
1383.164, 137334.1
1385.092, 135886.7
1387.021, 134250.0
1388.949, 132494.2
1390.878, 130680.5
1392.806, 128802.9
1394.734, 126874.5
1396.663, 125051.8
1398.591, 123397.6
1400.520, 121803.2
1402.448, 120219.7
1404.377, 118686.4
1406.305, 117224.5
1408.234, 115946.9
1410.162, 114844.2
1412.091, 113837.3
1414.019, 112940.7
1415.948, 112136.5
1417.876, 111423.3
1419.805, 110834.2
1421.733, 110347.0
1423.661, 109931.5
1425.590, 109564.7
1427.518, 109185.9
1429.447, 108969.5
1431.375, 109075.1
1433.304, 109134.3
1435.232, 109066.5
1437.161, 109160.0
1439.089, 109408.6
1441.018, 109852.6
1442.946, 110482.8
1444.875, 111196.3
1446.803, 112079.5
1448.731, 113191.0
1450.660, 114524.8
1452.588, 116064.3
1454.517, 117790.4
1456.445, 119678.3
1458.374, 122020.7
1460.302, 124846.3
1462.231, 128014.8
1464.159, 131568.9
1466.088, 135656.3
1468.016, 140205.9
1469.945, 145185.2
1471.873, 150420.6
1473.802, 155731.2
1475.730, 160610.2
1477.658, 164857.0
1479.587, 168109.0
1481.515, 170112.8
1483.444, 171039.6
1485.372, 170811.8
1487.301, 170370.9
1489.229, 169934.2
1491.158, 169885.5
1493.086, 170160.1
1495.015, 170726.4
1496.943, 171066.3
1498.872, 170615.3
1500.800, 169145.4
1502.729, 166132.3
1504.657, 162446.1
1506.585, 158350.5
1508.514, 154427.1
1510.442, 150831.1
1512.371, 147755.0
1514.299, 145263.3
1516.228, 143113.9
1518.156, 141257.3
1520.085, 139639.8
1522.013, 138176.7
1523.942, 136891.5
1525.870, 135730.8
1527.799, 134642.6
1529.727, 133776.4
1531.656, 133115.2
1533.584, 132406.2
1535.512, 131731.1
1537.441, 131290.5
1539.369, 130866.8
1541.298, 130231.8
1543.226, 129401.5
1545.155, 128347.4
1547.083, 127102.3
1549.012, 125608.0
1550.940, 124170.1
1552.869, 122826.7
1554.797, 121637.0
1556.726, 120637.4
1558.654, 119844.0
1560.583, 119219.5
1562.511, 118808.3
1564.439, 118483.2
1566.368, 118127.3
1568.296, 117875.5
1570.225, 117783.3
1572.153, 117626.6
1574.082, 117404.8
1576.010, 117146.5
1577.939, 116875.5
1579.867, 116722.1
1581.796, 116581.2
1583.724, 116344.0
1585.653, 116047.0
1587.581, 115691.7
1589.510, 115223.2
1591.438, 114680.5
1593.366, 114241.0
1595.295, 113845.5
1597.223, 113297.9
1599.152, 112689.8
1601.080, 112129.9
1603.009, 111574.0
1604.937, 111021.9
1606.866, 110400.1
1608.794, 109711.4
1610.723, 109117.8
1612.651, 108576.9
1614.580, 107992.0
1616.508, 107446.3
1618.437, 107018.7
1620.365, 106574.9
1622.293, 106035.5
1624.222, 105617.9
1626.150, 105287.0
1628.079, 104991.1
1630.007, 104782.8
1631.936, 104638.2
1633.864, 104552.0
1635.793, 104453.9
1637.721, 104380.1
1639.650, 104454.6
1641.578, 104520.9
1643.507, 104506.2
1645.435, 104526.7
1647.364, 104601.7
1649.292, 104624.1
1651.220, 104600.2
1653.149, 104659.4
1655.077, 104736.8
1657.006, 104719.8
1658.934, 104666.0
1660.863, 104564.9
1662.791, 104492.3
1664.720, 104489.8
1666.648, 104414.9
1668.577, 104248.4
1670.505, 104028.7
1672.434, 103874.1
1674.362, 103819.5
1676.291, 103664.7
1678.219, 103472.6
1680.147, 103429.5
1682.076, 103414.0
1684.004, 103387.6
1685.933, 103416.2
1687.861, 103458.7
1689.790, 103478.4
1691.718, 103564.9
1693.647, 103725.8
1695.575, 103873.6
1697.504, 104081.7
1699.432, 104361.9
1701.361, 104601.9
1703.289, 104799.2
1705.218, 104942.3
1707.146, 105124.9
1709.074, 105362.8
1711.003, 105551.7
1712.931, 105753.0
1714.860, 105988.0
1716.788, 106203.2
1718.717, 106359.2
1720.645, 106505.1
1722.574, 106710.4
1724.502, 106909.4
1726.431, 107075.9
1728.359, 107248.1
1730.288, 107390.7
1732.216, 107447.4
1734.145, 107486.2
1736.073, 107475.7
1738.001, 107470.4
1739.930, 107503.6
1741.858, 107431.8
1743.787, 107263.0
1745.715, 107067.5
1747.644, 106823.3
1749.572, 106366.3
1751.501, 105746.1
1753.429, 105151.6
1755.358, 104526.6
1757.286, 103767.1
1759.215, 102871.0
1761.143, 101930.2
1763.072, 100985.2
1765.000, 100117.3
1766.928, 99253.83
1768.857, 98344.79
1770.785, 97448.28
1772.714, 96531.91
1774.642, 95686.48
1776.571, 94977.95
1778.499, 94373.42
1780.428, 93814.63
1782.356, 93168.56
1784.285, 92602.67
1786.213, 92310.72
1788.142, 92041.98
1790.070, 91685.37
1791.999, 91477.93
1793.927, 91367.17
1795.855, 91257.86
1797.784, 91244.23
1799.712, 91367.56
1801.641, 91512.10
1803.569, 91592.79
1805.498, 91781.59
1807.426, 92085.58
1809.355, 92412.63
1811.283, 92822.17
1813.212, 93342.52
1815.140, 93870.96
1817.069, 94394.16
1818.997, 95036.74
1820.926, 95856.95
1822.854, 96659.46
1824.782, 97363.06
1826.711, 98219.34
1828.639, 99113.24
1830.568, 99785.85
1832.496, 100528.1
1834.425, 101337.9
1836.353, 101977.7
1838.282, 102533.9
1840.210, 103058.7
1842.139, 103500.4
1844.067, 103804.4
1845.996, 104012.9
1847.924, 104171.5
1849.853, 104175.6
1851.781, 104072.1
1853.709, 103834.0
1855.638, 103378.0
1857.566, 102771.0
1859.495, 102201.1
1861.423, 101646.1
1863.352, 100969.1
1865.280, 100256.2
1867.209, 99576.57
1869.137, 98810.45
1871.066, 97960.32
1872.994, 97048.10
1874.923, 96107.73
1876.851, 95216.38
1878.780, 94311.39
1880.708, 93344.18
1882.636, 92322.28
1884.565, 91304.80
1886.493, 90319.03
1888.422, 89315.04
1890.350, 88196.86
1892.279, 87061.14
1894.207, 85973.05
1896.136, 84858.63
1898.064, 83650.46
1899.993, 82343.34
1901.921, 81113.23
1903.850, 79972.10
1905.778, 78688.82
1907.707, 77358.91
1909.635, 76190.94
1911.563, 75103.91
1913.492, 74071.88
1915.420, 73135.80
1917.349, 72309.91
1919.277, 71411.25
1921.206, 70490.85
1923.134, 69687.69
1925.063, 68816.99
1926.991, 67811.34
1928.920, 66820.34
1930.848, 65812.53
1932.777, 64664.22
1934.705, 63519.81
1936.634, 62517.46
1938.562, 61531.04
1940.490, 60507.84
1942.419, 59574.16
1944.347, 58679.35
1946.276, 57733.84
1948.204, 56957.46
1950.133, 56325.99
1952.061, 55620.36
1953.990, 54952.90
1955.918, 54331.52
1957.847, 53742.90
1959.775, 53238.64
1961.704, 52819.37
1963.632, 52450.83
1965.561, 52180.60
1967.489, 51932.07
1969.417, 51669.96
1971.346, 51501.87
1973.274, 51432.97
1975.203, 51449.62
1977.131, 51528.57
1979.060, 51644.84
1980.988, 51826.63
1982.917, 52095.54
1984.845, 52451.34
1986.774, 52861.04
1988.702, 53330.29
1990.631, 53787.78
1992.559, 54213.58
1994.488, 54712.02
1996.416, 55227.17
1998.344, 55691.89
2000.273, 56181.95
2002.201, 56636.14
2004.130, 57077.84
2006.058, 57525.55
2007.987, 57867.52
2009.915, 58108.32
2011.844, 58192.42
2013.772, 58148.15
2015.701, 58096.78
2017.629, 57986.14
2019.558, 57757.24
2021.486, 57428.03
2023.415, 56919.11
2025.343, 56300.34
2027.271, 55651.56
2029.200, 54968.17
2031.128, 54217.87
2033.057, 53464.20
2034.985, 52692.23
2036.914, 51881.06
2038.842, 51096.22
2040.771, 50331.78
2042.699, 49549.84
2044.628, 48702.53
2046.556, 47853.11
2048.485, 47087.95
2050.413, 46394.04
2052.342, 45659.20
2054.270, 44886.02
2056.198, 44130.00
2058.127, 43394.56
2060.055, 42671.75
2061.984, 41969.14
2063.912, 41295.06
2065.841, 40588.99
2067.769, 39861.86
2069.698, 39150.06
2071.626, 38537.39
2073.555, 37950.39
2075.483, 37229.65
2077.412, 36490.22
2079.340, 35823.46
2081.269, 35142.42
2083.197, 34439.57
2085.125, 33827.30
2087.054, 33247.80
2088.982, 32616.47
2090.911, 31979.40
2092.839, 31397.53
2094.768, 30879.43
2096.696, 30335.65
2098.625, 29779.32
2100.553, 29315.63
2102.482, 28898.81
2104.410, 28443.07
2106.339, 28025.98
2108.267, 27655.80
2110.196, 27304.89
2112.124, 27005.34
2114.052, 26791.90
2115.981, 26608.20
2117.909, 26415.86
2119.838, 26204.63
2121.766, 25987.25
2123.695, 25751.72
2125.623, 25622.79
2127.552, 25574.65
2129.480, 25513.84
2131.409, 25452.14
2133.337, 25383.65
2135.266, 25333.33
2137.194, 25298.80
2139.123, 25255.12
2141.051, 25184.89
2142.979, 25077.32
2144.908, 25039.37
2146.836, 25026.73
2148.765, 24915.96
2150.693, 24806.12
2152.622, 24737.13
2154.550, 24691.07
2156.479, 24606.79
2158.407, 24409.30
2160.336, 24258.60
2162.264, 24151.13
2164.193, 23972.56
2166.121, 23763.25
2168.050, 23534.84
2169.978, 23264.00
2171.906, 22982.42
2173.835, 22771.70
2175.763, 22568.49
2177.692, 22339.09
2179.620, 22145.26
2181.549, 21973.83
2183.477, 21807.76
2185.406, 21619.86
2187.334, 21425.34
2189.263, 21250.69
2191.191, 21087.42
2193.120, 20904.48
2195.048, 20703.95
2196.977, 20494.23
2198.905, 20239.63
2200.833, 19950.91
2202.762, 19653.12
2204.690, 19280.36
2206.619, 18864.45
2208.547, 18503.01
2210.476, 18082.97
2212.404, 17584.96
2214.333, 17120.12
2216.261, 16622.33
2218.190, 16028.45
2220.118, 15475.18
2222.047, 14971.45
2223.975, 14496.81
2225.904, 14009.53
2227.832, 13507.27
2229.760, 13031.49
2231.689, 12563.47
2233.617, 12080.98
2235.546, 11671.17
2237.474, 11313.07
2239.403, 10938.89
2241.331, 10582.25
2243.260, 10263.89
2245.188, 9962.434
2247.117, 9671.702
2249.045, 9375.674
2250.974, 9129.012
2252.902, 8920.566
2254.831, 8714.271
2256.759, 8494.710
2258.688, 8246.145
2260.616, 8070.063
2262.544, 7930.353
2264.473, 7792.505
2266.401, 7657.256
2268.330, 7527.795
2270.258, 7399.858
2272.187, 7273.527
2274.115, 7158.987
2276.044, 7032.664
2277.972, 6910.398
2279.901, 6825.085
2281.829, 6731.160
2283.758, 6629.700
2285.686, 6565.129
2287.615, 6488.792
2289.543, 6383.339
2291.471, 6292.932
2293.400, 6213.184
2295.328, 6134.861
2297.257, 6054.217
2299.185, 5973.820
2301.114, 5909.238
2303.042, 5857.742
2304.971, 5811.571
2306.899, 5735.692
2308.828, 5660.388
2310.756, 5596.229
2312.685, 5548.644
2314.613, 5505.250
2316.542, 5428.962
2318.470, 5353.378
2320.398, 5289.821
2322.327, 5256.969
2324.255, 5222.193
2326.184, 5163.709
2328.112, 5118.225
2330.041, 5078.206
2331.969, 5035.089
2333.898, 4976.264
2335.826, 4910.076
2337.755, 4889.083
2339.683, 4858.302
2341.612, 4800.234
2343.540, 4772.484
2345.469, 4738.564
2347.397, 4665.290
2349.325, 4616.674
2351.254, 4589.833
2353.182, 4576.141
2355.111, 4548.252
2357.039, 4504.670
2358.968, 4482.229
2360.896, 4450.600
2362.825, 4397.560
2364.753, 4379.972
2366.682, 4364.167
2368.610, 4309.467
2370.539, 4282.263
2372.467, 4272.318
2374.396, 4245.270
2376.324, 4214.646
2378.252, 4186.294
2380.181, 4173.352
2382.109, 4150.476
2384.038, 4104.638
2385.966, 4078.214
2387.895, 4061.760
2389.823, 4050.202
2391.752, 4037.691
2393.680, 4015.918
2395.609, 3964.776
2397.537, 3932.914
2399.466, 3921.450
2401.394, 3914.164
2403.323, 3904.781
2405.251, 3887.846
2407.179, 3853.621
2409.108, 3827.385
2411.036, 3828.709
2412.965, 3805.116
2414.893, 3771.436
2416.822, 3750.432
2418.750, 3728.250
2420.679, 3705.469
2422.607, 3688.533
2424.536, 3687.916
2426.464, 3695.573
2428.393, 3666.480
2430.321, 3645.096
2432.250, 3644.219
2434.178, 3625.145
2436.106, 3591.449
2438.035, 3546.461
2439.963, 3539.426
2441.892, 3544.062
2443.820, 3531.428
2445.749, 3496.006
2447.677, 3461.521
2449.606, 3470.379
2451.534, 3462.892
2453.463, 3438.288
2455.391, 3421.619
2457.320, 3398.350
2459.248, 3368.309
2461.177, 3358.141
2463.105, 3341.576
2465.033, 3308.396
2466.962, 3308.414
2468.890, 3306.927
2470.819, 3277.734
2472.747, 3248.812
2474.676, 3229.337
2476.604, 3235.984
2478.533, 3226.735
2480.461, 3207.560
2482.390, 3168.628
2484.318, 3146.835
2486.247, 3143.276
2488.175, 3122.644
2490.104, 3103.720
2492.032, 3094.939
2493.960, 3104.316
2495.889, 3092.334
2497.817, 3057.701
2499.746, 3055.808
2501.674, 3058.641
2503.603, 3054.682
2505.531, 3052.142
2507.460, 3044.771
2509.388, 3025.867
2511.317, 3029.712
2513.245, 3032.127
2515.174, 3015.119
2517.102, 3023.862
2519.031, 3034.609
2520.959, 3030.535
2522.887, 3041.680
2524.816, 3059.769
2526.744, 3084.610
2528.673, 3111.989
2530.601, 3143.417
2532.530, 3190.478
2534.458, 3237.041
2536.387, 3279.062
2538.315, 3318.431
2540.244, 3373.153
2542.172, 3435.959
2544.101, 3477.373
2546.029, 3522.347
2547.958, 3576.926
2549.886, 3644.629
2551.814, 3690.260
2553.743, 3715.950
2555.671, 3742.029
2557.600, 3776.646
2559.528, 3820.486
2561.457, 3863.690
2563.385, 3914.024
2565.314, 3973.467
2567.242, 4013.977
2569.171, 4044.346
2571.099, 4088.998
2573.028, 4136.021
2574.956, 4175.646
2576.885, 4219.647
2578.813, 4239.804
2580.741, 4247.322
2582.670, 4268.885
2584.598, 4294.716
2586.527, 4310.201
2588.455, 4313.231
2590.384, 4364.917
2592.312, 4404.386
2594.241, 4409.826
2596.169, 4431.164
2598.098, 4447.035
2600.026, 4441.574
2601.955, 4432.484
2603.883, 4411.831
2605.812, 4365.367
2607.740, 4308.800
2609.668, 4254.205
2611.597, 4195.851
2613.525, 4094.135
2615.454, 3983.792
2617.382, 3891.745
2619.311, 3787.857
2621.239, 3700.795
2623.168, 3633.770
2625.096, 3543.375
2627.025, 3441.637
2628.953, 3341.097
2630.882, 3271.627
2632.810, 3214.987
2634.739, 3151.858
2636.667, 3093.809
2638.595, 3035.885
2640.524, 2961.514
2642.452, 2892.488
2644.381, 2825.022
2646.309, 2752.081
2648.238, 2678.557
2650.166, 2607.501
2652.095, 2557.638
2654.023, 2515.383
2655.952, 2471.723
2657.880, 2434.158
2659.809, 2386.063
2661.737, 2342.888
2663.666, 2323.642
2665.594, 2316.492
2667.522, 2288.810
2669.451, 2244.471
2671.379, 2229.884
2673.308, 2213.809
2675.236, 2182.362
2677.165, 2152.606
2679.093, 2138.608
2681.022, 2135.852
2682.950, 2137.649
2684.879, 2127.950
2686.807, 2108.337
2688.736, 2085.588
2690.664, 2069.074
2692.593, 2057.357
2694.521, 2050.958
2696.449, 2047.825
2698.378, 2039.954
2700.306, 2042.818
2702.235, 2033.622
2704.163, 2015.212
2706.092, 2014.115
2708.020, 2022.816
2709.949, 2008.848
2711.877, 1976.574
2713.806, 1975.978
2715.734, 1964.687
2717.663, 1952.219
2719.591, 1957.012
2721.520, 1956.095
2723.448, 1969.735
2725.376, 1965.958
2727.305, 1944.709
2729.233, 1917.749
2731.162, 1924.967
2733.090, 1923.637
2735.019, 1907.961
2736.947, 1914.026
2738.876, 1905.698
2740.804, 1886.513
2742.733, 1885.980
2744.661, 1893.272
2746.590, 1891.194
2748.518, 1884.239
2750.447, 1879.061
2752.375, 1862.971
2754.303, 1839.128
2756.232, 1832.379
2758.160, 1829.224
2760.089, 1815.797
2762.017, 1823.357
2763.946, 1815.643
2765.874, 1798.236
2767.803, 1782.256
2769.731, 1771.618
2771.660, 1771.721
2773.588, 1760.694
2775.517, 1741.075
2777.445, 1734.212
2779.374, 1731.281
2781.302, 1735.414
2783.230, 1728.522
2785.159, 1702.883
2787.087, 1695.554
2789.016, 1704.804
2790.944, 1711.577
2792.873, 1705.299
2794.801, 1707.512
2796.730, 1707.208
2798.658, 1670.826
2800.587, 1665.576
2802.515, 1673.793
2804.444, 1653.757
2806.372, 1641.379
2808.301, 1629.164
2810.229, 1614.011
2812.157, 1617.948
2814.086, 1617.085
2816.014, 1623.480
2817.943, 1632.690
2819.871, 1615.768
2821.800, 1591.423
2823.728, 1587.716
2825.657, 1576.225
2827.585, 1559.976
2829.514, 1575.670
2831.442, 1576.197
2833.371, 1561.379
2835.299, 1540.136
2837.228, 1521.558
2839.156, 1511.743
2841.084, 1510.826
2843.013, 1505.945
2844.941, 1501.369
2846.870, 1501.028
2848.798, 1484.550
2850.727, 1471.364
2852.655, 1468.613
2854.584, 1470.224
2856.512, 1468.916
2858.441, 1462.055
2860.369, 1450.565
2862.298, 1433.888
2864.226, 1408.853
2866.155, 1391.098
2868.083, 1392.496
2870.011, 1390.354
2871.940, 1383.651
2873.868, 1389.844
2875.797, 1378.535
2877.725, 1368.137
2879.654, 1365.147
2881.582, 1342.745
2883.511, 1347.140
2885.439, 1352.989
2887.368, 1330.323
2889.296, 1324.738
2891.225, 1316.349
2893.153, 1322.823
2895.082, 1329.405
2897.010, 1328.890
2898.938, 1319.862
2900.867, 1298.937
2902.795, 1274.516
2904.724, 1267.723
2906.652, 1293.561
2908.581, 1289.399
2910.509, 1262.793
2912.438, 1240.761
2914.366, 1236.664
2916.295, 1228.593
2918.223, 1234.154
2920.152, 1248.865
2922.080, 1246.560
2924.008, 1235.180
2925.937, 1228.744
2927.865, 1238.568
2929.794, 1220.073
2931.722, 1202.760
2933.651, 1212.175
2935.579, 1207.166
2937.508, 1196.669
2939.436, 1187.349
2941.365, 1192.813
2943.293, 1197.495
2945.221, 1200.306
2947.150, 1190.671
2949.078, 1170.959
2951.007, 1166.489
2952.935, 1172.228
2954.864, 1167.554
2956.792, 1159.576
2958.721, 1150.075
2960.649, 1146.902
2962.578, 1154.162
2964.506, 1161.445
2966.435, 1144.614
2968.363, 1138.023
2970.292, 1143.812
2972.220, 1146.025
2974.148, 1137.782
2976.077, 1137.703
2978.005, 1146.296
2979.934, 1155.140
2981.862, 1143.061
2983.791, 1128.054
2985.719, 1125.133
2987.648, 1133.259
2989.576, 1144.318
2991.505, 1143.443
2993.433, 1137.506
2995.362, 1141.041
2997.290, 1151.168
2999.219, 1146.242
3001.147, 1130.689
3003.075, 1139.139
3005.004, 1138.146
3006.932, 1138.631
3008.861, 1153.782
3010.789, 1157.051
3012.718, 1155.281
3014.646, 1148.825
3016.575, 1168.593
3018.503, 1186.225
3020.432, 1194.342
3022.360, 1187.375
3024.289, 1196.059
3026.217, 1216.551
3028.146, 1230.352
3030.074, 1262.364
3032.002, 1274.710
3033.931, 1294.980
3035.859, 1343.368
3037.788, 1375.636
3039.716, 1405.606
3041.645, 1440.233
3043.573, 1470.436
3045.502, 1486.913
3047.430, 1503.363
3049.359, 1501.036
3051.287, 1500.652
3053.216, 1491.179
3055.144, 1478.286
3057.073, 1463.253
3059.001, 1443.625
3060.929, 1426.957
3062.858, 1426.004
3064.786, 1438.328
3066.715, 1450.955
3068.643, 1453.419
3070.572, 1455.498
3072.500, 1487.368
3074.429, 1496.907
3076.357, 1496.819
3078.286, 1506.274
3080.214, 1511.766
3082.143, 1499.612
3084.071, 1484.321
3086.000, 1485.763
3087.928, 1493.054
3089.856, 1471.978
3091.785, 1441.646
3093.713, 1427.536
3095.642, 1438.332
3097.570, 1443.302
3099.499, 1428.109
3101.427, 1418.987
3103.356, 1419.113
3105.284, 1403.194
3107.213, 1381.607
3109.141, 1388.752
3111.070, 1379.019
3112.998, 1376.407
3114.927, 1382.695
3116.855, 1402.036
3118.783, 1394.994
3120.712, 1389.135
3122.640, 1397.830
3124.569, 1389.308
3126.497, 1391.096
3128.426, 1403.785
3130.354, 1413.741
3132.283, 1417.224
3134.211, 1404.613
3136.140, 1397.342
3138.068, 1417.395
3139.997, 1426.582
3141.925, 1434.538
3143.854, 1442.963
3145.782, 1450.468
3147.710, 1479.503
3149.639, 1481.172
3151.567, 1459.061
3153.496, 1471.058
3155.424, 1491.985
3157.353, 1506.401
3159.281, 1511.881
3161.210, 1538.145
3163.138, 1530.747
3165.067, 1533.773
3166.995, 1555.151
3168.924, 1567.563
3170.852, 1568.419
3172.781, 1577.773
3174.709, 1605.751
3176.637, 1616.969
3178.566, 1632.914
3180.494, 1638.898
3182.423, 1639.767
3184.351, 1677.223
3186.280, 1681.825
3188.208, 1685.865
3190.137, 1695.124
3192.065, 1682.768
3193.994, 1715.534
3195.922, 1753.557
3197.851, 1781.102
3199.779, 1794.527
3201.708, 1810.284
3203.636, 1841.767
3205.564, 1877.493
3207.493, 1873.267
3209.421, 1924.315
3211.350, 1957.050
3213.278, 1954.523
3215.207, 2006.243
3217.135, 2049.675
3219.064, 2088.727
3220.992, 2131.317
3222.921, 2146.901
3224.849, 2157.075
3226.778, 2182.190
3228.706, 2220.923
3230.635, 2284.892
3232.563, 2296.771
3234.491, 2339.826
3236.420, 2408.547
3238.348, 2432.860
3240.277, 2486.567
3242.205, 2532.841
3244.134, 2563.870
3246.062, 2570.238
3247.991, 2636.292
3249.919, 2692.004
3251.848, 2731.367
3253.776, 2768.817
3255.705, 2820.017
3257.633, 2869.954
3259.562, 2929.113
3261.490, 3000.835
3263.418, 3035.361
3265.347, 3057.167
3267.275, 3119.132
3269.204, 3219.095
3271.132, 3250.196
3273.061, 3287.393
3274.989, 3327.931
3276.918, 3381.004
3278.846, 3470.769
3280.775, 3592.287
3282.703, 3669.906
3284.632, 3725.069
3286.560, 3802.698
3288.489, 3927.170
3290.417, 4059.404
3292.345, 4180.172
3294.274, 4291.169
3296.202, 4442.305
3298.131, 4568.888
3300.059, 4700.464
3301.988, 4864.007
3303.916, 5070.505
3305.845, 5215.518
3307.773, 5405.815
3309.702, 5648.935
3311.630, 5903.313
3313.559, 6180.201
3315.487, 6406.248
3317.416, 6660.281
3319.344, 7008.093
3321.272, 7320.268
3323.201, 7704.569
3325.129, 8041.412
3327.058, 8333.199
3328.986, 8764.589
3330.915, 9117.356
3332.843, 9468.002
3334.772, 9804.785
3336.700, 10069.95
3338.629, 10252.54
3340.557, 10444.27
3342.486, 10623.71
3344.414, 10773.30
3346.343, 10924.41
3348.271, 11083.08
3350.199, 11190.00
3352.128, 11274.43
3354.056, 11400.11
3355.985, 11408.93
3357.913, 11429.01
3359.842, 11464.54
3361.770, 11483.59
3363.699, 11434.62
3365.627, 11405.81
3367.556, 11372.39
3369.484, 11358.26
3371.413, 11417.61
3373.341, 11439.18
3375.270, 11598.94
3377.198, 11770.58
3379.126, 11868.08
3381.055, 12004.13
3382.983, 12134.16
3384.912, 12098.67
3386.840, 11925.13
3388.769, 11713.18
3390.697, 11358.78
3392.626, 11012.95
3394.554, 10715.90
3396.483, 10494.38
3398.411, 10381.79
3400.340, 10181.55
3402.268, 10144.65
3404.197, 10180.44
3406.125, 10131.86
3408.053, 9963.618
3409.982, 9739.199
3411.910, 9473.311
3413.839, 9190.438
3415.767, 8920.314
3417.696, 8603.692
3419.624, 8392.784
3421.553, 8185.000
3423.481, 7970.307
3425.410, 7923.025
3427.338, 7750.453
3429.267, 7584.332
3431.195, 7454.195
3433.124, 7353.809
3435.052, 7299.512
3436.980, 7117.086
3438.909, 7018.530
3440.837, 6962.063
3442.766, 6840.968
3444.694, 6845.932
3446.623, 6847.048
3448.551, 6822.604
3450.480, 6741.231
3452.408, 6578.353
3454.337, 6521.321
3456.265, 6378.889
3458.194, 6226.624
3460.122, 6100.523
3462.051, 5970.021
3463.979, 5857.910
3465.907, 5759.376
3467.836, 5641.907
3469.764, 5535.588
3471.693, 5526.794
3473.621, 5437.904
3475.550, 5363.905
3477.478, 5265.278
3479.407, 5143.546
3481.335, 5091.084
3483.264, 5034.196
3485.192, 4951.915
3487.121, 4887.494
3489.049, 4856.249
3490.978, 4815.666
3492.906, 4787.106
3494.834, 4695.118
3496.763, 4622.198
3498.691, 4598.994
3500.620, 4526.439
3502.548, 4486.267
3504.477, 4429.773
3506.405, 4342.905
3508.334, 4259.281
3510.262, 4248.180
3512.191, 4148.354
3514.119, 4050.984
3516.048, 3974.615
3517.976, 3919.277
3519.905, 3885.850
3521.833, 3843.200
3523.761, 3761.190
3525.690, 3718.059
3527.618, 3704.675
3529.547, 3643.413
3531.475, 3564.157
3533.404, 3510.379
3535.332, 3443.012
3537.261, 3377.831
3539.189, 3351.696
3541.118, 3330.189
3543.046, 3217.816
3544.975, 3172.774
3546.903, 3165.135
3548.832, 3117.630
3550.760, 3086.803
3552.688, 3027.711
3554.617, 2950.983
3556.545, 2907.233
3558.474, 2911.250
3560.402, 2911.802
3562.331, 2874.464
3564.259, 2802.017
3566.188, 2773.742
3568.116, 2782.396
3570.045, 2750.786
3571.973, 2718.792
3573.902, 2701.050
3575.830, 2687.662
3577.759, 2652.431
3579.687, 2588.662
3581.615, 2551.253
3583.544, 2510.385
3585.472, 2498.702
3587.401, 2471.107
3589.329, 2405.421
3591.258, 2335.768
3593.186, 2350.528
3595.115, 2316.549
3597.043, 2264.479
3598.972, 2215.264
3600.900, 2164.635
3602.829, 2109.637
3604.757, 2019.634
3606.686, 1974.167
3608.614, 1968.600
3610.542, 1955.304
3612.471, 1875.233
3614.399, 1847.705
3616.328, 1812.716
3618.256, 1787.151
3620.185, 1756.499
3622.113, 1705.804
3624.042, 1659.171
3625.970, 1640.924
3627.899, 1619.879
3629.827, 1579.079
3631.756, 1540.182
3633.684, 1536.738
3635.613, 1555.588
3637.541, 1542.169
3639.469, 1528.193
3641.398, 1534.103
3643.326, 1532.595
3645.255, 1478.806
3647.183, 1466.888
3649.112, 1443.934
3651.040, 1443.280
3652.969, 1429.942
3654.897, 1391.697
3656.826, 1391.160
3658.754, 1364.300
3660.683, 1354.858
3662.611, 1322.170
3664.540, 1280.881
3666.468, 1259.819
3668.396, 1260.043
3670.325, 1233.662
3672.253, 1209.427
3674.182, 1186.603
3676.110, 1157.842
3678.039, 1123.185
3679.967, 1093.631
3681.896, 1081.157
3683.824, 1053.568
3685.753, 1026.667
3687.681, 1007.240
3689.610, 989.8287
3691.538, 966.7150
3693.467, 950.3102
3695.395, 922.2544
3697.323, 906.4300
3699.252, 910.7920
3701.180, 919.3076
3703.109, 904.6993
3705.037, 889.0047
3706.966, 906.4410
3708.894, 907.5845
3710.823, 897.4091
3712.751, 895.6348
3714.680, 903.1784
3716.608, 899.3161
3718.537, 871.3603
3720.465, 875.2281
3722.394, 892.0457
3724.322, 887.9557
3726.250, 855.5676
3728.179, 845.6034
3730.107, 835.8954
3732.036, 842.2377
3733.964, 820.2584
3735.893, 800.5858
3737.821, 819.3595
3739.750, 821.9278
3741.678, 792.0970
3743.607, 794.1836
3745.535, 809.1133
3747.464, 799.1563
3749.392, 767.5849
3751.321, 753.2250
3753.249, 776.7824
3755.177, 767.6819
3757.106, 765.7158
3759.034, 768.0472
3760.963, 770.8068
3762.891, 777.5552
3764.820, 790.2020
3766.748, 784.3630
3768.677, 769.5181
3770.605, 767.1876
3772.534, 778.7405
3774.462, 793.1251
3776.391, 800.9362
3778.319, 808.0171
3780.248, 786.2837
3782.176, 773.5491
3784.104, 801.1357
3786.033, 803.2441
3787.961, 774.7742
3789.890, 793.3436
3791.818, 822.3176
3793.747, 799.0104
3795.675, 769.6582
3797.604, 758.9927
3799.532, 767.3666
3801.461, 763.3759
3803.389, 719.4083
3805.318, 721.9070
3807.246, 737.2327
3809.175, 714.3940
3811.103, 708.9127
3813.031, 710.2067
3814.960, 698.0478
3816.888, 689.1556
3818.817, 665.9553
3820.745, 679.6592
3822.674, 634.2836
3824.602, 615.6034
3826.531, 636.3461
3828.459, 648.1989
3830.388, 619.4437
3832.316, 614.3905
3834.245, 614.9920
3836.173, 617.5556
3838.102, 625.3146
3840.030, 616.7905
3841.958, 613.6614
3843.887, 637.6424
3845.815, 623.7917
3847.744, 658.1838
3849.672, 657.1080
3851.601, 677.3423
3853.529, 679.3378
3855.458, 670.9133
3857.386, 680.9814
3859.315, 693.9385
3861.243, 687.1955
3863.172, 683.4424
3865.100, 700.4290
3867.029, 686.2291
3868.957, 669.2076
3870.885, 660.1161
3872.814, 642.3259
3874.742, 639.8567
3876.671, 647.8139
3878.599, 644.3456
3880.528, 631.0959
3882.456, 605.8166
3884.385, 594.1781
3886.313, 595.7960
3888.242, 582.0994
3890.170, 554.6505
3892.099, 525.5956
3894.027, 537.5108
3895.956, 509.0350
3897.884, 499.2635
3899.813, 507.3650
3901.741, 502.5516
3903.669, 487.6008
3905.598, 484.1384
3907.526, 520.0928
3909.455, 502.9360
3911.383, 491.1254
3913.312, 506.8928
3915.240, 506.7672
3917.169, 495.0836
3919.097, 510.7120
3921.026, 522.2985
3922.954, 527.2824
3924.883, 506.9326
3926.811, 477.1924
3928.740, 474.9123
3930.668, 496.0935
3932.596, 499.8934
3934.525, 484.9490
3936.453, 506.1133
3938.382, 493.5667
3940.310, 479.0385
3942.239, 487.2771
3944.167, 493.7251
3946.096, 479.4775
3948.024, 464.3268
3949.953, 460.5203
3951.881, 462.2110
3953.810, 470.4176
3955.738, 455.8334
3957.667, 460.0487
3959.595, 459.1866
3961.523, 462.3427
3963.452, 449.2918
3965.380, 442.1623
3967.309, 445.0207
3969.237, 446.7225
3971.166, 453.7773
3973.094, 444.5814
3975.023, 445.1717
3976.951, 442.7518
3978.880, 449.8506
3980.808, 454.9084
3982.737, 449.4896
3984.665, 435.8347
3986.594, 433.5630
3988.522, 431.8457
3990.450, 429.2083
3992.379, 426.4762
3994.307, 416.7778
3996.236, 399.3534
3998.164, 406.9465
4000.093, 417.6883
4002.021, 422.6124
4003.950, 413.4843
4005.878, 411.5371
4007.807, 420.3129
4009.735, 421.1300
4011.664, 433.8218
4013.592, 437.3600
4015.521, 435.5020
4017.449, 434.8916
4019.377, 444.4614
4021.306, 442.5278
4023.234, 456.4235
4025.163, 473.1358
4027.091, 469.0600
4029.020, 479.1783
4030.948, 463.1405
4032.877, 478.4953
4034.805, 464.2675
4036.734, 489.8747
4038.662, 491.1991
4040.591, 484.3361
4042.519, 496.1603
4044.448, 514.0312
4046.376, 515.6124
4048.304, 504.2091
4050.233, 526.4226
4052.161, 545.5806
4054.090, 555.1227
4056.018, 577.1320
4057.947, 585.6678
4059.875, 593.3176
4061.804, 596.3118
4063.732, 603.5141
4065.661, 632.7521
4067.589, 662.0525
4069.518, 646.4544
4071.446, 659.6073
4073.375, 678.9614
4075.303, 672.5813
4077.231, 681.2468
4079.160, 723.1498
4081.088, 756.5866
4083.017, 749.8547
4084.945, 735.3437
4086.874, 752.1637
4088.802, 770.5510
4090.731, 765.9291
4092.659, 798.3273
4094.588, 775.2073
4096.516, 769.3276
4098.444, 762.3795
4100.373, 765.0296
4102.301, 775.6965
4104.230, 755.3795
4106.158, 719.5334
4108.087, 704.6489
4110.015, 691.9579
4111.944, 693.1016
4113.872, 645.9970
4115.801, 636.0931
4117.729, 628.2604
4119.658, 612.7573
4121.586, 593.5363
4123.515, 572.3356
4125.443, 545.5582
4127.372, 524.0967
4129.300, 505.5618
4131.229, 485.7276
4133.157, 478.8933
4135.085, 450.6023
4137.014, 436.6317
4138.942, 419.8423
4140.871, 392.7765
4142.799, 371.2118
4144.728, 332.3845
4146.656, 340.0029
4148.584, 325.7619
4150.513, 319.7147
4152.441, 314.9516
4154.370, 288.7730
4156.298, 282.0782
4158.227, 262.7663
4160.155, 266.8313
4162.084, 264.3980
4164.012, 249.0909
4165.941, 254.0743
4167.869, 233.0988
4169.798, 233.9715
4171.726, 227.5553
4173.655, 233.1678
4175.583, 235.1372
4177.512, 222.9884
4179.440, 213.6279
4181.369, 219.7783
4183.297, 230.3098
4185.226, 215.0919
4187.154, 213.5167
4189.083, 217.1694
4191.011, 199.7681
4192.939, 203.4973
4194.868, 200.0474
4196.796, 214.2956
4198.725, 188.2041
4200.653, 181.6491
4202.582, 188.8671
4204.510, 185.6522
4206.438, 180.4516
4208.367, 179.7817
4210.295, 176.8300
4212.224, 169.0324
4214.152, 168.9386
4216.081, 161.3873
4218.009, 146.9876
4219.938, 158.3713
4221.866, 141.3794
4223.795, 142.9771
4225.723, 129.0955
4227.652, 135.1573
4229.580, 132.8102
4231.509, 133.8293
4233.437, 135.4895
4235.366, 121.9469
4237.294, 109.8161
4239.223, 114.4688
4241.151, 116.9548
4243.080, 108.6662
4245.008, 114.5722
4246.937, 112.6340
4248.865, 95.94396
4250.793, 103.9383
4252.722, 86.76157
4254.650, 88.96688
4256.579, 78.01131
4258.507, 93.23155
4260.436, 90.05618
4262.364, 83.39861
4264.292, 76.27011
4266.221, 73.57334
4268.149, 84.71511
4270.078, 88.30430
4272.006, 82.91628
4273.935, 86.66556
4275.863, 87.54721
4277.792, 78.35532
4279.720, 79.65001
4281.649, 81.13742
4283.577, 83.66435
4285.506, 75.98986
4287.434, 79.47897
4289.363, 78.95954
4291.291, 72.25162
4293.220, 73.22598
4295.148, 80.34214
4297.077, 78.04900
4299.005, 69.10675
4300.934, 73.40452
4302.862, 67.62714
4304.791, 67.60590
4306.719, 78.22425
4308.647, 82.10982
4310.576, 73.99238
4312.504, 69.38953
4314.433, 57.29638
4316.361, 48.96980
4318.290, 64.05910
4320.218, 68.92896
4322.146, 68.88495
4324.075, 67.45363
4326.003, 54.52562
4327.932, 57.09503
4329.860, 65.03973
4331.789, 64.69593
4333.717, 47.60930
4335.646, 64.96908
4337.574, 62.37394
4339.503, 55.46633
4341.431, 67.31266
4343.360, 56.51215
4345.288, 60.53450
4347.217, 54.34256
4349.145, 59.94506
4351.074, 53.90757
4353.002, 56.32582
4354.931, 65.53792
4356.859, 56.25271
4358.788, 47.21849
4360.716, 51.60625
4362.645, 57.53225
4364.573, 55.65281
4366.501, 39.09715
4368.430, 40.51089
4370.358, 55.05838
4372.287, 50.34654
4374.215, 48.49272
4376.144, 53.27618
4378.072, 54.75377
4380.000, 50.14293
4381.929, 49.94700
##END=



