##NAMES=Fluorapatite
##RRUFFID=R050617
##IDEAL CHEMISTRY=Ca_5_(PO_4_)_3_F
##LOCALITY=Santa Cruz, Sonora, Mexico
##OWNER=RRUFF
##SOURCE=University of Arizona Mineral Museum
##DESCRIPTION=Tan colored hexagonal prism
##STATUS=The identification of this mineral is confirmed by single-crystal X-ray diffraction and chemical analysis
##URL=https://www.rruff.net/odr/rruff_sample/R050617
##MEASURED CHEMISTRY=Ca_5.00_(P_1.00_O_4_)_3_(F_0.99_Cl_0.01_)
##DIFFRACTION SAMPLE DESCRIPTION=Single crystal, powder profile is calculated
##CELL PARAMETERS=a: 9.369 b: 9.369 c: 6.8775 alpha: 90 beta: 90 gamma: 120 volume: 522.84 crystal system: hexagonal
##FILETYPE=Raman RAW
##RAMAN WAVELENGTH=532

195.5252, 7294.775
197.4537, 7312.217
199.3822, 7382.401
201.3106, 7482.008
203.2391, 7544.247
205.1676, 7533.811
207.0960, 7525.920
209.0245, 7555.526
210.9530, 7634.508
212.8814, 7705.185
214.8099, 7759.731
216.7384, 7801.414
218.6668, 7838.564
220.5953, 7862.165
222.5238, 7892.449
224.4522, 7939.730
226.3807, 8025.236
228.3092, 8092.554
230.2376, 8126.565
232.1661, 8143.716
234.0946, 8172.431
236.0230, 8227.011
237.9515, 8282.031
239.8800, 8327.861
241.8084, 8363.684
243.7369, 8399.213
245.6654, 8431.045
247.5938, 8464.523
249.5223, 8509.104
251.4508, 8575.521
253.3792, 8643.149
255.3077, 8705.688
257.2362, 8763.998
259.1646, 8823.497
261.0931, 8891.330
263.0216, 8957.466
264.9500, 9009.022
266.8785, 9032.647
268.8070, 9060.773
270.7354, 9109.050
272.6639, 9177.736
274.5924, 9229.169
276.5208, 9244.228
278.4493, 9250.802
280.3778, 9278.868
282.3062, 9335.168
284.2347, 9391.602
286.1632, 9438.788
288.0916, 9478.199
290.0201, 9521.336
291.9486, 9581.546
293.8770, 9635.478
295.8055, 9662.491
297.7340, 9646.839
299.6624, 9653.203
301.5909, 9705.065
303.5194, 9791.723
305.4478, 9860.709
307.3763, 9905.133
309.3048, 9940.515
311.2332, 9975.246
313.1617, 10010.83
315.0902, 10041.74
317.0186, 10064.50
318.9471, 10084.05
320.8756, 10106.93
322.8040, 10132.13
324.7325, 10162.36
326.6610, 10198.89
328.5894, 10243.01
330.5179, 10283.97
332.4464, 10317.01
334.3748, 10348.95
336.3033, 10386.32
338.2318, 10434.81
340.1602, 10478.55
342.0887, 10511.72
344.0172, 10536.52
345.9456, 10566.96
347.8741, 10604.66
349.8026, 10646.06
351.7310, 10689.38
353.6595, 10736.42
355.5880, 10780.95
357.5164, 10828.02
359.4449, 10869.79
361.3734, 10893.50
363.3018, 10875.89
365.2303, 10877.05
367.1588, 10926.48
369.0872, 11039.49
371.0157, 11124.87
372.9442, 11165.31
374.8727, 11188.62
376.8011, 11215.28
378.7296, 11244.90
380.6581, 11276.77
382.5865, 11305.91
384.5150, 11339.45
386.4435, 11389.35
388.3719, 11465.15
390.3004, 11543.91
392.2289, 11617.56
394.1573, 11686.98
396.0858, 11750.43
398.0143, 11805.15
399.9427, 11851.83
401.8712, 11891.17
403.7997, 11909.84
405.7281, 11946.92
407.6566, 12020.88
409.5851, 12133.21
411.5135, 12228.48
413.4420, 12293.69
415.3705, 12353.46
417.2989, 12427.98
419.2274, 12524.26
421.1559, 12601.86
423.0843, 12643.36
425.0128, 12671.97
426.9413, 12714.74
428.8697, 12765.72
430.7982, 12830.93
432.7267, 12923.52
434.6551, 13044.65
436.5836, 13146.83
438.5121, 13224.47
440.4405, 13278.88
442.3690, 13314.71
444.2975, 13337.72
446.2259, 13363.17
448.1544, 13399.87
450.0829, 13435.86
452.0113, 13464.18
453.9398, 13485.81
455.8683, 13505.00
457.7967, 13509.94
459.7252, 13506.87
461.6537, 13518.85
463.5821, 13570.30
465.5106, 13613.03
467.4391, 13631.53
469.3675, 13625.28
471.2960, 13633.93
473.2245, 13664.16
475.1529, 13702.19
477.0814, 13738.86
479.0099, 13783.79
480.9383, 13810.54
482.8668, 13801.64
484.7953, 13778.47
486.7237, 13792.74
488.6522, 13868.14
490.5807, 13950.55
492.5091, 14011.65
494.4376, 14045.21
496.3661, 14080.96
498.2945, 14121.70
500.2230, 14160.38
502.1515, 14198.77
504.0799, 14238.24
506.0084, 14286.58
507.9369, 14355.70
509.8653, 14426.71
511.7938, 14468.86
513.7223, 14457.83
515.6508, 14462.20
517.5792, 14510.75
519.5077, 14591.09
521.4362, 14661.44
523.3646, 14695.71
525.2931, 14731.50
527.2216, 14802.00
529.1500, 14917.09
531.0785, 15006.81
533.0070, 15031.00
534.9354, 15042.58
536.8639, 15082.13
538.7924, 15177.59
540.7208, 15247.06
542.6493, 15275.58
544.5778, 15297.42
546.5062, 15341.96
548.4347, 15412.51
550.3632, 15478.25
552.2916, 15541.84
554.2201, 15602.69
556.1486, 15665.36
558.0770, 15724.25
560.0055, 15796.98
561.9340, 15877.26
563.8624, 15960.01
565.7909, 16040.03
567.7194, 16120.60
569.6478, 16195.54
571.5763, 16276.50
573.5048, 16369.69
575.4332, 16479.74
577.3617, 16601.92
579.2902, 16716.61
581.2186, 16812.64
583.1471, 16890.90
585.0756, 16952.70
587.0040, 16986.64
588.9325, 17008.78
590.8610, 17040.71
592.7894, 17080.79
594.7179, 17098.86
596.6464, 17118.98
598.5748, 17145.33
600.5033, 17189.57
602.4318, 17259.30
604.3602, 17333.19
606.2887, 17395.76
608.2172, 17441.46
610.1456, 17473.66
612.0741, 17504.37
614.0026, 17543.37
615.9310, 17571.28
617.8595, 17573.63
619.7880, 17576.61
621.7164, 17584.89
623.6449, 17593.92
625.5734, 17609.51
627.5018, 17636.06
629.4303, 17673.88
631.3588, 17717.14
633.2872, 17769.67
635.2157, 17828.73
637.1442, 17898.60
639.0726, 17954.78
641.0011, 18004.45
642.9296, 18046.65
644.8580, 18077.14
646.7865, 18076.52
648.7150, 18105.24
650.6434, 18165.69
652.5719, 18245.28
654.5004, 18300.23
656.4288, 18345.43
658.3573, 18401.80
660.2858, 18457.80
662.2142, 18506.37
664.1427, 18543.08
666.0712, 18564.88
667.9996, 18600.87
669.9281, 18667.20
671.8566, 18771.37
673.7850, 18865.27
675.7135, 18927.04
677.6420, 18960.50
679.5704, 18996.22
681.4989, 19048.09
683.4274, 19128.10
685.3558, 19210.31
687.2843, 19294.99
689.2128, 19375.96
691.1412, 19450.63
693.0697, 19495.98
694.9982, 19504.42
696.9266, 19509.67
698.8551, 19543.45
700.7836, 19616.45
702.7120, 19688.57
704.6405, 19780.63
706.5690, 19884.86
708.4974, 19971.93
710.4259, 20024.81
712.3544, 20077.03
714.2828, 20125.86
716.2113, 20165.93
718.1398, 20198.84
720.0682, 20244.91
721.9967, 20301.77
723.9252, 20368.58
725.8536, 20445.17
727.7821, 20527.66
729.7106, 20614.03
731.6390, 20680.30
733.5675, 20720.79
735.4960, 20745.34
737.4244, 20783.91
739.3529, 20853.08
741.2814, 20925.63
743.2098, 20973.91
745.1383, 20999.13
747.0668, 21032.44
748.9952, 21098.71
750.9237, 21167.88
752.8522, 21228.22
754.7806, 21282.54
756.7091, 21354.52
758.6376, 21446.58
760.5660, 21531.50
762.4945, 21597.49
764.4230, 21650.00
766.3514, 21704.19
768.2799, 21766.14
770.2084, 21841.15
772.1368, 21923.21
774.0653, 22000.88
775.9938, 22043.26
777.9222, 22067.03
779.8507, 22111.12
781.7792, 22186.83
783.7076, 22277.63
785.6361, 22361.98
787.5646, 22417.26
789.4930, 22459.64
791.4215, 22514.64
793.3500, 22599.06
795.2784, 22669.49
797.2069, 22707.27
799.1354, 22754.60
801.0638, 22813.77
802.9923, 22869.91
804.9208, 22923.79
806.8492, 23021.26
808.7777, 23148.29
810.7062, 23275.61
812.6346, 23356.12
814.5631, 23365.74
816.4916, 23362.98
818.4200, 23386.99
820.3485, 23443.00
822.2770, 23512.61
824.2054, 23595.09
826.1339, 23697.76
828.0624, 23783.60
829.9908, 23836.85
831.9193, 23868.37
833.8478, 23909.43
835.7762, 23971.51
837.7047, 24054.81
839.6332, 24157.77
841.5616, 24256.89
843.4901, 24329.50
845.4186, 24387.00
847.3470, 24450.14
849.2755, 24520.77
851.2040, 24584.01
853.1324, 24627.62
855.0609, 24650.32
856.9894, 24698.75
858.9178, 24801.21
860.8463, 24919.15
862.7748, 25002.12
864.7032, 25031.73
866.6317, 25071.35
868.5602, 25147.44
870.4886, 25245.07
872.4171, 25336.86
874.3456, 25401.87
876.2740, 25458.48
878.2025, 25510.43
880.1310, 25559.60
882.0594, 25597.57
883.9879, 25641.21
885.9164, 25700.64
887.8448, 25769.20
889.7733, 25837.12
891.7018, 25905.71
893.6302, 25970.47
895.5587, 26044.34
897.4872, 26135.82
899.4156, 26225.80
901.3441, 26290.22
903.2726, 26361.40
905.2010, 26447.49
907.1295, 26528.18
909.0580, 26604.00
910.9865, 26677.45
912.9149, 26789.03
914.8434, 26933.54
916.7719, 27074.86
918.7003, 27212.83
920.6288, 27351.08
922.5573, 27495.88
924.4857, 27692.26
926.4142, 27898.77
928.3427, 28049.03
930.2711, 28121.96
932.1996, 28178.67
934.1281, 28236.14
936.0565, 28430.29
937.9850, 28657.35
939.9135, 28913.14
941.8419, 29146.48
943.7704, 29333.06
945.6989, 29452.92
947.6273, 29600.68
949.5558, 29782.31
951.4843, 30036.59
953.4127, 30436.18
955.3412, 30910.38
957.2697, 31283.28
959.1981, 31610.18
961.1266, 31945.65
963.0551, 32249.96
964.9835, 32572.72
966.9120, 33032.62
968.8405, 33548.50
970.7689, 33799.55
972.6974, 33743.82
974.6259, 33477.64
976.5543, 32977.70
978.4828, 32386.00
980.4113, 31845.63
982.3397, 31321.03
984.2682, 30868.18
986.1967, 30578.75
988.1251, 30422.93
990.0536, 30358.79
991.9821, 30442.17
993.9105, 30548.02
995.8390, 30614.31
997.7675, 30644.90
999.6959, 30635.76
1001.624, 30532.10
1003.553, 30414.16
1005.481, 30347.70
1007.410, 30342.30
1009.338, 30344.44
1011.267, 30360.82
1013.195, 30412.96
1015.124, 30513.29
1017.052, 30644.36
1018.981, 30790.70
1020.909, 30943.84
1022.838, 31105.81
1024.766, 31290.71
1026.694, 31458.29
1028.623, 31577.52
1030.551, 31661.53
1032.480, 31737.76
1034.408, 31803.42
1036.337, 31867.07
1038.265, 31957.35
1040.194, 32058.05
1042.122, 32124.51
1044.051, 32134.02
1045.979, 32148.49
1047.908, 32169.66
1049.836, 32218.86
1051.765, 32305.22
1053.693, 32418.90
1055.621, 32504.99
1057.550, 32541.74
1059.478, 32574.04
1061.407, 32627.88
1063.335, 32700.82
1065.264, 32755.41
1067.192, 32770.89
1069.121, 32788.50
1071.049, 32837.78
1072.978, 32903.64
1074.906, 32939.53
1076.835, 32921.54
1078.763, 32912.44
1080.692, 32921.94
1082.620, 32943.95
1084.548, 32983.11
1086.477, 33050.25
1088.405, 33114.33
1090.334, 33171.32
1092.262, 33216.38
1094.191, 33254.05
1096.119, 33286.85
1098.048, 33316.00
1099.976, 33312.93
1101.905, 33348.29
1103.833, 33463.96
1105.762, 33633.04
1107.690, 33778.93
1109.619, 33877.00
1111.547, 33973.34
1113.475, 34064.16
1115.404, 34156.05
1117.332, 34239.09
1119.261, 34311.75
1121.189, 34361.03
1123.118, 34377.68
1125.046, 34379.59
1126.975, 34392.32
1128.903, 34426.36
1130.832, 34459.89
1132.760, 34499.95
1134.689, 34548.16
1136.617, 34606.03
1138.546, 34675.77
1140.474, 34751.15
1142.402, 34824.75
1144.331, 34914.88
1146.259, 35024.80
1148.188, 35135.25
1150.116, 35243.45
1152.045, 35345.85
1153.973, 35419.32
1155.902, 35452.92
1157.830, 35479.41
1159.759, 35503.35
1161.687, 35534.86
1163.616, 35585.98
1165.544, 35671.62
1167.473, 35753.32
1169.401, 35844.77
1171.329, 35917.38
1173.258, 35930.27
1175.186, 35897.18
1177.115, 35917.82
1179.043, 36033.09
1180.972, 36139.78
1182.900, 36178.88
1184.829, 36190.73
1186.757, 36238.88
1188.686, 36334.12
1190.614, 36423.13
1192.543, 36498.47
1194.471, 36559.18
1196.400, 36601.07
1198.328, 36622.61
1200.256, 36644.34
1202.185, 36663.39
1204.113, 36696.08
1206.042, 36767.95
1207.970, 36858.65
1209.899, 36921.40
1211.827, 36948.02
1213.756, 36996.14
1215.684, 37080.00
1217.613, 37183.11
1219.541, 37298.12
1221.470, 37413.55
1223.398, 37497.26
1225.327, 37532.23
1227.255, 37549.15
1229.183, 37534.85
1231.112, 37522.43
1233.040, 37558.27
1234.969, 37674.41
1236.897, 37755.76
1238.826, 37784.59
1240.754, 37810.42
1242.683, 37851.39
1244.611, 37900.55
1246.540, 37956.84
1248.468, 38011.22
1250.397, 38071.25
1252.325, 38158.34
1254.254, 38251.76
1256.182, 38310.69
1258.110, 38327.77
1260.039, 38349.61
1261.967, 38383.76
1263.896, 38431.89
1265.824, 38491.16
1267.753, 38561.86
1269.681, 38648.24
1271.610, 38740.82
1273.538, 38843.39
1275.467, 38975.40
1277.395, 39093.97
1279.324, 39156.10
1281.252, 39173.55
1283.181, 39206.09
1285.109, 39261.86
1287.037, 39300.71
1288.966, 39292.72
1290.894, 39297.88
1292.823, 39366.81
1294.751, 39484.33
1296.680, 39563.95
1298.608, 39559.87
1300.537, 39572.99
1302.465, 39643.07
1304.394, 39746.32
1306.322, 39839.86
1308.251, 39931.60
1310.179, 40017.37
1312.108, 40100.38
1314.036, 40168.27
1315.964, 40213.19
1317.893, 40243.67
1319.821, 40278.00
1321.750, 40295.40
1323.678, 40360.07
1325.607, 40531.73
1327.535, 40717.88
1329.464, 40823.00
1331.392, 40859.69
1333.321, 40898.98
1335.249, 40936.07
1337.178, 40994.36
1339.106, 41101.63
1341.035, 41202.54
1342.963, 41273.00
1344.891, 41341.41
1346.820, 41386.81
1348.748, 41381.31
1350.677, 41379.11
1352.605, 41414.54
1354.534, 41472.05
1356.462, 41527.29
1358.391, 41584.48
1360.319, 41645.87
1362.248, 41707.46
1364.176, 41782.52
1366.105, 41876.96
1368.033, 41975.26
1369.962, 42055.14
1371.890, 42092.90
1373.818, 42131.00
1375.747, 42204.93
1377.675, 42275.05
1379.604, 42294.54
1381.532, 42289.96
1383.461, 42321.94
1385.389, 42391.67
1387.318, 42469.71
1389.246, 42554.34
1391.175, 42644.77
1393.103, 42727.23
1395.032, 42798.08
1396.960, 42882.48
1398.889, 42989.22
1400.817, 43078.31
1402.745, 43146.13
1404.674, 43202.04
1406.602, 43237.80
1408.531, 43247.05
1410.459, 43315.26
1412.388, 43486.47
1414.316, 43647.36
1416.245, 43766.48
1418.173, 43863.08
1420.102, 43959.78
1422.030, 44045.52
1423.959, 44093.48
1425.887, 44103.64
1427.816, 44109.85
1429.744, 44115.29
1431.672, 44118.05
1433.601, 44142.40
1435.529, 44192.63
1437.458, 44227.00
1439.386, 44253.34
1441.315, 44290.50
1443.243, 44327.02
1445.172, 44368.33
1447.100, 44439.22
1449.029, 44539.75
1450.957, 44618.16
1452.886, 44652.23
1454.814, 44701.76
1456.743, 44778.30
1458.671, 44873.02
1460.599, 44997.93
1462.528, 45159.90
1464.456, 45275.25
1466.385, 45312.45
1468.313, 45311.96
1470.242, 45280.29
1472.170, 45262.70
1474.099, 45290.13
1476.027, 45350.20
1477.956, 45414.95
1479.884, 45481.29
1481.813, 45553.57
1483.741, 45653.00
1485.670, 45754.40
1487.598, 45816.56
1489.526, 45820.50
1491.455, 45837.60
1493.383, 45885.50
1495.312, 45911.11
1497.240, 45921.20
1499.169, 45932.96
1501.097, 45941.15
1503.026, 45946.22
1504.954, 46001.01
1506.883, 46145.74
1508.811, 46284.41
1510.740, 46357.61
1512.668, 46411.85
1514.597, 46471.19
1516.525, 46541.57
1518.453, 46622.15
1520.382, 46707.21
1522.310, 46768.23
1524.239, 46799.63
1526.167, 46813.60
1528.096, 46821.85
1530.024, 46826.50
1531.953, 46821.09
1533.881, 46809.95
1535.810, 46844.23
1537.738, 46959.78
1539.667, 47084.85
1541.595, 47179.85
1543.524, 47246.71
1545.452, 47292.11
1547.380, 47322.44
1549.309, 47356.00
1551.237, 47378.54
1553.166, 47400.73
1555.094, 47453.24
1557.023, 47501.07
1558.951, 47499.98
1560.880, 47466.01
1562.808, 47503.88
1564.737, 47662.76
1566.665, 47813.82
1568.594, 47917.76
1570.522, 47981.96
1572.451, 48001.99
1574.379, 48005.12
1576.307, 48037.90
1578.236, 48105.84
1580.164, 48179.91
1582.093, 48278.35
1584.021, 48358.69
1585.950, 48412.67
1587.878, 48448.00
1589.807, 48464.80
1591.735, 48456.94
1593.664, 48439.99
1595.592, 48404.70
1597.521, 48392.36
1599.449, 48432.04
1601.378, 48494.39
1603.306, 48561.63
1605.234, 48638.76
1607.163, 48732.70
1609.091, 48833.65
1611.020, 48943.06
1612.948, 49043.96
1614.877, 49143.83
1616.805, 49254.11
1618.734, 49357.24
1620.662, 49432.00
1622.591, 49478.13
1624.519, 49505.26
1626.448, 49527.69
1628.376, 49514.77
1630.305, 49434.43
1632.233, 49351.00
1634.161, 49302.01
1636.090, 49291.84
1638.018, 49335.52
1639.947, 49449.47
1641.875, 49531.47
1643.804, 49533.13
1645.732, 49558.58
1647.661, 49650.79
1649.589, 49770.78
1651.518, 49872.26
1653.446, 49952.81
1655.375, 50047.59
1657.303, 50173.63
1659.232, 50232.23
1661.160, 50139.82
1663.089, 50055.63
1665.017, 50091.35
1666.945, 50192.70
1668.874, 50278.46
1670.802, 50351.66
1672.731, 50409.82
1674.659, 50446.85
1676.588, 50480.78
1678.516, 50498.45
1680.445, 50526.48
1682.373, 50595.22
1684.302, 50681.17
1686.230, 50736.24
1688.159, 50757.15
1690.087, 50769.59
1692.016, 50786.33
1693.944, 50784.01
1695.872, 50728.33
1697.801, 50676.26
1699.729, 50681.92
1701.658, 50736.24
1703.586, 50813.36
1705.515, 50921.39
1707.443, 51000.61
1709.372, 51013.41
1711.300, 51037.39
1713.229, 51102.55
1715.157, 51196.40
1717.086, 51318.39
1719.014, 51453.16
1720.943, 51544.57
1722.871, 51582.85
1724.799, 51586.34
1726.728, 51533.85
1728.656, 51487.34
1730.585, 51488.49
1732.513, 51518.03
1734.442, 51562.48
1736.370, 51621.77
1738.299, 51667.12
1740.227, 51691.21
1742.156, 51718.89
1744.084, 51753.91
1746.013, 51781.79
1747.941, 51771.61
1749.870, 51758.65
1751.798, 51802.70
1753.726, 51893.64
1755.655, 51952.20
1757.583, 51962.84
1759.512, 52008.94
1761.440, 52151.22
1763.369, 52279.18
1765.297, 52313.92
1767.226, 52319.03
1769.154, 52386.17
1771.083, 52498.27
1773.011, 52549.29
1774.940, 52517.79
1776.868, 52492.47
1778.797, 52446.36
1780.725, 52461.08
1782.653, 52630.57
1784.582, 52827.20
1786.510, 52907.68
1788.439, 52888.32
1790.367, 52870.98
1792.296, 52861.81
1794.224, 52842.24
1796.153, 52812.14
1798.081, 52777.96
1800.010, 52715.93
1801.938, 52675.35
1803.867, 52722.40
1805.795, 52823.39
1807.724, 52862.84
1809.652, 52815.42
1811.580, 52799.65
1813.509, 52839.30
1815.437, 52887.73
1817.366, 52942.72
1819.294, 53004.96
1821.223, 53090.64
1823.151, 53173.87
1825.080, 53190.19
1827.008, 53120.68
1828.937, 53080.89
1830.865, 53079.99
1832.794, 53079.93
1834.722, 53089.28
1836.651, 53090.45
1838.579, 53078.32
1840.507, 53062.97
1842.436, 53061.97
1844.364, 53074.97
1846.293, 53060.16
1848.221, 52993.45
1850.150, 52983.14
1852.078, 53101.53
1854.007, 53170.28
1855.935, 53063.90
1857.864, 52963.68
1859.792, 53034.81
1861.721, 53191.78
1863.649, 53222.93
1865.578, 53129.10
1867.506, 53112.63
1869.434, 53224.24
1871.363, 53301.61
1873.291, 53268.63
1875.220, 53263.25
1877.148, 53422.70
1879.077, 53592.85
1881.005, 53569.62
1882.934, 53424.23
1884.862, 53405.44
1886.791, 53524.10
1888.719, 53620.60
1890.648, 53677.80
1892.576, 53695.12
1894.505, 53624.82
1896.433, 53579.17
1898.361, 53676.71
1900.290, 53822.79
1902.218, 53865.53
1904.147, 53820.27
1906.075, 53812.57
1908.004, 53839.77
1909.932, 53895.65
1911.861, 53989.68
1913.789, 54075.84
1915.718, 54121.25
1917.646, 54162.05
1919.575, 54240.79
1921.503, 54323.57
1923.432, 54360.93
1925.360, 54356.59
1927.288, 54282.16
1929.217, 54079.36
1931.145, 53973.30
1933.074, 54108.93
1935.002, 54176.71
1936.931, 54003.31
1938.859, 53845.77
1940.788, 53927.75
1942.716, 54115.90
1944.645, 54136.32
1946.573, 54007.13
1948.502, 54012.47
1950.430, 54187.81
1952.359, 54306.24
1954.287, 54308.86
1956.216, 54285.14
1958.144, 54262.51
1960.073, 54240.36
1962.001, 54229.34
1963.929, 54225.60
1965.858, 54213.53
1967.786, 54202.54
1969.715, 54235.15
1971.643, 54326.40
1973.572, 54365.63
1975.500, 54294.27
1977.429, 54225.23
1979.357, 54156.45
1981.286, 54119.29
1983.214, 54180.89
1985.143, 54254.05
1987.071, 54213.17
1989.000, 54092.61
1990.928, 54029.03
1992.856, 54028.39
1994.785, 54074.44
1996.713, 54209.53
1998.642, 54296.49
2000.570, 54262.35
2002.499, 54246.01
2004.427, 54321.53
2006.356, 54414.71
2008.284, 54455.69
2010.213, 54474.88
2012.141, 54537.92
2014.070, 54635.37
2015.998, 54705.62
2017.927, 54737.02
2019.855, 54783.05
2021.783, 54859.99
2023.712, 54935.22
2025.640, 55023.11
2027.569, 55080.60
2029.497, 55061.14
2031.426, 55017.39
2033.354, 54998.13
2035.283, 55007.96
2037.211, 55073.79
2039.140, 55212.72
2041.068, 55306.61
2042.997, 55334.42
2044.925, 55371.47
2046.854, 55437.14
2048.782, 55488.39
2050.710, 55487.68
2052.639, 55486.39
2054.567, 55482.57
2056.496, 55509.45
2058.424, 55652.30
2060.353, 55858.30
2062.281, 55953.78
2064.210, 55940.11
2066.138, 55929.91
2068.067, 55941.58
2069.995, 55937.28
2071.924, 55881.51
2073.852, 55864.66
2075.781, 55969.01
2077.709, 56067.38
2079.637, 56048.71
2081.566, 56000.75
2083.494, 56035.57
2085.423, 56129.30
2087.351, 56211.71
2089.280, 56280.25
2091.208, 56295.74
2093.137, 56237.00
2095.065, 56170.66
2096.994, 56123.88
2098.922, 56028.77
2100.851, 55796.58
2102.779, 55624.57
2104.708, 55714.80
2106.636, 55838.82
2108.564, 55792.56
2110.493, 55629.01
2112.421, 55410.84
2114.350, 55152.76
2116.278, 54984.05
2118.207, 54919.32
2120.135, 54877.16
2122.064, 54867.16
2123.992, 54847.75
2125.921, 54775.83
2127.849, 54728.19
2129.778, 54769.46
2131.706, 54784.93
2133.635, 54676.00
2135.563, 54514.50
2137.491, 54395.67
2139.420, 54306.48
2141.348, 54189.00
2143.277, 54057.32
2145.205, 54002.65
2147.134, 54043.66
2149.062, 54064.88
2150.991, 54030.95
2152.919, 54004.81
2154.848, 54018.60
2156.776, 54007.71
2158.705, 53949.06
2160.633, 53854.54
2162.562, 53702.52
2164.490, 53550.49
2166.418, 53481.27
2168.347, 53476.12
2170.275, 53476.50
2172.204, 53480.81
2174.132, 53459.11
2176.061, 53404.55
2177.989, 53366.96
2179.918, 53347.54
2181.846, 53357.25
2183.775, 53425.86
2185.703, 53473.04
2187.632, 53466.35
2189.560, 53429.30
2191.489, 53337.65
2193.417, 53259.47
2195.345, 53309.21
2197.274, 53414.06
2199.202, 53407.19
2201.131, 53306.04
2203.059, 53222.87
2204.988, 53152.31
2206.916, 53187.22
2208.845, 53351.93
2210.773, 53474.39
2212.702, 53518.14
2214.630, 53519.86
2216.559, 53478.65
2218.487, 53423.34
2220.416, 53380.15
2222.344, 53331.05
2224.272, 53274.95
2226.201, 53205.17
2228.129, 53067.40
2230.058, 52921.86
2231.986, 52933.95
2233.915, 53078.31
2235.843, 53131.15
2237.772, 53087.13
2239.700, 53081.43
2241.629, 53144.16
2243.557, 53097.72
2245.486, 52847.61
2247.414, 52671.83
2249.343, 52688.71
2251.271, 52728.75
2253.199, 52765.84
2255.128, 52764.30
2257.056, 52670.92
2258.985, 52561.66
2260.913, 52525.87
2262.842, 52520.17
2264.770, 52476.64
2266.699, 52402.95
2268.627, 52299.82
2270.556, 52178.21
2272.484, 52121.44
2274.413, 52135.41
2276.341, 52155.98
2278.270, 52177.79
2280.198, 52190.02
2282.126, 52178.68
2284.055, 52170.91
2285.983, 52191.50
2287.912, 52186.63
2289.840, 52110.90
2291.769, 52037.56
2293.697, 52023.67
2295.626, 52017.38
2297.554, 51973.84
2299.483, 51911.50
2301.411, 51851.59
2303.340, 51797.18
2305.268, 51757.18
2307.197, 51731.36
2309.125, 51691.18
2311.053, 51631.35
2312.982, 51587.73
2314.910, 51558.73
2316.839, 51533.59
2318.767, 51499.67
2320.696, 51491.42
2322.624, 51529.71
2324.553, 51552.66
2326.481, 51553.69
2328.410, 51513.94
2330.338, 51369.39
2332.267, 51249.32
2334.195, 51288.71
2336.124, 51341.46
2338.052, 51261.46
2339.980, 51108.76
2341.909, 50944.80
2343.837, 50790.86
2345.766, 50727.79
2347.694, 50727.17
2349.623, 50638.62
2351.551, 50470.64
2353.480, 50389.78
2355.408, 50419.59
2357.337, 50428.45
2359.265, 50409.01
2361.194, 50359.05
2363.122, 50235.37
2365.051, 50160.79
2366.979, 50196.03
2368.907, 50201.50
2370.836, 50113.10
2372.764, 50035.13
2374.693, 50005.50
2376.621, 50012.61
2378.550, 50091.85
2380.478, 50147.34
2382.407, 50054.20
2384.335, 49914.93
2386.264, 49883.77
2388.192, 49902.84
2390.121, 49858.30
2392.049, 49765.98
2393.978, 49644.69
2395.906, 49511.88
2397.834, 49473.91
2399.763, 49524.68
2401.691, 49488.53
2403.620, 49312.07
2405.548, 49224.41
2407.477, 49349.63
2409.405, 49312.82
2411.334, 49021.26
2413.262, 48803.75
2415.191, 48725.02
2417.119, 48707.64
2419.048, 48769.71
2420.976, 48806.19
2422.905, 48751.46
2424.833, 48671.05
2426.761, 48588.10
2428.690, 48488.30
2430.618, 48350.22
2432.547, 48204.07
2434.475, 48075.78
2436.404, 47969.43
2438.332, 47918.90
2440.261, 47882.48
2442.189, 47765.43
2444.118, 47619.59
2446.046, 47558.96
2447.975, 47568.67
2449.903, 47611.64
2451.832, 47677.88
2453.760, 47635.55
2455.688, 47477.12
2457.617, 47358.96
2459.545, 47288.21
2461.474, 47238.81
2463.402, 47216.75
2465.331, 47181.66
2467.259, 47127.46
2469.188, 47065.55
2471.116, 46980.10
2473.045, 46910.61
2474.973, 46860.83
2476.902, 46814.29
2478.830, 46764.32
2480.759, 46719.02
2482.687, 46682.04
2484.615, 46654.36
2486.544, 46663.79
2488.472, 46654.01
2490.401, 46568.32
2492.329, 46487.31
2494.258, 46491.45
2496.186, 46497.57
2498.115, 46413.62
2500.043, 46306.61
2501.972, 46238.52
2503.900, 46192.94
2505.829, 46166.20
2507.757, 46137.10
2509.686, 46062.71
2511.614, 45961.28
2513.542, 45865.11
2515.471, 45782.86
2517.399, 45752.73
2519.328, 45764.43
2521.256, 45783.77
2523.185, 45801.50
2525.113, 45744.09
2527.042, 45603.44
2528.970, 45513.25
2530.899, 45475.04
2532.827, 45488.25
2534.756, 45570.20
2536.684, 45550.88
2538.613, 45403.82
2540.541, 45307.98
2542.469, 45310.57
2544.398, 45272.99
2546.326, 45144.14
2548.255, 45041.80
2550.183, 44977.81
2552.112, 44940.37
2554.040, 44941.70
2555.969, 44921.29
2557.897, 44839.27
2559.826, 44779.29
2561.754, 44797.99
2563.683, 44793.67
2565.611, 44689.26
2567.540, 44625.94
2569.468, 44721.28
2571.396, 44784.56
2573.325, 44726.39
2575.253, 44643.64
2577.182, 44578.87
2579.110, 44518.13
2581.039, 44416.88
2582.967, 44361.25
2584.896, 44477.13
2586.824, 44588.43
2588.753, 44513.81
2590.681, 44409.62
2592.610, 44402.91
2594.538, 44438.20
2596.467, 44492.84
2598.395, 44527.66
2600.323, 44496.90
2602.252, 44421.96
2604.180, 44297.11
2606.109, 44178.26
2608.037, 44177.54
2609.966, 44223.15
2611.894, 44195.02
2613.823, 44132.79
2615.751, 44096.34
2617.680, 44084.29
2619.608, 44118.85
2621.537, 44166.25
2623.465, 44128.40
2625.394, 44029.30
2627.322, 43916.86
2629.250, 43807.86
2631.179, 43783.56
2633.107, 43803.97
2635.036, 43677.21
2636.964, 43439.59
2638.893, 43324.01
2640.821, 43305.66
2642.750, 43227.08
2644.678, 43103.50
2646.607, 43031.52
2648.535, 43005.68
2650.464, 42919.84
2652.392, 42777.86
2654.321, 42700.26
2656.249, 42682.85
2658.177, 42652.30
2660.106, 42607.32
2662.034, 42569.95
2663.963, 42538.25
2665.891, 42486.27
2667.820, 42403.57
2669.748, 42422.50
2671.677, 42547.99
2673.605, 42520.91
2675.534, 42343.10
2677.462, 42219.18
2679.391, 42169.37
2681.319, 42108.44
2683.248, 42027.89
2685.176, 42025.27
2687.104, 42111.76
2689.033, 42096.10
2690.961, 41967.54
2692.890, 41924.52
2694.818, 41989.30
2696.747, 41966.57
2698.675, 41822.43
2700.604, 41751.88
2702.532, 41769.48
2704.461, 41697.18
2706.389, 41528.45
2708.318, 41415.55
2710.246, 41376.19
2712.175, 41348.84
2714.103, 41342.90
2716.031, 41277.34
2717.960, 41145.48
2719.888, 41028.36
2721.817, 40928.41
2723.745, 40872.98
2725.674, 40869.58
2727.602, 40854.84
2729.531, 40839.39
2731.459, 40722.68
2733.388, 40500.30
2735.316, 40360.69
2737.245, 40313.29
2739.173, 40315.64
2741.102, 40372.58
2743.030, 40363.87
2744.958, 40277.08
2746.887, 40205.61
2748.815, 40144.84
2750.744, 40117.70
2752.672, 40118.99
2754.601, 40106.89
2756.529, 40082.39
2758.458, 40055.68
2760.386, 40030.49
2762.315, 39959.77
2764.243, 39849.12
2766.172, 39733.45
2768.100, 39614.15
2770.029, 39499.88
2771.957, 39393.92
2773.885, 39335.86
2775.814, 39319.44
2777.742, 39263.83
2779.671, 39189.73
2781.599, 39175.61
2783.528, 39201.55
2785.456, 39187.38
2787.385, 39145.33
2789.313, 39157.61
2791.242, 39184.14
2793.170, 39082.14
2795.099, 38915.50
2797.027, 38822.73
2798.956, 38786.25
2800.884, 38798.75
2802.813, 38811.04
2804.741, 38678.14
2806.669, 38505.47
2808.598, 38494.66
2810.526, 38532.48
2812.455, 38447.63
2814.383, 38330.50
2816.312, 38305.11
2818.240, 38317.15
2820.169, 38333.96
2822.097, 38317.07
2824.026, 38195.67
2825.954, 38055.69
2827.883, 37987.66
2829.811, 37920.14
2831.740, 37754.08
2833.668, 37626.65
2835.596, 37667.73
2837.525, 37724.66
2839.453, 37711.34
2841.382, 37684.39
2843.310, 37687.82
2845.239, 37660.38
2847.167, 37542.89
2849.096, 37448.45
2851.024, 37416.00
2852.953, 37419.49
2854.881, 37504.67
2856.810, 37521.12
2858.738, 37415.03
2860.667, 37325.92
2862.595, 37304.06
2864.523, 37271.99
2866.452, 37201.70
2868.380, 37144.96
2870.309, 37104.99
2872.237, 37051.72
2874.166, 36972.02
2876.094, 36910.62
2878.023, 36873.78
2879.951, 36848.69
2881.880, 36848.79
2883.808, 36778.73
2885.737, 36647.81
2887.665, 36603.55
2889.594, 36644.51
2891.522, 36591.01
2893.450, 36461.77
2895.379, 36429.29
2897.307, 36469.27
2899.236, 36507.15
2901.164, 36527.37
2903.093, 36484.36
2905.021, 36409.20
2906.950, 36372.19
2908.878, 36348.66
2910.807, 36292.26
2912.735, 36235.05
2914.664, 36224.37
2916.592, 36219.27
2918.521, 36179.67
2920.449, 36124.12
2922.377, 36041.69
2924.306, 35982.89
2926.234, 36037.48
2928.163, 36030.29
2930.091, 35794.13
2932.020, 35609.57
2933.948, 35591.29
2935.877, 35587.24
2937.805, 35575.92
2939.734, 35522.58
2941.662, 35362.30
2943.591, 35285.39
2945.519, 35337.48
2947.448, 35316.96
2949.376, 35190.40
2951.304, 35126.56
2953.233, 35155.44
2955.161, 35145.39
2957.090, 35095.00
2959.018, 35071.87
2960.947, 35069.96
2962.875, 35077.79
2964.804, 35071.55
2966.732, 34936.84
2968.661, 34738.31
2970.589, 34643.54
2972.518, 34603.66
2974.446, 34564.79
2976.375, 34516.96
2978.303, 34424.91
2980.231, 34350.66
2982.160, 34389.15
2984.088, 34410.67
2986.017, 34285.14
2987.945, 34185.14
2989.874, 34240.25
2991.802, 34249.34
2993.731, 34122.34
2995.659, 34030.73
2997.588, 34046.49
2999.516, 34037.46
3001.445, 33973.37
3003.373, 33920.10
3005.302, 33884.59
3007.230, 33807.05
3009.158, 33678.50
3011.087, 33607.26
3013.015, 33588.65
3014.944, 33555.70
3016.872, 33519.27
3018.801, 33554.34
3020.729, 33607.73
3022.658, 33536.23
3024.586, 33429.60
3026.515, 33457.05
3028.443, 33496.72
3030.372, 33414.78
3032.300, 33318.67
3034.229, 33296.71
3036.157, 33275.48
3038.085, 33207.61
3040.014, 33148.88
3041.942, 33121.77
3043.871, 33086.58
3045.799, 33020.75
3047.728, 32977.06
3049.656, 32973.91
3051.585, 32902.37
3053.513, 32748.89
3055.442, 32687.75
3057.370, 32720.88
3059.299, 32743.39
3061.227, 32748.41
3063.156, 32708.64
3065.084, 32641.64
3067.012, 32584.56
3068.941, 32535.55
3070.869, 32502.76
3072.798, 32471.04
3074.726, 32415.75
3076.655, 32375.83
3078.583, 32388.10
3080.512, 32397.47
3082.440, 32382.71
3084.369, 32353.52
3086.297, 32295.84
3088.226, 32267.33
3090.154, 32291.16
3092.083, 32300.63
3094.011, 32294.84
3095.939, 32260.52
3097.868, 32198.72
3099.796, 32143.12
3101.725, 32085.49
3103.653, 31969.79
3105.582, 31852.06
3107.510, 31854.93
3109.439, 31881.86
3111.367, 31820.39
3113.296, 31736.51
3115.224, 31649.55
3117.153, 31605.32
3119.081, 31665.45
3121.010, 31696.58
3122.938, 31655.42
3124.866, 31601.46
3126.795, 31540.40
3128.723, 31467.03
3130.652, 31376.86
3132.580, 31324.67
3134.509, 31311.44
3136.437, 31346.55
3138.366, 31405.10
3140.294, 31419.66
3142.223, 31405.56
3144.151, 31386.35
3146.080, 31349.07
3148.008, 31256.58
3149.937, 31180.06
3151.865, 31167.38
3153.793, 31174.98
3155.722, 31207.89
3157.650, 31197.69
3159.579, 31104.68
3161.507, 31061.84
3163.436, 31089.36
3165.364, 31026.63
3167.293, 30889.16
3169.221, 30802.21
3171.150, 30761.12
3173.078, 30776.73
3175.007, 30797.18
3176.935, 30740.46
3178.864, 30659.48
3180.792, 30574.38
3182.720, 30524.30
3184.649, 30546.74
3186.577, 30566.60
3188.506, 30578.50
3190.434, 30521.00
3192.363, 30342.50
3194.291, 30297.40
3196.220, 30379.79
3198.148, 30363.24
3200.077, 30268.30
3202.005, 30199.42
3203.934, 30146.60
3205.862, 30097.10
3207.791, 30040.96
3209.719, 29944.04
3211.647, 29874.91
3213.576, 29908.70
3215.504, 29906.08
3217.433, 29795.50
3219.361, 29735.13
3221.290, 29754.41
3223.218, 29828.68
3225.147, 29947.14
3227.075, 29957.86
3229.004, 29880.78
3230.932, 29786.54
3232.861, 29704.90
3234.789, 29718.70
3236.718, 29740.57
3238.646, 29683.18
3240.574, 29628.39
3242.503, 29630.95
3244.431, 29609.65
3246.360, 29503.21
3248.288, 29513.42
3250.217, 29687.55
3252.145, 29737.22
3254.074, 29678.06
3256.002, 29667.04
3257.931, 29698.19
3259.859, 29786.25
3261.788, 29862.72
3263.716, 29833.89
3265.645, 29785.12
3267.573, 29746.75
3269.501, 29755.87
3271.430, 29837.61
3273.358, 29900.66
3275.287, 29928.49
3277.215, 29908.02
3279.144, 29846.98
3281.072, 29911.29
3283.001, 30038.35
3284.929, 30029.71
3286.858, 29979.69
3288.786, 30033.56
3290.715, 30080.33
3292.643, 30006.50
3294.572, 29975.56
3296.500, 30074.84
3298.428, 30139.72
3300.357, 30150.34
3302.285, 30129.29
3304.214, 30082.25
3306.142, 30088.76
3308.071, 30102.63
3309.999, 29998.97
3311.928, 29845.24
3313.856, 29694.69
3315.785, 29573.78
3317.713, 29528.69
3319.642, 29447.36
3321.570, 29263.06
3323.499, 29113.85
3325.427, 29007.30
3327.355, 28951.30
3329.284, 28926.23
3331.212, 28832.76
3333.141, 28691.56
3335.069, 28517.86
3336.998, 28351.82
3338.926, 28234.56
3340.855, 28117.44
3342.783, 27971.70
3344.712, 27856.13
3346.640, 27797.30
3348.569, 27712.21
3350.497, 27604.02
3352.426, 27485.96
3354.354, 27377.33
3356.282, 27313.44
3358.211, 27275.84
3360.139, 27236.98
3362.068, 27212.11
3363.996, 27222.50
3365.925, 27195.84
3367.853, 27098.86
3369.782, 27073.61
3371.710, 27129.23
3373.639, 27111.63
3375.567, 27041.68
3377.496, 26957.92
3379.424, 26891.59
3381.353, 26888.21
3383.281, 26885.78
3385.209, 26845.45
3387.138, 26795.13
3389.066, 26741.24
3390.995, 26677.81
3392.923, 26607.43
3394.852, 26592.74
3396.780, 26608.69
3398.709, 26568.65
3400.637, 26523.60
3402.566, 26556.86
3404.494, 26569.62
3406.423, 26481.12
3408.351, 26430.18
3410.280, 26453.76
3412.208, 26423.56
3414.136, 26339.81
3416.065, 26314.45
3417.993, 26318.57
3419.922, 26270.93
3421.850, 26220.44
3423.779, 26219.65
3425.707, 26217.60
3427.636, 26200.04
3429.564, 26159.28
3431.493, 26085.90
3433.421, 26076.17
3435.350, 26115.69
3437.278, 26083.51
3439.207, 26011.20
3441.135, 25930.41
3443.063, 25855.00
3444.992, 25784.19
3446.920, 25742.48
3448.849, 25760.67
3450.777, 25746.71
3452.706, 25697.74
3454.634, 25625.80
3456.563, 25555.25
3458.491, 25595.91
3460.420, 25611.26
3462.348, 25401.89
3464.277, 25263.37
3466.205, 25410.36
3468.134, 25476.95
3470.062, 25428.94
3471.990, 25368.57
3473.919, 25308.99
3475.847, 25302.92
3477.776, 25303.68
3479.704, 25240.71
3481.633, 25182.00
3483.561, 25177.75
3485.490, 25164.41
3487.418, 25132.63
3489.347, 25112.80
3491.275, 25105.26
3493.204, 25059.37
3495.132, 24998.03
3497.061, 24941.35
3498.989, 24905.24
3500.917, 24908.06
3502.846, 24900.32
3504.774, 24868.17
3506.703, 24805.07
3508.631, 24721.97
3510.560, 24724.25
3512.488, 24759.57
3514.417, 24751.81
3516.345, 24696.64
3518.274, 24550.14
3520.202, 24462.91
3522.131, 24514.59
3524.059, 24449.51
3525.988, 24285.23
3527.916, 24309.23
3529.844, 24399.91
3531.773, 24286.38
3533.701, 24156.28
3535.630, 24159.74
3537.558, 24130.65
3539.487, 24041.29
3541.415, 23917.45
3543.344, 23769.71
3545.272, 23615.59
3547.201, 23488.07
3549.129, 23451.81
3551.058, 23432.12
3552.986, 23380.91
3554.915, 23316.69
3556.843, 23235.22
3558.771, 23200.96
3560.700, 23198.46
3562.628, 23082.84
3564.557, 22950.98
3566.485, 22940.68
3568.414, 22940.57
3570.342, 22903.29
3572.271, 22847.02
3574.199, 22762.34
3576.128, 22766.25
3578.056, 22810.38
3579.985, 22736.00
3581.913, 22632.12
3583.842, 22602.90
3585.770, 22551.69
3587.698, 22425.30
3589.627, 22366.90
3591.555, 22382.45
3593.484, 22368.99
3595.412, 22334.63
3597.341, 22288.23
3599.269, 22244.06
3601.198, 22213.76
3603.126, 22177.14
3605.055, 22123.84
3606.983, 22106.93
3608.912, 22105.44
3610.840, 22001.87
3612.769, 21888.60
3614.697, 21884.10
3616.625, 21897.76
3618.554, 21907.28
3620.482, 21877.97
3622.411, 21809.68
3624.339, 21732.25
3626.268, 21658.71
3628.196, 21612.83
3630.125, 21584.02
3632.053, 21565.28
3633.982, 21568.40
3635.910, 21601.41
3637.839, 21534.80
3639.767, 21395.87
3641.696, 21279.25
3643.624, 21229.29
3645.552, 21371.22
3647.481, 21405.59
3649.409, 21188.81
3651.338, 21050.28
3653.266, 21010.36
3655.195, 21020.65
3657.123, 21036.42
3659.052, 20987.15
3660.980, 20921.57
3662.909, 20851.99
3664.837, 20810.46
3666.766, 20798.70
3668.694, 20746.86
3670.623, 20686.35
3672.551, 20717.04
3674.479, 20733.20
3676.408, 20634.50
3678.336, 20571.58
3680.265, 20565.54
3682.193, 20538.57
3684.122, 20495.75
3686.050, 20473.24
3687.979, 20437.48
3689.907, 20339.07
3691.836, 20276.72
3693.764, 20273.84
3695.693, 20254.43
3697.621, 20217.16
3699.550, 20167.55
3701.478, 20114.18
3703.406, 20043.07
3705.335, 20018.72
3707.263, 20061.69
3709.192, 20062.27
3711.120, 20021.33
3713.049, 19969.93
3714.977, 19935.60
3716.906, 19988.27
3718.834, 19971.03
3720.763, 19825.50
3722.691, 19769.18
3724.620, 19795.55
3726.548, 19761.66
3728.477, 19713.39
3730.405, 19713.35
3732.333, 19683.99
3734.262, 19595.94
3736.190, 19529.30
3738.119, 19491.53
3740.047, 19507.02
3741.976, 19513.88
3743.904, 19431.29
3745.833, 19351.92
3747.761, 19293.82
3749.690, 19323.38
3751.618, 19413.46
3753.547, 19414.94
3755.475, 19371.22
3757.404, 19313.04
3759.332, 19254.42
3761.260, 19197.29
3763.189, 19152.59
3765.117, 19120.24
3767.046, 19108.87
3768.974, 19089.29
3770.903, 19010.78
3772.831, 18984.90
3774.760, 19035.35
3776.688, 19050.84
3778.617, 19026.08
3780.545, 18935.84
3782.474, 18849.47
3784.402, 18823.86
3786.331, 18798.68
3788.259, 18765.88
3790.188, 18726.87
3792.116, 18684.35
3794.044, 18615.83
3795.973, 18592.72
3797.901, 18710.23
3799.830, 18737.55
3801.758, 18666.06
3803.687, 18605.34
3805.615, 18548.69
3807.544, 18474.42
3809.472, 18409.74
3811.401, 18363.64
3813.329, 18344.15
3815.258, 18348.20
3817.186, 18363.59
3819.115, 18371.64
3821.043, 18355.41
3822.971, 18316.46
3824.900, 18235.83
3826.828, 18223.59
3828.757, 18246.31
3830.685, 18199.73
3832.614, 18173.95
3834.542, 18249.22
3836.471, 18242.32
3838.399, 18120.09
3840.328, 18112.78
3842.256, 18133.12
3844.185, 18025.83
3846.113, 17943.87
3848.042, 17947.52
3849.970, 17948.09
3851.898, 17934.67
3853.827, 17868.78
3855.755, 17818.95
3857.684, 17889.36
3859.612, 17897.67
3861.541, 17807.86
3863.469, 17783.48
3865.398, 17789.48
3867.326, 17743.45
3869.255, 17695.86
3871.183, 17659.55
3873.112, 17674.09
3875.040, 17728.37
3876.969, 17763.27
3878.897, 17774.03
3880.825, 17733.17
3882.754, 17703.32
3884.682, 17704.89
3886.611, 17706.42
3888.539, 17694.08
3890.468, 17642.18
3892.396, 17585.40
3894.325, 17522.92
3896.253, 17523.31
3898.182, 17564.73
3900.110, 17504.82
3902.039, 17417.19
3903.967, 17375.24
3905.896, 17371.86
3907.824, 17409.50
3909.752, 17393.71
3911.681, 17357.84
3913.609, 17413.66
3915.538, 17443.82
3917.466, 17392.73
3919.395, 17307.27
3921.323, 17207.57
3923.252, 17224.58
3925.180, 17241.05
3927.109, 17118.34
3929.037, 17104.28
3930.966, 17222.46
3932.894, 17239.37
3934.823, 17203.87
3936.751, 17151.29
3938.679, 17146.16
3940.608, 17184.43
3942.536, 17147.67
3944.465, 17064.98
3946.393, 17008.56
3948.322, 16960.92
3950.250, 16951.51
3952.179, 16975.54
3954.107, 16973.15
3956.036, 16943.97
3957.964, 16905.99
3959.893, 16877.86
3961.821, 16884.15
3963.750, 16895.86
3965.678, 16914.18
3967.606, 16902.26
3969.535, 16875.64
3971.463, 16823.12
3973.392, 16714.74
3975.320, 16697.39
3977.249, 16714.38
3979.177, 16695.37
3981.106, 16691.96
3983.034, 16705.64
3984.963, 16713.84
3986.891, 16706.59
3988.820, 16653.16
3990.748, 16626.23
3992.677, 16647.31
3994.605, 16638.56
3996.533, 16620.14
3998.462, 16604.28
4000.390, 16589.20
4002.319, 16574.88
4004.247, 16542.56
4006.176, 16516.13
4008.104, 16525.88
4010.033, 16494.98
4011.961, 16444.62
4013.890, 16431.92
4015.818, 16393.25
4017.747, 16405.91
4019.675, 16443.24
4021.604, 16422.53
4023.532, 16432.06
4025.460, 16460.27
4027.389, 16357.60
4029.317, 16284.58
4031.246, 16337.87
4033.174, 16351.56
4035.103, 16287.17
4037.031, 16247.22
4038.960, 16260.55
4040.888, 16272.05
4042.817, 16242.65
4044.745, 16183.18
4046.674, 16189.87
4048.602, 16217.16
4050.531, 16137.50
4052.459, 16097.93
4054.387, 16116.21
4056.316, 16104.45
4058.244, 16104.97
4060.173, 16141.32
4062.101, 16136.76
4064.030, 16081.71
4065.958, 16038.44
4067.887, 16013.03
4069.815, 16036.91
4071.744, 16037.71
4073.672, 16009.60
4075.601, 15973.73
4077.529, 15916.74
4079.458, 15885.25
4081.386, 15917.00
4083.314, 15993.24
4085.243, 16006.15
4087.171, 15979.44
4089.100, 15940.72
4091.028, 15865.74
4092.957, 15767.62
4094.885, 15738.45
4096.814, 15754.88
4098.742, 15819.82
4100.671, 15855.83
4102.599, 15826.50
4104.528, 15772.32
4106.456, 15723.17
4108.385, 15754.48
4110.313, 15758.78
4112.242, 15672.00
4114.170, 15623.50
4116.099, 15611.96
4118.027, 15620.74
4119.956, 15625.61
4121.884, 15605.62
4123.813, 15612.36
4125.741, 15633.09
4127.669, 15634.74
4129.598, 15603.28
4131.526, 15524.54
4133.455, 15503.83
4135.383, 15516.16
4137.312, 15475.82
4139.240, 15447.65
4141.168, 15462.70
4143.097, 15471.14
4145.025, 15477.17
4146.954, 15490.10
4148.882, 15509.75
4150.811, 15556.96
4152.739, 15528.72
4154.668, 15450.10
4156.596, 15413.96
4158.525, 15379.55
4160.453, 15307.95
4162.382, 15270.00
4164.310, 15271.46
4166.239, 15260.37
4168.167, 15234.67
4170.096, 15196.42
4172.024, 15232.36
4173.953, 15295.72
4175.881, 15241.65
4177.810, 15199.62
4179.738, 15196.34
4181.667, 15192.33
4183.595, 15189.71
4185.523, 15170.40
4187.452, 15165.68
4189.380, 15165.06
4191.309, 15168.78
4193.237, 15177.74
4195.166, 15144.57
4197.094, 15108.51
4199.022, 15092.33
4200.951, 15060.86
4202.879, 15035.40
4204.808, 15068.14
4206.736, 15086.13
4208.665, 15079.93
4210.593, 15033.37
4212.522, 14980.84
4214.450, 14987.70
4216.379, 15002.49
4218.307, 15000.90
4220.236, 14959.24
4222.164, 14927.79
4224.093, 14964.08
4226.021, 15000.46
4227.950, 15023.76
4229.878, 14982.22
4231.807, 14931.30
4233.735, 14918.59
4235.664, 14913.33
4237.592, 14906.30
4239.521, 14853.58
4241.449, 14805.53
4243.377, 14793.61
4245.306, 14769.92
4247.234, 14753.84
4249.163, 14835.38
4251.091, 14894.67
4253.020, 14884.99
4254.948, 14785.30
4256.876, 14681.25
4258.805, 14762.83
4260.733, 14839.36
4262.662, 14859.52
4264.590, 14778.13
4266.519, 14682.96
4268.447, 14685.75
4270.376, 14697.56
4272.304, 14698.60
4274.233, 14551.74
4276.161, 14434.34
4278.090, 14508.53
4280.018, 14525.50
4281.947, 14481.72
4283.875, 14491.15
4285.804, 14499.84
4287.732, 14481.05
4289.661, 14477.97
4291.589, 14473.87
4293.518, 14400.32
4295.446, 14377.51
4297.375, 14440.82
4299.303, 14497.63
4301.231, 14503.46
4303.160, 14367.78
4305.088, 14319.45
4307.017, 14379.78
4308.945, 14384.04
4310.874, 14353.10
4312.802, 14295.97
4314.730, 14229.43
4316.659, 14176.40
4318.587, 14220.82
4320.516, 14233.58
4322.444, 14166.67
4324.373, 14215.14
4326.301, 14293.85
4328.230, 14274.86
4330.158, 14264.33
4332.087, 14269.64
4334.015, 14158.87
4335.944, 14064.00
4337.872, 14081.12
4339.801, 14093.78
4341.729, 14098.27
4343.658, 14123.88
4345.586, 14138.44
4347.515, 14131.15
4349.443, 14154.46
4351.372, 14170.57
4353.300, 14119.58
4355.229, 14081.63
4357.157, 14067.48
4359.085, 14050.28
4361.014, 14073.91
4362.942, 14211.30
4364.871, 14164.86
4366.799, 14035.28
4368.728, 14038.36
4370.656, 14110.50
4372.584, 14235.46
4374.513, 14195.38
4376.441, 14091.06
4378.370, 13974.38
4380.298, 13994.54
4382.227, 14107.30
4384.155, 14109.78
4386.084, 14084.42
4388.012, 14058.34
4389.941, 14048.21
4391.869, 14043.77
4393.798, 14037.33
4395.726, 14006.28
4397.655, 13962.42
4399.583, 14030.08
4401.512, 14061.75
4403.440, 13982.94
4405.369, 13913.15
4407.297, 13855.88
4409.226, 13788.18
4411.154, 13785.35
4413.083, 13838.77
4415.011, 13813.23
4416.939, 13779.39
4418.868, 13783.05
4420.796, 13763.14
4422.725, 13753.17
4424.653, 13851.99
4426.582, 13879.18
4428.510, 13805.34
4430.438, 13808.83
4432.367, 13833.13
4434.295, 13850.99
4436.224, 13822.55
4438.152, 13776.36
4440.081, 13765.36
4442.009, 13771.36
4443.938, 13789.88
4445.866, 13874.90
4447.795, 13897.83
4449.723, 13760.82
4451.652, 13774.63
4453.580, 13841.73
4455.509, 13719.10
4457.437, 13651.64
4459.366, 13678.14
4461.294, 13741.79
4463.223, 13786.23
4465.151, 13774.55
4467.080, 13732.38
4469.008, 13668.29
4470.937, 13586.01
4472.865, 13515.19
4474.793, 13467.62
4476.722, 13507.73
4478.650, 13523.83
4480.579, 13460.76
4482.507, 13405.60
4484.436, 13339.27
4486.364, 13202.85
4488.292, 13206.60
4490.221, 13305.10
4492.149, 13255.19
4494.078, 13181.13
4496.006, 13128.60
4497.935, 13102.42
4499.863, 13100.23
4501.792, 13137.61
4503.720, 13128.80
4505.649, 13097.15
4507.577, 13123.46
4509.506, 13119.33
4511.434, 13067.76
4513.363, 13050.05
4515.291, 13072.04
4517.220, 13149.00
4519.148, 13048.49
4521.077, 12917.93
4523.005, 12996.13
4524.934, 13036.86
4526.862, 13013.28
4528.791, 12944.28
4530.719, 12900.76
4532.647, 12912.40
4534.576, 12964.98
4536.504, 12961.50
4538.433, 12785.18
4540.361, 12797.23
4542.290, 12897.29
4544.218, 12843.16
4546.146, 12871.72
4548.075, 12975.43
4550.003, 12927.07
4551.932, 12842.35
4553.860, 12766.71
4555.789, 12816.44
4557.717, 12879.85
4559.646, 12846.51
4561.574, 12790.62
4563.503, 12746.07
4565.431, 12772.13
4567.360, 12818.74
4569.288, 12862.22
4571.217, 12814.39
4573.145, 12813.40
4575.074, 12914.76
4577.002, 12877.05
4578.931, 12805.24
4580.859, 12806.45
4582.788, 12798.61
4584.716, 12801.37
4586.645, 12882.63
4588.573, 12893.14
4590.501, 12833.16
4592.430, 12821.28
4594.358, 12813.26
4596.287, 12797.22
4598.215, 12828.59
4600.144, 12856.46
4602.072, 12829.31
4604.000, 12817.87
4605.929, 12811.34
4607.857, 12798.37
4609.786, 12775.13
4611.714, 12736.13
4613.643, 12654.69
4615.571, 12581.80
4617.500, 12522.02
4619.428, 12419.07
4621.357, 12311.07
4623.285, 12204.77
4625.214, 12240.08
4627.142, 12269.88
4629.071, 12160.69
4630.999, 12106.71
4632.928, 12090.75
4634.856, 12065.95
4636.785, 12050.75
4638.713, 12031.52
4640.642, 11944.75
4642.570, 11894.31
4644.499, 11901.48
4646.427, 11895.15
4648.355, 11849.81
4650.284, 11756.25
4652.212, 11737.40
4654.141, 11753.62
4656.069, 11776.70
4657.998, 11793.50
4659.926, 11784.60
4661.854, 11717.13
4663.783, 11627.30
4665.711, 11543.11
4667.640, 11522.08
4669.568, 11523.47
4671.497, 11536.85
4673.425, 11577.52
4675.354, 11577.09
4677.282, 11514.65
4679.211, 11541.57
4681.139, 11563.97
4683.068, 11531.79
4684.996, 11507.51
4686.925, 11486.32
4688.853, 11460.24
4690.782, 11448.23
4692.710, 11443.96
4694.639, 11440.28
4696.567, 11431.37
4698.496, 11420.45
4700.424, 11416.73
4702.353, 11400.84
4704.281, 11379.08
4706.209, 11383.69
4708.138, 11402.97
4710.066, 11426.85
4711.995, 11374.51
4713.923, 11340.59
4715.852, 11360.84
4717.780, 11349.42
4719.708, 11331.28
4721.637, 11320.13
4723.565, 11338.78
4725.494, 11336.51
4727.422, 11246.50
4729.351, 11246.10
4731.279, 11288.22
4733.208, 11316.48
4735.136, 11300.93
4737.065, 11253.94
4738.993, 11184.53
4740.922, 11164.55
4742.850, 11171.36
4744.779, 11084.51
4746.707, 11102.15
4748.636, 11205.64
4750.564, 11186.39
4752.493, 11143.57
4754.421, 11109.88
4756.350, 11113.87
4758.278, 11056.43
4760.207, 10921.93
4762.135, 11046.52
4764.063, 11110.68
4765.992, 10936.72
4767.920, 10893.22
4769.849, 10896.88
4771.777, 10893.08
4773.706, 10846.95
4775.634, 10815.01
4777.563, 10851.60
4779.491, 10850.01
4781.419, 10811.11
4783.348, 10721.00
4785.276, 10733.29
4787.205, 10775.87
4789.133, 10735.94
4791.062, 10707.12
4792.990, 10700.21
4794.919, 10721.53
4796.847, 10743.55
4798.776, 10745.28
4800.704, 10681.26
4802.633, 10609.66
4804.561, 10561.06
4806.490, 10595.86
4808.418, 10622.85
4810.347, 10621.91
4812.275, 10573.24
4814.204, 10543.13
4816.132, 10524.92
4818.061, 10422.88
4819.989, 10350.21
4821.917, 10334.99
4823.846, 10379.77
4825.774, 10375.32
4827.703, 10304.24
4829.631, 10211.89
4831.560, 10188.06
4833.488, 10254.62
4835.417, 10280.86
4837.345, 10230.52
4839.273, 10115.95
4841.202, 10144.21
4843.130, 10168.81
4845.059, 10122.23
4846.987, 10083.97
4848.916, 10045.19
4850.844, 10002.05
4852.773, 9944.712
4854.701, 9927.133
4856.630, 9984.674
4858.558, 9965.614
4860.487, 9923.761
4862.415, 9886.775
4864.344, 9903.558
4866.272, 9926.805
4868.201, 9932.752
4870.129, 9868.799
4872.058, 9816.921
4873.986, 9815.276
4875.915, 9767.314
4877.843, 9720.516
4879.771, 9703.088
4881.700, 9735.024
4883.628, 9723.714
4885.557, 9626.463
4887.485, 9570.210
4889.414, 9564.555
4891.342, 9613.124
4893.271, 9632.068
4895.199, 9643.753
4897.127, 9659.418
4899.056, 9655.400
4900.984, 9638.401
4902.913, 9612.540
4904.841, 9525.221
4906.770, 9481.426
4908.698, 9530.633
4910.627, 9502.551
4912.555, 9472.056
4914.484, 9469.105
4916.412, 9449.790
4918.341, 9429.432
4920.269, 9414.582
4922.198, 9343.919
4924.126, 9336.517
4926.055, 9406.635
4927.983, 9339.596
4929.912, 9286.235
4931.840, 9295.547
4933.769, 9310.729
4935.697, 9305.626
4937.625, 9281.810
4939.554, 9283.494
4941.482, 9259.251
4943.411, 9203.867
4945.339, 9143.939
4947.268, 9133.023
4949.196, 9168.453
4951.125, 9215.593
4953.053, 9244.053
4954.981, 9245.634
4956.910, 9212.710
4958.838, 9144.553
4960.767, 9076.792
4962.695, 9084.012
4964.624, 9122.544
4966.552, 9142.468
4968.481, 9048.411
4970.409, 9037.767
4972.338, 9038.485
4974.266, 8911.329
4976.195, 8916.404
4978.123, 8973.445
4980.052, 8969.328
4981.980, 8948.066
4983.909, 8913.079
4985.837, 8860.962
4987.766, 8854.783
4989.694, 8841.168
4991.623, 8784.274
4993.551, 8816.498
4995.479, 8869.924
4997.408, 8906.588
4999.336, 8806.436
5001.265, 8749.853
5003.193, 8788.193
5005.122, 8829.678
5007.050, 8818.055
5008.979, 8757.661
5010.907, 8762.500
5012.835, 8752.409
5014.764, 8715.432
5016.692, 8665.510
5018.621, 8623.303
5020.549, 8596.912
5022.478, 8603.251
5024.406, 8579.491
5026.335, 8560.349
5028.263, 8605.709
5030.192, 8636.703
5032.120, 8647.088
5034.049, 8637.991
5035.977, 8619.313
5037.906, 8611.054
5039.834, 8626.493
5041.763, 8533.991
5043.691, 8512.290
5045.620, 8606.886
5047.548, 8477.155
5049.477, 8406.007
5051.405, 8457.496
5053.333, 8468.754
5055.262, 8412.204
5057.190, 8337.592
5059.119, 8406.019
5061.047, 8438.857
5062.976, 8430.922
5064.904, 8412.522
5066.833, 8349.452
5068.761, 8283.622
5070.689, 8256.908
5072.618, 8278.555
5074.546, 8281.235
5076.475, 8221.404
5078.403, 8194.357
5080.332, 8254.299
5082.260, 8389.135
5084.189, 8274.934
5086.117, 8204.590
5088.046, 8213.861
5089.974, 8183.533
5091.903, 8150.610
5093.831, 8140.502
5095.760, 8207.821
5097.688, 8175.015
5099.617, 8127.278
5101.545, 8170.724
5103.474, 8118.433
5105.402, 8086.478
5107.331, 8165.542
5109.259, 8080.040
5111.188, 8046.445
5113.116, 8112.515
5115.044, 8090.333
5116.973, 8046.960
5118.901, 8015.675
5120.830, 8045.568
5122.758, 8077.094
5124.687, 8079.648
5126.615, 8022.498
5128.543, 7956.952
5130.472, 7920.066
5132.400, 7933.739
5134.329, 7979.564
5136.257, 7978.168
5138.186, 7915.662
5140.114, 7962.489
5142.043, 7955.032
5143.971, 7904.774
5145.900, 7936.518
5147.828, 7970.168
5149.757, 7988.424
5151.685, 7980.558
5153.614, 7984.180
5155.542, 7947.520
5157.471, 7846.930
5159.399, 7887.468
5161.328, 7916.391
5163.256, 7898.729
5165.185, 7935.453
5167.113, 7931.595
5169.042, 7899.005
5170.970, 7901.215
5172.898, 7838.344
5174.827, 7769.689
5176.755, 7753.596
5178.684, 7756.653
5180.612, 7766.929
5182.541, 7777.896
5184.469, 7767.023
5186.397, 7761.905
5188.326, 7754.914
5190.254, 7705.621
5192.183, 7693.039
5194.111, 7712.359
5196.040, 7755.783
5197.968, 7716.496
5199.897, 7685.776
5201.825, 7703.910
5203.754, 7637.550
5205.682, 7635.497
5207.611, 7681.149
5209.539, 7630.309
5211.468, 7643.686
5213.396, 7671.868
5215.325, 7638.508
5217.253, 7594.479
5219.182, 7583.808
5221.110, 7619.513
5223.039, 7648.896
5224.967, 7655.067
5226.896, 7626.399
5228.824, 7515.396
5230.752, 7508.936
5232.681, 7531.547
5234.609, 7496.551
5236.538, 7516.306
5238.466, 7534.976
5240.395, 7531.253
5242.323, 7515.031
5244.251, 7525.641
5246.180, 7533.629
5248.108, 7461.512
5250.037, 7451.731
5251.965, 7459.297
5253.894, 7450.324
5255.822, 7476.094
5257.751, 7493.248
5259.679, 7487.428
5261.608, 7452.535
5263.536, 7437.105
5265.465, 7410.764
5267.393, 7320.321
5269.322, 7347.850
5271.250, 7371.441
5273.179, 7346.776
5275.107, 7337.472
5277.036, 7350.871
5278.964, 7368.526
5280.893, 7371.083
5282.821, 7294.046
5284.750, 7236.463
5286.678, 7256.266
5288.606, 7304.507
5290.535, 7333.008
5292.463, 7325.472
5294.392, 7262.206
5296.320, 7250.329
5298.249, 7231.871
5300.177, 7146.529
5302.105, 7162.447
5304.034, 7165.805
5305.962, 7143.500
5307.891, 7172.186
5309.819, 7169.013
5311.748, 7160.748
5313.676, 7184.079
5315.605, 7176.073
5317.533, 7114.078
5319.462, 7033.464
5321.390, 7110.676
5323.319, 7164.061
5325.247, 7159.463
5327.176, 7092.921
5329.104, 7063.635
5331.033, 7085.620
5332.961, 7132.495
5334.890, 7068.485
5336.818, 7053.198
5338.747, 7074.922
5340.675, 7096.971
5342.604, 7015.709
5344.532, 6955.848
5346.460, 6956.332
5348.389, 6976.709
5350.317, 6984.718
5352.246, 6972.643
5354.174, 6923.075
5356.103, 7012.139
5358.031, 7026.040
5359.959, 6934.136
5361.888, 6904.245
5363.816, 6904.063
5365.745, 6917.128
5367.673, 6933.508
5369.602, 6949.614
5371.530, 6952.654
5373.459, 6947.007
5375.387, 6967.273
5377.316, 6922.849
5379.244, 6867.033
5381.173, 6846.950
5383.101, 6848.505
5385.030, 6850.310
5386.958, 6856.213
5388.887, 6894.620
5390.815, 6871.522
5392.744, 6828.754
5394.672, 6796.398
5396.601, 6794.597
5398.529, 6787.891
5400.458, 6786.637
5402.386, 6815.974
5404.314, 6813.545
5406.243, 6765.126
5408.171, 6694.803
5410.100, 6700.001
5412.028, 6760.382
5413.957, 6786.354
5415.885, 6687.250
5417.813, 6682.453
5419.742, 6731.154
5421.670, 6780.525
5423.599, 6748.963
5425.527, 6737.321
5427.456, 6698.745
5429.384, 6627.339
5431.313, 6737.576
5433.241, 6782.538
5435.170, 6759.733
5437.098, 6726.283
5439.027, 6674.213
5440.955, 6652.173
5442.884, 6665.292
5444.812, 6683.930
5446.741, 6699.347
5448.669, 6701.862
5450.598, 6686.231
5452.526, 6654.293
5454.455, 6609.154
5456.383, 6577.796
5458.312, 6599.895
5460.240, 6600.978
5462.168, 6579.236
5464.097, 6544.122
5466.025, 6511.242
5467.954, 6563.940
5469.882, 6603.723
5471.811, 6572.875
5473.739, 6576.652
5475.667, 6575.048
5477.596, 6558.609
5479.524, 6522.049
5481.453, 6527.716
5483.381, 6507.147
5485.310, 6465.513
5487.238, 6461.753
5489.167, 6470.094
5491.095, 6465.021
5493.024, 6444.755
5494.952, 6462.544
5496.881, 6457.461
5498.809, 6431.315
5500.738, 6393.122
5502.666, 6438.506
5504.595, 6414.723
5506.523, 6351.298
5508.452, 6343.611
5510.380, 6297.184
5512.309, 6301.617
5514.237, 6350.992
5516.166, 6344.504
5518.094, 6362.793
5520.022, 6346.864
5521.951, 6278.623
5523.879, 6270.535
5525.808, 6214.671
5527.736, 6191.118
5529.665, 6263.544
5531.593, 6179.198
5533.521, 6187.352
5535.450, 6243.141
5537.378, 6231.721
5539.307, 6239.245
5541.235, 6183.321
5543.164, 6110.899
5545.092, 6176.612
5547.021, 6183.372
5548.949, 6166.087
5550.878, 6143.981
5552.806, 6118.461
5554.735, 6077.491
5556.663, 6052.829
5558.592, 6060.838
5560.520, 6102.749
5562.449, 6083.190
5564.377, 6042.041
5566.306, 6021.532
5568.234, 6052.782
5570.163, 6044.220
5572.091, 6025.001
5574.020, 6039.762
5575.948, 6012.062
5577.876, 5958.845
5579.805, 5918.546
5581.733, 5930.205
5583.662, 5961.687
5585.590, 5930.002
5587.519, 5871.361
5589.447, 5869.832
5591.375, 5851.682
5593.304, 5847.260
5595.232, 5852.755
5597.161, 5830.484
5599.089, 5828.203
5601.018, 5816.629
5602.946, 5794.292
5604.875, 5792.242
5606.803, 5769.396
5608.732, 5756.105
5610.660, 5762.707
5612.589, 5779.233
5614.517, 5723.960
5616.446, 5685.323
5618.374, 5706.756
5620.303, 5787.782
5622.231, 5731.446
5624.160, 5653.175
5626.088, 5631.522
5628.017, 5695.310
5629.945, 5627.334
5631.874, 5575.918
5633.802, 5620.412
5635.730, 5640.671
5637.659, 5663.665
5639.587, 5648.172
5641.516, 5594.644
5643.444, 5645.955
5645.373, 5635.560
5647.301, 5593.913
5649.229, 5574.934
5651.158, 5714.417
5653.086, 5613.865
5655.015, 5514.592
5656.943, 5569.221
5658.872, 5555.613
5660.800, 5542.372
5662.729, 5528.332
5664.657, 5511.196
5666.586, 5520.832
5668.514, 5478.790
5670.443, 5445.727
5672.371, 5452.299
5674.300, 5438.419
5676.228, 5433.139
5678.157, 5447.997
5680.085, 5468.052
5682.014, 5397.053
5683.942, 5452.515
5685.871, 5458.099
5687.799, 5363.655
5689.728, 5367.716
5691.656, 5359.956
5693.584, 5373.813
5695.513, 5401.620
5697.441, 5364.685
5699.370, 5386.327
5701.298, 5346.968
5703.227, 5267.424
5705.155, 5303.434
5707.083, 5275.138
5709.012, 5289.554
5710.940, 5318.813
5712.869, 5238.010
5714.797, 5222.131
5716.726, 5205.533
5718.654, 5197.803
5720.583, 5258.317
5722.511, 5244.084
5724.440, 5176.625
5726.368, 5137.095
5728.297, 5203.073
5730.225, 5202.153
5732.154, 5179.687
5734.082, 5125.947
5736.011, 5053.552
5737.939, 5173.673
5739.868, 5218.836
5741.796, 5184.218
5743.725, 5115.843
5745.653, 5081.866
5747.582, 5049.117
5749.510, 5066.543
5751.438, 5116.307
5753.367, 5061.575
5755.295, 5004.854
5757.224, 4990.820
5759.152, 5013.168
5761.081, 5033.714
5763.009, 5079.437
5764.938, 5024.311
5766.866, 4952.422
5768.794, 4999.592
5770.723, 4993.726
5772.651, 4957.067
5774.580, 4956.066
5776.508, 5004.865
5778.437, 4895.746
5780.365, 4897.119
5782.294, 4909.705
5784.222, 4876.712
5786.151, 4872.788
5788.079, 4855.869
5790.008, 4886.201
5791.936, 4913.028
5793.865, 4787.214
5795.793, 4795.741
5797.722, 4819.990
5799.650, 4829.190
5801.579, 4830.923
5803.507, 4863.157
5805.436, 4869.798
5807.364, 4824.229
5809.292, 4758.155
5811.221, 4835.036
5813.149, 4876.712
5815.078, 4837.700
5817.006, 4761.670
5818.935, 4739.388
5820.863, 4805.157
5822.792, 4803.486
5824.720, 4769.457
5826.648, 4777.404
5828.577, 4795.170
5830.505, 4769.390
5832.434, 4749.056
5834.362, 4757.999
5836.291, 4755.717
5838.219, 4747.648
5840.148, 4746.956
5842.076, 4740.130
5844.005, 4690.254
5845.933, 4740.767
5847.862, 4700.230
5849.790, 4655.852
5851.719, 4695.269
5853.647, 4720.212
5855.576, 4638.493
5857.504, 4578.875
5859.433, 4583.494
5861.361, 4608.957
5863.290, 4600.653
5865.218, 4628.992
5867.146, 4647.235
5869.075, 4606.996
5871.003, 4592.191
5872.932, 4568.938
5874.860, 4575.942
5876.789, 4590.506
5878.717, 4522.241
5880.646, 4519.342
5882.574, 4538.175
5884.502, 4555.289
5886.431, 4555.395
5888.359, 4438.437
5890.288, 4508.165
5892.216, 4555.175
5894.145, 4488.847
5896.073, 4365.502
5898.002, 4401.953
5899.930, 4440.895
5901.859, 4454.435
5903.787, 4457.131
5905.716, 4419.440
5907.644, 4444.999
5909.573, 4443.871
5911.501, 4416.627
5913.430, 4442.878
5915.358, 4374.277
5917.287, 4403.362
5919.215, 4430.083
5921.144, 4380.745
5923.072, 4389.588
5925.000, 4387.882
5926.929, 4390.695
5928.857, 4372.190
5930.786, 4308.177
5932.714, 4351.978
5934.643, 4355.559
5936.571, 4339.364
5938.500, 4320.662
5940.428, 4282.034
5942.356, 4263.250
5944.285, 4289.268
5946.213, 4310.583
5948.142, 4295.578
5950.070, 4289.313
5951.999, 4349.322
5953.927, 4343.342
5955.856, 4293.053
5957.784, 4285.198
5959.713, 4225.128
5961.641, 4252.921
5963.570, 4265.796
5965.498, 4243.281
5967.427, 4284.048
5969.355, 4287.048
5971.284, 4306.960
5973.212, 4301.246
5975.141, 4252.103
5977.069, 4230.659
5978.998, 4191.502
5980.926, 4187.250
5982.854, 4212.249
5984.783, 4238.224
5986.711, 4227.062
5988.640, 4220.993
5990.568, 4204.186
5992.497, 4176.104
5994.425, 4150.510
5996.354, 4197.006
5998.282, 4183.420
6000.210, 4129.324
6002.139, 4092.425
6004.067, 4125.387
6005.996, 4100.678
6007.924, 4167.190
6009.853, 4189.979
6011.781, 4150.672
6013.710, 4192.746
6015.638, 4117.353
6017.567, 4121.211
6019.495, 4153.055
6021.424, 4138.945
6023.352, 4066.940
6025.281, 4066.470
6027.209, 4115.849
6029.138, 4134.751
6031.066, 4102.786
6032.995, 4111.891
6034.923, 4082.659
6036.852, 4079.229
6038.780, 4085.108
6040.708, 4071.120
6042.637, 4035.499
6044.565, 4064.425
6046.494, 4104.504
6048.422, 4104.812
6050.351, 4059.409
6052.279, 4033.977
6054.208, 4034.525
6056.136, 4077.361
6058.064, 4079.359
6059.993, 4027.859
6061.921, 4124.360
6063.850, 4117.876
6065.778, 4076.377
6067.707, 4091.440
6069.635, 4161.146
6071.564, 4108.687
6073.492, 4140.451
6075.421, 4132.642
6077.349, 4109.744
6079.278, 4113.991
6081.206, 4128.952
6083.135, 4113.729
6085.063, 4078.323
6086.992, 4094.668
6088.920, 4150.596
6090.849, 4094.734
6092.777, 4133.783
6094.706, 4164.029
6096.634, 4184.012
6098.563, 4198.870
6100.491, 4188.901
6102.419, 4180.413
6104.348, 4183.955
6106.276, 4190.764
6108.205, 4209.578
6110.133, 4257.577
6112.062, 4265.815
6113.990, 4229.771
6115.918, 4220.012
6117.847, 4258.246
6119.775, 4311.223
6121.704, 4210.988
6123.632, 4276.718
6125.561, 4331.958
6127.489, 4352.297
6129.418, 4379.605
6131.346, 4356.928
6133.275, 4362.223
6135.203, 4419.904
6137.132, 4457.167
6139.060, 4449.785
6140.989, 4482.724
6142.917, 4409.667
6144.846, 4421.813
6146.774, 4471.193
6148.703, 4520.483
6150.631, 4577.535
6152.560, 4500.542
6154.488, 4481.831
6156.417, 4491.096
6158.345, 4533.619
6160.273, 4617.410
6162.202, 4659.469
6164.130, 4594.958
6166.059, 4563.735
6167.987, 4614.071
6169.916, 4682.205
6171.844, 4627.785
6173.772, 4687.204
6175.701, 4702.728
6177.629, 4720.213
6179.558, 4755.240
6181.486, 4776.313
6183.415, 4772.548
6185.343, 4745.282
6187.272, 4789.280
6189.200, 4833.320
6191.129, 4826.750
6193.057, 4847.300
6194.986, 4886.704
6196.914, 4900.158
6198.843, 4962.359
6200.771, 5024.111
6202.700, 4998.555
6204.628, 5063.078
6206.557, 5122.028
6208.485, 5189.462
6210.414, 5277.595
6212.342, 5366.064
6214.271, 5407.499
6216.199, 5428.365
6218.127, 5575.001
6220.056, 5671.794
6221.984, 5690.364
6223.913, 5726.037
6225.841, 5866.956
6227.770, 5937.953
6229.698, 5996.852
6231.626, 6056.919
6233.555, 6133.087
6235.483, 6236.036
6237.412, 6176.179
6239.340, 6128.469
6241.269, 6124.921
6243.197, 6188.122
6245.126, 6294.881
6247.054, 6347.608
6248.983, 6340.221
6250.911, 6348.777
6252.840, 6437.158
6254.768, 6549.277
6256.697, 6623.156
6258.625, 6765.195
6260.554, 6776.676
6262.482, 6896.756
6264.411, 7025.357
6266.339, 7133.782
6268.268, 7283.388
6270.196, 7366.615
6272.125, 7581.131
6274.053, 7669.837
6275.981, 7754.312
6277.910, 7934.816
6279.838, 8168.688
6281.767, 8366.127
6283.695, 8566.743
6285.624, 8766.044
6287.552, 9001.422
6289.480, 9307.265
6291.409, 9674.790
6293.337, 9982.030
6295.266, 10251.81
6297.194, 10576.94
6299.123, 11040.94
6301.051, 11516.86
6302.980, 11775.48
6304.908, 12201.11
6306.837, 12572.53
6308.765, 12987.32
6310.694, 13439.80
6312.622, 13781.67
6314.551, 13887.41
6316.479, 14259.36
6318.408, 14402.19
6320.336, 14614.52
6322.265, 14819.41
6324.193, 14985.82
6326.122, 15253.91
6328.050, 15447.52
6329.979, 15678.68
6331.907, 15822.89
6333.835, 15994.56
6335.764, 16223.74
6337.692, 16412.16
6339.621, 16483.04
6341.549, 16578.97
6343.478, 16718.93
6345.406, 16867.47
6347.334, 16926.24
6349.263, 16833.45
6351.191, 16672.92
6353.120, 16579.90
6355.048, 16260.75
6356.977, 16013.25
6358.905, 15859.19
6360.834, 15672.24
6362.762, 15472.14
6364.691, 15246.22
6366.619, 15024.37
6368.548, 14803.57
6370.476, 14675.34
6372.405, 14619.82
6374.333, 14484.87
6376.262, 14323.70
6378.190, 14369.45
6380.119, 14503.37
6382.047, 14628.23
6383.976, 14750.48
6385.904, 14918.97
6387.833, 15157.91
6389.761, 15114.43
6391.689, 15200.32
6393.618, 15307.61
6395.546, 15418.30
6397.475, 15548.30
6399.403, 15631.27
6401.332, 15631.15
6403.260, 15659.35
6405.188, 15556.10
6407.117, 15495.38
6409.045, 15440.43
6410.974, 15266.93
6412.902, 15184.31
6414.831, 15054.17
6416.759, 15018.83
6418.688, 14909.78
6420.616, 14734.31
6422.545, 14561.71
6424.473, 14403.68
6426.402, 14237.24
6428.330, 14104.41
6430.259, 13893.36
6432.187, 13783.98
6434.116, 13747.11
6436.044, 13638.16
6437.973, 13387.55
6439.901, 13197.42
6441.830, 13167.50
6443.758, 13069.85
6445.687, 13010.98
6447.615, 12952.53
6449.543, 12838.11
6451.472, 12893.63
6453.400, 12814.75
6455.329, 12832.80
6457.257, 12758.89
6459.186, 12743.68
6461.114, 12773.74
6463.042, 12734.92
6464.971, 12847.26
6466.899, 12743.48
6468.828, 12822.54
6470.756, 12881.20
6472.685, 12900.18
6474.613, 12956.55
6476.542, 13060.07
6478.470, 13068.92
6480.399, 13053.78
6482.327, 13195.93
6484.256, 13281.95
6486.184, 13277.26
6488.113, 13277.32
6490.041, 13339.72
6491.970, 13390.64
6493.898, 13407.98
6495.827, 13472.30
6497.755, 13522.61
6499.684, 13536.31
6501.612, 13552.75
6503.541, 13574.86
6505.469, 13503.27
6507.397, 13636.37
6509.326, 13535.33
6511.254, 13476.65
6513.183, 13409.39
6515.111, 13260.24
6517.040, 13076.85
6518.968, 12942.66
6520.896, 12736.13
6522.825, 12636.33
6524.753, 12421.23
6526.682, 12191.52
6528.610, 12017.99
6530.539, 11884.42
6532.467, 11746.03
6534.396, 11573.71
6536.324, 11509.78
6538.253, 11453.83
6540.181, 11239.70
6542.110, 11092.47
6544.038, 11089.02
6545.967, 11094.16
6547.895, 11007.19
6549.824, 11151.31
6551.752, 11104.82
6553.681, 11091.57
6555.609, 11018.39
6557.538, 10996.94
6559.466, 10991.00
6561.395, 10880.03
6563.323, 10887.29
6565.251, 10750.67
6567.180, 10571.28
6569.108, 10581.76
6571.037, 10484.73
6572.965, 10317.80
6574.894, 10217.30
6576.822, 10147.79
6578.750, 10125.93
##END=



