##NAMES=Footemineite
##RRUFFID=R090005
##IDEAL CHEMISTRY=Ca_2_Mn^2+^_5_Be_4_(PO_4_)_6_(OH)_4_·6H_2_O
##LOCALITY=Foote mine, North Carolina, USA
##OWNER=RRUFF
##SOURCE=Luiz Menezes
##DESCRIPTION=Pale yellow to light green prismatic or barrel-shaped crystals associated with colorless albite.
##STATUS=The identification of this mineral has been confirmed by single-crystal X-ray diffraction
##URL=https://www.rruff.net/odr/rruff_sample/R090005
##DIFFRACTION SAMPLE DESCRIPTION=Single crystal, powder profile is calculated
##CELL PARAMETERS=a: 6.743 b: 9.926 c: 9.951 alpha: 73.81 beta: 85.46 gamma: 87.63 volume: 638 crystal system: triclinic
##FILETYPE=Raman RAW
##RAMAN WAVELENGTH=532

86.91748, 29.59879
88.84595, 29.17644
90.77441, 29.20663
92.70288, 29.52602
94.63135, 30.31920
96.55981, 31.34179
98.48828, 32.17126
100.4167, 31.98783
102.3452, 32.51573
104.2737, 34.00372
106.2021, 35.89478
108.1306, 40.84835
110.0591, 49.35663
111.9875, 61.18838
113.9160, 77.50071
115.8445, 99.09269
117.7729, 124.1981
119.7014, 152.7142
121.6299, 184.6338
123.5583, 218.4041
125.4868, 252.8276
127.4153, 288.4032
129.3438, 327.2158
131.2722, 354.9582
133.2007, 377.8371
135.1292, 407.8071
137.0576, 448.6644
138.9861, 489.2328
140.9146, 533.1641
142.8430, 577.5097
144.7715, 611.5994
146.7000, 630.7377
148.6284, 643.7318
150.5569, 654.0306
152.4854, 653.2194
154.4138, 662.5099
156.3423, 686.3467
158.2708, 721.7436
160.1992, 767.4576
162.1277, 831.4838
164.0562, 899.4286
165.9846, 962.4662
167.9131, 1027.339
169.8416, 1075.630
171.7700, 1102.442
173.6985, 1107.117
175.6270, 1104.636
177.5554, 1091.346
179.4839, 1072.838
181.4124, 1055.083
183.3408, 1037.670
185.2693, 1020.860
187.1978, 1005.134
189.1262, 991.2988
191.0547, 976.7126
192.9832, 962.5284
194.9116, 946.1589
196.8401, 925.7347
198.7686, 897.7269
200.6970, 869.0145
202.6255, 839.6248
204.5540, 810.3504
206.4824, 783.6419
208.4109, 759.3831
210.3394, 738.1302
212.2678, 720.9454
214.1963, 708.9531
216.1248, 697.0102
218.0532, 683.3342
219.9817, 667.7601
221.9102, 654.7036
223.8386, 641.9009
225.7671, 632.9354
227.6956, 630.5271
229.6240, 634.7503
231.5525, 643.9968
233.4810, 657.9871
235.4094, 676.3170
237.3379, 696.2161
239.2664, 722.1107
241.1948, 746.3120
243.1233, 764.4776
245.0518, 775.6143
246.9802, 783.1595
248.9087, 786.0032
250.8372, 783.7090
252.7656, 780.6500
254.6941, 776.9429
256.6226, 772.8552
258.5510, 769.2034
260.4795, 767.3180
262.4080, 763.8646
264.3364, 757.4617
266.2649, 749.3425
268.1934, 741.1544
270.1218, 734.0390
272.0503, 724.9692
273.9788, 712.3911
275.9072, 695.5813
277.8357, 681.7654
279.7642, 672.0770
281.6926, 666.3536
283.6211, 663.2263
285.5496, 665.9639
287.4780, 667.4940
289.4065, 667.0903
291.3350, 665.3514
293.2634, 663.3317
295.1919, 660.9688
297.1204, 658.3998
299.0488, 654.5547
300.9773, 647.0596
302.9058, 641.5936
304.8342, 641.8782
306.7627, 646.0319
308.6912, 649.5070
310.6196, 652.5653
312.5481, 654.5202
314.4766, 654.2393
316.4050, 651.5361
318.3335, 650.0969
320.2620, 650.6126
322.1904, 652.2473
324.1189, 654.1989
326.0474, 656.3627
327.9758, 659.2391
329.9043, 662.6862
331.8328, 666.9815
333.7612, 673.2531
335.6897, 681.4338
337.6182, 689.9817
339.5467, 698.1622
341.4751, 705.7494
343.4036, 713.1385
345.3321, 721.7031
347.2605, 731.2087
349.1890, 742.9704
351.1175, 756.9176
353.0459, 774.5777
354.9744, 795.4822
356.9029, 818.6171
358.8313, 849.5854
360.7598, 893.0527
362.6883, 944.9620
364.6167, 999.9442
366.5452, 1065.762
368.4737, 1125.648
370.4021, 1173.237
372.3306, 1210.226
374.2591, 1233.803
376.1875, 1234.381
378.1160, 1216.896
380.0445, 1185.558
381.9729, 1140.303
383.9014, 1094.613
385.8299, 1053.732
387.7583, 1018.891
389.6868, 993.3480
391.6153, 981.6703
393.5437, 976.5120
395.4722, 976.9549
397.4007, 981.9778
399.3291, 986.5444
401.2576, 986.3731
403.1861, 982.2269
405.1145, 975.0762
407.0430, 964.4638
408.9715, 953.9844
410.8999, 943.4344
412.8284, 935.4385
414.7569, 933.4633
416.6853, 935.6982
418.6138, 942.8092
420.5423, 958.0087
422.4707, 982.0190
424.3992, 1005.984
426.3277, 1035.389
428.2561, 1063.424
430.1846, 1082.520
432.1131, 1082.480
434.0415, 1071.646
435.9700, 1049.136
437.8985, 1014.460
439.8269, 971.5611
441.7554, 923.2319
443.6839, 877.0445
445.6123, 834.8412
447.5408, 797.5306
449.4693, 768.9420
451.3977, 752.2186
453.3262, 741.9528
455.2547, 734.5980
457.1831, 729.7715
459.1116, 725.5233
461.0401, 719.7972
462.9685, 713.3565
464.8970, 707.8233
466.8255, 701.8344
468.7539, 695.7959
470.6824, 690.7512
472.6109, 687.2834
474.5393, 685.0515
476.4678, 682.5918
478.3963, 681.6165
480.3247, 683.2188
482.2532, 687.0029
484.1817, 691.5735
486.1101, 700.2898
488.0386, 710.8214
489.9671, 721.4906
491.8955, 729.5381
493.8240, 734.6677
495.7525, 735.1667
497.6809, 730.0550
499.6094, 719.3593
501.5379, 705.1451
503.4663, 690.9057
505.3948, 676.4753
507.3233, 663.5452
509.2517, 656.3304
511.1802, 654.0446
513.1086, 656.7568
515.0371, 664.3539
516.9656, 677.3890
518.8940, 691.2219
520.8225, 704.2618
522.7510, 716.3889
524.6794, 728.6684
526.6079, 740.0790
528.5364, 750.4196
530.4648, 762.1222
532.3933, 775.0905
534.3218, 784.6103
536.2502, 787.4437
538.1787, 794.5616
540.1072, 806.8368
542.0356, 824.7291
543.9641, 852.5300
545.8926, 896.2919
547.8210, 947.1320
549.7495, 1004.265
551.6780, 1071.868
553.6064, 1133.834
555.5349, 1183.904
557.4634, 1214.632
559.3918, 1230.473
561.3203, 1225.601
563.2488, 1202.351
565.1772, 1162.142
567.1057, 1120.844
569.0342, 1083.824
570.9626, 1052.732
572.8911, 1028.637
574.8196, 1014.032
576.7480, 1002.771
578.6765, 989.3927
580.6050, 974.2962
582.5335, 955.6044
584.4620, 929.9633
586.3904, 901.2924
588.3189, 876.2880
590.2474, 853.2618
592.1758, 837.5154
594.1043, 831.8093
596.0328, 836.7714
597.9612, 846.0752
599.8897, 863.6721
601.8182, 879.8308
603.7466, 890.2762
605.6751, 892.2042
607.6036, 888.3905
609.5320, 878.2955
611.4605, 870.0386
613.3890, 865.2902
615.3174, 861.8423
617.2459, 869.1400
619.1744, 890.6512
621.1028, 923.9206
623.0313, 966.4472
624.9598, 1025.162
626.8882, 1081.908
628.8167, 1138.568
630.7452, 1182.169
632.6736, 1207.421
634.6021, 1211.291
636.5306, 1197.543
638.4590, 1162.185
640.3875, 1116.700
642.3160, 1065.724
644.2444, 1006.352
646.1729, 952.8390
648.1014, 909.6948
650.0298, 875.5287
651.9583, 846.8308
653.8868, 825.8336
655.8152, 807.5891
657.7437, 790.0166
659.6722, 773.2863
661.6006, 758.7911
663.5291, 745.4007
665.4576, 732.7978
667.3860, 722.0722
669.3145, 713.3304
671.2430, 705.9418
673.1714, 700.3322
675.0999, 695.5937
677.0284, 691.4991
678.9568, 687.9156
680.8853, 684.4493
682.8138, 681.3444
684.7422, 678.4318
686.6707, 675.2392
688.5992, 672.0073
690.5276, 669.3057
692.4561, 666.8639
694.3846, 664.5702
696.3130, 663.0252
698.2415, 662.7051
700.1700, 662.7755
702.0984, 663.3703
704.0269, 663.9322
705.9554, 664.2462
707.8839, 664.3860
709.8123, 664.0966
711.7408, 662.8694
713.6693, 661.6558
715.5977, 661.9616
717.5262, 664.1719
719.4547, 665.9813
721.3831, 666.4490
723.3116, 666.4977
725.2401, 666.4000
727.1685, 665.9426
729.0970, 665.1818
731.0255, 664.5869
732.9539, 664.2352
734.8824, 662.9055
736.8109, 659.6280
738.7393, 657.3252
740.6678, 657.5615
742.5963, 659.7410
744.5247, 661.4602
746.4532, 661.3062
748.3817, 662.2781
750.3101, 665.7303
752.2386, 670.8571
754.1671, 675.2352
756.0955, 678.2772
758.0240, 681.8589
759.9525, 687.2459
761.8809, 693.8668
763.8094, 699.3375
765.7379, 703.5805
767.6663, 706.7317
769.5948, 707.8545
771.5233, 707.5898
773.4517, 708.7309
775.3802, 712.8051
777.3087, 715.5558
779.2371, 714.9150
781.1656, 711.2656
783.0941, 708.0358
785.0225, 706.3688
786.9510, 704.1253
788.8795, 700.9629
790.8079, 696.7440
792.7364, 691.2429
794.6649, 683.8488
796.5933, 676.3045
798.5218, 669.4404
800.4503, 662.9174
802.3787, 655.5273
804.3072, 645.9428
806.2357, 636.9117
808.1641, 628.7482
810.0926, 621.7455
812.0211, 616.5175
813.9495, 613.9496
815.8780, 611.4730
817.8065, 608.1346
819.7349, 604.3480
821.6634, 600.5244
823.5919, 595.3556
825.5203, 591.3420
827.4488, 589.6771
829.3773, 590.2850
831.3057, 590.9282
833.2342, 592.0359
835.1627, 592.2722
837.0911, 590.6096
839.0196, 587.5212
840.9481, 585.7225
842.8765, 586.2906
844.8050, 587.5638
846.7335, 589.0425
848.6619, 590.5593
850.5904, 592.1757
852.5189, 593.8006
854.4473, 595.5670
856.3758, 597.5871
858.3043, 599.7833
860.2327, 601.8481
862.1612, 603.2967
864.0897, 605.1829
866.0181, 607.9590
867.9466, 611.1441
869.8751, 614.2356
871.8035, 617.5543
873.7320, 621.4510
875.6605, 626.5487
877.5889, 631.6789
879.5174, 636.0041
881.4459, 638.8861
883.3743, 641.7218
885.3028, 644.5895
887.2313, 648.5065
889.1597, 653.0561
891.0882, 657.9235
893.0167, 663.8696
894.9451, 671.1276
896.8736, 679.0909
898.8021, 687.9950
900.7305, 698.6457
902.6590, 711.0052
904.5875, 724.7601
906.5159, 739.5631
908.4444, 755.9030
910.3729, 772.7581
912.3013, 792.5596
914.2298, 812.9540
916.1583, 834.9854
918.0867, 861.7485
920.0152, 892.2225
921.9437, 927.4884
923.8721, 965.8829
925.8006, 1011.354
927.7291, 1065.298
929.6575, 1128.503
931.5860, 1208.770
933.5145, 1307.030
935.4429, 1420.684
937.3714, 1551.325
939.2999, 1699.908
941.2283, 1843.454
943.1568, 1987.826
945.0853, 2122.097
947.0137, 2231.702
948.9422, 2323.481
950.8707, 2415.967
952.7991, 2491.214
954.7276, 2575.090
956.6561, 2683.215
958.5845, 2808.950
960.5130, 2950.423
962.4415, 3121.964
964.3699, 3348.726
966.2984, 3631.002
968.2269, 3976.489
970.1553, 4411.204
972.0838, 4898.586
974.0123, 5387.165
975.9407, 5919.307
977.8692, 6406.469
979.7977, 6690.390
981.7261, 6774.549
983.6546, 6667.315
985.5831, 6312.413
987.5115, 5828.749
989.4400, 5315.460
991.3685, 4794.417
993.2969, 4322.159
995.2254, 3917.114
997.1539, 3585.730
999.0823, 3333.899
1001.011, 3144.835
1002.939, 3004.949
1004.868, 2902.659
1006.796, 2800.179
1008.725, 2683.071
1010.653, 2579.832
1012.582, 2473.892
1014.510, 2376.573
1016.439, 2293.326
1018.367, 2224.219
1020.295, 2165.054
1022.224, 2120.675
1024.152, 2082.382
1026.081, 2049.154
1028.009, 2022.980
1029.938, 1998.472
1031.866, 1966.379
1033.795, 1922.887
1035.723, 1877.776
1037.652, 1830.581
1039.580, 1781.454
1041.509, 1733.007
1043.437, 1684.474
1045.365, 1624.827
1047.294, 1552.785
1049.222, 1481.432
1051.151, 1416.246
1053.079, 1356.414
1055.008, 1303.430
1056.936, 1258.505
1058.865, 1220.180
1060.793, 1188.413
1062.722, 1164.337
1064.650, 1151.661
1066.579, 1145.708
1068.507, 1137.997
1070.436, 1128.907
1072.364, 1121.827
1074.292, 1118.604
1076.221, 1120.376
1078.150, 1125.665
1080.078, 1131.909
1082.006, 1139.068
1083.935, 1147.864
1085.863, 1158.318
1087.792, 1158.301
1089.720, 1144.390
1091.649, 1122.312
1093.577, 1095.466
1095.506, 1066.689
1097.434, 1041.204
1099.363, 1020.963
1101.291, 1007.985
1103.220, 1003.297
1105.148, 1005.544
1107.077, 1011.810
1109.005, 1018.492
1110.933, 1017.679
1112.862, 1009.259
1114.790, 991.3389
1116.719, 963.8931
1118.647, 927.6917
1120.576, 891.7434
1122.504, 856.8005
1124.433, 824.9963
1126.361, 797.6581
1128.290, 775.6552
1130.218, 758.2507
1132.147, 743.9979
1134.075, 730.3096
1136.004, 716.6981
1137.932, 704.1837
1139.860, 694.2476
1141.789, 687.6429
1143.717, 680.6175
1145.646, 672.5672
1147.574, 664.8332
1149.503, 658.3331
1151.431, 653.2500
1153.360, 649.0013
1155.288, 645.4060
1157.217, 642.2191
1159.145, 638.7890
1161.074, 635.1132
1163.002, 632.1408
1164.931, 630.4649
1166.859, 630.1628
1168.787, 631.3018
1170.716, 632.2747
1172.644, 631.2600
1174.573, 627.6498
1176.501, 624.9393
1178.430, 625.6743
1180.358, 627.4115
1182.287, 628.5156
1184.215, 629.2771
1186.144, 629.3126
1188.072, 627.4805
1190.001, 625.2758
1191.929, 624.7754
1193.858, 626.1072
1195.786, 627.7053
1197.714, 628.8832
1199.643, 629.1710
1201.571, 628.9119
1203.500, 629.1622
1205.428, 628.9058
1207.357, 628.0662
1209.285, 627.7938
1211.214, 628.6705
1213.142, 629.9093
1215.071, 631.8302
1216.999, 633.6671
1218.928, 633.7376
1220.856, 631.6649
1222.785, 630.0342
1224.713, 629.1061
1226.641, 628.4393
1228.570, 629.6559
1230.498, 631.9791
1232.427, 631.6523
1234.355, 627.5640
1236.284, 625.1047
1238.212, 628.0378
1240.141, 632.2844
1242.069, 634.0125
1243.998, 633.2337
1245.926, 632.7744
1247.855, 632.9177
1249.783, 633.3857
1251.712, 634.3452
1253.640, 635.4453
1255.568, 635.8354
1257.497, 635.1925
1259.425, 634.8845
1261.354, 635.0306
1263.282, 635.1478
1265.211, 635.9965
1267.139, 637.6430
1269.068, 638.6913
1270.996, 639.0260
1272.925, 639.0556
1274.853, 638.5407
1276.782, 637.7718
1278.710, 638.2390
1280.639, 640.2631
1282.567, 641.8414
1284.495, 642.4010
1286.424, 642.3998
1288.352, 641.4191
1290.281, 639.9409
1292.209, 639.1666
1294.138, 639.2330
1296.066, 639.7052
1297.995, 641.1808
1299.923, 643.1220
1301.852, 644.3993
1303.780, 644.3424
1305.709, 644.7607
1307.637, 646.2206
1309.566, 647.8640
1311.494, 648.7828
1313.422, 649.1850
1315.351, 650.5749
1317.279, 652.9110
1319.208, 653.8146
1321.136, 652.4146
1323.065, 651.2842
1324.993, 651.7162
1326.922, 652.5505
1328.850, 653.3372
1330.779, 654.2492
1332.707, 654.7133
1334.636, 653.7787
1336.564, 653.0978
1338.493, 652.7880
1340.421, 653.3513
1342.349, 655.2625
1344.278, 658.9845
1346.206, 661.5109
1348.135, 662.0887
1350.063, 662.5862
1351.992, 663.3637
1353.920, 664.1921
1355.849, 665.4193
1357.777, 667.3317
1359.706, 668.7343
1361.634, 669.2900
1363.563, 669.3591
1365.491, 668.7703
1367.420, 667.9927
1369.348, 668.1407
1371.276, 669.4652
1373.205, 670.9420
1375.133, 672.5815
1377.062, 673.9445
1378.990, 674.8329
1380.919, 675.3715
1382.847, 675.9872
1384.776, 677.0021
1386.704, 677.5080
1388.633, 676.7831
1390.561, 676.0639
1392.490, 676.4283
1394.418, 677.8099
1396.347, 678.7453
1398.275, 678.6877
1400.203, 678.9850
1402.132, 680.0175
1404.060, 681.3057
1405.989, 682.4574
1407.917, 683.5245
1409.846, 684.9178
1411.774, 687.2578
1413.703, 688.7687
1415.631, 687.8857
1417.560, 686.6281
1419.488, 686.9355
1421.417, 688.5978
1423.345, 689.8277
1425.274, 690.0013
1427.202, 690.6855
1429.130, 692.9882
1431.059, 695.5190
1432.987, 697.2411
1434.916, 698.0984
1436.844, 698.3355
1438.773, 698.1524
1440.701, 697.1117
1442.630, 693.8774
1444.558, 690.6933
1446.487, 690.0776
1448.415, 692.3320
1450.344, 694.1744
1452.272, 694.6457
1454.201, 695.7243
1456.129, 698.4508
1458.057, 701.3275
1459.986, 702.7135
1461.914, 702.3430
1463.843, 701.5608
1465.771, 699.4225
1467.700, 698.9447
1469.628, 702.0901
1471.557, 705.7786
1473.485, 707.9766
1475.414, 708.8721
1477.342, 708.9255
1479.271, 707.9107
1481.199, 707.5082
1483.128, 708.6461
1485.056, 709.7986
1486.984, 709.8755
1488.913, 709.3519
1490.841, 709.1990
1492.770, 709.3556
1494.698, 710.4454
1496.627, 713.1715
1498.555, 716.0654
1500.484, 718.5730
1502.412, 720.4290
1504.341, 721.5505
1506.269, 722.2560
1508.198, 723.1284
1510.126, 724.1434
1512.055, 725.0186
1513.983, 725.7709
1515.911, 726.7607
1517.840, 728.2072
1519.768, 730.3067
1521.697, 731.2625
1523.625, 728.9047
1525.554, 727.9857
1527.482, 730.7554
1529.411, 734.8510
1531.339, 737.8698
1533.268, 739.9753
1535.196, 740.6791
1537.125, 737.7776
1539.053, 736.0941
1540.982, 736.6921
1542.910, 738.6836
1544.839, 741.5192
1546.767, 744.9051
1548.695, 748.0260
1550.624, 751.5791
1552.552, 753.3786
1554.481, 752.1069
1556.409, 750.0011
1558.338, 747.5999
1560.266, 745.7723
1562.195, 746.4236
1564.123, 750.0554
1566.052, 752.0530
1567.980, 750.6472
1569.909, 749.3809
1571.837, 749.1942
1573.766, 749.7669
1575.694, 751.2514
1577.622, 753.5771
1579.551, 755.7399
1581.479, 758.1214
1583.408, 759.5753
1585.336, 758.7886
1587.265, 757.9338
1589.193, 758.6999
1591.122, 760.7505
1593.050, 762.8069
1594.979, 764.6175
1596.907, 766.4864
1598.836, 769.0214
1600.764, 770.6268
1602.693, 769.2952
1604.621, 767.1500
1606.549, 767.2990
1608.478, 769.6684
1610.406, 770.8510
1612.335, 769.6774
1614.263, 769.7436
1616.192, 773.6617
1618.120, 777.8286
1620.049, 779.6526
1621.977, 779.9254
1623.906, 780.8677
1625.834, 782.4388
1627.763, 783.9024
1629.691, 784.7672
1631.620, 785.9753
1633.548, 788.3134
1635.476, 790.7036
1637.405, 792.1677
1639.333, 792.7462
1641.262, 791.7738
1643.190, 787.9520
1645.119, 785.9112
1647.047, 788.1614
1648.976, 791.0065
1650.904, 792.6016
1652.833, 793.3124
1654.761, 794.1741
1656.690, 795.3716
1658.618, 795.4155
1660.547, 793.3082
1662.475, 791.6738
1664.403, 790.9698
1666.332, 791.3932
1668.260, 794.0168
1670.189, 798.1841
1672.117, 799.6902
1674.046, 797.2856
1675.974, 795.7703
1677.903, 796.1741
1679.831, 796.5929
1681.760, 796.0355
1683.688, 795.2706
1685.617, 795.3391
1687.545, 796.2675
1689.474, 797.0125
1691.402, 798.0967
1693.330, 798.2217
1695.259, 796.1886
1697.187, 794.6642
1699.116, 795.1384
1701.044, 796.7043
1702.973, 798.0594
1704.901, 799.1544
1706.830, 799.7053
1708.758, 799.3226
1710.687, 798.7880
1712.615, 797.1940
1714.544, 796.4681
1716.472, 799.2361
1718.401, 802.9453
1720.329, 801.9815
1722.257, 795.4078
1724.186, 792.8235
1726.114, 796.8012
1728.043, 800.4162
1729.971, 803.4649
1731.900, 804.5159
1733.828, 800.7006
1735.757, 794.9557
1737.685, 794.0703
1739.614, 798.8445
1741.542, 800.7627
1743.471, 797.1375
1745.399, 795.7042
1747.328, 801.3555
1749.256, 806.3915
1751.184, 804.7933
1753.113, 800.2209
1755.041, 800.4392
1756.970, 805.6768
1758.898, 808.9913
1760.827, 809.2327
1762.755, 808.9941
1764.684, 808.9107
1766.612, 808.5687
1768.541, 807.5004
1770.469, 806.4009
1772.398, 806.4609
1774.326, 807.7200
1776.255, 809.1186
1778.183, 810.8123
1780.111, 811.8144
1782.040, 810.8350
1783.968, 810.3286
1785.897, 812.1185
1787.825, 814.5432
1789.754, 815.1641
1791.682, 814.3643
1793.611, 815.0813
1795.539, 817.9578
1797.468, 819.9774
1799.396, 820.3708
1801.325, 820.1709
1803.253, 819.8867
1805.182, 819.2888
1807.110, 817.2413
1809.038, 814.8016
1810.967, 815.9753
1812.895, 821.3806
1814.824, 824.6904
1816.752, 824.5051
1818.681, 823.1038
1820.609, 819.4983
1822.538, 816.7534
1824.466, 817.8083
1826.395, 821.1290
1828.323, 823.8650
1830.252, 826.0123
1832.180, 827.0037
1834.109, 826.3125
1836.037, 825.6278
1837.965, 825.2022
1839.894, 824.9405
1841.822, 824.9088
1843.751, 824.9410
1845.679, 824.5477
1847.608, 825.5287
1849.536, 824.8251
1851.465, 827.8321
1853.393, 830.3715
1855.322, 832.4544
1857.250, 833.8021
1859.179, 833.9679
1861.107, 833.5719
1863.036, 832.5052
1864.964, 831.3215
1866.892, 831.7585
1868.821, 834.2589
1870.749, 834.7188
1872.678, 830.7742
1874.606, 829.2888
1876.535, 832.8580
1878.463, 836.5053
1880.392, 838.3485
1882.320, 839.2927
1884.249, 839.9921
1886.177, 840.4076
1888.106, 840.6052
1890.034, 841.2529
1891.963, 841.8878
1893.891, 842.1668
1895.819, 842.7630
1897.748, 843.5544
1899.676, 843.7289
1901.605, 844.1230
1903.533, 844.7171
1905.462, 845.3153
1907.390, 846.6721
1909.319, 847.5779
1911.247, 849.9128
1913.176, 852.0399
1915.104, 854.1320
1917.033, 854.9730
1918.961, 852.6855
1920.890, 850.7209
1922.818, 851.9006
1924.746, 854.1427
1926.675, 854.1768
1928.603, 852.6065
1930.532, 853.4600
1932.460, 857.7651
1934.389, 859.6943
1936.317, 857.0695
1938.246, 854.6887
1940.174, 852.7318
1942.103, 852.2219
1944.031, 855.0663
1945.960, 858.8065
1947.888, 859.6036
1949.817, 861.3187
1951.745, 862.6991
1953.673, 861.9757
1955.602, 863.7835
1957.530, 862.7498
1959.459, 861.9752
1961.387, 862.3937
1963.316, 862.8306
1965.244, 863.0629
1967.173, 862.9641
1969.101, 862.2621
1971.030, 861.1857
1972.958, 860.0314
1974.887, 858.8185
1976.815, 859.3620
1978.744, 862.4558
1980.672, 864.4786
1982.600, 863.5424
1984.529, 862.8693
1986.457, 864.3025
1988.386, 866.1166
1990.314, 866.7765
1992.243, 866.8915
1994.171, 868.0475
1996.100, 867.9526
1998.028, 867.5259
1999.957, 868.0067
2001.885, 866.4041
2003.814, 866.0520
2005.742, 866.3016
2007.671, 867.1178
2009.599, 868.4080
2011.527, 870.3478
2013.456, 872.5385
2015.384, 874.8152
2017.313, 876.8998
2019.241, 877.4940
2021.170, 876.4728
2023.098, 875.9709
2025.027, 876.1453
2026.955, 876.5276
2028.884, 876.8163
2030.812, 877.8093
2032.741, 880.7209
2034.669, 883.5386
2036.598, 884.8510
2038.526, 885.2821
2040.454, 885.4603
2042.383, 885.4661
2044.311, 885.6268
2046.240, 885.8548
2048.168, 886.2527
2050.097, 886.5876
2052.025, 887.2753
2053.954, 889.5709
2055.882, 890.4700
2057.811, 887.8888
2059.739, 884.9053
2061.667, 883.5635
2063.596, 883.4953
2065.525, 883.8809
2067.453, 884.9730
2069.382, 888.7512
2071.310, 895.3704
2073.239, 898.9365
2075.167, 898.0193
2077.095, 897.1846
2079.024, 897.1959
2080.952, 897.5572
2082.881, 898.8824
2084.809, 899.7712
2086.738, 898.9978
2088.666, 897.8709
2090.595, 897.9044
2092.523, 898.9727
2094.452, 900.5229
2096.380, 902.5214
2098.309, 904.4705
2100.237, 907.0967
2102.166, 907.4763
2104.094, 902.3168
2106.022, 899.8463
2107.951, 903.6677
2109.879, 908.0787
2111.808, 911.6973
2113.736, 914.0739
2115.665, 914.0538
2117.593, 912.9489
2119.522, 913.0988
2121.450, 914.0431
2123.379, 913.4672
2125.307, 911.0596
2127.236, 911.3714
2129.164, 916.6992
2131.093, 919.6935
2133.021, 918.2694
2134.949, 916.0822
2136.878, 912.4391
2138.806, 910.3607
2140.735, 912.4921
2142.663, 915.9818
2144.592, 918.3606
2146.520, 919.6991
2148.449, 919.8441
2150.377, 919.1231
2152.306, 919.8645
2154.234, 922.2814
2156.163, 923.2211
2158.091, 921.7034
2160.020, 921.8454
2161.948, 925.6686
2163.876, 928.8166
2165.805, 928.7584
2167.733, 928.8443
2169.662, 930.9368
2171.590, 933.9830
2173.519, 938.2722
2175.447, 942.2565
2177.376, 942.1862
2179.304, 939.0587
2181.233, 938.7912
2183.161, 941.3740
2185.090, 944.0619
2187.018, 946.7942
2188.947, 948.1942
2190.875, 947.5247
2192.803, 947.0546
2194.732, 947.9379
2196.660, 948.6439
2198.589, 948.6972
2200.517, 948.3606
2202.446, 947.1008
2204.374, 946.1388
2206.303, 947.0500
2208.231, 949.2173
2210.160, 951.2744
2212.088, 953.2478
2214.017, 956.0107
2215.945, 957.1985
2217.874, 958.0913
2219.802, 959.6527
2221.730, 958.7177
2223.659, 959.2129
2225.587, 959.4377
2227.516, 957.9139
2229.444, 957.3160
2231.373, 959.6057
2233.301, 962.1286
2235.230, 963.6589
2237.158, 964.1556
2239.087, 962.3455
2241.015, 960.1576
2242.944, 962.1192
2244.872, 967.2367
2246.801, 969.6671
2248.729, 969.4794
2250.657, 968.6857
2252.586, 967.2333
2254.514, 966.6736
2256.443, 967.5289
2258.371, 968.2877
2260.300, 969.1364
2262.228, 969.1080
2264.157, 966.7390
2266.085, 965.0793
2268.014, 966.0118
2269.942, 967.7208
2271.871, 968.8336
2273.799, 970.0720
2275.728, 972.6620
2277.656, 974.2270
2279.584, 977.7493
2281.513, 978.8199
2283.441, 980.8568
2285.370, 983.7769
2287.298, 984.8521
2289.227, 982.9786
2291.155, 982.9432
2293.084, 986.6812
2295.012, 989.1681
2296.941, 989.6984
2298.869, 989.9246
2300.798, 989.4900
2302.726, 989.9296
2304.655, 992.3638
2306.583, 995.1337
2308.511, 998.0054
2310.440, 999.9700
2312.368, 999.4478
2314.297, 998.0001
2316.225, 997.2952
2318.154, 997.6495
2320.082, 1000.229
2322.011, 1004.715
2323.939, 1008.686
2325.868, 1012.134
2327.796, 1014.721
2329.725, 1016.382
2331.653, 1017.165
2333.582, 1016.632
2335.510, 1017.098
2337.438, 1020.182
2339.367, 1021.407
2341.295, 1018.466
2343.224, 1015.343
2345.152, 1012.702
2347.081, 1011.127
2349.009, 1011.144
2350.938, 1012.199
2352.866, 1014.941
2354.795, 1017.565
2356.723, 1018.018
2358.652, 1017.342
2360.580, 1016.787
2362.509, 1016.365
2364.437, 1015.956
2366.365, 1015.666
2368.294, 1016.764
2370.222, 1019.441
2372.151, 1018.401
2374.079, 1012.669
2376.008, 1010.756
2377.936, 1013.890
2379.865, 1016.038
2381.793, 1016.410
2383.722, 1015.871
2385.650, 1013.884
2387.579, 1012.649
2389.507, 1013.365
2391.436, 1014.003
2393.364, 1012.730
2395.292, 1012.513
2397.221, 1015.849
2399.149, 1019.385
2401.078, 1021.029
2403.006, 1021.526
2404.935, 1021.203
2406.863, 1020.473
2408.792, 1019.723
2410.720, 1019.124
2412.649, 1019.155
2414.577, 1019.554
2416.506, 1018.820
2418.434, 1017.229
2420.363, 1018.727
2422.291, 1022.971
2424.219, 1023.742
2426.148, 1020.746
2428.076, 1016.968
2430.005, 1012.001
2431.933, 1010.848
2433.862, 1017.194
2435.790, 1021.154
2437.719, 1020.366
2439.647, 1020.142
2441.576, 1021.191
2443.504, 1022.327
2445.433, 1022.933
2447.361, 1023.957
2449.290, 1026.678
2451.218, 1028.528
2453.146, 1027.448
2455.075, 1026.088
2457.003, 1025.755
2458.932, 1026.334
2460.860, 1028.446
2462.789, 1030.749
2464.717, 1032.786
2466.646, 1033.411
2468.574, 1029.060
2470.503, 1023.558
2472.431, 1023.568
2474.360, 1027.535
2476.288, 1032.413
2478.217, 1037.590
2480.145, 1039.727
2482.073, 1041.518
2484.002, 1039.368
2485.930, 1040.423
2487.859, 1038.793
2489.787, 1038.910
2491.716, 1040.377
2493.644, 1039.331
2495.573, 1042.749
2497.501, 1043.830
2499.430, 1043.149
2501.358, 1039.574
2503.287, 1038.198
2505.215, 1039.980
2507.144, 1042.555
2509.072, 1045.766
2511.000, 1048.316
2512.929, 1049.284
2514.857, 1050.062
2516.786, 1051.152
2518.714, 1051.947
2520.643, 1051.563
2522.571, 1052.224
2524.500, 1056.073
2526.428, 1059.307
2528.357, 1058.352
2530.285, 1058.036
2532.214, 1062.850
2534.142, 1067.495
2536.071, 1067.970
2537.999, 1066.298
2539.927, 1062.662
2541.856, 1059.661
2543.784, 1060.893
2545.713, 1063.643
2547.641, 1064.811
2549.570, 1065.384
2551.498, 1066.546
2553.427, 1068.192
2555.355, 1070.796
2557.284, 1073.452
2559.212, 1073.853
2561.141, 1072.722
2563.069, 1071.171
2564.998, 1070.049
2566.926, 1073.064
2568.854, 1078.948
2570.783, 1080.674
2572.711, 1078.685
2574.640, 1078.746
2576.568, 1080.710
2578.497, 1081.541
2580.425, 1081.392
2582.354, 1083.013
2584.282, 1086.553
2586.211, 1088.416
2588.139, 1087.929
2590.068, 1089.495
2591.996, 1090.208
2593.925, 1090.162
2595.853, 1092.300
2597.781, 1091.330
2599.710, 1093.098
2601.638, 1095.813
2603.567, 1100.071
2605.495, 1101.962
2607.424, 1099.368
2609.352, 1098.340
2611.281, 1099.828
2613.209, 1100.201
2615.138, 1098.152
2617.066, 1099.803
2618.995, 1109.129
2620.923, 1114.621
2622.852, 1110.887
2624.780, 1108.529
2626.708, 1108.530
2628.637, 1110.054
2630.565, 1113.396
2632.494, 1116.878
2634.422, 1120.542
2636.351, 1123.245
2638.279, 1123.846
2640.208, 1124.912
2642.136, 1127.261
2644.065, 1129.739
2645.993, 1131.969
2647.922, 1134.364
2649.850, 1137.237
2651.779, 1139.847
2653.707, 1142.706
2655.635, 1144.117
2657.564, 1142.550
2659.492, 1141.101
2661.421, 1140.523
2663.349, 1140.715
2665.278, 1141.906
2667.206, 1143.369
2669.135, 1144.502
2671.063, 1146.238
2672.992, 1149.347
2674.920, 1152.465
2676.849, 1155.424
2678.777, 1157.535
2680.706, 1158.045
2682.634, 1158.550
2684.563, 1159.919
2686.491, 1161.474
2688.419, 1163.587
2690.348, 1164.964
2692.276, 1163.999
2694.205, 1163.592
2696.133, 1163.714
2698.062, 1166.398
2699.990, 1175.742
2701.919, 1183.095
2703.847, 1183.157
2705.776, 1182.299
2707.704, 1183.190
2709.633, 1184.272
2711.561, 1184.719
2713.490, 1185.831
2715.418, 1189.234
2717.346, 1191.789
2719.275, 1190.347
2721.203, 1190.108
2723.132, 1194.106
2725.060, 1197.761
2726.989, 1199.386
2728.917, 1200.408
2730.846, 1201.055
2732.774, 1202.226
2734.703, 1204.438
2736.631, 1207.327
2738.560, 1211.218
2740.488, 1214.777
2742.417, 1216.577
2744.345, 1219.660
2746.273, 1227.898
2748.202, 1232.935
2750.130, 1229.674
2752.059, 1227.073
2753.987, 1226.964
2755.916, 1228.258
2757.844, 1231.254
2759.773, 1234.274
2761.701, 1237.053
2763.630, 1239.336
2765.558, 1240.150
2767.487, 1242.672
2769.415, 1248.476
2771.344, 1252.286
2773.272, 1250.956
2775.200, 1252.438
2777.129, 1261.842
2779.057, 1267.236
2780.986, 1266.567
2782.914, 1266.658
2784.843, 1268.587
2786.771, 1270.930
2788.700, 1273.132
2790.628, 1276.800
2792.557, 1282.506
2794.485, 1287.347
2796.414, 1290.968
2798.342, 1293.827
2800.271, 1295.766
2802.199, 1298.062
2804.127, 1301.112
2806.056, 1303.355
2807.984, 1304.895
2809.913, 1306.001
2811.841, 1306.875
2813.770, 1308.990
2815.698, 1312.569
2817.627, 1318.547
2819.555, 1326.767
2821.484, 1331.881
2823.412, 1334.334
2825.341, 1337.108
2827.269, 1340.099
2829.198, 1342.782
2831.126, 1345.180
2833.054, 1346.875
2834.983, 1348.741
2836.911, 1354.176
2838.840, 1361.509
2840.768, 1367.714
2842.697, 1372.836
2844.625, 1377.118
2846.554, 1380.366
2848.482, 1381.756
2850.411, 1382.642
2852.339, 1384.583
2854.268, 1387.288
2856.196, 1390.567
2858.125, 1394.453
2860.053, 1397.509
2861.981, 1402.892
2863.910, 1415.880
2865.838, 1427.205
2867.767, 1429.820
2869.695, 1430.766
2871.624, 1433.858
2873.552, 1435.962
2875.481, 1434.371
2877.409, 1434.680
2879.338, 1439.632
2881.266, 1445.097
2883.195, 1451.137
2885.123, 1455.079
2887.052, 1455.432
2888.980, 1457.068
2890.908, 1461.152
2892.837, 1463.607
2894.765, 1462.456
2896.694, 1464.136
2898.622, 1469.624
2900.551, 1475.385
2902.479, 1481.396
2904.408, 1483.795
2906.336, 1488.042
2908.265, 1491.165
2910.193, 1492.551
2912.122, 1495.682
2914.050, 1495.759
2915.979, 1495.924
2917.907, 1497.154
2919.835, 1503.154
2921.764, 1511.150
2923.692, 1515.374
2925.621, 1516.822
2927.549, 1515.057
2929.478, 1513.514
2931.406, 1515.373
2933.335, 1520.123
2935.263, 1531.413
2937.192, 1539.921
2939.120, 1536.063
2941.049, 1532.770
2942.977, 1539.227
2944.906, 1544.970
2946.834, 1544.434
2948.762, 1544.113
2950.691, 1545.370
2952.619, 1547.029
2954.548, 1548.266
2956.476, 1551.341
2958.405, 1553.203
2960.333, 1555.715
2962.262, 1560.052
2964.190, 1561.990
2966.119, 1569.406
2968.047, 1575.225
2969.976, 1579.067
2971.904, 1582.814
2973.833, 1586.234
2975.761, 1588.414
2977.689, 1589.949
2979.618, 1592.534
2981.546, 1595.975
2983.475, 1600.865
2985.403, 1605.373
2987.332, 1604.527
2989.260, 1604.819
2991.189, 1614.527
2993.117, 1624.641
2995.046, 1627.967
2996.974, 1630.145
2998.903, 1632.639
3000.831, 1636.655
3002.760, 1644.685
3004.688, 1650.512
3006.616, 1652.489
3008.545, 1653.024
3010.473, 1651.935
3012.402, 1653.541
3014.330, 1658.749
3016.259, 1666.892
3018.187, 1670.896
3020.116, 1677.730
3022.044, 1683.953
3023.973, 1689.181
3025.901, 1697.295
3027.830, 1701.520
3029.758, 1707.851
3031.687, 1711.187
3033.615, 1719.452
3035.543, 1725.490
3037.472, 1732.062
3039.400, 1745.081
3041.329, 1754.605
3043.257, 1752.810
3045.186, 1751.422
3047.114, 1755.441
3049.043, 1761.105
3050.971, 1766.856
3052.900, 1775.674
3054.828, 1782.708
3056.757, 1791.358
3058.685, 1800.786
3060.614, 1808.120
3062.542, 1815.044
3064.470, 1825.982
3066.399, 1828.165
3068.327, 1834.529
3070.256, 1843.118
3072.184, 1848.723
3074.113, 1853.571
3076.041, 1859.578
3077.970, 1868.077
3079.898, 1883.219
3081.827, 1896.824
3083.755, 1900.198
3085.684, 1906.691
3087.612, 1922.536
3089.541, 1936.761
3091.469, 1945.375
3093.397, 1953.673
3095.326, 1961.958
3097.254, 1971.181
3099.183, 1981.484
3101.111, 1993.693
3103.040, 2007.341
3104.968, 2018.572
3106.897, 2032.226
3108.825, 2043.114
3110.754, 2059.122
3112.682, 2074.814
3114.611, 2089.354
3116.539, 2102.809
3118.468, 2113.588
3120.396, 2117.156
3122.324, 2125.002
3124.253, 2143.731
3126.181, 2163.924
3128.110, 2184.488
3130.038, 2204.245
3131.967, 2225.194
3133.895, 2243.548
3135.824, 2267.058
3137.752, 2290.079
3139.681, 2311.667
3141.609, 2327.378
3143.538, 2341.032
3145.466, 2360.523
3147.395, 2381.171
3149.323, 2397.757
3151.251, 2414.013
3153.180, 2435.022
3155.108, 2451.819
3157.037, 2455.759
3158.965, 2468.068
3160.894, 2494.792
3162.822, 2517.397
3164.751, 2532.440
3166.679, 2547.168
3168.608, 2561.815
3170.536, 2578.728
3172.465, 2596.890
3174.393, 2612.908
3176.322, 2628.117
3178.250, 2647.842
3180.178, 2663.537
3182.107, 2663.213
3184.035, 2664.635
3185.964, 2679.691
3187.892, 2695.125
3189.821, 2708.483
3191.749, 2720.425
3193.678, 2730.540
3195.606, 2741.311
3197.535, 2752.673
3199.463, 2762.029
3201.392, 2770.983
3203.320, 2786.271
3205.249, 2804.002
3207.177, 2817.006
3209.105, 2829.262
3211.034, 2844.008
3212.962, 2860.075
3214.891, 2877.517
3216.819, 2895.978
3218.748, 2916.103
3220.676, 2933.952
3222.605, 2953.849
3224.533, 2972.391
3226.462, 2991.845
3228.390, 3011.463
3230.319, 3032.853
3232.247, 3051.199
3234.176, 3077.267
3236.104, 3103.599
3238.032, 3127.058
3239.961, 3139.830
3241.889, 3159.368
3243.818, 3196.187
3245.746, 3235.323
3247.675, 3274.987
3249.603, 3312.523
3251.532, 3347.152
3253.460, 3374.317
3255.389, 3398.233
3257.317, 3446.733
3259.246, 3477.121
3261.174, 3531.882
3263.103, 3557.352
3265.031, 3598.312
3266.959, 3642.399
3268.888, 3687.645
3270.816, 3726.100
3272.745, 3753.377
3274.673, 3787.202
3276.602, 3829.190
3278.530, 3871.956
3280.459, 3914.255
3282.387, 3948.534
3284.316, 3979.886
3286.244, 4019.747
3288.173, 4057.533
3290.101, 4080.726
3292.030, 4103.621
3293.958, 4132.989
3295.886, 4160.533
3297.815, 4184.146
3299.743, 4206.122
3301.672, 4226.784
3303.600, 4248.077
3305.529, 4269.647
3307.457, 4290.068
3309.386, 4309.486
3311.314, 4327.385
3313.243, 4345.116
3315.171, 4363.760
3317.100, 4382.782
3319.028, 4402.092
3320.957, 4424.569
3322.885, 4451.458
3324.813, 4482.201
3326.742, 4516.668
3328.670, 4554.209
3330.599, 4594.016
3332.527, 4634.905
3334.456, 4676.161
3336.384, 4719.533
3338.313, 4758.774
3340.241, 4789.867
3342.170, 4820.503
3344.098, 4852.837
3346.027, 4886.473
3347.955, 4921.062
3349.884, 4948.983
3351.812, 4970.469
3353.740, 4985.836
3355.669, 4994.862
3357.597, 4997.513
3359.526, 4994.541
3361.454, 4986.178
3363.383, 4971.702
3365.311, 4950.420
3367.240, 4927.015
3369.168, 4894.760
3371.097, 4863.954
3373.025, 4814.978
3374.954, 4765.949
3376.882, 4711.337
3378.811, 4643.599
3380.739, 4568.316
3382.667, 4485.982
3384.596, 4404.588
3386.524, 4327.374
3388.453, 4249.121
3390.381, 4169.611
3392.310, 4090.163
3394.238, 4011.649
3396.167, 3939.057
3398.095, 3867.565
3400.024, 3787.423
3401.952, 3714.622
3403.881, 3665.278
3405.809, 3606.607
3407.738, 3531.734
3409.666, 3476.257
3411.594, 3440.734
3413.523, 3400.649
3415.451, 3358.672
3417.380, 3316.895
3419.308, 3279.693
3421.237, 3250.120
3423.165, 3228.069
3425.094, 3214.790
3427.022, 3202.132
3428.951, 3187.845
3430.879, 3180.528
3432.808, 3177.800
3434.736, 3168.681
3436.665, 3160.572
3438.593, 3166.734
3440.521, 3174.348
3442.450, 3172.920
3444.378, 3179.341
3446.307, 3197.999
3448.235, 3213.784
3450.164, 3227.426
3452.092, 3257.139
3454.021, 3294.522
3455.949, 3315.671
3457.878, 3344.201
3459.806, 3405.370
3461.735, 3466.749
3463.663, 3517.897
3465.592, 3576.649
3467.520, 3645.937
3469.448, 3717.821
3471.377, 3802.365
3473.305, 3888.832
3475.234, 3991.452
3477.162, 4097.720
3479.091, 4208.952
3481.019, 4326.007
3482.948, 4445.783
3484.876, 4570.420
3486.805, 4678.087
3488.733, 4769.376
3490.662, 4844.612
3492.590, 4907.332
3494.519, 4958.857
3496.447, 5001.491
3498.375, 5039.047
3500.304, 5057.242
3502.232, 5053.064
3504.161, 5043.893
3506.089, 5019.658
3508.018, 4949.183
3509.946, 4844.206
3511.875, 4709.059
3513.803, 4564.796
3515.732, 4420.235
3517.660, 4269.903
3519.589, 4112.769
3521.517, 3962.809
3523.446, 3818.567
3525.374, 3669.829
3527.302, 3528.344
3529.231, 3405.584
3531.159, 3297.288
3533.088, 3205.799
3535.016, 3120.166
3536.945, 3039.645
3538.873, 2969.677
3540.802, 2910.713
3542.730, 2870.711
3544.659, 2836.572
3546.587, 2794.542
3548.516, 2756.988
3550.444, 2728.512
3552.373, 2700.827
3554.301, 2673.131
3556.229, 2651.706
3558.158, 2635.360
3560.086, 2621.382
3562.015, 2609.301
3563.943, 2600.250
3565.872, 2589.239
3567.800, 2574.349
3569.729, 2560.592
3571.657, 2548.255
3573.586, 2537.233
3575.514, 2527.576
3577.443, 2519.560
3579.371, 2512.817
3581.300, 2507.376
3583.228, 2502.070
3585.156, 2496.782
3587.085, 2487.262
3589.013, 2476.987
3590.942, 2480.922
3592.870, 2485.517
3594.799, 2471.817
3596.727, 2462.882
3598.656, 2469.309
3600.584, 2471.430
3602.513, 2468.211
3604.441, 2457.688
3606.370, 2447.287
3608.298, 2452.321
3610.227, 2458.915
3612.155, 2459.960
3614.083, 2458.017
3616.012, 2452.692
3617.940, 2453.469
3619.869, 2458.934
3621.797, 2465.981
3623.726, 2469.787
3625.654, 2462.762
3627.583, 2458.306
3629.511, 2461.298
3631.440, 2468.747
3633.368, 2479.473
3635.297, 2486.927
3637.225, 2492.581
3639.154, 2499.559
3641.082, 2504.047
3643.010, 2502.283
3644.939, 2501.445
3646.867, 2502.028
3648.796, 2505.141
3650.724, 2509.446
3652.653, 2512.612
3654.581, 2515.162
3656.510, 2518.219
3658.438, 2518.766
3660.367, 2516.482
3662.295, 2508.845
3664.224, 2499.364
3666.152, 2499.152
3668.081, 2502.090
3670.009, 2503.862
3671.938, 2505.359
3673.866, 2506.418
3675.794, 2508.051
3677.723, 2510.658
3679.651, 2517.020
3681.580, 2523.840
3683.508, 2529.823
3685.437, 2530.774
3687.365, 2532.139
3689.294, 2522.106
3691.222, 2529.796
3693.151, 2529.779
3695.079, 2529.528
3697.008, 2539.716
3698.936, 2549.420
3700.865, 2553.306
3702.793, 2558.941
3704.721, 2565.917
3706.650, 2570.996
3708.578, 2574.134
3710.507, 2578.805
3712.435, 2583.224
3714.364, 2585.195
3716.292, 2591.790
3718.221, 2594.948
3720.149, 2598.178
3722.078, 2602.878
3724.006, 2605.738
3725.935, 2610.726
3727.863, 2615.416
3729.792, 2618.841
3731.720, 2629.923
3733.648, 2631.184
3735.577, 2631.531
3737.505, 2642.130
3739.434, 2656.520
3741.362, 2675.295
3743.291, 2687.516
3745.219, 2693.946
3747.148, 2700.143
3749.076, 2706.115
3751.005, 2713.411
3752.933, 2720.415
3754.862, 2728.022
3756.790, 2736.656
3758.719, 2744.203
3760.647, 2754.767
3762.575, 2765.305
3764.504, 2773.181
3766.432, 2779.358
3768.361, 2789.442
3770.289, 2792.562
3772.218, 2806.257
3774.146, 2812.821
3776.075, 2819.145
3778.003, 2831.501
3779.932, 2841.499
3781.860, 2846.595
3783.789, 2858.143
3785.717, 2872.870
3787.646, 2884.628
3789.574, 2894.302
3791.502, 2901.355
3793.431, 2910.471
3795.359, 2922.313
3797.288, 2934.062
3799.216, 2946.570
3801.145, 2964.690
3803.073, 2975.872
3805.002, 2975.038
3806.930, 2975.431
3808.859, 2978.758
3810.787, 2991.104
3812.716, 3004.804
3814.644, 3011.879
3816.573, 3019.997
3818.501, 3030.936
3820.429, 3043.639
3822.358, 3058.413
3824.286, 3079.448
3826.215, 3097.740
3828.143, 3105.304
3830.072, 3112.483
3832.000, 3119.914
3833.929, 3122.837
3835.857, 3128.161
3837.786, 3151.056
3839.714, 3168.914
3841.643, 3170.942
3843.571, 3177.494
3845.500, 3188.340
3847.428, 3197.582
3849.356, 3209.636
3851.285, 3228.836
3853.213, 3247.042
3855.142, 3262.842
3857.070, 3272.323
3858.999, 3281.429
3860.927, 3305.233
3862.856, 3323.376
3864.784, 3325.011
3866.713, 3332.301
3868.641, 3344.504
3870.570, 3346.386
3872.498, 3353.979
3874.427, 3368.293
3876.355, 3380.455
3878.283, 3401.125
3880.212, 3414.725
3882.140, 3438.996
3884.069, 3456.747
3885.997, 3467.446
3887.926, 3470.055
3889.854, 3482.819
3891.783, 3503.977
3893.711, 3521.503
3895.640, 3533.824
3897.568, 3536.885
3899.497, 3542.196
3901.425, 3552.413
3903.354, 3569.542
3905.282, 3589.599
3907.210, 3608.834
3909.139, 3625.138
3911.067, 3639.967
3912.996, 3652.859
3914.924, 3662.142
3916.853, 3671.569
3918.781, 3683.436
3920.710, 3697.545
3922.638, 3711.523
3924.567, 3723.812
3926.495, 3731.922
3928.424, 3744.602
3930.352, 3770.834
3932.281, 3790.475
3934.209, 3797.764
3936.137, 3810.253
3938.066, 3826.843
3939.994, 3841.123
3941.923, 3861.231
3943.851, 3877.680
3945.780, 3893.528
3947.708, 3913.660
3949.637, 3926.516
3951.565, 3943.535
3953.494, 3962.672
3955.422, 3977.548
3957.351, 3990.515
3959.279, 4002.516
3961.208, 4012.443
3963.136, 4021.775
3965.064, 4032.354
3966.993, 4048.462
3968.921, 4062.089
3970.850, 4078.619
3972.778, 4097.808
3974.707, 4111.834
3976.635, 4135.410
3978.564, 4148.666
3980.492, 4159.404
3982.421, 4181.684
3984.349, 4203.250
3986.278, 4220.334
3988.206, 4232.298
3990.135, 4243.678
3992.063, 4266.181
3993.991, 4285.311
3995.920, 4295.787
3997.848, 4313.174
3999.777, 4337.125
4001.705, 4362.025
4003.634, 4382.356
4005.562, 4400.835
4007.491, 4418.523
4009.419, 4436.345
4011.348, 4454.901
4013.276, 4471.592
4015.205, 4491.413
4017.133, 4506.843
4019.062, 4524.000
4020.990, 4544.896
4022.918, 4563.108
4024.847, 4577.570
4026.775, 4595.552
4028.704, 4615.614
4030.632, 4632.784
4032.561, 4650.947
4034.489, 4669.677
4036.418, 4687.048
4038.346, 4707.342
4040.275, 4724.641
4042.203, 4745.523
4044.132, 4763.728
4046.060, 4782.992
4047.989, 4801.531
4049.917, 4821.589
4051.845, 4841.693
4053.774, 4861.209
4055.702, 4886.792
4057.631, 4904.342
4059.559, 4933.584
4061.488, 4956.273
4063.416, 4967.910
4065.345, 4985.596
4067.273, 5011.856
4069.202, 5051.169
4071.130, 5086.173
4073.059, 5086.281
4074.987, 5094.310
4076.916, 5121.040
4078.844, 5160.747
4080.772, 5197.284
4082.701, 5191.614
4084.629, 5191.077
4086.558, 5216.250
4088.486, 5238.895
4090.415, 5259.044
4092.343, 5280.249
4094.272, 5303.392
4096.200, 5326.960
4098.129, 5354.279
4100.057, 5380.994
4101.986, 5395.885
4103.914, 5411.553
4105.843, 5432.075
4107.771, 5452.246
4109.700, 5475.000
4111.628, 5496.964
4113.557, 5522.477
4115.485, 5554.505
4117.414, 5575.892
4119.342, 5594.204
4121.271, 5612.192
4123.199, 5631.034
4125.127, 5651.250
4127.056, 5683.156
4128.984, 5696.395
4130.913, 5728.038
4132.841, 5759.524
4134.770, 5783.605
4136.698, 5810.263
4138.626, 5836.995
4140.555, 5869.102
4142.483, 5896.843
4144.412, 5901.580
4146.340, 5919.757
4148.269, 5952.252
4150.197, 5977.883
4152.126, 5999.779
4154.054, 6023.234
4155.983, 6046.225
4157.911, 6071.236
4159.840, 6079.966
4161.768, 6092.448
4163.697, 6126.837
4165.625, 6159.059
4167.554, 6185.179
4169.482, 6214.490
4171.411, 6242.688
4173.339, 6262.029
4175.268, 6282.776
4177.196, 6309.337
4179.125, 6331.121
4181.053, 6354.478
4182.981, 6389.444
4184.910, 6422.781
4186.838, 6452.486
4188.767, 6477.435
4190.695, 6499.656
4192.624, 6515.347
4194.552, 6541.581
4196.480, 6576.742
4198.409, 6609.474
4200.337, 6629.895
4202.266, 6656.474
4204.194, 6659.081
4206.123, 6697.882
4208.051, 6718.165
4209.980, 6739.992
4211.908, 6778.666
4213.837, 6800.384
4215.765, 6816.839
4217.694, 6850.001
4219.622, 6875.977
4221.551, 6887.689
4223.479, 6921.688
4225.408, 6961.297
4227.336, 6983.413
4229.265, 7008.405
4231.193, 7039.058
4233.122, 7062.227
4235.050, 7084.876
4236.979, 7115.779
4238.907, 7146.370
4240.835, 7175.135
4242.764, 7204.426
4244.692, 7235.330
4246.621, 7274.533
4248.549, 7294.604
4250.478, 7327.112
4252.406, 7357.113
4254.334, 7381.273
4256.263, 7414.003
4258.191, 7440.372
4260.120, 7464.095
4262.048, 7491.247
4263.977, 7524.221
4265.905, 7564.502
4267.834, 7593.639
4269.762, 7616.214
4271.691, 7640.299
4273.619, 7663.991
4275.548, 7688.840
4277.476, 7733.958
4279.405, 7783.882
4281.333, 7825.069
4283.262, 7849.468
4285.190, 7861.627
4287.119, 7892.784
4289.047, 7934.337
4290.976, 7987.096
4292.904, 8026.000
4294.833, 8052.690
4296.761, 8071.540
4298.689, 8090.991
4300.618, 8113.515
4302.546, 8147.114
4304.475, 8186.869
4306.403, 8227.327
4308.332, 8263.552
4310.260, 8301.423
4312.188, 8333.286
4314.117, 8371.964
4316.045, 8406.813
4317.974, 8437.933
4319.902, 8464.318
4321.831, 8495.649
4323.759, 8493.874
4325.688, 8548.450
4327.616, 8572.785
4329.545, 8590.413
4331.473, 8644.667
4333.402, 8699.155
4335.330, 8745.947
4337.259, 8781.267
4339.187, 8811.375
4341.116, 8841.725
4343.044, 8866.998
4344.973, 8890.979
4346.901, 8927.436
4348.830, 8971.619
4350.758, 9023.459
4352.687, 9062.163
4354.615, 9097.595
4356.543, 9147.124
4358.472, 9183.899
4360.400, 9205.814
4362.329, 9259.507
4364.257, 9304.640
4366.186, 9314.378
4368.114, 9336.334
4370.042, 9372.519
4371.971, 9401.052
4373.899, 9464.071
4375.828, 9482.607
4377.756, 9528.844
4379.685, 9579.122
4381.613, 9609.458
4383.542, 9640.649
4385.470, 9676.312
4387.399, 9719.861
4389.327, 9765.026
4391.256, 9809.379
4393.184, 9846.563
4395.113, 9876.954
4397.041, 9898.709
4398.970, 9922.521
4400.898, 9952.335
4402.827, 10002.17
4404.755, 10053.49
4406.684, 10096.10
4408.612, 10132.71
4410.541, 10166.83
4412.469, 10205.58
4414.397, 10238.90
4416.326, 10267.00
4418.254, 10316.47
4420.183, 10364.65
4422.111, 10397.91
4424.040, 10436.85
4425.968, 10479.05
4427.896, 10514.76
4429.825, 10557.97
4431.753, 10608.90
4433.682, 10659.72
4435.610, 10697.96
4437.539, 10736.44
4439.467, 10750.69
4441.396, 10804.12
4443.324, 10837.90
4445.253, 10878.78
4447.181, 10930.22
4449.110, 10958.32
4451.038, 10988.52
4452.967, 11036.15
4454.895, 11097.95
4456.824, 11158.24
4458.752, 11186.38
4460.681, 11223.27
4462.609, 11274.63
4464.538, 11321.75
4466.466, 11363.37
4468.395, 11408.62
4470.323, 11442.37
4472.251, 11489.61
4474.180, 11531.03
4476.108, 11566.92
4478.037, 11596.46
4479.965, 11613.00
4481.894, 11641.73
4483.822, 11699.97
4485.750, 11760.28
4487.679, 11814.48
4489.607, 11866.11
4491.536, 11919.66
4493.464, 11962.39
4495.393, 12015.91
4497.321, 12060.92
4499.250, 12098.43
4501.178, 12124.59
4503.107, 12160.15
4505.035, 12222.42
4506.964, 12289.66
4508.892, 12346.33
4510.821, 12392.81
4512.749, 12437.56
4514.678, 12470.92
4516.606, 12507.83
4518.535, 12535.57
4520.463, 12566.54
4522.392, 12616.07
4524.320, 12673.60
4526.249, 12733.00
4528.177, 12772.13
4530.105, 12801.16
4532.034, 12854.16
4533.962, 12903.88
4535.891, 12944.55
4537.819, 13007.85
4539.748, 13067.52
4541.676, 13102.68
4543.604, 13135.55
4545.533, 13171.83
4547.461, 13218.57
4549.390, 13278.32
4551.318, 13340.19
4553.247, 13355.27
4555.175, 13381.72
4557.104, 13436.17
4559.032, 13506.97
4560.961, 13571.49
4562.889, 13606.31
4564.818, 13654.53
4566.746, 13707.88
4568.675, 13751.76
4570.603, 13791.80
4572.532, 13832.26
4574.460, 13893.56
4576.389, 13953.24
4578.317, 14005.42
4580.246, 14047.97
4582.174, 14077.81
4584.103, 14130.53
4586.031, 14178.41
4587.959, 14224.11
4589.888, 14283.93
4591.816, 14334.82
4593.745, 14380.29
4595.673, 14427.88
4597.602, 14473.67
4599.530, 14517.94
4601.458, 14566.80
4603.387, 14609.87
4605.315, 14639.01
4607.244, 14715.51
4609.172, 14794.27
4611.101, 14825.62
4613.029, 14873.91
4614.958, 14928.61
4616.886, 14960.19
4618.815, 15016.30
4620.743, 15089.48
4622.672, 15126.28
4624.600, 15162.83
4626.529, 15210.24
4628.457, 15247.94
4630.386, 15297.46
4632.314, 15372.70
4634.243, 15434.42
4636.171, 15488.68
4638.100, 15543.44
4640.028, 15579.03
4641.957, 15613.54
4643.885, 15680.70
4645.813, 15750.88
4647.742, 15819.41
4649.670, 15869.51
4651.599, 15946.53
4653.527, 15964.24
4655.456, 16016.43
4657.384, 16061.59
4659.313, 16080.63
4661.241, 16122.09
4663.169, 16167.77
4665.098, 16198.01
4667.026, 16247.07
4668.955, 16309.17
4670.883, 16379.65
4672.812, 16427.21
4674.740, 16463.38
4676.669, 16520.15
4678.597, 16583.55
4680.526, 16648.23
4682.454, 16699.48
4684.383, 16750.74
4686.311, 16805.57
4688.240, 16883.97
4690.168, 16956.99
4692.097, 17013.23
4694.025, 17059.33
4695.954, 17109.88
4697.882, 17180.19
4699.811, 17243.49
4701.739, 17295.86
4703.667, 17331.82
4705.596, 17360.59
4707.524, 17398.46
4709.453, 17474.29
4711.381, 17551.38
4713.310, 17623.71
4715.238, 17690.48
4717.167, 17746.24
4719.095, 17791.56
4721.023, 17842.69
4722.952, 17885.82
4724.880, 17935.93
4726.809, 17987.37
4728.737, 18037.89
4730.666, 18086.12
4732.594, 18145.66
4734.523, 18195.29
4736.451, 18258.63
4738.380, 18331.86
4740.308, 18398.18
4742.237, 18427.91
4744.165, 18503.91
4746.094, 18580.46
4748.022, 18596.88
4749.951, 18633.78
4751.879, 18687.05
4753.808, 18734.82
4755.736, 18782.54
4757.665, 18839.65
4759.593, 18933.55
4761.521, 19018.29
4763.450, 19080.94
4765.378, 19094.13
4767.307, 19127.05
4769.235, 19190.07
4771.164, 19258.92
4773.092, 19301.18
4775.021, 19361.31
4776.949, 19419.55
4778.877, 19463.41
4780.806, 19537.99
4782.734, 19590.66
4784.663, 19654.53
4786.591, 19746.01
4788.520, 19777.47
4790.448, 19819.01
4792.377, 19911.14
4794.305, 19976.22
4796.234, 20030.60
4798.162, 20087.94
4800.091, 20145.69
4802.019, 20194.62
4803.948, 20252.59
4805.876, 20314.15
4807.805, 20364.59
4809.733, 20439.51
4811.662, 20501.97
4813.590, 20560.77
4815.519, 20629.96
4817.447, 20673.43
4819.375, 20712.30
4821.304, 20785.69
4823.232, 20846.48
4825.161, 20902.16
4827.089, 20970.63
4829.018, 21031.05
4830.946, 21086.65
4832.875, 21148.21
4834.803, 21215.04
4836.731, 21278.39
4838.660, 21313.06
4840.588, 21373.99
4842.517, 21456.52
4844.445, 21541.78
4846.374, 21595.84
4848.302, 21631.50
4850.231, 21689.85
4852.159, 21775.81
4854.088, 21863.43
4856.016, 21872.64
4857.945, 21910.71
4859.873, 21985.43
4861.802, 22076.05
4863.730, 22137.39
4865.659, 22178.70
4867.587, 22263.81
4869.516, 22304.79
4871.444, 22364.54
4873.373, 22410.21
4875.301, 22475.22
4877.229, 22511.60
4879.158, 22567.57
4881.086, 22647.79
4883.015, 22731.18
4884.943, 22738.10
4886.872, 22787.71
4888.800, 22876.60
4890.729, 22935.14
4892.657, 22977.88
4894.585, 23022.93
4896.514, 23114.71
4898.442, 23197.39
4900.371, 23265.00
4902.299, 23334.63
4904.228, 23374.73
4906.156, 23443.96
4908.085, 23482.78
4910.013, 23561.27
4911.942, 23623.77
4913.870, 23681.49
4915.799, 23698.12
4917.727, 23783.73
4919.656, 23827.70
4921.584, 23886.61
4923.513, 23960.50
4925.441, 24043.47
4927.370, 24127.63
4929.298, 24198.09
4931.227, 24223.96
4933.155, 24266.15
4935.083, 24313.80
4937.012, 24341.92
4938.940, 24406.26
4940.869, 24493.06
4942.797, 24587.25
4944.726, 24645.07
4946.654, 24685.78
4948.583, 24724.03
4950.511, 24803.51
4952.439, 24869.56
4954.368, 24879.09
4956.296, 24939.02
4958.225, 25018.45
4960.153, 25093.48
4962.082, 25132.37
4964.010, 25177.41
4965.939, 25246.87
4967.867, 25300.49
4969.796, 25342.60
4971.724, 25411.66
4973.653, 25457.39
4975.581, 25532.14
4977.510, 25589.22
4979.438, 25643.75
4981.367, 25686.55
4983.295, 25722.39
4985.224, 25787.90
4987.152, 25863.64
4989.081, 25945.36
4991.009, 26037.90
4992.938, 26084.97
4994.866, 26167.94
4996.794, 26203.83
4998.723, 26287.27
5000.651, 26347.65
5002.580, 26368.61
5004.508, 26407.00
5006.437, 26455.67
5008.365, 26499.35
5010.293, 26541.38
5012.222, 26592.19
5014.150, 26661.79
5016.079, 26743.84
5018.007, 26811.69
5019.936, 26853.04
5021.864, 26895.15
5023.793, 26962.18
5025.721, 27057.94
5027.650, 27122.56
5029.578, 27188.93
5031.507, 27259.61
5033.435, 27301.88
5035.364, 27345.00
5037.292, 27389.99
5039.221, 27414.59
5041.149, 27465.30
5043.078, 27537.32
5045.006, 27613.13
5046.935, 27665.37
5048.863, 27712.55
5050.792, 27782.65
5052.720, 27804.72
5054.648, 27829.23
5056.577, 27894.74
5058.505, 27968.19
5060.434, 28028.92
5062.362, 28072.30
5064.291, 28139.87
5066.219, 28193.15
5068.147, 28227.83
5070.076, 28287.49
5072.004, 28336.35
5073.933, 28375.64
5075.861, 28418.63
5077.790, 28516.83
5079.718, 28549.88
5081.647, 28628.22
5083.575, 28666.83
5085.504, 28730.26
5087.432, 28811.04
5089.361, 28856.79
5091.289, 28903.94
5093.218, 28970.60
5095.146, 29020.28
5097.075, 29073.47
5099.003, 29132.36
5100.932, 29168.45
5102.860, 29232.23
5104.789, 29313.44
5106.717, 29378.24
5108.646, 29423.47
5110.574, 29468.31
5112.502, 29531.38
5114.431, 29602.79
5116.359, 29684.29
5118.288, 29773.75
5120.216, 29821.90
5122.145, 29881.71
5124.073, 29961.91
5126.001, 29967.27
5127.930, 30017.18
5129.858, 30095.44
5131.787, 30097.38
5133.715, 30170.03
5135.644, 30269.96
5137.572, 30330.45
5139.501, 30360.09
5141.429, 30415.41
5143.358, 30528.42
5145.286, 30610.93
5147.215, 30674.39
5149.143, 30725.25
5151.072, 30782.42
5153.000, 30801.37
5154.929, 30812.75
5156.857, 30885.77
5158.786, 30964.67
5160.714, 31041.77
5162.643, 31111.28
5164.571, 31194.67
5166.500, 31263.07
5168.428, 31304.41
5170.356, 31341.59
5172.285, 31371.60
5174.213, 31406.09
5176.142, 31473.24
5178.070, 31545.31
5179.999, 31608.21
5181.927, 31647.49
5183.855, 31710.94
5185.784, 31769.86
5187.712, 31807.39
5189.641, 31865.43
5191.569, 31933.16
5193.498, 32007.14
5195.426, 32089.85
5197.355, 32145.93
5199.283, 32195.44
5201.212, 32274.50
5203.140, 32306.24
5205.069, 32326.06
5206.997, 32358.57
5208.926, 32403.71
5210.854, 32445.41
5212.783, 32480.86
5214.711, 32498.41
5216.640, 32554.31
5218.568, 32627.36
5220.497, 32692.56
5222.425, 32698.02
5224.354, 32726.82
5226.282, 32812.57
5228.210, 32879.94
5230.139, 32950.00
5232.067, 33007.05
5233.996, 32985.12
5235.924, 33009.96
5237.853, 33067.96
5239.781, 33138.18
5241.709, 33165.03
5243.638, 33220.86
5245.566, 33310.00
5247.495, 33314.00
5249.423, 33334.32
5251.352, 33384.30
5253.280, 33464.81
5255.209, 33525.95
5257.137, 33565.20
5259.066, 33587.29
5260.994, 33602.08
5262.923, 33645.25
5264.851, 33711.03
5266.780, 33757.32
5268.708, 33833.32
5270.637, 33898.62
5272.565, 33911.00
5274.494, 33965.44
5276.422, 34041.35
5278.351, 34117.72
5280.279, 34144.73
5282.208, 34163.17
5284.136, 34185.30
5286.064, 34219.83
5287.993, 34259.35
5289.921, 34300.11
5291.850, 34343.14
5293.778, 34417.13
5295.707, 34475.30
5297.635, 34517.12
5299.563, 34559.38
5301.492, 34606.57
5303.420, 34638.66
5305.349, 34689.02
5307.277, 34710.08
5309.206, 34743.68
5311.134, 34792.00
5313.063, 34825.68
5314.991, 34859.06
5316.920, 34896.90
5318.848, 34927.86
5320.777, 34969.16
5322.705, 34996.71
5324.634, 35024.49
5326.562, 35053.45
5328.491, 35070.59
5330.419, 35096.75
5332.348, 35113.93
5334.276, 35184.86
5336.205, 35240.84
5338.133, 35276.39
5340.062, 35319.19
5341.990, 35361.26
5343.918, 35420.83
5345.847, 35443.47
5347.775, 35476.37
5349.704, 35498.18
5351.632, 35559.45
5353.561, 35593.68
5355.489, 35619.01
5357.417, 35646.10
5359.346, 35653.14
5361.274, 35669.64
5363.203, 35656.68
5365.131, 35657.07
5367.060, 35721.82
5368.988, 35777.62
5370.917, 35840.31
5372.845, 35907.31
5374.774, 35914.98
5376.702, 35875.54
5378.631, 35848.52
5380.559, 35909.95
5382.488, 35965.11
5384.416, 36013.80
5386.345, 36051.93
5388.273, 36053.80
5390.202, 36137.06
5392.130, 36203.39
5394.059, 36161.74
5395.987, 36221.89
5397.916, 36247.88
5399.844, 36237.56
5401.772, 36296.88
5403.701, 36272.48
5405.629, 36268.73
5407.558, 36340.75
5409.486, 36405.21
5411.415, 36421.25
5413.343, 36422.92
5415.271, 36468.89
5417.200, 36496.98
5419.128, 36519.13
5421.057, 36536.95
5422.985, 36569.58
5424.914, 36549.21
5426.842, 36623.84
5428.771, 36699.66
5430.699, 36716.70
5432.628, 36711.79
5434.556, 36701.05
5436.485, 36686.70
5438.413, 36691.00
5440.342, 36702.72
5442.270, 36724.89
5444.199, 36755.60
5446.127, 36802.66
5448.056, 36855.70
5449.984, 36879.24
5451.913, 36917.88
5453.841, 36930.64
5455.770, 36949.14
5457.698, 36963.11
5459.626, 36960.05
5461.555, 37000.04
5463.483, 36998.23
5465.412, 37003.38
5467.340, 37034.60
5469.269, 37063.05
5471.197, 37072.90
5473.125, 37149.05
5475.054, 37140.04
5476.982, 37082.59
5478.911, 37060.13
5480.839, 37158.20
5482.768, 37204.25
5484.696, 37174.06
5486.625, 37171.96
5488.553, 37205.38
5490.482, 37220.34
5492.410, 37261.51
5494.339, 37296.05
5496.267, 37331.71
5498.196, 37361.56
5500.124, 37396.64
5502.053, 37384.54
5503.981, 37419.77
5505.910, 37477.82
5507.838, 37482.98
5509.767, 37454.51
5511.695, 37468.95
5513.624, 37511.40
5515.552, 37464.50
5517.480, 37476.92
5519.409, 37531.68
5521.337, 37598.71
5523.266, 37646.62
5525.194, 37635.75
5527.123, 37609.90
5529.051, 37606.72
5530.979, 37648.16
5532.908, 37591.48
5534.836, 37538.86
5536.765, 37638.62
5538.693, 37627.15
5540.622, 37586.89
5542.550, 37565.13
5544.479, 37592.08
5546.407, 37636.91
5548.336, 37680.63
5550.264, 37726.07
5552.193, 37807.77
5554.121, 37815.44
5556.050, 37818.50
5557.978, 37837.46
5559.907, 37794.73
5561.835, 37788.04
5563.764, 37803.07
5565.692, 37821.43
5567.621, 37837.04
5569.549, 37867.00
5571.478, 37881.58
5573.406, 37892.85
5575.334, 37902.08
5577.263, 37902.73
5579.191, 37905.98
5581.120, 37897.34
5583.048, 37897.27
5584.977, 37897.30
5586.905, 37899.45
5588.833, 37907.19
5590.762, 37908.52
5592.690, 37933.16
5594.619, 37935.86
5596.547, 37812.30
5598.476, 37910.71
5600.404, 37918.71
5602.333, 37839.89
5604.261, 37929.38
5606.190, 37869.88
5608.118, 37877.43
5610.047, 37954.82
5611.975, 37923.80
5613.904, 37924.99
5615.832, 37921.47
5617.761, 37909.95
5619.689, 37932.52
5621.618, 37929.13
5623.546, 37920.19
5625.475, 37900.02
5627.403, 37904.64
5629.332, 37845.25
5631.260, 37884.89
5633.188, 37838.84
5635.117, 37781.29
5637.045, 37836.91
5638.974, 37852.46
5640.902, 37809.30
5642.831, 37862.84
5644.759, 37865.42
5646.688, 37853.76
5648.616, 37850.14
5650.544, 37851.35
5652.473, 37829.02
5654.401, 37819.71
5656.330, 37836.08
5658.258, 37861.83
5660.187, 37861.23
5662.115, 37843.55
5664.044, 37830.62
5665.972, 37872.31
5667.901, 37929.32
5669.829, 37950.56
5671.758, 37929.93
5673.686, 37891.65
5675.615, 37862.31
5677.543, 37806.17
5679.472, 37764.34
5681.400, 37838.21
5683.329, 37830.70
5685.257, 37790.74
5687.186, 37769.45
5689.114, 37814.39
5691.042, 37836.11
5692.971, 37839.17
5694.899, 37833.79
5696.828, 37831.13
5698.756, 37811.88
5700.685, 37790.29
5702.613, 37768.71
5704.542, 37745.71
5706.470, 37688.21
5708.398, 37696.52
5710.327, 37704.56
5712.255, 37646.71
5714.184, 37647.82
5716.112, 37708.50
5718.041, 37731.77
5719.969, 37672.20
5721.898, 37678.88
5723.826, 37643.88
5725.755, 37602.12
5727.683, 37587.32
5729.612, 37636.44
5731.540, 37573.53
5733.469, 37555.71
5735.397, 37597.51
5737.326, 37543.49
5739.254, 37522.38
5741.183, 37515.18
5743.111, 37493.75
5745.040, 37434.73
5746.968, 37483.98
5748.896, 37520.00
5750.825, 37495.66
5752.753, 37412.83
5754.682, 37423.82
5756.610, 37411.53
5758.539, 37381.00
5760.467, 37356.40
5762.396, 37305.88
5764.324, 37303.92
5766.252, 37291.51
5768.181, 37252.79
5770.109, 37265.82
5772.038, 37230.01
5773.966, 37219.50
5775.895, 37197.45
5777.823, 37189.93
5779.752, 37212.67
5781.680, 37198.86
5783.609, 37186.93
5785.537, 37220.45
5787.466, 37153.45
5789.394, 37146.95
5791.323, 37134.19
5793.251, 37071.36
5795.180, 37081.16
5797.108, 37041.70
5799.037, 36994.51
5800.965, 36967.55
5802.894, 36965.02
5804.822, 36974.79
5806.750, 36943.62
5808.679, 36901.67
5810.607, 36898.93
5812.536, 36866.13
5814.464, 36812.84
5816.393, 36842.78
5818.321, 36842.50
5820.250, 36871.18
5822.178, 36861.35
5824.106, 36806.32
5826.035, 36711.05
5827.963, 36585.98
5829.892, 36515.99
5831.820, 36530.64
5833.749, 36553.19
5835.677, 36520.46
5837.606, 36509.62
5839.534, 36560.87
5841.463, 36561.95
5843.391, 36491.70
5845.320, 36473.09
5847.248, 36434.77
5849.177, 36365.52
5851.105, 36316.07
5853.034, 36346.11
5854.962, 36314.42
5856.891, 36295.20
5858.819, 36286.23
5860.748, 36262.48
5862.676, 36178.37
5864.604, 36130.39
5866.533, 36137.42
5868.461, 36159.81
5870.390, 36149.43
5872.318, 36166.64
5874.247, 36075.29
5876.175, 35996.61
5878.104, 36009.17
5880.032, 36059.01
5881.960, 36043.92
5883.889, 36038.85
5885.817, 36023.52
5887.746, 35948.51
5889.674, 35911.36
5891.603, 35860.79
5893.531, 35838.68
5895.460, 35848.54
5897.388, 35804.43
5899.317, 35831.68
5901.245, 35765.47
5903.174, 35686.20
5905.102, 35716.41
5907.031, 35689.05
5908.959, 35608.34
5910.888, 35570.27
5912.816, 35607.34
5914.745, 35696.93
5916.673, 35671.16
5918.602, 35566.36
5920.530, 35475.86
5922.458, 35441.21
5924.387, 35360.52
5926.315, 35327.99
5928.244, 35348.20
5930.172, 35264.29
5932.101, 35270.88
5934.029, 35237.13
5935.958, 35196.56
5937.886, 35166.98
5939.814, 35135.29
5941.743, 35066.24
5943.671, 35027.98
5945.600, 35024.90
5947.528, 35035.73
5949.457, 35036.21
5951.385, 34994.47
5953.314, 34951.41
5955.242, 34934.88
5957.171, 34883.82
5959.099, 34826.32
5961.028, 34777.30
5962.956, 34690.16
5964.885, 34658.86
5966.813, 34587.43
5968.742, 34542.10
5970.670, 34498.77
5972.599, 34467.91
5974.527, 34474.32
5976.456, 34505.10
5978.384, 34501.20
5980.313, 34477.18
5982.241, 34466.67
5984.169, 34449.73
5986.098, 34398.48
5988.026, 34280.16
5989.955, 34234.03
5991.883, 34196.89
5993.812, 34163.64
5995.740, 34142.89
5997.668, 34102.11
5999.597, 34030.40
6001.525, 34020.86
6003.454, 34021.28
6005.382, 33956.50
6007.311, 33941.04
6009.239, 33865.82
6011.168, 33818.94
6013.096, 33783.25
6015.025, 33701.66
6016.953, 33711.30
6018.882, 33698.17
6020.810, 33648.23
6022.739, 33584.77
6024.667, 33538.67
6026.596, 33542.84
6028.524, 33491.57
6030.453, 33437.56
6032.381, 33395.15
6034.310, 33337.11
6036.238, 33296.95
6038.167, 33223.74
6040.095, 33168.57
6042.023, 33133.62
6043.952, 33075.28
6045.880, 32987.42
6047.809, 32956.35
6049.737, 32952.00
6051.666, 32948.86
6053.594, 32940.74
6055.522, 32851.09
6057.451, 32858.04
6059.379, 32831.36
6061.308, 32728.05
6063.236, 32611.16
6065.165, 32606.77
6067.093, 32555.78
6069.022, 32507.22
6070.950, 32447.84
6072.879, 32328.04
6074.807, 32313.45
6076.736, 32253.18
6078.664, 32212.87
6080.593, 32196.46
6082.521, 32165.66
6084.450, 32127.91
6086.378, 32112.04
6088.307, 32067.26
6090.235, 32010.57
6092.164, 31970.96
6094.092, 31883.59
6096.021, 31863.88
6097.949, 31775.02
6099.877, 31703.00
6101.806, 31714.31
6103.734, 31656.67
6105.663, 31639.09
6107.591, 31596.32
6109.520, 31549.49
6111.448, 31516.47
6113.376, 31477.82
6115.305, 31407.34
6117.233, 31350.13
6119.162, 31272.50
6121.090, 31172.12
6123.019, 31085.07
6124.947, 31021.68
6126.876, 30947.65
6128.804, 30859.78
6130.733, 30819.88
6132.661, 30782.00
6134.590, 30848.14
6136.518, 30746.79
6138.447, 30737.15
6140.375, 30723.67
6142.304, 30634.96
6144.232, 30618.84
6146.161, 30515.39
6148.089, 30477.79
6150.018, 30462.56
6151.946, 30435.79
6153.875, 30418.08
6155.803, 30286.53
6157.731, 30226.42
6159.660, 30192.69
6161.588, 30137.17
6163.517, 30046.39
6165.445, 29924.18
6167.374, 29919.53
6169.302, 29913.35
6171.230, 29913.22
6173.159, 29903.35
6175.087, 29786.86
6177.016, 29794.67
6178.944, 29729.07
6180.873, 29691.66
6182.801, 29682.06
6184.730, 29635.76
6186.658, 29547.96
6188.587, 29497.20
6190.515, 29442.23
6192.444, 29386.17
6194.372, 29338.58
6196.301, 29295.68
6198.229, 29246.99
6200.158, 29200.54
6202.086, 29177.16
6204.015, 29122.64
6205.943, 29013.63
6207.872, 29000.30
6209.800, 28887.21
6211.729, 28896.36
6213.657, 28904.35
6215.585, 28860.98
6217.514, 28835.30
6219.442, 28760.63
6221.371, 28665.55
6223.299, 28631.53
6225.228, 28601.53
6227.156, 28545.40
6229.084, 28528.31
6231.013, 28427.15
6232.941, 28372.85
6234.870, 28333.06
6236.798, 28296.73
6238.727, 28255.27
6240.655, 28144.38
6242.584, 28078.49
6244.512, 28023.91
6246.441, 27978.29
6248.369, 27939.42
6250.298, 27897.75
6252.226, 27845.25
6254.155, 27762.10
6256.083, 27715.96
6258.012, 27668.85
6259.940, 27659.68
6261.869, 27601.45
6263.797, 27540.34
6265.726, 27501.26
6267.654, 27395.09
6269.583, 27321.98
6271.511, 27251.76
6273.439, 27186.73
6275.368, 27183.91
6277.296, 27099.13
6279.225, 27065.36
6281.153, 27037.29
6283.082, 26983.90
6285.010, 26958.54
6286.938, 26905.33
6288.867, 26866.85
6290.795, 26803.85
6292.724, 26748.98
6294.652, 26700.11
6296.581, 26651.67
6298.509, 26652.14
6300.438, 26564.07
6302.366, 26523.06
6304.295, 26474.57
6306.223, 26389.07
6308.152, 26312.63
6310.080, 26260.10
6312.009, 26252.43
6313.937, 26185.29
6315.866, 26145.99
6317.794, 26159.05
6319.723, 26131.87
6321.651, 26067.49
6323.580, 26059.53
6325.508, 25972.28
6327.437, 25882.75
6329.365, 25853.92
6331.293, 25846.57
6333.222, 25750.16
6335.150, 25684.54
6337.079, 25618.86
6339.007, 25554.19
6340.936, 25493.85
6342.864, 25436.09
6344.792, 25383.31
6346.721, 25361.25
6348.649, 25336.81
6350.578, 25271.88
6352.506, 25172.82
6354.435, 25065.66
6356.363, 24972.69
6358.292, 24948.31
6360.220, 24978.26
6362.149, 24930.09
6364.077, 24871.28
6366.006, 24839.16
6367.934, 24784.87
6369.863, 24723.21
6371.791, 24692.09
6373.720, 24602.00
6375.648, 24522.23
6377.577, 24477.90
6379.505, 24406.65
6381.434, 24358.21
6383.362, 24300.75
6385.291, 24274.88
6387.219, 24227.13
6389.147, 24197.59
6391.076, 24196.32
6393.004, 24167.31
6394.933, 24079.45
6396.861, 24003.28
6398.790, 23936.71
6400.718, 23874.17
6402.646, 23850.09
6404.575, 23772.00
6406.503, 23751.91
6408.432, 23713.38
6410.360, 23664.63
6412.289, 23613.22
6414.217, 23550.21
6416.146, 23488.40
6418.074, 23449.62
6420.003, 23427.98
6421.931, 23352.96
6423.860, 23333.47
6425.788, 23281.58
6427.717, 23193.99
6429.645, 23122.73
6431.574, 23095.68
6433.502, 23061.73
6435.431, 23021.73
6437.359, 22891.89
6439.288, 22830.46
6441.216, 22805.98
6443.145, 22760.80
6445.073, 22736.34
6447.001, 22669.76
6448.930, 22673.13
6450.858, 22588.05
6452.787, 22498.85
6454.715, 22459.34
6456.644, 22445.93
6458.572, 22412.76
6460.500, 22373.00
6462.429, 22334.35
6464.357, 22281.80
6466.286, 22203.50
6468.214, 22163.14
6470.143, 22077.49
6472.071, 22001.10
6474.000, 22004.09
6475.928, 21963.61
6477.857, 21955.64
6479.785, 21895.71
6481.714, 21896.36
6483.642, 21836.28
6485.571, 21818.88
6487.499, 21719.91
6489.428, 21648.00
6491.356, 21574.72
6493.285, 21546.70
6495.213, 21510.66
6497.142, 21448.48
6499.070, 21399.03
6500.999, 21330.62
6502.927, 21266.21
6504.855, 21223.30
6506.784, 21173.57
6508.712, 21107.81
6510.641, 21099.83
6512.569, 21060.96
6514.498, 21031.31
6516.426, 20985.30
6518.354, 20939.94
6520.283, 20871.13
6522.211, 20830.35
6524.140, 20760.26
6526.068, 20684.56
6527.997, 20591.65
6529.925, 20566.91
6531.854, 20512.87
6533.782, 20507.81
6535.711, 20451.33
6537.639, 20375.01
6539.568, 20326.76
6541.496, 20296.30
6543.425, 20247.66
6545.353, 20225.52
6547.282, 20175.32
6549.210, 20112.15
6551.139, 20103.54
6553.067, 20073.75
6554.996, 20017.68
6556.924, 20007.81
6558.853, 19980.60
6560.781, 19938.39
6562.709, 19864.94
6564.638, 19814.60
6566.566, 19772.54
6568.495, 19725.29
6570.423, 19662.63
6572.352, 19579.84
6574.280, 19516.63
6576.208, 19492.34
6578.137, 19420.64
6580.065, 19398.87
6581.994, 19401.12
6583.922, 19361.25
6585.851, 19308.78
6587.779, 19315.47
6589.708, 19268.34
6591.636, 19154.68
6593.565, 19083.94
6595.493, 19036.49
6597.422, 18969.80
6599.350, 18994.82
6601.279, 19083.39
6603.207, 19059.37
6605.136, 18930.41
6607.064, 18898.74
6608.993, 18754.23
6610.921, 18683.81
6612.850, 18634.44
6614.778, 18596.86
6616.707, 18548.34
6618.635, 18476.77
6620.563, 18479.32
6622.492, 18413.98
6624.420, 18394.08
6626.349, 18339.87
6628.277, 18320.51
6630.206, 18302.10
##END=



