##NAMES=Friedelite
##RRUFFID=R070085
##IDEAL CHEMISTRY=Mn^2+^_8_Si_6_O_15_(OH)_10_
##LOCALITY=Sterling Hill mine, Ogdensburg, New Jersey, USA
##OWNER=RRUFF
##SOURCE=Bob Jenkins
##DESCRIPTION=Orange-brown coarsely crystalline
##STATUS=The identification of this mineral is confirmed by single-crystal X-ray diffraction and chemical analysis
##URL=https://www.rruff.net/odr/rruff_sample/R070085
##MEASURED CHEMISTRY=(Mn^2+^_7.02_Fe^2+^_0.49_Mg_0.36_Zn_0.11_Al_0.02_)(Si_5.98_Al_0.02_)O_15_((OH)_9.13_Cl_0.87_) ; OH estimated by difference and charge balance
##DIFFRACTION SAMPLE DESCRIPTION=Single crystal, powder profile is calculated
##CELL PARAMETERS=a: 23.208 b: 13.402 c: 7.439 alpha: 90 beta: 105.07 gamma: 90 volume: 2234 crystal system: monoclinic
##FILETYPE=Raman RAW
##RAMAN WAVELENGTH=532

211.6436, 10544.58
213.5721, 10514.78
215.5005, 10491.11
217.4290, 10478.84
219.3575, 10474.93
221.2859, 10467.75
223.2144, 10442.40
225.1429, 10422.67
227.0713, 10426.47
228.9998, 10455.66
230.9283, 10497.63
232.8567, 10548.27
234.7852, 10605.49
236.7137, 10681.88
238.6421, 10773.73
240.5706, 10885.28
242.4991, 11019.84
244.4275, 11175.26
246.3560, 11349.83
248.2845, 11541.81
250.2129, 11753.71
252.1414, 11980.35
254.0699, 12230.10
255.9983, 12481.93
257.9268, 12732.60
259.8553, 12989.11
261.7838, 13217.35
263.7122, 13425.22
265.6407, 13599.21
267.5692, 13728.30
269.4976, 13803.74
271.4261, 13842.56
273.3546, 13852.42
275.2830, 13828.05
277.2115, 13790.08
279.1400, 13735.74
281.0684, 13669.19
282.9969, 13594.72
284.9254, 13505.34
286.8538, 13416.43
288.7823, 13323.72
290.7108, 13226.77
292.6392, 13165.64
294.5677, 13149.35
296.4962, 13168.88
298.4246, 13214.64
300.3531, 13309.25
302.2816, 13407.96
304.2100, 13497.02
306.1385, 13584.55
308.0670, 13699.02
309.9954, 13870.51
311.9239, 14050.27
313.8524, 14209.09
315.7808, 14327.60
317.7093, 14457.10
319.6378, 14646.71
321.5662, 14845.86
323.4947, 14959.45
325.4232, 14935.52
327.3516, 14853.46
329.2801, 14720.46
331.2086, 14529.31
333.1370, 14334.60
335.0655, 14135.70
336.9940, 13936.25
338.9224, 13746.30
340.8509, 13567.67
342.7794, 13398.26
344.7078, 13227.32
346.6363, 13060.93
348.5648, 12931.39
350.4932, 12859.20
352.4217, 12817.33
354.3502, 12791.95
356.2786, 12775.89
358.2071, 12793.09
360.1356, 12862.84
362.0640, 12966.99
363.9925, 13072.28
365.9210, 13161.96
367.8494, 13268.42
369.7779, 13403.76
371.7064, 13566.12
373.6348, 13733.73
375.5633, 13930.33
377.4918, 14123.90
379.4202, 14276.65
381.3487, 14314.51
383.2772, 14388.25
385.2056, 14547.52
387.1341, 14764.53
389.0626, 14939.42
390.9910, 15037.67
392.9195, 15109.42
394.8480, 15186.47
396.7764, 15286.79
398.7049, 15361.00
400.6334, 15390.55
402.5618, 15385.52
404.4903, 15371.98
406.4188, 15366.52
408.3472, 15327.79
410.2757, 15242.19
412.2042, 15106.07
414.1326, 14950.45
416.0611, 14766.44
417.9896, 14568.77
419.9180, 14375.35
421.8465, 14190.06
423.7750, 14001.08
425.7034, 13795.49
427.6319, 13593.46
429.5604, 13419.24
431.4888, 13266.10
433.4173, 13157.78
435.3458, 13113.43
437.2742, 13135.20
439.2027, 13143.91
441.1312, 13115.73
443.0596, 13097.03
444.9881, 13096.47
446.9166, 13110.35
448.8450, 13133.61
450.7735, 13188.63
452.7020, 13254.74
454.6304, 13289.44
456.5589, 13274.12
458.4874, 13259.22
460.4159, 13268.14
462.3443, 13303.58
464.2728, 13365.68
466.2013, 13458.99
468.1297, 13550.08
470.0582, 13638.73
471.9867, 13727.25
473.9151, 13817.24
475.8436, 13899.87
477.7721, 14013.88
479.7005, 14174.02
481.6290, 14420.45
483.5575, 14635.06
485.4859, 14823.52
487.4144, 14987.30
489.3429, 15117.66
491.2713, 15194.58
493.1998, 15201.16
495.1283, 15135.61
497.0567, 14991.03
498.9852, 14815.97
500.9137, 14606.90
502.8421, 14378.25
504.7706, 14153.97
506.6991, 13953.90
508.6275, 13752.67
510.5560, 13535.45
512.4844, 13326.02
514.4129, 13158.67
516.3414, 13036.07
518.2698, 12913.51
520.1983, 12752.16
522.1268, 12560.24
524.0552, 12401.98
525.9837, 12322.36
527.9122, 12256.67
529.8406, 12179.57
531.7691, 12089.05
533.6976, 12000.85
535.6260, 11923.28
537.5545, 11858.99
539.4830, 11807.78
541.4114, 11760.11
543.3399, 11741.45
545.2684, 11764.42
547.1968, 11798.36
549.1253, 11808.88
551.0538, 11788.50
552.9822, 11787.57
554.9107, 11821.80
556.8392, 11883.52
558.7676, 11939.22
560.6961, 11995.65
562.6246, 12063.82
564.5530, 12142.43
566.4815, 12228.59
568.4100, 12338.82
570.3384, 12471.23
572.2669, 12627.22
574.1954, 12805.48
576.1238, 13001.07
578.0523, 13236.75
579.9808, 13517.94
581.9093, 13847.17
583.8378, 14216.42
585.7662, 14617.52
587.6947, 15111.79
589.6232, 15705.10
591.5516, 16393.02
593.4801, 17150.54
595.4086, 17971.05
597.3370, 18922.77
599.2655, 20022.91
601.1940, 21254.54
603.1224, 22596.11
605.0509, 24121.05
606.9794, 25742.51
608.9078, 27548.67
610.8363, 29405.58
612.7648, 31172.32
614.6932, 32850.16
616.6217, 34056.54
618.5502, 34706.59
620.4786, 34623.27
622.4071, 34097.60
624.3356, 33096.00
626.2640, 31829.55
628.1925, 30217.08
630.1210, 28514.63
632.0494, 26860.51
633.9779, 25229.13
635.9064, 23685.32
637.8348, 22302.45
639.7633, 21014.37
641.6918, 19880.58
643.6202, 18934.29
645.5487, 18117.05
647.4772, 17428.46
649.4056, 16907.61
651.3341, 16463.97
653.2626, 16089.60
655.1910, 15762.86
657.1195, 15463.42
659.0480, 15180.67
660.9764, 14940.68
662.9049, 14769.35
664.8334, 14641.94
666.7618, 14518.75
668.6903, 14392.51
670.6188, 14296.61
672.5472, 14252.46
674.4757, 14235.36
676.4042, 14210.12
678.3326, 14172.66
680.2611, 14147.69
682.1896, 14142.06
684.1180, 14146.31
686.0465, 14148.12
687.9750, 14141.94
689.9034, 14142.06
691.8319, 14159.02
693.7604, 14184.67
695.6888, 14203.93
697.6173, 14211.91
699.5458, 14220.44
701.4742, 14235.25
703.4027, 14265.14
705.3312, 14265.25
707.2596, 14202.11
709.1881, 14136.46
711.1166, 14118.39
713.0450, 14148.68
714.9735, 14174.71
716.9020, 14191.33
718.8304, 14193.63
720.7589, 14179.24
722.6874, 14140.08
724.6158, 14104.75
726.5443, 14071.01
728.4728, 14042.63
730.4012, 14025.40
732.3297, 14021.71
734.2582, 14015.34
736.1866, 13990.78
738.1151, 13966.59
740.0436, 13964.80
741.9720, 14006.71
743.9005, 14041.59
745.8290, 14064.67
747.7574, 14080.02
749.6859, 14092.66
751.6144, 14100.21
753.5428, 14110.99
755.4713, 14128.00
757.3998, 14149.88
759.3282, 14173.22
761.2567, 14203.12
763.1852, 14230.12
765.1136, 14242.39
767.0421, 14247.63
768.9706, 14274.35
770.8990, 14332.71
772.8275, 14392.71
774.7560, 14442.96
776.6844, 14489.68
778.6129, 14538.40
780.5414, 14577.14
782.4698, 14635.04
784.3983, 14728.45
786.3268, 14846.05
788.2552, 14965.24
790.1837, 15091.46
792.1122, 15210.57
794.0406, 15309.67
795.9691, 15392.79
797.8976, 15492.88
799.8260, 15630.95
801.7545, 15762.69
803.6830, 15867.24
805.6115, 15954.30
807.5399, 16031.09
809.4684, 16099.32
811.3969, 16134.50
813.3253, 16139.29
815.2538, 16125.96
817.1823, 16077.34
819.1107, 15971.93
821.0392, 15852.39
822.9677, 15739.39
824.8961, 15633.93
826.8246, 15524.79
828.7531, 15400.19
830.6815, 15279.47
832.6100, 15190.07
834.5385, 15125.29
836.4669, 15056.93
838.3954, 14971.77
840.3239, 14915.89
842.2523, 14905.96
844.1808, 14926.10
846.1093, 14937.18
848.0377, 14930.72
849.9662, 14914.92
851.8947, 14906.02
853.8231, 14904.63
855.7516, 14898.19
857.6801, 14881.58
859.6085, 14887.67
861.5370, 14942.50
863.4655, 14997.94
865.3939, 15020.89
867.3224, 15016.48
869.2509, 15022.54
871.1793, 15050.79
873.1078, 15090.11
875.0363, 15129.18
876.9647, 15159.75
878.8932, 15173.99
880.8217, 15173.22
882.7501, 15185.26
884.6786, 15210.58
886.6071, 15242.50
888.5355, 15266.82
890.4640, 15278.09
892.3925, 15274.93
894.3209, 15266.28
896.2494, 15250.22
898.1779, 15241.63
900.1063, 15259.66
902.0348, 15300.37
903.9633, 15330.29
905.8917, 15343.68
907.8202, 15357.39
909.7487, 15386.48
911.6771, 15416.31
913.6056, 15427.02
915.5341, 15422.77
917.4625, 15419.89
919.3910, 15432.57
921.3195, 15466.60
923.2479, 15512.05
925.1764, 15549.03
927.1049, 15571.75
929.0333, 15590.93
930.9618, 15630.08
932.8903, 15680.91
934.8187, 15717.26
936.7472, 15746.97
938.6757, 15781.59
940.6041, 15817.00
942.5326, 15819.60
944.4611, 15849.06
946.3895, 15925.14
948.3180, 16009.88
950.2465, 16048.49
952.1749, 16053.87
954.1034, 16072.24
956.0319, 16111.71
957.9603, 16162.57
959.8888, 16217.82
961.8173, 16282.22
963.7457, 16336.29
965.6742, 16377.98
967.6027, 16423.81
969.5311, 16484.81
971.4596, 16531.93
973.3881, 16552.47
975.3165, 16571.68
977.2450, 16605.49
979.1735, 16656.66
981.1019, 16721.33
983.0304, 16778.50
984.9589, 16839.27
986.8873, 16919.91
988.8158, 17017.33
990.7443, 17137.66
992.6727, 17316.09
994.6012, 17519.59
996.5297, 17703.78
998.4581, 17858.80
1000.387, 18032.53
1002.315, 18247.69
1004.244, 18507.04
1006.172, 18813.82
1008.100, 19147.81
1010.029, 19512.01
1011.957, 19899.97
1013.886, 20365.94
1015.814, 20922.95
1017.743, 21561.79
1019.671, 22278.31
1021.600, 23087.71
1023.528, 23978.22
1025.457, 24880.81
1027.385, 25934.87
1029.314, 27138.44
1031.242, 28538.59
1033.171, 29760.24
1035.099, 30742.97
1037.027, 31159.75
1038.956, 31093.14
1040.884, 30487.13
1042.813, 29595.42
1044.741, 28352.34
1046.670, 27022.99
1048.598, 25566.82
1050.527, 24043.01
1052.455, 22762.13
1054.384, 21764.58
1056.312, 20909.69
1058.241, 20230.26
1060.169, 19666.53
1062.098, 19221.71
1064.026, 18931.34
1065.954, 18720.40
1067.883, 18543.41
1069.811, 18388.74
1071.740, 18282.15
1073.668, 18255.62
1075.597, 18239.84
1077.525, 18194.79
1079.454, 18144.53
1081.382, 18129.43
1083.311, 18155.55
1085.239, 18189.17
1087.168, 18232.71
1089.096, 18280.00
1091.025, 18327.71
1092.953, 18373.36
1094.881, 18409.51
1096.810, 18430.19
1098.738, 18450.85
1100.667, 18469.66
1102.595, 18497.75
1104.524, 18542.17
1106.452, 18612.30
1108.381, 18678.36
1110.309, 18731.39
1112.238, 18794.14
1114.166, 18887.20
1116.095, 19021.08
1118.023, 19126.15
1119.952, 19182.78
1121.880, 19221.47
1123.808, 19263.49
1125.737, 19310.07
1127.665, 19345.91
1129.594, 19371.13
1131.522, 19376.87
1133.451, 19349.22
1135.379, 19308.26
1137.308, 19288.73
1139.236, 19298.28
1141.165, 19317.96
1143.093, 19362.55
1145.022, 19405.12
1146.950, 19419.39
1148.879, 19403.56
1150.807, 19393.43
1152.735, 19383.69
1154.664, 19387.87
1156.592, 19425.42
1158.521, 19480.08
1160.449, 19516.64
1162.378, 19529.75
1164.306, 19537.95
1166.235, 19542.38
1168.163, 19543.54
1170.092, 19546.35
1172.020, 19555.72
1173.949, 19554.46
1175.877, 19528.88
1177.806, 19505.88
1179.734, 19500.99
1181.662, 19508.94
1183.591, 19521.71
1185.519, 19554.47
1187.448, 19582.15
1189.376, 19579.53
1191.305, 19570.71
1193.233, 19599.94
1195.162, 19672.14
1197.090, 19731.39
1199.019, 19759.80
1200.947, 19781.32
1202.876, 19802.09
1204.804, 19829.97
1206.733, 19866.03
1208.661, 19910.50
1210.589, 19949.22
1212.518, 19982.53
1214.446, 20012.02
1216.375, 20031.43
1218.303, 20031.95
1220.232, 20050.40
1222.160, 20099.37
1224.089, 20158.38
1226.017, 20214.48
1227.946, 20259.96
1229.874, 20306.93
1231.803, 20374.89
1233.731, 20435.29
1235.660, 20462.63
1237.588, 20467.04
1239.516, 20479.01
1241.445, 20498.57
1243.373, 20529.30
1245.302, 20579.46
1247.230, 20637.85
1249.159, 20696.01
1251.087, 20748.45
1253.016, 20806.34
1254.944, 20865.45
1256.873, 20902.09
1258.801, 20905.04
1260.730, 20915.59
1262.658, 20965.71
1264.587, 21023.03
1266.515, 21063.67
1268.443, 21096.21
1270.372, 21134.64
1272.300, 21182.04
1274.229, 21217.70
1276.157, 21241.25
1278.086, 21271.59
1280.014, 21325.90
1281.943, 21398.40
1283.871, 21455.54
1285.800, 21486.70
1287.728, 21522.90
1289.657, 21587.47
1291.585, 21673.95
1293.514, 21734.43
1295.442, 21751.49
1297.370, 21753.12
1299.299, 21773.17
1301.227, 21822.32
1303.156, 21878.65
1305.084, 21935.31
1307.013, 21984.30
1308.941, 22022.06
1310.870, 22043.10
1312.798, 22057.28
1314.727, 22080.86
1316.655, 22121.95
1318.584, 22181.00
1320.512, 22240.17
1322.441, 22284.35
1324.369, 22315.81
1326.298, 22353.45
1328.226, 22412.45
1330.155, 22479.71
1332.083, 22546.95
1334.011, 22605.29
1335.940, 22641.76
1337.868, 22643.19
1339.797, 22649.01
1341.725, 22689.22
1343.654, 22746.36
1345.582, 22798.38
1347.511, 22838.58
1349.439, 22893.64
1351.368, 22955.26
1353.296, 23010.82
1355.225, 23078.21
1357.153, 23153.47
1359.082, 23215.25
1361.010, 23246.70
1362.938, 23277.82
1364.867, 23349.11
1366.795, 23433.68
1368.724, 23470.72
1370.652, 23465.30
1372.581, 23486.44
1374.509, 23568.12
1376.438, 23654.49
1378.366, 23712.83
1380.295, 23755.92
1382.223, 23785.84
1384.152, 23805.35
1386.080, 23834.05
1388.009, 23884.96
1389.937, 23948.03
1391.865, 24019.04
1393.794, 24071.46
1395.722, 24096.61
1397.651, 24102.40
1399.579, 24118.44
1401.508, 24125.03
1403.436, 24155.56
1405.365, 24253.69
1407.293, 24352.75
1409.222, 24382.22
1411.150, 24334.38
1413.079, 24344.50
1415.007, 24474.85
1416.936, 24581.80
1418.864, 24612.46
1420.792, 24619.11
1422.721, 24661.10
1424.649, 24742.69
1426.578, 24804.01
1428.506, 24817.38
1430.435, 24854.72
1432.363, 24961.81
1434.292, 25075.88
1436.220, 25123.50
1438.149, 25111.01
1440.077, 25129.15
1442.006, 25202.15
1443.934, 25266.15
1445.863, 25283.67
1447.791, 25292.65
1449.719, 25342.27
1451.648, 25435.16
1453.576, 25527.02
1455.505, 25624.27
1457.433, 25693.49
1459.362, 25704.22
1461.290, 25686.85
1463.219, 25688.03
1465.147, 25710.21
1467.076, 25739.66
1469.004, 25769.59
1470.933, 25815.21
1472.861, 25888.60
1474.790, 25967.17
1476.718, 26029.07
1478.646, 26072.33
1480.575, 26128.76
1482.503, 26210.61
1484.432, 26282.50
1486.360, 26328.66
1488.289, 26367.51
1490.217, 26429.37
1492.146, 26525.74
1494.074, 26595.91
1496.003, 26610.45
1497.931, 26636.98
1499.860, 26706.23
1501.788, 26792.63
1503.717, 26856.35
1505.645, 26889.87
1507.573, 26928.86
1509.502, 26979.49
1511.430, 27030.09
1513.359, 27075.61
1515.287, 27117.84
1517.216, 27154.84
1519.144, 27188.56
1521.073, 27246.48
1523.001, 27336.55
1524.930, 27436.80
1526.858, 27579.43
1528.787, 27699.26
1530.715, 27713.58
1532.644, 27649.97
1534.572, 27646.91
1536.500, 27731.68
1538.429, 27810.36
1540.357, 27849.71
1542.286, 27883.98
1544.214, 27932.66
1546.143, 27995.11
1548.071, 28075.40
1550.000, 28179.35
1551.928, 28269.29
1553.857, 28334.30
1555.785, 28388.28
1557.714, 28432.81
1559.642, 28473.23
1561.571, 28516.40
1563.499, 28561.16
1565.427, 28619.13
1567.356, 28715.68
1569.284, 28787.41
1571.213, 28769.50
1573.141, 28733.91
1575.070, 28769.91
1576.998, 28875.08
1578.927, 28984.31
1580.855, 29112.28
1582.784, 29205.95
1584.712, 29197.47
1586.641, 29188.08
1588.569, 29278.70
1590.498, 29448.84
1592.426, 29544.72
1594.354, 29530.72
1596.283, 29536.93
1598.211, 29605.10
1600.140, 29684.94
1602.068, 29746.21
1603.997, 29796.66
1605.925, 29872.95
1607.854, 29989.18
1609.782, 30083.91
1611.711, 30142.70
1613.639, 30187.53
1615.568, 30213.20
1617.496, 30238.90
1619.425, 30286.89
1621.353, 30357.59
1623.281, 30425.92
1625.210, 30505.99
1627.138, 30557.11
1629.067, 30523.25
1630.995, 30506.44
1632.924, 30593.45
1634.852, 30749.26
1636.781, 30851.46
1638.709, 30876.51
1640.638, 30919.56
1642.566, 31011.43
1644.495, 31092.76
1646.423, 31130.33
1648.352, 31160.04
1650.280, 31237.73
1652.208, 31363.84
1654.137, 31426.76
1656.065, 31355.98
1657.994, 31352.64
1659.922, 31515.49
1661.851, 31676.80
1663.779, 31715.94
1665.708, 31684.23
1667.636, 31718.13
1669.565, 31842.58
1671.493, 31942.06
1673.422, 31993.48
1675.350, 32044.32
1677.279, 32122.08
1679.207, 32191.28
1681.135, 32193.64
1683.064, 32142.85
1684.992, 32188.70
1686.921, 32386.89
1688.849, 32547.72
1690.778, 32624.12
1692.706, 32692.32
1694.635, 32796.65
1696.563, 32903.10
1698.492, 32954.70
1700.420, 32944.00
1702.349, 32957.93
1704.277, 32999.08
1706.206, 33061.37
1708.134, 33162.20
1710.063, 33263.32
1711.991, 33336.43
1713.919, 33396.27
1715.848, 33479.77
1717.776, 33593.38
1719.705, 33688.58
1721.633, 33752.72
1723.562, 33815.61
1725.490, 33881.91
1727.419, 33952.46
1729.347, 34038.45
1731.276, 34128.80
1733.204, 34175.48
1735.133, 34163.82
1737.061, 34198.33
1738.990, 34323.75
1740.918, 34438.79
1742.846, 34488.07
1744.775, 34532.40
1746.703, 34637.71
1748.632, 34781.09
1750.560, 34860.52
1752.489, 34861.54
1754.417, 34884.18
1756.346, 34947.84
1758.274, 35026.82
1760.203, 35126.19
1762.131, 35223.30
1764.060, 35298.91
1765.988, 35355.95
1767.917, 35395.33
1769.845, 35409.36
1771.773, 35470.50
1773.702, 35626.69
1775.630, 35765.39
1777.559, 35807.62
1779.487, 35837.86
1781.416, 35945.84
1783.344, 36101.20
1785.273, 36209.42
1787.201, 36263.34
1789.130, 36310.71
1791.058, 36348.29
1792.987, 36400.11
1794.915, 36487.76
1796.844, 36582.47
1798.772, 36651.95
1800.700, 36709.71
1802.629, 36803.61
1804.557, 36941.40
1806.486, 37047.97
1808.414, 37095.78
1810.343, 37146.37
1812.271, 37222.43
1814.200, 37302.34
1816.128, 37367.69
1818.057, 37425.54
1819.985, 37492.49
1821.914, 37570.22
1823.842, 37646.52
1825.771, 37706.48
1827.699, 37787.13
1829.627, 37912.10
1831.556, 38038.02
1833.484, 38159.39
1835.413, 38256.64
1837.341, 38275.90
1839.270, 38212.76
1841.198, 38228.09
1843.127, 38366.80
1845.055, 38499.60
1846.984, 38647.88
1848.912, 38750.19
1850.841, 38728.01
1852.769, 38692.65
1854.698, 38776.88
1856.626, 38955.88
1858.554, 39083.38
1860.483, 39148.64
1862.411, 39220.27
1864.340, 39310.37
1866.268, 39396.78
1868.197, 39481.78
1870.125, 39550.96
1872.054, 39569.88
1873.982, 39578.22
1875.911, 39667.31
1877.839, 39827.69
1879.768, 39925.38
1881.696, 39930.32
1883.625, 39952.58
1885.553, 40011.13
1887.481, 40102.51
1889.410, 40256.27
1891.338, 40416.99
1893.267, 40521.47
1895.195, 40585.43
1897.124, 40671.39
1899.052, 40787.84
1900.981, 40861.77
1902.909, 40832.91
1904.838, 40852.59
1906.766, 40988.77
1908.695, 41139.15
1910.623, 41245.42
1912.552, 41329.75
1914.480, 41424.96
1916.408, 41529.40
1918.337, 41617.83
1920.265, 41679.45
1922.194, 41750.68
1924.122, 41844.94
1926.051, 41931.69
1927.979, 42006.48
1929.908, 42068.85
1931.836, 42102.88
1933.765, 42131.75
1935.693, 42201.99
1937.622, 42309.52
1939.550, 42407.96
1941.479, 42494.42
1943.407, 42578.73
1945.335, 42670.29
1947.264, 42744.46
1949.192, 42763.94
1951.121, 42791.03
1953.049, 42885.29
1954.978, 43011.33
1956.906, 43110.64
1958.835, 43184.84
1960.763, 43247.85
1962.692, 43287.83
1964.620, 43358.28
1966.549, 43508.88
1968.477, 43629.64
1970.406, 43659.16
1972.334, 43681.60
1974.262, 43766.43
1976.191, 43878.32
1978.119, 43949.30
1980.048, 43982.19
1981.976, 44056.44
1983.905, 44194.50
1985.833, 44296.94
1987.762, 44334.95
1989.690, 44375.89
1991.619, 44421.38
1993.547, 44494.34
1995.476, 44622.34
1997.404, 44773.61
1999.333, 44925.84
2001.261, 45067.74
2003.189, 45149.76
2005.118, 45167.28
2007.046, 45204.76
2008.975, 45285.87
2010.903, 45348.88
2012.832, 45345.66
2014.760, 45363.54
2016.689, 45438.46
2018.617, 45554.25
2020.546, 45731.96
2022.474, 45928.64
2024.403, 46021.46
2026.331, 45999.64
2028.260, 46046.03
2030.188, 46208.95
2032.116, 46315.54
2034.045, 46289.33
2035.973, 46310.09
2037.902, 46490.65
2039.830, 46658.38
2041.759, 46691.49
2043.687, 46676.98
2045.616, 46706.66
2047.544, 46779.02
2049.473, 46912.80
2051.401, 47108.63
2053.330, 47215.48
2055.258, 47178.96
2057.187, 47180.71
2059.115, 47296.80
2061.043, 47401.02
2062.972, 47408.15
2064.900, 47434.75
2066.829, 47598.91
2068.757, 47816.58
2070.686, 47959.62
2072.614, 48035.74
2074.543, 48097.43
2076.471, 48145.73
2078.400, 48161.64
2080.328, 48104.66
2082.257, 48143.05
2084.185, 48381.43
2086.114, 48589.11
2088.042, 48654.90
2089.970, 48674.66
2091.899, 48677.39
2093.827, 48701.84
2095.756, 48831.84
2097.684, 49032.99
2099.613, 49148.48
2101.541, 49161.18
2103.470, 49198.42
2105.398, 49282.50
2107.327, 49353.16
2109.255, 49374.90
2111.184, 49431.52
2113.112, 49594.18
2115.041, 49738.84
2116.969, 49770.62
2118.897, 49767.04
2120.826, 49800.59
2122.754, 49870.33
2124.683, 49983.71
2126.611, 50135.89
2128.540, 50291.55
2130.468, 50462.59
2132.397, 50537.54
2134.325, 50418.33
2136.254, 50369.27
2138.182, 50486.88
2140.111, 50634.18
2142.039, 50784.80
2143.968, 50909.91
2145.896, 50963.28
2147.824, 50991.48
2149.753, 51072.58
2151.681, 51193.84
2153.610, 51291.60
2155.538, 51365.89
2157.467, 51433.68
2159.395, 51489.82
2161.324, 51584.36
2163.252, 51765.28
2165.181, 51892.05
2167.109, 51871.32
2169.038, 51850.84
2170.966, 51899.30
2172.895, 51976.15
2174.823, 52051.21
2176.751, 52130.10
2178.680, 52224.19
2180.608, 52330.49
2182.537, 52440.49
2184.465, 52555.35
2186.394, 52623.68
2188.322, 52627.80
2190.251, 52692.26
2192.179, 52862.68
2194.108, 53014.71
2196.036, 53107.30
2197.965, 53181.63
2199.893, 53259.31
2201.822, 53320.21
2203.750, 53330.06
2205.678, 53330.97
2207.607, 53381.11
2209.535, 53463.21
2211.464, 53529.98
2213.392, 53582.33
2215.321, 53641.19
2217.249, 53705.99
2219.178, 53789.60
2221.106, 53897.07
2223.035, 54003.84
2224.963, 54095.72
2226.892, 54206.21
2228.820, 54376.56
2230.749, 54528.03
2232.677, 54633.02
2234.605, 54692.54
2236.534, 54679.22
2238.462, 54640.92
2240.391, 54631.26
2242.319, 54653.94
2244.248, 54730.83
2246.176, 54855.05
2248.105, 54957.35
2250.033, 55033.54
2251.962, 55178.93
2253.890, 55442.25
2255.819, 55606.21
2257.747, 55573.89
2259.676, 55537.65
2261.604, 55505.30
2263.532, 55526.63
2265.461, 55672.44
2267.389, 55819.93
2269.318, 55882.33
2271.246, 55908.88
2273.175, 55936.89
2275.103, 55975.58
2277.032, 56050.25
2278.960, 56149.90
2280.889, 56234.92
2282.817, 56304.90
2284.746, 56377.42
2286.674, 56454.51
2288.603, 56528.93
2290.531, 56608.68
2292.459, 56669.70
2294.388, 56676.92
2296.316, 56725.14
2298.245, 56868.68
2300.173, 57003.93
2302.102, 57089.45
2304.030, 57148.61
2305.959, 57155.92
2307.887, 57183.91
2309.816, 57348.04
2311.744, 57557.99
2313.673, 57651.24
2315.601, 57658.00
2317.530, 57675.98
2319.458, 57705.75
2321.386, 57802.79
2323.315, 57975.89
2325.243, 58020.75
2327.172, 57883.45
2329.100, 57900.71
2331.029, 58189.60
2332.957, 58443.98
2334.886, 58613.28
2336.814, 58703.57
2338.743, 58649.54
2340.671, 58608.78
2342.600, 58681.66
2344.528, 58758.69
2346.457, 58731.37
2348.385, 58704.63
2350.313, 58804.68
2352.242, 58955.38
2354.170, 59048.57
2356.099, 59104.40
2358.027, 59177.84
2359.956, 59263.13
2361.884, 59305.65
2363.813, 59295.75
2365.741, 59361.56
2367.670, 59531.82
2369.598, 59617.34
2371.527, 59586.05
2373.455, 59565.63
2375.384, 59562.78
2377.312, 59615.56
2379.240, 59771.51
2381.169, 59921.55
2383.097, 60035.72
2385.026, 60128.79
2386.954, 60197.29
2388.883, 60258.34
2390.811, 60319.93
2392.740, 60382.09
2394.668, 60450.79
2396.597, 60515.68
2398.525, 60552.07
2400.454, 60582.98
2402.382, 60652.07
2404.311, 60751.37
2406.239, 60865.46
2408.167, 60989.48
2410.096, 61057.52
2412.024, 61066.24
2413.953, 61058.37
2415.881, 61026.37
2417.810, 61123.75
2419.738, 61408.47
2421.667, 61550.91
2423.595, 61409.06
2425.524, 61346.59
2427.452, 61466.98
2429.381, 61608.31
2431.309, 61798.51
2433.238, 61912.80
2435.166, 61847.54
2437.094, 61803.96
2439.023, 61897.96
2440.951, 62012.40
2442.880, 62070.61
2444.808, 62116.48
2446.737, 62192.79
2448.665, 62272.91
2450.594, 62308.75
2452.522, 62339.64
2454.451, 62451.01
2456.379, 62598.02
2458.308, 62664.87
2460.236, 62678.66
2462.165, 62717.05
2464.093, 62780.00
2466.021, 62855.08
2467.950, 62942.00
2469.878, 63056.89
2471.807, 63218.80
2473.735, 63287.92
2475.664, 63247.32
2477.592, 63227.37
2479.521, 63237.70
2481.449, 63286.37
2483.378, 63394.70
2485.306, 63484.84
2487.235, 63522.41
2489.163, 63573.88
2491.092, 63647.63
2493.020, 63743.46
2494.948, 63899.18
2496.877, 64008.13
2498.805, 64016.29
2500.734, 63989.14
2502.662, 63889.31
2504.591, 63857.70
2506.519, 64054.91
2508.448, 64267.34
2510.376, 64313.10
2512.305, 64313.96
2514.233, 64381.31
2516.162, 64469.33
2518.090, 64519.86
2520.019, 64565.64
2521.947, 64655.32
2523.875, 64770.26
2525.804, 64902.38
2527.732, 65020.45
2529.661, 65012.35
2531.589, 64920.74
2533.518, 64909.86
2535.446, 64972.67
2537.375, 65105.49
2539.303, 65293.39
2541.232, 65383.14
2543.160, 65368.46
2545.089, 65437.47
2547.017, 65613.79
2548.946, 65679.88
2550.874, 65620.90
2552.802, 65657.81
2554.731, 65821.81
2556.659, 65935.06
2558.588, 65961.48
2560.516, 65987.77
2562.445, 66020.84
2564.373, 66055.71
2566.302, 66092.70
2568.230, 66128.53
2570.159, 66156.70
2572.087, 66203.37
2574.016, 66276.91
2575.944, 66365.47
2577.873, 66480.38
2579.801, 66586.70
2581.729, 66689.72
2583.658, 66759.01
2585.586, 66766.05
2587.515, 66776.32
2589.443, 66790.41
2591.372, 66855.30
2593.300, 67057.00
2595.229, 67225.36
2597.157, 67255.40
2599.086, 67252.09
2601.014, 67244.21
2602.943, 67261.82
2604.871, 67333.79
2606.800, 67421.58
2608.728, 67508.65
2610.656, 67587.17
2612.585, 67635.76
2614.513, 67689.30
2616.442, 67801.93
2618.370, 67911.29
2620.299, 67952.67
2622.227, 67963.55
2624.156, 67956.23
2626.084, 67963.35
2628.013, 68040.61
2629.941, 68140.62
2631.870, 68188.24
2633.798, 68226.26
2635.727, 68329.15
2637.655, 68456.15
2639.583, 68547.28
2641.512, 68618.21
2643.440, 68689.58
2645.369, 68762.84
2647.297, 68848.02
2649.226, 68934.08
2651.154, 68997.81
2653.083, 69042.91
2655.011, 69060.44
2656.940, 69074.02
2658.868, 69147.19
2660.797, 69257.56
2662.725, 69357.35
2664.654, 69436.24
2666.582, 69412.13
2668.510, 69352.70
2670.439, 69520.92
2672.367, 69818.02
2674.296, 69925.45
2676.224, 69875.30
2678.153, 69735.80
2680.081, 69557.91
2682.010, 69627.04
2683.938, 69867.79
2685.867, 69985.27
2687.795, 70011.39
2689.724, 70111.14
2691.652, 70266.88
2693.581, 70395.03
2695.509, 70491.71
2697.438, 70507.82
2699.366, 70469.40
2701.294, 70485.34
2703.223, 70552.38
2705.151, 70646.35
2707.080, 70761.20
2709.008, 70850.71
2710.937, 70924.03
2712.865, 71088.54
2714.794, 71293.77
2716.722, 71279.69
2718.651, 71098.12
2720.579, 71021.32
2722.508, 71039.17
2724.436, 71119.80
2726.365, 71241.99
2728.293, 71246.59
2730.221, 71182.17
2732.150, 71258.13
2734.078, 71435.15
2736.007, 71538.95
2737.935, 71590.99
2739.864, 71716.09
2741.792, 71876.84
2743.721, 71911.72
2745.649, 71855.17
2747.578, 71789.83
2749.506, 71742.07
2751.435, 71811.93
2753.363, 71968.96
2755.292, 72134.27
2757.220, 72293.53
2759.148, 72405.21
2761.077, 72481.32
2763.005, 72549.44
2764.934, 72605.64
2766.862, 72617.48
2768.791, 72623.13
2770.719, 72748.22
2772.648, 72904.45
2774.576, 72903.84
2776.505, 72843.20
2778.433, 72883.72
2780.362, 72986.07
2782.290, 73112.58
2784.219, 73232.39
2786.147, 73313.31
2788.075, 73345.66
2790.004, 73243.03
2791.932, 73156.26
2793.861, 73339.21
2795.789, 73578.66
2797.718, 73582.05
2799.646, 73566.13
2801.575, 73794.18
2803.503, 74027.04
2805.432, 74012.42
2807.360, 73942.74
2809.289, 73978.92
2811.217, 74030.71
2813.146, 74016.33
2815.074, 74022.74
2817.003, 74108.54
2818.931, 74232.81
2820.860, 74415.66
2822.788, 74564.24
2824.717, 74632.25
2826.645, 74658.18
2828.573, 74606.33
2830.502, 74605.16
2832.430, 74767.02
2834.359, 74891.15
2836.287, 74865.27
2838.216, 74898.81
2840.144, 75092.02
2842.073, 75222.27
2844.001, 75169.74
2845.930, 75140.57
2847.858, 75175.34
2849.787, 75221.09
2851.715, 75276.41
2853.644, 75318.36
2855.572, 75322.67
2857.500, 75402.52
2859.429, 75651.37
2861.357, 75750.51
2863.286, 75679.99
2865.214, 75614.47
2867.143, 75564.48
2869.071, 75598.88
2871.000, 75727.90
2872.928, 75848.91
2874.857, 75961.05
2876.785, 75998.52
2878.714, 75987.81
2880.642, 76122.17
2882.571, 76353.90
2884.499, 76449.75
2886.427, 76448.63
2888.356, 76481.68
2890.284, 76528.95
2892.213, 76517.52
2894.141, 76509.91
2896.070, 76661.77
2897.998, 76840.01
2899.927, 76820.27
2901.855, 76749.38
2903.784, 76754.98
2905.712, 76826.84
2907.641, 77037.15
2909.569, 77203.99
2911.498, 77127.71
2913.426, 77050.34
2915.354, 77095.92
2917.283, 77177.16
2919.211, 77296.87
2921.140, 77367.35
2923.068, 77278.60
2924.997, 77284.95
2926.925, 77490.21
2928.854, 77623.91
2930.782, 77579.66
2932.711, 77568.66
2934.639, 77637.13
2936.568, 77690.35
2938.496, 77721.66
2940.425, 77761.14
2942.353, 77809.99
2944.281, 77909.73
2946.210, 78064.23
2948.138, 78168.73
2950.067, 78225.41
2951.995, 78218.67
2953.924, 78188.37
2955.852, 78321.87
2957.781, 78523.00
2959.709, 78501.35
2961.638, 78392.60
2963.566, 78457.97
2965.495, 78565.63
2967.423, 78552.94
2969.352, 78512.88
2971.280, 78499.77
2973.208, 78549.92
2975.137, 78741.83
2977.065, 78905.06
2978.994, 78927.61
2980.922, 78930.36
2982.851, 78964.48
2984.779, 78965.30
2986.708, 78875.74
2988.636, 78900.66
2990.565, 79184.45
2992.493, 79345.75
2994.422, 79339.91
2996.350, 79312.23
2998.279, 79269.63
3000.207, 79360.77
3002.135, 79586.58
3004.064, 79637.24
3005.992, 79547.33
3007.921, 79575.70
3009.849, 79662.66
3011.778, 79632.91
3013.706, 79567.12
3015.635, 79589.48
3017.563, 79686.79
3019.492, 79911.48
3021.420, 80115.91
3023.349, 80174.95
3025.277, 80177.61
3027.206, 80099.50
3029.134, 80121.36
3031.063, 80386.13
3032.991, 80558.18
3034.919, 80443.68
3036.848, 80395.13
3038.776, 80482.02
3040.705, 80550.98
3042.633, 80588.30
3044.562, 80656.48
3046.490, 80766.16
3048.419, 80748.16
3050.347, 80627.98
3052.276, 80728.05
3054.204, 80948.16
3056.133, 81002.42
3058.061, 80968.08
3059.990, 80965.33
3061.918, 80983.19
3063.846, 80969.43
3065.775, 81023.81
3067.703, 81360.56
3069.632, 81583.45
3071.560, 81330.59
3073.489, 81166.82
3075.417, 81270.43
3077.346, 81408.48
3079.274, 81587.97
3081.203, 81617.41
3083.131, 81452.20
3085.060, 81485.09
3086.988, 81729.54
3088.917, 81795.77
3090.845, 81711.77
3092.773, 81752.62
3094.702, 81862.63
3096.630, 81844.57
3098.559, 81824.09
3100.487, 82023.34
3102.416, 82266.64
3104.344, 82423.88
3106.273, 82484.56
3108.201, 82353.98
3110.130, 82272.45
3112.058, 82375.87
3113.987, 82472.48
3115.915, 82531.14
3117.844, 82586.56
3119.772, 82649.27
3121.700, 82663.22
3123.629, 82620.26
3125.557, 82704.23
3127.486, 82875.35
3129.414, 82970.83
3131.343, 82998.78
3133.271, 82930.83
3135.200, 82858.13
3137.128, 82916.32
3139.057, 83003.35
3140.985, 83037.16
3142.914, 83083.23
3144.842, 83175.78
3146.771, 83283.29
3148.699, 83408.15
3150.627, 83513.14
3152.556, 83586.17
3154.484, 83663.05
3156.413, 83742.17
3158.341, 83721.50
3160.270, 83635.91
3162.198, 83726.85
3164.127, 83884.27
3166.055, 83791.60
3167.984, 83661.50
3169.912, 83741.50
3171.841, 83887.02
3173.769, 84036.02
3175.698, 84134.99
3177.626, 84143.52
3179.554, 84159.08
3181.483, 84219.88
3183.411, 84265.91
3185.340, 84292.08
3187.268, 84359.63
3189.197, 84462.14
3191.125, 84472.73
3193.054, 84437.16
3194.982, 84525.59
3196.911, 84655.85
3198.839, 84715.93
3200.768, 84757.52
3202.696, 84829.84
3204.625, 84888.53
3206.553, 84885.91
3208.481, 84942.81
3210.410, 85176.17
3212.338, 85292.42
3214.267, 85270.18
3216.195, 85235.34
3218.124, 85199.27
3220.052, 85191.35
3221.981, 85209.40
3223.909, 85247.93
3225.838, 85307.55
3227.766, 85390.88
3229.695, 85489.64
3231.623, 85653.11
3233.552, 85723.82
3235.480, 85594.01
3237.408, 85523.43
3239.337, 85606.06
3241.265, 85713.50
3243.194, 85844.47
3245.122, 85947.63
3247.051, 86012.75
3248.979, 85967.79
3250.908, 85898.05
3252.836, 85996.71
3254.765, 86137.85
3256.693, 86245.48
3258.622, 86293.02
3260.550, 86217.38
3262.479, 86185.49
3264.407, 86229.97
3266.335, 86352.36
3268.264, 86577.36
3270.192, 86742.62
3272.121, 86835.56
3274.049, 86737.55
3275.978, 86563.40
3277.906, 86493.02
3279.835, 86546.88
3281.763, 86836.84
3283.692, 87086.80
3285.620, 87134.83
3287.549, 87113.69
3289.477, 87020.82
3291.406, 87033.66
3293.334, 87192.06
3295.262, 87333.94
3297.191, 87447.81
3299.119, 87424.11
3301.048, 87356.76
3302.976, 87375.94
3304.905, 87473.83
3306.833, 87705.25
3308.762, 87904.84
3310.690, 88016.29
3312.619, 88037.06
3314.547, 87918.05
3316.476, 87990.16
3318.404, 88252.90
3320.333, 88400.36
3322.261, 88454.33
3324.189, 88480.60
3326.118, 88504.74
3328.046, 88536.27
3329.975, 88609.96
3331.903, 88789.53
3333.832, 88938.13
3335.760, 89007.79
3337.689, 89132.30
3339.617, 89361.32
3341.546, 89385.33
3343.474, 89267.38
3345.403, 89256.88
3347.331, 89336.97
3349.260, 89534.48
3351.188, 89728.34
3353.116, 89788.64
3355.045, 89911.85
3356.973, 90263.88
3358.902, 90484.84
3360.830, 90539.95
3362.759, 90668.28
3364.687, 90869.68
3366.616, 91052.94
3368.544, 91225.28
3370.473, 91390.91
3372.401, 91567.77
3374.330, 91780.42
3376.258, 91989.77
3378.187, 92173.23
3380.115, 92395.83
3382.043, 92685.52
3383.972, 92938.05
3385.900, 93156.83
3387.829, 93315.36
3389.757, 93497.86
3391.686, 93847.00
3393.614, 94289.98
3395.543, 94874.06
3397.471, 95304.42
3399.400, 95342.95
3401.328, 95469.28
3403.257, 95708.19
3405.185, 96178.48
3407.114, 96782.58
3409.042, 97110.23
3410.970, 97347.87
3412.899, 97739.40
3414.827, 98151.77
3416.756, 98547.87
3418.684, 98824.63
3420.613, 98925.57
3422.541, 99211.93
3424.470, 99707.76
3426.398, 99944.56
3428.327, 100020.2
3430.255, 100110.6
3432.184, 100253.6
3434.112, 100598.0
3436.041, 100792.2
3437.969, 100610.7
3439.897, 100621.8
3441.826, 100965.8
3443.754, 101025.6
3445.683, 100908.7
3447.611, 101112.4
3449.540, 101414.6
3451.468, 101507.0
3453.397, 101531.7
3455.325, 101485.4
3457.254, 101570.5
3459.182, 101845.6
3461.111, 102057.2
3463.039, 102193.3
3464.968, 102342.3
3466.896, 102465.7
3468.824, 102452.5
3470.753, 102423.6
3472.681, 102490.8
3474.610, 102515.1
3476.538, 102468.6
3478.467, 102352.7
3480.395, 102167.6
3482.324, 102035.6
3484.252, 101865.4
3486.181, 101371.1
3488.109, 100837.2
3490.038, 100496.1
3491.966, 100241.9
3493.895, 100087.7
3495.823, 99785.29
3497.751, 99294.09
3499.680, 99052.73
3501.608, 98949.66
3503.537, 98727.48
3505.465, 98461.90
3507.394, 98181.38
3509.322, 97966.61
3511.251, 97849.90
3513.179, 97814.09
3515.108, 97852.53
3517.036, 97792.47
3518.965, 97739.25
3520.893, 97942.84
3522.822, 98312.91
3524.750, 98790.90
3526.678, 99338.23
3528.607, 99896.31
3530.535, 100660.8
3532.464, 101638.2
3534.392, 102736.6
3536.321, 103981.8
3538.249, 105381.7
3540.178, 107083.2
3542.106, 109257.0
3544.035, 111624.7
3545.963, 114107.2
3547.892, 116837.4
3549.820, 119772.5
3551.749, 122602.1
3553.677, 125127.1
3555.605, 127063.2
3557.534, 128532.0
3559.462, 129411.7
3561.391, 130174.6
3563.319, 130883.3
3565.248, 131421.2
3567.176, 131869.2
3569.105, 132559.3
3571.033, 133478.0
3572.962, 134575.5
3574.890, 135978.5
3576.819, 137759.4
3578.747, 139637.9
3580.676, 141577.7
3582.604, 143686.8
3584.532, 145897.5
3586.461, 148080.0
3588.389, 150237.4
3590.318, 152533.8
3592.246, 154399.6
3594.175, 155623.8
3596.103, 157001.1
3598.032, 158467.4
3599.960, 159399.9
3601.889, 159678.5
3603.817, 159244.5
3605.746, 157781.5
3607.674, 155070.5
3609.603, 151970.2
3611.531, 148601.3
3613.459, 145227.9
3615.388, 141836.0
3617.316, 138120.6
3619.245, 134807.2
3621.173, 132317.5
3623.102, 130512.0
3625.030, 129299.1
3626.959, 129310.0
3628.887, 130493.9
3630.816, 133260.8
3632.744, 135973.1
3634.673, 137337.1
3636.601, 136903.9
3638.530, 133909.6
3640.458, 131084.5
3642.386, 128583.3
3644.315, 126578.0
3646.243, 124320.6
3648.172, 120629.3
3650.100, 116250.8
3652.029, 111033.1
3653.957, 106992.2
3655.886, 104304.8
3657.814, 101998.9
3659.743, 99975.16
3661.671, 97979.54
3663.600, 96340.38
3665.528, 95270.01
3667.457, 94371.47
3669.385, 93565.23
3671.313, 92918.41
3673.242, 92435.20
3675.170, 92178.32
3677.099, 91929.12
3679.027, 91453.61
3680.956, 91196.88
3682.884, 91377.61
3684.813, 91288.25
3686.741, 91015.67
3688.670, 90764.03
3690.598, 90608.81
3692.527, 90648.90
3694.455, 90703.08
3696.384, 90738.11
3698.312, 90694.16
3700.240, 90598.40
3702.169, 90503.77
3704.097, 90481.05
3706.026, 90667.59
3707.954, 90767.21
3709.883, 90673.62
3711.811, 90521.13
3713.740, 90353.45
3715.668, 90324.39
3717.597, 90349.03
3719.525, 90395.51
3721.454, 90349.62
3723.382, 90121.14
3725.311, 90157.18
3727.239, 90345.27
3729.167, 90241.23
3731.096, 90087.16
3733.024, 90091.34
3734.953, 90128.26
3736.881, 90188.09
3738.810, 90113.89
3740.738, 89985.80
3742.667, 90096.64
3744.595, 90217.58
3746.524, 90123.66
3748.452, 90128.64
3750.381, 90318.33
3752.309, 90320.54
3754.238, 90224.89
3756.166, 90337.13
3758.094, 90337.66
3760.023, 89900.32
3761.951, 89678.65
3763.880, 89789.95
3765.808, 89946.48
3767.737, 90095.89
3769.665, 90162.52
3771.594, 90153.09
3773.522, 90052.04
3775.451, 89949.78
3777.379, 89858.27
3779.308, 89769.47
3781.236, 89733.44
3783.165, 89838.39
3785.093, 89952.45
3787.021, 90048.81
3788.950, 89981.66
3790.878, 89814.30
3792.807, 89967.11
3794.735, 90123.53
3796.664, 89937.69
3798.592, 89818.04
3800.521, 89845.12
3802.449, 89836.01
3804.378, 89788.36
3806.306, 89666.41
3808.235, 89604.40
3810.163, 89761.54
3812.092, 89787.39
3814.020, 89670.49
3815.948, 89706.73
3817.877, 89750.97
3819.805, 89459.87
3821.734, 89303.22
3823.662, 89566.55
3825.591, 89657.80
3827.519, 89622.20
3829.448, 89726.68
3831.376, 89807.24
3833.305, 89699.32
3835.233, 89601.05
3837.162, 89546.34
3839.090, 89693.74
3841.019, 89861.54
3842.947, 89643.63
3844.875, 89466.73
3846.804, 89518.18
3848.732, 89578.55
3850.661, 89626.98
3852.589, 89729.09
3854.518, 89780.17
3856.446, 89644.60
3858.375, 89527.01
3860.303, 89455.83
3862.232, 89343.27
3864.160, 89209.78
3866.089, 89089.21
3868.017, 88989.46
3869.946, 88920.55
3871.874, 88863.05
3873.802, 88814.45
3875.731, 88760.84
3877.659, 88694.64
3879.588, 88603.41
3881.516, 88516.34
3883.445, 88444.27
3885.373, 88354.39
3887.302, 88246.98
3889.230, 88094.23
3891.159, 87951.20
3893.087, 87855.73
3895.016, 87723.78
3896.944, 87593.76
3898.873, 87657.36
3900.801, 87749.37
3902.729, 87751.09
3904.658, 87588.73
3906.586, 87271.48
3908.515, 87131.23
3910.443, 87063.75
3912.372, 86976.48
3914.300, 86998.59
3916.229, 87150.66
3918.157, 87020.52
3920.086, 86716.23
3922.014, 86588.39
3923.943, 86559.82
3925.871, 86594.88
3927.800, 86546.38
3929.728, 86411.42
3931.656, 86195.16
3933.585, 86067.37
3935.513, 86202.13
3937.442, 86262.55
3939.370, 86191.32
3941.299, 85974.27
3943.227, 85760.77
3945.156, 85666.01
3947.084, 85556.31
3949.013, 85326.98
3950.941, 85322.18
3952.870, 85455.11
3954.798, 85402.17
3956.727, 85319.71
3958.655, 85257.71
3960.583, 85186.44
3962.512, 85121.85
3964.440, 85000.34
3966.369, 84872.46
3968.297, 84864.91
3970.226, 84802.61
3972.154, 84677.23
3974.083, 84629.17
3976.011, 84551.22
3977.940, 84340.10
3979.868, 84162.73
3981.797, 84110.28
3983.725, 84068.71
3985.654, 84004.04
3987.582, 84074.13
3989.510, 83984.33
3991.439, 83698.79
3993.367, 83628.98
3995.296, 83646.92
3997.224, 83647.05
3999.153, 83553.64
4001.081, 83460.40
4003.010, 83345.06
4004.938, 83248.16
4006.867, 83212.55
4008.795, 83134.59
4010.724, 83082.95
4012.652, 83001.38
4014.581, 82911.25
4016.509, 82951.78
4018.438, 82939.98
4020.366, 82714.35
4022.294, 82561.77
4024.223, 82486.73
4026.151, 82452.16
4028.080, 82363.02
4030.008, 82216.07
4031.937, 82180.85
4033.865, 82166.23
4035.794, 82028.82
4037.722, 81906.80
4039.651, 81866.17
4041.579, 81822.45
4043.508, 81754.08
4045.436, 81669.72
4047.365, 81613.99
4049.293, 81600.00
4051.221, 81511.40
4053.150, 81407.40
4055.078, 81457.80
4057.007, 81426.80
4058.935, 81215.84
4060.864, 81102.42
4062.792, 81062.24
4064.721, 81016.47
4066.649, 80964.93
4068.578, 80908.41
4070.506, 80836.61
4072.435, 80746.86
4074.363, 80654.63
4076.292, 80601.20
4078.220, 80618.48
4080.148, 80588.55
4082.077, 80497.45
4084.005, 80360.42
4085.934, 80284.14
4087.862, 80365.84
4089.791, 80325.24
4091.719, 80192.59
4093.648, 80151.75
4095.576, 80112.84
4097.505, 80044.83
4099.433, 79995.22
4101.362, 79920.79
4103.290, 79851.02
4105.219, 79766.30
4107.147, 79512.19
4109.076, 79445.99
4111.004, 79584.23
4112.933, 79501.81
4114.861, 79343.78
4116.790, 79252.52
4118.718, 79180.33
4120.646, 79022.61
4122.575, 78873.51
4124.503, 78825.86
4126.432, 78886.84
4128.360, 78848.21
4130.289, 78569.09
4132.217, 78445.46
4134.146, 78475.54
4136.074, 78482.57
4138.002, 78452.91
4139.931, 78392.78
4141.859, 78279.59
4143.788, 78181.18
4145.716, 78192.46
4147.645, 78177.63
4149.573, 77980.44
4151.502, 77923.64
4153.430, 78020.23
4155.359, 77882.89
4157.287, 77708.63
4159.216, 77607.82
4161.144, 77616.70
4163.073, 77713.29
4165.001, 77508.41
4166.930, 77304.59
4168.858, 77295.48
4170.787, 77344.86
4172.715, 77506.03
4174.644, 77346.32
4176.572, 77095.91
4178.500, 77078.53
4180.429, 77042.84
4182.357, 76972.24
4184.286, 76977.72
4186.214, 76966.41
4188.143, 76979.38
4190.071, 76985.33
4192.000, 76949.64
4193.928, 76845.51
4195.856, 76772.48
4197.785, 76768.66
4199.713, 76727.38
4201.642, 76684.62
4203.570, 76640.18
4205.499, 76588.36
4207.427, 76552.70
4209.356, 76467.44
4211.284, 76352.77
4213.213, 76301.57
4215.141, 76286.53
4217.070, 76277.74
4218.998, 76358.67
4220.927, 76475.16
4222.855, 76332.09
4224.784, 76169.24
4226.712, 76139.17
4228.641, 76137.87
4230.569, 76130.62
4232.498, 76006.26
4234.426, 75959.06
4236.354, 76155.48
4238.283, 76118.38
4240.211, 75959.70
4242.140, 75902.43
4244.068, 75936.37
4245.997, 76089.37
4247.925, 76066.56
4249.854, 76022.20
4251.782, 76194.85
4253.710, 76333.96
4255.639, 76371.55
4257.567, 76429.93
4259.496, 76467.64
4261.424, 76416.31
4263.353, 76364.34
4265.281, 76334.45
4267.210, 76418.94
4269.138, 76536.39
4271.067, 76655.10
4272.995, 76638.97
4274.924, 76509.91
4276.852, 76438.49
4278.781, 76430.17
4280.709, 76541.12
4282.638, 76543.28
4284.566, 76467.60
4286.495, 76403.75
4288.423, 76393.00
4290.352, 76487.09
4292.280, 76507.93
4294.208, 76494.59
4296.137, 76539.14
4298.065, 76517.02
4299.994, 76383.67
4301.922, 76416.46
4303.851, 76470.59
4305.779, 76365.27
4307.708, 76258.61
4309.636, 76167.43
4311.564, 75955.25
4313.493, 75921.58
4315.421, 76442.73
4317.350, 76503.20
4319.278, 76237.12
4321.207, 76289.68
4323.135, 76338.13
4325.064, 76247.27
4326.992, 76229.70
4328.921, 76255.13
4330.849, 76287.42
4332.778, 76271.96
4334.706, 76201.80
4336.635, 76279.54
4338.563, 76352.47
4340.492, 76302.08
4342.420, 76149.34
4344.349, 75947.34
4346.277, 75859.38
4348.206, 75883.78
4350.134, 76029.96
4352.063, 76058.50
4353.991, 76012.97
4355.919, 75947.27
4357.848, 76001.34
4359.776, 76171.59
4361.705, 76067.58
4363.633, 75915.09
4365.562, 75917.05
4367.490, 75942.20
4369.418, 75990.36
4371.347, 76144.06
4373.275, 76242.23
4375.204, 76210.16
4377.132, 76033.96
4379.061, 75836.82
4380.989, 75829.56
4382.918, 75807.82
4384.846, 75744.70
4386.775, 75823.84
4388.703, 75941.36
4390.632, 76043.27
4392.560, 76084.13
4394.489, 76050.09
4396.417, 75861.43
4398.346, 75688.21
4400.274, 75579.55
4402.203, 75837.32
4404.131, 76070.80
4406.060, 75850.37
4407.988, 75699.53
4409.917, 75674.35
4411.845, 75743.18
4413.773, 75820.13
4415.702, 75867.60
4417.630, 76008.47
4419.559, 76129.28
4421.487, 76051.57
4423.416, 75961.27
4425.344, 75899.29
4427.272, 75952.68
4429.201, 75975.91
4431.129, 75860.05
4433.058, 75765.16
4434.986, 75709.27
4436.915, 75684.47
4438.843, 75861.95
4440.772, 76229.09
4442.700, 76005.85
4444.629, 75804.24
4446.557, 76001.05
4448.486, 76012.07
4450.414, 75944.46
4452.343, 76131.65
4454.271, 76192.16
4456.200, 76072.11
4458.128, 75998.34
4460.057, 75916.88
4461.985, 75719.80
4463.914, 75776.04
4465.842, 75964.87
4467.771, 76078.00
4469.699, 76060.68
4471.627, 75923.89
4473.556, 76155.71
4475.484, 76304.77
4477.413, 76078.27
4479.341, 76076.48
4481.270, 76153.56
4483.198, 75918.45
4485.126, 75924.69
4487.055, 76167.14
4488.983, 76045.21
4490.912, 75872.18
4492.840, 75802.55
4494.769, 75988.88
4496.697, 76195.28
4498.626, 75980.11
4500.554, 75936.90
4502.483, 76076.02
4504.411, 76007.70
4506.340, 75921.69
4508.268, 75889.48
4510.197, 76017.15
4512.125, 76142.86
4514.054, 76083.09
4515.982, 76039.15
4517.911, 76017.46
4519.839, 75958.33
4521.768, 75927.05
4523.696, 75944.93
4525.625, 76024.27
4527.553, 76107.00
4529.481, 76172.92
4531.410, 76031.07
4533.338, 75835.02
4535.267, 75888.08
4537.195, 75925.49
4539.124, 75920.95
4541.052, 76021.11
4542.980, 76083.05
4544.909, 76027.39
4546.837, 76016.70
4548.766, 76020.87
4550.694, 75999.91
4552.623, 75981.59
4554.551, 75987.58
4556.480, 76105.72
4558.408, 76173.62
4560.337, 76153.27
4562.265, 75984.23
4564.194, 75909.66
4566.122, 76110.34
4568.051, 76041.47
4569.979, 75904.34
4571.908, 76032.45
4573.836, 76104.77
4575.765, 76108.25
4577.693, 76112.91
4579.622, 76096.62
4581.550, 76066.57
4583.479, 76198.97
4585.407, 76321.64
4587.335, 76326.44
4589.264, 76293.46
4591.192, 76227.27
4593.121, 76078.80
4595.049, 76074.96
4596.978, 76169.70
4598.906, 76165.94
4600.834, 76060.95
4602.763, 75894.26
4604.691, 76031.92
4606.620, 76137.34
4608.548, 75995.47
4610.477, 75908.20
4612.405, 75935.47
4614.334, 76238.28
4616.262, 76222.22
4618.191, 76009.21
4620.119, 75988.30
4622.048, 75964.32
4623.976, 75916.32
4625.905, 75972.96
4627.833, 75984.00
4629.762, 75858.83
4631.690, 76075.05
4633.619, 76271.63
4635.547, 76160.91
4637.476, 75924.79
4639.404, 75738.84
4641.333, 75912.32
4643.261, 75844.77
4645.189, 75647.47
4647.118, 75934.41
4649.046, 76061.85
4650.975, 75899.38
4652.903, 75935.65
4654.832, 75990.96
4656.760, 75988.70
4658.688, 75834.02
4660.617, 75726.58
4662.545, 75884.41
4664.474, 75916.63
4666.402, 75839.32
4668.331, 75611.53
4670.259, 75719.82
4672.188, 76011.35
4674.116, 75916.84
4676.045, 75813.30
4677.973, 75768.46
4679.902, 75624.02
4681.830, 75609.89
4683.759, 75841.13
4685.687, 75747.53
4687.616, 75615.17
4689.544, 75607.75
4691.473, 75650.71
4693.401, 75716.98
4695.330, 75815.90
4697.258, 75798.55
4699.187, 75723.40
4701.115, 75738.88
4703.043, 75559.10
4704.972, 75282.79
4706.900, 75322.52
4708.829, 75428.98
4710.757, 75521.34
4712.686, 75492.80
4714.614, 75443.35
4716.542, 75411.79
4718.471, 75532.12
4720.399, 75699.32
4722.328, 75862.50
4724.256, 75686.84
4726.185, 75472.17
4728.113, 75537.92
4730.042, 75481.51
4731.970, 75379.70
4733.899, 75329.46
4735.827, 75422.84
4737.756, 75524.59
4739.684, 75314.30
4741.613, 75246.20
4743.541, 75338.38
4745.470, 75493.08
4747.398, 75468.93
4749.327, 75286.34
4751.255, 75265.03
4753.184, 75208.37
4755.112, 75064.88
4757.041, 75240.23
4758.969, 75292.61
4760.897, 75047.98
4762.826, 74964.91
4764.754, 75019.55
4766.683, 75217.15
4768.611, 75312.41
4770.540, 75233.25
4772.468, 74877.59
4774.396, 74821.90
4776.325, 74917.21
4778.253, 75014.94
4780.182, 74904.89
4782.110, 74721.67
4784.039, 74685.47
4785.967, 74670.02
4787.896, 74694.11
4789.824, 74913.93
4791.753, 74865.59
4793.681, 74643.76
4795.610, 74749.29
4797.538, 74774.67
4799.467, 74687.43
4801.395, 74675.23
4803.324, 74632.78
4805.252, 74550.31
4807.181, 74536.73
4809.109, 74530.20
4811.038, 74496.73
4812.966, 74247.64
4814.895, 74080.91
4816.823, 74112.77
4818.751, 74365.72
4820.680, 74457.91
4822.608, 74230.93
4824.537, 74217.89
4826.465, 74231.75
4828.394, 74162.88
4830.322, 74061.46
4832.250, 74010.73
4834.179, 74067.77
4836.107, 73873.81
4838.036, 73731.05
4839.964, 73890.91
4841.893, 74087.14
4843.821, 74121.27
4845.750, 73813.38
4847.678, 73663.51
4849.607, 73617.83
4851.535, 73622.30
4853.464, 73538.53
4855.392, 73456.64
4857.321, 73474.62
4859.249, 73540.34
4861.178, 73552.57
4863.106, 73331.34
4865.035, 73356.36
4866.963, 73478.77
4868.892, 73501.38
4870.820, 73444.55
4872.749, 73369.59
4874.677, 73362.68
4876.605, 73284.48
4878.534, 73247.75
4880.462, 73482.57
4882.391, 73279.37
4884.319, 72930.17
4886.248, 73001.21
4888.176, 72949.78
4890.104, 72861.47
4892.033, 72915.98
4893.961, 73052.85
4895.890, 73140.98
4897.818, 72976.33
4899.747, 72814.92
4901.675, 72705.46
4903.604, 72673.40
4905.532, 72780.11
4907.461, 72862.33
4909.389, 72651.70
4911.318, 72629.69
4913.246, 72684.55
4915.175, 72591.11
4917.103, 72541.81
4919.032, 72548.92
4920.960, 72628.99
4922.889, 72583.01
4924.817, 72460.76
4926.746, 72329.86
4928.674, 72190.88
4930.603, 72150.90
4932.531, 72368.88
4934.459, 72241.29
4936.388, 72066.01
4938.316, 72232.70
4940.245, 72042.04
4942.173, 71820.28
4944.102, 71904.15
4946.030, 71973.33
4947.958, 71962.16
4949.887, 71829.05
4951.815, 71672.49
4953.744, 71524.70
4955.672, 71382.85
4957.601, 71456.67
4959.529, 71446.03
4961.458, 71198.09
4963.386, 71285.41
4965.315, 71408.21
4967.243, 71395.46
4969.172, 71255.27
4971.100, 71140.59
4973.029, 71109.38
4974.957, 70954.41
4976.886, 70859.53
4978.814, 70884.36
4980.743, 71066.12
4982.671, 71038.09
4984.600, 70766.39
4986.528, 70739.50
4988.457, 70599.34
4990.385, 70375.43
4992.313, 70473.78
4994.242, 70583.40
4996.170, 70640.77
4998.099, 70660.22
5000.027, 70586.81
5001.956, 70454.65
5003.884, 70325.76
5005.813, 70284.16
5007.741, 70265.01
5009.669, 70130.98
5011.598, 70144.64
5013.526, 70183.42
5015.455, 70101.77
5017.383, 69975.67
5019.312, 69887.03
5021.240, 69896.89
5023.169, 69925.93
5025.097, 69899.28
5027.026, 69766.88
5028.954, 69682.50
5030.883, 69582.64
5032.811, 69446.40
5034.740, 69266.41
5036.668, 69255.91
5038.597, 69415.25
5040.525, 69345.66
5042.454, 69221.56
5044.382, 69101.58
5046.311, 69017.04
5048.239, 68977.53
5050.167, 68980.22
5052.096, 69070.09
5054.024, 68960.15
5055.953, 68769.23
5057.881, 68678.54
5059.810, 68555.95
5061.738, 68450.28
5063.667, 68409.32
5065.595, 68337.72
5067.523, 68350.86
5069.452, 68532.65
5071.380, 68427.91
5073.309, 68301.75
5075.237, 68247.52
5077.166, 68175.73
5079.094, 68171.38
5081.023, 68207.58
5082.951, 68132.80
5084.880, 68082.02
5086.808, 68024.16
5088.737, 67851.51
5090.665, 67634.27
5092.594, 67534.94
5094.522, 67750.24
5096.451, 67635.91
5098.379, 67344.55
5100.308, 66973.05
5102.236, 67027.03
5104.165, 67076.77
5106.093, 66980.07
5108.021, 67107.46
5109.950, 67043.60
5111.878, 66785.33
5113.807, 66632.59
5115.735, 66625.48
5117.664, 66675.92
5119.592, 66629.55
5121.521, 66573.09
5123.449, 66510.52
5125.377, 66438.59
5127.306, 66213.61
5129.234, 66106.83
5131.163, 66283.15
5133.091, 65971.10
5135.020, 65892.03
5136.948, 66136.57
5138.877, 65999.20
5140.805, 65859.07
5142.734, 65772.95
5144.662, 65664.19
5146.591, 65820.45
5148.519, 65969.86
5150.448, 65789.14
5152.376, 65603.01
5154.305, 65531.37
5156.233, 65598.57
5158.162, 65428.28
5160.090, 65343.79
5162.019, 65373.92
5163.947, 65074.48
5165.875, 65092.56
5167.804, 65262.03
5169.732, 65078.45
5171.661, 65074.65
5173.589, 65113.36
5175.518, 65028.53
5177.446, 64878.60
5179.375, 64785.09
5181.303, 64790.05
5183.231, 64779.50
5185.160, 64666.13
5187.088, 64488.43
5189.017, 64380.12
5190.945, 64300.20
5192.874, 64277.29
5194.802, 64390.67
5196.731, 64230.61
5198.659, 64093.97
5200.588, 64145.67
5202.516, 64188.94
5204.445, 64254.31
5206.373, 64273.07
5208.302, 63971.48
5210.230, 63760.63
5212.159, 63672.71
5214.087, 63719.68
5216.016, 63657.39
5217.944, 63577.73
5219.873, 63535.56
5221.801, 63482.13
5223.729, 63422.20
5225.658, 63362.54
5227.586, 63357.74
5229.515, 63133.61
5231.443, 62897.19
5233.372, 62958.90
5235.300, 63040.42
5237.229, 63028.93
5239.157, 62898.73
5241.085, 62880.64
5243.014, 62871.07
5244.942, 62795.21
5246.871, 62467.34
5248.799, 62436.25
5250.728, 62477.05
5252.656, 62312.77
5254.585, 62274.72
5256.513, 62264.07
5258.442, 62222.25
5260.370, 62071.11
5262.299, 62018.14
5264.227, 62013.13
5266.156, 61894.55
5268.084, 61809.24
5270.013, 61803.89
5271.941, 61893.88
5273.870, 61786.67
5275.798, 61642.45
5277.727, 61516.36
5279.655, 61401.45
5281.583, 61399.61
5283.512, 61438.67
5285.440, 61453.63
5287.369, 61358.29
5289.297, 61158.72
5291.226, 60908.34
5293.154, 60819.94
5295.083, 60884.38
5297.011, 60960.60
5298.939, 60856.81
5300.868, 60863.13
5302.796, 60839.10
5304.725, 60699.52
5306.653, 60434.10
5308.582, 60294.81
5310.510, 60272.34
5312.439, 60250.11
5314.367, 60285.91
5316.296, 60154.78
5318.224, 59766.97
5320.153, 59771.18
5322.081, 59826.84
5324.010, 59842.63
5325.938, 59883.07
5327.867, 59732.21
5329.795, 59494.20
5331.724, 59285.64
5333.652, 59552.22
5335.581, 59534.85
5337.509, 59225.89
5339.438, 59127.81
5341.366, 59071.75
5343.294, 59033.57
5345.223, 59011.95
5347.151, 58846.75
5349.080, 58687.42
5351.008, 58585.93
5352.937, 58563.26
5354.865, 58498.53
5356.793, 58425.00
5358.722, 58382.10
5360.650, 58443.20
5362.579, 58462.16
5364.507, 58347.54
5366.436, 57889.48
5368.364, 57824.81
5370.293, 57859.80
5372.221, 57755.42
5374.150, 57630.07
5376.078, 57572.42
5378.007, 57564.08
5379.935, 57561.00
5381.864, 57390.56
5383.792, 57205.09
5385.721, 57101.79
5387.649, 57101.87
5389.578, 57077.20
5391.506, 57016.28
5393.435, 56942.24
5395.363, 56929.28
5397.292, 56867.98
5399.220, 56723.50
5401.148, 56559.00
5403.077, 56466.62
5405.005, 56389.67
5406.934, 56227.69
5408.862, 56263.63
5410.791, 56254.08
5412.719, 56139.82
5414.647, 55980.04
5416.576, 55941.34
5418.504, 55870.77
5420.433, 55669.54
5422.361, 55652.45
5424.290, 55404.02
5426.218, 55110.98
5428.147, 55310.96
5430.075, 55498.96
5432.004, 55474.09
5433.932, 55224.63
5435.861, 55033.37
5437.789, 54991.86
5439.718, 55018.23
5441.646, 55017.01
5443.575, 54886.21
5445.503, 54746.13
5447.432, 54617.42
5449.360, 54428.12
5451.289, 54395.36
5453.217, 54377.32
5455.146, 54294.59
5457.074, 54197.13
5459.002, 54043.47
5460.931, 53971.13
5462.859, 54105.22
5464.788, 53851.91
5466.716, 53839.57
5468.645, 54004.80
5470.573, 53653.31
5472.501, 53670.88
5474.430, 53610.68
5476.358, 53306.59
5478.287, 53524.88
5480.215, 53368.13
5482.144, 53102.93
5484.072, 53105.60
5486.001, 52946.62
5487.929, 52877.21
5489.858, 52879.39
5491.786, 52793.17
5493.715, 52718.32
5495.643, 52713.71
5497.572, 52743.55
5499.500, 52569.15
5501.429, 52367.24
5503.357, 52226.64
5505.286, 52174.86
5507.214, 51983.41
5509.143, 51858.74
5511.071, 51790.05
5513.000, 51715.28
5514.928, 51703.00
5516.856, 51611.66
5518.785, 51454.67
5520.713, 51343.88
5522.642, 51332.12
5524.570, 51266.19
5526.499, 51132.23
5528.427, 51229.23
5530.355, 50941.05
5532.284, 50717.77
5534.212, 50844.77
5536.141, 50724.59
5538.069, 50539.37
5539.998, 50479.27
5541.926, 50663.67
5543.855, 50342.26
5545.783, 50246.86
5547.712, 50374.67
5549.640, 50405.27
5551.569, 50355.16
5553.497, 50240.55
5555.426, 50088.18
5557.354, 49930.36
5559.283, 49931.32
5561.211, 49777.69
5563.140, 49478.79
5565.068, 49615.75
5566.997, 49627.05
5568.925, 49487.17
5570.854, 49278.26
5572.782, 49360.68
5574.710, 49087.96
5576.639, 48812.66
5578.567, 48880.58
5580.496, 49110.20
5582.424, 48997.89
5584.353, 48751.01
5586.281, 48687.30
5588.209, 48635.02
5590.138, 48515.41
5592.066, 48418.53
5593.995, 48469.62
5595.923, 48390.55
5597.852, 48221.62
5599.780, 48080.79
5601.709, 48135.40
5603.637, 48178.74
5605.566, 48018.11
5607.494, 47725.55
5609.423, 47574.16
5611.351, 47493.79
5613.280, 47475.55
5615.208, 47473.78
5617.137, 47395.61
5619.065, 47229.22
5620.994, 47181.36
5622.922, 47211.86
5624.851, 46944.34
5626.779, 47024.07
5628.708, 46897.01
5630.636, 46470.81
5632.564, 46495.80
5634.493, 46482.82
5636.421, 46383.46
5638.350, 46238.14
5640.278, 46207.29
5642.207, 46156.29
5644.135, 46108.94
5646.063, 46062.14
5647.992, 45922.64
5649.920, 45790.04
5651.849, 45699.14
5653.777, 45651.04
5655.706, 45605.92
5657.634, 45613.74
5659.563, 45561.21
5661.491, 45411.29
5663.420, 45274.29
5665.348, 45108.41
5667.277, 45082.63
5669.205, 45186.66
5671.134, 45012.18
5673.062, 44765.93
5674.991, 44615.76
5676.919, 44576.91
5678.848, 44458.67
5680.776, 44382.79
5682.705, 44345.61
5684.633, 44291.51
5686.562, 44087.57
5688.490, 44098.83
5690.418, 44003.95
5692.347, 43796.15
5694.275, 43861.95
5696.204, 43836.76
5698.132, 43740.18
5700.061, 43594.21
5701.989, 43350.90
5703.917, 43444.86
5705.846, 43340.45
5707.774, 43109.20
5709.703, 43277.08
5711.631, 43144.55
5713.560, 43049.76
5715.488, 43001.83
5717.417, 42861.71
5719.345, 42760.88
5721.274, 42756.18
5723.202, 42721.32
5725.131, 42529.72
5727.059, 42397.29
5728.988, 42384.68
5730.916, 42338.66
5732.845, 42163.36
5734.773, 42226.82
5736.702, 42007.48
5738.630, 41864.86
5740.559, 41998.26
5742.487, 41774.23
5744.416, 41718.37
5746.344, 41773.90
5748.272, 41805.32
5750.201, 41573.68
5752.129, 41411.55
5754.058, 41296.78
5755.986, 41198.73
5757.915, 41100.73
5759.843, 41062.85
5761.771, 41071.30
5763.700, 41024.66
5765.629, 40823.67
5767.557, 40764.75
5769.486, 40668.58
5771.414, 40550.84
5773.343, 40464.07
5775.271, 40416.15
5777.200, 40236.93
5779.128, 40112.25
5781.057, 40124.40
5782.985, 40051.02
5784.914, 39980.17
5786.842, 39964.63
5788.771, 39966.28
5790.699, 39862.77
5792.627, 39672.80
5794.556, 39474.26
5796.484, 39362.85
5798.413, 39417.35
5800.341, 39269.11
5802.270, 39199.63
5804.198, 39140.08
5806.126, 39024.07
5808.055, 39044.73
5809.983, 39122.48
5811.912, 38948.02
5813.840, 38624.50
5815.769, 38714.77
5817.697, 38636.38
5819.626, 38594.02
5821.554, 38583.03
5823.483, 38495.44
5825.411, 38412.03
5827.340, 38280.81
5829.268, 38152.41
5831.197, 38065.91
5833.125, 37978.11
5835.054, 37969.46
5836.982, 37860.24
5838.911, 37657.81
5840.839, 37570.79
5842.768, 37429.73
5844.696, 37229.43
5846.625, 37127.08
5848.553, 37256.95
5850.481, 37264.75
5852.410, 37064.74
5854.338, 36969.38
5856.267, 37070.89
5858.195, 37132.66
5860.124, 36827.57
5862.052, 36733.70
5863.980, 36791.69
5865.909, 36697.73
5867.837, 36567.94
5869.766, 36491.19
5871.694, 36338.04
5873.623, 36131.74
5875.551, 36233.40
5877.480, 36144.59
5879.408, 36066.90
5881.337, 35980.28
5883.265, 35767.43
5885.194, 35799.17
5887.122, 35653.28
5889.051, 35530.92
5890.979, 35554.18
5892.908, 35519.06
5894.836, 35433.34
5896.765, 35302.22
5898.693, 35189.96
5900.622, 35170.30
5902.550, 35171.57
5904.479, 34961.08
5906.407, 34867.00
5908.335, 34930.25
5910.264, 34636.88
5912.192, 34690.08
5914.121, 34754.18
5916.049, 34693.58
5917.978, 34518.88
5919.906, 34522.53
5921.834, 34435.25
5923.763, 34274.11
5925.691, 34143.66
5927.620, 34166.65
5929.548, 34021.05
5931.477, 33915.66
5933.405, 33876.41
5935.334, 33864.84
5937.262, 33826.06
5939.191, 33660.73
5941.119, 33485.14
5943.048, 33388.33
5944.976, 33397.44
5946.905, 33389.63
5948.833, 33208.97
5950.762, 33128.55
5952.690, 33159.86
5954.619, 33049.36
5956.547, 32875.90
5958.476, 32811.88
5960.404, 32799.43
5962.333, 32767.06
5964.261, 32719.90
5966.189, 32483.12
5968.118, 32391.03
5970.046, 32383.06
5971.975, 32285.44
5973.903, 32048.00
5975.832, 32044.42
5977.760, 31971.26
5979.688, 31912.60
5981.617, 32164.07
5983.545, 32053.75
5985.474, 31948.38
5987.402, 31874.77
5989.331, 31775.38
5991.259, 31549.49
5993.188, 31609.81
5995.116, 31449.25
5997.045, 31302.17
5998.973, 31332.41
6000.902, 31387.56
6002.830, 31163.00
6004.759, 30966.44
6006.687, 30860.47
6008.616, 30810.40
6010.544, 30779.40
6012.473, 30818.83
6014.401, 30838.29
6016.330, 30758.57
6018.258, 30583.41
6020.187, 30594.93
6022.115, 30455.97
6024.043, 30422.84
6025.972, 30408.17
6027.900, 30242.54
6029.829, 30194.03
6031.757, 30214.58
6033.686, 30190.65
6035.614, 30021.96
6037.542, 29695.11
6039.471, 29747.98
6041.399, 29781.51
6043.328, 29607.39
6045.256, 29432.09
6047.185, 29521.41
6049.113, 29348.43
6051.042, 29338.14
6052.970, 29337.07
6054.899, 29262.01
6056.827, 29143.40
6058.756, 29176.49
6060.684, 29046.97
6062.613, 28953.13
6064.541, 28870.38
6066.470, 28690.49
6068.398, 28722.71
6070.327, 28559.48
6072.255, 28594.92
6074.184, 28657.71
6076.112, 28438.22
6078.041, 28431.00
6079.969, 28253.79
6081.897, 28199.53
6083.826, 28132.32
6085.754, 27870.28
6087.683, 27807.72
6089.611, 27924.31
6091.540, 27972.70
6093.468, 27919.76
6095.396, 27784.38
6097.325, 27485.56
6099.253, 27568.80
6101.182, 27587.31
6103.110, 27439.54
6105.039, 27261.75
6106.967, 27316.78
6108.896, 27175.30
6110.824, 27065.51
6112.753, 27078.99
6114.681, 27088.37
6116.610, 26840.76
6118.538, 26779.95
6120.467, 26722.28
6122.395, 26671.78
6124.324, 26654.37
6126.252, 26665.29
6128.181, 26596.09
6130.109, 26484.56
6132.038, 26358.58
6133.966, 26271.10
6135.895, 26260.95
6137.823, 26286.12
6139.751, 26213.78
6141.680, 26058.49
6143.608, 25912.41
6145.537, 25846.75
6147.465, 25872.98
6149.394, 25789.92
6151.322, 25723.60
6153.250, 25610.94
6155.179, 25481.54
6157.107, 25451.23
6159.036, 25355.88
6160.964, 25183.95
6162.893, 25199.03
6164.821, 25260.33
6166.750, 25165.57
6168.678, 25161.91
6170.607, 24941.58
6172.535, 24923.82
6174.464, 24905.02
6176.392, 24778.72
6178.321, 24771.31
6180.249, 24652.25
6182.178, 24619.54
6184.106, 24607.56
6186.035, 24547.77
6187.963, 24424.80
6189.892, 24289.32
6191.820, 24257.68
6193.749, 24115.72
6195.677, 24005.35
6197.605, 24014.03
6199.534, 24035.09
6201.462, 24022.15
6203.391, 23854.22
6205.319, 23840.70
6207.248, 23861.09
6209.176, 23697.07
6211.104, 23582.29
6213.033, 23585.01
6214.961, 23521.96
6216.890, 23457.36
6218.818, 23417.78
6220.747, 23340.66
6222.675, 23275.12
6224.604, 23220.32
6226.532, 23101.88
6228.461, 22959.43
6230.389, 22851.46
6232.318, 22783.82
6234.246, 22817.61
6236.175, 22770.98
6238.103, 22672.20
6240.032, 22587.66
6241.960, 22526.88
6243.889, 22380.18
6245.817, 22404.67
6247.746, 22291.56
6249.674, 22271.49
6251.603, 22343.58
6253.531, 22251.60
6255.459, 21990.48
6257.388, 22030.01
6259.316, 22133.63
6261.245, 22036.60
6263.173, 21835.51
6265.102, 21881.97
6267.030, 21847.17
6268.958, 21653.61
6270.887, 21539.61
6272.815, 21528.77
6274.744, 21555.12
6276.672, 21580.45
6278.601, 21352.66
6280.529, 21300.67
6282.458, 21378.53
6284.386, 21363.93
6286.315, 21183.89
6288.243, 21000.98
6290.172, 21103.83
6292.100, 20911.00
6294.029, 20916.05
6295.957, 20911.42
6297.886, 20685.43
6299.814, 20665.55
6301.743, 20699.81
6303.671, 20636.89
6305.600, 20452.17
6307.528, 20355.39
6309.457, 20410.37
6311.385, 20357.52
6313.313, 20211.52
6315.242, 20323.99
6317.170, 20369.20
6319.099, 20267.13
6321.027, 20140.72
6322.956, 20126.74
6324.884, 20112.15
6326.813, 19947.02
6328.741, 19781.86
6330.669, 19753.56
6332.598, 19784.83
6334.526, 19660.89
6336.455, 19574.94
6338.383, 19595.97
6340.312, 19608.54
6342.240, 19539.15
6344.169, 19426.72
6346.097, 19361.89
6348.026, 19383.13
6349.954, 19390.11
6351.883, 19260.45
6353.811, 19117.04
6355.740, 19032.02
6357.668, 18991.81
6359.597, 18984.13
6361.525, 18903.03
6363.454, 18826.70
6365.382, 18761.95
6367.311, 18732.19
6369.239, 18712.63
6371.167, 18634.17
6373.096, 18720.69
6375.024, 18588.08
6376.953, 18540.66
6378.881, 18517.88
6380.810, 18449.51
6382.738, 18369.90
6384.667, 18230.26
6386.595, 18319.45
6388.523, 18213.28
6390.452, 18199.25
6392.380, 18167.23
6394.309, 18012.19
6396.237, 18099.04
6398.166, 18117.48
6400.094, 17958.60
6402.023, 17907.14
6403.951, 17796.54
6405.880, 17654.24
6407.808, 17658.69
6409.737, 17590.40
6411.665, 17651.73
6413.594, 17639.92
6415.522, 17513.27
6417.451, 17427.86
6419.379, 17409.45
6421.308, 17305.45
6423.236, 17207.35
6425.165, 17165.02
6427.093, 17197.61
6429.021, 17103.37
6430.950, 17072.00
6432.878, 17178.89
6434.807, 16958.52
6436.735, 16941.33
6438.664, 16842.19
6440.592, 16900.48
6442.521, 16920.45
6444.449, 16815.39
6446.377, 16672.37
6448.306, 16537.12
6450.234, 16624.18
6452.163, 16484.93
6454.091, 16539.64
6456.020, 16478.30
6457.948, 16352.75
6459.877, 16414.09
6461.805, 16328.28
6463.734, 16409.61
6465.662, 16283.88
6467.591, 16213.60
6469.519, 16169.60
6471.448, 16096.55
6473.376, 16018.34
6475.305, 15925.62
6477.233, 16021.48
6479.162, 16025.87
6481.090, 15953.28
6483.019, 15821.60
6484.947, 15766.13
6486.875, 15849.83
6488.804, 15877.16
6490.732, 15790.00
6492.661, 15688.34
6494.589, 15642.62
6496.518, 15614.00
6498.446, 15570.22
6500.375, 15494.11
6502.303, 15388.67
6504.231, 15466.00
6506.160, 15347.50
6508.088, 15298.62
6510.017, 15229.05
6511.945, 15229.70
6513.874, 15268.61
6515.802, 15164.99
6517.731, 15228.92
6519.659, 15028.40
6521.588, 14995.42
6523.516, 15023.97
6525.445, 15021.22
6527.373, 14901.28
6529.302, 14737.11
6531.230, 14834.83
6533.159, 14709.27
6535.087, 14784.24
6537.016, 14701.84
6538.944, 14668.82
6540.873, 14685.90
6542.801, 14646.77
6544.729, 14556.95
6546.658, 14456.63
6548.586, 14400.12
6550.515, 14451.71
6552.443, 14418.28
6554.372, 14409.00
6556.300, 14407.43
6558.229, 14336.87
6560.157, 14259.25
6562.085, 14181.93
6564.014, 14146.19
6565.942, 13967.33
6567.871, 14015.35
6569.799, 14061.61
6571.728, 14007.51
6573.656, 13965.09
6575.585, 13872.40
6577.513, 13842.70
6579.442, 13755.04
6581.370, 13771.57
6583.299, 13736.05
6585.227, 13709.93
6587.156, 13689.71
6589.084, 13608.13
6591.013, 13546.95
6592.941, 13550.14
6594.870, 13563.45
6596.798, 13529.19
6598.727, 13345.09
6600.655, 13350.90
6602.583, 13405.90
6604.512, 13279.78
6606.440, 13266.02
6608.369, 13188.75
6610.297, 13186.83
6612.226, 13224.13
6614.154, 13151.14
6616.083, 13111.35
6618.011, 13033.97
6619.939, 12911.01
6621.868, 12960.47
6623.796, 12943.25
6625.725, 12997.88
6627.653, 12895.03
##END=



