##NAMES=Gahnite
##RRUFFID=R070591
##IDEAL CHEMISTRY=ZnAl_2_O_4_
##LOCALITY=Jemaa, Kaduna, Nigeria
##OWNER=RRUFF
##SOURCE=James Shigley
##DESCRIPTION=Blue octahedron
##STATUS=The identification of this mineral is confirmed by single-crystal X-ray diffraction and chemical analysis
##URL=https://www.rruff.net/odr/rruff_sample/R070591
##MEASURED CHEMISTRY=(Zn_0.91_Fe_0.08_Mg_0.01_)(Al_1.99_Fe_0.01_)O_4_
##DIFFRACTION SAMPLE DESCRIPTION=Single crystal, powder profile is calculated
##CELL PARAMETERS=a: 8.099 b: 8.099 c: 8.099 alpha: 90 beta: 90 gamma: 90 volume: 531.16 crystal system: cubic
##FILETYPE=Raman RAW
##RAMAN WAVELENGTH=780

111.6826, 2389.186
113.6111, 2314.267
115.5396, 2249.457
117.4680, 2186.847
119.3965, 2147.664
121.3250, 2147.817
123.2534, 2151.954
125.1819, 2142.123
127.1104, 2121.133
129.0388, 2099.835
130.9673, 2076.679
132.8958, 2055.546
134.8242, 2037.124
136.7527, 2020.122
138.6812, 2005.702
140.6096, 1992.008
142.5381, 1972.049
144.4666, 1943.548
146.3950, 1926.648
148.3235, 1945.574
150.2520, 1955.229
152.1804, 1922.616
154.1089, 1871.392
156.0374, 1853.231
157.9658, 1871.204
159.8943, 1878.946
161.8228, 1858.292
163.7512, 1835.956
165.6797, 1818.395
167.6082, 1805.793
169.5366, 1799.937
171.4651, 1800.747
173.3936, 1798.512
175.3220, 1778.497
177.2505, 1772.282
179.1790, 1796.930
181.1074, 1834.117
183.0359, 1858.870
184.9644, 1874.099
186.8928, 1902.302
188.8213, 1961.900
190.7498, 2008.821
192.6782, 2038.352
194.6067, 2049.658
196.5352, 2036.876
198.4636, 2004.964
200.3921, 1961.767
202.3206, 1893.628
204.2490, 1848.298
206.1775, 1851.617
208.1060, 1858.407
210.0344, 1839.297
211.9629, 1803.932
213.8914, 1768.441
215.8198, 1730.640
217.7483, 1708.073
219.6768, 1712.415
221.6052, 1718.009
223.5337, 1718.446
225.4622, 1713.597
227.3906, 1700.270
229.3191, 1678.668
231.2476, 1668.891
233.1760, 1687.544
235.1045, 1697.145
237.0330, 1685.956
238.9614, 1669.698
240.8899, 1663.038
242.8184, 1660.666
244.7468, 1646.014
246.6753, 1606.501
248.6038, 1584.818
250.5322, 1596.630
252.4607, 1609.830
254.3892, 1612.170
256.3176, 1606.638
258.2461, 1594.291
260.1746, 1573.914
262.1030, 1563.360
264.0315, 1571.315
265.9600, 1576.336
267.8884, 1570.909
269.8169, 1565.299
271.7454, 1569.155
273.6738, 1578.415
275.6023, 1579.610
277.5308, 1565.979
279.4592, 1559.340
281.3877, 1570.212
283.3162, 1574.471
285.2446, 1555.569
287.1731, 1531.639
289.1016, 1521.940
291.0300, 1526.364
292.9585, 1524.364
294.8870, 1508.729
296.8154, 1500.882
298.7439, 1509.700
300.6724, 1517.286
302.6008, 1508.037
304.5293, 1494.826
306.4578, 1498.181
308.3862, 1521.825
310.3147, 1537.995
312.2432, 1543.839
314.1716, 1548.305
316.1001, 1549.338
318.0286, 1554.134
319.9570, 1575.087
321.8855, 1600.079
323.8140, 1599.510
325.7424, 1565.334
327.6709, 1547.354
329.5994, 1551.744
331.5278, 1556.975
333.4563, 1561.705
335.3848, 1559.717
337.3132, 1542.529
339.2417, 1515.973
341.1702, 1497.151
343.0986, 1488.349
345.0271, 1481.026
346.9556, 1475.341
348.8840, 1470.563
350.8125, 1463.884
352.7410, 1460.989
354.6694, 1468.128
356.5979, 1482.306
358.5264, 1493.578
360.4548, 1500.512
362.3833, 1507.835
364.3118, 1518.350
366.2402, 1523.250
368.1687, 1516.879
370.0972, 1505.992
372.0256, 1492.867
373.9541, 1479.492
375.8826, 1468.476
377.8110, 1459.760
379.7395, 1459.989
381.6680, 1469.214
383.5964, 1487.663
385.5249, 1517.867
387.4534, 1554.770
389.3818, 1582.163
391.3103, 1621.371
393.2388, 1698.782
395.1672, 1818.087
397.0957, 1991.275
399.0242, 2213.513
400.9526, 2509.890
402.8811, 2837.177
404.8096, 3329.712
406.7380, 4039.697
408.6665, 4925.792
410.5950, 6212.652
412.5234, 7661.713
414.4519, 8217.565
416.3804, 7880.151
418.3088, 7132.518
420.2373, 5831.222
422.1658, 4629.634
424.0942, 3717.136
426.0227, 3000.772
427.9512, 2458.393
429.8796, 2060.259
431.8081, 1771.006
433.7366, 1582.276
435.6650, 1450.742
437.5935, 1381.559
439.5220, 1331.790
441.4504, 1297.324
443.3789, 1273.307
445.3074, 1260.366
447.2358, 1255.013
449.1643, 1255.680
451.0928, 1261.203
453.0212, 1267.792
454.9497, 1274.959
456.8782, 1278.627
458.8066, 1276.461
460.7351, 1276.263
462.6636, 1282.238
464.5920, 1287.213
466.5205, 1286.760
468.4490, 1284.357
470.3774, 1284.516
472.3059, 1286.917
474.2344, 1289.003
476.1628, 1290.646
478.0913, 1294.606
480.0198, 1298.533
481.9482, 1310.191
483.8767, 1334.714
485.8052, 1362.874
487.7336, 1388.693
489.6621, 1416.204
491.5906, 1448.417
493.5190, 1486.113
495.4475, 1533.941
497.3760, 1592.467
499.3044, 1655.364
501.2329, 1740.548
503.1614, 1795.608
505.0898, 1812.640
507.0183, 1799.118
508.9468, 1748.937
510.8752, 1678.346
512.8037, 1588.191
514.7322, 1494.320
516.6606, 1439.196
518.5891, 1425.714
520.5176, 1406.629
522.4460, 1375.564
524.3745, 1343.273
526.3030, 1304.252
528.2314, 1273.754
530.1599, 1264.166
532.0884, 1257.905
534.0168, 1235.650
535.9453, 1210.911
537.8738, 1207.358
539.8022, 1222.124
541.7307, 1224.683
543.6592, 1207.018
545.5876, 1197.074
547.5161, 1196.527
549.4446, 1202.901
551.3730, 1218.971
553.3015, 1238.007
555.2300, 1259.383
557.1584, 1278.985
559.0869, 1292.604
561.0154, 1301.172
562.9438, 1308.988
564.8723, 1317.253
566.8008, 1319.734
568.7292, 1306.842
570.6577, 1303.085
572.5862, 1313.075
574.5146, 1326.353
576.4431, 1341.953
578.3716, 1356.989
580.3000, 1370.928
582.2285, 1382.955
584.1570, 1388.640
586.0854, 1390.488
588.0139, 1401.072
589.9424, 1422.538
591.8708, 1441.161
593.7993, 1459.395
595.7278, 1467.024
597.6563, 1453.279
599.5847, 1449.758
601.5132, 1473.561
603.4417, 1498.865
605.3701, 1505.845
607.2986, 1511.356
609.2271, 1531.297
611.1555, 1559.985
613.0840, 1580.277
615.0125, 1593.185
616.9409, 1636.367
618.8694, 1718.801
620.7979, 1793.738
622.7263, 1860.718
624.6548, 1916.304
626.5833, 1945.943
628.5117, 1991.219
630.4402, 2073.343
632.3687, 2175.885
634.2971, 2249.510
636.2256, 2366.927
638.1541, 2597.898
640.0825, 2949.131
642.0110, 3415.332
643.9395, 4002.154
645.8679, 4870.439
647.7964, 6021.592
649.7249, 7472.586
651.6533, 9428.751
653.5818, 10937.74
655.5103, 11888.43
657.4387, 12067.82
659.3672, 11024.06
661.2957, 9597.784
663.2241, 8036.383
665.1526, 6536.853
667.0811, 5308.273
669.0095, 4321.905
670.9380, 3521.452
672.8665, 2905.534
674.7949, 2436.563
676.7234, 2115.279
678.6519, 1870.649
680.5803, 1702.597
682.5088, 1571.371
684.4373, 1473.361
686.3657, 1401.028
688.2942, 1360.944
690.2227, 1334.900
692.1511, 1319.333
694.0796, 1310.718
696.0081, 1307.904
697.9365, 1309.873
699.8650, 1318.948
701.7935, 1330.617
703.7219, 1331.755
705.6504, 1324.157
707.5789, 1319.517
709.5073, 1318.109
711.4358, 1294.002
713.3643, 1238.359
715.2927, 1191.857
717.2212, 1162.527
719.1497, 1142.336
721.0781, 1134.252
723.0066, 1127.600
724.9351, 1117.573
726.8635, 1108.941
728.7920, 1106.940
730.7205, 1106.190
732.6489, 1096.373
734.5774, 1085.768
736.5059, 1093.658
738.4343, 1112.899
740.3628, 1123.153
742.2913, 1125.417
744.2197, 1130.175
746.1482, 1137.954
748.0767, 1149.343
750.0051, 1166.368
751.9336, 1180.525
753.8621, 1189.060
755.7905, 1197.305
757.7190, 1209.025
759.6475, 1216.228
761.5759, 1213.297
763.5044, 1208.963
765.4329, 1208.555
767.3613, 1208.724
769.2898, 1210.134
771.2183, 1206.844
773.1467, 1185.644
775.0752, 1158.781
777.0037, 1149.272
778.9321, 1150.894
780.8606, 1142.711
782.7891, 1125.154
784.7175, 1107.872
786.6460, 1090.164
788.5745, 1077.797
790.5029, 1073.150
792.4314, 1069.120
794.3599, 1067.516
796.2883, 1062.730
798.2168, 1053.569
800.1453, 1042.554
802.0737, 1028.148
804.0022, 1015.047
805.9307, 1006.371
807.8591, 997.8170
809.7876, 986.2422
811.7161, 974.5089
813.6445, 964.9790
815.5730, 956.7567
817.5015, 948.7459
819.4299, 940.9654
821.3584, 934.2253
823.2869, 927.8699
825.2153, 919.2069
827.1438, 909.1766
829.0723, 904.1484
831.0007, 904.1079
832.9292, 907.1902
834.8577, 915.0118
836.7861, 918.3926
838.7146, 916.6558
840.6431, 913.1747
842.5715, 908.6429
844.5000, 901.0172
846.4285, 888.5620
848.3569, 876.2178
850.2854, 862.4105
852.2139, 856.3214
854.1423, 866.4916
856.0708, 874.1517
857.9993, 871.0452
859.9277, 862.7361
861.8562, 844.0233
863.7847, 831.3212
865.7131, 842.0925
867.6416, 856.3387
869.5701, 857.2547
871.4985, 850.4506
873.4270, 837.4639
875.3555, 825.1766
877.2839, 828.7709
879.2124, 840.5868
881.1409, 843.9111
883.0693, 839.1024
884.9978, 823.3578
886.9263, 799.6644
888.8547, 790.2330
890.7832, 794.4406
892.7117, 799.8493
894.6401, 806.4198
896.5686, 805.5283
898.4971, 796.4536
900.4255, 792.9050
902.3540, 796.9127
904.2825, 794.4276
906.2109, 782.3358
908.1394, 772.9019
910.0679, 767.6378
911.9963, 768.6187
913.9248, 780.2696
915.8533, 785.2865
917.7817, 775.6241
919.7102, 767.5047
921.6387, 765.8508
923.5671, 765.6317
925.4956, 765.8993
927.4241, 766.3671
929.3525, 767.0065
931.2810, 767.7722
933.2095, 769.4861
935.1379, 770.3002
937.0664, 767.2612
938.9949, 765.6179
940.9233, 773.1298
942.8518, 778.3877
944.7803, 768.3351
946.7087, 756.3466
948.6372, 754.0164
950.5657, 756.8441
952.4941, 762.5993
954.4226, 768.2241
956.3511, 770.1205
958.2795, 769.5635
960.2080, 765.2219
962.1365, 761.8569
964.0649, 770.5712
965.9934, 783.4066
967.9219, 786.0844
969.8503, 782.5759
971.7788, 777.5920
973.7073, 773.6334
975.6357, 781.6560
977.5642, 793.8440
979.4927, 782.9067
981.4211, 758.4633
983.3496, 756.2330
985.2781, 770.3364
987.2065, 773.4635
989.1350, 767.2019
991.0635, 762.6373
992.9919, 759.8650
994.9204, 759.5645
996.8489, 761.3925
998.7773, 759.2501
1000.706, 753.1374
1002.634, 744.8203
1004.563, 734.0620
1006.491, 726.8270
1008.420, 723.2830
1010.348, 724.2789
1012.277, 730.9299
1014.205, 730.7048
1016.134, 721.3759
1018.062, 720.3596
1019.990, 729.8911
1021.919, 735.6804
1023.847, 737.0657
1025.776, 738.8152
1027.704, 742.1116
1029.633, 739.4293
1031.561, 729.0255
1033.490, 719.8635
1035.418, 709.7425
1037.347, 712.1447
1039.275, 732.7896
1041.204, 740.5157
1043.132, 732.4015
1045.061, 722.3192
1046.989, 709.0724
1048.917, 701.4799
1050.846, 699.2132
1052.774, 706.6152
1054.703, 727.8107
1056.631, 729.0454
1058.560, 705.0266
1060.488, 693.6135
1062.417, 697.8899
1064.345, 702.4366
1066.274, 707.0155
1068.202, 707.8336
1070.131, 704.3226
1072.059, 702.3361
1073.988, 702.0977
1075.916, 696.1948
1077.844, 684.4546
1079.773, 679.8984
1081.701, 682.8216
1083.630, 685.2027
1085.558, 686.8405
1087.487, 680.0270
1089.415, 664.8253
1091.344, 662.5267
1093.272, 673.0995
1095.201, 678.4589
1097.129, 678.2076
1099.058, 671.9985
1100.986, 661.6584
1102.915, 663.5141
1104.843, 675.0153
1106.771, 681.6392
1108.700, 684.0050
1110.628, 681.8072
1112.557, 677.9727
1114.485, 687.2345
1116.414, 702.9572
1118.342, 701.9941
1120.271, 690.8504
1122.199, 687.1517
1124.128, 688.7614
1126.056, 691.0677
1127.985, 691.9720
1129.913, 686.7858
1131.842, 679.8428
1133.770, 678.7809
1135.698, 679.2364
1137.627, 672.2561
1139.555, 666.2549
1141.484, 677.4239
1143.412, 692.6555
1145.341, 692.6060
1147.269, 687.6249
1149.198, 693.8580
1151.126, 698.5504
1153.055, 683.8759
1154.983, 667.2499
1156.912, 660.9664
1158.840, 663.0519
1160.769, 679.4898
1162.697, 692.7781
1164.625, 688.1812
1166.554, 682.2841
1168.482, 685.2025
1170.411, 687.5417
1172.339, 683.0152
1174.268, 680.3524
1176.196, 682.5356
1178.125, 687.9651
1180.053, 700.5245
1181.982, 706.9050
1183.910, 696.5667
1185.839, 695.1868
1187.767, 717.6329
1189.696, 727.0460
1191.624, 709.9583
1193.552, 702.8712
1195.481, 713.1580
1197.409, 714.2717
1199.338, 702.0319
1201.266, 693.9662
1203.195, 691.1822
1205.123, 696.8759
1207.052, 710.0097
1208.980, 706.8768
1210.909, 690.5392
1212.837, 680.7905
1214.766, 676.0605
1216.694, 675.1550
1218.623, 678.4542
1220.551, 682.0082
1222.479, 685.2245
1224.408, 691.6662
1226.336, 697.9069
1228.265, 699.0715
1230.193, 696.8554
1232.122, 691.8118
1234.050, 686.8385
1235.979, 683.7951
1237.907, 681.3027
1239.836, 674.3035
1241.764, 671.7241
1243.693, 682.2001
1245.621, 690.6415
1247.550, 691.7021
1249.478, 691.2010
1251.406, 687.8340
1253.335, 696.3840
1255.263, 722.3662
1257.192, 734.1258
1259.120, 727.1910
1261.049, 723.2628
1262.977, 723.0861
1264.906, 728.4407
1266.834, 739.4183
1268.763, 745.2932
1270.691, 743.8442
1272.620, 722.9175
1274.548, 695.8424
1276.477, 697.1701
1278.405, 710.6163
1280.333, 710.3731
1282.262, 703.7949
1284.190, 697.1685
1286.119, 694.3602
1288.047, 702.1015
1289.976, 707.8159
1291.904, 703.5039
1293.833, 697.8170
1295.761, 691.4103
1297.690, 689.4707
1299.618, 694.8530
1301.547, 697.8214
1303.475, 696.6473
1305.404, 691.1690
1307.332, 682.4983
1309.260, 682.6434
1311.189, 689.3538
1313.117, 690.9002
1315.046, 689.2206
1316.974, 689.8198
1318.903, 690.9343
1320.831, 690.3558
1322.760, 687.0307
1324.688, 677.0289
1326.617, 667.2784
1328.545, 662.7584
1330.474, 661.9031
1332.402, 667.9028
1334.331, 670.2736
1336.259, 660.6715
1338.188, 656.5951
1340.116, 665.4299
1342.044, 670.5773
1343.973, 670.0864
1345.901, 665.3793
1347.830, 657.6364
1349.758, 655.2865
1351.687, 657.8415
1353.615, 665.0793
1355.544, 671.5325
1357.472, 661.7673
1359.401, 650.5023
1361.329, 654.5551
1363.258, 663.1594
1365.186, 675.5496
1367.115, 682.6604
1369.043, 674.6167
1370.971, 665.2814
1372.900, 657.8630
1374.828, 657.9305
1376.757, 670.1074
1378.685, 674.6070
1380.614, 668.4042
1382.542, 668.6673
1384.471, 675.2028
1386.399, 678.9224
1388.328, 679.0845
1390.256, 671.2632
1392.185, 664.1795
1394.113, 672.4725
1396.042, 681.9853
1397.970, 681.8605
1399.898, 681.8190
1401.827, 686.9353
1403.755, 691.4129
1405.684, 691.5955
1407.612, 696.7443
1409.541, 706.8566
1411.469, 707.5801
1413.398, 704.4835
1415.326, 709.0534
1417.255, 714.7889
1419.183, 717.1434
1421.112, 719.0853
1423.040, 716.1161
1424.969, 710.2147
1426.897, 711.6711
1428.825, 710.9908
1430.754, 696.2872
1432.682, 681.7904
1434.611, 675.7637
1436.539, 672.1079
1438.468, 666.6875
1440.396, 664.6982
1442.325, 668.1718
1444.253, 665.1310
1446.182, 656.9211
1448.110, 654.8782
1450.039, 655.6959
1451.967, 651.4125
1453.896, 646.4103
1455.824, 648.3931
1457.752, 648.6887
1459.681, 641.7236
1461.609, 639.8200
1463.538, 640.6557
1465.466, 639.1156
1467.395, 641.3417
1469.323, 645.5627
1471.252, 645.8088
1473.180, 637.8514
1475.109, 630.3242
1477.037, 632.2678
1478.966, 637.9468
1480.894, 644.6984
1482.823, 649.0860
1484.751, 655.2857
1486.679, 650.8892
1488.608, 629.6328
1490.536, 624.3585
1492.465, 632.1373
1494.393, 633.6158
1496.322, 631.3206
1498.250, 633.1367
1500.179, 639.0046
1502.107, 643.5197
1504.036, 643.2781
1505.964, 637.8655
1507.893, 638.5604
1509.821, 652.2105
1511.750, 660.1138
1513.678, 655.0004
1515.606, 656.1901
1517.535, 667.4088
1519.463, 676.4818
1521.392, 680.6885
1523.320, 678.0549
1525.249, 674.2852
1527.177, 674.3629
1529.106, 677.7971
1531.034, 690.3266
1532.963, 700.5958
1534.891, 698.6891
1536.820, 701.9986
1538.748, 710.0157
1540.677, 712.8171
1542.605, 712.9819
1544.533, 701.3442
1546.462, 688.9102
1548.390, 692.9699
1550.319, 696.9480
1552.247, 691.7303
1554.176, 684.9993
1556.104, 680.0798
1558.033, 675.7201
1559.961, 671.8306
1561.890, 670.3660
1563.818, 669.8233
1565.747, 675.0818
1567.675, 677.7717
1569.604, 662.0715
1571.532, 646.5527
1573.460, 638.2064
1575.389, 637.3384
1577.317, 642.0404
1579.246, 642.6399
1581.174, 641.8953
1583.103, 634.6907
1585.031, 621.6516
1586.960, 618.5107
1588.888, 624.1772
1590.817, 627.3008
1592.745, 620.8577
1594.674, 606.9767
1596.602, 602.6224
1598.531, 611.4536
1600.459, 608.6107
1602.387, 598.9938
1604.316, 602.4910
1606.244, 604.3394
1608.173, 592.5878
1610.101, 587.7252
1612.030, 596.8513
1613.958, 595.1302
1615.887, 589.6715
1617.815, 589.4642
1619.744, 584.7995
1621.672, 584.6722
1623.601, 585.5991
1625.529, 570.8928
1627.458, 557.8304
1629.386, 567.6476
1631.314, 569.6445
1633.243, 555.0776
1635.171, 556.3769
1637.100, 565.3972
1639.028, 552.5093
1640.957, 537.1507
1642.885, 538.4144
1644.814, 542.0893
1646.742, 541.4631
1648.671, 542.9871
1650.599, 547.7281
1652.528, 546.0767
1654.456, 543.7684
1656.385, 539.2184
1658.313, 533.6212
1660.241, 541.2639
1662.170, 544.8387
1664.098, 538.6835
1666.027, 537.9864
1667.955, 537.8774
1669.884, 533.0570
1671.812, 527.6746
1673.741, 525.0366
1675.669, 522.9727
1677.598, 520.9929
1679.526, 522.5835
1681.455, 523.5630
1683.383, 521.4205
1685.312, 517.0587
1687.240, 516.6834
1689.168, 522.0502
1691.097, 529.1838
1693.025, 531.6313
1694.954, 524.6984
1696.882, 518.6605
1698.811, 520.2944
1700.739, 512.8811
1702.668, 500.0921
1704.596, 512.6042
1706.525, 531.1814
1708.453, 518.2794
1710.382, 501.9355
1712.310, 511.3220
1714.239, 518.8566
1716.167, 516.5057
1718.095, 512.1592
1720.024, 502.9366
1721.952, 501.5335
1723.881, 502.7876
1725.809, 499.8048
1727.738, 503.4849
1729.666, 508.1569
1731.595, 504.2539
1733.523, 494.7368
1735.452, 493.9453
1737.380, 501.3351
1739.309, 502.8732
1741.237, 500.6584
1743.166, 504.5538
1745.094, 503.4153
1747.022, 494.5068
1748.951, 490.2719
1750.879, 490.6149
1752.808, 495.5750
1754.736, 498.0529
1756.665, 487.5564
1758.593, 483.5027
1760.522, 491.6760
1762.450, 488.4701
1764.379, 478.7765
1766.307, 481.3456
1768.236, 482.1484
1770.164, 476.8471
1772.093, 475.7684
1774.021, 475.0175
1775.949, 480.2910
1777.878, 483.8616
1779.806, 476.5714
1781.735, 473.1078
1783.663, 472.7976
1785.592, 474.5110
1787.520, 479.2958
1789.449, 479.6985
1791.377, 479.5252
1793.306, 474.1574
1795.234, 468.1848
1797.163, 470.5095
1799.091, 476.4676
1801.020, 478.5476
1802.948, 471.9961
1804.876, 463.1051
1806.805, 463.6367
1808.733, 469.6131
1810.662, 468.5658
1812.590, 467.9911
1814.519, 472.3300
1816.447, 470.7305
1818.376, 468.9838
1820.304, 470.1204
1822.233, 470.2928
1824.161, 465.3029
1826.090, 458.1564
1828.018, 455.5078
1829.947, 452.9128
1831.875, 451.8576
1833.803, 453.5999
1835.732, 452.7807
1837.660, 454.6857
1839.589, 458.3368
1841.517, 453.9775
1843.446, 452.9084
1845.374, 457.8684
1847.303, 451.3870
1849.231, 434.3277
1851.160, 427.1405
1853.088, 435.5325
1855.017, 442.2295
1856.945, 437.1127
1858.874, 431.0917
1860.802, 438.0688
1862.730, 443.8748
1864.659, 440.1827
1866.587, 436.9959
1868.516, 432.6197
1870.444, 429.5802
1872.373, 434.1553
1874.301, 447.0602
1876.230, 451.9161
1878.158, 437.3744
1880.087, 425.2655
1882.015, 422.7779
1883.944, 416.2842
1885.872, 414.3773
1887.801, 418.3962
1889.729, 425.1477
1891.657, 428.3932
1893.586, 426.8183
1895.514, 424.5695
1897.443, 428.1325
1899.371, 429.5597
1901.300, 419.6839
1903.228, 420.3524
1905.157, 428.8064
1907.085, 421.4543
1909.014, 404.6331
1910.942, 396.8745
1912.871, 404.0589
1914.799, 418.4209
1916.728, 425.4843
1918.656, 422.7292
1920.584, 419.4811
1922.513, 413.2046
1924.441, 405.7370
1926.370, 408.9933
1928.298, 411.2363
1930.227, 409.9298
1932.155, 407.8683
1934.084, 407.6970
1936.012, 412.1660
1937.941, 407.1102
1939.869, 407.1685
1941.798, 405.3080
1943.726, 399.8539
1945.655, 401.5314
1947.583, 403.6714
1949.511, 408.6113
1951.440, 407.2903
1953.368, 389.3695
1955.297, 388.3426
1957.225, 403.3670
1959.154, 403.0220
1961.082, 400.3002
1963.011, 396.4656
1964.939, 390.6973
1966.868, 392.8410
1968.796, 397.5063
1970.725, 400.1706
1972.653, 395.8731
1974.582, 390.6832
1976.510, 396.9988
1978.438, 393.0336
1980.367, 380.2135
1982.295, 382.8581
1984.224, 390.5938
1986.152, 394.5880
1988.081, 395.1254
1990.009, 396.8266
1991.938, 387.7122
1993.866, 376.8500
1995.795, 384.1242
1997.723, 390.6879
1999.652, 385.1827
2001.580, 383.8987
2003.509, 385.9474
2005.437, 382.6571
2007.365, 380.3995
2009.294, 374.2218
2011.222, 371.6310
2013.151, 371.6095
2015.079, 371.6684
2017.008, 372.6676
2018.936, 366.3131
2020.865, 368.4928
2022.793, 371.2349
2024.722, 355.3493
2026.650, 345.7643
2028.579, 356.5088
2030.507, 362.0650
2032.436, 364.1556
2034.364, 361.2072
2036.292, 361.6881
2038.221, 369.1373
2040.149, 356.9607
2042.078, 339.4452
2044.006, 344.3422
2045.935, 356.5267
2047.863, 361.1920
2049.792, 348.6112
2051.720, 342.2464
2053.649, 348.4586
2055.577, 350.1642
2057.506, 351.4268
2059.434, 347.2276
2061.363, 332.7163
2063.291, 335.2380
2065.219, 340.0638
2067.148, 340.6820
2069.076, 344.0928
2071.005, 338.4836
2072.933, 337.3894
2074.862, 338.5236
2076.790, 334.7723
2078.719, 335.0827
2080.647, 337.5055
2082.576, 333.8961
2084.504, 330.9167
2086.433, 327.8347
2088.361, 325.1461
2090.290, 334.7789
2092.218, 330.1913
2094.146, 315.9353
2096.075, 309.9788
2098.003, 318.1885
2099.932, 332.8241
2101.860, 333.9625
2103.789, 330.2951
2105.717, 322.0016
2107.646, 317.7739
2109.574, 320.4720
2111.503, 323.6697
2113.431, 318.8046
2115.360, 313.9002
2117.288, 313.1130
2119.217, 310.6730
2121.145, 313.1724
2123.073, 313.9269
2125.002, 299.6040
2126.930, 299.0100
2128.859, 308.2646
2130.787, 304.4230
2132.716, 302.3618
2134.644, 304.2921
2136.573, 304.3424
2138.501, 303.3082
2140.430, 301.9260
2142.358, 310.8905
2144.287, 314.9251
2146.215, 306.7182
2148.144, 305.8075
2150.072, 309.2289
2152.000, 306.8086
2153.929, 309.7212
2155.857, 307.9170
2157.786, 299.8779
2159.714, 290.1250
2161.643, 285.7863
2163.571, 283.4217
2165.500, 300.9766
2167.428, 315.4894
2169.357, 311.6460
2171.285, 302.8119
2173.214, 291.0516
2175.142, 279.4380
2177.071, 272.9037
2178.999, 270.8689
2180.927, 279.9503
2182.856, 288.5242
2184.784, 282.8033
2186.713, 280.8060
2188.641, 276.5331
2190.570, 286.2604
2192.498, 292.6788
2194.427, 278.7885
2196.355, 276.3203
2198.284, 282.3013
2200.212, 285.9308
2202.141, 282.9973
2204.069, 278.1229
2205.998, 267.6418
2207.926, 259.9762
2209.854, 259.8808
2211.783, 264.0428
2213.711, 269.9375
2215.640, 271.0717
2217.568, 270.1689
2219.497, 257.4168
2221.425, 256.3049
2223.354, 263.2943
2225.282, 256.0923
2227.211, 258.6259
2229.139, 273.6198
2231.068, 262.5131
2232.996, 249.6371
2234.925, 250.4649
2236.853, 256.3811
2238.781, 262.1849
2240.710, 265.8913
2242.638, 264.9240
2244.567, 255.6306
2246.495, 263.0668
2248.424, 266.4288
2250.352, 251.8580
2252.281, 249.5439
2254.209, 249.3516
2256.138, 256.7980
2258.066, 264.7173
2259.995, 252.9641
2261.923, 243.6517
2263.852, 242.4957
2265.780, 245.5781
2267.708, 248.9588
2269.637, 249.8472
2271.565, 245.8696
2273.494, 242.1055
2275.422, 241.4043
2277.351, 243.1385
2279.279, 244.2958
2281.208, 235.4965
2283.136, 235.7674
2285.065, 242.5984
2286.993, 236.7037
2288.922, 232.5128
2290.850, 233.3354
2292.779, 238.5419
2294.707, 241.7320
2296.635, 232.6808
2298.564, 230.1056
2300.492, 237.1739
2302.421, 238.4365
2304.349, 229.7861
2306.278, 216.2689
2308.206, 222.4527
2310.135, 234.2489
2312.063, 231.6941
2313.992, 230.7057
2315.920, 232.3991
2317.849, 221.6874
2319.777, 214.8856
2321.706, 215.1248
2323.634, 220.5462
2325.563, 227.2558
2327.491, 228.1270
2329.419, 217.4248
2331.348, 203.1909
2333.276, 204.8811
2335.205, 216.1145
2337.133, 226.3278
2339.062, 217.3582
2340.990, 210.0905
2342.919, 211.0540
2344.847, 208.9687
2346.776, 208.7948
2348.704, 206.7664
2350.633, 207.5005
2352.561, 212.4749
2354.490, 206.5485
2356.418, 204.1699
2358.346, 203.0677
2360.275, 203.4033
2362.203, 203.6129
2364.132, 196.6324
2366.060, 205.9407
2367.989, 221.1063
2369.917, 217.3730
2371.846, 207.6044
2373.774, 199.6773
2375.703, 185.8429
2377.631, 179.6832
2379.560, 188.2233
2381.488, 191.9172
2383.417, 197.7302
2385.345, 211.3930
2387.273, 202.0031
2389.202, 175.3566
2391.130, 183.0559
2393.059, 190.4273
2394.987, 180.7522
2396.916, 186.7386
2398.844, 195.5638
2400.773, 196.1528
2402.701, 190.6291
2404.630, 187.9460
2406.558, 193.0229
2408.487, 195.6556
2410.415, 196.0563
2412.344, 193.5249
2414.272, 188.7530
2416.200, 182.2921
2418.129, 174.5628
2420.057, 168.0369
2421.986, 161.0406
2423.914, 171.6703
2425.843, 179.3434
2427.771, 167.4617
2429.700, 174.1725
2431.628, 185.7397
2433.557, 189.0524
2435.485, 178.6323
2437.414, 160.7044
2439.342, 161.9572
2441.271, 173.2754
2443.199, 180.7161
2445.127, 176.3348
2447.056, 172.3215
2448.984, 162.1838
2450.913, 165.3670
2452.841, 171.1193
2454.770, 178.0453
2456.698, 174.5108
2458.627, 164.3621
2460.555, 155.8394
2462.484, 160.4944
2464.412, 173.7193
2466.341, 176.0888
2468.269, 168.7991
2470.198, 160.4495
2472.126, 163.3301
2474.054, 167.3531
2475.983, 163.0802
2477.911, 159.7466
2479.840, 161.9848
2481.768, 172.2589
2483.697, 173.4384
2485.625, 166.7320
2487.554, 171.2930
2489.482, 177.6131
2491.411, 172.0463
2493.339, 164.7803
2495.268, 156.3693
2497.196, 150.1350
2499.125, 158.6499
2501.053, 162.5786
2502.981, 157.4061
2504.910, 151.8351
2506.838, 153.5361
2508.767, 160.5514
2510.695, 153.0629
2512.624, 155.6482
2514.552, 165.1714
2516.481, 145.0504
2518.409, 132.2857
2520.338, 141.9080
2522.266, 140.0644
2524.195, 138.9539
2526.123, 154.6986
2528.052, 161.1517
2529.980, 154.9860
2531.908, 144.4604
2533.837, 156.0317
2535.765, 166.6769
2537.694, 154.3057
2539.622, 150.6350
2541.551, 157.1652
2543.479, 160.3563
2545.408, 152.7820
2547.336, 143.9234
2549.265, 138.2667
2551.193, 140.7010
2553.122, 145.8562
2555.050, 139.1684
2556.979, 140.0197
2558.907, 149.3491
2560.835, 150.1557
2562.764, 150.7784
2564.692, 145.1078
2566.621, 142.2247
2568.549, 137.3499
2570.478, 128.8329
2572.406, 139.7916
2574.335, 143.6840
2576.263, 134.1426
2578.192, 142.9168
2580.120, 147.6752
2582.049, 142.6055
2583.977, 140.1159
2585.906, 140.4217
2587.834, 142.4009
2589.762, 141.8375
2591.691, 139.0393
2593.619, 144.8972
2595.548, 132.5272
2597.476, 117.8446
2599.405, 118.5419
2601.333, 130.4053
2603.262, 136.9271
2605.190, 140.3930
2607.119, 134.2710
2609.047, 128.6219
2610.976, 120.6982
2612.904, 115.4911
2614.833, 123.1676
2616.761, 135.6462
2618.689, 139.3763
2620.618, 134.5193
2622.546, 113.9293
2624.475, 111.7083
2626.403, 125.0415
2628.332, 132.3494
2630.260, 121.3429
2632.189, 118.6177
2634.117, 130.2318
2636.046, 129.0989
2637.974, 128.1336
2639.903, 123.2618
2641.831, 120.5292
2643.760, 126.5870
2645.688, 130.7789
2647.616, 128.9850
2649.545, 120.8525
2651.473, 120.5775
2653.402, 125.7072
2655.330, 122.3203
2657.259, 118.9538
2659.187, 117.0377
2661.116, 113.7371
2663.044, 112.7337
2664.973, 132.5697
2666.901, 139.3349
2668.830, 127.1395
2670.758, 118.8025
2672.687, 121.4177
2674.615, 126.4605
2676.543, 126.5706
2678.472, 131.0589
2680.400, 124.5472
2682.329, 107.9448
2684.257, 106.3648
2686.186, 118.6975
2688.114, 117.3715
2690.043, 118.0928
2691.971, 117.0962
2693.900, 111.9190
2695.828, 108.4626
2697.757, 98.79778
2699.685, 113.9729
2701.614, 114.3622
2703.542, 107.5674
2705.470, 110.8647
2707.399, 103.9349
2709.327, 98.29858
2711.256, 91.71603
2713.184, 100.0064
2715.113, 106.0669
2717.041, 106.4113
2718.970, 106.3184
2720.898, 106.2043
2722.827, 113.0386
2724.755, 97.18619
2726.684, 84.46069
2728.612, 91.55713
2730.541, 101.3564
2732.469, 101.8438
2734.397, 100.2102
2736.326, 104.6696
2738.254, 97.79476
2740.183, 91.21233
2742.111, 106.4028
2744.040, 98.12626
2745.968, 79.30057
2747.897, 99.65110
2749.825, 118.5173
2751.754, 113.5110
2753.682, 98.67406
2755.611, 93.11393
2757.539, 94.37202
2759.468, 87.81311
2761.396, 95.41069
2763.324, 93.62871
2765.253, 76.80357
2767.181, 82.20274
2769.110, 93.19788
2771.038, 97.38253
2772.967, 89.88547
2774.895, 94.22250
2776.824, 98.45885
2778.752, 89.09486
2780.681, 100.3257
2782.609, 105.1268
2784.538, 71.86172
2786.466, 65.82467
2788.395, 72.52193
2790.323, 79.81459
2792.251, 87.98438
2794.180, 87.63835
2796.108, 90.53387
2798.037, 84.86546
2799.965, 75.13493
2801.894, 74.65632
2803.822, 81.97884
2805.751, 65.04404
2807.679, 66.05811
2809.608, 103.1796
2811.536, 89.32965
2813.465, 60.52213
2815.393, 77.51231
2817.322, 86.55630
2819.250, 81.14493
2821.178, 74.74908
2823.107, 74.46559
2825.035, 85.31588
2826.964, 96.35374
2828.892, 73.26120
2830.821, 60.34961
2832.749, 67.42616
2834.678, 68.03028
2836.606, 74.38716
2838.535, 86.57385
2840.463, 86.59047
2842.392, 68.47852
2844.320, 59.01044
2846.249, 61.80127
2848.177, 82.35131
2850.105, 93.37206
2852.034, 95.88811
2853.962, 80.81009
2855.891, 81.51534
2857.819, 78.95629
2859.748, 71.57322
2861.676, 77.32033
2863.605, 84.46281
2865.533, 93.09609
2867.462, 71.56947
2869.390, 70.68263
2871.319, 73.13097
2873.247, 62.92820
2875.176, 60.55363
2877.104, 61.64394
2879.032, 58.84081
2880.961, 66.75581
2882.889, 77.09901
2884.818, 86.95229
2886.746, 81.74767
2888.675, 77.46455
2890.603, 75.87674
2892.532, 79.73288
2894.460, 57.67057
2896.389, 51.36674
2898.317, 64.01970
2900.246, 59.68607
2902.174, 63.02262
2904.103, 62.00041
2906.031, 46.59768
2907.959, 55.14962
2909.888, 65.40466
2911.816, 67.83509
2913.745, 84.83093
2915.673, 85.64685
2917.602, 64.60519
2919.530, 67.77336
2921.459, 71.43813
2923.387, 61.73445
2925.316, 43.90444
2927.244, 53.72937
2929.173, 53.12486
2931.101, 34.60417
2933.030, 53.90183
2934.958, 51.22327
2936.886, 52.35246
2938.815, 76.88483
2940.743, 59.93790
2942.672, 51.20711
2944.600, 60.93984
2946.529, 57.45696
2948.457, 58.16300
2950.386, 63.54866
2952.314, 54.40958
2954.243, 57.46894
2956.171, 64.89163
2958.100, 63.84320
2960.028, 68.35434
2961.957, 69.15025
2963.885, 62.28261
2965.813, 62.22517
2967.742, 56.77320
2969.670, 56.32256
2971.599, 64.65144
2973.527, 58.44889
2975.456, 53.69910
2977.384, 59.19128
2979.313, 62.91108
2981.241, 57.02035
2983.170, 48.43288
2985.098, 45.98009
2987.027, 63.17614
2988.955, 70.74968
2990.884, 58.66939
2992.812, 46.82375
2994.740, 49.78596
2996.669, 47.19400
2998.597, 46.67281
3000.526, 44.55684
3002.454, 48.66906
3004.383, 53.54718
3006.311, 60.21309
3008.240, 55.52688
3010.168, 50.95468
3012.097, 36.17582
3014.025, 32.57236
3015.954, 32.06977
3017.882, 31.59805
3019.811, 30.15889
3021.739, 42.74406
3023.667, 58.39740
3025.596, 65.84790
3027.524, 70.21240
3029.453, 52.83041
3031.381, 31.22272
3033.310, 32.53163
3035.238, 43.33918
3037.167, 46.76155
3039.095, 48.56736
3041.024, 54.17013
3042.952, 52.44073
3044.881, 55.80304
3046.809, 57.91790
3048.738, 54.29538
3050.666, 48.01881
3052.594, 48.47155
3054.523, 51.04069
3056.451, 52.17275
3058.380, 39.75099
3060.308, 42.12216
3062.237, 47.24637
3064.165, 22.84452
3066.094, 26.13416
3068.022, 42.88359
3069.951, 48.28931
3071.879, 51.85594
3073.808, 43.30940
3075.736, 38.37719
3077.665, 41.89470
3079.593, 35.50697
3081.521, 42.55672
3083.450, 62.02861
3085.378, 48.92473
3087.307, 34.28558
3089.235, 30.66346
3091.164, 53.10165
3093.092, 62.01468
3095.021, 47.84772
3096.949, 27.30965
3098.878, 36.60796
3100.806, 33.79172
3102.735, 25.44750
3104.663, 26.87046
3106.592, 41.41994
3108.520, 19.15606
3110.448, 16.39802
3112.377, 51.15754
3114.305, 34.91469
3116.234, 37.13819
3118.162, 45.41734
3120.091, 37.96751
3122.019, 44.38597
3123.948, 48.87645
3125.876, 46.75689
3127.805, 35.10425
3129.733, 38.70362
3131.662, 38.99546
3133.590, 35.81125
3135.519, 25.19049
3137.447, 28.84627
3139.375, 34.74709
3141.304, 38.62890
3143.232, 34.37260
3145.161, 40.33529
3147.089, 48.19467
3149.018, 52.10584
3150.946, 39.82455
3152.875, 33.79680
3154.803, 33.81041
3156.732, 36.68499
3158.660, 26.12706
3160.589, 21.40760
3162.517, 30.32645
3164.446, 43.33650
3166.374, 61.92858
3168.302, 40.00228
3170.231, 31.21541
3172.159, 55.82169
3174.088, 65.89824
3176.016, 39.37375
3177.945, 30.15406
3179.873, 45.46552
3181.802, 9.523587
3183.730, 7.258821
3185.659, 22.18364
3187.587, 30.67075
3189.516, 38.88884
3191.444, 43.54414
3193.373, 30.47972
3195.301, 5.668784
3197.229, 30.62284
3199.158, 35.49413
3201.086, 36.65173
3203.015, 39.03731
3204.943, 6.962923
3206.872, 6.202979
3208.800, 25.36168
3210.729, 45.71185
3212.657, 38.39037
3214.586, 34.16788
3216.514, 32.36515
3218.443, 29.39998
3220.371, 30.98893
3222.300, 35.72902
3224.228, 31.74002
3226.156, 10.75621
3228.085, -1.417923
3230.013, 19.87238
3231.942, 33.01630
3233.870, 29.73071
3235.799, 22.05645
3237.727, 25.95789
3239.656, 14.45179
3241.584, 6.170707
3243.513, 40.86671
3245.441, 35.43473
3247.370, 28.39534
3249.298, 25.86043
3251.227, 27.59074
3253.155, 34.64519
3255.083, 24.04618
3257.012, 17.52599
3258.940, 34.05444
3260.869, 30.64884
3262.797, 42.55634
3264.726, 31.60735
3266.654, -13.00739
3268.583, -2.075497
3270.511, 15.03525
3272.440, 20.40009
3274.368, 16.49192
3276.297, 33.01368
3278.225, 39.70590
3280.154, 35.82956
3282.082, 31.63326
3284.010, 42.77380
3285.939, 36.57865
3287.867, 28.67243
3289.796, 28.31632
3291.724, 32.79635
3293.653, 34.91544
3295.581, 20.84981
3297.510, 19.34876
3299.438, 38.63591
3301.367, 22.15033
3303.295, 21.40717
3305.224, 19.81985
3307.152, 11.03689
3309.081, 15.87654
3311.009, 11.10837
3312.938, 19.85264
3314.866, 33.94557
3316.794, 35.42338
3318.723, 19.25518
3320.651, 23.19980
3322.580, 26.64401
3324.508, 14.78655
3326.437, 31.04379
3328.365, 40.11376
3330.294, 25.28128
3332.222, 2.844536
3334.151, 13.97620
3336.079, 33.26862
3338.008, 43.92176
3339.936, 38.82986
3341.865, 20.86948
3343.793, 34.74554
3345.721, 48.77792
3347.650, 44.61986
3349.578, 23.25426
3351.507, 9.909471
3353.435, 27.73459
3355.364, 46.18765
3357.292, 36.74284
3359.221, -5.949007
3361.149, 22.93138
3363.078, 44.16949
3365.006, 34.15009
##END=



